Software Version:	3.9.2.0
Unit SN:	10000200
Spectrometer SN:	6960
Date:	3/6/2024 10:01:53 AM
Data Line Index:	25
Spectral Points:	2048
Integration time (ms):	125
Averages:	20
Delay (ms):	30
Sequence Number:	1
Processing:	dark subtract
Laser Power (mW):	300
Laser Current (mA):	826
Laser Diode Temp (C):	25.1
Laser Case Temp (C):	24.7
System Temp (C):	24.5
Spectrometer Temp (C):	22.1
CCD Temp (C):	-0.013
Secondary Temp (C):	20.006
Heatsink Temp (C):	18.38
CCDPCB Temp (C):	31.016
SecondaryPCB Temp (C):	26.492

Wavelength	RamanShift	Raw Counts	Dark Subtracted
787.061	30.1047	685.25	275.8
787.2016	32.3739	690.65	284.35
787.3422	34.6426	707.4	299.5
787.4828	36.9109	722.6	313.7
787.6235	39.1787	754.4	342
787.7642	41.4461	777.85	358.5
787.9049	43.7131	801.2	381.35
788.0456	45.9796	826.4	403.3
788.1863	48.2456	853.2	424.95
788.3271	50.5112	881.65	451.65
788.4679	52.7764	908.65	473.25
788.6087	55.0411	937.25	500.45
788.7496	57.3054	978.9	535.7
788.8904	59.5692	1012.5	567.4
789.0313	61.8326	1047.2	599.35
789.1722	64.0955	1086.4	635.2
789.3132	66.3579	1144.85	690.6
789.4541	68.6199	1207.75	747.55
789.5951	70.8815	1318	854.1
789.7361	73.1426	1562.2	1094.7
789.8771	75.4032	2195.15	1723.25
790.0181	77.6634	3757.5	3281.85
790.1592	79.9231	7673.35	7192.3
790.3003	82.1824	17906.4	17416.5
790.4414	84.4412	37437.9	36928.8
790.5825	86.6995	50346.75	49819
790.7237	88.9574	56305.2	55759.2
790.8648	91.2148	59822.7	59265.3
791.006	93.4717	60823.9	60260.15
791.1472	95.7282	61269.05	60699.55
791.2885	97.9842	61491.05	60920.8
791.4297	100.2398	61503.85	60931.85
791.571	102.4949	61460.75	60882.05
791.7123	104.7495	61534.85	60954.9
791.8536	107.0036	61381.45	60801.95
791.9949	109.2573	61643.5	61065.9
792.1363	111.5105	61429.7	60846.1
792.2777	113.7632	61517.85	60930.5
792.4191	116.0154	61614.1	61016.65
792.5605	118.2672	61806.35	61214.6
792.7019	120.5185	61804.2	61211.65
792.8434	122.7693	61798	61201.75
792.9849	125.0197	61561.95	60961.55
793.1264	127.2696	62055.45	61452.2
793.2679	129.519	61967.85	61360.4
793.4094	131.7679	62168.6	61560.5
793.551	134.0163	61661.05	61047.8
793.6926	136.2642	61878.45	61263.9
793.8342	138.5117	62211.5	61592
793.9758	140.7587	62100.25	61481.35
794.1175	143.0052	62098.95	61478.25
794.2591	145.2512	61829.65	61209.85
794.4008	147.4967	62179.4	61556.8
794.5425	149.7417	62059.55	61431.5
794.6842	151.9863	62078.15	61445.65
794.826	154.2304	61871.25	61234.55
794.9677	156.4739	62038.85	61399.15
795.1095	158.717	62257.45	61615.55
795.2513	160.9596	62109	61464.1
795.3931	163.2017	61837.05	61190.8
795.535	165.4433	62147.75	61495.9
795.6768	167.6844	62005	61352
795.8187	169.925	62187.85	61533.75
795.9606	172.1651	62029.55	61374.8
796.1025	174.4047	62106.95	61445.8
796.2445	176.6439	62095.45	61435.45
796.3864	178.8825	62032.8	61370.4
796.5284	181.1206	62255.5	61584.45
796.6704	183.3582	62228.65	61555.85
796.8124	185.5954	62094.25	61421.2
796.9544	187.832	62133.7	61454.25
797.0965	190.0681	61989.45	61311.8
797.2386	192.3037	62288.95	61604.8
797.3806	194.5388	62604.6	61915.75
797.5228	196.7734	61849.75	61161.95
797.6649	199.0075	62574.5	61884
797.807	201.2411	62308.8	61617.45
797.9492	203.4742	62714.05	62022.1
798.0914	205.7068	62601.7	61900.6
798.2336	207.9389	62585.85	61885.1
798.3758	210.1704	62552.7	61855.2
798.518	212.4015	62850.1	62161.35
798.6603	214.632	62474.7	61792.95
798.8025	216.862	62857.7	62179.85
798.9448	219.0915	62666.05	61988.85
799.0871	221.3205	62625.1	61946.8
799.2294	223.549	62949.95	62273.5
799.3718	225.777	62902	62222.95
799.5141	228.0044	63043.45	62356.45
799.6565	230.2314	62900.15	62215
799.7989	232.4578	62908.3	62217.6
799.9413	234.6837	62994.9	62299.3
800.0837	236.909	63550.6	62852.15
800.2262	239.1339	62742	62019.35
800.3687	241.3582	63098.3	62386.8
800.5111	243.582	63149.05	62409.05
800.6536	245.8053	63095.55	62370.7
800.7961	248.0281	63153.6	62433.1
800.9387	250.2503	63255.35	62528.55
801.0812	252.472	63015.1	62287.5
801.2238	254.6932	63225.85	62497.95
801.3664	256.9139	63117.85	62389.2
801.509	259.134	63595.9	62862.2
801.6516	261.3536	63059.95	62329.45
801.7942	263.5727	63337.35	62604.6
801.9369	265.7912	63164.25	62431.5
802.0795	268.0092	63239.7	62505.1
802.2222	270.2267	63331.5	62597
802.3649	272.4436	63083.25	62347.95
802.5076	274.6601	63320.2	62572.3
802.6504	276.8759	63447.9	62706.75
802.7931	279.0913	63279.1	62536.55
802.9359	281.3061	63373.6	62629.6
803.0787	283.5204	63365.85	62616.2
803.2215	285.7341	63321.15	62569.45
803.3643	287.9473	63580.5	62816.8
803.5071	290.16	63401.6	62647.65
803.6499	292.3721	63504.6	62759.15
803.7928	294.5837	63311.5	62560.9
803.9357	296.7947	63139.2	62391.6
804.0786	299.0052	63544.65	62793.25
804.2215	301.2152	63378.45	62622.1
804.3644	303.4246	63545.9	62796.3
804.5074	305.6334	63576.6	62827.4
804.6503	307.8418	63271.25	62517.8
804.7933	310.0495	63286.45	62529.25
804.9363	312.2568	63272	62515.6
805.0793	314.4635	63270.9	62510.15
805.2223	316.6696	63436.5	62674.5
805.3653	318.8752	63564.95	62793.45
805.5084	321.0802	63047.4	62281.25
805.6514	323.2847	63292.25	62526.7
805.7945	325.4887	63255.85	62490.1
805.9376	327.692	63164.25	62394.45
806.0807	329.8949	63289.3	62520.2
806.2238	332.0972	63166.2	62391.45
806.367	334.2989	63292.45	62517.25
806.5101	336.5001	63476.35	62702.1
806.6533	338.7007	63051.1	62278.2
806.7965	340.9008	63296.65	62519.95
806.9397	343.1003	63322.55	62543
807.0829	345.2992	63445.15	62668.85
807.2261	347.4976	63254.1	62476.1
807.3693	349.6955	63340.65	62556.85
807.5126	351.8927	63182.85	62398.3
807.6559	354.0895	63373.25	62576.5
807.7991	356.2856	63345.75	62557.15
807.9424	358.4812	63511.7	62724.75
808.0857	360.6763	63177.1	62388.5
808.2291	362.8707	63515.55	62720.9
808.3724	365.0646	63305	62510.3
808.5158	367.258	63314.9	62518.55
808.6591	369.4508	63108.55	62311.15
808.8025	371.643	63426.2	62628.05
808.9459	373.8346	63281.8	62480.95
809.0893	376.0257	63315.45	62513.35
809.2327	378.2162	63234.7	62436.15
809.3762	380.4062	62976.3	62176.35
809.5196	382.5956	63198.55	62401.9
809.6631	384.7844	63155.15	62357.25
809.8066	386.9726	63299.3	62502.75
809.9501	389.1603	63311.9	62519.05
810.0936	391.3474	63097.2	62272.8
810.2371	393.5339	63302.9	62504.65
810.3806	395.7199	62968.2	62174.35
810.5241	397.9052	63056.25	62259.3
810.6677	400.09	63133.35	62338.2
810.8113	402.2743	63333.1	62536
810.9548	404.4579	63063.75	62266.7
811.0984	406.641	63066.25	62265.7
811.2421	408.8235	63158.15	62358.05
811.3857	411.0054	63169.35	62363.6
811.5293	413.1868	63201	62394.45
811.673	415.3675	63118.65	62307.45
811.8166	417.5477	63143.75	62331.85
811.9603	419.7273	63115.9	62301.7
812.104	421.9064	63064.1	62244.55
812.2477	424.0848	63124.3	62309.25
812.3914	426.2627	63290.2	62477.2
812.5351	428.4399	62994.6	62178.55
812.6788	430.6166	62765.4	61944.75
812.8226	432.7928	63050.95	62226.55
812.9663	434.9683	62826.45	62005.6
813.1101	437.1432	62826	62005.5
813.2539	439.3176	63035.95	62217.9
813.3977	441.4914	62632.9	61814.65
813.5415	443.6645	62693.45	61874.5
813.6853	445.8371	62755.8	61934.5
813.8291	448.0091	62626.2	61806.1
813.973	450.1806	62525.65	61702.85
814.1168	452.3514	62558.7	61737.3
814.2607	454.5216	62393.85	61558.9
814.4046	456.6913	62592.15	61768.2
814.5485	458.8603	62611.85	61791.05
814.6924	461.0288	62378.6	61555.7
814.8363	463.1967	62621.15	61799.35
814.9802	465.3639	62568.9	61747.25
815.1241	467.5306	62150.6	61326.3
815.2681	469.6967	62386.85	61561.35
815.412	471.8622	62530.95	61707.75
815.556	474.0271	62386.8	61563.2
815.7	476.1914	62437.1	61607.4
815.844	478.3551	62439.3	61611.7
815.988	480.5182	62676.5	61850.1
816.132	482.6807	62294.25	61467.6
816.276	484.8426	62325.55	61507.1
816.4201	487.0039	62619	61795.05
816.5641	489.1647	62608.2	61778.25
816.7082	491.3248	62248.55	61418.8
816.8522	493.4843	62613.6	61783.6
816.9963	495.6432	62638	61808.8
817.1404	497.8015	62285	61448.15
817.2845	499.9592	62494.7	61660.3
817.4286	502.1163	62492.25	61655.4
817.5727	504.2728	62441.5	61608.7
817.7168	506.4287	62411.05	61579.25
817.861	508.5839	62228.25	61397.65
818.0051	510.7386	62394.45	61559.9
818.1493	512.8927	62449.15	61608.95
818.2935	515.0461	62364.85	61526.55
818.4377	517.199	62545.85	61705.8
818.5818	519.3512	62366.95	61527.4
818.726	521.5029	62300.15	61456.2
818.8703	523.6539	62358	61517.2
819.0145	525.8043	62108.6	61267.75
819.1587	527.9541	62333.85	61490.25
819.303	530.1033	62317.75	61473.4
819.4472	532.2519	62180.4	61337
819.5915	534.3999	62360.25	61514.85
819.7357	536.5472	62463.25	61622.3
819.88	538.694	62104.3	61260.55
820.0243	540.8401	62324.65	61477.6
820.1686	542.9856	62305.25	61452.9
820.3129	545.1305	62431.95	61577.35
820.4572	547.2748	62222.65	61366.55
820.6016	549.4185	62207.9	61351.95
820.7459	551.5615	62384.7	61530.8
820.8902	553.704	62289.25	61435
821.0346	555.8458	62139.6	61288.7
821.1789	557.987	62214.7	61365.9
821.3233	560.1276	62272.05	61422.55
821.4677	562.2675	62177.15	61327.4
821.6121	564.4069	62218.4	61366.5
821.7565	566.5456	62375.15	61526.7
821.9009	568.6837	62091.05	61241.9
822.0453	570.8212	62206.85	61359.8
822.1897	572.958	61919.5	61071.05
822.3342	575.0942	62159.65	61312.2
822.4786	577.2299	61960.55	61111.65
822.6231	579.3648	61903.85	61062.05
822.7675	581.4992	61844.85	61003.95
822.912	583.6329	61807.85	60966.2
823.0565	585.766	61793.55	60949.25
823.201	587.8985	61867.3	61018.65
823.3454	590.0304	61570.2	60693.4
823.4899	592.1616	61771.35	60914.15
823.6345	594.2922	61630.3	60774.7
823.779	596.4222	61550.65	60692
823.9235	598.5515	61606.65	60748.85
824.068	600.6802	61646.55	60788.55
824.2126	602.8083	61432.25	60576
824.3571	604.9358	61408.95	60551.85
824.5017	607.0626	61542.35	60686.8
824.6462	609.1888	61326.75	60467.5
824.7908	611.3144	61445.8	60584.9
824.9354	613.4393	61353.35	60490.85
825.08	615.5636	61271.35	60405.25
825.2246	617.6873	61363.3	60498
825.3692	619.8103	61244.15	60379
825.5138	621.9327	61355.05	60492.45
825.6584	624.0544	61401.35	60541.45
825.803	626.1756	61281.25	60423
825.9477	628.2961	61252	60386.1
826.0923	630.4159	61132.8	60269.65
826.237	632.5351	61119.4	60253.15
826.3816	634.6537	61380.45	60518.1
826.5263	636.7716	61108.5	60241.7
826.6709	638.8889	61164.05	60295.15
826.8156	641.0056	61137.5	60269.55
826.9603	643.1216	61181.4	60315.05
827.105	645.237	61255.85	60389.55
827.2497	647.3518	61062.65	60197.75
827.3944	649.4659	61115.9	60253.8
827.5391	651.5793	61104.8	60243.6
827.6838	653.6922	61091.45	60229.85
827.8285	655.8043	60939.5	60073.15
827.9733	657.9159	61197.95	60330.65
828.118	660.0268	60758.45	59888.15
828.2627	662.137	60939.25	60071.4
828.4075	664.2466	60983.65	60115.55
828.5522	666.3556	60872.05	60004
828.697	668.4639	60892.7	60021.85
828.8418	670.5716	60837.2	59970.35
828.9865	672.6786	60935.05	60063.25
829.1313	674.785	60739.2	59865.65
829.2761	676.8907	60772.3	59903.25
829.4209	678.9958	60789.85	59921.25
829.5657	681.1002	60819.15	59945.55
829.7105	683.204	60683.1	59806.95
829.8553	685.3072	60621.05	59746.1
830.0001	687.4097	60620.5	59748.45
830.1449	689.5115	60624.6	59752.45
830.2898	691.6127	60694.35	59819.4
830.4346	693.7132	60563.25	59689.5
830.5794	695.8131	60602.55	59708.5
830.7243	697.9123	60612.3	59735.3
830.8691	700.0109	60646.75	59769.15
831.014	702.1089	60479.2	59604
831.1588	704.2061	60511.8	59633.9
831.3037	706.3028	60505	59630
831.4486	708.3987	60480.7	59603.6
831.5935	710.4941	60418.5	59541.9
831.7383	712.5887	60493.1	59615.5
831.8832	714.6827	60462.25	59581.65
832.0281	716.7761	60507.75	59630.65
832.173	718.8688	60480.9	59603.5
832.3179	720.9608	60395.25	59513.25
832.4628	723.0522	60437.75	59552.15
832.6077	725.1429	60335	59454.4
832.7527	727.233	60528.05	59646.35
832.8976	729.3224	60243.15	59362.55
833.0425	731.4112	60270.05	59390.1
833.1874	733.4993	60251.45	59370.15
833.3324	735.5867	60189.4	59307.75
833.4773	737.6735	60175.15	59290.25
833.6222	739.7596	60126.1	59243.95
833.7672	741.845	60100.1	59220.4
833.9122	743.9298	60095.75	59211.7
834.0571	746.014	60046.85	59165.8
834.2021	748.0974	59987.3	59102.8
834.347	750.1802	60029.5	59146.05
834.492	752.2624	59890.6	59007.15
834.637	754.3439	59868.55	58983.9
834.782	756.4247	59811.25	58917.9
834.9269	758.5048	59736.85	58852.35
835.0719	760.5843	59753.7	58867.3
835.2169	762.6631	59720.85	58835.75
835.3619	764.7413	59724.1	58838.55
835.5069	766.8188	59709.15	58821.55
835.6519	768.8956	59694.15	58808.25
835.7969	770.9718	59698.4	58812.45
835.9419	773.0473	59595.75	58708.2
836.0869	775.1221	59539.35	58652.65
836.232	777.1962	59458.85	58572.9
836.377	779.2697	59373.8	58487.25
836.522	781.3426	59370	58467.6
836.667	783.4147	59358.65	58468.1
836.8121	785.4862	59355.85	58469.1
836.9571	787.557	59267.3	58379.4
837.1021	789.6271	59290.1	58402.15
837.2472	791.6966	59220.45	58331.8
837.3922	793.7654	59079.8	58191.6
837.5373	795.8335	59096.45	58212.05
837.6823	797.901	59047.65	58160.6
837.8274	799.9678	58969.5	58079.8
837.9724	802.0339	58927.05	58039.05
838.1175	804.0993	58937	58037.4
838.2626	806.1641	58883.15	57991.15
838.4076	808.2282	58838.35	57951.7
838.5527	810.2916	58776.75	57884.3
838.6978	812.3544	58821.45	57933.3
838.8428	814.4164	58712.3	57826.65
838.9879	816.4778	58724	57830.05
839.133	818.5385	58673.65	57782.95
839.2781	820.5986	58659.85	57767.35
839.4232	822.658	58670.5	57776.7
839.5682	824.7166	58614	57724.65
839.7133	826.7747	58571.4	57679.65
839.8584	828.832	58628.2	57735.5
840.0035	830.8886	58578.2	57686.85
840.1486	832.9446	58566.6	57674.5
840.2937	834.9999	58409	57517.05
840.4388	837.0545	58443.75	57548.35
840.5839	839.1085	58413.5	57519.55
840.729	841.1618	58409.7	57511.85
840.8741	843.2143	58266.1	57376.8
841.0192	845.2662	58237.6	57345.7
841.1643	847.3175	58221.7	57329.35
841.3095	849.368	58142.05	57252.95
841.4546	851.4179	58162.7	57268.65
841.5997	853.467	58044.95	57150.4
841.7448	855.5155	58053	57157.7
841.8899	857.5633	57953.4	57058.75
842.0351	859.6105	57924.55	57032.2
842.1802	861.6569	57946.4	57053.15
842.3253	863.7027	57851.7	56956.4
842.4704	865.7478	57871.2	56973.8
842.6156	867.7922	57842.1	56946.75
842.7607	869.8359	57793.85	56897.7
842.9058	871.8789	57738.55	56841.1
843.0509	873.9212	57731.15	56803.65
843.1961	875.9629	57664.95	56770.35
843.3412	878.0039	57660.2	56764.15
843.4863	880.0441	57670	56776.25
843.6315	882.0837	57652.75	56756.8
843.7766	884.1226	57633.7	56739.1
843.9218	886.1609	57617.05	56723.75
844.0669	888.1984	57579.9	56681.7
844.212	890.2352	57630.5	56732.3
844.3572	892.2714	57486.8	56586.45
844.5023	894.3069	57548.9	56654.05
844.6475	896.3416	57440.5	56544.25
844.7926	898.3757	57431.6	56532.3
844.9377	900.4091	57323.15	56426.05
845.0829	902.4418	57393.2	56491.65
845.228	904.4739	57294.95	56394.45
845.3732	906.5052	57334.95	56436.35
845.5183	908.5358	57230.6	56330.4
845.6635	910.5658	57168.15	56271.45
845.8086	912.595	57135.7	56235.95
845.9538	914.6236	57001.9	56104.85
846.0989	916.6515	57103.9	56206.3
846.2441	918.6786	56915.65	56015.75
846.3892	920.7051	56958.4	56058.15
846.5344	922.7309	56950.2	56048.4
846.6795	924.756	56857.4	55959.5
846.8246	926.7804	56838.85	55940.05
846.9698	928.8041	56625.95	55723.1
847.1149	930.8272	56724.9	55823.75
847.2601	932.8495	56646.9	55747.95
847.4052	934.8711	56577.15	55677.85
847.5504	936.892	56467.6	55568.7
847.6955	938.9123	56462.7	55559.8
847.8407	940.9318	56385.7	55485.1
847.9858	942.9506	56296.15	55393.65
848.131	944.9688	56279.35	55380
848.2761	946.9862	56103.8	55201.95
848.4213	949.003	56122.45	55218
848.5664	951.019	55985.95	55085.5
848.7115	953.0344	55962.6	55061.1
848.8567	955.0491	55912.65	55010.2
849.0018	957.063	55965.15	55066.15
849.147	959.0763	55969.7	55070.65
849.2921	961.0888	55840.9	54940.3
849.4373	963.1007	55887.6	54988.1
849.5824	965.1119	55841.7	54943
849.7275	967.1223	55806.5	54910.15
849.8727	969.1321	55815.55	54918.35
850.0178	971.1412	55732.45	54835.1
850.1629	973.1495	55584.6	54684.3
850.3081	975.1572	55660.95	54723.15
850.4532	977.1641	55597.95	54695.5
850.5983	979.1704	55535.45	54634.45
850.7435	981.1759	55479.6	54575.8
850.8886	983.1808	55454.1	54551.8
851.0337	985.1849	55413.5	54501.75
851.1788	987.1884	55361.8	54458.25
851.324	989.1911	55374.6	54471.9
851.4691	991.1932	55278.5	54377.9
851.6142	993.1945	55233.4	54333.4
851.7593	995.1951	55149.2	54249.35
851.9045	997.1951	55051.5	54145.1
852.0496	999.1943	54994.7	54092.95
852.1947	1001.1928	54941.55	54038.8
852.3398	1003.1906	54872.6	53969.9
852.4849	1005.1877	54810.65	53907.4
852.63	1007.1841	54703.15	53799.75
852.7751	1009.1798	54669.5	53769.65
852.9202	1011.1748	54615.5	53714.95
853.0653	1013.1691	54607.4	53704.45
853.2104	1015.1627	54457.95	53553.55
853.3555	1017.1556	54335.55	53434.5
853.5006	1019.1477	54325.85	53424
853.6457	1021.1392	54180.7	53281.4
853.7908	1023.1299	54109.3	53211.15
853.9359	1025.12	54059.3	53160.8
854.081	1027.1093	53958.85	53068.75
854.2261	1029.0979	53955.4	53067.5
854.3712	1031.0859	53875.35	52984.3
854.5163	1033.0731	53808.6	52909.3
854.6613	1035.0596	53785.6	52888.15
854.8064	1037.0454	53638.2	52736.7
854.9515	1039.0304	53596.85	52695.45
855.0965	1041.0148	53414.9	52514.75
855.2416	1042.9985	53382.7	52480.3
855.3867	1044.9814	53446.1	52545.25
855.5317	1046.9636	53248.2	52345.8
855.6768	1048.9452	53246.4	52345.1
855.8219	1050.926	53223.75	52325.1
855.9669	1052.9061	53185.7	52285.7
856.112	1054.8855	53119.85	52219.55
856.257	1056.8642	53056.35	52154.5
856.4021	1058.8421	52952	52045.35
856.5471	1060.8194	52978.55	52075.8
856.6921	1062.7959	52834.1	51929.75
856.8372	1064.7717	52895.6	51991.65
856.9822	1066.7469	52843.45	51940.5
857.1272	1068.7213	52810.45	51906.55
857.2723	1070.695	52731.75	51829.5
857.4173	1072.6679	52585.7	51684.2
857.5623	1074.6402	52675.5	51772.15
857.7073	1076.6117	52528.25	51620.95
857.8523	1078.5826	52514.35	51611.3
857.9973	1080.5527	52517.95	51612.15
858.1423	1082.5221	52342.1	51442.1
858.2873	1084.4908	52305.65	51401.45
858.4323	1086.4587	52194.65	51294.25
858.5773	1088.426	52131.2	51228.45
858.7223	1090.3925	52145.15	51236.3
858.8673	1092.3584	52091.2	51189.55
859.0123	1094.3235	51899.4	50999.6
859.1573	1096.2879	51845.55	50942.3
859.3022	1098.2515	51901.85	50997.1
859.4472	1100.2145	51816.4	50914
859.5922	1102.1767	51764.5	50861.7
859.7371	1104.1382	51823.25	50921.15
859.8821	1106.099	51686.25	50782.2
860.027	1108.0591	51626.95	50725
860.172	1110.0185	51436.75	50534.05
860.3169	1111.9771	51629.1	50729.05
860.4619	1113.9351	51500.1	50597.1
860.6068	1115.8923	51346.3	50441.3
860.7517	1117.8488	51204.35	50300.8
860.8967	1119.8045	51045.1	50141.95
861.0416	1121.7596	51098.25	50196.75
861.1865	1123.7139	50997.8	50096.7
861.3314	1125.6675	50955.3	50054.15
861.4763	1127.6204	50905.7	50005.3
861.6212	1129.5726	50734.65	49832.3
861.7661	1131.524	50864.9	49964.8
861.911	1133.4748	50787.1	49884.15
862.0559	1135.4248	50605.75	49701.3
862.2008	1137.3741	50558.95	49658.15
862.3457	1139.3226	50534.05	49632.25
862.4905	1141.2705	50498.15	49594.2
862.6354	1143.2176	50413.7	49503.7
862.7803	1145.164	50249.25	49344.95
862.9251	1147.1097	50324.55	49424.1
863.07	1149.0546	50280.9	49379
863.2148	1150.9989	50280.75	49377
863.3597	1152.9424	50104.2	49201.5
863.5045	1154.8852	50151.25	49246.9
863.6493	1156.8272	50067.15	49164.1
863.7942	1158.7686	50201.35	49291.9
863.939	1160.7092	49894.5	48990.75
864.0838	1162.6491	49881.25	48973.55
864.2286	1164.5883	49928.5	49025.6
864.3734	1166.5267	49803.5	48899.45
864.5182	1168.4644	49870.2	48966.45
864.663	1170.4014	49809.15	48900.7
864.8078	1172.3377	49816.2	48915.25
864.9526	1174.2732	49927.2	49026.75
865.0974	1176.2081	49816.2	48914.75
865.2421	1178.1421	49783.4	48877.05
865.3869	1180.0755	49898.7	48997.25
865.5317	1182.0082	49793.8	48893.35
865.6764	1183.9401	49781.85	48877.95
865.8212	1185.8713	49611.1	48710.2
865.9659	1187.8017	49575.5	48678
866.1106	1189.7315	49527.6	48632.3
866.2554	1191.6605	49381.7	48486.75
866.4001	1193.5888	49268.1	48372.3
866.5448	1195.5163	49122.05	48223.3
866.6895	1197.4432	49086.85	48185.05
866.8342	1199.3693	48984.5	48082.8
866.9789	1201.2947	48921.45	48010.95
867.1236	1203.2193	48944.1	48040.5
867.2683	1205.1432	48795.15	47894.6
867.413	1207.0664	48738.3	47836.1
867.5576	1208.9889	48698.15	47795.55
867.7023	1210.9106	48615	47713.7
867.847	1212.8316	48511.55	47611
867.9916	1214.7519	48471.35	47562.2
868.1363	1216.6715	48367.65	47466.15
868.2809	1218.5903	48391.05	47489.9
868.4255	1220.5084	48339.45	47437.2
868.5701	1222.4257	48337.3	47433.25
868.7148	1224.3424	48201.55	47301.05
868.8594	1226.2583	48091.1	47185.35
869.004	1228.1735	48131.05	47228.4
869.1486	1230.0879	47980.15	47076.75
869.2932	1232.0016	48028.1	47129
869.4377	1233.9146	47865.55	46964.05
869.5823	1235.8269	47836	46937.45
869.7269	1237.7384	47807.65	46907.6
869.8715	1239.6492	47721.05	46819.7
870.016	1241.5592	47604.2	46700.2
870.1606	1243.4686	47627.4	46726.1
870.3051	1245.3772	47534.6	46632.65
870.4496	1247.285	47560	46655.15
870.5941	1249.1922	47402	46501.6
870.7387	1251.0986	47439.8	46539.3
870.8832	1253.0042	47282.25	46380.55
871.0277	1254.9092	47359.55	46458.35
871.1722	1256.8134	47206.3	46306.85
871.3167	1258.7169	47299.85	46397.4
871.4611	1260.6196	47162.95	46262.9
871.6056	1262.5216	47214.15	46311.1
871.7501	1264.4229	47202.45	46304.25
871.8945	1266.3234	47241.85	46341.75
872.039	1268.2232	47193.85	46290.75
872.1834	1270.1223	47057.55	46154
872.3278	1272.0207	47044.4	46146.7
872.4723	1273.9183	47001.5	46095.35
872.6167	1275.8151	46951	46050.25
872.7611	1277.7113	46883.4	45981.15
872.9055	1279.6067	46794.7	45894.45
873.0499	1281.5014	46776.8	45871.05
873.1943	1283.3953	46835.35	45933.05
873.3386	1285.2885	46847.9	45945.3
873.483	1287.181	46844.55	45943.65
873.6274	1289.0727	46896.85	45997.15
873.7717	1290.9637	46806.8	45904.35
873.9161	1292.854	46933.05	46033.6
874.0604	1294.7435	46846.1	45943.7
874.2047	1296.6323	46813.65	45910.75
874.349	1298.5204	46753.85	45848.9
874.4933	1300.4077	46728.15	45827.35
874.6376	1302.2943	46664.2	45762.6
874.7819	1304.1802	46582.75	45681.5
874.9262	1306.0653	46466.7	45563.45
875.0705	1307.9497	46361.85	45462.75
875.2147	1309.8333	46287.45	45389.15
875.359	1311.7162	46192.65	45292.3
875.5032	1313.5984	46199.25	45294.65
875.6475	1315.4798	46084.25	45180.8
875.7917	1317.3605	46037.75	45118.75
875.9359	1319.2405	46028.75	45124.25
876.0801	1321.1197	45874.65	44971.1
876.2243	1322.9982	45827.25	44922.95
876.3685	1324.876	45795.35	44893.85
876.5127	1326.753	45687.25	44785.5
876.6569	1328.6293	45719.4	44815.3
876.801	1330.5048	45674.75	44768.7
876.9452	1332.3796	45568.3	44668.3
877.0893	1334.2537	45509.45	44582
877.2335	1336.127	45431.35	44528
877.3776	1337.9996	45406.2	44505.85
877.5217	1339.8714	45415.2	44513.55
877.6658	1341.7426	45267.8	44322.9
877.8099	1343.6129	45318.35	44415.25
877.954	1345.4826	45217.4	44314.6
878.0981	1347.3515	45157	44254.15
878.2422	1349.2196	45182.55	44278.9
878.3862	1351.087	45181.1	44277.5
878.5303	1352.9537	45126.4	44223.8
878.6743	1354.8197	45139.75	44236.75
878.8184	1356.6849	45076.95	44175.1
878.9624	1358.5493	45097	44194.25
879.1064	1360.4131	45038.15	44136.5
879.2504	1362.276	45093.4	44192.25
879.3944	1364.1383	44961.25	44061.95
879.5384	1365.9998	44789.35	43879.6
879.6823	1367.8606	44765.45	43861.95
879.8263	1369.7206	44615.05	43716
879.9702	1371.5799	44465.75	43560.35
880.1142	1373.4384	44325.4	43423.7
880.2581	1375.2962	44307	43404.75
880.402	1377.1533	44020.3	43122.45
880.5459	1379.0096	43820.85	42920.4
880.6898	1380.8652	43789.85	42889.9
880.8337	1382.7201	43636.65	42735.7
880.9776	1384.5742	43528.4	42625.55
881.1215	1386.4275	43258.3	42355.5
881.2653	1388.2802	43216.35	42315.6
881.4092	1390.132	43243.85	42343.45
881.553	1391.9832	43052.45	42153.05
881.6968	1393.8336	42881.9	41979.95
881.8406	1395.6832	42867.4	41967
881.9844	1397.5322	42806.15	41903.45
882.1282	1399.3803	42633.85	41730.05
882.272	1401.2278	42526.5	41624.6
882.4158	1403.0745	42499.4	41598.7
882.5595	1404.9204	42363.75	41463.4
882.7033	1406.7656	42375.5	41473.55
882.847	1408.6101	42175.1	41273.25
882.9908	1410.4538	42172.8	41272.65
883.1345	1412.2968	42120.1	41215.5
883.2782	1414.139	41981.25	41081.45
883.4219	1415.9805	42009.25	41109.1
883.5656	1417.8213	41818.1	40910.65
883.7092	1419.6613	41876.2	40976.3
883.8529	1421.5006	41788	40885.2
883.9965	1423.3391	41738.9	40838.4
884.1402	1425.1769	41745.35	40843.85
884.2838	1427.0139	41876.15	40972.7
884.4274	1428.8502	41860.15	40957.35
884.571	1430.6858	41881.6	40980.85
884.7146	1432.5206	41980.1	41077.45
884.8582	1434.3547	41870	40969.85
885.0018	1436.188	41777.75	40878.4
885.1453	1438.0206	41841.6	40942.2
885.2889	1439.8524	41722.55	40819.2
885.4324	1441.6835	41627.3	40724.95
885.5759	1443.5139	41661.05	40757.3
885.7194	1445.3435	41494.15	40593.45
885.8629	1447.1724	41492.75	40592.9
886.0064	1449.0005	41324.45	40425.05
886.1499	1450.8279	41431.5	40529.15
886.2933	1452.6545	41334.75	40434.5
886.4368	1454.4804	41299.8	40399.65
886.5802	1456.3056	41186.05	40280.9
886.7237	1458.13	41150.5	40254
886.8671	1459.9536	41227.4	40326.75
887.0105	1461.7766	41002.9	40103.35
887.1539	1463.5987	40809.75	39909.15
887.2972	1465.4202	40766.9	39866.6
887.4406	1467.2409	40615	39714.35
887.584	1469.0608	40462.7	39562.95
887.7273	1470.88	40393.6	39493.4
887.8706	1472.6984	40353.9	39454.5
888.0139	1474.5161	40080.95	39177.85
888.1572	1476.3331	40112	39213.9
888.3005	1478.1493	39952.85	39050.55
888.4438	1479.9648	39925.7	39026.5
888.5871	1481.7795	39958.65	39061.55
888.7303	1483.5935	39924.55	39024.15
888.8736	1485.4067	39752.75	38851.6
889.0168	1487.2192	39774.65	38873.4
889.16	1489.031	39626.85	38723.95
889.3032	1490.842	39609.3	38710.8
889.4464	1492.6522	39601.7	38704.5
889.5896	1494.4618	39473.9	38571.95
889.7327	1496.2705	39561.8	38664.1
889.8759	1498.0785	39254.9	38357.15
890.019	1499.8858	39307.4	38408.15
890.1622	1501.6924	39386.7	38485.3
890.3053	1503.4981	39176.85	38279.55
890.4484	1505.3032	39160.5	38259
890.5914	1507.1075	39007.6	38110.05
890.7345	1508.911	38989.2	38090.25
890.8776	1510.7138	38941.5	38039.8
891.0206	1512.5159	38924.1	38024.2
891.1637	1514.3172	38610.5	37712.35
891.3067	1516.1178	38609.8	37713.6
891.4497	1517.9176	38668.2	37767.05
891.5927	1519.7166	38510.15	37610.55
891.7357	1521.515	38431.5	37529.7
891.8786	1523.3126	38287.7	37390.2
892.0216	1525.1094	38307.15	37408.2
892.1645	1526.9055	38129.6	37233.65
892.3074	1528.7008	38114.95	37216.25
892.4503	1530.4954	37864.65	36966.05
892.5932	1532.2893	37967.9	37072.2
892.7361	1534.0824	37726.9	36823
892.879	1535.8747	37673.4	36776.6
893.0218	1537.6663	37800.1	36901.5
893.1647	1539.4572	37326.1	36428.55
893.3075	1541.2473	37472.55	36574.4
893.4503	1543.0367	37363	36466.25
893.5931	1544.8253	37238.85	36336.55
893.7359	1546.6132	37275.15	36376.95
893.8787	1548.4003	37085.7	36178.3
894.0214	1550.1867	37088.85	36183.25
894.1642	1551.9723	36999.8	36099.25
894.3069	1553.7572	36999.55	36104.7
894.4496	1555.5414	37009.35	36113.35
894.5923	1557.3247	36730.05	35835.25
894.735	1559.1074	36903.3	36009.05
894.8777	1560.8893	36794.5	35900.15
895.0204	1562.6705	36786.1	35892.05
895.163	1564.4509	36639.9	35746.8
895.3056	1566.2305	36665.7	35774.85
895.4482	1568.0094	36823.5	35931.9
895.5908	1569.7876	36668.5	35778.3
895.7334	1571.565	36494.35	35600.9
895.876	1573.3417	36527	35633.4
896.0186	1575.1176	36410.35	35518.75
896.1611	1576.8928	36336.45	35443.3
896.3036	1578.6672	36123.3	35233.15
896.4461	1580.4409	36185.1	35295.5
896.5886	1582.2138	35952.4	35059.6
896.7311	1583.986	35986.25	35094.5
896.8736	1585.7575	35880.65	34990.1
897.0161	1587.5282	35840.25	34949.5
897.1585	1589.2981	35894.95	35007.3
897.3009	1591.0673	35681.9	34793.1
897.4433	1592.8358	35632.3	34742.4
897.5857	1594.6035	35703.2	34811
897.7281	1596.3704	35646.35	34753.95
897.8705	1598.1366	35462.9	34571.7
898.0128	1599.9021	35330.35	34440.75
898.1551	1601.6668	35386.3	34491.9
898.2975	1603.4308	35285.65	34394.15
898.4398	1605.194	35352.8	34456.35
898.5821	1606.9564	35162.75	34275.3
898.7243	1608.7182	35335.55	34445.5
898.8666	1610.4791	35254.9	34368.4
899.0088	1612.2394	35303.75	34418.4
899.1511	1613.9988	35237.75	34352.1
899.2933	1615.7576	35332.7	34441.95
899.4355	1617.5156	35350.65	34455.2
899.5776	1619.2728	35436.3	34544.95
899.7198	1621.0293	35186.3	34296.6
899.862	1622.785	35100	34208.3
900.0041	1624.54	34979.75	34088.45
900.1462	1626.2942	34737.05	33848.05
900.2883	1628.0477	34458.5	33567.65
900.4304	1629.8005	34199.3	33307.8
900.5725	1631.5525	34191.05	33302.05
900.7145	1633.3037	33962.6	33073.55
900.8566	1635.0542	33878.05	32991.95
900.9986	1636.804	33797.9	32908.55
901.1406	1638.553	33650.9	32721.25
901.2826	1640.3013	33552.55	32665
901.4245	1642.0488	33387.55	32500.45
901.5665	1643.7955	33454.3	32568.2
901.7085	1645.5416	33322.25	32435.7
901.8504	1647.2868	33286.3	32399.65
901.9923	1649.0313	33315.9	32428.95
902.1342	1650.7751	33238.65	32348.3
902.2761	1652.5181	33170.35	32283.75
902.4179	1654.2604	33122.15	32233.5
902.5598	1656.0019	33215.7	32328.25
902.7016	1657.7427	33163.3	32274.8
902.8434	1659.4828	33267.6	32379.4
902.9852	1661.222	33172.05	32281.9
903.127	1662.9606	33075.95	32188.85
903.2687	1664.6984	32953.85	32065.4
903.4105	1666.4354	32845.6	31955.95
903.5522	1668.1717	32549.7	31662.8
903.6939	1669.9072	32243.4	31353.05
903.8356	1671.642	32099.45	31208.3
903.9773	1673.3761	31909.9	31019.9
904.119	1675.1094	31740.7	30854.05
904.2606	1676.8419	31534.45	30645.85
904.4022	1678.5737	31391.9	30499.45
904.5439	1680.3048	31276.65	30385.45
904.6855	1682.0351	31125.5	30238.35
904.827	1683.7646	30978.6	30086.5
904.9686	1685.4934	30894.65	30005.9
905.1101	1687.2215	30757.9	29868.05
905.2517	1688.9488	30676.1	29788.65
905.3932	1690.6754	30415.3	29527.15
905.5347	1692.4012	30460.1	29572.85
905.6761	1694.1263	30366.95	29479.05
905.8176	1695.8506	30311.1	29422.8
905.9591	1697.5742	30205.8	29318.7
906.1005	1699.297	30054.25	29167.8
906.2419	1701.0191	29951.4	29066.6
906.3833	1702.7404	29819.55	28933.75
906.5246	1704.461	29718.55	28831.55
906.666	1706.1808	29631.85	28742.65
906.8073	1707.8999	29566.65	28678.35
906.9487	1709.6182	29499.1	28613.8
907.09	1711.3358	29413.45	28528.1
907.2313	1713.0527	29334.95	28449.2
907.3725	1714.7688	29222.95	28330.85
907.5138	1716.4841	29075.2	28186.3
907.655	1718.1987	29092.25	28202.3
907.7962	1719.9126	28991.55	28106.05
907.9374	1721.6257	28919.45	28033.5
908.0786	1723.338	28875.45	27988.2
908.2198	1725.0496	28649.95	27762.5
908.3609	1726.7605	28620.85	27735.2
908.502	1728.4706	28497.25	27609.2
908.6431	1730.18	28433.05	27547.8
908.7842	1731.8886	28338.9	27454.6
908.9253	1733.5964	28287.55	27395.25
909.0664	1735.3036	28296.3	27407.9
909.2074	1737.0099	28196.2	27311.2
909.3484	1738.7156	28118.65	27234.5
909.4894	1740.4204	27980.15	27090.55
909.6304	1742.1246	27961.75	27074.55
909.7714	1743.8279	27893.2	27008.9
909.9123	1745.5306	27853.4	26967.55
910.0532	1747.2325	27715.65	26830.4
910.1941	1748.9336	27635.95	26749.3
910.335	1750.634	27518.9	26630.85
910.4759	1752.3336	27516.55	26632
910.6168	1754.0325	27435.05	26551.5
910.7576	1755.7307	27438.5	26554.85
910.8984	1757.4281	27377.05	26491.75
911.0392	1759.1247	27364.25	26469.05
911.18	1760.8206	27204.45	26315.2
911.3208	1762.5158	27189.25	26300.05
911.4615	1764.2102	27095.05	26210.35
911.6022	1765.9039	27030.1	26146.45
911.7429	1767.5968	26972.65	26088.1
911.8836	1769.289	26881.6	25996.45
912.0243	1770.9804	26809.15	25922.45
912.1649	1772.6711	26780.25	25892.45
912.3056	1774.361	26701.75	25814.2
912.4462	1776.0502	26669.85	25782.5
912.5868	1777.7386	26565.4	25678.45
912.7274	1779.4263	26511.1	25625.7
912.8679	1781.1132	26511.65	25627.4
913.0084	1782.7994	26396.65	25511.5
913.149	1784.4849	26372	25487.95
913.2895	1786.1696	26237.9	25333.55
913.4299	1787.8535	26237.2	25355.15
913.5704	1789.5367	26209.4	25324.35
913.7108	1791.2192	26080.9	25197.35
913.8513	1792.9009	25970.1	25053.55
913.9917	1794.5818	25998.5	25113.35
914.132	1796.2621	25881.4	24998.35
914.2724	1797.9415	25843.35	24956.35
914.4128	1799.6202	25766.5	24881.95
914.5531	1801.2982	25717.85	24832.15
914.6934	1802.9755	25680.3	24794.35
914.8337	1804.6519	25616.55	24731
914.9739	1806.3277	25539.05	24653.45
915.1142	1808.0027	25391.7	24509.65
915.2544	1809.6769	25366	24481.35
915.3946	1811.3504	25347.5	24463.45
915.5348	1813.0231	25246.35	24363.35
915.675	1814.6951	25266.05	24380.5
915.8151	1816.3664	25288.6	24402.3
915.9553	1818.0369	25191.25	24306.85
916.0954	1819.7067	25045	24159.95
916.2355	1821.3757	25072.7	24187.25
916.3755	1823.044	24978.15	24094.35
916.5156	1824.7115	24900.35	24015.9
916.6556	1826.3783	24791.2	23907
916.7956	1828.0443	24727.05	23843.15
916.9356	1829.7096	24707.85	23821.5
917.0756	1831.3741	24705	23816.7
917.2155	1833.0379	24642.1	23758.1
917.3555	1834.701	24553.2	23666.35
917.4954	1836.3633	24474.45	23589.95
917.6353	1838.0248	24440.45	23554.7
917.7751	1839.6856	24381.4	23496
917.915	1841.3457	24352.15	23469.2
918.0548	1843.005	24317.2	23434.25
918.1946	1844.6636	24305.15	23420
918.3344	1846.3214	24182.7	23297.4
918.4742	1847.9785	24182.15	23296.75
918.6139	1849.6349	24112.4	23226
918.7537	1851.2904	24073.1	23176.05
918.8934	1852.9453	23997	23111.2
919.0331	1854.5994	23947.85	23060.15
919.1727	1856.2528	23926.85	23035
919.3124	1857.9054	23847.7	22961.9
919.452	1859.5572	23835.7	22951.45
919.5916	1861.2083	23780.3	22895.1
919.7312	1862.8587	23809.3	22924.55
919.8708	1864.5084	23715.75	22829.9
920.0103	1866.1572	23641.6	22756.3
920.1498	1867.8054	23534.15	22648.45
920.2893	1869.4528	23538.4	22652.1
920.4288	1871.0994	23454	22566.4
920.5683	1872.7453	23415.3	22527.7
920.7077	1874.3905	23337.05	22445.95
920.8471	1876.0349	23296.45	22410.4
920.9865	1877.6786	23286.8	22401.15
921.1259	1879.3215	23235.85	22352.8
921.2653	1880.9637	23201.6	22316.15
921.4046	1882.6051	23172.45	22287.65
921.5439	1884.2458	23090	22202.65
921.6832	1885.8858	23017.4	22131.05
921.8225	1887.525	22995.5	22111.45
921.9617	1889.1634	22840.3	21955.35
922.101	1890.8011	22765.95	21880.1
922.2402	1892.4381	22726.7	21843.65
922.3794	1894.0743	22729.35	21845.9
922.5185	1895.7098	22708.6	21823.4
922.6577	1897.3446	22659.5	21772.6
922.7968	1898.9786	22568	21678.75
922.9359	1900.6118	22526.05	21641.9
923.075	1902.2443	22359.05	21471.6
923.214	1903.8761	22358.85	21475.8
923.3531	1905.5071	22256.2	21369.6
923.4921	1907.1374	22187.75	21302.4
923.6311	1908.7669	22153.7	21270.1
923.77	1910.3957	22134.95	21249.4
923.909	1912.0237	21989.15	21106.3
924.0479	1913.651	21984.4	21099.65
924.1868	1915.2776	21919.5	21036.85
924.3257	1916.9034	21816.5	20934.1
924.4646	1918.5285	21719.3	20835.85
924.6034	1920.1528	21614.2	20729.65
924.7422	1921.7764	21627.45	20741.6
924.881	1923.3992	21518.2	20632.8
925.0198	1925.0213	21390.55	20505.6
925.1586	1926.6427	21347	20463.35
925.2973	1928.2633	21466.9	20338.35
925.436	1929.8832	21251.15	20359.95
925.5747	1931.5023	21150.9	20266.9
925.7134	1933.1207	21072.25	20186.55
925.852	1934.7383	21044.6	20161.5
925.9906	1936.3552	20942.15	20058.75
926.1292	1937.9714	20919.95	20037
926.2678	1939.5868	20846.65	19960.6
926.4064	1941.2015	20732.7	19845.7
926.5449	1942.8154	20679.1	19793.85
926.6834	1944.4286	20587.2	19701.8
926.8219	1946.041	20535.5	19631.15
926.9604	1947.6528	20422.85	19532.35
927.0988	1949.2637	20394.25	19511.85
927.2372	1950.8739	20301.25	19415.1
927.3756	1952.4834	20246.6	19361.4
927.514	1954.0921	20228.3	19343.15
927.6523	1955.7001	20162.4	19275.1
927.7907	1957.3074	20084.4	19201.75
927.929	1958.9139	20014	19130.75
928.0673	1960.5197	19968.35	19083.65
928.2055	1962.1247	19881.65	19000.15
928.3438	1963.729	19784.6	18901.35
928.482	1965.3325	19745.2	18839.75
928.6202	1966.9353	19694.4	18811.8
928.7584	1968.5374	19617.4	18732.45
928.8965	1970.1387	19528.2	18646.45
929.0346	1971.7393	19477.85	18595.2
929.1727	1973.3392	19414.2	18532.1
929.3108	1974.9383	19337.05	18456.25
929.4489	1976.5366	19255.3	18374.1
929.5869	1978.1342	19256	18373.2
929.7249	1979.7311	19196.95	18312.75
929.8629	1981.3273	19132.55	18250.85
930.0009	1982.9227	19018.95	18132.3
930.1388	1984.5173	18945.15	18061.2
930.2767	1986.1112	18940.85	18061
930.4146	1987.7044	18884.65	18002.1
930.5525	1989.2968	18836.8	17953.45
930.6904	1990.8885	18806.65	17921.15
930.8282	1992.4795	18755	17872.65
930.966	1994.0697	18682.75	17801.3
931.1038	1995.6592	18649.25	17767.35
931.2415	1997.2479	18601.6	17719.45
931.3793	1998.8359	18545.3	17664.3
931.517	2000.4232	18441.75	17560.5
931.6547	2002.0097	18411.5	17533.35
931.7923	2003.5955	18285.95	17405.2
931.93	2005.1805	18273.35	17393.3
932.0676	2006.7648	18242.65	17362.5
932.2052	2008.3484	18206.2	17324.4
932.3427	2009.9312	18180.75	17300.05
932.4803	2011.5133	18109.15	17229.4
932.6178	2013.0946	18059.15	17179.35
932.7553	2014.6752	18006.7	17129.1
932.8928	2016.2551	17961.8	17080
933.0302	2017.8342	17897.15	17017.45
933.1676	2019.4126	17819.35	16939.35
933.305	2020.9902	17766	16888.65
933.4424	2022.5672	17741.35	16861.05
933.5798	2024.1433	17687.3	16804.2
933.7171	2025.7188	17630.9	16752.3
933.8544	2027.2935	17581.9	16700.7
933.9917	2028.8674	17519.1	16640.35
934.129	2030.4406	17481.55	16602.05
934.2662	2032.0131	17385.35	16504.95
934.4034	2033.5849	17299.7	16417.05
934.5406	2035.1559	17282.1	16402.4
934.6778	2036.7261	17230.35	16350.25
934.8149	2038.2957	17199.15	16319.05
934.952	2039.8645	17172.75	16291.3
935.0891	2041.4325	17163.35	16278.2
935.2262	2042.9998	17126.8	16245.75
935.3632	2044.5664	17095.65	16214.95
935.5002	2046.1323	17045.75	16167.3
935.6372	2047.6974	16955.45	16075.55
935.7742	2049.2617	16921.9	16043.2
935.9111	2050.8254	16909.2	16024.9
936.048	2052.3883	16888.65	16005.45
936.1849	2053.9504	16833.85	15952.75
936.3218	2055.5118	16748.55	15865.85
936.4586	2057.0725	16690.15	15805.35
936.5955	2058.6325	16655	15773.95
936.7323	2060.1917	16601.8	15721.45
936.869	2061.7502	16570	15689.3
937.0058	2063.3079	16478.25	15599.75
937.1425	2064.8649	16462.15	15579.55
937.2792	2066.4212	16420.4	15540.8
937.4159	2067.9767	16345.65	15464.65
937.5525	2069.5315	16284.15	15403.9
937.6891	2071.0856	16231.35	15350.1
937.8257	2072.6389	16197.25	15316.85
937.9623	2074.1915	16092.35	15213.6
938.0989	2075.7433	16042.4	15160.95
938.2354	2077.2945	16012.8	15132.35
938.3719	2078.8448	15942.15	15061.85
938.5084	2080.3945	15896.95	15014.85
938.6448	2081.9434	15895.05	15013.95
938.7812	2083.4916	15807.7	14924.3
938.9176	2085.039	15769.95	14887.5
939.054	2086.5857	15749.45	14865.55
939.1903	2088.1317	15712.25	14830.5
939.3267	2089.677	15697.4	14813.05
939.463	2091.2215	15616.45	14731.45
939.5992	2092.7652	15544.4	14658.95
939.7355	2094.3083	15538.7	14653.75
939.8717	2095.8506	15504.8	14622.2
940.0079	2097.3921	15505.2	14619.6
940.1441	2098.933	15454	14571.45
940.2802	2100.4731	15391.45	14510.25
940.4163	2102.0124	15388.6	14486.2
940.5524	2103.5511	15348.9	14465.5
940.6885	2105.089	15314.25	14429.5
940.8245	2106.6261	15261.85	14379.05
940.9606	2108.1626	15243.65	14360.05
941.0965	2109.6983	15224.1	14310.85
941.2325	2111.2332	15159.8	14275.2
941.3684	2112.7675	15156.8	14272.9
941.5044	2114.301	15076.95	14192.3
941.6403	2115.8337	15052.6	14169.7
941.7761	2117.3657	15036.75	14154.45
941.912	2118.897	15001.45	14118.15
942.0478	2120.4276	14930.35	14041.3
942.1835	2121.9575	14865.8	13982.4
942.3193	2123.4866	14900.8	14007.3
942.455	2125.0149	14822	13938.6
942.5907	2126.5426	14735.95	13853.7
942.7264	2128.0695	14685.3	13799.45
942.8621	2129.5956	14644.45	13765.4
942.9977	2131.1211	14666.6	13781.9
943.1333	2132.6458	14600.25	13719.45
943.2689	2134.1698	14600.7	13715.4
943.4044	2135.693	14545.9	13660.75
943.54	2137.2155	14526.8	13640.4
943.6755	2138.7373	14470.2	13588.3
943.8109	2140.2584	14425.7	13544.65
943.9464	2141.7787	14387	13499.85
944.0818	2143.2983	14303.25	13425.25
944.2172	2144.8171	14232.4	13352.45
944.3526	2146.3353	14226.35	13343.9
944.4879	2147.8527	14157.7	13275.3
944.6232	2149.3693	14176.7	13294.75
944.7585	2150.8853	14111.55	13228.3
944.8938	2152.4005	14027.65	13147.5
945.029	2153.9149	13999.95	13116.75
945.1642	2155.4287	13970.2	13089.05
945.2994	2156.9417	13937.55	13054.7
945.4346	2158.454	13898.75	13017.45
945.5697	2159.9655	13868.8	12985.6
945.7048	2161.4764	13854.3	12973.35
945.8399	2162.9865	13809.15	12926.55
945.9749	2164.4958	13767.1	12885.5
946.1099	2166.0045	13698.2	12813.5
946.2449	2167.5124	13716.5	12835.7
946.3799	2169.0195	13677.65	12795.8
946.5148	2170.526	13640.1	12757.95
946.6498	2172.0317	13584.8	12702.15
946.7846	2173.5367	13534.3	12652.65
946.9195	2175.0409	13517	12634.75
947.0543	2176.5445	13501.45	12621.35
947.1891	2178.0473	13417.95	12536.25
947.3239	2179.5494	13366.3	12480.2
947.4587	2181.0507	13356.95	12473.8
947.5934	2182.5513	13314.55	12432.95
947.7281	2184.0512	13283.95	12402.65
947.8628	2185.5504	13254.4	12372.4
947.9974	2187.0488	13179.2	12298.85
948.132	2188.5465	13128.3	12247.5
948.2666	2190.0435	13088.55	12206.4
948.4012	2191.5397	13039.7	12157.8
948.5357	2193.0353	12997.15	12115.35
948.6702	2194.5301	12949.6	12065.45
948.8047	2196.0241	12918.75	12035.5
948.9392	2197.5175	12879.7	11997.45
949.0736	2199.0101	12835.45	11947.55
949.208	2200.502	12779.85	11899.1
949.3424	2201.9931	12725.8	11842.35
949.4767	2203.4835	12701.05	11820.15
949.611	2204.9733	12673.65	11784.6
949.7453	2206.4622	12649.4	11768.85
949.8796	2207.9505	12597.4	11714.55
950.0138	2209.438	12515.2	11636.05
950.148	2210.9248	12496.3	11613.9
950.2822	2212.4109	12452.8	11572.75
950.4164	2213.8962	12401.15	11516.25
950.5505	2215.3809	12415.7	11531.65
950.6846	2216.8648	12380.1	11496.3
950.8186	2218.3479	12348.4	11459.85
950.9527	2219.8304	12285.5	11400.15
951.0867	2221.3121	12247	11362
951.2207	2222.7931	12182.65	11300.7
951.3546	2224.2733	12147.5	11262.5
951.4886	2225.7529	12110	11227.5
951.6225	2227.2317	12066.45	11181.6
951.7563	2228.7098	12073.15	11193.9
951.8902	2230.1872	11994.5	11113.2
952.024	2231.6638	11965.8	11085.75
952.1578	2233.1397	11933.8	11047.75
952.2916	2234.6149	11877.85	10998.45
952.4253	2236.0894	11854.85	10973.25
952.559	2237.5632	11864.85	10973.3
952.6927	2239.0362	11782.85	10901
952.8263	2240.5085	11759.95	10877.8
952.9599	2241.9801	11695.15	10813.05
953.0935	2243.4509	11660.55	10777.1
953.2271	2244.921	11637.7	10756.05
953.3606	2246.3904	11576.7	10690.25
953.4941	2247.8591	11556.65	10673.7
953.6276	2249.3271	11507.5	10625.65
953.7611	2250.7943	11488.1	10602.5
953.8945	2252.2608	11429.85	10546.6
954.0279	2253.7266	11413.15	10530.6
954.1612	2255.1917	11398.55	10515.05
954.2946	2256.656	11356.8	10475.1
954.4279	2258.1197	11311.75	10430.65
954.5612	2259.5826	11263.05	10380.3
954.6944	2261.0447	11287.7	10404.25
954.8276	2262.5062	11220.8	10335.7
954.9608	2263.9669	11210	10325.9
955.094	2265.4269	11173.25	10289.85
955.2271	2266.8862	11137.95	10256.8
955.3602	2268.3448	11145.4	10262.1
955.4933	2269.8026	11105.85	10224.65
955.6264	2271.2598	11064.8	10183.1
955.7594	2272.7162	11017.95	10136.45
955.8924	2274.1719	11005.05	10121.7
956.0253	2275.6268	10973	10089.9
956.1583	2277.0811	10955.7	10072.8
956.2912	2278.5346	10927.55	10047.65
956.4241	2279.9874	10903.6	10019.9
956.5569	2281.4395	10869.55	9988.95
956.6897	2282.8908	10798.35	9910.65
956.8225	2284.3414	10799.15	9913.95
956.9553	2285.7914	10748.5	9867.4
957.088	2287.2406	10724.3	9837.85
957.2207	2288.689	10719.25	9836.25
957.3534	2290.1368	10663.9	9778.55
957.486	2291.5838	10631.25	9743.5
957.6186	2293.0302	10603.7	9720.05
957.7512	2294.4758	10555.95	9671.9
957.8838	2295.9206	10512.4	9625.85
958.0163	2297.3648	10490.05	9607.3
958.1488	2298.8082	10483.7	9599.25
958.2813	2300.251	10419.15	9536.45
958.4137	2301.693	10424.9	9538.4
958.5461	2303.1343	10395.5	9513.75
958.6785	2304.5748	10338.95	9457.05
958.8108	2306.0147	10326.6	9443.75
958.9432	2307.4538	10296.9	9414.95
959.0754	2308.8922	10274.35	9393.5
959.2077	2310.3299	10237.05	9357.95
959.3399	2311.7669	10209.6	9328.75
959.4721	2313.2031	10169.95	9287.55
959.6043	2314.6387	10131	9246.95
959.7365	2316.0735	10097	9215.35
959.8686	2317.5076	10072.75	9190
960.0006	2318.941	10072.7	9189.9
960.1327	2320.3737	10041.5	9158.05
960.2647	2321.8056	10013.35	9128
960.3967	2323.2369	9974.5	9092
960.5287	2324.6674	9959.05	9073.05
960.6606	2326.0972	9914.6	9030.4
960.7925	2327.5263	9863.5	8981.4
960.9244	2328.9547	9848.55	8964
961.0562	2330.3823	9834.35	8951.85
961.1881	2331.8092	9814.5	8926.75
961.3198	2333.2355	9756.65	8874.1
961.4516	2334.661	9746.45	8862.05
961.5833	2336.0858	9747.1	8860.9
961.715	2337.5098	9713	8828.9
961.8467	2338.9332	9684.55	8800.8
961.9783	2340.3558	9647.2	8760.55
962.1099	2341.7778	9618	8735.95
962.2415	2343.199	9573.1	8688.1
962.373	2344.6195	9555	8674.45
962.5045	2346.0393	9518.35	8636.8
962.636	2347.4583	9510.9	8628.5
962.7675	2348.8767	9473.25	8591.75
962.8989	2350.2943	9453.35	8569.5
963.0303	2351.7113	9464.35	8578.65
963.1617	2353.1275	9403.65	8518.8
963.293	2354.543	9387.65	8495.1
963.4243	2355.9578	9372.1	8486.65
963.5556	2357.3718	9307.9	8425.35
963.6868	2358.7852	9270.6	8384.75
963.818	2360.1978	9241.2	8358.15
963.9492	2361.6098	9206.5	8324.8
964.0803	2363.021	9205.1	8318.4
964.2114	2364.4315	9169.75	8287.25
964.3425	2365.8413	9145.2	8260.55
964.4736	2367.2504	9114.35	8232.1
964.6046	2368.6587	9056.65	8173.95
964.7356	2370.0664	9034.65	8153.9
964.8666	2371.4733	9012	8129.55
964.9975	2372.8795	8963.4	8082.25
965.1284	2374.285	8929	8045.55
965.2593	2375.6899	8908.3	8026.55
965.3901	2377.0939	8858.05	7976.75
965.5209	2378.4973	8824.4	7943.2
965.6517	2379.9	8794.2	7912.35
965.7825	2381.3019	8777.8	7894.9
965.9132	2382.7032	8772.75	7891.3
966.0439	2384.1037	8736.55	7855.95
966.1745	2385.5035	8707.85	7826.55
966.3051	2386.9027	8681.7	7800.95
966.4357	2388.3011	8667.05	7781.4
966.5663	2389.6987	8625.3	7743.95
966.6968	2391.0957	8599.6	7718.15
966.8273	2392.492	8580.65	7701.1
966.9578	2393.8876	8499.35	7617.15
967.0882	2395.2824	8480.8	7598.5
967.2186	2396.6765	8463.05	7581.35
967.349	2398.07	8416.05	7534.05
967.4793	2399.4627	8403.05	7519.75
967.6097	2400.8547	8378.35	7496.05
967.7399	2402.246	8342.9	7457.5
967.8702	2403.6366	8304.3	7423.9
968.0004	2405.0265	8286.65	7404.35
968.1306	2406.4156	8253.15	7367.35
968.2607	2407.8041	8217.2	7333.25
968.3909	2409.1918	8197.55	7313
968.521	2410.5789	8150.95	7269.7
968.651	2411.9652	8140.3	7252.9
968.781	2413.3508	8099.15	7216
968.911	2414.7358	8067.9	7185.65
969.041	2416.12	8056.5	7174.35
969.1709	2417.5035	8030.85	7148.55
969.3008	2418.8863	8010.15	7127.1
969.4307	2420.2684	7969.1	7087.05
969.5606	2421.6497	7954.25	7072.55
969.6904	2423.0304	7896.25	7013.45
969.8201	2424.4104	7886	7004.8
969.9499	2425.7896	7840.75	6956.9
970.0796	2427.1682	7874	6991.5
970.2093	2428.546	7816.15	6932.7
970.3389	2429.9232	7776.55	6892.1
970.4685	2431.2996	7771.5	6886.6
970.5981	2432.6753	7756.5	6873.4
970.7277	2434.0503	7716.7	6834.1
970.8572	2435.4246	7701.4	6819.95
970.9867	2436.7982	7692.9	6808.15
971.1161	2438.1711	7662.4	6779.1
971.2456	2439.5433	7633.65	6753.25
971.375	2440.9148	7608.9	6718.7
971.5043	2442.2856	7569.25	6687.2
971.6336	2443.6557	7558.35	6673.9
971.7629	2445.025	7543.8	6660.3
971.8922	2446.3937	7538	6651.6
972.0214	2447.7617	7489.15	6606.5
972.1506	2449.1289	7480.5	6597.75
972.2798	2450.4955	7457.5	6571.6
972.4089	2451.8613	7441.45	6559.8
972.538	2453.2265	7415.45	6532.25
972.6671	2454.5909	7403.35	6517.85
972.7961	2455.9546	7374	6491.8
972.9251	2457.3177	7344.7	6462.45
973.0541	2458.68	7311.9	6426.4
973.1831	2460.0416	7320.2	6437.75
973.312	2461.4025	7308	6426.9
973.4408	2462.7627	7296.75	6402.5
973.5697	2464.1222	7275.3	6395.5
973.6985	2465.4811	7221.55	6338.45
973.8273	2466.8392	7216.1	6333.35
973.956	2468.1966	7200.5	6314.25
974.0847	2469.5533	7181.45	6295.7
974.2134	2470.9093	7187.3	6304
974.3421	2472.2645	7139.85	6255.2
974.4707	2473.6191	7123.8	6242.8
974.5993	2474.973	7083.75	6200.95
974.7278	2476.3262	7041.95	6155.7
974.8563	2477.6787	7036.35	6155.85
974.9848	2479.0305	7015.9	6131.5
975.1132	2480.3816	6995.9	6113.65
975.2417	2481.7319	6978.05	6096.35
975.37	2483.0816	6954.9	6069.15
975.4984	2484.4306	6922.65	6037.6
975.6267	2485.7789	6909.95	6028.3
975.755	2487.1264	6872.05	5989.7
975.8833	2488.4733	6840.05	5959.15
976.0115	2489.8195	6826	5937.35
976.1397	2491.165	6813.1	5930.5
976.2678	2492.5097	6789.15	5904.75
976.3959	2493.8538	6768	5884.5
976.524	2495.1972	6709.55	5826.2
976.6521	2496.5398	6700.2	5817.05
976.7801	2497.8818	6681.15	5796.1
976.9081	2499.2231	6673.3	5789
977.036	2500.5637	6654.6	5769.15
977.164	2501.9035	6632.55	5749.6
977.2918	2503.2427	6610.65	5723
977.4197	2504.5812	6599.2	5716.85
977.5475	2505.919	6559.05	5674.9
977.6753	2507.256	6552.6	5671.55
977.8031	2508.5924	6524.6	5642.45
977.9308	2509.9281	6504.75	5612.95
978.0585	2511.2631	6480.05	5598.9
978.1861	2512.5974	6474.1	5590.5
978.3137	2513.9309	6453.15	5572.25
978.4413	2515.2638	6457.25	5545.25
978.5689	2516.596	6390.1	5507.25
978.6964	2517.9275	6380.3	5495.75
978.8239	2519.2583	6375.7	5492.35
978.9513	2520.5884	6336.25	5451.65
979.0788	2521.9178	6326.45	5441.45
979.2062	2523.2465	6309.7	5427.65
979.3335	2524.5745	6254.3	5372.8
979.4608	2525.9018	6246.5	5361.95
979.5881	2527.2284	6237.35	5356.95
979.7154	2528.5543	6228.85	5346.5
979.8426	2529.8796	6189.4	5305.4
979.9698	2531.2041	6192.3	5308.9
980.0969	2532.5279	6192.15	5311
980.224	2533.851	6166.8	5283.05
980.3511	2535.1735	6155.45	5274.15
980.4781	2536.4952	6132.85	5250.6
980.6052	2537.8163	6113.3	5230.55
980.7321	2539.1366	6104.75	5222.75
980.8591	2540.4562	6077.05	5192.85
980.986	2541.7752	6077.2	5192.65
981.1129	2543.0935	6061.6	5176.7
981.2397	2544.411	6070.1	5185.05
981.3665	2545.7279	6043.95	5162.3
981.4933	2547.0441	6023.35	5140.4
981.62	2548.3596	6029.8	5145.2
981.7467	2549.6744	5997.85	5114.75
981.8734	2550.9885	5966.7	5077.7
982.0001	2552.3019	5957.65	5076.05
982.1267	2553.6146	5959.15	5075.1
982.2532	2554.9266	5950.95	5067.4
982.3798	2556.2379	5927.5	5044.15
982.5063	2557.5485	5908.25	5027.2
982.6327	2558.8585	5891	5002.95
982.7592	2560.1677	5891.75	5005.8
982.8856	2561.4762	5878.95	4997.45
983.0119	2562.7841	5870.8	4984.55
983.1383	2564.0913	5841.4	4962.5
983.2646	2565.3977	5835.35	4952.75
983.3908	2566.7035	5804.6	4920.8
983.517	2568.0086	5810.55	4928.05
983.6432	2569.313	5791.9	4905.05
983.7694	2570.6167	5794.85	4907.85
983.8955	2571.9197	5778.55	4895
984.0216	2573.222	5758	4872.9
984.1476	2574.5236	5741.65	4859.55
984.2737	2575.8246	5728.6	4842.65
984.3996	2577.1248	5728.1	4845.35
984.5256	2578.4244	5704.3	4823.65
984.6515	2579.7232	5709.65	4827
984.7774	2581.0214	5724.55	4816.6
984.9032	2582.3189	5687.45	4803.85
985.029	2583.6157	5687.15	4800.05
985.1548	2584.9118	5651.45	4769.15
985.2806	2586.2072	5635.15	4751.95
985.4063	2587.5019	5620.8	4738.7
985.5319	2588.7959	5602.3	4718.7
985.6576	2590.0893	5596.15	4709.5
985.7832	2591.3819	5568.55	4685.45
985.9087	2592.6739	5548.35	4664.35
986.0343	2593.9652	5546.75	4662.7
986.1597	2595.2557	5540	4655.95
986.2852	2596.5456	5484.5	4601.4
986.4106	2597.8348	5475.9	4593.4
986.536	2599.1234	5482.15	4601.35
986.6614	2600.4112	5452.35	4570.6
986.7867	2601.6983	5443.5	4558.25
986.912	2602.9848	5404.75	4522.05
987.0372	2604.2705	5391.1	4503.2
987.1624	2605.5556	5377.05	4494.2
987.2876	2606.84	5355.7	4474.7
987.4128	2608.1237	5341.85	4458.4
987.5379	2609.4067	5318.85	4437.8
987.6629	2610.689	5311.6	4421.3
987.788	2611.9707	5311.2	4424.8
987.913	2613.2516	5264.15	4376.25
988.0379	2614.5319	5263.8	4382.45
988.1629	2615.8115	5223.75	4340.1
988.2878	2617.0903	5205.9	4322.1
988.4126	2618.3685	5191.4	4307.85
988.5375	2619.6461	5168.75	4284.45
988.6622	2620.9229	5171.2	4288.7
988.787	2622.199	5171.1	4288.3
988.9117	2623.4745	5152.1	4269.25
989.0364	2624.7493	5118.4	4236.45
989.161	2626.0234	5109.3	4229.75
989.2857	2627.2968	5085.1	4201.1
989.4102	2628.5695	5066.25	4182.35
989.5348	2629.8415	5063.5	4181.3
989.6593	2631.1128	5060.1	4178.7
989.7837	2632.3835	5020.35	4137.05
989.9082	2633.6535	5010.15	4127.45
990.0326	2634.9228	4986.9	4104.8
990.1569	2636.1914	4967.8	4084.35
990.2812	2637.4593	4962.2	4073.5
990.4055	2638.7265	4938.75	4056.25
990.5298	2639.9931	4924.05	4043.5
990.654	2641.259	4909.65	4026.15
990.7782	2642.5242	4895.6	4014.15
990.9023	2643.7887	4871.2	3988.4
991.0264	2645.0525	4870.7	3989.8
991.1505	2646.3156	4857.85	3975.6
991.2745	2647.5781	4818.75	3935.05
991.3985	2648.8398	4818.05	3937.1
991.5225	2650.1009	4830.3	3910.9
991.6464	2651.3613	4801.3	3917.2
991.7703	2652.6211	4802.75	3919.45
991.8942	2653.8801	4769.9	3887.85
992.018	2655.1385	4763.35	3878.65
992.1418	2656.3961	4754.5	3871.4
992.2655	2657.6531	4747	3863.15
992.3892	2658.9094	4733.9	3850.5
992.5129	2660.1651	4709.3	3829
992.6366	2661.42	4703.3	3820.85
992.7602	2662.6743	4684.85	3801.9
992.8837	2663.9279	4671.1	3789.85
993.0073	2665.1808	4661.8	3778.6
993.1307	2666.433	4673.4	3790.05
993.2542	2667.6846	4644.2	3763.1
993.3776	2668.9354	4651	3763
993.501	2670.1856	4616.6	3732.35
993.6244	2671.4351	4604.85	3724.3
993.7477	2672.6839	4613.95	3730.55
993.8709	2673.9321	4586.5	3704.75
993.9942	2675.1795	4575.85	3692.95
994.1174	2676.4263	4571.9	3691.25
994.2405	2677.6724	4546.55	3665.35
994.3637	2678.9179	4537.5	3654.35
994.4868	2680.1626	4530.3	3649
994.6098	2681.4067	4516.25	3633.5
994.7328	2682.6501	4503.85	3622.5
994.8558	2683.8928	4500.5	3619.05
994.9788	2685.1348	4489.7	3607.55
995.1017	2686.3761	4463.6	3581.2
995.2245	2687.6168	4458.45	3576.6
995.3474	2688.8568	4435.7	3554.55
995.4702	2690.0961	4414.05	3533.35
995.5929	2691.3348	4403.65	3520.1
995.7156	2692.5727	4390.45	3509.35
995.8383	2693.81	4383.8	3500.05
995.961	2695.0466	4362	3482.2
996.0836	2696.2826	4366.5	3484.1
996.2062	2697.5178	4383	3480.7
996.3287	2698.7524	4342.15	3460.3
996.4512	2699.9863	4328.45	3443.9
996.5737	2701.2195	4303.65	3422.8
996.6961	2702.452	4303	3419.75
996.8185	2703.6839	4294.85	3410.15
996.9408	2704.9151	4281.8	3401.05
997.0631	2706.1456	4260.9	3378.15
997.1854	2707.3755	4255.9	3371.7
997.3077	2708.6046	4264.8	3380.8
997.4299	2709.8331	4230.85	3349.65
997.552	2711.0609	4219.05	3337.6
997.6742	2712.2881	4219.45	3339.35
997.7963	2713.5145	4207.05	3322.25
997.9183	2714.7403	4201.8	3321.6
998.0403	2715.9654	4189.35	3306.7
998.1623	2717.1899	4194	3309.9
998.2842	2718.4136	4149.35	3268.5
998.4062	2719.6367	4151.5	3268.9
998.528	2720.8591	4144.2	3257.9
998.6498	2722.0809	4136.1	3253.55
998.7716	2723.3019	4111.85	3228.1
998.8934	2724.5223	4112.9	3229.55
999.0151	2725.7421	4092.1	3209.5
999.1368	2726.9611	4088.55	3205.4
999.2584	2728.1795	4079.1	3192.5
999.38	2729.3972	4064.65	3183.25
999.5016	2730.6142	4041.7	3149.7
999.6231	2731.8306	4005.95	3124.85
999.7446	2733.0462	4001.95	3118.9
999.8661	2734.2612	3995.55	3109.1
999.9875	2735.4756	3981.6	3096.25
1000.1089	2736.6892	3951.35	3070.95
1000.2302	2737.9022	3934.15	3052
1000.3515	2739.1145	3915.95	3035.9
1000.4728	2740.3262	3906.35	3017.65
1000.594	2741.5372	3889.6	3007
1000.7152	2742.7475	3871.5	2988.5
1000.8363	2743.9571	3860.35	2975.3
1000.9575	2745.1661	3837.45	2952.4
1001.0785	2746.3744	3837.9	2956.05
1001.1996	2747.582	3814.3	2933.65
1001.3206	2748.7889	3792.5	2907.95
1001.4415	2749.9952	3806.8	2924.6
1001.5625	2751.2008	3787.2	2905.35
1001.6833	2752.4057	3782.75	2899.35
1001.8042	2753.61	3767.15	2883.85
1001.925	2754.8136	3760.35	2877.45
1002.0458	2756.0165	3743.25	2862.1
1002.1665	2757.2188	3731.85	2850.8
1002.2872	2758.4204	3721.5	2841.7
1002.4078	2759.6213	3706.45	2821.3
1002.5285	2760.8215	3697.05	2811.9
1002.649	2762.0211	3691.4	2808.7
1002.7696	2763.22	3686.9	2801.85
1002.8901	2764.4182	3662.35	2779.1
1003.0106	2765.6158	3664	2780.15
1003.131	2766.8127	3648.3	2766
1003.2514	2768.009	3629.7	2747
1003.3717	2769.2045	3634.65	2752.65
1003.492	2770.3994	3627.8	2744.45
1003.6123	2771.5936	3606.6	2723.5
1003.7325	2772.7872	3597.95	2718.9
1003.8527	2773.9801	3578.55	2695.9
1003.9729	2775.1723	3580.6	2682.4
1004.093	2776.3639	3548.3	2667.9
1004.2131	2777.5548	3545.75	2661.85
1004.3331	2778.745	3543.3	2661.35
1004.4531	2779.9346	3530.4	2650.75
1004.5731	2781.1235	3517.75	2634.15
1004.693	2782.3117	3510.7	2631.95
1004.8129	2783.4992	3489.15	2607.9
1004.9328	2784.6861	3484.75	2603.5
1005.0526	2785.8723	3486.05	2603.1
1005.1723	2787.0579	3477.1	2595.25
1005.2921	2788.2428	3464.15	2583.85
1005.4118	2789.427	3453	2569.6
1005.5314	2790.6106	3436.5	2554.55
1005.651	2791.7935	3428.5	2547
1005.7706	2792.9757	3421.2	2541.4
1005.8902	2794.1573	3428.45	2545.7
1006.0097	2795.3382	3413.4	2534.75
1006.1291	2796.5184	3395.75	2515.95
1006.2485	2797.698	3395.7	2514.7
1006.3679	2798.8769	3386.4	2505.2
1006.4873	2800.0551	3385.95	2504.25
1006.6066	2801.2327	3378.95	2495.3
1006.7258	2802.4096	3374.9	2494.85
1006.8451	2803.5859	3369.35	2486.45
1006.9642	2804.7615	3360.65	2478.95
1007.0834	2805.9364	3369.3	2487.6
1007.2025	2807.1106	3356.75	2477.9
1007.3216	2808.2842	3356	2473.6
1007.4406	2809.4572	3361.55	2480.65
1007.5596	2810.6294	3375.1	2491.9
1007.6785	2811.801	3368.05	2489.15
1007.7975	2812.972	3365.8	2485.6
1007.9163	2814.1423	3374.85	2494.15
1008.0352	2815.3119	3401.75	2522.75
1008.154	2816.4808	3394.65	2515.25
1008.2727	2817.6491	3411.9	2531.45
1008.3914	2818.8167	3414.25	2534.15
1008.5101	2819.9837	3448.1	2562
1008.6288	2821.15	3438.1	2558
1008.7474	2822.3157	3459.2	2576.85
1008.8659	2823.4807	3461.65	2580.85
1008.9844	2824.645	3478.6	2596.75
1009.1029	2825.8086	3487.7	2606.95
1009.2214	2826.9716	3499.5	2617.2
1009.3398	2828.134	3529.4	2649.6
1009.4581	2829.2957	3535.25	2654.65
1009.5764	2830.4567	3537	2655.3
1009.6947	2831.617	3548.5	2666.6
1009.813	2832.7767	3533.65	2654.25
1009.9312	2833.9358	3550.35	2669.55
1010.0493	2835.0941	3537.45	2655.85
1010.1675	2836.2519	3522.4	2641.6
1010.2855	2837.4089	3508.2	2627.85
1010.4036	2838.5653	3494.75	2615.7
1010.5216	2839.7211	3479.4	2599.3
1010.6396	2840.8761	3480.6	2600.85
1010.7575	2842.0306	3466.5	2587.15
1010.8754	2843.1843	3465	2583.3
1010.9932	2844.3374	3484.25	2604.4
1011.111	2845.4899	3487.85	2606.15
1011.2288	2846.6417	3512.35	2632.7
1011.3465	2847.7928	3531.6	2651.45
1011.4642	2848.9433	3533.7	2653.8
1011.5818	2850.0931	3545.7	2667.95
1011.6995	2851.2422	3563.5	2682.2
1011.817	2852.3907	3597.25	2718.25
1011.9345	2853.5385	3616.3	2733.4
1012.052	2854.6857	3623.05	2732.5
1012.1695	2855.8323	3625.15	2746.2
1012.2869	2856.9781	3636.75	2754.9
1012.4042	2858.1233	3670.8	2790.1
1012.5216	2859.2679	3652.15	2771.15
1012.6389	2860.4118	3666.6	2788.45
1012.7561	2861.555	3677.5	2791.3
1012.8733	2862.6976	3697.3	2815.2
1012.9905	2863.8395	3692.15	2810.55
1013.1076	2864.9808	3696	2815.05
1013.2247	2866.1214	3690.8	2811.05
1013.3417	2867.2614	3695.25	2815.35
1013.4587	2868.4007	3705.5	2821.9
1013.5757	2869.5393	3701.35	2817.85
1013.6926	2870.6773	3684.95	2799.15
1013.8095	2871.8146	3693	2808.85
1013.9263	2872.9513	3675.05	2793.05
1014.0431	2874.0874	3653.2	2771.4
1014.1599	2875.2227	3651.95	2770
1014.2766	2876.3574	3634.85	2753.85
1014.3933	2877.4915	3619.25	2739.65
1014.51	2878.6249	3595.7	2715.15
1014.6266	2879.7577	3571.15	2689
1014.7431	2880.8898	3573.85	2684.15
1014.8596	2882.0212	3555.65	2678.45
1014.9761	2883.152	3537.55	2656.45
1015.0925	2884.2821	3521.05	2641.1
1015.2089	2885.4116	3512.8	2633.2
1015.3253	2886.5405	3520.75	2639.15
1015.4416	2887.6686	3513.85	2629.9
1015.5579	2888.7962	3501.3	2620.7
1015.6741	2889.923	3488.35	2611
1015.7903	2891.0493	3494.4	2614.25
1015.9065	2892.1748	3481.85	2601.35
1016.0226	2893.2997	3484.9	2605.7
1016.1387	2894.424	3472.9	2594.05
1016.2547	2895.5476	3475.6	2597.55
1016.3707	2896.6706	3469.45	2590.85
1016.4866	2897.7929	3477.9	2595.6
1016.6025	2898.9145	3482.3	2601.6
1016.7184	2900.0355	3467.75	2586.95
1016.8342	2901.1559	3471.25	2590.55
1016.95	2902.2756	3463.7	2582.05
1017.0658	2903.3946	3479.1	2599.6
1017.1815	2904.513	3489.75	2608.65
1017.2971	2905.6308	3488.5	2607.8
1017.4127	2906.7479	3502.65	2623.35
1017.5283	2907.8643	3506	2626.35
1017.6439	2908.9801	3488.75	2606.7
1017.7594	2910.0953	3483.4	2602.8
1017.8748	2911.2098	3479.15	2596.55
1017.9902	2912.3236	3473.25	2585
1018.1056	2913.4368	3466.15	2582
1018.2209	2914.5494	3462.2	2580.95
1018.3362	2915.6613	3421.6	2535.65
1018.4515	2916.7725	3413.05	2529.45
1018.5667	2917.8831	3392.65	2510.7
1018.6819	2918.9931	3373.75	2491.2
1018.797	2920.1024	3351.1	2468.85
1018.9121	2921.211	3349.35	2468.95
1019.0271	2922.319	3335.3	2454.45
1019.1421	2923.4264	3318.45	2440.8
1019.2571	2924.5331	3312.35	2433.9
1019.372	2925.6391	3301.1	2421.85
1019.4869	2926.7445	3295.2	2416.9
1019.6017	2927.8493	3295.45	2414.7
1019.7165	2928.9534	3290.6	2412.1
1019.8313	2930.0569	3287.3	2404.25
1019.946	2931.1597	3273.65	2393.2
1020.0606	2932.2619	3277.7	2396.75
1020.1753	2933.3634	3271.75	2392.5
1020.2899	2934.4643	3264.2	2377.75
1020.4044	2935.5645	3267.25	2379.9
1020.5189	2936.6641	3246.3	2361.3
1020.6334	2937.763	3218.2	2340
1020.7478	2938.8613	3200.6	2320.2
1020.8622	2939.959	3185.65	2298.3
1020.9765	2941.056	3145.85	2267.75
1021.0908	2942.1523	3117.05	2233.9
1021.2051	2943.248	3084.8	2205.9
1021.3193	2944.3431	3027.7	2148.45
1021.4334	2945.4375	2996.15	2115.9
1021.5476	2946.5313	2948.05	2069.4
1021.6617	2947.6244	2913.05	2031.8
1021.7757	2948.7169	2863.7	1981.7
1021.8897	2949.8087	2820.75	1940.1
1022.0037	2950.8999	2775.15	1893.05
1022.1176	2951.9904	2742.65	1863.6
1022.2315	2953.0803	2714.3	1833.3
1022.3453	2954.1696	2686	1805.65
1022.4591	2955.2582	2664.25	1786.1
1022.5728	2956.3462	2644.1	1764.75
1022.6865	2957.4335	2614.75	1733.95
1022.8002	2958.5202	2598.15	1715.85
1022.9138	2959.6062	2583.45	1704.25
1023.0274	2960.6916	2573.35	1695.1
1023.141	2961.7764	2559.85	1680.25
1023.2545	2962.8605	2546.2	1667.2
1023.3679	2963.9439	2539.9	1657.95
1023.4813	2965.0267	2534.45	1653.35
1023.5947	2966.1089	2546.8	1641.55
1023.708	2967.1905	2510.7	1632.05
1023.8213	2968.2714	2506.2	1626.65
1023.9346	2969.3516	2494.7	1614.15
1024.0478	2970.4312	2501.15	1614.7
1024.1609	2971.5102	2471.95	1592.75
1024.274	2972.5885	2492.5	1612.2
1024.3871	2973.6662	2473.75	1590.1
1024.5002	2974.7432	2464.5	1587.7
1024.6132	2975.8196	2468.6	1588.75
1024.7261	2976.8954	2452.5	1571.95
1024.839	2977.9705	2448.8	1566.95
1024.9519	2979.045	2446.9	1569.1
1025.0647	2980.1188	2422.1	1541.4
1025.1775	2981.192	2420.5	1543.45
1025.2902	2982.2645	2411.45	1531.1
1025.4029	2983.3364	2402.05	1523.2
1025.5156	2984.4077	2366.85	1486.45
1025.6282	2985.4783	2372.5	1486.55
1025.7407	2986.5483	2346.35	1467.4
1025.8532	2987.6177	2329.3	1449.7
1025.9657	2988.6864	2324.45	1443
1026.0782	2989.7545	2303.45	1422.9
1026.1906	2990.8219	2273.65	1392.25
1026.3029	2991.8887	2270.35	1390.05
1026.4152	2992.9548	2243.25	1361.9
1026.5275	2994.0204	2223.6	1343.6
1026.6397	2995.0852	2216.8	1339.4
1026.7519	2996.1495	2195.15	1314.4
1026.864	2997.2131	2176.85	1297.65
1026.9761	2998.276	2165.7	1286.7
1027.0882	2999.3383	2158.65	1278.2
1027.2002	3000.4	2140.1	1261.05
1027.3122	3001.4611	2122.8	1244.15
1027.4241	3002.5215	2122.95	1242
1027.536	3003.5812	2106.3	1226.6
1027.6478	3004.6404	2108.55	1228.9
1027.7596	3005.6989	2096.9	1213.6
1027.8714	3006.7567	2093.3	1214.3
1027.9831	3007.8139	2103.6	1192.2
1028.0947	3008.8705	2070.5	1190.85
1028.2064	3009.9264	2075.3	1190.75
1028.3179	3010.9818	2063.05	1185.35
1028.4295	3012.0364	2051.8	1171
1028.541	3013.0905	2041.4	1161.6
1028.6524	3014.1439	2037.1	1158.95
1028.7638	3015.1966	2031.7	1151.2
1028.8752	3016.2487	2033	1154
1028.9865	3017.3002	2021	1136.45
1029.0978	3018.3511	2026.1	1146.7
1029.209	3019.4013	2011.85	1132.7
1029.3202	3020.4509	2005.85	1126.85
1029.4314	3021.4998	2011.25	1131.1
1029.5425	3022.5481	1993.3	1113.2
1029.6535	3023.5958	1997.8	1118.45
1029.7645	3024.6428	2000.55	1120.95
1029.8755	3025.6892	1987.75	1107.5
1029.9864	3026.735	1983.7	1103.4
1030.0973	3027.7802	1975	1096
1030.2082	3028.8247	1960.65	1080.2
1030.319	3029.8685	1961.25	1081.75
1030.4297	3030.9118	1963.6	1084.45
1030.5404	3031.9544	1948.75	1070.3
1030.6511	3032.9963	1951.75	1074.05
1030.7617	3034.0376	1948.9	1068.15
1030.8723	3035.0783	1951.65	1069.35
1030.9829	3036.1184	1941.75	1062.2
1031.0934	3037.1578	1945.95	1069
1031.2038	3038.1966	1930.05	1050
1031.3142	3039.2348	1936.6	1056.05
1031.4246	3040.2723	1941.05	1053.25
1031.5349	3041.3092	1931.6	1053.85
1031.6452	3042.3455	1926.7	1046.5
1031.7554	3043.3811	1911.8	1033.7
1031.8656	3044.4161	1911.85	1030.05
1031.9758	3045.4505	1907.2	1028.8
1032.0859	3046.4842	1908.4	1027.7
1032.1959	3047.5173	1905.5	1026.05
1032.3059	3048.5498	1902.05	1022.1
1032.4159	3049.5816	1882.05	1002.85
1032.5258	3050.6128	1886.4	1005.95
1032.6357	3051.6434	1882.6	1004.2
1032.7455	3052.6734	1883.05	1002.65
1032.8553	3053.7027	1876.45	998.1
1032.9651	3054.7314	1866.75	987.45
1033.0748	3055.7594	1860.15	980.7
1033.1845	3056.7868	1849.85	968.9
1033.2941	3057.8136	1856.4	976.05
1033.4037	3058.8398	1838.45	961.8
1033.5132	3059.8653	1843.05	964.2
1033.6227	3060.8902	1837.3	959
1033.7321	3061.9145	1826.9	948.15
1033.8415	3062.9381	1823.8	943.45
1033.9509	3063.9612	1829.55	935.05
1034.0602	3064.9835	1825.3	947.4
1034.1694	3066.0053	1820.75	939
1034.2787	3067.0264	1809.25	931.5
1034.3878	3068.0469	1801	919.9
1034.497	3069.0668	1808.85	926.8
1034.6061	3070.086	1796.9	917.95
1034.7151	3071.1046	1795.6	917.35
1034.8241	3072.1226	1788.65	908.3
1034.9331	3073.1399	1778.7	901.6
1035.042	3074.1567	1772.55	894.85
1035.1508	3075.1727	1767.75	888.35
1035.2597	3076.1882	1766.25	885.8
1035.3684	3077.203	1752.2	872.75
1035.4772	3078.2173	1746.95	866.3
1035.5859	3079.2308	1742.8	859.1
1035.6945	3080.2438	1735.2	853.2
1035.8031	3081.2561	1729.25	850.35
1035.9117	3082.2678	1727.65	849.8
1036.0202	3083.2789	1724.7	842.15
1036.1286	3084.2893	1723.75	845
1036.2371	3085.2991	1712.85	831.5
1036.3454	3086.3083	1711.35	828.9
1036.4538	3087.3169	1700.6	822.35
1036.562	3088.3248	1696.6	816.05
1036.6703	3089.3321	1686	805.65
1036.7785	3090.3388	1684.15	805.9
1036.8866	3091.3449	1681.25	802.15
1036.9948	3092.3503	1685.3	804.8
1037.1028	3093.3551	1672.5	794.7
1037.2108	3094.3593	1665.85	786.55
1037.3188	3095.3629	1659.8	781.75
1037.4267	3096.3658	1664.35	783.8
1037.5346	3097.3681	1654.55	775.3
1037.6425	3098.3698	1647.45	766.3
1037.7503	3099.3708	1648.65	764.75
1037.858	3100.3713	1644.2	765.55
1037.9657	3101.3711	1632.95	752.7
1038.0734	3102.3702	1770.85	756.55
1038.181	3103.3688	1640.05	759.85
1038.2886	3104.3667	1622.45	743.7
1038.3961	3105.364	1615.35	736.4
1038.5036	3106.3607	1617.7	736.15
1038.611	3107.3568	1609	727.4
1038.7184	3108.3522	1601.2	724.55
1038.8257	3109.347	1610.55	729.9
1038.933	3110.3412	1604.75	721.6
1039.0403	3111.3348	1588.6	711.65
1039.1475	3112.3277	1587.85	710
1039.2547	3113.32	1585.1	706.8
1039.3618	3114.3117	1575.3	694
1039.4689	3115.3028	1572.55	695.1
1039.5759	3116.2932	1570.3	688.3
1039.6829	3117.2831	1570.45	688.55
1039.7898	3118.2723	1567.85	688.2
1039.8967	3119.2608	1555.55	677.6
1040.0035	3120.2488	1554.75	674.35
1040.1103	3121.2361	1550.95	671.35
1040.2171	3122.2229	1544.2	663.6
1040.3238	3123.209	1550.6	670.7
1040.4305	3124.1944	1540.75	662.95
1040.5371	3125.1793	1536.45	655.8
1040.6437	3126.1635	1535.8	658.85
1040.7502	3127.1471	1534.15	655.5
1040.8567	3128.1301	1523.5	644.6
1040.9631	3129.1125	1519.9	642.65
1041.0695	3130.0942	1517.6	637.5
1041.1759	3131.0753	1523.45	636.2
1041.2822	3132.0558	1516.7	636.15
1041.3884	3133.0357	1510.45	629.9
1041.4946	3134.015	1507.35	629.2
1041.6008	3134.9936	1501.45	620.7
1041.7069	3135.9716	1527	628.35
1041.813	3136.949	1499.05	622.05
1041.919	3137.9258	1501.95	618.9
1042.025	3138.902	1495.2	612.95
1042.1309	3139.8775	1492.75	613.3
1042.2368	3140.8524	1488.4	608.5
1042.3427	3141.8267	1482.55	601.7
1042.4485	3142.8004	1487.75	608.35
1042.5542	3143.7735	1484.45	599.7
1042.6599	3144.7459	1477.6	596.65
1042.7656	3145.7178	1481.85	602.25
1042.8712	3146.689	1477.15	598.85
1042.9768	3147.6596	1475.6	592.7
1043.0823	3148.6295	1465.6	584.25
1043.1878	3149.5989	1452.9	575.2
1043.2932	3150.5676	1459.4	581.6
1043.3986	3151.5357	1461.35	584.6
1043.5039	3152.5032	1455	575.8
1043.6092	3153.4701	1453.05	575.65
1043.7145	3154.4364	1452.3	571.15
1043.8197	3155.402	1441.45	563.45
1043.9248	3156.367	1438.6	556.95
1044.03	3157.3315	1469.65	552.95
1044.135	3158.2952	1433	552.45
1044.24	3159.2584	1427	548.55
1044.345	3160.221	1422.3	540.75
1044.4499	3161.1829	1425.2	547.75
1044.5548	3162.1442	1419.45	540.9
1044.6596	3163.105	1415.25	534.4
1044.7644	3164.065	1410.45	532.95
1044.8692	3165.0245	1419.75	536.25
1044.9739	3165.9834	1409.1	532.8
1045.0785	3166.9416	1405.85	529.4
1045.1831	3167.8993	1400.95	521.45
1045.2877	3168.8563	1404.25	524.4
1045.3922	3169.8127	1394.8	517.3
1045.4966	3170.7684	1392.55	515.2
1045.6011	3171.7236	1395.7	516.9
1045.7054	3172.6782	1391.7	513.75
1045.8098	3173.6321	1388.2	510.3
1045.914	3174.5854	1386.2	500.55
1046.0183	3175.5381	1386.3	507.95
1046.1224	3176.4902	1374.45	495
1046.2266	3177.4417	1369.65	493.25
1046.3307	3178.3926	1363.35	484.2
1046.4347	3179.3428	1368.55	492.25
1046.5387	3180.2924	1364.25	487.45
1046.6427	3181.2415	1368.2	492.4
1046.7466	3182.1899	1370.3	490.5
1046.8504	3183.1377	1359.8	482.7
1046.9542	3184.0848	1367.55	483.85
1047.058	3185.0314	1358.4	479.4
1047.1617	3185.9773	1347.7	467.15
1047.2654	3186.9227	1346.8	467.5
1047.369	3187.8674	1350.75	472.25
1047.4726	3188.8115	1340.8	456.35
1047.5761	3189.755	1343.9	465.45
1047.6796	3190.6979	1338.95	460.7
1047.783	3191.6402	1336.5	458.35
1047.8864	3192.5818	1332.7	456.45
1047.9898	3193.5229	1347.4	450.95
1048.0931	3194.4633	1338.85	461.75
1048.1963	3195.4031	1328.55	448.8
1048.2995	3196.3423	1326.8	445.9
1048.4027	3197.2809	1323.6	445.95
1048.5058	3198.2189	1319.75	442.4
1048.6089	3199.1563	1328.85	433.8
1048.7119	3200.0931	1319.25	444.2
1048.8148	3201.0292	1316.05	437.75
1048.9178	3201.9648	1310.65	431.85
1049.0206	3202.8997	1311.3	429.5
1049.1235	3203.834	1308.15	430.2
1049.2262	3204.7677	1304.6	427.6
1049.329	3205.7008	1298.9	417.25
1049.4317	3206.6333	1299.35	422.9
1049.5343	3207.5652	1302.25	421.3
1049.6369	3208.4964	1296.85	416.9
1049.7394	3209.4271	1289.5	412
1049.8419	3210.3571	1289.95	412
1049.9444	3211.2865	1296.95	417.6
1050.0468	3212.2154	1286.05	407.7
1050.1491	3213.1436	1286.35	404.6
1050.2514	3214.0712	1285.3	401.4
1050.3537	3214.9982	1280.75	401.6
1050.4559	3215.9246	1283.4	403.9
1050.5581	3216.8503	1280.85	404.6
1050.6602	3217.7755	1278.75	400.05
1050.7623	3218.7001	1273	394.7
1050.8643	3219.624	1272	393.2
1050.9663	3220.5473	1267.05	388.25
1051.0682	3221.4701	1275.25	394.65
1051.1701	3222.3922	1265	383.45
1051.2719	3223.3137	1262.25	387.6
1051.3737	3224.2346	1260.35	382.2
1051.4754	3225.1549	1261	381.7
1051.5771	3226.0746	1253.75	376.65
1051.6788	3226.9937	1253.05	373.9
1051.7804	3227.9121	1257.1	378.85
1051.8819	3228.83	1249.25	369.4
1051.9834	3229.7473	1245.8	366.55
1052.0849	3230.6639	1245.55	366.5
1052.1863	3231.5799	1244.65	366.7
1052.2876	3232.4954	1244.05	366.2
1052.3889	3233.4102	1240.05	361.6
1052.4902	3234.3244	1236.6	357.5
1052.5914	3235.238	1240.35	361.85
1052.6926	3236.151	1252.9	349.95
1052.7937	3237.0634	1229.95	352.75
1052.8948	3237.9752	1227.45	347.6
1052.9958	3238.8864	1228.55	348.4
1053.0968	3239.797	1228.85	351.6
1053.1977	3240.7069	1221.2	343.1
1053.2986	3241.6163	1224.25	343.45
1053.3994	3242.5251	1224.1	348.05
1053.5002	3243.4332	1216.15	336.75
1053.6009	3244.3408	1215.3	337.75
1053.7016	3245.2477	1210.45	331.75
1053.8022	3246.154	1214.1	334.4
1053.9028	3247.0598	1205	325.15
1054.0034	3247.9649	1208.35	329.2
1054.1039	3248.8694	1204.4	324.35
1054.2043	3249.7733	1201.65	322.55
1054.3047	3250.6766	1198.9	320.1
1054.4051	3251.5793	1200.2	321.45
1054.5054	3252.4814	1192.85	315.85
1054.6056	3253.3829	1196.95	318.4
1054.7058	3254.2838	1194	316.35
1054.806	3255.1841	1185.8	309.25
1054.9061	3256.0838	1191.45	312.8
1055.0061	3256.9829	1184.4	306.8
1055.1062	3257.8814	1179.95	298.55
1055.2061	3258.7792	1185.75	303.9
1055.306	3259.6765	1182.45	302.2
1055.4059	3260.5731	1176.25	299.25
1055.5057	3261.4692	1176.65	297.25
1055.6055	3262.3647	1166.75	288.05
1055.7052	3263.2595	1164.05	286.95
1055.8049	3264.1538	1157.5	279.4
1055.9045	3265.0474	1149.15	268.1
1056.0041	3265.9404	1146.45	266.4
1056.1036	3266.8329	1145.4	267.8
1056.2031	3267.7247	1154.55	266.15
1056.3025	3268.616	1138.4	261.6
1056.4019	3269.5066	1127.25	249.8
1056.5013	3270.3966	1123.55	243.2
1056.6005	3271.286	1110.25	233
