Software Version:	3.9.2.0
Unit SN:	10000200
Spectrometer SN:	6960
Date:	3/6/2024 10:15:10 AM
Data Line Index:	25
Spectral Points:	2048
Integration time (ms):	125
Averages:	20
Delay (ms):	30
Sequence Number:	1
Processing:	dark subtract
Laser Power (mW):	305
Laser Current (mA):	825
Laser Diode Temp (C):	25.1
Laser Case Temp (C):	25
System Temp (C):	24.8
Spectrometer Temp (C):	22.4
CCD Temp (C):	-0.002
Secondary Temp (C):	20.011
Heatsink Temp (C):	19.365
CCDPCB Temp (C):	31.205
SecondaryPCB Temp (C):	25.769

Wavelength	RamanShift	Raw Counts	Dark Subtracted
787.061	30.1047	1057.55	649.05
787.2016	32.3739	1093.65	688.6
787.3422	34.6426	1131.6	723.05
787.4828	36.9109	1172.85	763.65
787.6235	39.1787	1230.7	816.85
787.7642	41.4461	1290.6	873.6
787.9049	43.7131	1344.75	923.2
788.0456	45.9796	1389.8	965.3
788.1863	48.2456	1467.5	1040.1
788.3271	50.5112	1529.55	1097.1
788.4679	52.7764	1584.85	1151.45
788.6087	55.0411	1663	1224.9
788.7496	57.3054	1743.3	1299.9
788.8904	59.5692	1816.95	1370.45
789.0313	61.8326	1906.1	1457.2
789.1722	64.0955	2000	1549.15
789.3132	66.3579	2123.2	1665.7
789.4541	68.6199	2263.55	1803.75
789.5951	70.8815	2516.4	2051.6
789.7361	73.1426	3035.15	2565.95
789.8771	75.4032	4359.4	3884.3
790.0181	77.6634	7805.85	7329.75
790.1592	79.9231	16930.65	16449.5
790.3003	82.1824	53462.05	52971.2
790.4414	84.4412	65535	65029.2
790.5825	86.6995	65535	65007.9
790.7237	88.9574	65535	64991.4
790.8648	91.2148	65535	64976.4
791.006	93.4717	65535	64973.2
791.1472	95.7282	65535	64966.3
791.2885	97.9842	65535	64964.85
791.4297	100.2398	65535	64963.05
791.571	102.4949	65535	64960.75
791.7123	104.7495	65535	64957.45
791.8536	107.0036	65535	64953.7
791.9949	109.2573	65535	64955.5
792.1363	111.5105	65535	64952.75
792.2777	113.7632	65535	64951.7
792.4191	116.0154	65535	64938.25
792.5605	118.2672	65535	64948.35
792.7019	120.5185	65535	64942.25
792.8434	122.7693	65535	64941.45
792.9849	125.0197	65535	64939.05
793.1264	127.2696	65535	64932.1
793.2679	129.519	65535	64930.4
793.4094	131.7679	65535	64929.05
793.551	134.0163	65535	64928.25
793.6926	136.2642	65535	64920.05
793.8342	138.5117	65535	64916.9
793.9758	140.7587	65535	64923
794.1175	143.0052	65535	64915.15
794.2591	145.2512	65535	64915.25
794.4008	147.4967	65535	64912.1
794.5425	149.7417	65535	64910.1
794.6842	151.9863	65535	64907.9
794.826	154.2304	65535	64904.5
794.9677	156.4739	65535	64900.2
795.1095	158.717	65535	64899
795.2513	160.9596	65535	64891.75
795.3931	163.2017	65535	64894.2
795.535	165.4433	65535	64892.9
795.6768	167.6844	65535	64885.95
795.8187	169.925	65535	64882.7
795.9606	172.1651	65535	64884.05
796.1025	174.4047	65535	64875.3
796.2445	176.6439	65535	64875
796.3864	178.8825	65535	64876.2
796.5284	181.1206	65535	64867.05
796.6704	183.3582	65535	64865.9
796.8124	185.5954	65535	64863.25
796.9544	187.832	65535	64860.65
797.0965	190.0681	65535	64859.65
797.2386	192.3037	65535	64853.4
797.3806	194.5388	65535	64852
797.5228	196.7734	65535	64847.65
797.6649	199.0075	65535	64849.5
797.807	201.2411	65535	64846.15
797.9492	203.4742	65535	64848.45
798.0914	205.7068	65535	64841.1
798.2336	207.9389	65535	64841.65
798.3758	210.1704	65535	64842.7
798.518	212.4015	65535	64851.7
798.6603	214.632	65535	64860.85
798.8025	216.862	65535	64866.8
798.9448	219.0915	65535	64862.15
799.0871	221.3205	65535	64860.15
799.2294	223.549	65535	64863.9
799.3718	225.777	65535	64863.8
799.5141	228.0044	65535	64855
799.6565	230.2314	65535	64857.5
799.7989	232.4578	65535	64850.15
799.9413	234.6837	65535	64842.4
800.0837	236.909	65535	64839.95
800.2262	239.1339	65535	64819.65
800.3687	241.3582	65535	64832.25
800.5111	243.582	65535	64800.05
800.6536	245.8053	65535	64813.05
800.7961	248.0281	65535	64821.45
800.9387	250.2503	65535	64810.95
801.0812	252.472	65535	64810.25
801.2238	254.6932	65535	64810.3
801.3664	256.9139	65535	64807.5
801.509	259.134	65535	64808.55
801.6516	261.3536	65535	64808.2
801.7942	263.5727	65535	64809.75
801.9369	265.7912	65535	64813.1
802.0795	268.0092	65535	64807.25
802.2222	270.2267	65535	64806.5
802.3649	272.4436	65535	64808.75
802.5076	274.6601	65535	64794.55
802.6504	276.8759	65535	64799.45
802.7931	279.0913	65535	64795.3
802.9359	281.3061	65535	64796.7
803.0787	283.5204	65535	64793.05
803.2215	285.7341	65535	64791.15
803.3643	287.9473	65535	64778.15
803.5071	290.16	65535	64784.35
803.6499	292.3721	65535	64793.45
803.7928	294.5837	65535	64792.75
803.9357	296.7947	65535	64792.2
804.0786	299.0052	65535	64791.1
804.2215	301.2152	65535	64786.9
804.3644	303.4246	65535	64792
804.5074	305.6334	65535	64789.9
804.6503	307.8418	65535	64786.8
804.7933	310.0495	65535	64786.35
804.9363	312.2568	65535	64785.25
805.0793	314.4635	65535	64785.15
805.2223	316.6696	65535	64781.1
805.3653	318.8752	65535	64773.2
805.5084	321.0802	65535	64781.05
805.6514	323.2847	65535	64776.35
805.7945	325.4887	65535	64776.75
805.9376	327.692	65535	64778.35
806.0807	329.8949	65535	64775.85
806.2238	332.0972	65535	64773.8
806.367	334.2989	65535	64770
806.5101	336.5001	65535	64771
806.6533	338.7007	65535	64768.7
806.7965	340.9008	65535	64768.3
806.9397	343.1003	65535	64764.45
807.0829	345.2992	65535	64766.9
807.2261	347.4976	65535	64763.65
807.3693	349.6955	65535	64758.15
807.5126	351.8927	65535	64759.8
807.6559	354.0895	65535	64747.25
807.7991	356.2856	65535	64756.2
807.9424	358.4812	65535	64760.45
808.0857	360.6763	65535	64754.5
808.2291	362.8707	65535	64752.5
808.3724	365.0646	65535	64753.65
808.5158	367.258	65535	64747.85
808.6591	369.4508	65535	64745.9
808.8025	371.643	65535	64744.3
808.9459	373.8346	65535	64742.4
809.0893	376.0257	65535	64740.25
809.2327	378.2162	65535	64739.5
809.3762	380.4062	65535	64738.15
809.5196	382.5956	65535	64742.2
809.6631	384.7844	65535	64744.45
809.8066	386.9726	65535	64746.3
809.9501	389.1603	65535	64746.7
810.0936	391.3474	65535	64707.2
810.2371	393.5339	65535	64748
810.3806	395.7199	65535	64752.35
810.5241	397.9052	65535	64749.7
810.6677	400.09	65535	64746.7
810.8113	402.2743	65535	64747.5
810.9548	404.4579	65535	64747.1
811.0984	406.641	65535	64745.2
811.2421	408.8235	65535	64742.5
811.3857	411.0054	65535	64741.9
811.5293	413.1868	65535	64737.1
811.673	415.3675	65535	64735.5
811.8166	417.5477	65535	64735.7
811.9603	419.7273	65535	64731.5
812.104	421.9064	65535	64723.2
812.2477	424.0848	65535	64727.5
812.3914	426.2627	65535	64729.9
812.5351	428.4399	65535	64728
812.6788	430.6166	65535	64724.65
812.8226	432.7928	65535	64725.7
812.9663	434.9683	65535	64722.2
813.1101	437.1432	65535	64721.45
813.2539	439.3176	65535	64723.4
813.3977	441.4914	65535	64723.85
813.5415	443.6645	65535	64722.25
813.6853	445.8371	65535	64718.1
813.8291	448.0091	65535	64722.6
813.973	450.1806	65535	64722.6
814.1168	452.3514	65535	64719.35
814.2607	454.5216	65535	64707.1
814.4046	456.6913	65535	64717.7
814.5485	458.8603	65535	64716.75
814.6924	461.0288	65535	64717.95
814.8363	463.1967	65535	64720.4
814.9802	465.3639	65535	64717.8
815.1241	467.5306	65535	64719
815.2681	469.6967	65535	64717.15
815.412	471.8622	65535	64717.45
815.556	474.0271	65535	64714.85
815.7	476.1914	65535	64713.5
815.844	478.3551	65535	64714.2
815.988	480.5182	65535	64713.1
816.132	482.6807	65535	64715.25
816.276	484.8426	65535	64713.15
816.4201	487.0039	65535	64714.4
816.5641	489.1647	65535	64714.7
816.7082	491.3248	65535	64712.4
816.8522	493.4843	65535	64709.35
816.9963	495.6432	65535	64709.2
817.1404	497.8015	65535	64706.65
817.2845	499.9592	65535	64709.3
817.4286	502.1163	65535	64709.3
817.5727	504.2728	65535	64704.85
817.7168	506.4287	65535	64708.9
817.861	508.5839	65535	64708.5
818.0051	510.7386	65535	64709.65
818.1493	512.8927	65535	64704.45
818.2935	515.0461	65535	64703.85
818.4377	517.199	65535	64705.45
818.5818	519.3512	65535	64705.85
818.726	521.5029	65535	64696
818.8703	523.6539	65535	64701.2
819.0145	525.8043	65535	64699.95
819.1587	527.9541	65535	64701.9
819.303	530.1033	65535	64701.8
819.4472	532.2519	65535	64699.2
819.5915	534.3999	65535	64698.5
819.7357	536.5472	65535	64701.65
819.88	538.694	65535	64698.25
820.0243	540.8401	65535	64694.75
820.1686	542.9856	65535	64695.65
820.3129	545.1305	65535	64694.75
820.4572	547.2748	65535	64693.95
820.6016	549.4185	65535	64695.95
820.7459	551.5615	65535	64692.85
820.8902	553.704	65535	64690.85
821.0346	555.8458	65535	64696.45
821.1789	557.987	65535	64693.85
821.3233	560.1276	65535	64691.25
821.4677	562.2675	65535	64694.3
821.6121	564.4069	65535	64696.8
821.7565	566.5456	65535	64695.3
821.9009	568.6837	65535	64696.05
822.0453	570.8212	65535	64693.5
822.1897	572.958	65535	64692.35
822.3342	575.0942	65535	64696.05
822.4786	577.2299	65535	64692.85
822.6231	579.3648	65535	64694.5
822.7675	581.4992	65535	64693.9
822.912	583.6329	65535	64694.35
823.0565	585.766	65535	64695.05
823.201	587.8985	65535	64691
823.3454	590.0304	65535	64668.5
823.4899	592.1616	65535	64686.85
823.6345	594.2922	65535	64688.7
823.779	596.4222	65535	64685.15
823.9235	598.5515	65535	64686.25
824.068	600.6802	65535	64688.45
824.2126	602.8083	65535	64687.7
824.3571	604.9358	65535	64688.25
824.5017	607.0626	65535	64686.95
824.6462	609.1888	65535	64684.05
824.7908	611.3144	65535	64683.1
824.9354	613.4393	65535	64689.15
825.08	615.5636	65535	64685.5
825.2246	617.6873	65535	64688.1
825.3692	619.8103	65535	64683.75
825.5138	621.9327	65535	64681.5
825.6584	624.0544	65535	64687.35
825.803	626.1756	65535	64682.2
825.9477	628.2961	65535	64681.1
826.0923	630.4159	65535	64684.35
826.237	632.5351	65535	64682.7
826.3816	634.6537	65535	64681.6
826.5263	636.7716	65535	64679.6
826.6709	638.8889	65535	64678.3
826.8156	641.0056	65535	64680.6
826.9603	643.1216	65535	64679.3
827.105	645.237	65535	64675.2
827.2497	647.3518	65535	64680.45
827.3944	649.4659	65535	64681.1
827.5391	651.5793	65535	64681.55
827.6838	653.6922	65535	64681.95
827.8285	655.8043	65535	64681.7
827.9733	657.9159	65535	64678.75
828.118	660.0268	65535	64678.3
828.2627	662.137	65535	64677
828.4075	664.2466	65535	64678.65
828.5522	666.3556	65535	64677
828.697	668.4639	65535	64673.25
828.8418	670.5716	65535	64679.55
828.9865	672.6786	65535	64677.45
829.1313	674.785	65535	64675.9
829.2761	676.8907	65535	64676.3
829.4209	678.9958	65535	64678.9
829.5657	681.1002	65535	64675.85
829.7105	683.204	65535	64669.8
829.8553	685.3072	65535	64671.6
830.0001	687.4097	65535	64674.45
830.1449	689.5115	65535	64671.6
830.2898	691.6127	65535	64673.8
830.4346	693.7132	65535	64672
830.5794	695.8131	65535	64653.25
830.7243	697.9123	65535	64674.35
830.8691	700.0109	65535	64672.1
831.014	702.1089	65535	64670.35
831.1588	704.2061	65535	64670.7
831.3037	706.3028	65535	64668.8
831.4486	708.3987	65535	64673.05
831.5935	710.4941	65535	64670.25
831.7383	712.5887	65535	64672
831.8832	714.6827	65535	64667.9
832.0281	716.7761	65535	64670.7
832.173	718.8688	65535	64668.1
832.3179	720.9608	65535	64669.35
832.4628	723.0522	65535	64664.7
832.6077	725.1429	65535	64668.6
832.7527	727.233	65535	64668.05
832.8976	729.3224	65535	64666.95
833.0425	731.4112	65535	64667.35
833.1874	733.4993	65535	64665.8
833.3324	735.5867	65535	64669.65
833.4773	737.6735	65535	64665.7
833.6222	739.7596	65535	64666.15
833.7672	741.845	65535	64667.35
833.9122	743.9298	65535	64664.6
834.0571	746.014	65535	64668.35
834.2021	748.0974	65535	64665.85
834.347	750.1802	65535	64665.15
834.492	752.2624	65535	64666.15
834.637	754.3439	65535	64661.7
834.782	756.4247	65535	64656.2
834.9269	758.5048	65535	64665.5
835.0719	760.5843	65535	64663.1
835.2169	762.6631	65535	64665.65
835.3619	764.7413	65535	64668.4
835.5069	766.8188	65535	64661.6
835.6519	768.8956	65535	64664.65
835.7969	770.9718	65535	64664.1
835.9419	773.0473	65535	64667.4
836.0869	775.1221	65535	64664.25
836.232	777.1962	65535	64666.3
836.377	779.2697	65535	64664.15
836.522	781.3426	65535	64645.15
836.667	783.4147	65535	64662.05
836.8121	785.4862	65535	64665
836.9571	787.557	65535	64664.6
837.1021	789.6271	65535	64664.65
837.2472	791.6966	65535	64662.95
837.3922	793.7654	65535	64662.1
837.5373	795.8335	65535	64663.6
837.6823	797.901	65535	64664.6
837.8274	799.9678	65535	64658.35
837.9724	802.0339	65535	64662.6
838.1175	804.0993	65535	64655.05
838.2626	806.1641	65535	64659.8
838.4076	808.2282	65535	64661.95
838.5527	810.2916	65535	64658.8
838.6978	812.3544	65535	64662.4
838.8428	814.4164	65535	64664.3
838.9879	816.4778	65535	64660.5
839.133	818.5385	65535	64660.75
839.2781	820.5986	65535	64660.6
839.4232	822.658	65535	64660.95
839.5682	824.7166	65535	64659.75
839.7133	826.7747	65535	64660.85
839.8584	828.832	65535	64661.2
840.0035	830.8886	65535	64655.25
840.1486	832.9446	65535	64658.3
840.2937	834.9999	65535	64660.3
840.4388	837.0545	65535	64656.3
840.5839	839.1085	65535	64660.65
840.729	841.1618	65535	64656.45
840.8741	843.2143	65535	64661.7
841.0192	845.2662	65535	64660.8
841.1643	847.3175	65535	64659.2
841.3095	849.368	65535	64660.5
841.4546	851.4179	65535	64659.15
841.5997	853.467	65535	64659.35
841.7448	855.5155	65535	64659.45
841.8899	857.5633	65535	64656.25
842.0351	859.6105	65535	64659.35
842.1802	861.6569	65535	64660.2
842.3253	863.7027	65535	64657.7
842.4704	865.7478	65535	64658.65
842.6156	867.7922	65535	64657.15
842.7607	869.8359	65535	64658.65
842.9058	871.8789	65535	64657.5
843.0509	873.9212	65535	64626.2
843.1961	875.9629	65535	64657.5
843.3412	878.0039	65535	64657.6
843.4863	880.0441	65535	64659.1
843.6315	882.0837	65535	64657.15
843.7766	884.1226	65535	64656.6
843.9218	886.1609	65535	64659.6
844.0669	888.1984	65535	64655.7
844.212	890.2352	65535	64659.35
844.3572	892.2714	65535	64654.25
844.5023	894.3069	65535	64655.9
844.6475	896.3416	65535	64655.45
844.7926	898.3757	65535	64655.4
844.9377	900.4091	65535	64655.6
845.0829	902.4418	65535	64650.7
845.228	904.4739	65535	64653.15
845.3732	906.5052	65535	64653.3
845.5183	908.5358	65535	64657
845.6635	910.5658	65535	64653.9
845.8086	912.595	65535	64657.45
845.9538	914.6236	65535	64654.65
846.0989	916.6515	65535	64657.55
846.2441	918.6786	65535	64655.05
846.3892	920.7051	65535	64654.65
846.5344	922.7309	65535	64655
846.6795	924.756	65535	64656.5
846.8246	926.7804	65535	64654.15
846.9698	928.8041	65535	64653.4
847.1149	930.8272	65535	64653.95
847.2601	932.8495	65535	64653.75
847.4052	934.8711	65535	64654.9
847.5504	936.892	65535	64656.2
847.6955	938.9123	65535	64653.2
847.8407	940.9318	65535	64654.8
847.9858	942.9506	65535	64651.2
848.131	944.9688	65535	64654.3
848.2761	946.9862	65535	64653.65
848.4213	949.003	65535	64654.4
848.5664	951.019	65535	64653.1
848.7115	953.0344	65535	64654.5
848.8567	955.0491	65535	64653.95
849.0018	957.063	65535	64654.95
849.147	959.0763	65535	64653.85
849.2921	961.0888	65535	64653.3
849.4373	963.1007	65535	64654.5
849.5824	965.1119	65535	64652.1
849.7275	967.1223	65535	64654.25
849.8727	969.1321	65535	64653.6
850.0178	971.1412	65535	64654.2
850.1629	973.1495	65535	64656
850.3081	975.1572	65535	64619.25
850.4532	977.1641	65535	64653.45
850.5983	979.1704	65535	64651.65
850.7435	981.1759	65535	64649.5
850.8886	983.1808	65535	64652.05
851.0337	985.1849	65535	64642.55
851.1788	987.1884	65535	64650.5
851.324	989.1911	65535	64650.55
851.4691	991.1932	65535	64650.7
851.6142	993.1945	65535	64654.05
851.7593	995.1951	65535	64651.3
851.9045	997.1951	65535	64647.15
852.0496	999.1943	65535	64652.4
852.1947	1001.1928	65535	64653.6
852.3398	1003.1906	65535	64652.05
852.4849	1005.1877	65535	64650.1
852.63	1007.1841	65535	64653.3
852.7751	1009.1798	65535	64652.25
852.9202	1011.1748	65535	64653.55
853.0653	1013.1691	65535	64649.9
853.2104	1015.1627	65535	64650.75
853.3555	1017.1556	65535	64650.3
853.5006	1019.1477	65535	64650.2
853.6457	1021.1392	65535	64654.8
853.7908	1023.1299	65535	64654.15
853.9359	1025.12	65535	64650.45
854.081	1027.1093	65535	64656.4
854.2261	1029.0979	65535	64655
854.3712	1031.0859	65535	64651.3
854.5163	1033.0731	65535	64650.55
854.6613	1035.0596	65535	64653.35
854.8064	1037.0454	65535	64652.65
854.9515	1039.0304	65535	64650.55
855.0965	1041.0148	65535	64652.75
855.2416	1042.9985	65535	64649.2
855.3867	1044.9814	65535	64652.95
855.5317	1046.9636	65535	64647.8
855.6768	1048.9452	65535	64653.4
855.8219	1050.926	65535	64651.25
855.9669	1052.9061	65535	64653.75
856.112	1054.8855	65535	64651.35
856.257	1056.8642	65535	64652.45
856.4021	1058.8421	65535	64647.9
856.5471	1060.8194	65535	64648.75
856.6921	1062.7959	65535	64651.55
856.8372	1064.7717	65535	64651.4
856.9822	1066.7469	65535	64648.15
857.1272	1068.7213	65535	64646.9
857.2723	1070.695	65535	64652.7
857.4173	1072.6679	65535	64650.65
857.5623	1074.6402	65535	64650.85
857.7073	1076.6117	65535	64646.75
857.8523	1078.5826	65535	64652.4
857.9973	1080.5527	65535	64650.35
858.1423	1082.5221	65535	64648.45
858.2873	1084.4908	65535	64651.65
858.4323	1086.4587	65535	64650.7
858.5773	1088.426	65535	64649.95
858.7223	1090.3925	65535	64646.1
858.8673	1092.3584	65535	64651.05
859.0123	1094.3235	65535	64652.35
859.1573	1096.2879	65535	64650.8
859.3022	1098.2515	65535	64649.9
859.4472	1100.2145	65535	64650.8
859.5922	1102.1767	65535	64648.65
859.7371	1104.1382	65535	64649.7
859.8821	1106.099	65535	64648.7
860.027	1108.0591	65535	64650.8
860.172	1110.0185	65535	64649.1
860.3169	1111.9771	65535	64651.5
860.4619	1113.9351	65535	64649.95
860.6068	1115.8923	65535	64649.6
860.7517	1117.8488	65535	64647.8
860.8967	1119.8045	65535	64652.4
861.0416	1121.7596	65535	64647.95
861.1865	1123.7139	65535	64653.35
861.3314	1125.6675	65535	64651.95
861.4763	1127.6204	65535	64650.1
861.6212	1129.5726	65535	64647
861.7661	1131.524	65535	64650.95
861.911	1133.4748	65535	64650.35
862.0559	1135.4248	65535	64649.05
862.2008	1137.3741	65535	64649.55
862.3457	1139.3226	65535	64651.7
862.4905	1141.2705	65535	64650.2
862.6354	1143.2176	65535	64644
862.7803	1145.164	65535	64650.45
862.9251	1147.1097	65535	64650.45
863.07	1149.0546	65535	64650.4
863.2148	1150.9989	65535	64650.3
863.3597	1152.9424	65535	64651.95
863.5045	1154.8852	65535	64649.65
863.6493	1156.8272	65535	64650.15
863.7942	1158.7686	65535	64643.6
863.939	1160.7092	65535	64649.7
864.0838	1162.6491	65535	64646.45
864.2286	1164.5883	65535	64652.65
864.3734	1166.5267	65535	64649.4
864.5182	1168.4644	65535	64650
864.663	1170.4014	65535	64647.05
864.8078	1172.3377	65535	64649.15
864.9526	1174.2732	65535	64648.6
865.0974	1176.2081	65535	64649.7
865.2421	1178.1421	65535	64646.15
865.3869	1180.0755	65535	64650.45
865.5317	1182.0082	65535	64650.2
865.6764	1183.9401	65535	64649.55
865.8212	1185.8713	65535	64651.4
865.9659	1187.8017	65535	64648.6
866.1106	1189.7315	65535	64649.85
866.2554	1191.6605	65535	64623.45
866.4001	1193.5888	65535	64651.3
866.5448	1195.5163	65535	64648.3
866.6895	1197.4432	65535	64650.75
866.8342	1199.3693	65535	64650.6
866.9789	1201.2947	65535	64647.95
867.1236	1203.2193	65535	64650
867.2683	1205.1432	65535	64647.35
867.413	1207.0664	65535	64648.5
867.5576	1208.9889	65535	64646.2
867.7023	1210.9106	65535	64647.05
867.847	1212.8316	65535	64650.25
867.9916	1214.7519	65535	64640.9
868.1363	1216.6715	65535	64649.05
868.2809	1218.5903	65535	64652.45
868.4255	1220.5084	65535	64650.35
868.5701	1222.4257	65535	64647.5
868.7148	1224.3424	65535	64652.25
868.8594	1226.2583	65535	64648.2
869.004	1228.1735	65535	64645.75
869.1486	1230.0879	65535	64649.55
869.2932	1232.0016	65535	64650.25
869.4377	1233.9146	65535	64649.55
869.5823	1235.8269	65535	64650.95
869.7269	1237.7384	65535	64651.75
869.8715	1239.6492	65535	64648.9
870.016	1241.5592	65535	64649.35
870.1606	1243.4686	65535	64647.65
870.3051	1245.3772	65535	64649.55
870.4496	1247.285	65535	64649.1
870.5941	1249.1922	65535	64650.95
870.7387	1251.0986	65535	64648.45
870.8832	1253.0042	65535	64651.25
871.0277	1254.9092	65535	64649.65
871.1722	1256.8134	65535	64652.6
871.3167	1258.7169	65535	64647.25
871.4611	1260.6196	65535	64650.15
871.6056	1262.5216	65535	64648.95
871.7501	1264.4229	65535	64652.2
871.8945	1266.3234	65535	64649.5
872.039	1268.2232	65535	64650.25
872.1834	1270.1223	65535	64650.5
872.3278	1272.0207	65535	64648.05
872.4723	1273.9183	65535	64642.05
872.6167	1275.8151	65535	64651.1
872.7611	1277.7113	65535	64649.95
872.9055	1279.6067	65535	64652.5
873.0499	1281.5014	65535	64647
873.1943	1283.3953	65535	64645.95
873.3386	1285.2885	65535	64650.8
873.483	1287.181	65535	64649.75
873.6274	1289.0727	65535	64650.6
873.7717	1290.9637	65535	64650.95
873.9161	1292.854	65535	64648.45
874.0604	1294.7435	65535	64649.25
874.2047	1296.6323	65535	64650.85
874.349	1298.5204	65535	64645.5
874.4933	1300.4077	65535	64646.35
874.6376	1302.2943	65535	64649.9
874.7819	1304.1802	65535	64650.9
874.9262	1306.0653	65535	64647.35
875.0705	1307.9497	65535	64647.6
875.2147	1309.8333	65535	64653.3
875.359	1311.7162	65535	64649.05
875.5032	1313.5984	65535	64648.35
875.6475	1315.4798	65535	64634.75
875.7917	1317.3605	65535	64633.5
875.9359	1319.2405	65535	64647.1
876.0801	1321.1197	65535	64647.25
876.2243	1322.9982	65535	64644.4
876.3685	1324.876	65535	64650.65
876.5127	1326.753	65535	64650.9
876.6569	1328.6293	65535	64647.55
876.801	1330.5048	65535	64646.8
876.9452	1332.3796	65535	64648.55
877.0893	1334.2537	65535	64624.95
877.2335	1336.127	65535	64647.6
877.3776	1337.9996	65535	64649.65
877.5217	1339.8714	65535	64650.05
877.6658	1341.7426	65535	64606.5
877.8099	1343.6129	65535	64649.05
877.954	1345.4826	65535	64649.5
878.0981	1347.3515	65535	64648.2
878.2422	1349.2196	65535	64648.65
878.3862	1351.087	65535	64649.1
878.5303	1352.9537	65535	64648.45
878.6743	1354.8197	65535	64649.25
878.8184	1356.6849	65535	64649.3
878.9624	1358.5493	65535	64650.2
879.1064	1360.4131	65535	64649.1
879.2504	1362.276	65535	64649.85
879.3944	1364.1383	65535	64649.3
879.5384	1365.9998	65535	64644.85
879.6823	1367.8606	65535	64648.75
879.8263	1369.7206	65535	64648.7
879.9702	1371.5799	65535	64646.9
880.1142	1373.4384	65535	64648.65
880.2581	1375.2962	65535	64649.3
880.402	1377.1533	65535	64649.75
880.5459	1379.0096	65535	64649.4
880.6898	1380.8652	65535	64646
880.8337	1382.7201	65535	64648.55
880.9776	1384.5742	65535	64648.35
881.1215	1386.4275	65535	64647.6
881.2653	1388.2802	65535	64649.7
881.4092	1390.132	65535	64647.1
881.553	1391.9832	65535	64645.95
881.6968	1393.8336	65535	64648.3
881.8406	1395.6832	65535	64648.45
881.9844	1397.5322	65535	64650.5
882.1282	1399.3803	65535	64643.35
882.272	1401.2278	65535	64645.75
882.4158	1403.0745	65535	64650.15
882.5595	1404.9204	65535	64650.95
882.7033	1406.7656	65535	64648.9
882.847	1408.6101	65535	64648.65
882.9908	1410.4538	65535	64647.05
883.1345	1412.2968	65535	64649.3
883.2782	1414.139	65535	64649.35
883.4219	1415.9805	65535	64649.45
883.5656	1417.8213	65535	64641.85
883.7092	1419.6613	65535	64651.95
883.8529	1421.5006	65535	64648.55
883.9965	1423.3391	65535	64649.55
884.1402	1425.1769	65535	64648.35
884.2838	1427.0139	65535	64648.6
884.4274	1428.8502	65535	64649.4
884.571	1430.6858	65535	64648.5
884.7146	1432.5206	65535	64649.45
884.8582	1434.3547	65535	64649.75
885.0018	1436.188	65535	64650.05
885.1453	1438.0206	65535	64647.85
885.2889	1439.8524	65535	64649.2
885.4324	1441.6835	65535	64649.2
885.5759	1443.5139	65535	64644.7
885.7194	1445.3435	65535	64647.25
885.8629	1447.1724	65535	64648.25
886.0064	1449.0005	65535	64650.45
886.1499	1450.8279	65535	64648.9
886.2933	1452.6545	65535	64649.95
886.4368	1454.4804	65535	64648.6
886.5802	1456.3056	65535	64642.3
886.7237	1458.13	65535	64650.15
886.8671	1459.9536	65535	64649.75
887.0105	1461.7766	65535	64649.8
887.1539	1463.5987	65535	64649.1
887.2972	1465.4202	65535	64648.3
887.4406	1467.2409	65535	64649.05
887.584	1469.0608	65535	64648.45
887.7273	1470.88	65535	64650.1
887.8706	1472.6984	65535	64648.05
888.0139	1474.5161	65535	64646.35
888.1572	1476.3331	65535	64650.9
888.3005	1478.1493	65535	64651.35
888.4438	1479.9648	65535	64648.5
888.5871	1481.7795	65535	64647.3
888.7303	1483.5935	65535	64650.2
888.8736	1485.4067	65535	64649.35
889.0168	1487.2192	65535	64650.7
889.16	1489.031	65535	64645.75
889.3032	1490.842	65535	64650.15
889.4464	1492.6522	65535	64652.45
889.5896	1494.4618	65535	64648.6
889.7327	1496.2705	65535	64650.3
889.8759	1498.0785	65535	64648.4
890.019	1499.8858	65535	64648.3
890.1622	1501.6924	65535	64647.9
890.3053	1503.4981	65535	64649.3
890.4484	1505.3032	65535	64649.95
890.5914	1507.1075	65535	64648.5
890.7345	1508.911	65535	64651.2
890.8776	1510.7138	65535	64650.9
891.0206	1512.5159	65535	64647.45
891.1637	1514.3172	65535	64650.6
891.3067	1516.1178	65535	64651.65
891.4497	1517.9176	65535	64647.45
891.5927	1519.7166	65535	64651.1
891.7357	1521.515	65535	64645.45
891.8786	1523.3126	65535	64650.1
892.0216	1525.1094	65535	64650.35
892.1645	1526.9055	65535	64650.6
892.3074	1528.7008	65535	64650.25
892.4503	1530.4954	65535	64646.5
892.5932	1532.2893	65535	64650.9
892.7361	1534.0824	65535	64645.05
892.879	1535.8747	65535	64651.1
893.0218	1537.6663	65535	64649.65
893.1647	1539.4572	65535	64646.5
893.3075	1541.2473	65535	64651.4
893.4503	1543.0367	65535	64651.05
893.5931	1544.8253	65535	64645.45
893.7359	1546.6132	65535	64649.1
893.8787	1548.4003	65535	64640
894.0214	1550.1867	65535	64642.85
894.1642	1551.9723	65535	64647.5
894.3069	1553.7572	65535	64648.5
894.4496	1555.5414	65535	64648.45
894.5923	1557.3247	65535	64649.6
894.735	1559.1074	65535	64652.4
894.8777	1560.8893	65535	64650.5
895.0204	1562.6705	65535	64650.65
895.163	1564.4509	65535	64649.2
895.3056	1566.2305	65535	64649.1
895.4482	1568.0094	65535	64652.1
895.5908	1569.7876	65535	64651.1
895.7334	1571.565	65535	64652.2
895.876	1573.3417	65535	64650.05
896.0186	1575.1176	65535	64652.5
896.1611	1576.8928	65535	64649.65
896.3036	1578.6672	65535	64648.9
896.4461	1580.4409	65535	64650.95
896.5886	1582.2138	65535	64648.5
896.7311	1583.986	65535	64649.35
896.8736	1585.7575	65535	64652.4
897.0161	1587.5282	65535	64653.5
897.1585	1589.2981	65535	64651.85
897.3009	1591.0673	65535	64648.8
897.4433	1592.8358	65535	64653.3
897.5857	1594.6035	65535	64647.8
897.7281	1596.3704	65535	64648.05
897.8705	1598.1366	65535	64652.4
898.0128	1599.9021	65535	64652.2
898.1551	1601.6668	65535	64649.6
898.2975	1603.4308	65535	64650.6
898.4398	1605.194	65535	64646.95
898.5821	1606.9564	65535	64652.1
898.7243	1608.7182	65535	64648.95
898.8666	1610.4791	65535	64653.7
899.0088	1612.2394	65535	64652.8
899.1511	1613.9988	65535	64652.35
899.2933	1615.7576	65535	64650.35
899.4355	1617.5156	65535	64645.8
899.5776	1619.2728	65535	64652.25
899.7198	1621.0293	65535	64651.65
899.862	1622.785	65535	64647.5
900.0041	1624.54	65535	64649.05
900.1462	1626.2942	65535	64651.45
900.2883	1628.0477	65535	64649.05
900.4304	1629.8005	65530.05	64642.7
900.5725	1631.5525	65535	64651.3
900.7145	1633.3037	65532.2	64648.6
900.8566	1635.0542	65528.55	64645.75
900.9986	1636.804	65535	64652.15
901.1406	1638.553	65520.55	64557.75
901.2826	1640.3013	65525.15	64644.4
901.4245	1642.0488	65510.3	64626.75
901.5665	1643.7955	65526.05	64643.6
901.7085	1645.5416	65519	64637.45
901.8504	1647.2868	65491.9	64608.1
901.9923	1649.0313	65526.8	64643.25
902.1342	1650.7751	65520.15	64634.65
902.2761	1652.5181	65506.6	64624.65
902.4179	1654.2604	65509.4	64625.8
902.5598	1656.0019	65510.5	64627.8
902.7016	1657.7427	65499.95	64618
902.8434	1659.4828	65522.25	64638.25
902.9852	1661.222	65483.15	64601.3
903.127	1662.9606	65520.85	64642.05
903.2687	1664.6984	65472.9	64591.15
903.4105	1666.4354	65498.25	64613.4
903.5522	1668.1717	65441.25	64558
903.6939	1669.9072	65392.25	64511.9
903.8356	1671.642	65389.75	64504.55
903.9773	1673.3761	65372.05	64490.05
904.119	1675.1094	65363.1	64478.2
904.2606	1676.8419	65308.45	64427
904.4022	1678.5737	65325.25	64443.85
904.5439	1680.3048	65294.3	64411.35
904.6855	1682.0351	65277.5	64395.9
904.827	1683.7646	65245.15	64360.55
904.9686	1685.4934	65285.95	64404.6
905.1101	1687.2215	65147	64264.1
905.2517	1688.9488	65250.95	64369.65
905.3932	1690.6754	64984.55	64103.4
905.5347	1692.4012	65139.65	64257.55
905.6761	1694.1263	65171.05	64289.5
905.8176	1695.8506	65022.8	64140.25
905.9591	1697.5742	65055.6	64174.2
906.1005	1699.297	65032.7	64150.1
906.2419	1701.0191	65065.05	64184.5
906.3833	1702.7404	64879.45	63998.25
906.5246	1704.461	64784.2	63901.3
906.666	1706.1808	64968.95	64084.65
906.8073	1707.8999	64865.4	63980.2
906.9487	1709.6182	64823.95	63942.7
907.09	1711.3358	64804.05	63919.9
907.2313	1713.0527	64763.05	63881.3
907.3725	1714.7688	64787.6	63899.35
907.5138	1716.4841	64402.9	63519.6
907.655	1718.1987	64540.1	63652.75
907.7962	1719.9126	64438.7	63557.65
907.9374	1721.6257	64569.25	63683.65
908.0786	1723.338	64567.15	63685.5
908.2198	1725.0496	64092.25	63208.9
908.3609	1726.7605	64189.3	63304.8
908.502	1728.4706	64026	63142.45
908.6431	1730.18	64201	63317
908.7842	1731.8886	63985.45	63103.95
908.9253	1733.5964	63857.75	62972.1
909.0664	1735.3036	64154	63270.45
909.2074	1737.0099	63951.4	63068.75
909.3484	1738.7156	63740.55	62859
909.4894	1740.4204	63670.5	62785.55
909.6304	1742.1246	63765.2	62884.6
909.7714	1743.8279	63840	62959.65
909.9123	1745.5306	63769.2	62885.3
910.0532	1747.2325	63111.15	62228.6
910.1941	1748.9336	63167.65	62286.1
910.335	1750.634	63351.15	62467.05
910.4759	1752.3336	63536.35	62654.85
910.6168	1754.0325	63037.25	62154.5
910.7576	1755.7307	63502.85	62619.85
910.8984	1757.4281	62881.8	61999.5
911.0392	1759.1247	63334.6	62444.4
911.18	1760.8206	62655.15	61768.1
911.3208	1762.5158	62723.55	61838.85
911.4615	1764.2102	62869	61986.55
911.6022	1765.9039	62777.7	61896.3
911.7429	1767.5968	62590.4	61709.3
911.8836	1769.289	62487.95	61604.9
912.0243	1770.9804	62636	61755.4
912.1649	1772.6711	62495.4	61613.55
912.3056	1774.361	62379	61494.75
912.4462	1776.0502	62395.4	61515.7
912.5868	1777.7386	61793.7	60909
912.7274	1779.4263	62189.55	61307.4
912.8679	1781.1132	62161.95	61280.4
913.0084	1782.7994	62029.75	61147.5
913.149	1784.4849	62042.5	61162.1
913.2895	1786.1696	61307.25	60419.1
913.4299	1787.8535	61756.7	60876.4
913.5704	1789.5367	61854.65	60972.55
913.7108	1791.2192	61330.3	60448.65
913.8513	1792.9009	61035.55	60125.95
913.9917	1794.5818	61425.1	60540.1
914.132	1796.2621	61023.7	60143.4
914.2724	1797.9415	61039.75	60155.15
914.4128	1799.6202	60984.7	60103.3
914.5531	1801.2982	60993.3	60109.15
914.6934	1802.9755	60496.45	59614.5
914.8337	1804.6519	60381.6	59500.35
914.9739	1806.3277	61032.65	60149.75
915.1142	1808.0027	59988.75	59109.1
915.2544	1809.6769	60351.95	59471.45
915.3946	1811.3504	60380.2	59497.45
915.5348	1813.0231	59575.4	58694.35
915.675	1814.6951	60132.3	59251.45
915.8151	1816.3664	59789.4	58906.55
915.9553	1818.0369	59829.15	58947
916.0954	1819.7067	59595.55	58712.75
916.2355	1821.3757	60010.2	59127.7
916.3755	1823.044	59321.8	58439.2
916.5156	1824.7115	58929.55	58047.1
916.6556	1826.3783	59227.85	58347.75
916.7956	1828.0443	59248.85	58367.15
916.9356	1829.7096	58906.8	58023.15
917.0756	1831.3741	58256.2	57371.9
917.2155	1833.0379	58657.55	57776.25
917.3555	1834.701	58621.8	57740.1
917.4954	1836.3633	58154.95	57271.2
917.6353	1838.0248	58379.8	57495.6
917.7751	1839.6856	58235.95	57353.75
917.915	1841.3457	57722.4	56839.75
918.0548	1843.005	58267.05	57387
918.1946	1844.6636	57946.35	57065.55
918.3344	1846.3214	57236.35	56354.7
918.4742	1847.9785	57430.45	56548.6
918.6139	1849.6349	57349.2	56465.7
918.7537	1851.2904	57746.4	56854.75
918.8934	1852.9453	56977.6	56096.05
919.0331	1854.5994	57260.15	56378.1
919.1727	1856.2528	57244.5	56358.55
919.3124	1857.9054	56714.35	55832.75
919.452	1859.5572	56543.85	55663.25
919.5916	1861.2083	56729.45	55847
919.7312	1862.8587	57251.3	56370.7
919.8708	1864.5084	55899.05	55015.65
920.0103	1866.1572	56472.05	55590
920.1498	1867.8054	55744.45	54864.4
920.2893	1869.4528	56153.1	55271.35
920.4288	1871.0994	55608.95	54727.7
920.5683	1872.7453	55509.65	54625.25
920.7077	1874.3905	55823.45	54935.65
920.8471	1876.0349	55250.65	54370.05
920.9865	1877.6786	55651.85	54768.5
921.1259	1879.3215	55113.35	54231.85
921.2653	1880.9637	55668.7	54785.8
921.4046	1882.6051	55062.05	54179.95
921.5439	1884.2458	54774.6	53893.4
921.6832	1885.8858	54482.5	53598.75
921.8225	1887.525	54699.1	53816.45
921.9617	1889.1634	54565.15	53684.85
922.101	1890.8011	54270.95	53388.05
922.2402	1892.4381	53740.45	52860.3
922.3794	1894.0743	54241.6	53362.45
922.5185	1895.7098	53911.3	53030.6
922.6577	1897.3446	53573.2	52689.35
922.7968	1898.9786	53708.35	52821.4
922.9359	1900.6118	53372.8	52493.15
923.075	1902.2443	53053	52170.05
923.214	1903.8761	53316.4	52436.15
923.3531	1905.5071	52886.3	52004.15
923.4921	1907.1374	52283.15	51401.2
923.6311	1908.7669	52560.1	51678.75
923.77	1910.3957	52812.05	51930.8
923.909	1912.0237	52155.75	51275
924.0479	1913.651	51917.2	51035
924.1868	1915.2776	51758.35	50877.4
924.3257	1916.9034	51703.8	50825
924.4646	1918.5285	51433.65	50554.8
924.6034	1920.1528	51450.35	50569.4
924.7422	1921.7764	51208.2	50327.7
924.881	1923.3992	51080	50199.9
925.0198	1925.0213	50742.65	49862.5
925.1586	1926.6427	50382.3	49502.2
925.2973	1928.2633	50577.55	49619.5
925.436	1929.8832	50302.05	49420.6
925.5747	1931.5023	50115.5	49232.1
925.7134	1933.1207	49807.1	48925.55
925.852	1934.7383	49921.7	49039.1
925.9906	1936.3552	49583.9	48701.7
926.1292	1937.9714	49539.4	48658.55
926.2678	1939.5868	49458.45	48573.05
926.4064	1941.2015	49076.25	48194.3
926.5449	1942.8154	48810.4	47930
926.6834	1944.4286	48724.2	47840.8
926.8219	1946.041	48658.5	47758.9
926.9604	1947.6528	48359.75	47471.2
927.0988	1949.2637	48214.2	47336.05
927.2372	1950.8739	47958	47075.6
927.3756	1952.4834	47959.9	47076.8
927.514	1954.0921	47861.85	46979.5
927.6523	1955.7001	47556.75	46670.25
927.7907	1957.3074	47579.6	46700.4
927.929	1958.9139	47217.6	46335.05
928.0673	1960.5197	47202.3	46318.7
928.2055	1962.1247	46939.8	46059.1
928.3438	1963.729	46715.55	45834
928.482	1965.3325	46602.85	45701.55
928.6202	1966.9353	46481.85	45603.45
928.7584	1968.5374	46246.3	45363.85
928.8965	1970.1387	46069.2	45187
929.0346	1971.7393	45978.65	45095.2
929.1727	1973.3392	45838.05	44957.7
929.3108	1974.9383	45621.05	44742.55
929.4489	1976.5366	45400.55	44518.35
929.5869	1978.1342	45396.9	44514.75
929.7249	1979.7311	45288.8	44408.4
929.8629	1981.3273	45165.55	44283.2
930.0009	1982.9227	44924.45	44042.1
930.1388	1984.5173	44830.3	43948
930.2767	1986.1112	44653.2	43772.45
930.4146	1987.7044	44624.9	43746.05
930.5525	1989.2968	44303.85	43420.05
930.6904	1990.8885	44275.65	43390.2
930.8282	1992.4795	44171.25	43286.6
930.966	1994.0697	44008.75	43127.7
931.1038	1995.6592	43855.35	42973.2
931.2415	1997.2479	43737.1	42855.85
931.3793	1998.8359	43618	42736.55
931.517	2000.4232	43419.45	42538.3
931.6547	2002.0097	43283.65	42405
931.7923	2003.5955	43088.95	42208.55
931.93	2005.1805	43032.65	42149.9
932.0676	2006.7648	42910.25	42028.3
932.2052	2008.3484	42760.85	41879.5
932.3427	2009.9312	42763.95	41880.65
932.4803	2011.5133	42587.3	41708.85
932.6178	2013.0946	42458	41575.3
932.7553	2014.6752	42302	41422.1
932.8928	2016.2551	42209.7	41327.6
933.0302	2017.8342	42007.25	41126.25
933.1676	2019.4126	41877.6	40998.85
933.305	2020.9902	41686.2	40807.95
933.4424	2022.5672	41656.9	40774.5
933.5798	2024.1433	41567.15	40680.95
933.7171	2025.7188	41381.3	40501.85
933.8544	2027.2935	41261.5	40377.75
933.9917	2028.8674	41069.4	40189.2
934.129	2030.4406	40966.15	40086.4
934.2662	2032.0131	40797.1	39916.9
934.4034	2033.5849	40602.55	39712.6
934.5406	2035.1559	40541.75	39661.05
934.6778	2036.7261	40530.75	39652.2
934.8149	2038.2957	40340.35	39461
934.952	2039.8645	40250.65	39369.15
935.0891	2041.4325	40253.5	39369.15
935.2262	2042.9998	40125.45	39246.45
935.3632	2044.5664	39980.3	39097.5
935.5002	2046.1323	39853.7	38974.6
935.6372	2047.6974	39757.65	38877.2
935.7742	2049.2617	39632.85	38752.75
935.9111	2050.8254	39573.8	38689.1
936.048	2052.3883	39476.55	38595.45
936.1849	2053.9504	39366.5	38484.7
936.3218	2055.5118	39178.85	38295.55
936.4586	2057.0725	39040	38155
936.5955	2058.6325	38967.4	38088.3
936.7323	2060.1917	38794.5	37915.05
936.869	2061.7502	38720.35	37837.4
937.0058	2063.3079	38571.5	37691.6
937.1425	2064.8649	38413.3	37528.2
937.2792	2066.4212	38371.15	37490.4
937.4159	2067.9767	38230.9	37350.75
937.5525	2069.5315	38072.15	37190.65
937.6891	2071.0856	37860.35	36980.75
937.8257	2072.6389	37726.8	36845.25
937.9623	2074.1915	37565.45	36686.15
938.0989	2075.7433	37392.55	36509.15
938.2354	2077.2945	37373.65	36494.8
938.3719	2078.8448	37211.4	36331.5
938.5084	2080.3945	37109.25	36229.5
938.6448	2081.9434	37016.15	36136.15
938.7812	2083.4916	36931.6	36050
938.9176	2085.039	36734.55	35852.4
939.054	2086.5857	36703.55	35821
939.1903	2088.1317	36604.95	35723.35
939.3267	2089.677	36533.75	35653.3
939.463	2091.2215	36408.85	35527.6
939.5992	2092.7652	36297.55	35415.35
939.7355	2094.3083	36218.4	35338.15
939.8717	2095.8506	36149.2	35270.6
940.0079	2097.3921	36117.7	35237.55
940.1441	2098.933	35955.55	35076.3
940.2802	2100.4731	35867.6	34986.85
940.4163	2102.0124	35820.85	34921.9
940.5524	2103.5511	35739.65	34861.45
940.6885	2105.089	35624.45	34744.3
940.8245	2106.6261	35505.1	34625.45
940.9606	2108.1626	35427.4	34545.35
941.0965	2109.6983	35381.25	34472
941.2325	2111.2332	35257.95	34377.75
941.3684	2112.7675	35115.3	34233.95
941.5044	2114.301	34975.55	34093.8
941.6403	2115.8337	35012.8	34131.8
941.7761	2117.3657	34933.45	34053.15
941.912	2118.897	34785	33903.8
942.0478	2120.4276	34658.3	33772
942.1835	2121.9575	34518.5	33638.35
942.3193	2123.4866	34522	33628.6
942.455	2125.0149	34353	33468.95
942.5907	2126.5426	34160.15	33279.8
942.7264	2128.0695	34087.75	33201.95
942.8621	2129.5956	34030.5	33152.5
942.9977	2131.1211	34032.7	33146.75
943.1333	2132.6458	33908.35	33028.2
943.2689	2134.1698	33776.7	32895.65
943.4044	2135.693	33657.2	32773.15
943.54	2137.2155	33629.55	32747.65
943.6755	2138.7373	33538.4	32658.15
943.8109	2140.2584	33415.8	32536.05
943.9464	2141.7787	33289.4	32403.2
944.0818	2143.2983	33142.8	32261.9
944.2172	2144.8171	33001.25	32120.2
944.3526	2146.3353	32916.55	32032.55
944.4879	2147.8527	32776.55	31895.6
944.6232	2149.3693	32756.5	31876.05
944.7585	2150.8853	32608.05	31727.9
944.8938	2152.4005	32437.95	31555.55
945.029	2153.9149	32435.3	31555
945.1642	2155.4287	32322	31441.15
945.2994	2156.9417	32265.25	31385.45
945.4346	2158.454	32128	31245.05
945.5697	2159.9655	32029.95	31150.05
945.7048	2161.4764	31998.2	31117.7
945.8399	2162.9865	31880.6	31001.15
945.9749	2164.4958	31780.2	30898.05
946.1099	2166.0045	31636.45	30750.15
946.2449	2167.5124	31632.8	30753.4
946.3799	2169.0195	31515.65	30635.95
946.5148	2170.526	31467.15	30586.45
946.6498	2172.0317	31396.85	30515.5
946.7846	2173.5367	31257.5	30376.3
946.9195	2175.0409	31164.8	30286.35
947.0543	2176.5445	31175.7	30295.85
947.1891	2178.0473	31035.7	30154.35
947.3239	2179.5494	30877.5	29993.4
947.4587	2181.0507	30799.45	29919.55
947.5934	2182.5513	30739.65	29859.8
947.7281	2184.0512	30641.35	29761.45
947.8628	2185.5504	30569.7	29689.7
947.9974	2187.0488	30383.55	29502.8
948.132	2188.5465	30251.55	29371
948.2666	2190.0435	30157.65	29277.2
948.4012	2191.5397	30046.25	29165.75
948.5357	2193.0353	29985.6	29106.9
948.6702	2194.5301	29763.6	28881.05
948.8047	2196.0241	29648.95	28766.65
948.9392	2197.5175	29610	28729.4
949.0736	2199.0101	29533.65	28648.9
949.208	2200.502	29371.4	28492.8
949.3424	2201.9931	29301.1	28420.3
949.4767	2203.4835	29184.7	28303.55
949.611	2204.9733	29045	28160.2
949.7453	2206.4622	29013.55	28134.25
949.8796	2207.9505	28878.2	27993.5
950.0138	2209.438	28732.05	27853.7
950.148	2210.9248	28662.45	27778.95
950.2822	2212.4109	28571.6	27693.5
950.4164	2213.8962	28476.75	27594.45
950.5505	2215.3809	28419.25	27538.2
950.6846	2216.8648	28385.55	27504.75
950.8186	2218.3479	28298.1	27413.35
950.9527	2219.8304	28127.7	27243.95
951.0867	2221.3121	28064.2	27180.5
951.2207	2222.7931	27956.8	27075.8
951.3546	2224.2733	27850.8	26969.55
951.4886	2225.7529	27718.95	26836.75
951.6225	2227.2317	27600.45	26719.5
951.7563	2228.7098	27555.3	26674.6
951.8902	2230.1872	27442.5	26562.4
952.024	2231.6638	27421.85	26539.6
952.1578	2233.1397	27301.85	26413.5
952.2916	2234.6149	27250.8	26370.05
952.4253	2236.0894	27101.3	26219.8
952.559	2237.5632	27051.8	26170.7
952.6927	2239.0362	26895.55	26014.65
952.8263	2240.5085	26780	25898.45
952.9599	2241.9801	26716.75	25836.95
953.0935	2243.4509	26693.15	25812.65
953.2271	2244.921	26561.95	25678.75
953.3606	2246.3904	26504.45	25621.2
953.4941	2247.8591	26376.9	25499.05
953.6276	2249.3271	26303.4	25423.85
953.7611	2250.7943	26217.3	25336.3
953.8945	2252.2608	26138.5	25255.9
954.0279	2253.7266	26073.1	25194.05
954.1612	2255.1917	25981.4	25099.85
954.2946	2256.656	25865.25	24984.3
954.4279	2258.1197	25809.6	24927.95
954.5612	2259.5826	25743.9	24860.6
954.6944	2261.0447	25728.95	24848.95
954.8276	2262.5062	25535.95	24652.55
954.9608	2263.9669	25496.25	24614.7
955.094	2265.4269	25459.45	24579.55
955.2271	2266.8862	25358.1	24478.2
955.3602	2268.3448	25301	24420.8
955.4933	2269.8026	25230.15	24348.8
955.6264	2271.2598	25156.4	24276.15
955.7594	2272.7162	25098.8	24218.8
955.8924	2274.1719	25012.25	24132.9
956.0253	2275.6268	24928.4	24049.05
956.1583	2277.0811	24882.05	24000.35
956.2912	2278.5346	24787.65	23909
956.4241	2279.9874	24726.65	23845.35
956.5569	2281.4395	24668.1	23787.25
956.6897	2282.8908	24558.3	23675.1
956.8225	2284.3414	24500.25	23618.8
956.9553	2285.7914	24428.9	23550.7
957.088	2287.2406	24357.15	23474.3
957.2207	2288.689	24247	23366.45
957.3534	2290.1368	24180.3	23299.7
957.486	2291.5838	24105.15	23224.9
957.6186	2293.0302	24038.9	23155.85
957.7512	2294.4758	23910.75	23030.55
957.8838	2295.9206	23836.55	22951.85
958.0163	2297.3648	23821.75	22943.15
958.1488	2298.8082	23788.3	22905.35
958.2813	2300.251	23712.5	22832.3
958.4137	2301.693	23592.3	22710.45
958.5461	2303.1343	23574.2	22691.2
958.6785	2304.5748	23434.1	22554
958.8108	2306.0147	23380.9	22498.75
958.9432	2307.4538	23313	22431.55
959.0754	2308.8922	23223.45	22346.5
959.2077	2310.3299	23147.5	22266.1
959.3399	2311.7669	23108.95	22230.05
959.4721	2313.2031	23016.25	22134.9
959.6043	2314.6387	22926.55	22045.5
959.7365	2316.0735	22850.95	21971.55
959.8686	2317.5076	22838.95	21959.1
960.0006	2318.941	22718.5	21839.15
960.1327	2320.3737	22685.15	21805.35
960.2647	2321.8056	22580.9	21698.4
960.3967	2323.2369	22505.5	21624.6
960.5287	2324.6674	22413.45	21530.85
960.6606	2326.0972	22350.3	21468.8
960.7925	2327.5263	22266	21385.3
960.9244	2328.9547	22238.85	21357.2
961.0562	2330.3823	22100.45	21220.85
961.1881	2331.8092	22092.7	21209.05
961.3198	2333.2355	21949.6	21069.55
961.4516	2334.661	21978.7	21100.55
961.5833	2336.0858	21936.4	21053.6
961.715	2337.5098	21865.45	20986.1
961.8467	2338.9332	21782.6	20903.75
961.9783	2340.3558	21701.3	20817.75
962.1099	2341.7778	21649.85	20769.45
962.2415	2343.199	21542.9	20658.5
962.373	2344.6195	21493	20612.95
962.5045	2346.0393	21472	20593.15
962.636	2347.4583	21397.8	20514.55
962.7675	2348.8767	21339.9	20457.6
962.8989	2350.2943	21240.9	20359.6
963.0303	2351.7113	21214.25	20331.8
963.1617	2353.1275	21142.3	20261.9
963.293	2354.543	21075.9	20188.85
963.4243	2355.9578	21006.8	20125.7
963.5556	2357.3718	20874.25	19992.7
963.6868	2358.7852	20765.9	19881.1
963.818	2360.1978	20733.45	19851.6
963.9492	2361.6098	20632.65	19749.55
964.0803	2363.021	20604.9	19719.85
964.2114	2364.4315	20526.75	19644.8
964.3425	2365.8413	20516.55	19635
964.4736	2367.2504	20406.5	19528.2
964.6046	2368.6587	20287.65	19404.25
964.7356	2370.0664	20201.25	19322.7
964.8666	2371.4733	20176.4	19296.2
964.9975	2372.8795	20088.35	19208.3
965.1284	2374.285	20023.25	19143.2
965.2593	2375.6899	19933.55	19054.15
965.3901	2377.0939	19847.9	18969.75
965.5209	2378.4973	19785.35	18905.85
965.6517	2379.9	19710.95	18829.1
965.7825	2381.3019	19647.55	18770.2
965.9132	2382.7032	19584.35	18702.5
966.0439	2384.1037	19532.65	18654.35
966.1745	2385.5035	19462.35	18581.2
966.3051	2386.9027	19403	18522.6
966.4357	2388.3011	19349.2	18465.35
966.5663	2389.6987	19303.5	18421.45
966.6968	2391.0957	19205.9	18327
966.8273	2392.492	19146.8	18267.25
966.9578	2393.8876	18998.7	18118.2
967.0882	2395.2824	18967.6	18088.55
967.2186	2396.6765	18907.4	18027.35
967.349	2398.07	18787.2	17909.75
967.4793	2399.4627	18794.15	17911
967.6097	2400.8547	18717.3	17837.1
967.7399	2402.246	18658.75	17772.9
967.8702	2403.6366	18574.85	17694.3
968.0004	2405.0265	18414.05	17533.3
968.1306	2406.4156	18356.65	17471.85
968.2607	2407.8041	18301.95	17419.8
968.3909	2409.1918	18247.95	17365
968.521	2410.5789	18176.65	17297.8
968.651	2411.9652	18114.25	17230.5
968.781	2413.3508	18064.1	17184.7
968.911	2414.7358	17994.5	17112.15
969.041	2416.12	17878.65	16997.95
969.1709	2417.5035	17851.45	16969.45
969.3008	2418.8863	17756.2	16874.4
969.4307	2420.2684	17710.5	16832.05
969.5606	2421.6497	17620.6	16739.35
969.6904	2423.0304	17521.65	16643.3
969.8201	2424.4104	17503.3	16622.75
969.9499	2425.7896	17457.7	16574.6
970.0796	2427.1682	17410.65	16531.75
970.2093	2428.546	17353.2	16471.8
970.3389	2429.9232	17317.35	16436.35
970.4685	2431.2996	17283.8	16403.25
970.5981	2432.6753	17231.35	16351.15
970.7277	2434.0503	17167.25	16287.85
970.8572	2435.4246	17068.15	16187.65
970.9867	2436.7982	16982.1	16099.65
971.1161	2438.1711	16961.4	16082.45
971.2456	2439.5433	16888.15	16007.2
971.375	2440.9148	16819.2	15937.65
971.5043	2442.2856	16731.6	15850.55
971.6336	2443.6557	16702.8	15821.6
971.7629	2445.025	16647.35	15765.25
971.8922	2446.3937	16596.25	15713.35
972.0214	2447.7617	16514.15	15634.5
972.1506	2449.1289	16518.15	15636.55
972.2798	2450.4955	16476.6	15594.2
972.4089	2451.8613	16423.5	15543.2
972.538	2453.2265	16357.65	15478.75
972.6671	2454.5909	16335	15454.6
972.7961	2455.9546	16266.2	15386.7
972.9251	2457.3177	16222.6	15343.65
973.0541	2458.68	16151	15270.65
973.1831	2460.0416	16104.65	15224.85
973.312	2461.4025	16058.55	15175.5
973.4408	2462.7627	16054.3	15161.3
973.5697	2464.1222	15976.85	15097.65
973.6985	2465.4811	15912.5	15031.1
973.8273	2466.8392	15881.2	14999.05
973.956	2468.1966	15833.3	14952.25
974.0847	2469.5533	15816.75	14935.4
974.2134	2470.9093	15752.45	14872.9
974.3421	2472.2645	15698.8	14816.6
974.4707	2473.6191	15654.75	14774.25
974.5993	2474.973	15591.2	14713.75
974.7278	2476.3262	15541.6	14659.5
974.8563	2477.6787	15476.85	14596.35
974.9848	2479.0305	15402.4	14522.4
975.1132	2480.3816	15364.25	14481.95
975.2417	2481.7319	15306.5	14424.45
975.37	2483.0816	15208.05	14324.45
975.4984	2484.4306	15152.2	14271.1
975.6267	2485.7789	15111.3	14230.65
975.755	2487.1264	15046.2	14162.85
975.8833	2488.4733	14982.2	14102.65
976.0115	2489.8195	14933	14045.1
976.1397	2491.165	14877.15	13994.2
976.2678	2492.5097	14851.95	13968.75
976.3959	2493.8538	14753.8	13874.45
976.524	2495.1972	14691.5	13810.25
976.6521	2496.5398	14649.3	13767.3
976.7801	2497.8818	14584.2	13702.35
976.9081	2499.2231	14558.5	13679.75
977.036	2500.5637	14470.6	13587.15
977.164	2501.9035	14465	13584.2
977.2918	2503.2427	14374.75	13490.95
977.4197	2504.5812	14327	13448.3
977.5475	2505.919	14313.1	13430.95
977.6753	2507.256	14269.45	13388.75
977.8031	2508.5924	14215.55	13335.95
977.9308	2509.9281	14142.9	13256.8
978.0585	2511.2631	14096.55	13217.75
978.1861	2512.5974	14089.05	13208.85
978.3137	2513.9309	14016.5	13136.6
978.4413	2515.2638	13975.7	13067.7
978.5689	2516.596	13938.35	13058.35
978.6964	2517.9275	13853.95	12972.7
978.8239	2519.2583	13824.6	12942.25
978.9513	2520.5884	13761.1	12878.65
979.0788	2521.9178	13705.75	12824.55
979.2062	2523.2465	13650.45	12770.6
979.3335	2524.5745	13579.6	12699
979.4608	2525.9018	13572.4	12692.8
979.5881	2527.2284	13560.7	12680.5
979.7154	2528.5543	13489.5	12611.8
979.8426	2529.8796	13436.25	12555.4
979.9698	2531.2041	13419.35	12538.9
980.0969	2532.5279	13412.7	12533.25
980.224	2533.851	13384.2	12502.1
980.3511	2535.1735	13314.2	12434.9
980.4781	2536.4952	13258.7	12377.8
980.6052	2537.8163	13250.8	12369.05
980.7321	2539.1366	13191.15	12311.25
980.8591	2540.4562	13152.55	12268.75
980.986	2541.7752	13128.75	12249.85
981.1129	2543.0935	13097.8	12217.6
981.2397	2544.411	13065.65	12184.8
981.3665	2545.7279	13027.65	12148.4
981.4933	2547.0441	13025.45	12142.1
981.62	2548.3596	12989.4	12106.65
981.7467	2549.6744	12956.5	12075.5
981.8734	2550.9885	12911.85	12023.65
982.0001	2552.3019	12884	12005.6
982.1267	2553.6146	12831.8	11948.9
982.2532	2554.9266	12803.05	11924.7
982.3798	2556.2379	12744.85	11863.05
982.5063	2557.5485	12733.05	11854.25
982.6327	2558.8585	12674.05	11786.65
982.7592	2560.1677	12692.7	11809.15
982.8856	2561.4762	12630.1	11750.9
983.0119	2562.7841	12612.95	11729.25
983.1383	2564.0913	12567.7	11689.6
983.2646	2565.3977	12565.1	11685.55
983.3908	2566.7035	12531.95	11651.8
983.517	2568.0086	12502.75	11621.55
983.6432	2569.313	12478.8	11599.35
983.7694	2570.6167	12424.9	11540.2
983.8955	2571.9197	12377.7	11498.8
984.0216	2573.222	12365.55	11481.05
984.1476	2574.5236	12342.5	11462.15
984.2737	2575.8246	12301.2	11418.35
984.3996	2577.1248	12291.1	11406.8
984.5256	2578.4244	12238.4	11358.35
984.6515	2579.7232	12224.9	11344.75
984.7774	2581.0214	12212.75	11307.9
984.9032	2582.3189	12179	11299.35
985.029	2583.6157	12133.4	11247.2
985.1548	2584.9118	12114.35	11235.05
985.2806	2586.2072	12073.9	11194.05
985.4063	2587.5019	11995.6	11115.85
985.5319	2588.7959	11971.05	11090.6
985.6576	2590.0893	11990.25	11108.1
985.7832	2591.3819	11957.85	11078.35
985.9087	2592.6739	11872.4	10992.35
986.0343	2593.9652	11859.65	10975.95
986.1597	2595.2557	11811.45	10931.3
986.2852	2596.5456	11752.35	10869.3
986.4106	2597.8348	11739.35	10860.2
986.536	2599.1234	11664.45	10784.9
986.6614	2600.4112	11612.35	10732.8
986.7867	2601.6983	11595.6	10712.2
986.912	2602.9848	11557.15	10677.25
987.0372	2604.2705	11498.6	10611.2
987.1624	2605.5556	11495	10614.75
987.2876	2606.84	11440.5	10560.4
987.4128	2608.1237	11362.6	10481.9
987.5379	2609.4067	11320.75	10440.45
987.6629	2610.689	11286.9	10397.55
987.788	2611.9707	11251.6	10368.55
987.913	2613.2516	11249	10365.95
988.0379	2614.5319	11168.2	10289.15
988.1629	2615.8115	11110.05	10228.6
988.2878	2617.0903	11097.15	10215.05
988.4126	2618.3685	11049.2	10168.75
988.5375	2619.6461	11012.9	10132
988.6622	2620.9229	10950.5	10072.95
988.787	2622.199	10936.6	10053.7
988.9117	2623.4745	10923.15	10043.55
989.0364	2624.7493	10866.95	9988.85
989.161	2626.0234	10816.15	9936
989.2857	2627.2968	10771.9	9889.9
989.4102	2628.5695	10741.55	9861.05
989.5348	2629.8415	10681.3	9799.9
989.6593	2631.1128	10638.3	9756.9
989.7837	2632.3835	10577.65	9697.45
989.9082	2633.6535	10538.35	9657.8
990.0326	2634.9228	10519.45	9640.75
990.1569	2636.1914	10496.6	9617.5
990.2812	2637.4593	10485.4	9601.9
990.4055	2638.7265	10426.55	9544
990.5298	2639.9931	10379.9	9499.65
990.654	2641.259	10350.8	9467.85
990.7782	2642.5242	10304.4	9423.65
990.9023	2643.7887	10292	9411.85
991.0264	2645.0525	10273.05	9392.65
991.1505	2646.3156	10215.1	9334.9
991.2745	2647.5781	10194.9	9317.35
991.3985	2648.8398	10139	9260.4
991.5225	2650.1009	10144.95	9229.7
991.6464	2651.3613	10105.05	9224.95
991.7703	2652.6211	10064.45	9183.85
991.8942	2653.8801	10023.4	9143.65
992.018	2655.1385	10003.2	9121.25
992.1418	2656.3961	9940.75	9061.9
992.2655	2657.6531	9948.55	9067.6
992.3892	2658.9094	9920.05	9039.4
992.5129	2660.1651	9903.7	9023.05
992.6366	2661.42	9884.2	9003.3
992.7602	2662.6743	9851.05	8969.75
992.8837	2663.9279	9805	8925.35
993.0073	2665.1808	9783.2	8902.95
993.1307	2666.433	9746.55	8865.45
993.2542	2667.6846	9687.5	8807.45
993.3776	2668.9354	9680.1	8797.4
993.501	2670.1856	9650.25	8769.05
993.6244	2671.4351	9622.45	8742.65
993.7477	2672.6839	9606.9	8724.5
993.8709	2673.9321	9581.85	8701
993.9942	2675.1795	9566.85	8686.95
994.1174	2676.4263	9542	8661.1
994.2405	2677.6724	9491.6	8612.95
994.3637	2678.9179	9467.3	8589.45
994.4868	2680.1626	9407.25	8526.9
994.6098	2681.4067	9399.55	8519.85
994.7328	2682.6501	9371.25	8488.15
994.8558	2683.8928	9328.65	8448.25
994.9788	2685.1348	9299.4	8420.2
995.1017	2686.3761	9274.05	8392.9
995.2245	2687.6168	9254.55	8375
995.3474	2688.8568	9203.3	8324.25
995.4702	2690.0961	9184.05	8303.25
995.5929	2691.3348	9151.05	8272.3
995.7156	2692.5727	9125.7	8248.25
995.8383	2693.81	9097.95	8216.8
995.961	2695.0466	9063.35	8184.3
996.0836	2696.2826	9035.7	8155.4
996.2062	2697.5178	9015.7	8134.2
996.3287	2698.7524	8971.35	8089.1
996.4512	2699.9863	8961.3	8079.5
996.5737	2701.2195	8942.4	8063.65
996.6961	2702.452	8915.15	8033.05
996.8185	2703.6839	8864.4	7985.75
996.9408	2704.9151	8840.55	7961.1
997.0631	2706.1456	8803.65	7922.85
997.1854	2707.3755	8762.2	7880.75
997.3077	2708.6046	8765.8	7882.65
997.4299	2709.8331	8731.95	7852.5
997.552	2711.0609	8687.2	7804.65
997.6742	2712.2881	8672.4	7792.2
997.7963	2713.5145	8663.6	7781.3
997.9183	2714.7403	8647.75	7768.5
998.0403	2715.9654	8602.5	7722
998.1623	2717.1899	8559.85	7680.4
998.2842	2718.4136	8568.65	7689.5
998.4062	2719.6367	8511.65	7633.25
998.528	2720.8591	8515.45	7628
998.6498	2722.0809	8466.95	7586.4
998.7716	2723.3019	8466.45	7584.55
998.8934	2724.5223	8433.7	7553.1
999.0151	2725.7421	8386.75	7504.95
999.1368	2726.9611	8377.65	7496.35
999.2584	2728.1795	8347.45	7463.1
999.38	2729.3972	8306.65	7426.6
999.5016	2730.6142	8277.1	7389.65
999.6231	2731.8306	8219.65	7337.45
999.7446	2733.0462	8195.4	7311.45
999.8661	2734.2612	8154.1	7270.1
999.9875	2735.4756	8101.75	7220
1000.1089	2736.6892	8050.95	7170.65
1000.2302	2737.9022	7995.75	7117.5
1000.3515	2739.1145	7961	7078.9
1000.4728	2740.3262	7954.9	7066.2
1000.594	2741.5372	7901.4	7021
1000.7152	2742.7475	7875.9	6994.8
1000.8363	2743.9571	7857.5	6977.9
1000.9575	2745.1661	7812.75	6927.4
1001.0785	2746.3744	7772.45	6891.9
1001.1996	2747.582	7763.35	6884.05
1001.3206	2748.7889	7740.45	6858.2
1001.4415	2749.9952	7709.75	6828.7
1001.5625	2751.2008	7657.55	6777.8
1001.6833	2752.4057	7657.25	6774.3
1001.8042	2753.61	7610.35	6728.15
1001.925	2754.8136	7615.95	6734.95
1002.0458	2756.0165	7576.4	6696.5
1002.1665	2757.2188	7522.8	6644.05
1002.2872	2758.4204	7505.55	6626.35
1002.4078	2759.6213	7469.85	6586.4
1002.5285	2760.8215	7460.5	6577.1
1002.649	2762.0211	7444.35	6563.9
1002.7696	2763.22	7406.85	6523.65
1002.8901	2764.4182	7361.1	6480.1
1003.0106	2765.6158	7399.65	6519.25
1003.131	2766.8127	7347.9	6465.55
1003.2514	2768.009	7297.75	6419.15
1003.3717	2769.2045	7272.45	6391.8
1003.492	2770.3994	7262.2	6380.35
1003.6123	2771.5936	7251.1	6370.1
1003.7325	2772.7872	7199.1	6319.8
1003.8527	2773.9801	7164.7	6283.75
1003.9729	2775.1723	7152.25	6253.55
1004.093	2776.3639	7108.1	6229.7
1004.2131	2777.5548	7079.25	6197.55
1004.3331	2778.745	7080.2	6198.65
1004.4531	2779.9346	7079.55	6199.85
1004.5731	2781.1235	7066.55	6183.85
1004.693	2782.3117	7021.45	6142.7
1004.8129	2783.4992	7002.35	6123.1
1004.9328	2784.6861	6965.05	6083.25
1005.0526	2785.8723	6968.25	6089.85
1005.1723	2787.0579	6933.95	6051.35
1005.2921	2788.2428	6923.35	6046.25
1005.4118	2789.427	6888.7	6009.3
1005.5314	2790.6106	6871.2	5990.35
1005.651	2791.7935	6845.75	5965.35
1005.7706	2792.9757	6826.45	5948.45
1005.8902	2794.1573	6794.5	5910.8
1006.0097	2795.3382	6778.9	5899.5
1006.1291	2796.5184	6777.7	5899.4
1006.2485	2797.698	6764.85	5884.75
1006.3679	2798.8769	6743.55	5864.55
1006.4873	2800.0551	6716.95	5836.65
1006.6066	2801.2327	6703.05	5820.9
1006.7258	2802.4096	6676.1	5796.55
1006.8451	2803.5859	6667.1	5787.9
1006.9642	2804.7615	6663.95	5781.85
1007.0834	2805.9364	6651.6	5773.1
1007.2025	2807.1106	6641.4	5763.2
1007.3216	2808.2842	6654.7	5771.5
1007.4406	2809.4572	6666.7	5790.9
1007.5596	2810.6294	6676.25	5796.15
1007.6785	2811.801	6685.45	5806.2
1007.7975	2812.972	6694.8	5815.7
1007.9163	2814.1423	6698.35	5819
1008.0352	2815.3119	6715.25	5835.5
1008.154	2816.4808	6734.55	5855.85
1008.2727	2817.6491	6786.95	5906.95
1008.3914	2818.8167	6780.7	5901.45
1008.5101	2819.9837	6811.5	5927.65
1008.6288	2821.15	6812.15	5930.15
1008.7474	2822.3157	6840	5961.3
1008.8659	2823.4807	6876.5	5994.35
1008.9844	2824.645	6931.45	6048.9
1009.1029	2825.8086	6941.45	6061.75
1009.2214	2826.9716	6961.75	6083.45
1009.3398	2828.134	7004.2	6126.4
1009.4581	2829.2957	7029.35	6151.05
1009.5764	2830.4567	7012.8	6134.25
1009.6947	2831.617	7016.35	6136.45
1009.813	2832.7767	7035.2	6157.25
1009.9312	2833.9358	6996.85	6116.35
1010.0493	2835.0941	6961.7	6081.65
1010.1675	2836.2519	6958.8	6080.6
1010.2855	2837.4089	6943.7	6064.05
1010.4036	2838.5653	6911.4	6032.85
1010.5216	2839.7211	6868.05	5990.6
1010.6396	2840.8761	6877.5	5994.35
1010.7575	2842.0306	6861.35	5984.45
1010.8754	2843.1843	6871	5990.2
1010.9932	2844.3374	6886.35	6006.05
1011.111	2845.4899	6900.8	6018.85
1011.2288	2846.6417	6936.25	6058.65
1011.3465	2847.7928	6985.3	6106.45
1011.4642	2848.9433	7025.55	6146.25
1011.5818	2850.0931	7051.55	6172.7
1011.6995	2851.2422	7082.65	6200.55
1011.817	2852.3907	7125.85	6245.45
1011.9345	2853.5385	7176.7	6294.8
1012.052	2854.6857	7174.75	6283.35
1012.1695	2855.8323	7199.55	6319.95
1012.2869	2856.9781	7205.65	6326.3
1012.4042	2858.1233	7232.05	6350.4
1012.5216	2859.2679	7258.5	6379.9
1012.6389	2860.4118	7291.4	6413
1012.7561	2861.555	7298.65	6415.1
1012.8733	2862.6976	7299.5	6419.55
1012.9905	2863.8395	7326.05	6448.25
1013.1076	2864.9808	7337.45	6457.1
1013.2247	2866.1214	7326.25	6449.05
1013.3417	2867.2614	7322.25	6440
1013.4587	2868.4007	7330.15	6449.2
1013.5757	2869.5393	7315.75	6432.4
1013.6926	2870.6773	7322.6	6442.25
1013.8095	2871.8146	7305.8	6423.55
1013.9263	2872.9513	7294.65	6412.45
1014.0431	2874.0874	7242.1	6364.1
1014.1599	2875.2227	7221.75	6341.95
1014.2766	2876.3574	7186.7	6307.1
1014.3933	2877.4915	7133.5	6255.05
1014.51	2878.6249	7107.6	6228.35
1014.6266	2879.7577	7061.65	6181.25
1014.7431	2880.8898	7021.2	6131.55
1014.8596	2882.0212	6982	6102.35
1014.9761	2883.152	6981.85	6102
1015.0925	2884.2821	6926.35	6045.75
1015.2089	2885.4116	6919.35	6041.65
1015.3253	2886.5405	6880.35	6000.3
1015.4416	2887.6686	6888.55	6006.35
1015.5579	2888.7962	6857.15	5979.2
1015.6741	2889.923	6854.65	5976.6
1015.7903	2891.0493	6841.6	5963.6
1015.9065	2892.1748	6834.1	5955.1
1016.0226	2893.2997	6813.7	5935.65
1016.1387	2894.424	6802.45	5925
1016.2547	2895.5476	6815.55	5935.9
1016.3707	2896.6706	6815.45	5936.85
1016.4866	2897.7929	6828.1	5947.45
1016.6025	2898.9145	6820.45	5940.05
1016.7184	2900.0355	6806.1	5926.65
1016.8342	2901.1559	6816.55	5936.55
1016.95	2902.2756	6821.05	5939.95
1017.0658	2903.3946	6819.25	5940.65
1017.1815	2904.513	6835.6	5952.1
1017.2971	2905.6308	6843.45	5965.7
1017.4127	2906.7479	6838.55	5957.7
1017.5283	2907.8643	6852.35	5972.4
1017.6439	2908.9801	6830.35	5950.45
1017.7594	2910.0953	6823	5943.85
1017.8748	2911.2098	6790.4	5908.15
1017.9902	2912.3236	6768.65	5881.9
1018.1056	2913.4368	6774.85	5893.35
1018.2209	2914.5494	6735.35	5855.2
1018.3362	2915.6613	6683.3	5797
1018.4515	2916.7725	6639	5757.05
1018.5667	2917.8831	6632.9	5753.7
1018.6819	2918.9931	6559.15	5675.85
1018.797	2920.1024	6531.6	5650.15
1018.9121	2921.211	6502.3	5621.75
1019.0271	2922.319	6478.35	5599.2
1019.1421	2923.4264	6472.05	5592.4
1019.2571	2924.5331	6439.05	5561.65
1019.372	2925.6391	6399.6	5520.35
1019.4869	2926.7445	6391.45	5511.05
1019.6017	2927.8493	6370.3	5491.35
1019.7165	2928.9534	6354.65	5474.7
1019.8313	2930.0569	6331.75	5448.6
1019.946	2931.1597	6333.2	5452.3
1020.0606	2932.2619	6324.7	5447.15
1020.1753	2933.3634	6329.85	5449.9
1020.2899	2934.4643	6326.9	5437.8
1020.4044	2935.5645	6290.6	5405.85
1020.5189	2936.6641	6250.1	5367.25
1020.6334	2937.763	6210.45	5329
1020.7478	2938.8613	6153.1	5273.35
1020.8622	2939.959	6108.35	5222.2
1020.9765	2941.056	6026.45	5146.75
1021.0908	2942.1523	5954	5073.95
1021.2051	2943.248	5889.05	5008.45
1021.3193	2944.3431	5811.95	4933.4
1021.4334	2945.4375	5711.6	4832.5
1021.5476	2946.5313	5616.15	4737.2
1021.6617	2947.6244	5510.35	4630.1
1021.7757	2948.7169	5420.15	4538.55
1021.8897	2949.8087	5333	4451.95
1022.0037	2950.8999	5235.4	4355.8
1022.1176	2951.9904	5161.15	4281.95
1022.2315	2953.0803	5089.7	4207.45
1022.3453	2954.1696	5021.35	4142.05
1022.4591	2955.2582	4972.85	4095.9
1022.5728	2956.3462	4909.8	4031.2
1022.6865	2957.4335	4862.8	3980.75
1022.8002	2958.5202	4818.25	3937.05
1022.9138	2959.6062	4780.95	3901.2
1023.0274	2960.6916	4759.15	3880.2
1023.141	2961.7764	4722.3	3839.9
1023.2545	2962.8605	4686	3804
1023.3679	2963.9439	4679.3	3800.15
1023.4813	2965.0267	4647.75	3767.4
1023.5947	2966.1089	4647.55	3745.85
1023.708	2967.1905	4613.95	3734.9
1023.8213	2968.2714	4595.4	3715.2
1023.9346	2969.3516	4558.65	3678.4
1024.0478	2970.4312	4574.6	3688.05
1024.1609	2971.5102	4563.4	3683.5
1024.274	2972.5885	4539.75	3658.35
1024.3871	2973.6662	4532.75	3648.6
1024.5002	2974.7432	4509.25	3629.85
1024.6132	2975.8196	4503.3	3623.85
1024.7261	2976.8954	4466.95	3587.7
1024.839	2977.9705	4477.5	3599.85
1024.9519	2979.045	4441.9	3562.8
1025.0647	2980.1188	4421.55	3543.2
1025.1775	2981.192	4381.3	3502.3
1025.2902	2982.2645	4356.7	3475.05
1025.4029	2983.3364	4334	3454.35
1025.5156	2984.4077	4318.7	3439.05
1025.6282	2985.4783	4282.75	3398.15
1025.7407	2986.5483	4226.4	3348.75
1025.8532	2987.6177	4180.65	3301.6
1025.9657	2988.6864	4146.4	3267.65
1026.0782	2989.7545	4132.9	3250.2
1026.1906	2990.8219	4083.6	3205.75
1026.3029	2991.8887	4040.6	3156.75
1026.4152	2992.9548	3994	3114
1026.5275	2994.0204	3967.75	3090.4
1026.6397	2995.0852	3946	3067.65
1026.7519	2996.1495	3914.8	3034.7
1026.864	2997.2131	3868.45	2988.75
1026.9761	2998.276	3849.3	2969.9
1027.0882	2999.3383	3827.25	2948.2
1027.2002	3000.4	3785.9	2905.6
1027.3122	3001.4611	3766.75	2887.1
1027.4241	3002.5215	3751.95	2872.65
1027.536	3003.5812	3719.45	2841.05
1027.6478	3004.6404	3699.95	2821.7
1027.7596	3005.6989	3683.9	2801
1027.8714	3006.7567	3665	2784.25
1027.9831	3007.8139	3667.1	2757.35
1028.0947	3008.8705	3619.05	2738.95
1028.2064	3009.9264	3610.8	2728.5
1028.3179	3010.9818	3603.7	2724.5
1028.4295	3012.0364	3590.9	2712.2
1028.541	3013.0905	3571.7	2692.3
1028.6524	3014.1439	3561.25	2683.45
1028.7638	3015.1966	3539.55	2662.35
1028.8752	3016.2487	3519.25	2638.35
1028.9865	3017.3002	3516.15	2631.7
1029.0978	3018.3511	3504.3	2626.8
1029.209	3019.4013	3500.25	2620.3
1029.3202	3020.4509	3489.15	2610.5
1029.4314	3021.4998	3469.9	2589.85
1029.5425	3022.5481	3468.85	2589.5
1029.6535	3023.5958	3462.8	2584.25
1029.7645	3024.6428	3445.6	2565.8
1029.8755	3025.6892	3428.05	2551.4
1029.9864	3026.735	3427.2	2547.65
1030.0973	3027.7802	3406.5	2528.25
1030.2082	3028.8247	3396.25	2515.55
1030.319	3029.8685	3386.85	2506.7
1030.4297	3030.9118	3366.7	2487.35
1030.5404	3031.9544	3360.8	2483.9
1030.6511	3032.9963	3356.5	2476.45
1030.7617	3034.0376	3345.15	2464.3
1030.8723	3035.0783	3352	2469.4
1030.9829	3036.1184	3335.5	2454.35
1031.0934	3037.1578	3325.25	2446.55
1031.2038	3038.1966	3326.1	2443.7
1031.3142	3039.2348	3325.4	2447.35
1031.4246	3040.2723	3323.65	2433.9
1031.5349	3041.3092	3295.65	2417.2
1031.6452	3042.3455	3293.95	2415.55
1031.7554	3043.3811	3276.15	2395.3
1031.8656	3044.4161	3270.6	2392.05
1031.9758	3045.4505	3260.1	2381.05
1032.0859	3046.4842	3249.9	2370.9
1032.1959	3047.5173	3234.25	2355.55
1032.3059	3048.5498	3223.55	2344.55
1032.4159	3049.5816	3215.05	2335.8
1032.5258	3050.6128	3199.15	2318.25
1032.6357	3051.6434	3195.65	2315.95
1032.7455	3052.6734	3180.95	2299.4
1032.8553	3053.7027	3164.95	2285.1
1032.9651	3054.7314	3159.5	2281.4
1033.0748	3055.7594	3150	2272.25
1033.1845	3056.7868	3128.8	2249.45
1033.2941	3057.8136	3122.3	2245.4
1033.4037	3058.8398	3114.2	2235
1033.5132	3059.8653	3094.6	2216.55
1033.6227	3060.8902	3095.6	2216.55
1033.7321	3061.9145	3078.9	2200.3
1033.8415	3062.9381	3067.95	2187.6
1033.9509	3063.9612	3070.45	2175.25
1034.0602	3064.9835	3053.75	2175.35
1034.1694	3066.0053	3042.35	2160.1
1034.2787	3067.0264	3019.55	2139.6
1034.3878	3068.0469	3022.2	2141.95
1034.497	3069.0668	3001.05	2117.5
1034.6061	3070.086	2988.5	2113.3
1034.7151	3071.1046	2981.8	2100.45
1034.8241	3072.1226	2967.45	2087
1034.9331	3073.1399	2959.2	2079.85
1035.042	3074.1567	2934.85	2054.55
1035.1508	3075.1727	2918.15	2038.15
1035.2597	3076.1882	2903.3	2023.5
1035.3684	3077.203	2902.9	2022.45
1035.4772	3078.2173	2880.15	2000.8
1035.5859	3079.2308	2874.05	1990.35
1035.6945	3080.2438	2868.6	1988
1035.8031	3081.2561	2847.3	1967.65
1035.9117	3082.2678	2833.95	1954.5
1036.0202	3083.2789	2823.5	1945.5
1036.1286	3084.2893	2801	1922.3
1036.2371	3085.2991	2802.7	1924.45
1036.3454	3086.3083	2791.95	1907.7
1036.4538	3087.3169	2779.6	1898.4
1036.562	3088.3248	2764.75	1884.2
1036.6703	3089.3321	2754.35	1872.3
1036.7785	3090.3388	2737.8	1860.3
1036.8866	3091.3449	2724.7	1845.7
1036.9948	3092.3503	2728.6	1845.7
1037.1028	3093.3551	2713.9	1835.8
1037.2108	3094.3593	2690.5	1813.2
1037.3188	3095.3629	2681.8	1804.75
1037.4267	3096.3658	2676.1	1795.8
1037.5346	3097.3681	2670.65	1790.25
1037.6425	3098.3698	2659.7	1782.2
1037.7503	3099.3708	2646.8	1760.85
1037.858	3100.3713	2635.55	1757.8
1037.9657	3101.3711	2626.6	1748.1
1038.0734	3102.3702	2734.55	1719.15
1038.181	3103.3688	2619.8	1737.85
1038.2886	3104.3667	2601.8	1723.4
1038.3961	3105.364	2585.3	1706.6
1038.5036	3106.3607	2568.8	1688.45
1038.611	3107.3568	2570.5	1688.15
1038.7184	3108.3522	2552.8	1676.4
1038.8257	3109.347	2544.1	1664.6
1038.933	3110.3412	2537.95	1655.25
1039.0403	3111.3348	2524.8	1645.8
1039.1475	3112.3277	2511.25	1632.3
1039.2547	3113.32	2494.75	1617.5
1039.3618	3114.3117	2486.8	1606.35
1039.4689	3115.3028	2488.15	1608.15
1039.5759	3116.2932	2483.25	1603
1039.6829	3117.2831	2468.75	1583.85
1039.7898	3118.2723	2456.4	1578.2
1039.8967	3119.2608	2445.5	1565.05
1040.0035	3120.2488	2438.85	1559.35
1040.1103	3121.2361	2430	1550.3
1040.2171	3122.2229	2431.95	1552.6
1040.3238	3123.209	2422.5	1543.2
1040.4305	3124.1944	2403.45	1523.2
1040.5371	3125.1793	2411.25	1531.25
1040.6437	3126.1635	2391.6	1513.15
1040.7502	3127.1471	2379.05	1499.9
1040.8567	3128.1301	2366.05	1487.65
1040.9631	3129.1125	2372.5	1493.4
1041.0695	3130.0942	2360.1	1479.6
1041.1759	3131.0753	2369.5	1482.25
1041.2822	3132.0558	2350.2	1466.85
1041.3884	3133.0357	2341.75	1462
1041.4946	3134.015	2339.6	1460.2
1041.6008	3134.9936	2332.35	1451.5
1041.7069	3135.9716	2348.95	1448.7
1041.813	3136.949	2314.8	1435.9
1041.919	3137.9258	2317	1431.1
1042.025	3138.902	2300.25	1414.3
1042.1309	3139.8775	2290.05	1410.85
1042.2368	3140.8524	2291.25	1413.9
1042.3427	3141.8267	2282.35	1402.5
1042.4485	3142.8004	2278.3	1396.85
1042.5542	3143.7735	2277.4	1391.85
1042.6599	3144.7459	2265	1380.95
1042.7656	3145.7178	2265.5	1387.3
1042.8712	3146.689	2246.3	1366.1
1042.9768	3147.6596	2250.6	1368.1
1043.0823	3148.6295	2239.35	1359.05
1043.1878	3149.5989	2231.7	1350.85
1043.2932	3150.5676	2223.8	1346.1
1043.3986	3151.5357	2211.2	1332.6
1043.5039	3152.5032	2218.65	1339.7
1043.6092	3153.4701	2196.65	1319.5
1043.7145	3154.4364	2187.3	1306.05
1043.8197	3155.402	2189.85	1312.1
1043.9248	3156.367	2175.65	1293.25
1044.03	3157.3315	2201.35	1285.35
1044.135	3158.2952	2168.25	1289.8
1044.24	3159.2584	2162.8	1282.5
1044.345	3160.221	2149.5	1269.8
1044.4499	3161.1829	2136.45	1256.65
1044.5548	3162.1442	2130.05	1249.9
1044.6596	3163.105	2121.1	1242.9
1044.7644	3164.065	2116.6	1236.2
1044.8692	3165.0245	2111.05	1227.9
1044.9739	3165.9834	2100.85	1222.55
1045.0785	3166.9416	2095.85	1217.75
1045.1831	3167.8993	2084.25	1205.6
1045.2877	3168.8563	2079.1	1198.7
1045.3922	3169.8127	2076.1	1196.6
1045.4966	3170.7684	2061.95	1183.35
1045.6011	3171.7236	2066.5	1186.85
1045.7054	3172.6782	2063.4	1184.6
1045.8098	3173.6321	2054.75	1175.15
1045.914	3174.5854	2053.75	1170
1046.0183	3175.5381	2035.6	1155.4
1046.1224	3176.4902	2039.85	1159.15
1046.2266	3177.4417	2021.95	1144.75
1046.3307	3178.3926	2026.05	1148
1046.4347	3179.3428	2007.15	1130
1046.5387	3180.2924	2003.75	1126.55
1046.6427	3181.2415	1997.7	1118.8
1046.7466	3182.1899	1989.65	1110.9
1046.8504	3183.1377	1988.85	1109.55
1046.9542	3184.0848	1994	1111.4
1047.058	3185.0314	1979.8	1101.65
1047.1617	3185.9773	1961.2	1080.2
1047.2654	3186.9227	1966.65	1085.8
1047.369	3187.8674	1960.35	1082.05
1047.4726	3188.8115	1956.1	1072.4
1047.5761	3189.755	1937.7	1060.4
1047.6796	3190.6979	1944.75	1064.9
1047.783	3191.6402	1936.9	1060.1
1047.8864	3192.5818	1928.6	1049.6
1047.9898	3193.5229	1940.8	1045.45
1048.0931	3194.4633	1931.85	1053.6
1048.1963	3195.4031	1922.75	1042.95
1048.2995	3196.3423	1916.95	1037.95
1048.4027	3197.2809	1914.6	1033.75
1048.5058	3198.2189	1901.7	1019.8
1048.6089	3199.1563	1914.8	1014.7
1048.7119	3200.0931	1896.3	1018.85
1048.8148	3201.0292	1880.65	1002.2
1048.9178	3201.9648	1877.15	997.95
1049.0206	3202.8997	1876.75	993.15
1049.1235	3203.834	1863.75	986.45
1049.2262	3204.7677	1866.85	986.65
1049.329	3205.7008	1845.5	965.85
1049.4317	3206.6333	1846.95	970.1
1049.5343	3207.5652	1852.05	970.55
1049.6369	3208.4964	1843.7	963
1049.7394	3209.4271	1843.1	964.35
1049.8419	3210.3571	1824.35	944
1049.9444	3211.2865	1833.45	953.85
1050.0468	3212.2154	1829.5	950.3
1050.1491	3213.1436	1821	940.1
1050.2514	3214.0712	1828.6	944.4
1050.3537	3214.9982	1818.75	940.6
1050.4559	3215.9246	1817.15	938
1050.5581	3216.8503	1799.5	921.55
1050.6602	3217.7755	1800.4	920.6
1050.7623	3218.7001	1786.6	907.35
1050.8643	3219.624	1785.6	907.1
1050.9663	3220.5473	1776.6	895.45
1051.0682	3221.4701	1779.3	898.95
1051.1701	3222.3922	1775.3	893.6
1051.2719	3223.3137	1772.15	892.35
1051.3737	3224.2346	1760.1	879.8
1051.4754	3225.1549	1754.65	878.05
1051.5771	3226.0746	1747.8	868.85
1051.6788	3226.9937	1746.1	865.1
1051.7804	3227.9121	1740.95	861.4
1051.8819	3228.83	1736	855.75
1051.9834	3229.7473	1733.05	853
1052.0849	3230.6639	1729.85	850.4
1052.1863	3231.5799	1729.5	849.85
1052.2876	3232.4954	1717.55	839.85
1052.3889	3233.4102	1709.05	831.85
1052.4902	3234.3244	1709.5	830.55
1052.5914	3235.238	1700.75	822.75
1052.6926	3236.151	1727.25	823.2
1052.7937	3237.0634	1694.85	816.6
1052.8948	3237.9752	1688.2	809.6
1052.9958	3238.8864	1683.3	803.1
1053.0968	3239.797	1685	803.6
1053.1977	3240.7069	1676.35	796.45
1053.2986	3241.6163	1669.6	789.2
1053.3994	3242.5251	1663.1	783.85
1053.5002	3243.4332	1658.85	781.65
1053.6009	3244.3408	1651.25	770.85
1053.7016	3245.2477	1642.8	764.55
1053.8022	3246.154	1651.4	770.4
1053.9028	3247.0598	1650.55	771.9
1054.0034	3247.9649	1629.4	750.2
1054.1039	3248.8694	1632.7	753.55
1054.2043	3249.7733	1632.75	753.1
1054.3047	3250.6766	1624	744.5
1054.4051	3251.5793	1620.4	739.9
1054.5054	3252.4814	1620.3	741.3
1054.6056	3253.3829	1606	727.75
1054.7058	3254.2838	1611.45	730.8
1054.806	3255.1841	1597.05	718.05
1054.9061	3256.0838	1595.7	716.95
1055.0061	3256.9829	1584.85	706.05
1055.1062	3257.8814	1577	694.65
1055.2061	3258.7792	1572.95	690.9
1055.306	3259.6765	1566.65	685.2
1055.4059	3260.5731	1564.1	687.4
1055.5057	3261.4692	1548.15	666.05
1055.6055	3262.3647	1542.2	660.75
1055.7052	3263.2595	1536.5	656.3
1055.8049	3264.1538	1527.95	649.45
1055.9045	3265.0474	1522.95	643.8
1056.0041	3265.9404	1504.9	627.25
1056.1036	3266.8329	1498.6	619.95
1056.2031	3267.7247	1490.8	602.4
1056.3025	3268.616	1476.7	600.25
1056.4019	3269.5066	1461.1	582.85
1056.5013	3270.3966	1445.9	566.7
1056.6005	3271.286	1422.35	544.85
