Software Version:	3.9.2.0
Unit SN:	10000200
Spectrometer SN:	6960
Date:	3/6/2024 10:29:21 AM
Data Line Index:	25
Spectral Points:	2048
Integration time (ms):	125
Averages:	20
Delay (ms):	30
Sequence Number:	1
Processing:	dark subtract
Laser Power (mW):	305
Laser Current (mA):	825
Laser Diode Temp (C):	25.1
Laser Case Temp (C):	26.2
System Temp (C):	25.9
Spectrometer Temp (C):	23.4
CCD Temp (C):	0.002
Secondary Temp (C):	20.004
Heatsink Temp (C):	21.484
CCDPCB Temp (C):	35.918
SecondaryPCB Temp (C):	29.437

Wavelength	RamanShift	Raw Counts	Dark Subtracted
787.061	30.1047	1136.6	725.5
787.2016	32.3739	1158.4	749.55
787.3422	34.6426	1203.65	791.95
787.4828	36.9109	1250.4	837
787.6235	39.1787	1310.3	892.75
787.7642	41.4461	1365.6	942.9
787.9049	43.7131	1435.25	1010.6
788.0456	45.9796	1496.1	1067.4
788.1863	48.2456	1566.45	1133.95
788.3271	50.5112	1633	1196.7
788.4679	52.7764	1700.7	1262.6
788.6087	55.0411	1777.25	1332.35
788.7496	57.3054	1862.9	1412.2
788.8904	59.5692	1961.4	1511.05
789.0313	61.8326	2061.4	1607.6
789.1722	64.0955	2162.7	1705.4
789.3132	66.3579	2280.6	1819.7
789.4541	68.6199	2431.4	1965.4
789.5951	70.8815	2693	2224.05
789.7361	73.1426	3233.65	2760.5
789.8771	75.4032	4596.9	4119.85
790.0181	77.6634	8094.5	7613.6
790.1592	79.9231	17475	16988.95
790.3003	82.1824	56134.9	55634.95
790.4414	84.4412	65535	65015.2
790.5825	86.6995	65535	64987.75
790.7237	88.9574	65535	64962.65
790.8648	91.2148	65535	64942.35
791.006	93.4717	65535	64928.7
791.1472	95.7282	65535	64923.9
791.2885	97.9842	65535	64922.05
791.4297	100.2398	65535	64915.25
791.571	102.4949	65535	64914.85
791.7123	104.7495	65535	64910.15
791.8536	107.0036	65535	64907.65
791.9949	109.2573	65535	64909.75
792.1363	111.5105	65535	64907.95
792.2777	113.7632	65535	64909.9
792.4191	116.0154	65535	64894.75
792.5605	118.2672	65535	64902.3
792.7019	120.5185	65535	64902.6
792.8434	122.7693	65535	64899.15
792.9849	125.0197	65535	64893.35
793.1264	127.2696	65535	64895.05
793.2679	129.519	65535	64888.15
793.4094	131.7679	65535	64887.5
793.551	134.0163	65535	64882.25
793.6926	136.2642	65535	64881.05
793.8342	138.5117	65535	64867.3
793.9758	140.7587	65535	64876.65
794.1175	143.0052	65535	64875.05
794.2591	145.2512	65535	64872.2
794.4008	147.4967	65535	64875.6
794.5425	149.7417	65535	64868.5
794.6842	151.9863	65535	64866.35
794.826	154.2304	65535	64863
794.9677	156.4739	65535	64855.6
795.1095	158.717	65535	64856.85
795.2513	160.9596	65535	64848.9
795.3931	163.2017	65535	64847.55
795.535	165.4433	65535	64848.05
795.6768	167.6844	65535	64842.8
795.8187	169.925	65535	64842.55
795.9606	172.1651	65535	64838.2
796.1025	174.4047	65535	64837.6
796.2445	176.6439	65535	64833.95
796.3864	178.8825	65535	64831.05
796.5284	181.1206	65535	64827.85
796.6704	183.3582	65535	64823.4
796.8124	185.5954	65535	64824.85
796.9544	187.832	65535	64821.35
797.0965	190.0681	65535	64819.5
797.2386	192.3037	65535	64812.15
797.3806	194.5388	65535	64810.8
797.5228	196.7734	65535	64809.7
797.6649	199.0075	65535	64807.95
797.807	201.2411	65535	64807.55
797.9492	203.4742	65535	64805
798.0914	205.7068	65535	64803.85
798.2336	207.9389	65535	64802.65
798.3758	210.1704	65535	64800.7
798.518	212.4015	65535	64801.8
798.6603	214.632	65535	64809.5
798.8025	216.862	65535	64818.9
798.9448	219.0915	65535	64822.1
799.0871	221.3205	65535	64815.85
799.2294	223.549	65535	64822.45
799.3718	225.777	65535	64819.55
799.5141	228.0044	65535	64818.9
799.6565	230.2314	65535	64817.55
799.7989	232.4578	65535	64810.25
799.9413	234.6837	65535	64805.9
800.0837	236.909	65535	64798.3
800.2262	239.1339	65535	64779.7
800.3687	241.3582	65535	64794.8
800.5111	243.582	65535	64761.6
800.6536	245.8053	65535	64773.95
800.7961	248.0281	65535	64780.4
800.9387	250.2503	65535	64773.05
801.0812	252.472	65535	64770.25
801.2238	254.6932	65535	64773.05
801.3664	256.9139	65535	64774.35
801.509	259.134	65535	64767.7
801.6516	261.3536	65535	64771.4
801.7942	263.5727	65535	64766.4
801.9369	265.7912	65535	64767.75
802.0795	268.0092	65535	64765.05
802.2222	270.2267	65535	64766.4
802.3649	272.4436	65535	64766.6
802.5076	274.6601	65535	64755.5
802.6504	276.8759	65535	64760.45
802.7931	279.0913	65535	64759.45
802.9359	281.3061	65535	64756.2
803.0787	283.5204	65535	64755.05
803.2215	285.7341	65535	64749.7
803.3643	287.9473	65535	64740.35
803.5071	290.16	65535	64744.95
803.6499	292.3721	65535	64751.45
803.7928	294.5837	65535	64753.05
803.9357	296.7947	65535	64753.9
804.0786	299.0052	65535	64751.7
804.2215	301.2152	65535	64747.9
804.3644	303.4246	65535	64753.5
804.5074	305.6334	65535	64749.6
804.6503	307.8418	65535	64746.25
804.7933	310.0495	65535	64748.4
804.9363	312.2568	65535	64745.35
805.0793	314.4635	65535	64746.2
805.2223	316.6696	65535	64740.9
805.3653	318.8752	65535	64732.2
805.5084	321.0802	65535	64737.9
805.6514	323.2847	65535	64741.15
805.7945	325.4887	65535	64741.4
805.9376	327.692	65535	64734.8
806.0807	329.8949	65535	64736.3
806.2238	332.0972	65535	64732.55
806.367	334.2989	65535	64734.1
806.5101	336.5001	65535	64733.05
806.6533	338.7007	65535	64734.55
806.7965	340.9008	65535	64725.4
806.9397	343.1003	65535	64726.7
807.0829	345.2992	65535	64727.5
807.2261	347.4976	65535	64723.3
807.3693	349.6955	65535	64719.65
807.5126	351.8927	65535	64719.85
807.6559	354.0895	65535	64711.75
807.7991	356.2856	65535	64720.25
807.9424	358.4812	65535	64721.5
808.0857	360.6763	65535	64718.75
808.2291	362.8707	65535	64714.35
808.3724	365.0646	65535	64716.05
808.5158	367.258	65535	64710.4
808.6591	369.4508	65535	64709.8
808.8025	371.643	65535	64708.95
808.9459	373.8346	65535	64706.35
809.0893	376.0257	65535	64706.85
809.2327	378.2162	65535	64704.6
809.3762	380.4062	65535	64701.2
809.5196	382.5956	65535	64702.9
809.6631	384.7844	65535	64706.7
809.8066	386.9726	65535	64708.05
809.9501	389.1603	65535	64710.45
810.0936	391.3474	65535	64671.8
810.2371	393.5339	65535	64707.9
810.3806	395.7199	65535	64711.6
810.5241	397.9052	65535	64710.65
810.6677	400.09	65535	64714.7
810.8113	402.2743	65535	64713.9
810.9548	404.4579	65535	64711.1
811.0984	406.641	65535	64706.9
811.2421	408.8235	65535	64708.65
811.3857	411.0054	65535	64705.35
811.5293	413.1868	65535	64701.75
811.673	415.3675	65535	64700.55
811.8166	417.5477	65535	64701.35
811.9603	419.7273	65535	64698.3
812.104	421.9064	65535	64692.65
812.2477	424.0848	65535	64692.2
812.3914	426.2627	65535	64696.45
812.5351	428.4399	65535	64696.65
812.6788	430.6166	65535	64691.1
812.8226	432.7928	65535	64689.5
812.9663	434.9683	65535	64689.55
813.1101	437.1432	65535	64686.65
813.2539	439.3176	65535	64689.45
813.3977	441.4914	65535	64688.7
813.5415	443.6645	65535	64687.9
813.6853	445.8371	65535	64688
813.8291	448.0091	65535	64691.3
813.973	450.1806	65535	64689.6
814.1168	452.3514	65535	64686.5
814.2607	454.5216	65535	64677.2
814.4046	456.6913	65535	64684.6
814.5485	458.8603	65535	64684.15
814.6924	461.0288	65535	64685.9
814.8363	463.1967	65535	64687.4
814.9802	465.3639	65535	64688.2
815.1241	467.5306	65535	64678.95
815.2681	469.6967	65535	64681.75
815.412	471.8622	65535	64681.55
815.556	474.0271	65535	64683.05
815.7	476.1914	65535	64682.1
815.844	478.3551	65535	64681.25
815.988	480.5182	65535	64681.85
816.132	482.6807	65535	64683.4
816.276	484.8426	65535	64680.75
816.4201	487.0039	65535	64682.4
816.5641	489.1647	65535	64680.1
816.7082	491.3248	65535	64679
816.8522	493.4843	65535	64680.25
816.9963	495.6432	65535	64681.05
817.1404	497.8015	65535	64673.95
817.2845	499.9592	65535	64677.45
817.4286	502.1163	65535	64675.15
817.5727	504.2728	65535	64677.1
817.7168	506.4287	65535	64674.25
817.861	508.5839	65535	64675.75
818.0051	510.7386	65535	64676.2
818.1493	512.8927	65535	64672
818.2935	515.0461	65535	64672.95
818.4377	517.199	65535	64677.5
818.5818	519.3512	65535	64672.15
818.726	521.5029	65535	64666.8
818.8703	523.6539	65535	64671.8
819.0145	525.8043	65535	64668.8
819.1587	527.9541	65535	64668.3
819.303	530.1033	65535	64671
819.4472	532.2519	65535	64669.25
819.5915	534.3999	65535	64666.9
819.7357	536.5472	65535	64670.85
819.88	538.694	65535	64667.05
820.0243	540.8401	65535	64666.45
820.1686	542.9856	65535	64665.45
820.3129	545.1305	65535	64663.6
820.4572	547.2748	65535	64665.2
820.6016	549.4185	65535	64660.95
820.7459	551.5615	65535	64663
820.8902	553.704	65535	64662.05
821.0346	555.8458	65535	64661.9
821.1789	557.987	65535	64666.55
821.3233	560.1276	65535	64660.45
821.4677	562.2675	65535	64665.6
821.6121	564.4069	65535	64666.3
821.7565	566.5456	65535	64663.25
821.9009	568.6837	65535	64664.45
822.0453	570.8212	65535	64663.55
822.1897	572.958	65535	64660.5
822.3342	575.0942	65535	64662.15
822.4786	577.2299	65535	64661.2
822.6231	579.3648	65535	64665.95
822.7675	581.4992	65535	64665.3
822.912	583.6329	65535	64664.8
823.0565	585.766	65535	64667.05
823.201	587.8985	65535	64661.75
823.3454	590.0304	65535	64639.15
823.4899	592.1616	65535	64658.85
823.6345	594.2922	65535	64657.3
823.779	596.4222	65535	64656.95
823.9235	598.5515	65535	64655.45
824.068	600.6802	65535	64656.55
824.2126	602.8083	65535	64658.65
824.3571	604.9358	65535	64659.05
824.5017	607.0626	65535	64657.2
824.6462	609.1888	65535	64653.3
824.7908	611.3144	65535	64653.25
824.9354	613.4393	65535	64653.8
825.08	615.5636	65535	64655.4
825.2246	617.6873	65535	64656.2
825.3692	619.8103	65535	64649.8
825.5138	621.9327	65535	64653.65
825.6584	624.0544	65535	64656.55
825.803	626.1756	65535	64657.9
825.9477	628.2961	65535	64655.25
826.0923	630.4159	65535	64654.8
826.237	632.5351	65535	64652.05
826.3816	634.6537	65535	64652.75
826.5263	636.7716	65535	64652.65
826.6709	638.8889	65535	64648.75
826.8156	641.0056	65535	64650.9
826.9603	643.1216	65535	64651.2
827.105	645.237	65535	64649.15
827.2497	647.3518	65535	64654.05
827.3944	649.4659	65535	64650.7
827.5391	651.5793	65535	64652.3
827.6838	653.6922	65535	64650.5
827.8285	655.8043	65535	64652.5
827.9733	657.9159	65535	64652.2
828.118	660.0268	65535	64647.5
828.2627	662.137	65535	64650.3
828.4075	664.2466	65535	64650.55
828.5522	666.3556	65535	64647.85
828.697	668.4639	65535	64646.45
828.8418	670.5716	65535	64648.05
828.9865	672.6786	65535	64646.9
829.1313	674.785	65535	64648.85
829.2761	676.8907	65535	64648
829.4209	678.9958	65535	64648.05
829.5657	681.1002	65535	64643.25
829.7105	683.204	65535	64639.05
829.8553	685.3072	65535	64643.4
830.0001	687.4097	65535	64648
830.1449	689.5115	65535	64645.7
830.2898	691.6127	65535	64647.3
830.4346	693.7132	65535	64642.75
830.5794	695.8131	65535	64636.75
830.7243	697.9123	65535	64644.3
830.8691	700.0109	65535	64643.7
831.014	702.1089	65535	64645
831.1588	704.2061	65535	64642.1
831.3037	706.3028	65535	64644.3
831.4486	708.3987	65535	64644.15
831.5935	710.4941	65535	64640.75
831.7383	712.5887	65535	64641.05
831.8832	714.6827	65535	64638.85
832.0281	716.7761	65535	64643.8
832.173	718.8688	65535	64640.55
832.3179	720.9608	65535	64636.15
832.4628	723.0522	65535	64637.95
832.6077	725.1429	65535	64639.65
832.7527	727.233	65535	64642.8
832.8976	729.3224	65535	64639.85
833.0425	731.4112	65535	64640.1
833.1874	733.4993	65535	64638.5
833.3324	735.5867	65535	64639.65
833.4773	737.6735	65535	64639.45
833.6222	739.7596	65535	64638.1
833.7672	741.845	65535	64638.8
833.9122	743.9298	65535	64635.65
834.0571	746.014	65535	64639.75
834.2021	748.0974	65535	64638.05
834.347	750.1802	65535	64641.25
834.492	752.2624	65535	64640.25
834.637	754.3439	65535	64638.6
834.782	756.4247	65535	64630.65
834.9269	758.5048	65535	64636.75
835.0719	760.5843	65535	64639.15
835.2169	762.6631	65535	64635.55
835.3619	764.7413	65535	64640.45
835.5069	766.8188	65535	64637.3
835.6519	768.8956	65535	64636.25
835.7969	770.9718	65535	64638.25
835.9419	773.0473	65535	64639.75
836.0869	775.1221	65535	64640.7
836.232	777.1962	65535	64639.8
836.377	779.2697	65535	64638
836.522	781.3426	65535	64619.05
836.667	783.4147	65535	64636.05
836.8121	785.4862	65535	64642.6
836.9571	787.557	65535	64637.75
837.1021	789.6271	65535	64638.05
837.2472	791.6966	65535	64637.5
837.3922	793.7654	65535	64636.75
837.5373	795.8335	65535	64636.3
837.6823	797.901	65535	64639.05
837.8274	799.9678	65535	64635.55
837.9724	802.0339	65535	64637.8
838.1175	804.0993	65535	64624.05
838.2626	806.1641	65535	64634.95
838.4076	808.2282	65535	64637.35
838.5527	810.2916	65535	64634.8
838.6978	812.3544	65535	64636.3
838.8428	814.4164	65535	64636.7
838.9879	816.4778	65535	64634.65
839.133	818.5385	65535	64635.7
839.2781	820.5986	65535	64636.6
839.4232	822.658	65535	64632.85
839.5682	824.7166	65535	64636.75
839.7133	826.7747	65535	64635.55
839.8584	828.832	65535	64636.45
840.0035	830.8886	65535	64633.9
840.1486	832.9446	65535	64633.35
840.2937	834.9999	65535	64636.75
840.4388	837.0545	65535	64626.95
840.5839	839.1085	65535	64635.6
840.729	841.1618	65535	64631.9
840.8741	843.2143	65535	64635.45
841.0192	845.2662	65535	64634.45
841.1643	847.3175	65535	64635.85
841.3095	849.368	65535	64634.8
841.4546	851.4179	65535	64635.8
841.5997	853.467	65535	64635.55
841.7448	855.5155	65535	64632.8
841.8899	857.5633	65535	64633.95
842.0351	859.6105	65535	64632.25
842.1802	861.6569	65535	64634.5
842.3253	863.7027	65535	64634.5
842.4704	865.7478	65535	64629.5
842.6156	867.7922	65535	64634.75
842.7607	869.8359	65535	64632
842.9058	871.8789	65535	64632.3
843.0509	873.9212	65535	64604.65
843.1961	875.9629	65535	64632.75
843.3412	878.0039	65535	64628.6
843.4863	880.0441	65535	64632.5
843.6315	882.0837	65535	64630.7
843.7766	884.1226	65535	64632.25
843.9218	886.1609	65535	64632.3
844.0669	888.1984	65535	64633.65
844.212	890.2352	65535	64633.5
844.3572	892.2714	65535	64628.75
844.5023	894.3069	65535	64630.8
844.6475	896.3416	65535	64632.25
844.7926	898.3757	65535	64630.5
844.9377	900.4091	65535	64629.35
845.0829	902.4418	65535	64624.25
845.228	904.4739	65535	64630.55
845.3732	906.5052	65535	64631.1
845.5183	908.5358	65535	64631.05
845.6635	910.5658	65535	64629.95
845.8086	912.595	65535	64631.6
845.9538	914.6236	65535	64633.15
846.0989	916.6515	65535	64631.55
846.2441	918.6786	65535	64629.45
846.3892	920.7051	65535	64628.4
846.5344	922.7309	65535	64629.9
846.6795	924.756	65535	64632.05
846.8246	926.7804	65535	64630.95
846.9698	928.8041	65535	64624.45
847.1149	930.8272	65535	64633.15
847.2601	932.8495	65535	64628.9
847.4052	934.8711	65535	64629.75
847.5504	936.892	65535	64630.4
847.6955	938.9123	65535	64629.65
847.8407	940.9318	65535	64632.2
847.9858	942.9506	65535	64628.6
848.131	944.9688	65535	64630.9
848.2761	946.9862	65535	64632.9
848.4213	949.003	65535	64628.6
848.5664	951.019	65535	64632.75
848.7115	953.0344	65535	64630.4
848.8567	955.0491	65535	64629
849.0018	957.063	65535	64630.85
849.147	959.0763	65535	64629.7
849.2921	961.0888	65535	64628
849.4373	963.1007	65535	64632.95
849.5824	965.1119	65535	64632.5
849.7275	967.1223	65535	64630.95
849.8727	969.1321	65535	64630.65
850.0178	971.1412	65535	64631.75
850.1629	973.1495	65535	64630.15
850.3081	975.1572	65535	64600.2
850.4532	977.1641	65535	64629.3
850.5983	979.1704	65535	64628.45
850.7435	981.1759	65535	64624.85
850.8886	983.1808	65535	64629.15
851.0337	985.1849	65535	64620.35
851.1788	987.1884	65535	64627.35
851.324	989.1911	65535	64626.15
851.4691	991.1932	65535	64629.1
851.6142	993.1945	65535	64631.65
851.7593	995.1951	65535	64628.5
851.9045	997.1951	65535	64624.85
852.0496	999.1943	65535	64632.2
852.1947	1001.1928	65535	64627.85
852.3398	1003.1906	65535	64631.3
852.4849	1005.1877	65535	64627.1
852.63	1007.1841	65535	64629.2
852.7751	1009.1798	65535	64630.95
852.9202	1011.1748	65535	64629.65
853.0653	1013.1691	65535	64627.3
853.2104	1015.1627	65535	64626.75
853.3555	1017.1556	65535	64631.1
853.5006	1019.1477	65535	64630
853.6457	1021.1392	65535	64633.25
853.7908	1023.1299	65535	64630.65
853.9359	1025.12	65535	64631.05
854.081	1027.1093	65535	64632.55
854.2261	1029.0979	65535	64635.2
854.3712	1031.0859	65535	64634.25
854.5163	1033.0731	65535	64631.75
854.6613	1035.0596	65535	64630.95
854.8064	1037.0454	65535	64633.6
854.9515	1039.0304	65535	64630.05
855.0965	1041.0148	65535	64631.2
855.2416	1042.9985	65535	64630.55
855.3867	1044.9814	65535	64629.2
855.5317	1046.9636	65535	64628.95
855.6768	1048.9452	65535	64631.85
855.8219	1050.926	65535	64632.65
855.9669	1052.9061	65535	64635.4
856.112	1054.8855	65535	64630
856.257	1056.8642	65535	64629.9
856.4021	1058.8421	65535	64627.4
856.5471	1060.8194	65535	64629.1
856.6921	1062.7959	65535	64629.05
856.8372	1064.7717	65535	64629.35
856.9822	1066.7469	65535	64628.65
857.1272	1068.7213	65535	64628.75
857.2723	1070.695	65535	64632.6
857.4173	1072.6679	65535	64628.9
857.5623	1074.6402	65535	64629.8
857.7073	1076.6117	65535	64626.3
857.8523	1078.5826	65535	64629.9
857.9973	1080.5527	65535	64626.8
858.1423	1082.5221	65535	64631.2
858.2873	1084.4908	65535	64630.25
858.4323	1086.4587	65535	64627.4
858.5773	1088.426	65535	64631.3
858.7223	1090.3925	65535	64624.6
858.8673	1092.3584	65535	64630.55
859.0123	1094.3235	65535	64633
859.1573	1096.2879	65535	64631.15
859.3022	1098.2515	65535	64630.45
859.4472	1100.2145	65535	64630.8
859.5922	1102.1767	65535	64629.75
859.7371	1104.1382	65535	64629.9
859.8821	1106.099	65535	64626.55
860.027	1108.0591	65535	64631.35
860.172	1110.0185	65535	64627
860.3169	1111.9771	65535	64629.55
860.4619	1113.9351	65535	64630.95
860.6068	1115.8923	65535	64632.25
860.7517	1117.8488	65535	64630.6
860.8967	1119.8045	65535	64633.9
861.0416	1121.7596	65535	64629.7
861.1865	1123.7139	65535	64632.85
861.3314	1125.6675	65535	64632.55
861.4763	1127.6204	65535	64630.2
861.6212	1129.5726	65535	64629.15
861.7661	1131.524	65535	64631.4
861.911	1133.4748	65535	64630.4
862.0559	1135.4248	65535	64630.55
862.2008	1137.3741	65535	64631
862.3457	1139.3226	65535	64628.15
862.4905	1141.2705	65535	64630.4
862.6354	1143.2176	65535	64623.4
862.7803	1145.164	65535	64629.15
862.9251	1147.1097	65535	64631.15
863.07	1149.0546	65535	64632.25
863.2148	1150.9989	65535	64630.15
863.3597	1152.9424	65535	64629.4
863.5045	1154.8852	65535	64628.65
863.6493	1156.8272	65535	64633.1
863.7942	1158.7686	65535	64625.3
863.939	1160.7092	65535	64627.35
864.0838	1162.6491	65535	64627.35
864.2286	1164.5883	65535	64631.55
864.3734	1166.5267	65535	64628.7
864.5182	1168.4644	65535	64629.9
864.663	1170.4014	65535	64626
864.8078	1172.3377	65535	64630.4
864.9526	1174.2732	65535	64632.5
865.0974	1176.2081	65535	64632
865.2421	1178.1421	65535	64625.4
865.3869	1180.0755	65535	64631.4
865.5317	1182.0082	65535	64629.75
865.6764	1183.9401	65535	64628.8
865.8212	1185.8713	65535	64632.05
865.9659	1187.8017	65535	64634.2
866.1106	1189.7315	65535	64636.95
866.2554	1191.6605	65535	64607.25
866.4001	1193.5888	65535	64634.6
866.5448	1195.5163	65535	64631.4
866.6895	1197.4432	65535	64629.4
866.8342	1199.3693	65535	64632.2
866.9789	1201.2947	65535	64625.6
867.1236	1203.2193	65535	64630.3
867.2683	1205.1432	65535	64633.45
867.413	1207.0664	65535	64632.7
867.5576	1208.9889	65535	64630.4
867.7023	1210.9106	65535	64630.2
867.847	1212.8316	65535	64632.25
867.9916	1214.7519	65535	64621.75
868.1363	1216.6715	65535	64633
868.2809	1218.5903	65535	64631.55
868.4255	1220.5084	65535	64631.4
868.5701	1222.4257	65535	64630.75
868.7148	1224.3424	65535	64633.75
868.8594	1226.2583	65535	64625.45
869.004	1228.1735	65535	64631.9
869.1486	1230.0879	65535	64630.6
869.2932	1232.0016	65535	64632.55
869.4377	1233.9146	65535	64628.9
869.5823	1235.8269	65535	64632.65
869.7269	1237.7384	65535	64631.4
869.8715	1239.6492	65535	64631.5
870.016	1241.5592	65535	64630.7
870.1606	1243.4686	65535	64630.35
870.3051	1245.3772	65535	64632.45
870.4496	1247.285	65535	64631.85
870.5941	1249.1922	65535	64630.65
870.7387	1251.0986	65535	64632.25
870.8832	1253.0042	65535	64632.15
871.0277	1254.9092	65535	64632.7
871.1722	1256.8134	65535	64634.3
871.3167	1258.7169	65535	64631.45
871.4611	1260.6196	65535	64632.85
871.6056	1262.5216	65535	64629
871.7501	1264.4229	65535	64633.05
871.8945	1266.3234	65535	64632
872.039	1268.2232	65535	64632.15
872.1834	1270.1223	65535	64630.2
872.3278	1272.0207	65535	64630.2
872.4723	1273.9183	65535	64623.85
872.6167	1275.8151	65535	64633.1
872.7611	1277.7113	65535	64631.9
872.9055	1279.6067	65535	64631.8
873.0499	1281.5014	65535	64629.2
873.1943	1283.3953	65535	64630.8
873.3386	1285.2885	65535	64632.85
873.483	1287.181	65535	64631.15
873.6274	1289.0727	65535	64632.9
873.7717	1290.9637	65535	64632.85
873.9161	1292.854	65535	64629.75
874.0604	1294.7435	65535	64631.95
874.2047	1296.6323	65535	64632.35
874.349	1298.5204	65535	64628.75
874.4933	1300.4077	65535	64630.75
874.6376	1302.2943	65535	64634
874.7819	1304.1802	65535	64633.1
874.9262	1306.0653	65535	64631.65
875.0705	1307.9497	65535	64632.2
875.2147	1309.8333	65535	64632.4
875.359	1311.7162	65535	64633.5
875.5032	1313.5984	65535	64627.8
875.6475	1315.4798	65535	64630.75
875.7917	1317.3605	65535	64614.4
875.9359	1319.2405	65535	64629.75
876.0801	1321.1197	65535	64631.35
876.2243	1322.9982	65535	64629.1
876.3685	1324.876	65535	64631.1
876.5127	1326.753	65535	64632.95
876.6569	1328.6293	65535	64628.95
876.801	1330.5048	65535	64629.3
876.9452	1332.3796	65535	64633.15
877.0893	1334.2537	65535	64605.8
877.2335	1336.127	65535	64630.55
877.3776	1337.9996	65535	64631.2
877.5217	1339.8714	65535	64632.6
877.6658	1341.7426	65535	64589.45
877.8099	1343.6129	65535	64631.05
877.954	1345.4826	65535	64631
878.0981	1347.3515	65535	64629.4
878.2422	1349.2196	65535	64632.55
878.3862	1351.087	65535	64632.25
878.5303	1352.9537	65535	64631.3
878.6743	1354.8197	65535	64629.95
878.8184	1356.6849	65535	64633.35
878.9624	1358.5493	65535	64632.85
879.1064	1360.4131	65535	64631.45
879.2504	1362.276	65535	64631.2
879.3944	1364.1383	65535	64632.6
879.5384	1365.9998	65535	64625.55
879.6823	1367.8606	65535	64629.7
879.8263	1369.7206	65535	64633.65
879.9702	1371.5799	65535	64629.9
880.1142	1373.4384	65535	64631.9
880.2581	1375.2962	65535	64629.8
880.402	1377.1533	65535	64633.85
880.5459	1379.0096	65535	64629.65
880.6898	1380.8652	65535	64631.8
880.8337	1382.7201	65535	64633.75
880.9776	1384.5742	65535	64631.95
881.1215	1386.4275	65535	64629.7
881.2653	1388.2802	65535	64632.85
881.4092	1390.132	65535	64629.35
881.553	1391.9832	65535	64629.95
881.6968	1393.8336	65535	64633.75
881.8406	1395.6832	65535	64631.65
881.9844	1397.5322	65535	64631.25
882.1282	1399.3803	65535	64627.35
882.272	1401.2278	65535	64632.5
882.4158	1403.0745	65535	64633.35
882.5595	1404.9204	65535	64633.95
882.7033	1406.7656	65535	64633.05
882.847	1408.6101	65535	64632.85
882.9908	1410.4538	65535	64632.2
883.1345	1412.2968	65535	64632.1
883.2782	1414.139	65535	64631.5
883.4219	1415.9805	65535	64633.15
883.5656	1417.8213	65535	64625.6
883.7092	1419.6613	65535	64633.1
883.8529	1421.5006	65535	64633.6
883.9965	1423.3391	65535	64631.4
884.1402	1425.1769	65535	64630.15
884.2838	1427.0139	65535	64631.25
884.4274	1428.8502	65535	64630.9
884.571	1430.6858	65535	64632.8
884.7146	1432.5206	65535	64633.5
884.8582	1434.3547	65535	64631.6
885.0018	1436.188	65535	64632.35
885.1453	1438.0206	65535	64632.45
885.2889	1439.8524	65535	64632.5
885.4324	1441.6835	65535	64629.25
885.5759	1443.5139	65535	64628.75
885.7194	1445.3435	65535	64632.7
885.8629	1447.1724	65535	64633.05
886.0064	1449.0005	65535	64636.05
886.1499	1450.8279	65535	64631.9
886.2933	1452.6545	65535	64633.7
886.4368	1454.4804	65535	64633.6
886.5802	1456.3056	65535	64627.85
886.7237	1458.13	65535	64630.6
886.8671	1459.9536	65535	64632.8
887.0105	1461.7766	65535	64634.75
887.1539	1463.5987	65535	64633.65
887.2972	1465.4202	65535	64634.2
887.4406	1467.2409	65535	64634.15
887.584	1469.0608	65535	64632.9
887.7273	1470.88	65535	64633.6
887.8706	1472.6984	65535	64634.3
888.0139	1474.5161	65535	64632
888.1572	1476.3331	65535	64634.4
888.3005	1478.1493	65535	64635.3
888.4438	1479.9648	65535	64635.4
888.5871	1481.7795	65535	64631.9
888.7303	1483.5935	65535	64632.8
888.8736	1485.4067	65535	64632.8
889.0168	1487.2192	65535	64633.4
889.16	1489.031	65535	64631.05
889.3032	1490.842	65535	64633.15
889.4464	1492.6522	65535	64634.75
889.5896	1494.4618	65535	64633.4
889.7327	1496.2705	65535	64633.55
889.8759	1498.0785	65535	64632.75
890.019	1499.8858	65535	64635.65
890.1622	1501.6924	65535	64636.3
890.3053	1503.4981	65535	64637.15
890.4484	1505.3032	65535	64634.2
890.5914	1507.1075	65535	64635.25
890.7345	1508.911	65535	64633.9
890.8776	1510.7138	65535	64632.2
891.0206	1512.5159	65535	64634.65
891.1637	1514.3172	65535	64634.7
891.3067	1516.1178	65535	64636.95
891.4497	1517.9176	65535	64633.25
891.5927	1519.7166	65535	64635.4
891.7357	1521.515	65535	64627.9
891.8786	1523.3126	65535	64635.4
892.0216	1525.1094	65535	64631.9
892.1645	1526.9055	65535	64634.5
892.3074	1528.7008	65535	64633.55
892.4503	1530.4954	65535	64632.45
892.5932	1532.2893	65535	64637.15
892.7361	1534.0824	65535	64630.9
892.879	1535.8747	65535	64635.15
893.0218	1537.6663	65535	64636.05
893.1647	1539.4572	65535	64631.95
893.3075	1541.2473	65535	64634.5
893.4503	1543.0367	65535	64635.15
893.5931	1544.8253	65535	64629.85
893.7359	1546.6132	65535	64633.45
893.8787	1548.4003	65535	64628.65
894.0214	1550.1867	65535	64626.35
894.1642	1551.9723	65535	64631.7
894.3069	1553.7572	65535	64633.1
894.4496	1555.5414	65535	64633.15
894.5923	1557.3247	65535	64637.7
894.735	1559.1074	65535	64637.4
894.8777	1560.8893	65535	64637.2
895.0204	1562.6705	65535	64637.65
895.163	1564.4509	65535	64636.95
895.3056	1566.2305	65535	64636.8
895.4482	1568.0094	65535	64637.15
895.5908	1569.7876	65535	64637
895.7334	1571.565	65535	64634.8
895.876	1573.3417	65535	64636.65
896.0186	1575.1176	65535	64635.65
896.1611	1576.8928	65535	64637.65
896.3036	1578.6672	65535	64640.25
896.4461	1580.4409	65535	64639.15
896.5886	1582.2138	65535	64638.35
896.7311	1583.986	65535	64637.65
896.8736	1585.7575	65535	64637.25
897.0161	1587.5282	65535	64640.95
897.1585	1589.2981	65535	64639.3
897.3009	1591.0673	65535	64640.15
897.4433	1592.8358	65535	64638.15
897.5857	1594.6035	65535	64636.7
897.7281	1596.3704	65535	64636.45
897.8705	1598.1366	65535	64637.7
898.0128	1599.9021	65535	64638.3
898.1551	1601.6668	65535	64634.85
898.2975	1603.4308	65535	64636.8
898.4398	1605.194	65535	64635.4
898.5821	1606.9564	65535	64639.25
898.7243	1608.7182	65535	64637.5
898.8666	1610.4791	65535	64639.1
899.0088	1612.2394	65535	64641.9
899.1511	1613.9988	65535	64638.65
899.2933	1615.7576	65535	64639.5
899.4355	1617.5156	65535	64632.75
899.5776	1619.2728	65535	64637.85
899.7198	1621.0293	65535	64639.05
899.862	1622.785	65535	64633.15
900.0041	1624.54	65535	64634.95
900.1462	1626.2942	65535	64638.7
900.2883	1628.0477	65535	64637.8
900.4304	1629.8005	65535	64635.9
900.5725	1631.5525	65535	64640.5
900.7145	1633.3037	65535	64638.45
900.8566	1635.0542	65535	64641.9
900.9986	1636.804	65535	64640.8
901.1406	1638.553	65535	64550.3
901.2826	1640.3013	65535	64637.9
901.4245	1642.0488	65535	64636.35
901.5665	1643.7955	65535	64640.4
901.7085	1645.5416	65535	64641.7
901.8504	1647.2868	65535	64641.55
901.9923	1649.0313	65535	64638.4
902.1342	1650.7751	65535	64637.5
902.2761	1652.5181	65535	64640
902.4179	1654.2604	65535	64639.8
902.5598	1656.0019	65535	64640.9
902.7016	1657.7427	65535	64641.75
902.8434	1659.4828	65535	64642.2
902.9852	1661.222	65535	64639.05
903.127	1662.9606	65535	64639.55
903.2687	1664.6984	65535	64638.9
903.4105	1666.4354	65535	64638.85
903.5522	1668.1717	65535	64636.8
903.6939	1669.9072	65535	64641.15
903.8356	1671.642	65535	64638.85
903.9773	1673.3761	65535	64641.1
904.119	1675.1094	65535	64640.3
904.2606	1676.8419	65534.1	64640.3
904.4022	1678.5737	65535	64638.2
904.5439	1680.3048	65535	64640.45
904.6855	1682.0351	65531.75	64637.35
904.827	1683.7646	65526.05	64627.8
904.9686	1685.4934	65534.6	64639.8
905.1101	1687.2215	65481.55	64585.8
905.2517	1688.9488	65529.7	64634.85
905.3932	1690.6754	65410.65	64516.15
905.5347	1692.4012	65489.9	64596.15
905.6761	1694.1263	65516.05	64622.6
905.8176	1695.8506	65425.65	64533
905.9591	1697.5742	65463.2	64570.3
906.1005	1699.297	65437.9	64544.05
906.2419	1701.0191	65453.4	64558.1
906.3833	1702.7404	65338.6	64446.05
906.5246	1704.461	65289.95	64393.2
906.666	1706.1808	65399.7	64504.25
906.8073	1707.8999	65335.8	64439.9
906.9487	1709.6182	65323.25	64429.25
907.09	1711.3358	65298.75	64407.25
907.2313	1713.0527	65286.45	64394.75
907.3725	1714.7688	65299.15	64399.45
907.5138	1716.4841	65168.95	64273.05
907.655	1718.1987	65226	64326.3
907.7962	1719.9126	65188.9	64298.35
907.9374	1721.6257	65235.75	64340.5
908.0786	1723.338	65234	64339.5
908.2198	1725.0496	65081.85	64186.3
908.3609	1726.7605	65104.75	64211.15
908.502	1728.4706	65052.1	64157.55
908.6431	1730.18	65127.8	64231.7
908.7842	1731.8886	65052.65	64159.8
908.9253	1733.5964	64988.35	64089.4
909.0664	1735.3036	65100.95	64205.85
909.2074	1737.0099	65013	64119.75
909.3484	1738.7156	64924.7	64034.2
909.4894	1740.4204	64928.45	64032.4
909.6304	1742.1246	64961.05	64066.75
909.7714	1743.8279	64965.35	64073.6
909.9123	1745.5306	64932.8	64039.9
910.0532	1747.2325	64673.1	63779.7
910.1941	1748.9336	64687.45	63794.8
910.335	1750.634	64795.55	63900.2
910.4759	1752.3336	64855.5	63963.95
910.6168	1754.0325	64651.95	63762.5
910.7576	1755.7307	64843.55	63951.25
910.8984	1757.4281	64584	63691.55
911.0392	1759.1247	64768.6	63866.8
911.18	1760.8206	64431.15	63532.95
911.3208	1762.5158	64512.35	63615.95
911.4615	1764.2102	64606.55	63713.75
911.6022	1765.9039	64537	63645.95
911.7429	1767.5968	64411.4	63518.55
911.8836	1769.289	64350.6	63459.15
912.0243	1770.9804	64490.75	63597
912.1649	1772.6711	64355.5	63463.3
912.3056	1774.361	64273.55	63378.55
912.4462	1776.0502	64295.3	63401.05
912.5868	1777.7386	63761.7	62864.15
912.7274	1779.4263	64136.9	63244.65
912.8679	1781.1132	64102.35	63210.65
913.0084	1782.7994	64004.55	63111.35
913.149	1784.4849	63992.6	63100.2
913.2895	1786.1696	63331.2	62432.3
913.4299	1787.8535	63794.9	62904.25
913.5704	1789.5367	63884.4	62992.05
913.7108	1791.2192	63406.3	62514.2
913.8513	1792.9009	63083.5	62159.25
913.9917	1794.5818	63482.6	62589.1
914.132	1796.2621	63092.9	62203
914.2724	1797.9415	63163.2	62272.7
914.4128	1799.6202	63169.3	62276.4
914.5531	1801.2982	63142.45	62249.15
914.6934	1802.9755	62614.4	61720.95
914.8337	1804.6519	62450.45	61556.7
914.9739	1806.3277	63205.5	62311.55
915.1142	1808.0027	61999.65	61107.9
915.2544	1809.6769	62456.25	61567.3
915.3946	1811.3504	62605.8	61712.2
915.5348	1813.0231	61692.65	60799.75
915.675	1814.6951	62274.35	61382.7
915.8151	1816.3664	61860.8	60964.7
915.9553	1818.0369	61886.95	60994.25
916.0954	1819.7067	61634.75	60742.3
916.2355	1821.3757	62188.65	61294
916.3755	1823.044	61407	60516.95
916.5156	1824.7115	60924.25	60030
916.6556	1826.3783	61194.85	60304.5
916.7956	1828.0443	61283.75	60393.8
916.9356	1829.7096	60988.4	60094.8
917.0756	1831.3741	60290.55	59394.65
917.2155	1833.0379	60712	59820.95
917.3555	1834.701	60656.1	59763.05
917.4954	1836.3633	60154.45	59261.5
917.6353	1838.0248	60513.3	59620.15
917.7751	1839.6856	60318.75	59425.75
917.915	1841.3457	59800.8	58912.05
918.0548	1843.005	60439	59547.25
918.1946	1844.6636	59995.9	59105.15
918.3344	1846.3214	59192.35	58300.7
918.4742	1847.9785	59419.3	58526.1
918.6139	1849.6349	59321.15	58427.45
918.7537	1851.2904	59912.55	59009.9
918.8934	1852.9453	58947.7	58054.25
919.0331	1854.5994	59333.8	58440.45
919.1727	1856.2528	59286.95	58390.7
919.3124	1857.9054	58733.3	57841.5
919.452	1859.5572	58463.25	57571.95
919.5916	1861.2083	58731.15	57837.25
919.7312	1862.8587	59335.8	58444.8
919.8708	1864.5084	57712.8	56818.45
920.0103	1866.1572	58455.85	57564.2
920.1498	1867.8054	57652.5	56760.8
920.2893	1869.4528	58119.95	57226.35
920.4288	1871.0994	57443.35	56550.4
920.5683	1872.7453	57405.45	56511.5
920.7077	1874.3905	57682.3	56784.6
920.8471	1876.0349	57113.95	56220.6
920.9865	1877.6786	57602.35	56708.15
921.1259	1879.3215	57008.65	56116.75
921.2653	1880.9637	57618.85	56726.3
921.4046	1882.6051	56953.2	56062.55
921.5439	1884.2458	56654.45	55760.7
921.6832	1885.8858	56295.2	55401.7
921.8225	1887.525	56555.05	55663.2
921.9617	1889.1634	56462.7	55570.2
922.101	1890.8011	56112.95	55222.45
922.2402	1892.4381	55461.65	54571.25
922.3794	1894.0743	56122.75	55233.3
922.5185	1895.7098	55658.15	54766.75
922.6577	1897.3446	55324.2	54431.7
922.7968	1898.9786	55514.2	54616.15
922.9359	1900.6118	55126.5	54234.85
923.075	1902.2443	54766.4	53873.3
923.214	1903.8761	55112.65	54222.75
923.3531	1905.5071	54701.25	53807.4
923.4921	1907.1374	53957.9	53064.25
923.6311	1908.7669	54320.85	53430.35
923.77	1910.3957	54580.5	53688.95
923.909	1912.0237	53867.85	52976.3
924.0479	1913.651	53556.95	52664.8
924.1868	1915.2776	53454.1	52563.25
924.3257	1916.9034	53429.1	52540.25
924.4646	1918.5285	53132.85	52241.1
924.6034	1920.1528	53113.7	52221.25
924.7422	1921.7764	52950.7	52060.1
924.881	1923.3992	52815.55	51923.25
925.0198	1925.0213	52461.95	51568.8
925.1586	1926.6427	51983.75	51094.45
925.2973	1928.2633	52152	51182.95
925.436	1929.8832	51961.7	51066.1
925.5747	1931.5023	51766.6	50873.4
925.7134	1933.1207	51439.3	50547.15
925.852	1934.7383	51578.3	50686.8
925.9906	1936.3552	51184	50294.05
926.1292	1937.9714	51154	50261.1
926.2678	1939.5868	51090.85	50199.45
926.4064	1941.2015	50640.5	49751.7
926.5449	1942.8154	50304.55	49413.35
926.6834	1944.4286	50286.2	49395.9
926.8219	1946.041	50172.9	49262.45
926.9604	1947.6528	49851.2	48952.9
927.0988	1949.2637	49702.35	48812.7
927.2372	1950.8739	49472.45	48580.1
927.3756	1952.4834	49494.25	48603.3
927.514	1954.0921	49379.35	48487.4
927.6523	1955.7001	49042.25	48145.95
927.7907	1957.3074	49082.05	48191.25
927.929	1958.9139	48732.45	47842.8
928.0673	1960.5197	48703.35	47810.9
928.2055	1962.1247	48448.05	47557.25
928.3438	1963.729	48225.95	47335.95
928.482	1965.3325	48039.1	47126.6
928.6202	1966.9353	48019.35	47129.9
928.7584	1968.5374	47715.35	46823.35
928.8965	1970.1387	47570.2	46680.9
929.0346	1971.7393	47463.45	46571.4
929.1727	1973.3392	47268.35	46378.7
929.3108	1974.9383	47064.15	46176.35
929.4489	1976.5366	46863.5	45971.9
929.5869	1978.1342	46826.25	45933.45
929.7249	1979.7311	46691.05	45796.7
929.8629	1981.3273	46535.95	45645.85
930.0009	1982.9227	46379.15	45485.45
930.1388	1984.5173	46206.3	45315.4
930.2767	1986.1112	45989	45098.55
930.4146	1987.7044	45950	45061.75
930.5525	1989.2968	45642.3	44751.65
930.6904	1990.8885	45631.2	44737.4
930.8282	1992.4795	45508.8	44617
930.966	1994.0697	45335.7	44444.6
931.1038	1995.6592	45183.85	44294
931.2415	1997.2479	45015.95	44125.15
931.3793	1998.8359	44905.4	44015.8
931.517	2000.4232	44673.4	43785.35
931.6547	2002.0097	44623.6	43734.25
931.7923	2003.5955	44330.2	43441.3
931.93	2005.1805	44350.7	43460.9
932.0676	2006.7648	44214.45	43323.4
932.2052	2008.3484	44027.15	43137.9
932.3427	2009.9312	44055.3	43163.1
932.4803	2011.5133	43874.65	42986.3
932.6178	2013.0946	43697.75	42809.3
932.7553	2014.6752	43533.7	42644.05
932.8928	2016.2551	43413.6	42522.25
933.0302	2017.8342	43230.5	42341.25
933.1676	2019.4126	43108.65	42218.65
933.305	2020.9902	42908.1	42019.6
933.4424	2022.5672	42852.25	41961.15
933.5798	2024.1433	42739.9	41845.15
933.7171	2025.7188	42550.9	41663.7
933.8544	2027.2935	42455.15	41566.35
933.9917	2028.8674	42328.35	41438.1
934.129	2030.4406	42175.1	41289.1
934.2662	2032.0131	41994.95	41106.55
934.4034	2033.5849	41835.3	40939.9
934.5406	2035.1559	41782.5	40894.65
934.6778	2036.7261	41708.7	40818.5
934.8149	2038.2957	41510.15	40620.05
934.952	2039.8645	41484.8	40595.45
935.0891	2041.4325	41527.75	40633.85
935.2262	2042.9998	41304.6	40415.15
935.3632	2044.5664	41226.2	40335.9
935.5002	2046.1323	41048.45	40160.3
935.6372	2047.6974	40869.35	39979.3
935.7742	2049.2617	40784.35	39896.7
935.9111	2050.8254	40752.6	39858.15
936.048	2052.3883	40699.15	39808.05
936.1849	2053.9504	40543.6	39653.9
936.3218	2055.5118	40335.3	39443.35
936.4586	2057.0725	40166.15	39271.5
936.5955	2058.6325	40083.55	39193.85
936.7323	2060.1917	39931.7	39042.7
936.869	2061.7502	39849.5	38958.25
937.0058	2063.3079	39663.05	38774.95
937.1425	2064.8649	39547.65	38654.75
937.2792	2066.4212	39506.65	38616.65
937.4159	2067.9767	39326.7	38437.7
937.5525	2069.5315	39187.2	38298.35
937.6891	2071.0856	38970	38081.5
937.8257	2072.6389	38880.4	37990.2
937.9623	2074.1915	38659.7	37771.8
938.0989	2075.7433	38508.3	37617.65
938.2354	2077.2945	38389.2	37500.4
938.3719	2078.8448	38323.9	37433.6
938.5084	2080.3945	38140.2	37251.45
938.6448	2081.9434	38139.4	37249.65
938.7812	2083.4916	38008.5	37119.6
938.9176	2085.039	37866.05	36973.8
939.054	2086.5857	37795.9	36906.85
939.1903	2088.1317	37682.75	36794
939.3267	2089.677	37594.15	36703.95
939.463	2091.2215	37414	36522.9
939.5992	2092.7652	37318.15	36426.55
939.7355	2094.3083	37265.45	36374.95
939.8717	2095.8506	37170.2	36280.2
940.0079	2097.3921	37145.8	36257.3
940.1441	2098.933	36962.35	36074.25
940.2802	2100.4731	36852.6	35962.25
940.4163	2102.0124	36835.9	35939.1
940.5524	2103.5511	36700.6	35810.15
940.6885	2105.089	36622.35	35733.9
940.8245	2106.6261	36586.75	35697.95
940.9606	2108.1626	36450.15	35561.5
941.0965	2109.6983	36350.85	35431.45
941.2325	2111.2332	36254.2	35362.55
941.3684	2112.7675	36147.4	35255.95
941.5044	2114.301	36002	35110.55
941.6403	2115.8337	35957.7	35067.75
941.7761	2117.3657	35851.65	34960.35
941.912	2118.897	35818.2	34927.05
942.0478	2120.4276	35633.5	34737.6
942.1835	2121.9575	35445	34554.35
942.3193	2123.4866	35460.75	34556.25
942.455	2125.0149	35371.85	34479.45
942.5907	2126.5426	35144.25	34254.45
942.7264	2128.0695	35047.05	34153.55
942.8621	2129.5956	35040.45	34153.35
942.9977	2131.1211	34924.25	34031.75
943.1333	2132.6458	34838.05	33948.05
943.2689	2134.1698	34739.2	33848.8
943.4044	2135.693	34652.45	33760.2
943.54	2137.2155	34554.45	33662.25
943.6755	2138.7373	34467.8	33578
943.8109	2140.2584	34291.1	33401.75
943.9464	2141.7787	34186.1	33290.8
944.0818	2143.2983	34046.95	33157.85
944.2172	2144.8171	33833.4	32945.95
944.3526	2146.3353	33750	32858.7
944.4879	2147.8527	33647.1	32758.15
944.6232	2149.3693	33627.85	32737.5
944.7585	2150.8853	33483.2	32591.4
944.8938	2152.4005	33337.2	32446.9
945.029	2153.9149	33294.25	32403.15
945.1642	2155.4287	33171.55	32282.6
945.2994	2156.9417	33089.15	32200.9
945.4346	2158.454	33009.35	32116.95
945.5697	2159.9655	32894.9	32006.35
945.7048	2161.4764	32892.65	32003.35
945.8399	2162.9865	32759.85	31869.3
945.9749	2164.4958	32631.95	31739.85
946.1099	2166.0045	32514.45	31620.25
946.2449	2167.5124	32465.35	31576.4
946.3799	2169.0195	32341.1	31450.15
946.5148	2170.526	32374.75	31484.15
946.6498	2172.0317	32228.3	31337.6
946.7846	2173.5367	32116.65	31225.55
946.9195	2175.0409	32042.3	31152.45
947.0543	2176.5445	32010	31120.75
947.1891	2178.0473	31871.75	30981.9
947.3239	2179.5494	31685.3	30792.25
947.4587	2181.0507	31593.1	30700.7
947.5934	2182.5513	31493.25	30601.25
947.7281	2184.0512	31461.2	30573.75
947.8628	2185.5504	31306.3	30416.75
947.9974	2187.0488	31154.4	30266.35
948.132	2188.5465	31060.85	30171.55
948.2666	2190.0435	30953.85	30065.9
948.4012	2191.5397	30819.65	29930.65
948.5357	2193.0353	30724.8	29836.95
948.6702	2194.5301	30581.7	29689.9
948.8047	2196.0241	30475.2	29583.05
948.9392	2197.5175	30392.3	29503.5
949.0736	2199.0101	30285.45	29390.3
949.208	2200.502	30107.8	29219
949.3424	2201.9931	29985.85	29097.7
949.4767	2203.4835	29882	28991.2
949.611	2204.9733	29864.7	28970.1
949.7453	2206.4622	29768.7	28878.75
949.8796	2207.9505	29655.85	28764.1
950.0138	2209.438	29501.05	28612.2
950.148	2210.9248	29408	28518.15
950.2822	2212.4109	29328.85	28439.4
950.4164	2213.8962	29221.65	28330.55
950.5505	2215.3809	29129.9	28238.5
950.6846	2216.8648	29079.4	28189.65
950.8186	2218.3479	29001.45	28107.3
950.9527	2219.8304	28877.1	27985.9
951.0867	2221.3121	28709.5	27815.45
951.2207	2222.7931	28647.2	27759.05
951.3546	2224.2733	28597.15	27706.3
951.4886	2225.7529	28420.05	27530.1
951.6225	2227.2317	28324.4	27432
951.7563	2228.7098	28258.75	27369.55
951.8902	2230.1872	28148.8	27259.15
952.024	2231.6638	28098.45	27210.5
952.1578	2233.1397	27971.3	27075.45
952.2916	2234.6149	27975	27085.25
952.4253	2236.0894	27818.85	26929.15
952.559	2237.5632	27759.3	26868
952.6927	2239.0362	27607	26718.9
952.8263	2240.5085	27535.45	26648.55
952.9599	2241.9801	27432.25	26543.65
953.0935	2243.4509	27403.15	26513.05
953.2271	2244.921	27258.7	26368.95
953.3606	2246.3904	27144.55	26251.85
953.4941	2247.8591	27037.45	26147.35
953.6276	2249.3271	26933.65	26043.6
953.7611	2250.7943	26830.05	25938.5
953.8945	2252.2608	26761.55	25872.05
954.0279	2253.7266	26709.55	25820.45
954.1612	2255.1917	26612.9	25721.2
954.2946	2256.656	26527.9	25637.95
954.4279	2258.1197	26458.85	25570.55
954.5612	2259.5826	26390.5	25498.5
954.6944	2261.0447	26355.15	25465
954.8276	2262.5062	26191.8	25298.4
954.9608	2263.9669	26171.35	25280.35
955.094	2265.4269	26065.1	25176.1
955.2271	2266.8862	25938.6	25049.5
955.3602	2268.3448	25928.8	25040.25
955.4933	2269.8026	25827.5	24938.35
955.6264	2271.2598	25754.35	24865.35
955.7594	2272.7162	25673.55	24784.8
955.8924	2274.1719	25602.65	24712.65
956.0253	2275.6268	25513.3	24623.45
956.1583	2277.0811	25469.6	24578
956.2912	2278.5346	25386.9	24495.55
956.4241	2279.9874	25369.3	24478.75
956.5569	2281.4395	25323.1	24435.1
956.6897	2282.8908	25229.15	24334.6
956.8225	2284.3414	25134.1	24243.35
956.9553	2285.7914	25015.45	24127.2
957.088	2287.2406	24929.25	24038.2
957.2207	2288.689	24859.3	23969.85
957.3534	2290.1368	24752.5	23861.15
957.486	2291.5838	24720.4	23828.9
957.6186	2293.0302	24628.95	23737.45
957.7512	2294.4758	24521.8	23634.55
957.8838	2295.9206	24422.05	23530.65
958.0163	2297.3648	24301.15	23411.05
958.1488	2298.8082	24302.7	23411.9
958.2813	2300.251	24212.8	23321.2
958.4137	2301.693	24164.1	23270.05
958.5461	2303.1343	24167.5	23276.65
958.6785	2304.5748	24054.1	23163.8
958.8108	2306.0147	23936.6	23046.45
958.9432	2307.4538	23846.9	22955.75
959.0754	2308.8922	23760.55	22872.05
959.2077	2310.3299	23662.65	22775.45
959.3399	2311.7669	23594.9	22707.2
959.4721	2313.2031	23555.55	22666.8
959.6043	2314.6387	23477.75	22587.25
959.7365	2316.0735	23368.1	22478.95
959.8686	2317.5076	23308.1	22419.5
960.0006	2318.941	23272.9	22383.45
960.1327	2320.3737	23212.25	22322.55
960.2647	2321.8056	23099.5	22207.8
960.3967	2323.2369	23025.75	22134.35
960.5287	2324.6674	22960.05	22065.95
960.6606	2326.0972	22839.95	21947.2
960.7925	2327.5263	22776.8	21888.25
960.9244	2328.9547	22718.25	21827.95
961.0562	2330.3823	22681.3	21790.35
961.1881	2331.8092	22693.75	21800.2
961.3198	2333.2355	22519.75	21628.55
961.4516	2334.661	22467.45	21578.6
961.5833	2336.0858	22428	21535.25
961.715	2337.5098	22370.8	21479.7
961.8467	2338.9332	22321.05	21431.35
961.9783	2340.3558	22189.45	21296.1
962.1099	2341.7778	22111.4	21222.75
962.2415	2343.199	22037.4	21145.4
962.373	2344.6195	21993.1	21102.95
962.5045	2346.0393	21930.2	21043.2
962.636	2347.4583	21921.1	21032.15
962.7675	2348.8767	21810.65	20920.2
962.8989	2350.2943	21755.6	20864.95
963.0303	2351.7113	21697	20804.6
963.1617	2353.1275	21589.9	20699.05
963.293	2354.543	21540.45	20643
963.4243	2355.9578	21450.7	20560.1
963.5556	2357.3718	21311.15	20419.1
963.6868	2358.7852	21221.35	20328.1
963.818	2360.1978	21175.55	20285.35
963.9492	2361.6098	21133.55	20245.4
964.0803	2363.021	21057.8	20165.35
964.2114	2364.4315	21031.3	20141.15
964.3425	2365.8413	20944.9	20053.45
964.4736	2367.2504	20862.5	19972.75
964.6046	2368.6587	20779.7	19891.6
964.7356	2370.0664	20680.3	19790.7
964.8666	2371.4733	20614.45	19724.25
964.9975	2372.8795	20536.25	19647.15
965.1284	2374.285	20485.9	19596.85
965.2593	2375.6899	20358.45	19470.55
965.3901	2377.0939	20254.7	19364.45
965.5209	2378.4973	20208.4	19320.1
965.6517	2379.9	20172.55	19282.55
965.7825	2381.3019	20084.25	19195.3
965.9132	2382.7032	20007.15	19118.7
966.0439	2384.1037	19949.2	19063.2
966.1745	2385.5035	19857.15	18969.6
966.3051	2386.9027	19810.1	18921.5
966.4357	2388.3011	19720.3	18828.1
966.5663	2389.6987	19669.8	18781.45
966.6968	2391.0957	19581.95	18693.8
966.8273	2392.492	19489.1	18601.6
966.9578	2393.8876	19392.8	18504.8
967.0882	2395.2824	19347.3	18458.05
967.2186	2396.6765	19243.55	18352.9
967.349	2398.07	19174.1	18284.95
967.4793	2399.4627	19148	18259
967.6097	2400.8547	19074.4	18185.25
967.7399	2402.246	18998.85	18104.65
967.8702	2403.6366	18863.3	17971.35
968.0004	2405.0265	18795.15	17906.1
968.1306	2406.4156	18743.1	17847.05
968.2607	2407.8041	18653.7	17762.25
968.3909	2409.1918	18586.15	17694.35
968.521	2410.5789	18510.15	17620.4
968.651	2411.9652	18459.45	17569
968.781	2413.3508	18391.3	17500.8
968.911	2414.7358	18322.3	17433.8
969.041	2416.12	18265.4	17377.55
969.1709	2417.5035	18203.4	17313.4
969.3008	2418.8863	18114.3	17220.95
969.4307	2420.2684	18055.65	17166.8
969.5606	2421.6497	17965.6	17076.7
969.6904	2423.0304	17849.7	16960.85
969.8201	2424.4104	17807.75	16916.55
969.9499	2425.7896	17753.15	16863.65
970.0796	2427.1682	17757.5	16867.55
970.2093	2428.546	17666.95	16775.3
970.3389	2429.9232	17638.7	16747.3
970.4685	2431.2996	17581.7	16692.35
970.5981	2432.6753	17528.55	16640.9
970.7277	2434.0503	17486.9	16597.3
970.8572	2435.4246	17394.2	16506.9
970.9867	2436.7982	17332.35	16438.85
971.1161	2438.1711	17276.25	16387.1
971.2456	2439.5433	17232.6	16342.95
971.375	2440.9148	17133.9	16238.15
971.5043	2442.2856	17075	16186.25
971.6336	2443.6557	17055.15	16165
971.7629	2445.025	16978.15	16088.35
971.8922	2446.3937	16933.9	16045.4
972.0214	2447.7617	16866.25	15977.7
972.1506	2449.1289	16831.6	15943.65
972.2798	2450.4955	16791.15	15898.15
972.4089	2451.8613	16710.8	15822.4
972.538	2453.2265	16673.85	15781.75
972.6671	2454.5909	16608.9	15718.25
972.7961	2455.9546	16580.55	15691.5
972.9251	2457.3177	16523.35	15636.4
973.0541	2458.68	16451.4	15560.15
973.1831	2460.0416	16438.75	15549.2
973.312	2461.4025	16446.05	15555.45
973.4408	2462.7627	16348.85	15448.35
973.5697	2464.1222	16297.45	15408.7
973.6985	2465.4811	16268.15	15376.85
973.8273	2466.8392	16164.3	15274.25
973.956	2468.1966	16135.4	15244.05
974.0847	2469.5533	16098.3	15206.55
974.2134	2470.9093	16074.95	15184.2
974.3421	2472.2645	16013.1	15122.95
974.4707	2473.6191	15938.1	15050.1
974.5993	2474.973	15858	14968.85
974.7278	2476.3262	15842	14949.15
974.8563	2477.6787	15779.2	14891.2
974.9848	2479.0305	15665.5	14776.45
975.1132	2480.3816	15620.75	14730.3
975.2417	2481.7319	15565.5	14678.75
975.37	2483.0816	15515.35	14622.45
975.4984	2484.4306	15459.45	14568
975.6267	2485.7789	15414.7	14525.25
975.755	2487.1264	15319	14429.75
975.8833	2488.4733	15283.6	14395.65
976.0115	2489.8195	15217.6	14319.7
976.1397	2491.165	15160.45	14269.1
976.2678	2492.5097	15107.15	14215.75
976.3959	2493.8538	15034.6	14147.3
976.524	2495.1972	14962.7	14074.8
976.6521	2496.5398	14904.3	14013.8
976.7801	2497.8818	14874.95	13984.05
976.9081	2499.2231	14823.45	13933.6
977.036	2500.5637	14762.6	13870.75
977.164	2501.9035	14691.75	13803.15
977.2918	2503.2427	14667.45	13774.05
977.4197	2504.5812	14593	13702.85
977.5475	2505.919	14589.95	13698
977.6753	2507.256	14569	13679.85
977.8031	2508.5924	14508.25	13618.35
977.9308	2509.9281	14457	13559.85
978.0585	2511.2631	14384.1	13493.25
978.1861	2512.5974	14360.25	13471.6
978.3137	2513.9309	14253.85	13365.95
978.4413	2515.2638	14238.2	13321.2
978.5689	2516.596	14204.45	13315.9
978.6964	2517.9275	14107.6	13216.5
978.8239	2519.2583	14065.95	13177
978.9513	2520.5884	14003.45	13114.4
979.0788	2521.9178	13948.65	13058.45
979.2062	2523.2465	13908	13019.25
979.3335	2524.5745	13844.4	12955.7
979.4608	2525.9018	13787.8	12897.95
979.5881	2527.2284	13765.65	12878.15
979.7154	2528.5543	13747.7	12859.6
979.8426	2529.8796	13685.05	12796.2
979.9698	2531.2041	13656.85	12766.75
980.0969	2532.5279	13609.95	12722.2
980.224	2533.851	13577.55	12685.85
980.3511	2535.1735	13559.25	12669.95
980.4781	2536.4952	13481.8	12591.45
980.6052	2537.8163	13464.85	12573.75
980.7321	2539.1366	13450.4	12559.5
980.8591	2540.4562	13397.75	12506.7
980.986	2541.7752	13350.9	12463.2
981.1129	2543.0935	13333.5	12443.4
981.2397	2544.411	13279.85	12390.05
981.3665	2545.7279	13266.1	12376.75
981.4933	2547.0441	13250.45	12360.25
981.62	2548.3596	13248.2	12355.2
981.7467	2549.6744	13161.85	12272.15
981.8734	2550.9885	13137.85	12239.15
982.0001	2552.3019	13065.3	12176.85
982.1267	2553.6146	13063.35	12174.85
982.2532	2554.9266	13019.8	12129.75
982.3798	2556.2379	12953.9	12064.75
982.5063	2557.5485	12942.95	12053.8
982.6327	2558.8585	12892.75	11994.45
982.7592	2560.1677	12883.3	11988.6
982.8856	2561.4762	12838.7	11948.3
983.0119	2562.7841	12824.25	11931.2
983.1383	2564.0913	12779.15	11891.65
983.2646	2565.3977	12759.4	11872.15
983.3908	2566.7035	12715.2	11826.6
983.517	2568.0086	12676	11786.1
983.6432	2569.313	12682.1	11791.35
983.7694	2570.6167	12623.9	11733.25
983.8955	2571.9197	12583.2	11692.15
984.0216	2573.222	12561.25	11669.5
984.1476	2574.5236	12542.2	11653.5
984.2737	2575.8246	12492	11601.4
984.3996	2577.1248	12469.6	11576.6
984.5256	2578.4244	12463	11573.15
984.6515	2579.7232	12431.5	11543.35
984.7774	2581.0214	12433.1	11518.1
984.9032	2582.3189	12372.5	11483.65
985.029	2583.6157	12362.45	11468.9
985.1548	2584.9118	12363.05	11473.45
985.2806	2586.2072	12263.45	11373.5
985.4063	2587.5019	12217.4	11328
985.5319	2588.7959	12172.05	11282.75
985.6576	2590.0893	12168.4	11276.25
985.7832	2591.3819	12147.05	11258.95
985.9087	2592.6739	12104.75	11216.6
986.0343	2593.9652	12073.2	11182.55
986.1597	2595.2557	12029.95	11141.3
986.2852	2596.5456	11960.75	11067.4
986.4106	2597.8348	11915.85	11026.45
986.536	2599.1234	11869.8	10980.4
986.6614	2600.4112	11835.9	10948
986.7867	2601.6983	11797.8	10905.8
986.912	2602.9848	11731.45	10839.8
987.0372	2604.2705	11704.9	10807.9
987.1624	2605.5556	11676.4	10786.8
987.2876	2606.84	11629.5	10742.75
987.4128	2608.1237	11583.25	10691.45
987.5379	2609.4067	11516.6	10628.45
987.6629	2610.689	11497.8	10601.7
987.788	2611.9707	11467.35	10573.75
987.913	2613.2516	11413.8	10519.4
988.0379	2614.5319	11376.85	10486.9
988.1629	2615.8115	11337.9	10447.6
988.2878	2617.0903	11282.45	10390.9
988.4126	2618.3685	11246.55	10355.8
988.5375	2619.6461	11172.45	10282.9
988.6622	2620.9229	11137.9	10248.2
988.787	2622.199	11124.45	10234.15
988.9117	2623.4745	11076.35	10185.9
989.0364	2624.7493	11050.3	10161.2
989.161	2626.0234	11011.75	10121.75
989.2857	2627.2968	10988.4	10100.3
989.4102	2628.5695	10917.35	10027.35
989.5348	2629.8415	10878.1	9991.1
989.6593	2631.1128	10830.9	9939.45
989.7837	2632.3835	10763.85	9876.95
989.9082	2633.6535	10710.2	9822.25
990.0326	2634.9228	10711.25	9824.15
990.1569	2636.1914	10656.15	9768.4
990.2812	2637.4593	10652.25	9759
990.4055	2638.7265	10606.5	9715.3
990.5298	2639.9931	10544.95	9657
990.654	2641.259	10545.55	9655.9
990.7782	2642.5242	10516.05	9626.55
990.9023	2643.7887	10459.55	9570.35
991.0264	2645.0525	10445.35	9557.15
991.1505	2646.3156	10411.6	9522.55
991.2745	2647.5781	10356	9468.15
991.3985	2648.8398	10293.8	9406.6
991.5225	2650.1009	10302.9	9375.15
991.6464	2651.3613	10284.35	9395.3
991.7703	2652.6211	10231.6	9341.4
991.8942	2653.8801	10190.05	9301.25
992.018	2655.1385	10158.1	9267.45
992.1418	2656.3961	10133.6	9243.7
992.2655	2657.6531	10131	9242.8
992.3892	2658.9094	10095.35	9206.3
992.5129	2660.1651	10064.85	9175.55
992.6366	2661.42	10032.2	9142.85
992.7602	2662.6743	9999.1	9108.65
992.8837	2663.9279	9965.45	9078.35
993.0073	2665.1808	9945.7	9056.85
993.1307	2666.433	9919.6	9029.05
993.2542	2667.6846	9858.85	8971.5
993.3776	2668.9354	9854.35	8960.05
993.501	2670.1856	9808.1	8917.6
993.6244	2671.4351	9796.75	8908.2
993.7477	2672.6839	9790.9	8900.5
993.8709	2673.9321	9761.6	8872.75
993.9942	2675.1795	9725.45	8837.65
994.1174	2676.4263	9680.8	8791.55
994.2405	2677.6724	9646.15	8757.45
994.3637	2678.9179	9636.45	8746.45
994.4868	2680.1626	9620.15	8732.05
994.6098	2681.4067	9564.3	8673.7
994.7328	2682.6501	9534.4	8642.65
994.8558	2683.8928	9505.15	8615.85
994.9788	2685.1348	9465.85	8577.5
995.1017	2686.3761	9415.05	8525.7
995.2245	2687.6168	9379.35	8488.2
995.3474	2688.8568	9374.9	8484.7
995.4702	2690.0961	9341.2	8453.95
995.5929	2691.3348	9286.45	8399.65
995.7156	2692.5727	9288.1	8399.2
995.8383	2693.81	9252.65	8362.5
995.961	2695.0466	9224.95	8338.05
996.0836	2696.2826	9192.75	8303.3
996.2062	2697.5178	9161.6	8270.35
996.3287	2698.7524	9135.3	8245.85
996.4512	2699.9863	9113.6	8223
996.5737	2701.2195	9072.95	8184.6
996.6961	2702.452	9048.85	8158.9
996.8185	2703.6839	9018.1	8129.55
996.9408	2704.9151	9002.9	8115
997.0631	2706.1456	8965.2	8076.75
997.1854	2707.3755	8941.35	8051.45
997.3077	2708.6046	8905.4	8014.8
997.4299	2709.8331	8894.9	8004.8
997.552	2711.0609	8839.75	7949.85
997.6742	2712.2881	8825.4	7938.2
997.7963	2713.5145	8803.25	7913.05
997.9183	2714.7403	8779.25	7893.2
998.0403	2715.9654	8751.75	7861.05
998.1623	2717.1899	8715.2	7811.55
998.2842	2718.4136	8725.2	7837.1
998.4062	2719.6367	8693.45	7803.7
998.528	2720.8591	8661.25	7765.45
998.6498	2722.0809	8630.05	7742.15
998.7716	2723.3019	8612.35	7720.4
998.8934	2724.5223	8615.25	7725.85
999.0151	2725.7421	8597	7705.8
999.1368	2726.9611	8549.15	7657.9
999.2584	2728.1795	8524	7629.75
999.38	2729.3972	8484.15	7595.5
999.5016	2730.6142	8447.95	7555.05
999.6231	2731.8306	8387.7	7496.6
999.7446	2733.0462	8348.95	7458.2
999.8661	2734.2612	8304.4	7412
999.9875	2735.4756	8254.55	7365.15
1000.1089	2736.6892	8220	7330.5
1000.2302	2737.9022	8154.75	7266.5
1000.3515	2739.1145	8127.25	7240.95
1000.4728	2740.3262	8092.7	7197.8
1000.594	2741.5372	8074.9	7185.3
1000.7152	2742.7475	8005.75	7117.95
1000.8363	2743.9571	8007.45	7116.3
1000.9575	2745.1661	7959.45	7067.15
1001.0785	2746.3744	7925.7	7036.2
1001.1996	2747.582	7901.7	7012.6
1001.3206	2748.7889	7874.35	6982.7
1001.4415	2749.9952	7829.2	6940.95
1001.5625	2751.2008	7782.1	6890.95
1001.6833	2752.4057	7773.35	6882.65
1001.8042	2753.61	7743.85	6853.85
1001.925	2754.8136	7720.9	6829.6
1002.0458	2756.0165	7690.35	6802.1
1002.1665	2757.2188	7670.25	6782.85
1002.2872	2758.4204	7648.75	6761.65
1002.4078	2759.6213	7614.7	6722.9
1002.5285	2760.8215	7600.6	6708.4
1002.649	2762.0211	7558.25	6668.35
1002.7696	2763.22	7529.35	6637.95
1002.8901	2764.4182	7511.15	6619.7
1003.0106	2765.6158	7483.9	6594.55
1003.131	2766.8127	7470.85	6582.85
1003.2514	2768.009	7420	6531.25
1003.3717	2769.2045	7423.95	6532.45
1003.492	2770.3994	7410.7	6518.65
1003.6123	2771.5936	7365.45	6473.9
1003.7325	2772.7872	7326.4	6437.35
1003.8527	2773.9801	7285.55	6395.95
1003.9729	2775.1723	7274.8	6368.45
1004.093	2776.3639	7234.5	6346.2
1004.2131	2777.5548	7215.95	6326.2
1004.3331	2778.745	7194.8	6305.05
1004.4531	2779.9346	7180.7	6291.35
1004.5731	2781.1235	7159.05	6268.8
1004.693	2782.3117	7132.8	6245.45
1004.8129	2783.4992	7115.8	6227.15
1004.9328	2784.6861	7097.7	6208.25
1005.0526	2785.8723	7068.45	6179
1005.1723	2787.0579	7037.65	6146.9
1005.2921	2788.2428	7027.65	6138.2
1005.4118	2789.427	7008.45	6123
1005.5314	2790.6106	6987.05	6099.3
1005.651	2791.7935	6981.75	6092.5
1005.7706	2792.9757	6961.75	6075.1
1005.8902	2794.1573	6942.25	6051.45
1006.0097	2795.3382	6915.7	6027.95
1006.1291	2796.5184	6894.2	6008.45
1006.2485	2797.698	6902.6	6013.8
1006.3679	2798.8769	6894.25	6006.2
1006.4873	2800.0551	6897.05	6007.7
1006.6066	2801.2327	6860.3	5969.65
1006.7258	2802.4096	6848	5958.6
1006.8451	2803.5859	6836.75	5948.25
1006.9642	2804.7615	6835.3	5946.55
1007.0834	2805.9364	6843.7	5957.15
1007.2025	2807.1106	6844.5	5956.25
1007.3216	2808.2842	6858.6	5968.45
1007.4406	2809.4572	6869	5979.75
1007.5596	2810.6294	6874.4	5984.15
1007.6785	2811.801	6888.1	5999.95
1007.7975	2812.972	6920.65	6034.2
1007.9163	2814.1423	6917.85	6028.45
1008.0352	2815.3119	6954.5	6065.15
1008.154	2816.4808	6956.05	6067.25
1008.2727	2817.6491	6989.05	6100.85
1008.3914	2818.8167	7025.9	6138.3
1008.5101	2819.9837	7098.05	6206.65
1008.6288	2821.15	7080.95	6191.05
1008.7474	2822.3157	7107.7	6218.7
1008.8659	2823.4807	7133.2	6244.9
1008.9844	2824.645	7171.7	6280.75
1009.1029	2825.8086	7207	6321.1
1009.2214	2826.9716	7222.55	6335.25
1009.3398	2828.134	7263.5	6377
1009.4581	2829.2957	7277.65	6387.95
1009.5764	2830.4567	7288.1	6400.55
1009.6947	2831.617	7274.2	6385.3
1009.813	2832.7767	7280.7	6391.6
1009.9312	2833.9358	7253.65	6365.85
1010.0493	2835.0941	7251.7	6360.75
1010.1675	2836.2519	7236.25	6349.35
1010.2855	2837.4089	7181.8	6292.15
1010.4036	2838.5653	7153.65	6266.25
1010.5216	2839.7211	7155.65	6268.45
1010.6396	2840.8761	7143.5	6254.35
1010.7575	2842.0306	7152.65	6266.65
1010.8754	2843.1843	7173.3	6285.95
1010.9932	2844.3374	7211.45	6321.7
1011.111	2845.4899	7252.55	6363.45
1011.2288	2846.6417	7292	6402.3
1011.3465	2847.7928	7340.7	6451.8
1011.4642	2848.9433	7398.65	6511.75
1011.5818	2850.0931	7454.6	6568.8
1011.6995	2851.2422	7503.55	6615.1
1011.817	2852.3907	7541.9	6652.4
1011.9345	2853.5385	7605.25	6715.75
1012.052	2854.6857	7650.65	6752
1012.1695	2855.8323	7677.65	6791
1012.2869	2856.9781	7688.9	6799.9
1012.4042	2858.1233	7698.95	6810.4
1012.5216	2859.2679	7738.8	6851.75
1012.6389	2860.4118	7775.75	6886.4
1012.7561	2861.555	7779.5	6887.15
1012.8733	2862.6976	7790.95	6899.2
1012.9905	2863.8395	7809	6919.65
1013.1076	2864.9808	7805.9	6916.8
1013.2247	2866.1214	7795.2	6907.05
1013.3417	2867.2614	7805.5	6918.3
1013.4587	2868.4007	7807.3	6916.65
1013.5757	2869.5393	7792.95	6901.5
1013.6926	2870.6773	7786.6	6895.7
1013.8095	2871.8146	7785.6	6894.3
1013.9263	2872.9513	7750.2	6861.6
1014.0431	2874.0874	7725.4	6837.45
1014.1599	2875.2227	7714	6824.85
1014.2766	2876.3574	7658.45	6769.55
1014.3933	2877.4915	7633.75	6746.85
1014.51	2878.6249	7580.85	6693.6
1014.6266	2879.7577	7539.4	6649.9
1014.7431	2880.8898	7504.25	6607.95
1014.8596	2882.0212	7454.5	6567.35
1014.9761	2883.152	7448.7	6560.2
1015.0925	2884.2821	7391.5	6505.05
1015.2089	2885.4116	7375.45	6488.05
1015.3253	2886.5405	7381.25	6493
1015.4416	2887.6686	7345.55	6454.75
1015.5579	2888.7962	7325.85	6437.9
1015.6741	2889.923	7330.15	6442
1015.7903	2891.0493	7323.15	6435.5
1015.9065	2892.1748	7309.8	6420.85
1016.0226	2893.2997	7301.9	6413.9
1016.1387	2894.424	7286.9	6399.4
1016.2547	2895.5476	7283.85	6396
1016.3707	2896.6706	7290.05	6404.55
1016.4866	2897.7929	7308.35	6420.5
1016.6025	2898.9145	7336.1	6446.75
1016.7184	2900.0355	7329.1	6439.6
1016.8342	2901.1559	7372.5	6482.6
1016.95	2902.2756	7339.8	6454.5
1017.0658	2903.3946	7359.6	6470.5
1017.1815	2904.513	7377.9	6486.65
1017.2971	2905.6308	7361.8	6474.9
1017.4127	2906.7479	7379.65	6491.7
1017.5283	2907.8643	7394.2	6507.7
1017.6439	2908.9801	7356.6	6468.6
1017.7594	2910.0953	7364.9	6476.3
1017.8748	2911.2098	7335.1	6442.7
1017.9902	2912.3236	7325.95	6427.95
1018.1056	2913.4368	7307.8	6416.2
1018.2209	2914.5494	7284.5	6395.65
1018.3362	2915.6613	7216.45	6324.2
1018.4515	2916.7725	7174.5	6284.25
1018.5667	2917.8831	7153.1	6265.4
1018.6819	2918.9931	7099.3	6210.25
1018.797	2920.1024	7048.4	6159.75
1018.9121	2921.211	7024.05	6137.05
1019.0271	2922.319	7001.4	6114.05
1019.1421	2923.4264	6960.85	6071.65
1019.2571	2924.5331	6941.9	6054.65
1019.372	2925.6391	6910.4	6022.3
1019.4869	2926.7445	6921.3	6034.5
1019.6017	2927.8493	6865.35	5976.6
1019.7165	2928.9534	6849.35	5960.05
1019.8313	2930.0569	6841.35	5951.15
1019.946	2931.1597	6821.35	5930.6
1020.0606	2932.2619	6783.7	5897.85
1020.1753	2933.3634	6776.6	5889.15
1020.2899	2934.4643	6789.95	5895.9
1020.4044	2935.5645	6735.25	5840.4
1020.5189	2936.6641	6670.1	5779.15
1020.6334	2937.763	6628.75	5742.3
1020.7478	2938.8613	6586.45	5698.05
1020.8622	2939.959	6512.4	5619.4
1020.9765	2941.056	6431.8	5543.4
1021.0908	2942.1523	6337.25	5448.25
1021.2051	2943.248	6250.05	5360.9
1021.3193	2944.3431	6135.8	5248.1
1021.4334	2945.4375	6052.7	5163.65
1021.5476	2946.5313	5931.6	5045.15
1021.6617	2947.6244	5817.1	4928.45
1021.7757	2948.7169	5712.35	4823.65
1021.8897	2949.8087	5591	4703
1022.0037	2950.8999	5494.2	4606.7
1022.1176	2951.9904	5380.6	4494.75
1022.2315	2953.0803	5306.9	4418.8
1022.3453	2954.1696	5246	4358.95
1022.4591	2955.2582	5180.05	4290.75
1022.5728	2956.3462	5128.55	4240.25
1022.6865	2957.4335	5080.05	4192.35
1022.8002	2958.5202	5041.15	4153
1022.9138	2959.6062	4977.8	4090.25
1023.0274	2960.6916	4943.55	4055.25
1023.141	2961.7764	4907.1	4017.55
1023.2545	2962.8605	4872.05	3984.3
1023.3679	2963.9439	4856.45	3968.4
1023.4813	2965.0267	4821.5	3930.7
1023.5947	2966.1089	4827.25	3916.8
1023.708	2967.1905	4768.9	3879.2
1023.8213	2968.2714	4779.05	3893.65
1023.9346	2969.3516	4745.7	3857.45
1024.0478	2970.4312	4747.4	3853.35
1024.1609	2971.5102	4737.8	3850.4
1024.274	2972.5885	4704	3817.4
1024.3871	2973.6662	4718.35	3825.95
1024.5002	2974.7432	4687.15	3799.85
1024.6132	2975.8196	4669.35	3782.15
1024.7261	2976.8954	4647.5	3759.15
1024.839	2977.9705	4627.9	3740.95
1024.9519	2979.045	4610.1	3722.55
1025.0647	2980.1188	4573.05	3685.55
1025.1775	2981.192	4539.85	3654.1
1025.2902	2982.2645	4518	3629.2
1025.4029	2983.3364	4468.15	3577.6
1025.5156	2984.4077	4434.55	3547.65
1025.6282	2985.4783	4405.15	3513.2
1025.7407	2986.5483	4358.5	3471.4
1025.8532	2987.6177	4325	3438.3
1025.9657	2988.6864	4273.75	3386.15
1026.0782	2989.7545	4230.85	3339.15
1026.1906	2990.8219	4200.15	3313.85
1026.3029	2991.8887	4162.85	3272.85
1026.4152	2992.9548	4114.85	3225.9
1026.5275	2994.0204	4077.4	3191.45
1026.6397	2995.0852	4037.6	3151.55
1026.7519	2996.1495	4001.4	3112.95
1026.864	2997.2131	3968.9	3081.8
1026.9761	2998.276	3928.3	3040.9
1027.0882	2999.3383	3907.9	3020.35
1027.2002	3000.4	3868.4	2979.6
1027.3122	3001.4611	3848.5	2961.2
1027.4241	3002.5215	3849.9	2962.85
1027.536	3003.5812	3807.15	2919.6
1027.6478	3004.6404	3797.1	2910.1
1027.7596	3005.6989	3761.55	2871.25
1027.8714	3006.7567	3754.3	2866.45
1027.9831	3007.8139	3745.05	2837.75
1028.0947	3008.8705	3715.85	2827.05
1028.2064	3009.9264	3712.35	2820.55
1028.3179	3010.9818	3674.2	2786.05
1028.4295	3012.0364	3669.35	2782.7
1028.541	3013.0905	3655.55	2769.65
1028.6524	3014.1439	3637.9	2750.4
1028.7638	3015.1966	3629.7	2742.65
1028.8752	3016.2487	3621.85	2732.95
1028.9865	3017.3002	3611.05	2719.6
1029.0978	3018.3511	3602.35	2715.95
1029.209	3019.4013	3587.2	2700.95
1029.3202	3020.4509	3590.45	2701.2
1029.4314	3021.4998	3564.65	2678.15
1029.5425	3022.5481	3563.25	2676.45
1029.6535	3023.5958	3534.25	2645.95
1029.7645	3024.6428	3534.3	2646.7
1029.8755	3025.6892	3542.2	2655.95
1029.9864	3026.735	3528.35	2639.55
1030.0973	3027.7802	3504.2	2614.85
1030.2082	3028.8247	3491.6	2604.65
1030.319	3029.8685	3489.75	2601.4
1030.4297	3030.9118	3483.5	2595.4
1030.5404	3031.9544	3487.75	2602.3
1030.6511	3032.9963	3466.85	2579.35
1030.7617	3034.0376	3446.3	2557.2
1030.8723	3035.0783	3465.75	2576.6
1030.9829	3036.1184	3453.8	2564.95
1031.0934	3037.1578	3436.85	2551.3
1031.2038	3038.1966	3438.9	2549.4
1031.3142	3039.2348	3437.95	2551.15
1031.4246	3040.2723	3424.65	2529.5
1031.5349	3041.3092	3403.8	2517.5
1031.6452	3042.3455	3392.05	2504.65
1031.7554	3043.3811	3382.95	2494.15
1031.8656	3044.4161	3372.35	2484.45
1031.9758	3045.4505	3364.3	2478.2
1032.0859	3046.4842	3362.7	2474.9
1032.1959	3047.5173	3319.7	2433.6
1032.3059	3048.5498	3314	2426.35
1032.4159	3049.5816	3303.15	2415
1032.5258	3050.6128	3285.65	2395.6
1032.6357	3051.6434	3289.05	2403
1032.7455	3052.6734	3276	2386.95
1032.8553	3053.7027	3258.25	2370.15
1032.9651	3054.7314	3246.6	2358.8
1033.0748	3055.7594	3229.45	2341.5
1033.1845	3056.7868	3213.8	2325.45
1033.2941	3057.8136	3203.7	2316.45
1033.4037	3058.8398	3187.25	2299.25
1033.5132	3059.8653	3171.1	2283.85
1033.6227	3060.8902	3159.9	2273.8
1033.7321	3061.9145	3153	2265.15
1033.8415	3062.9381	3130.75	2243.05
1033.9509	3063.9612	3131.35	2228.4
1034.0602	3064.9835	3109	2220.25
1034.1694	3066.0053	3095.3	2203.85
1034.2787	3067.0264	3093.85	2208.85
1034.3878	3068.0469	3074.85	2186.95
1034.497	3069.0668	3072.05	2180.9
1034.6061	3070.086	3040.4	2154.1
1034.7151	3071.1046	3032.1	2144.3
1034.8241	3072.1226	3020.65	2133.6
1034.9331	3073.1399	2989.25	2100.55
1035.042	3074.1567	2995.8	2108.7
1035.1508	3075.1727	2977	2085.7
1035.2597	3076.1882	2962	2074.45
1035.3684	3077.203	2947.15	2060.6
1035.4772	3078.2173	2944.15	2055.5
1035.5859	3079.2308	2918.65	2028
1035.6945	3080.2438	2902.85	2012.55
1035.8031	3081.2561	2898.8	2012.9
1035.9117	3082.2678	2879.6	1992.4
1036.0202	3083.2789	2854.4	1966.3
1036.1286	3084.2893	2830.4	1942.7
1036.2371	3085.2991	2828.9	1940.6
1036.3454	3086.3083	2835.8	1943.45
1036.4538	3087.3169	2817.1	1927.5
1036.562	3088.3248	2788.5	1898.5
1036.6703	3089.3321	2799	1909
1036.7785	3090.3388	2770.45	1884.3
1036.8866	3091.3449	2758.35	1872.05
1036.9948	3092.3503	2750.55	1862.45
1037.1028	3093.3551	2738.9	1852.35
1037.2108	3094.3593	2733.7	1847.65
1037.3188	3095.3629	2715.85	1829.05
1037.4267	3096.3658	2712.55	1824.1
1037.5346	3097.3681	2698.35	1811.15
1037.6425	3098.3698	2684.55	1798.05
1037.7503	3099.3708	2673.25	1779.75
1037.858	3100.3713	2661.65	1773.1
1037.9657	3101.3711	2655.15	1767.6
1038.0734	3102.3702	2768.25	1743.05
1038.181	3103.3688	2647.5	1758.5
1038.2886	3104.3667	2631.9	1745.9
1038.3961	3105.364	2613.8	1727.8
1038.5036	3106.3607	2592.15	1703.5
1038.611	3107.3568	2589.7	1703.3
1038.7184	3108.3522	2583.5	1695.55
1038.8257	3109.347	2570.95	1682.3
1038.933	3110.3412	2570	1678.2
1039.0403	3111.3348	2546.3	1658.45
1039.1475	3112.3277	2533.45	1647.05
1039.2547	3113.32	2530.1	1643.9
1039.3618	3114.3117	2516.65	1627.75
1039.4689	3115.3028	2515.75	1629.5
1039.5759	3116.2932	2489	1598.75
1039.6829	3117.2831	2497.35	1606.2
1039.7898	3118.2723	2471.05	1582.8
1039.8967	3119.2608	2476.6	1590.3
1040.0035	3120.2488	2465.5	1577.7
1040.1103	3121.2361	2457.9	1571.65
1040.2171	3122.2229	2448.3	1559.95
1040.3238	3123.209	2435.45	1546
1040.4305	3124.1944	2428.1	1542.55
1040.5371	3125.1793	2423.55	1534.65
1040.6437	3126.1635	2417.95	1530.45
1040.7502	3127.1471	2401.65	1513.65
1040.8567	3128.1301	2394.45	1508.2
1040.9631	3129.1125	2390.8	1504.5
1041.0695	3130.0942	2388.45	1500.45
1041.1759	3131.0753	2387.6	1491.45
1041.2822	3132.0558	2363.85	1472.7
1041.3884	3133.0357	2365.6	1478.3
1041.4946	3134.015	2346	1459.95
1041.6008	3134.9936	2354	1465.6
1041.7069	3135.9716	2362.25	1455
1041.813	3136.949	2333.15	1444.7
1041.919	3137.9258	2341.05	1447.8
1042.025	3138.902	2325.9	1433.45
1042.1309	3139.8775	2319.2	1431.7
1042.2368	3140.8524	2308.1	1419.2
1042.3427	3141.8267	2309.45	1418.85
1042.4485	3142.8004	2299.2	1411.2
1042.5542	3143.7735	2292.85	1399.1
1042.6599	3144.7459	2286.15	1396.95
1042.7656	3145.7178	2278.15	1391.1
1042.8712	3146.689	2268.75	1381.05
1042.9768	3147.6596	2267.35	1380.2
1043.0823	3148.6295	2247.75	1360.05
1043.1878	3149.5989	2246.05	1359.95
1043.2932	3150.5676	2243.25	1357.7
1043.3986	3151.5357	2230.3	1343.15
1043.5039	3152.5032	2221.65	1334.3
1043.6092	3153.4701	2216.7	1328.95
1043.7145	3154.4364	2216.85	1327.15
1043.8197	3155.402	2197.1	1312.05
1043.9248	3156.367	2199.1	1310.9
1044.03	3157.3315	2236.2	1307.7
1044.135	3158.2952	2179.05	1292.15
1044.24	3159.2584	2173.95	1288.65
1044.345	3160.221	2174.3	1284.9
1044.4499	3161.1829	2160.65	1273.45
1044.5548	3162.1442	2152	1266.45
1044.6596	3163.105	2144.65	1255.3
1044.7644	3164.065	2136.2	1248.3
1044.8692	3165.0245	2133.5	1244.7
1044.9739	3165.9834	2127.8	1239.05
1045.0785	3166.9416	2113.1	1226.8
1045.1831	3167.8993	2109.85	1223.05
1045.2877	3168.8563	2102.05	1214.9
1045.3922	3169.8127	2092.7	1206.95
1045.4966	3170.7684	2098.9	1211.8
1045.6011	3171.7236	2084.8	1195.05
1045.7054	3172.6782	2077.1	1189.75
1045.8098	3173.6321	2067.2	1177.5
1045.914	3174.5854	2075.45	1184.4
1046.0183	3175.5381	2055.3	1167.1
1046.1224	3176.4902	2048.2	1160.85
1046.2266	3177.4417	2051.4	1165
1046.3307	3178.3926	2036.25	1149.15
1046.4347	3179.3428	2033.95	1148.45
1046.5387	3180.2924	2019.6	1133.5
1046.6427	3181.2415	2019.95	1132.05
1046.7466	3182.1899	2017.5	1127.95
1046.8504	3183.1377	2009.45	1122.35
1046.9542	3184.0848	2005.95	1115.75
1047.058	3185.0314	1990.85	1103.15
1047.1617	3185.9773	1985.95	1100.45
1047.2654	3186.9227	1985.45	1097.3
1047.369	3187.8674	1975.7	1087.35
1047.4726	3188.8115	1969.95	1079.45
1047.5761	3189.755	1966.85	1080.1
1047.6796	3190.6979	1958.35	1072.05
1047.783	3191.6402	1957.1	1072.3
1047.8864	3192.5818	1947.7	1061.5
1047.9898	3193.5229	1957.3	1047.75
1048.0931	3194.4633	1938.8	1050.1
1048.1963	3195.4031	1932.75	1044.95
1048.2995	3196.3423	1934.75	1047.65
1048.4027	3197.2809	1923.95	1037.05
1048.5058	3198.2189	1922.75	1035.6
1048.6089	3199.1563	1915.95	1020.6
1048.7119	3200.0931	1903.9	1017.55
1048.8148	3201.0292	1899.05	1012.2
1048.9178	3201.9648	1897.65	1010.2
1049.0206	3202.8997	1895.45	1006.45
1049.1235	3203.834	1885.5	998.55
1049.2262	3204.7677	1884.05	996.6
1049.329	3205.7008	1879.05	990.6
1049.4317	3206.6333	1866.05	979.85
1049.5343	3207.5652	1867.7	978
1049.6369	3208.4964	1861.1	976.15
1049.7394	3209.4271	1854.35	967.8
1049.8419	3210.3571	1849.55	964.9
1049.9444	3211.2865	1850.4	962.65
1050.0468	3212.2154	1846.9	956.95
1050.1491	3213.1436	1837.7	948.1
1050.2514	3214.0712	1843	947.95
1050.3537	3214.9982	1832	946.7
1050.4559	3215.9246	1826.05	938.45
1050.5581	3216.8503	1811.55	926.15
1050.6602	3217.7755	1803.1	917.6
1050.7623	3218.7001	1815.5	928.95
1050.8643	3219.624	1809.95	922.9
1050.9663	3220.5473	1808.25	919.55
1051.0682	3221.4701	1793.5	905.7
1051.1701	3222.3922	1795.85	907.35
1051.2719	3223.3137	1789.35	902.15
1051.3737	3224.2346	1784.3	899.4
1051.4754	3225.1549	1778.05	889.5
1051.5771	3226.0746	1762.9	876.15
1051.6788	3226.9937	1765.65	878.25
1051.7804	3227.9121	1767.1	879.8
1051.8819	3228.83	1752.6	867.35
1051.9834	3229.7473	1756.8	868.7
1052.0849	3230.6639	1746.1	857.45
1052.1863	3231.5799	1746.9	859.65
1052.2876	3232.4954	1733.05	846.15
1052.3889	3233.4102	1730.15	842.1
1052.4902	3234.3244	1725.2	839.05
1052.5914	3235.238	1713	826.25
1052.6926	3236.151	1740.85	828.5
1052.7937	3237.0634	1713.2	826.45
1052.8948	3237.9752	1701.05	815.9
1052.9958	3238.8864	1703.25	816.8
1053.0968	3239.797	1699.5	814
1053.1977	3240.7069	1691	802.7
1053.2986	3241.6163	1684	794.35
1053.3994	3242.5251	1682.45	797.1
1053.5002	3243.4332	1678.5	790.3
1053.6009	3244.3408	1670.55	782.25
1053.7016	3245.2477	1666.85	779.8
1053.8022	3246.154	1666.05	778.8
1053.9028	3247.0598	1657.7	771.5
1054.0034	3247.9649	1649.5	762.15
1054.1039	3248.8694	1649.9	764.2
1054.2043	3249.7733	1644.2	759.65
1054.3047	3250.6766	1642.25	754.85
1054.4051	3251.5793	1630.85	740.55
1054.5054	3252.4814	1623.7	738.5
1054.6056	3253.3829	1631.05	744.45
1054.7058	3254.2838	1619.45	733.45
1054.806	3255.1841	1614.9	729.8
1054.9061	3256.0838	1612.55	724.7
1055.0061	3256.9829	1611.5	726.35
1055.1062	3257.8814	1591.05	703.1
1055.2061	3258.7792	1592.3	703.85
1055.306	3259.6765	1589.55	701.1
1055.4059	3260.5731	1576.05	689.75
1055.5057	3261.4692	1570.15	681.3
1055.6055	3262.3647	1557.5	670.15
1055.7052	3263.2595	1557.1	671.2
1055.8049	3264.1538	1546.85	660.65
1055.9045	3265.0474	1536.65	647.2
1056.0041	3265.9404	1523.65	637.85
1056.1036	3266.8329	1514	627.3
1056.2031	3267.7247	1512.9	615.5
1056.3025	3268.616	1485.95	599.45
1056.4019	3269.5066	1473.2	587.95
1056.5013	3270.3966	1457.6	568.65
1056.6005	3271.286	1435.1	550.15
