Software Version:	3.9.2.0
Unit SN:	10000200
Spectrometer SN:	6960
Date:	3/6/2024 11:01:01 AM
Data Line Index:	25
Spectral Points:	2048
Integration time (ms):	125
Averages:	20
Delay (ms):	30
Sequence Number:	1
Processing:	dark subtract
Laser Power (mW):	305
Laser Current (mA):	821
Laser Diode Temp (C):	25
Laser Case Temp (C):	28.2
System Temp (C):	28
Spectrometer Temp (C):	25.5
CCD Temp (C):	0.005
Secondary Temp (C):	20.01
Heatsink Temp (C):	23.897
CCDPCB Temp (C):	37.263
SecondaryPCB Temp (C):	34.806

Wavelength	RamanShift	Raw Counts	Dark Subtracted
787.061	30.1047	1067	652.4
787.2016	32.3739	1099.45	688
787.3422	34.6426	1148.9	736.85
787.4828	36.9109	1188.8	775.1
787.6235	39.1787	1233.2	816.6
787.7642	41.4461	1303.5	878.9
787.9049	43.7131	1355.75	928.5
788.0456	45.9796	1424.55	994.05
788.1863	48.2456	1489.2	1055.25
788.3271	50.5112	1552.3	1113.95
788.4679	52.7764	1619.85	1180.55
788.6087	55.0411	1686.55	1243.85
788.7496	57.3054	1771.2	1319.9
788.8904	59.5692	1858.3	1405.8
789.0313	61.8326	1959.3	1501.8
789.1722	64.0955	2037.55	1578.2
789.3132	66.3579	2159.85	1695
789.4541	68.6199	2316.5	1848.95
789.5951	70.8815	2534.05	2063
789.7361	73.1426	3008.45	2533.2
789.8771	75.4032	4197.85	3719.15
790.0181	77.6634	7252.6	6767.6
790.1592	79.9231	14994.15	14505.35
790.3003	82.1824	48082.15	47584.8
790.4414	84.4412	65535	65019.2
790.5825	86.6995	65535	64992.25
790.7237	88.9574	65535	64972.75
790.8648	91.2148	65535	64959.35
791.006	93.4717	65535	64948.35
791.1472	95.7282	65535	64943.15
791.2885	97.9842	65535	64939.9
791.4297	100.2398	65535	64932.85
791.571	102.4949	65535	64935
791.7123	104.7495	65535	64927.5
791.8536	107.0036	65535	64923.1
791.9949	109.2573	65535	64928.35
792.1363	111.5105	65535	64923.95
792.2777	113.7632	65535	64926.65
792.4191	116.0154	65535	64916.55
792.5605	118.2672	65535	64919.55
792.7019	120.5185	65535	64919.35
792.8434	122.7693	65535	64916.05
792.9849	125.0197	65535	64911.7
793.1264	127.2696	65535	64907.4
793.2679	129.519	65535	64908.15
793.4094	131.7679	65535	64903.95
793.551	134.0163	65535	64900.5
793.6926	136.2642	65535	64896.6
793.8342	138.5117	65535	64885.6
793.9758	140.7587	65535	64894.95
794.1175	143.0052	65535	64892.25
794.2591	145.2512	65535	64889.25
794.4008	147.4967	65535	64889.5
794.5425	149.7417	65535	64886.95
794.6842	151.9863	65535	64883.3
794.826	154.2304	65535	64881.55
794.9677	156.4739	65535	64875
795.1095	158.717	65535	64875.5
795.2513	160.9596	65535	64870.8
795.3931	163.2017	65535	64870.35
795.535	165.4433	65535	64866.55
795.6768	167.6844	65535	64867.1
795.8187	169.925	65535	64859.4
795.9606	172.1651	65535	64857.25
796.1025	174.4047	65535	64856.35
796.2445	176.6439	65535	64852.6
796.3864	178.8825	65535	64854.75
796.5284	181.1206	65535	64847.2
796.6704	183.3582	65535	64841.5
796.8124	185.5954	65535	64841.4
796.9544	187.832	65535	64840.45
797.0965	190.0681	65535	64835.3
797.2386	192.3037	65535	64834.05
797.3806	194.5388	65535	64827.6
797.5228	196.7734	65535	64828.4
797.6649	199.0075	65535	64825.2
797.807	201.2411	65535	64820.1
797.9492	203.4742	65535	64822.4
798.0914	205.7068	65535	64819.4
798.2336	207.9389	65535	64818.55
798.3758	210.1704	65535	64815.5
798.518	212.4015	65535	64814.95
798.6603	214.632	65535	64818.05
798.8025	216.862	65535	64822.05
798.9448	219.0915	65535	64829.95
799.0871	221.3205	65535	64833.3
799.2294	223.549	65535	64834.55
799.3718	225.777	65535	64837.7
799.5141	228.0044	65535	64834.6
799.6565	230.2314	65535	64837.05
799.7989	232.4578	65535	64832.95
799.9413	234.6837	65535	64825.6
800.0837	236.909	65535	64823.5
800.2262	239.1339	65535	64796.9
800.3687	241.3582	65535	64809
800.5111	243.582	65535	64781.7
800.6536	245.8053	65535	64793.45
800.7961	248.0281	65535	64799.25
800.9387	250.2503	65535	64793.15
801.0812	252.472	65535	64789.5
801.2238	254.6932	65535	64787.45
801.3664	256.9139	65535	64787.75
801.509	259.134	65535	64784.3
801.6516	261.3536	65535	64786.25
801.7942	263.5727	65535	64782.9
801.9369	265.7912	65535	64785.65
802.0795	268.0092	65535	64785.2
802.2222	270.2267	65535	64778.8
802.3649	272.4436	65535	64785
802.5076	274.6601	65535	64773.95
802.6504	276.8759	65535	64775.85
802.7931	279.0913	65535	64773.7
802.9359	281.3061	65535	64774.25
803.0787	283.5204	65535	64770.05
803.2215	285.7341	65535	64765.4
803.3643	287.9473	65535	64754.05
803.5071	290.16	65535	64760.6
803.6499	292.3721	65535	64769.7
803.7928	294.5837	65535	64762.65
803.9357	296.7947	65535	64768.35
804.0786	299.0052	65535	64762.4
804.2215	301.2152	65535	64763
804.3644	303.4246	65535	64763.65
804.5074	305.6334	65535	64766.3
804.6503	307.8418	65535	64760.3
804.7933	310.0495	65535	64760.05
804.9363	312.2568	65535	64763.55
805.0793	314.4635	65535	64760.05
805.2223	316.6696	65535	64756.8
805.3653	318.8752	65535	64749.9
805.5084	321.0802	65535	64755.8
805.6514	323.2847	65535	64753.65
805.7945	325.4887	65535	64752.65
805.9376	327.692	65535	64752.75
806.0807	329.8949	65535	64754.15
806.2238	332.0972	65535	64751.5
806.367	334.2989	65535	64748.6
806.5101	336.5001	65535	64749.3
806.6533	338.7007	65535	64746.6
806.7965	340.9008	65535	64745.85
806.9397	343.1003	65535	64743
807.0829	345.2992	65535	64745.1
807.2261	347.4976	65535	64740.5
807.3693	349.6955	65535	64736.8
807.5126	351.8927	65535	64736.3
807.6559	354.0895	65535	64727.9
807.7991	356.2856	65535	64736.4
807.9424	358.4812	65535	64736.85
808.0857	360.6763	65535	64736.95
808.2291	362.8707	65535	64734.1
808.3724	365.0646	65535	64731.65
808.5158	367.258	65535	64730.8
808.6591	369.4508	65535	64726.1
808.8025	371.643	65535	64724.25
808.9459	373.8346	65535	64725.1
809.0893	376.0257	65535	64720.1
809.2327	378.2162	65535	64719.35
809.3762	380.4062	65535	64716.45
809.5196	382.5956	65535	64718.1
809.6631	384.7844	65535	64719.7
809.8066	386.9726	65535	64720.9
809.9501	389.1603	65535	64720.55
810.0936	391.3474	65535	64681.15
810.2371	393.5339	65535	64721.7
810.3806	395.7199	65535	64727.4
810.5241	397.9052	65535	64728.15
810.6677	400.09	65535	64725.65
810.8113	402.2743	65535	64726.6
810.9548	404.4579	65535	64726.4
811.0984	406.641	65535	64724.45
811.2421	408.8235	65535	64723.5
811.3857	411.0054	65535	64721.35
811.5293	413.1868	65535	64720.25
811.673	415.3675	65535	64716
811.8166	417.5477	65535	64716.7
811.9603	419.7273	65535	64713.5
812.104	421.9064	65535	64706.55
812.2477	424.0848	65535	64711.25
812.3914	426.2627	65535	64710.75
812.5351	428.4399	65535	64706.2
812.6788	430.6166	65535	64705.05
812.8226	432.7928	65535	64700.15
812.9663	434.9683	65535	64702.75
813.1101	437.1432	65535	64702.5
813.2539	439.3176	65535	64700.65
813.3977	441.4914	65535	64701.95
813.5415	443.6645	65535	64700.55
813.6853	445.8371	65535	64699.15
813.8291	448.0091	65535	64701.55
813.973	450.1806	65535	64700.05
814.1168	452.3514	65535	64699
814.2607	454.5216	65535	64688.15
814.4046	456.6913	65535	64696.15
814.5485	458.8603	65535	64697.95
814.6924	461.0288	65535	64696.9
814.8363	463.1967	65535	64698.2
814.9802	465.3639	65535	64698.4
815.1241	467.5306	65535	64694.5
815.2681	469.6967	65535	64696.2
815.412	471.8622	65535	64697.6
815.556	474.0271	65535	64695.95
815.7	476.1914	65535	64693.1
815.844	478.3551	65535	64695.95
815.988	480.5182	65535	64696.8
816.132	482.6807	65535	64693.35
816.276	484.8426	65535	64695.25
816.4201	487.0039	65535	64692.65
816.5641	489.1647	65535	64694.1
816.7082	491.3248	65535	64693.75
816.8522	493.4843	65535	64691.75
816.9963	495.6432	65535	64694.2
817.1404	497.8015	65535	64687.1
817.2845	499.9592	65535	64688.4
817.4286	502.1163	65535	64689.45
817.5727	504.2728	65535	64689.3
817.7168	506.4287	65535	64690.7
817.861	508.5839	65535	64690.35
818.0051	510.7386	65535	64689.35
818.1493	512.8927	65535	64683.7
818.2935	515.0461	65535	64685.65
818.4377	517.199	65535	64687.3
818.5818	519.3512	65535	64687.85
818.726	521.5029	65535	64675.85
818.8703	523.6539	65535	64683
819.0145	525.8043	65535	64680.55
819.1587	527.9541	65535	64679.65
819.303	530.1033	65535	64681.7
819.4472	532.2519	65535	64681
819.5915	534.3999	65535	64680.45
819.7357	536.5472	65535	64678.6
819.88	538.694	65535	64678.1
820.0243	540.8401	65535	64677.7
820.1686	542.9856	65535	64676.25
820.3129	545.1305	65535	64676.25
820.4572	547.2748	65535	64674.95
820.6016	549.4185	65535	64675.75
820.7459	551.5615	65535	64675.8
820.8902	553.704	65535	64676.3
821.0346	555.8458	65535	64678.6
821.1789	557.987	65535	64677.2
821.3233	560.1276	65535	64674.25
821.4677	562.2675	65535	64677.75
821.6121	564.4069	65535	64676.95
821.7565	566.5456	65535	64677.5
821.9009	568.6837	65535	64676.1
822.0453	570.8212	65535	64679.45
822.1897	572.958	65535	64674.8
822.3342	575.0942	65535	64674.65
822.4786	577.2299	65535	64673.45
822.6231	579.3648	65535	64676.6
822.7675	581.4992	65535	64675.6
822.912	583.6329	65535	64674.45
823.0565	585.766	65535	64675.1
823.201	587.8985	65535	64675.35
823.3454	590.0304	65535	64661.7
823.4899	592.1616	65535	64670.3
823.6345	594.2922	65535	64672.35
823.779	596.4222	65535	64670.2
823.9235	598.5515	65535	64671
824.068	600.6802	65535	64668.2
824.2126	602.8083	65535	64668.75
824.3571	604.9358	65535	64665.45
824.5017	607.0626	65535	64667.55
824.6462	609.1888	65535	64663.3
824.7908	611.3144	65535	64666.9
824.9354	613.4393	65535	64668.8
825.08	615.5636	65535	64667.2
825.2246	617.6873	65535	64665.3
825.3692	619.8103	65535	64664.1
825.5138	621.9327	65535	64666.6
825.6584	624.0544	65535	64667.45
825.803	626.1756	65535	64667.75
825.9477	628.2961	65535	64665.3
826.0923	630.4159	65535	64666.3
826.237	632.5351	65535	64663.8
826.3816	634.6537	65535	64664.9
826.5263	636.7716	65535	64662.8
826.6709	638.8889	65535	64662.65
826.8156	641.0056	65535	64665.4
826.9603	643.1216	65535	64664.05
827.105	645.237	65535	64657.45
827.2497	647.3518	65535	64662.05
827.3944	649.4659	65535	64662.45
827.5391	651.5793	65535	64663.45
827.6838	653.6922	65535	64662.35
827.8285	655.8043	65535	64662.2
827.9733	657.9159	65535	64659.9
828.118	660.0268	65535	64659.15
828.2627	662.137	65535	64656.5
828.4075	664.2466	65535	64657.95
828.5522	666.3556	65535	64658.8
828.697	668.4639	65535	64657.75
828.8418	670.5716	65535	64660.35
828.9865	672.6786	65535	64658
829.1313	674.785	65535	64656.4
829.2761	676.8907	65535	64655.45
829.4209	678.9958	65535	64659.8
829.5657	681.1002	65535	64658.1
829.7105	683.204	65535	64654.15
829.8553	685.3072	65535	64654.35
830.0001	687.4097	65535	64658.45
830.1449	689.5115	65535	64656.6
830.2898	691.6127	65535	64655.2
830.4346	693.7132	65535	64657.3
830.5794	695.8131	65535	64649.8
830.7243	697.9123	65535	64655.25
830.8691	700.0109	65535	64655.1
831.014	702.1089	65535	64654.5
831.1588	704.2061	65535	64653.3
831.3037	706.3028	65535	64651.75
831.4486	708.3987	65535	64652.55
831.5935	710.4941	65535	64655.55
831.7383	712.5887	65535	64654.6
831.8832	714.6827	65535	64648.35
832.0281	716.7761	65535	64653.8
832.173	718.8688	65535	64648.9
832.3179	720.9608	65535	64650.3
832.4628	723.0522	65535	64648.7
832.6077	725.1429	65535	64651.7
832.7527	727.233	65535	64651.7
832.8976	729.3224	65535	64651.8
833.0425	731.4112	65535	64649.7
833.1874	733.4993	65535	64648.85
833.3324	735.5867	65535	64649.1
833.4773	737.6735	65535	64648.75
833.6222	739.7596	65535	64650.5
833.7672	741.845	65535	64651.4
833.9122	743.9298	65535	64646.9
834.0571	746.014	65535	64650.45
834.2021	748.0974	65535	64645.6
834.347	750.1802	65535	64649.15
834.492	752.2624	65535	64648.85
834.637	754.3439	65535	64646.75
834.782	756.4247	65535	64641.35
834.9269	758.5048	65535	64650.85
835.0719	760.5843	65535	64647.55
835.2169	762.6631	65535	64649.2
835.3619	764.7413	65535	64648.95
835.5069	766.8188	65535	64646.6
835.6519	768.8956	65535	64646.15
835.7969	770.9718	65535	64647.55
835.9419	773.0473	65535	64649.85
836.0869	775.1221	65535	64647.05
836.232	777.1962	65535	64646.6
836.377	779.2697	65535	64647.35
836.522	781.3426	65535	64627.2
836.667	783.4147	65535	64643
836.8121	785.4862	65535	64646.4
836.9571	787.557	65535	64648.15
837.1021	789.6271	65535	64647.15
837.2472	791.6966	65535	64644.8
837.3922	793.7654	65535	64646.3
837.5373	795.8335	65535	64647.15
837.6823	797.901	65535	64647.05
837.8274	799.9678	65535	64645.6
837.9724	802.0339	65535	64644.25
838.1175	804.0993	65535	64637.5
838.2626	806.1641	65535	64645.05
838.4076	808.2282	65535	64647.2
838.5527	810.2916	65535	64644.15
838.6978	812.3544	65535	64647.3
838.8428	814.4164	65535	64645.2
838.9879	816.4778	65535	64646.2
839.133	818.5385	65535	64641.7
839.2781	820.5986	65535	64644.5
839.4232	822.658	65535	64642.35
839.5682	824.7166	65535	64647.55
839.7133	826.7747	65535	64645.8
839.8584	828.832	65535	64642.95
840.0035	830.8886	65535	64643.05
840.1486	832.9446	65535	64642.2
840.2937	834.9999	65535	64644.95
840.4388	837.0545	65535	64640.3
840.5839	839.1085	65535	64642.15
840.729	841.1618	65535	64640.95
840.8741	843.2143	65535	64644.45
841.0192	845.2662	65535	64643.65
841.1643	847.3175	65535	64647.05
841.3095	849.368	65535	64642
841.4546	851.4179	65535	64642
841.5997	853.467	65535	64643.5
841.7448	855.5155	65535	64641.5
841.8899	857.5633	65535	64644.25
842.0351	859.6105	65535	64644.05
842.1802	861.6569	65535	64644.3
842.3253	863.7027	65535	64641.05
842.4704	865.7478	65535	64643.15
842.6156	867.7922	65535	64642
842.7607	869.8359	65535	64641.4
842.9058	871.8789	65535	64639.3
843.0509	873.9212	65535	64611.55
843.1961	875.9629	65535	64638.1
843.3412	878.0039	65535	64640.1
843.4863	880.0441	65535	64644.5
843.6315	882.0837	65535	64642.4
843.7766	884.1226	65535	64640.2
843.9218	886.1609	65535	64642.1
844.0669	888.1984	65535	64643.4
844.212	890.2352	65535	64642.45
844.3572	892.2714	65535	64636.7
844.5023	894.3069	65535	64639.75
844.6475	896.3416	65535	64637.25
844.7926	898.3757	65535	64639.05
844.9377	900.4091	65535	64642.4
845.0829	902.4418	65535	64635.65
845.228	904.4739	65535	64635.95
845.3732	906.5052	65535	64640.05
845.5183	908.5358	65535	64637.25
845.6635	910.5658	65535	64639.75
845.8086	912.595	65535	64639.1
845.9538	914.6236	65535	64643.9
846.0989	916.6515	65535	64641.45
846.2441	918.6786	65535	64639.45
846.3892	920.7051	65535	64637.45
846.5344	922.7309	65535	64638.45
846.6795	924.756	65535	64638.7
846.8246	926.7804	65535	64638.5
846.9698	928.8041	65535	64631.95
847.1149	930.8272	65535	64640.25
847.2601	932.8495	65535	64634.2
847.4052	934.8711	65535	64638
847.5504	936.892	65535	64639
847.6955	938.9123	65535	64637.9
847.8407	940.9318	65535	64639.1
847.9858	942.9506	65535	64638.85
848.131	944.9688	65535	64636.55
848.2761	946.9862	65535	64640.2
848.4213	949.003	65535	64637.6
848.5664	951.019	65535	64641.45
848.7115	953.0344	65535	64640.25
848.8567	955.0491	65535	64639.35
849.0018	957.063	65535	64641.75
849.147	959.0763	65535	64638.75
849.2921	961.0888	65535	64638.2
849.4373	963.1007	65535	64638.75
849.5824	965.1119	65535	64639.95
849.7275	967.1223	65535	64639.95
849.8727	969.1321	65535	64638.1
850.0178	971.1412	65535	64641.45
850.1629	973.1495	65535	64638.1
850.3081	975.1572	65535	64603.9
850.4532	977.1641	65535	64640.6
850.5983	979.1704	65535	64638.65
850.7435	981.1759	65535	64635.65
850.8886	983.1808	65535	64636.9
851.0337	985.1849	65535	64623.9
851.1788	987.1884	65535	64635.45
851.324	989.1911	65535	64633.75
851.4691	991.1932	65535	64636
851.6142	993.1945	65535	64637.5
851.7593	995.1951	65535	64639.8
851.9045	997.1951	65535	64632.85
852.0496	999.1943	65535	64637.25
852.1947	1001.1928	65535	64637.65
852.3398	1003.1906	65535	64634.3
852.4849	1005.1877	65535	64635.25
852.63	1007.1841	65535	64637.05
852.7751	1009.1798	65535	64637.75
852.9202	1011.1748	65535	64636.5
853.0653	1013.1691	65535	64635.9
853.2104	1015.1627	65535	64637.55
853.3555	1017.1556	65535	64639.05
853.5006	1019.1477	65535	64634.65
853.6457	1021.1392	65535	64639.35
853.7908	1023.1299	65535	64637.7
853.9359	1025.12	65535	64636.85
854.081	1027.1093	65535	64642.8
854.2261	1029.0979	65535	64640.35
854.3712	1031.0859	65535	64639.05
854.5163	1033.0731	65535	64638.9
854.6613	1035.0596	65535	64640.3
854.8064	1037.0454	65535	64637.1
854.9515	1039.0304	65535	64637.6
855.0965	1041.0148	65535	64637.9
855.2416	1042.9985	65535	64637.2
855.3867	1044.9814	65535	64639
855.5317	1046.9636	65535	64638.5
855.6768	1048.9452	65535	64639.45
855.8219	1050.926	65535	64638.05
855.9669	1052.9061	65535	64639.05
856.112	1054.8855	65535	64636.05
856.257	1056.8642	65535	64635.55
856.4021	1058.8421	65535	64633.7
856.5471	1060.8194	65535	64636.4
856.6921	1062.7959	65535	64638.05
856.8372	1064.7717	65535	64637
856.9822	1066.7469	65535	64633.95
857.1272	1068.7213	65535	64633.6
857.2723	1070.695	65535	64635.75
857.4173	1072.6679	65535	64636.9
857.5623	1074.6402	65535	64638.2
857.7073	1076.6117	65535	64633.9
857.8523	1078.5826	65535	64636.85
857.9973	1080.5527	65535	64635.3
858.1423	1082.5221	65535	64636
858.2873	1084.4908	65535	64634.9
858.4323	1086.4587	65535	64635.8
858.5773	1088.426	65535	64637.25
858.7223	1090.3925	65535	64631.65
858.8673	1092.3584	65535	64638.1
859.0123	1094.3235	65535	64637.2
859.1573	1096.2879	65535	64635.4
859.3022	1098.2515	65535	64637.2
859.4472	1100.2145	65535	64636.2
859.5922	1102.1767	65535	64635.7
859.7371	1104.1382	65535	64635.45
859.8821	1106.099	65535	64635.1
860.027	1108.0591	65535	64634.8
860.172	1110.0185	65535	64634
860.3169	1111.9771	65535	64638.1
860.4619	1113.9351	65535	64634.25
860.6068	1115.8923	65535	64638.3
860.7517	1117.8488	65535	64633.35
860.8967	1119.8045	65535	64638
861.0416	1121.7596	65535	64636.9
861.1865	1123.7139	65535	64637.6
861.3314	1125.6675	65535	64638.6
861.4763	1127.6204	65535	64637.65
861.6212	1129.5726	65535	64636.9
861.7661	1131.524	65535	64634.85
861.911	1133.4748	65535	64634.8
862.0559	1135.4248	65535	64634.5
862.2008	1137.3741	65535	64638.05
862.3457	1139.3226	65535	64635.6
862.4905	1141.2705	65535	64638.25
862.6354	1143.2176	65535	64630.65
862.7803	1145.164	65535	64633.85
862.9251	1147.1097	65535	64635.05
863.07	1149.0546	65535	64635.15
863.2148	1150.9989	65535	64635.5
863.3597	1152.9424	65535	64633.8
863.5045	1154.8852	65535	64635.25
863.6493	1156.8272	65535	64636.9
863.7942	1158.7686	65535	64630.85
863.939	1160.7092	65535	64635.85
864.0838	1162.6491	65535	64634.15
864.2286	1164.5883	65535	64636.25
864.3734	1166.5267	65535	64634.85
864.5182	1168.4644	65535	64635.9
864.663	1170.4014	65535	64631.3
864.8078	1172.3377	65535	64638.25
864.9526	1174.2732	65535	64635.9
865.0974	1176.2081	65535	64637.35
865.2421	1178.1421	65535	64629.65
865.3869	1180.0755	65535	64639.6
865.5317	1182.0082	65535	64636.85
865.6764	1183.9401	65535	64634.75
865.8212	1185.8713	65535	64637.6
865.9659	1187.8017	65535	64638.35
866.1106	1189.7315	65535	64639.85
866.2554	1191.6605	65535	64608.15
866.4001	1193.5888	65535	64636.85
866.5448	1195.5163	65535	64638.15
866.6895	1197.4432	65535	64636.6
866.8342	1199.3693	65535	64638.15
866.9789	1201.2947	65535	64634.85
867.1236	1203.2193	65535	64634.95
867.2683	1205.1432	65535	64635.5
867.413	1207.0664	65535	64635.1
867.5576	1208.9889	65535	64632.9
867.7023	1210.9106	65535	64635.85
867.847	1212.8316	65535	64638.4
867.9916	1214.7519	65535	64631.1
868.1363	1216.6715	65535	64636.15
868.2809	1218.5903	65535	64638.65
868.4255	1220.5084	65535	64635.7
868.5701	1222.4257	65535	64636.6
868.7148	1224.3424	65535	64637.4
868.8594	1226.2583	65535	64631.35
869.004	1228.1735	65535	64634.55
869.1486	1230.0879	65535	64636.8
869.2932	1232.0016	65535	64636.8
869.4377	1233.9146	65535	64635.45
869.5823	1235.8269	65535	64636.7
869.7269	1237.7384	65535	64638.65
869.8715	1239.6492	65535	64637.5
870.016	1241.5592	65535	64634.45
870.1606	1243.4686	65535	64637.6
870.3051	1245.3772	65535	64636.35
870.4496	1247.285	65535	64635.05
870.5941	1249.1922	65535	64634.7
870.7387	1251.0986	65535	64637.05
870.8832	1253.0042	65535	64636
871.0277	1254.9092	65535	64635.45
871.1722	1256.8134	65535	64637.7
871.3167	1258.7169	65535	64635.15
871.4611	1260.6196	65535	64637.15
871.6056	1262.5216	65535	64636.25
871.7501	1264.4229	65535	64636.7
871.8945	1266.3234	65535	64635.05
872.039	1268.2232	65535	64636.95
872.1834	1270.1223	65535	64634.95
872.3278	1272.0207	65535	64636.4
872.4723	1273.9183	65535	64629.45
872.6167	1275.8151	65535	64635.45
872.7611	1277.7113	65535	64635.5
872.9055	1279.6067	65535	64634.85
873.0499	1281.5014	65535	64634.25
873.1943	1283.3953	65535	64634.15
873.3386	1285.2885	65535	64636.65
873.483	1287.181	65535	64636.8
873.6274	1289.0727	65535	64637.9
873.7717	1290.9637	65535	64637.15
873.9161	1292.854	65535	64636.6
874.0604	1294.7435	65535	64634.95
874.2047	1296.6323	65535	64635.25
874.349	1298.5204	65535	64630.7
874.4933	1300.4077	65535	64634.1
874.6376	1302.2943	65535	64636.9
874.7819	1304.1802	65535	64637.45
874.9262	1306.0653	65535	64634.7
875.0705	1307.9497	65535	64636.65
875.2147	1309.8333	65535	64636.05
875.359	1311.7162	65535	64635.55
875.5032	1313.5984	65535	64633.85
875.6475	1315.4798	65535	64624.2
875.7917	1317.3605	65535	64618.45
875.9359	1319.2405	65535	64635.3
876.0801	1321.1197	65535	64637.7
876.2243	1322.9982	65535	64633.35
876.3685	1324.876	65535	64637.2
876.5127	1326.753	65535	64634.8
876.6569	1328.6293	65535	64634.85
876.801	1330.5048	65535	64633.65
876.9452	1332.3796	65535	64637.85
877.0893	1334.2537	65535	64610.8
877.2335	1336.127	65535	64635.9
877.3776	1337.9996	65535	64636.85
877.5217	1339.8714	65535	64633.3
877.6658	1341.7426	65535	64592.65
877.8099	1343.6129	65535	64634.95
877.954	1345.4826	65535	64634.7
878.0981	1347.3515	65535	64631.55
878.2422	1349.2196	65535	64637.55
878.3862	1351.087	65535	64635.5
878.5303	1352.9537	65535	64636.4
878.6743	1354.8197	65535	64635.05
878.8184	1356.6849	65535	64635.15
878.9624	1358.5493	65535	64637
879.1064	1360.4131	65535	64635.55
879.2504	1362.276	65535	64637.4
879.3944	1364.1383	65535	64636.55
879.5384	1365.9998	65535	64630.8
879.6823	1367.8606	65535	64636.25
879.8263	1369.7206	65535	64635
879.9702	1371.5799	65535	64634.6
880.1142	1373.4384	65535	64637.2
880.2581	1375.2962	65535	64635.05
880.402	1377.1533	65535	64636.75
880.5459	1379.0096	65535	64634.95
880.6898	1380.8652	65535	64636.85
880.8337	1382.7201	65535	64636.7
880.9776	1384.5742	65535	64635.4
881.1215	1386.4275	65535	64634.3
881.2653	1388.2802	65535	64638.45
881.4092	1390.132	65535	64636
881.553	1391.9832	65535	64636.9
881.6968	1393.8336	65535	64636.1
881.8406	1395.6832	65535	64635.9
881.9844	1397.5322	65535	64635
882.1282	1399.3803	65535	64630.5
882.272	1401.2278	65535	64637.2
882.4158	1403.0745	65535	64636.9
882.5595	1404.9204	65535	64636.55
882.7033	1406.7656	65535	64635.2
882.847	1408.6101	65535	64636.2
882.9908	1410.4538	65535	64636.8
883.1345	1412.2968	65535	64636.4
883.2782	1414.139	65535	64636.75
883.4219	1415.9805	65535	64636.4
883.5656	1417.8213	65535	64630.4
883.7092	1419.6613	65535	64637.05
883.8529	1421.5006	65535	64634.85
883.9965	1423.3391	65535	64636.15
884.1402	1425.1769	65535	64634.8
884.2838	1427.0139	65535	64635.4
884.4274	1428.8502	65535	64632.8
884.571	1430.6858	65535	64636.55
884.7146	1432.5206	65535	64636.05
884.8582	1434.3547	65535	64635.5
885.0018	1436.188	65535	64635.55
885.1453	1438.0206	65535	64636.1
885.2889	1439.8524	65535	64636.05
885.4324	1441.6835	65535	64634.2
885.5759	1443.5139	65535	64631.5
885.7194	1445.3435	65535	64636.95
885.8629	1447.1724	65535	64638.3
886.0064	1449.0005	65535	64635.9
886.1499	1450.8279	65535	64635.05
886.2933	1452.6545	65535	64634.95
886.4368	1454.4804	65535	64636.5
886.5802	1456.3056	65535	64629.15
886.7237	1458.13	65535	64635.8
886.8671	1459.9536	65535	64636.5
887.0105	1461.7766	65535	64637
887.1539	1463.5987	65535	64634.1
887.2972	1465.4202	65535	64637.1
887.4406	1467.2409	65535	64636.85
887.584	1469.0608	65535	64635.2
887.7273	1470.88	65535	64636.35
887.8706	1472.6984	65535	64637.35
888.0139	1474.5161	65535	64634.1
888.1572	1476.3331	65535	64636.5
888.3005	1478.1493	65535	64632.6
888.4438	1479.9648	65535	64637.45
888.5871	1481.7795	65535	64636.05
888.7303	1483.5935	65535	64636.65
888.8736	1485.4067	65535	64636.65
889.0168	1487.2192	65535	64637.7
889.16	1489.031	65535	64634.1
889.3032	1490.842	65535	64635.9
889.4464	1492.6522	65535	64636.65
889.5896	1494.4618	65535	64636.4
889.7327	1496.2705	65535	64637.4
889.8759	1498.0785	65535	64637.25
890.019	1499.8858	65535	64635
890.1622	1501.6924	65535	64638.7
890.3053	1503.4981	65535	64637.45
890.4484	1505.3032	65535	64637
890.5914	1507.1075	65535	64636.15
890.7345	1508.911	65535	64637.25
890.8776	1510.7138	65535	64638.35
891.0206	1512.5159	65535	64635.9
891.1637	1514.3172	65535	64636.8
891.3067	1516.1178	65535	64638.1
891.4497	1517.9176	65535	64635.4
891.5927	1519.7166	65535	64636.4
891.7357	1521.515	65535	64631.2
891.8786	1523.3126	65514.75	64616.7
892.0216	1525.1094	65535	64635.55
892.1645	1526.9055	65529.3	64632.45
892.3074	1528.7008	65530.7	64632.3
892.4503	1530.4954	65480.45	64575.85
892.5932	1532.2893	65532	64635.9
892.7361	1534.0824	65473.05	64570.5
892.879	1535.8747	65347.2	64448.25
893.0218	1537.6663	65529.5	64630.65
893.1647	1539.4572	64995.7	64099.25
893.3075	1541.2473	65305.95	64407.8
893.4503	1543.0367	65240.85	64344.95
893.5931	1544.8253	65160.9	64256.7
893.7359	1546.6132	65248.95	64347.9
893.8787	1548.4003	64970.2	64062.55
894.0214	1550.1867	64859.5	63951.95
894.1642	1551.9723	64713.4	63813.2
894.3069	1553.7572	64765.7	63868.8
894.4496	1555.5414	65035	64138.95
894.5923	1557.3247	63337.5	62441.4
894.735	1559.1074	64808.3	63911.8
894.8777	1560.8893	64109.35	63213.15
895.0204	1562.6705	64370.55	63473.35
895.163	1564.4509	63333.25	62435.7
895.3056	1566.2305	63910.65	63014.8
895.4482	1568.0094	64557.3	63659.8
895.5908	1569.7876	63957.5	63061.75
895.7334	1571.565	63271.8	62374.8
895.876	1573.3417	63687.75	62793.55
896.0186	1575.1176	63502.4	62606.9
896.1611	1576.8928	63145.8	62250.3
896.3036	1578.6672	62477.9	61583.05
896.4461	1580.4409	62872.8	61979.3
896.5886	1582.2138	61903.75	61006.45
896.7311	1583.986	62148.45	61250.3
896.8736	1585.7575	61348.95	60452.65
897.0161	1587.5282	61453.7	60559.45
897.1585	1589.2981	61520.95	60627.85
897.3009	1591.0673	60817.4	59919.75
897.4433	1592.8358	60337.45	59443.85
897.5857	1594.6035	60883.3	59984.7
897.7281	1596.3704	60899.4	60003
897.8705	1598.1366	59939.35	59043.65
898.0128	1599.9021	59485.6	58591.2
898.1551	1601.6668	60125.85	59228.85
898.2975	1603.4308	59652.25	58756.25
898.4398	1605.194	59982.7	59082.95
898.5821	1606.9564	58845.6	57950.6
898.7243	1608.7182	59405.05	58507.65
898.8666	1610.4791	58870.35	57976.45
899.0088	1612.2394	59308.35	58413.55
899.1511	1613.9988	58802.75	57907.1
899.2933	1615.7576	59419.85	58525.95
899.4355	1617.5156	59358.6	58458.3
899.5776	1619.2728	60093.3	59199.4
899.7198	1621.0293	59027.1	58132.25
899.862	1622.785	59000.3	58102.5
900.0041	1624.54	59361.6	58465.45
900.1462	1626.2942	58816.25	57919.9
900.2883	1628.0477	57819.6	56922.3
900.4304	1629.8005	57265.65	56367.95
900.5725	1631.5525	57626.75	56732.7
900.7145	1633.3037	56667.35	55773.55
900.8566	1635.0542	56583.3	55688.55
900.9986	1636.804	56623.15	55727.4
901.1406	1638.553	56021.25	55020.25
901.2826	1640.3013	56037.55	55142.8
901.4245	1642.0488	55490.4	54594.7
901.5665	1643.7955	55716.2	54822.1
901.7085	1645.5416	55309.5	54416.3
901.8504	1647.2868	55119.6	54225.35
901.9923	1649.0313	55451.75	54556.75
902.1342	1650.7751	55219.6	54321.35
902.2761	1652.5181	54958.25	54063.05
902.4179	1654.2604	55019.2	54124.45
902.5598	1656.0019	55520.5	54624.95
902.7016	1657.7427	55331.25	54437.85
902.8434	1659.4828	55713.75	54818.9
902.9852	1661.222	55597.05	54701
903.127	1662.9606	55753.85	54860.7
903.2687	1664.6984	55361.45	54467.2
903.4105	1666.4354	55170.8	54274.6
903.5522	1668.1717	54202.9	53308.2
903.6939	1669.9072	53628.1	52735.55
903.8356	1671.642	53159.25	52262.4
903.9773	1673.3761	52827.8	51935.7
904.119	1675.1094	52513.45	51621.1
904.2606	1676.8419	52039.5	51145.7
904.4022	1678.5737	51709.5	50813.75
904.5439	1680.3048	51428.4	50534.2
904.6855	1682.0351	51137.95	50245.85
904.827	1683.7646	50873.45	49976.85
904.9686	1685.4934	50777.6	49885.6
905.1101	1687.2215	50291.7	49395.45
905.2517	1688.9488	50293.25	49399.55
905.3932	1690.6754	49717.35	48823.85
905.5347	1692.4012	49742	48849.75
905.6761	1694.1263	49588.05	48694.85
905.8176	1695.8506	49421.35	48524.3
905.9591	1697.5742	49172.7	48279.9
906.1005	1699.297	48910.4	48018.9
906.2419	1701.0191	48701.15	47807.1
906.3833	1702.7404	48515.65	47623.4
906.5246	1704.461	48151.55	47255.95
906.666	1706.1808	48066.95	47170.8
906.8073	1707.8999	47938.75	47045.7
906.9487	1709.6182	47796.35	46902.55
907.09	1711.3358	47624.75	46732.25
907.2313	1713.0527	47421	46527.4
907.3725	1714.7688	47192.45	46296.1
907.5138	1716.4841	46905.9	46010.85
907.655	1718.1987	46939	46041.35
907.7962	1719.9126	46735.6	45843.8
907.9374	1721.6257	46510.55	45613.8
908.0786	1723.338	46465.1	45572.25
908.2198	1725.0496	46101.8	45208.15
908.3609	1726.7605	46021.7	45127.65
908.502	1728.4706	45909.5	45015.25
908.6431	1730.18	45583.55	44687.65
908.7842	1731.8886	45563.15	44670.1
908.9253	1733.5964	45407.6	44495.1
909.0664	1735.3036	45278.2	44383.2
909.2074	1737.0099	45115.35	44221.45
909.3484	1738.7156	44927.4	44035.2
909.4894	1740.4204	44696.75	43802.95
909.6304	1742.1246	44617.05	43724.35
909.7714	1743.8279	44513.5	43622.15
909.9123	1745.5306	44432.25	43539.75
910.0532	1747.2325	44231.3	43340.4
910.1941	1748.9336	44114.85	43222
910.335	1750.634	43925.3	43031.65
910.4759	1752.3336	43800.8	42907.75
910.6168	1754.0325	43651.8	42759.5
910.7576	1755.7307	43583.8	42692.6
910.8984	1757.4281	43515.85	42624.25
911.0392	1759.1247	43372.55	42471.35
911.18	1760.8206	43232.9	42335
911.3208	1762.5158	43166.9	42271.35
911.4615	1764.2102	42967.05	42075
911.6022	1765.9039	42807.7	41914.45
911.7429	1767.5968	42719.4	41828.9
911.8836	1769.289	42534.75	41641.45
912.0243	1770.9804	42440.1	41546.6
912.1649	1772.6711	42465.15	41573.25
912.3056	1774.361	42295.35	41401.45
912.4462	1776.0502	42145.05	41252.15
912.5868	1777.7386	42002.6	41109.1
912.7274	1779.4263	41884.7	40990.45
912.8679	1781.1132	41802.45	40910.5
913.0084	1782.7994	41626.4	40732.8
913.149	1784.4849	41560.35	40667.65
913.2895	1786.1696	41411.9	40513.9
913.4299	1787.8535	41212.25	40320.3
913.5704	1789.5367	41108.65	40217.15
913.7108	1791.2192	41088.95	40196.9
913.8513	1792.9009	40850.6	39930.55
913.9917	1794.5818	40749.9	39856.45
914.132	1796.2621	40642.3	39749.25
914.2724	1797.9415	40516.6	39625.95
914.4128	1799.6202	40391.9	39499.8
914.5531	1801.2982	40278.35	39387.4
914.6934	1802.9755	40208.85	39315.2
914.8337	1804.6519	40126.3	39232.7
914.9739	1806.3277	39874.2	38981.55
915.1142	1808.0027	39742	38850.35
915.2544	1809.6769	39669.2	38776.1
915.3946	1811.3504	39553	38659.6
915.5348	1813.0231	39473.2	38580.5
915.675	1814.6951	39352.65	38461.55
915.8151	1816.3664	39407.45	38512.9
915.9553	1818.0369	39216.95	38324.3
916.0954	1819.7067	38985.85	38093.9
916.2355	1821.3757	38966.8	38072.9
916.3755	1823.044	38887.65	37995.4
916.5156	1824.7115	38781.7	37889.35
916.6556	1826.3783	38536.65	37647.15
916.7956	1828.0443	38471.2	37579.35
916.9356	1829.7096	38336.55	37442.25
917.0756	1831.3741	38309.55	37414.1
917.2155	1833.0379	38184.8	37293
917.3555	1834.701	38057.25	37161.85
917.4954	1836.3633	38004.95	37110.95
917.6353	1838.0248	37907.4	37016
917.7751	1839.6856	37795.3	36904
917.915	1841.3457	37788.95	36898.65
918.0548	1843.005	37614.6	36724.65
918.1946	1844.6636	37482.05	36591.55
918.3344	1846.3214	37386.55	36493.3
918.4742	1847.9785	37347	36454.5
918.6139	1849.6349	37167.35	36273.05
918.7537	1851.2904	37111.7	36210.85
918.8934	1852.9453	37003.95	36111.85
919.0331	1854.5994	36866.7	35970.9
919.1727	1856.2528	36944	36046.3
919.3124	1857.9054	36685.5	35791.2
919.452	1859.5572	36689.35	35797.65
919.5916	1861.2083	36572.1	35679.1
919.7312	1862.8587	36569.45	35676.1
919.8708	1864.5084	36412.25	35520.3
920.0103	1866.1572	36266.45	35374.55
920.1498	1867.8054	36106.8	35214.5
920.2893	1869.4528	36031.2	35140.2
920.4288	1871.0994	35948.4	35057.1
920.5683	1872.7453	35877	34985.05
920.7077	1874.3905	35734.8	34836.6
920.8471	1876.0349	35614.1	34722.2
920.9865	1877.6786	35641.2	34749.75
921.1259	1879.3215	35553.55	34660.45
921.2653	1880.9637	35460.2	34567.75
921.4046	1882.6051	35358.85	34468.8
921.5439	1884.2458	35254.05	34359.55
921.6832	1885.8858	35092.55	34200.35
921.8225	1887.525	35025.05	34132.6
921.9617	1889.1634	34888.75	33995.45
922.101	1890.8011	34744	33851.15
922.2402	1892.4381	34607.05	33714.2
922.3794	1894.0743	34606.75	33717
922.5185	1895.7098	34458.95	33565.8
922.6577	1897.3446	34381.35	33487.45
922.7968	1898.9786	34252.65	33356.95
922.9359	1900.6118	34189.25	33296.05
923.075	1902.2443	34022.9	33126.15
923.214	1903.8761	33953.4	33062.25
923.3531	1905.5071	33754.15	32861.4
923.4921	1907.1374	33632.8	32742.75
923.6311	1908.7669	33575.7	32684.15
923.77	1910.3957	33498.5	32606.15
923.909	1912.0237	33321.35	32429.65
924.0479	1913.651	33216.85	32325.8
924.1868	1915.2776	33153.55	32262.5
924.3257	1916.9034	33003.8	32111.65
924.4646	1918.5285	32814	31924.15
924.6034	1920.1528	32654.55	31762.65
924.7422	1921.7764	32563.1	31671.8
924.881	1923.3992	32468.4	31575
925.0198	1925.0213	32240.15	31346.85
925.1586	1926.6427	32172.5	31280.75
925.2973	1928.2633	32150.05	31150.2
925.436	1929.8832	31926.4	31032.4
925.5747	1931.5023	31807.6	30916.55
925.7134	1933.1207	31700.2	30808.7
925.852	1934.7383	31653.15	30761.1
925.9906	1936.3552	31488.35	30595.5
926.1292	1937.9714	31434.3	30541.8
926.2678	1939.5868	31265.95	30370.4
926.4064	1941.2015	31083.05	30190.85
926.5449	1942.8154	30972.7	30079.2
926.6834	1944.4286	30833.45	29942.3
926.8219	1946.041	30701.5	29792.7
926.9604	1947.6528	30524.2	29628.3
927.0988	1949.2637	30456.05	29563.9
927.2372	1950.8739	30317.85	29426.35
927.3756	1952.4834	30286.45	29396
927.514	1954.0921	30216.1	29324.35
927.6523	1955.7001	30083.4	29187.6
927.7907	1957.3074	29994.2	29100.6
927.929	1958.9139	29864.45	28971.3
928.0673	1960.5197	29714	28822.2
928.2055	1962.1247	29588.5	28696.8
928.3438	1963.729	29455.75	28565.95
928.482	1965.3325	29303.75	28386.65
928.6202	1966.9353	29239	28349.75
928.7584	1968.5374	29158.7	28265.5
928.8965	1970.1387	29039.15	28147.05
929.0346	1971.7393	28921.25	28030.35
929.1727	1973.3392	28844.75	27953.6
929.3108	1974.9383	28714.85	27824
929.4489	1976.5366	28573.2	27683.25
929.5869	1978.1342	28544.55	27651.95
929.7249	1979.7311	28480.05	27587.8
929.8629	1981.3273	28382.65	27492.15
930.0009	1982.9227	28260.45	27367.25
930.1388	1984.5173	28116.45	27226.9
930.2767	1986.1112	27994.2	27103.3
930.4146	1987.7044	27957.75	27068.6
930.5525	1989.2968	27874.3	26982.35
930.6904	1990.8885	27762.55	26868.45
930.8282	1992.4795	27701.35	26808.85
930.966	1994.0697	27580.7	26689.8
931.1038	1995.6592	27481.55	26591.1
931.2415	1997.2479	27343.65	26452.75
931.3793	1998.8359	27292.95	26400.2
931.517	2000.4232	27171.95	26279.75
931.6547	2002.0097	27051.55	26161.35
931.7923	2003.5955	26893.65	26003.35
931.93	2005.1805	26926	26033.15
932.0676	2006.7648	26837.9	25949
932.2052	2008.3484	26729.7	25836
932.3427	2009.9312	26726.05	25835.8
932.4803	2011.5133	26575.05	25682.55
932.6178	2013.0946	26500.45	25610.8
932.7553	2014.6752	26408.55	25517.75
932.8928	2016.2551	26368.45	25477.65
933.0302	2017.8342	26205.55	25315.05
933.1676	2019.4126	26147.9	25257.15
933.305	2020.9902	26016.2	25124.7
933.4424	2022.5672	25922.75	25029.2
933.5798	2024.1433	25889.9	24993.3
933.7171	2025.7188	25755.95	24866.85
933.8544	2027.2935	25693.1	24799.75
933.9917	2028.8674	25619.1	24728
934.129	2030.4406	25500.05	24610.6
934.2662	2032.0131	25369.65	24479.5
934.4034	2033.5849	25256.55	24359.7
934.5406	2035.1559	25223.45	24331.7
934.6778	2036.7261	25180.6	24290.45
934.8149	2038.2957	25057	24166.2
934.952	2039.8645	25034.15	24143.1
935.0891	2041.4325	25003.1	24108.45
935.2262	2042.9998	24880.25	23991.35
935.3632	2044.5664	24879.2	23987.95
935.5002	2046.1323	24716.3	23823.55
935.6372	2047.6974	24638.35	23748.35
935.7742	2049.2617	24599.85	23708.9
935.9111	2050.8254	24551.2	23639.35
936.048	2052.3883	24492.15	23601.75
936.1849	2053.9504	24401.3	23510.2
936.3218	2055.5118	24325.55	23433
936.4586	2057.0725	24187.8	23291.5
936.5955	2058.6325	24120.6	23229.4
936.7323	2060.1917	24051.95	23162.1
936.869	2061.7502	24018.15	23124.5
937.0058	2063.3079	23896.95	23007.1
937.1425	2064.8649	23791.55	22897.05
937.2792	2066.4212	23736.45	22844.5
937.4159	2067.9767	23675.3	22785.15
937.5525	2069.5315	23564.25	22671.25
937.6891	2071.0856	23457.4	22567
937.8257	2072.6389	23334.65	22443.9
937.9623	2074.1915	23208.9	22320.35
938.0989	2075.7433	23104.7	22212.7
938.2354	2077.2945	23080.2	22190.45
938.3719	2078.8448	22984.55	22093.4
938.5084	2080.3945	22921.55	22029.4
938.6448	2081.9434	22890.95	22000.9
938.7812	2083.4916	22782.8	21891.6
938.9176	2085.039	22675.45	21783.6
939.054	2086.5857	22614.55	21721.1
939.1903	2088.1317	22610.85	21719.55
939.3267	2089.677	22489.65	21596.9
939.463	2091.2215	22420.8	21529.9
939.5992	2092.7652	22378.95	21485.25
939.7355	2094.3083	22349.8	21458.4
939.8717	2095.8506	22267.95	21378.3
940.0079	2097.3921	22225.85	21335.55
940.1441	2098.933	22095.15	21202.7
940.2802	2100.4731	22050.35	21158.45
940.4163	2102.0124	22028.35	21130.25
940.5524	2103.5511	21976.5	21086.2
940.6885	2105.089	21922.3	21030.45
940.8245	2106.6261	21867.5	20976.5
940.9606	2108.1626	21758.1	20864.45
941.0965	2109.6983	21738.85	20821.8
941.2325	2111.2332	21619.4	20728.5
941.3684	2112.7675	21560.65	20668.9
941.5044	2114.301	21473.05	20579.65
941.6403	2115.8337	21467.95	20574.3
941.7761	2117.3657	21387.6	20498.15
941.912	2118.897	21370.95	20479.1
942.0478	2120.4276	21273.7	20376.15
942.1835	2121.9575	21149.9	20260.7
942.3193	2123.4866	21149.45	20242.25
942.455	2125.0149	21100.45	20207.3
942.5907	2126.5426	20971.3	20079.7
942.7264	2128.0695	20906.55	20012.4
942.8621	2129.5956	20860.55	19971.5
942.9977	2131.1211	20811.25	19916.2
943.1333	2132.6458	20756.8	19866.5
943.2689	2134.1698	20687.3	19794.65
943.4044	2135.693	20610.6	19716.7
943.54	2137.2155	20593.15	19699.45
943.6755	2138.7373	20534.3	19642.05
943.8109	2140.2584	20451.2	19560.05
943.9464	2141.7787	20368.15	19472.9
944.0818	2143.2983	20231.5	19339.05
944.2172	2144.8171	20149.15	19259.05
944.3526	2146.3353	20090.35	19197.45
944.4879	2147.8527	20036.5	19145.35
944.6232	2149.3693	20017.05	19128.3
944.7585	2150.8853	19902.3	19010.9
944.8938	2152.4005	19812.2	18920.3
945.029	2153.9149	19783.4	18891.1
945.1642	2155.4287	19716.15	18824.45
945.2994	2156.9417	19648.2	18755.1
945.4346	2158.454	19610.35	18714.7
945.5697	2159.9655	19541.75	18650.85
945.7048	2161.4764	19522.6	18633.4
945.8399	2162.9865	19450.65	18559.35
945.9749	2164.4958	19397.15	18506.4
946.1099	2166.0045	19335.35	18439.75
946.2449	2167.5124	19328.85	18436.35
946.3799	2169.0195	19238.4	18347.75
946.5148	2170.526	19165.5	18274.45
946.6498	2172.0317	19122.35	18231.45
946.7846	2173.5367	19051.15	18156.55
946.9195	2175.0409	19005.05	18113.6
947.0543	2176.5445	19021.65	18133.9
947.1891	2178.0473	18933.2	18042.5
947.3239	2179.5494	18801.6	17907.3
947.4587	2181.0507	18726.15	17833.35
947.5934	2182.5513	18653.45	17763.15
947.7281	2184.0512	18639.3	17748.6
947.8628	2185.5504	18562.35	17671.8
947.9974	2187.0488	18480.85	17590.3
948.132	2188.5465	18410.45	17518.2
948.2666	2190.0435	18336.25	17443.5
948.4012	2191.5397	18289	17397.9
948.5357	2193.0353	18240.8	17349.45
948.6702	2194.5301	18134.25	17241.6
948.8047	2196.0241	18038.4	17147.4
948.9392	2197.5175	17993.1	17102.35
949.0736	2199.0101	17918.4	17023.55
949.208	2200.502	17815.1	16924.95
949.3424	2201.9931	17779.8	16886.7
949.4767	2203.4835	17694.3	16799.7
949.611	2204.9733	17634.75	16738.15
949.7453	2206.4622	17574.85	16683.45
949.8796	2207.9505	17566.35	16672.9
950.0138	2209.438	17423.95	16535.9
950.148	2210.9248	17405.55	16513.75
950.2822	2212.4109	17349.8	16459.15
950.4164	2213.8962	17255.8	16361.3
950.5505	2215.3809	17236.05	16342.8
950.6846	2216.8648	17208.5	16316.55
950.8186	2218.3479	17098.2	16201.15
950.9527	2219.8304	17048.85	16153.95
951.0867	2221.3121	16989.9	16095.6
951.2207	2222.7931	16905.7	16015.5
951.3546	2224.2733	16861.8	15970.1
951.4886	2225.7529	16814.25	15922.45
951.6225	2227.2317	16725	15829
951.7563	2228.7098	16737.15	15845.8
951.8902	2230.1872	16619.4	15725.95
952.024	2231.6638	16548.85	15657.2
952.1578	2233.1397	16519.95	15623.15
952.2916	2234.6149	16469.35	15577
952.4253	2236.0894	16440.75	15549.65
952.559	2237.5632	16392.05	15488.9
952.6927	2239.0362	16295.7	15402.7
952.8263	2240.5085	16249.75	15359.7
952.9599	2241.9801	16176.75	15283.05
953.0935	2243.4509	16109.3	15217.25
953.2271	2244.921	16083.25	15190.5
953.3606	2246.3904	16021	15127.55
953.4941	2247.8591	15960.8	15069.85
953.6276	2249.3271	15874.1	14983.6
953.7611	2250.7943	15834.8	14942.15
953.8945	2252.2608	15798.8	14909.8
954.0279	2253.7266	15735.35	14844
954.1612	2255.1917	15695.2	14803.95
954.2946	2256.656	15623.75	14728.55
954.4279	2258.1197	15586.9	14695.3
954.5612	2259.5826	15519.25	14625.7
954.6944	2261.0447	15513.7	14619.8
954.8276	2262.5062	15419.25	14526.55
954.9608	2263.9669	15399.65	14504.8
955.094	2265.4269	15363	14471.7
955.2271	2266.8862	15288.25	14397.95
955.3602	2268.3448	15238.8	14345.7
955.4933	2269.8026	15214.9	14323.25
955.6264	2271.2598	15174.1	14281.9
955.7594	2272.7162	15103.6	14214.75
955.8924	2274.1719	15066.1	14175.15
956.0253	2275.6268	14998.5	14105
956.1583	2277.0811	14988.95	14095.15
956.2912	2278.5346	14927.5	14036.65
956.4241	2279.9874	14899	14007.85
956.5569	2281.4395	14872.15	13982.6
956.6897	2282.8908	14807.45	13910.6
956.8225	2284.3414	14750.35	13856.45
956.9553	2285.7914	14699.15	13808.6
957.088	2287.2406	14629.85	13735.8
957.2207	2288.689	14607.85	13716.4
957.3534	2290.1368	14550.65	13657.4
957.486	2291.5838	14513.8	13620.65
957.6186	2293.0302	14475	13581.35
957.7512	2294.4758	14396.2	13504.8
957.8838	2295.9206	14319.65	13426.5
958.0163	2297.3648	14284.7	13393.25
958.1488	2298.8082	14276.65	13386.25
958.2813	2300.251	14237.7	13344.15
958.4137	2301.693	14184.1	13292.8
958.5461	2303.1343	14133.8	13242.25
958.6785	2304.5748	14107.15	13214.3
958.8108	2306.0147	14039.3	13148
958.9432	2307.4538	14006.35	13112.15
959.0754	2308.8922	13955.45	13066.65
959.2077	2310.3299	13915.85	13024.9
959.3399	2311.7669	13849.25	12958.05
959.4721	2313.2031	13801.6	12909.4
959.6043	2314.6387	13740.9	12848.7
959.7365	2316.0735	13685.6	12796.85
959.8686	2317.5076	13665.65	12774.35
960.0006	2318.941	13653.35	12761.5
960.1327	2320.3737	13571.9	12680.15
960.2647	2321.8056	13561.65	12666.9
960.3967	2323.2369	13514.15	12621.2
960.5287	2324.6674	13446.9	12552.5
960.6606	2326.0972	13402.95	12511.1
960.7925	2327.5263	13343.9	12453
960.9244	2328.9547	13317.55	12425.5
961.0562	2330.3823	13284.8	12391.15
961.1881	2331.8092	13275.5	12378.3
961.3198	2333.2355	13199.15	12307.35
961.4516	2334.661	13181.7	12289.3
961.5833	2336.0858	13137.25	12244.5
961.715	2337.5098	13091.4	12203.25
961.8467	2338.9332	13038.8	12146.85
961.9783	2340.3558	13006.35	12112.15
962.1099	2341.7778	12968.4	12076.55
962.2415	2343.199	12918.05	12023.4
962.373	2344.6195	12891.65	12000.75
962.5045	2346.0393	12829.85	11937.6
962.636	2347.4583	12828.1	11935.4
962.7675	2348.8767	12756.15	11865.05
962.8989	2350.2943	12734.5	11842.1
963.0303	2351.7113	12708.8	11815.95
963.1617	2353.1275	12622.9	11731.6
963.293	2354.543	12618.55	11705
963.4243	2355.9578	12567.15	11675.25
963.5556	2357.3718	12461	11569.15
963.6868	2358.7852	12406.85	11512.8
963.818	2360.1978	12355.9	11464.45
963.9492	2361.6098	12374.5	11484.3
964.0803	2363.021	12315.45	11421.8
964.2114	2364.4315	12301.3	11410.7
964.3425	2365.8413	12235.95	11345.1
964.4736	2367.2504	12198.15	11310
964.6046	2368.6587	12123.2	11230
964.7356	2370.0664	12046.4	11155.35
964.8666	2371.4733	12017.8	11128.95
964.9975	2372.8795	11968.45	11077.6
965.1284	2374.285	11906.9	11016.05
965.2593	2375.6899	11855.4	10965
965.3901	2377.0939	11848.55	10956.05
965.5209	2378.4973	11763.25	10870.75
965.6517	2379.9	11753	10861.55
965.7825	2381.3019	11707.05	10816.65
965.9132	2382.7032	11652.2	10762.9
966.0439	2384.1037	11642.3	10753.15
966.1745	2385.5035	11592.25	10703.15
966.3051	2386.9027	11547.95	10658.1
966.4357	2388.3011	11486.3	10591.1
966.5663	2389.6987	11443.4	10551.6
966.6968	2391.0957	11413.9	10523.75
966.8273	2392.492	11369	10479.05
966.9578	2393.8876	11295.8	10405.15
967.0882	2395.2824	11258.4	10369.6
967.2186	2396.6765	11198.5	10308.15
967.349	2398.07	11156.2	10265.45
967.4793	2399.4627	11140.3	10248.8
967.6097	2400.8547	11108.95	10217.3
967.7399	2402.246	11065.6	10170.1
967.8702	2403.6366	11004.2	10112.4
968.0004	2405.0265	10945.3	10055.3
968.1306	2406.4156	10910.6	10017.65
968.2607	2407.8041	10881.55	9988.2
968.3909	2409.1918	10853.25	9959.5
968.521	2410.5789	10812	9921.4
968.651	2411.9652	10753.25	9860.3
968.781	2413.3508	10702.35	9812.2
968.911	2414.7358	10683.7	9791.25
969.041	2416.12	10624.5	9735.55
969.1709	2417.5035	10594.15	9705.05
969.3008	2418.8863	10552.6	9660.35
969.4307	2420.2684	10500.35	9610.4
969.5606	2421.6497	10478.45	9588.25
969.6904	2423.0304	10390.85	9499.9
969.8201	2424.4104	10366.4	9474.4
969.9499	2425.7896	10339.55	9441.3
970.0796	2427.1682	10336.1	9445.3
970.2093	2428.546	10310.8	9416.4
970.3389	2429.9232	10255.7	9364.25
970.4685	2431.2996	10220.1	9329.6
970.5981	2432.6753	10219.6	9329
970.7277	2434.0503	10165.45	9274
970.8572	2435.4246	10134.1	9243.5
970.9867	2436.7982	10079.1	9185.2
971.1161	2438.1711	10062.45	9172.25
971.2456	2439.5433	10026.45	9134.6
971.375	2440.9148	9985.65	9094.4
971.5043	2442.2856	9943.15	9051.85
971.6336	2443.6557	9917.45	9026.5
971.7629	2445.025	9869.75	8978.85
971.8922	2446.3937	9869.65	8977.6
972.0214	2447.7617	9813.95	8922.5
972.1506	2449.1289	9811.75	8918.7
972.2798	2450.4955	9760.75	8865.8
972.4089	2451.8613	9712.3	8822.45
972.538	2453.2265	9699.5	8807.9
972.6671	2454.5909	9670.8	8779.35
972.7961	2455.9546	9670.2	8779.9
972.9251	2457.3177	9625	8733.35
973.0541	2458.68	9604.35	8712.9
973.1831	2460.0416	9573.6	8683.85
973.312	2461.4025	9576.1	8682.55
973.4408	2462.7627	9534.55	8630.95
973.5697	2464.1222	9501.15	8613.05
973.6985	2465.4811	9455.75	8564.5
973.8273	2466.8392	9447.7	8555.8
973.956	2468.1966	9387	8493.3
974.0847	2469.5533	9397.25	8504.1
974.2134	2470.9093	9384.9	8492.8
974.3421	2472.2645	9337.05	8445.5
974.4707	2473.6191	9283.35	8392.35
974.5993	2474.973	9254.05	8362.25
974.7278	2476.3262	9221.05	8327.35
974.8563	2477.6787	9189.95	8299.15
974.9848	2479.0305	9142.15	8251.05
975.1132	2480.3816	9098.45	8204.45
975.2417	2481.7319	9098.25	8206.55
975.37	2483.0816	9030.55	8138.7
975.4984	2484.4306	9016.25	8124.35
975.6267	2485.7789	8984.8	8093.05
975.755	2487.1264	8922.2	8030.1
975.8833	2488.4733	8892.35	7999.7
976.0115	2489.8195	8883.15	7985.55
976.1397	2491.165	8829.75	7933.85
976.2678	2492.5097	8820.4	7928.25
976.3959	2493.8538	8779.4	7888.95
976.524	2495.1972	8733.35	7841.1
976.6521	2496.5398	8702.9	7810.9
976.7801	2497.8818	8662.15	7768.6
976.9081	2499.2231	8636.45	7744.35
977.036	2500.5637	8600.65	7706.7
977.164	2501.9035	8554.45	7661
977.2918	2503.2427	8552.45	7656.55
977.4197	2504.5812	8511.7	7621
977.5475	2505.919	8488.8	7595.65
977.6753	2507.256	8481	7589
977.8031	2508.5924	8436.45	7546.2
977.9308	2509.9281	8405.55	7509.2
978.0585	2511.2631	8383.35	7490.65
978.1861	2512.5974	8337.6	7447.1
978.3137	2513.9309	8362.15	7471.55
978.4413	2515.2638	8322.15	7397.1
978.5689	2516.596	8278.5	7387.35
978.6964	2517.9275	8246.95	7356.8
978.8239	2519.2583	8212.75	7321.55
978.9513	2520.5884	8173.7	7281.85
979.0788	2521.9178	8118.2	7227.6
979.2062	2523.2465	8098.25	7207.7
979.3335	2524.5745	8082.75	7192.45
979.4608	2525.9018	8052.85	7159.3
979.5881	2527.2284	8021.05	7131.7
979.7154	2528.5543	8014.3	7123.6
979.8426	2529.8796	7978.2	7085.95
979.9698	2531.2041	7952.05	7059.45
980.0969	2532.5279	7958.25	7068.5
980.224	2533.851	7921.45	7030.85
980.3511	2535.1735	7898.55	7007.3
980.4781	2536.4952	7894.55	7002.6
980.6052	2537.8163	7873.35	6980.95
980.7321	2539.1366	7832.1	6942.95
980.8591	2540.4562	7796.3	6904.9
980.986	2541.7752	7793.05	6901.6
981.1129	2543.0935	7798.9	6904.7
981.2397	2544.411	7733.95	6839.05
981.3665	2545.7279	7733.4	6842.8
981.4933	2547.0441	7716.1	6825.4
981.62	2548.3596	7715.3	6822.5
981.7467	2549.6744	7706.95	6815.35
981.8734	2550.9885	7665.2	6771.85
982.0001	2552.3019	7658.5	6766.55
982.1267	2553.6146	7604.75	6713.4
982.2532	2554.9266	7597.05	6704.5
982.3798	2556.2379	7570.8	6680.2
982.5063	2557.5485	7545.85	6655.25
982.6327	2558.8585	7565.85	6667.4
982.7592	2560.1677	7525.85	6631.55
982.8856	2561.4762	7486.65	6596.55
983.0119	2562.7841	7478.35	6583.3
983.1383	2564.0913	7463.2	6573.95
983.2646	2565.3977	7450.4	6558.75
983.3908	2566.7035	7416.55	6526.7
983.517	2568.0086	7403.2	6509.2
983.6432	2569.313	7412.7	6520.9
983.7694	2570.6167	7369.85	6474.45
983.8955	2571.9197	7355.85	6464.15
984.0216	2573.222	7347.4	6454.8
984.1476	2574.5236	7334.4	6442.1
984.2737	2575.8246	7307.05	6411.2
984.3996	2577.1248	7284.95	6390.55
984.5256	2578.4244	7273.3	6382.65
984.6515	2579.7232	7283.15	6392.4
984.7774	2581.0214	7239.5	6324.85
984.9032	2582.3189	7245.75	6355.4
985.029	2583.6157	7203.05	6307.2
985.1548	2584.9118	7179.6	6288.3
985.2806	2586.2072	7171.1	6280.6
985.4063	2587.5019	7146.1	6254.7
985.5319	2588.7959	7120	6228.25
985.6576	2590.0893	7122.55	6228.1
985.7832	2591.3819	7118.15	6226.85
985.9087	2592.6739	7075.05	6182.95
986.0343	2593.9652	7052.65	6157.95
986.1597	2595.2557	7030.1	6139.5
986.2852	2596.5456	6996	6103.35
986.4106	2597.8348	6986.8	6095.3
986.536	2599.1234	6948.7	6058.15
986.6614	2600.4112	6940.3	6048.9
986.7867	2601.6983	6908.8	6014.55
986.912	2602.9848	6891.45	6001.55
987.0372	2604.2705	6857.45	5961.25
987.1624	2605.5556	6848.05	5956.8
987.2876	2606.84	6818.8	5927.4
987.4128	2608.1237	6797.35	5902.45
987.5379	2609.4067	6764.05	5872.25
987.6629	2610.689	6756.75	5857.4
987.788	2611.9707	6721.45	5826.6
987.913	2613.2516	6720.05	5822.55
988.0379	2614.5319	6679.8	5788.4
988.1629	2615.8115	6644.35	5752.6
988.2878	2617.0903	6618.8	5727.75
988.4126	2618.3685	6604.35	5713.05
988.5375	2619.6461	6582.4	5692.6
988.6622	2620.9229	6551.55	5660.05
988.787	2622.199	6530.7	5638.4
988.9117	2623.4745	6502	5609.5
989.0364	2624.7493	6489.95	5599.3
989.161	2626.0234	6476.7	5586.8
989.2857	2627.2968	6451.4	5559.25
989.4102	2628.5695	6428.2	5535.15
989.5348	2629.8415	6404.85	5514.75
989.6593	2631.1128	6390.7	5497.2
989.7837	2632.3835	6354	5463.65
989.9082	2633.6535	6320.4	5429.55
990.0326	2634.9228	6310.9	5419.05
990.1569	2636.1914	6273.1	5383.45
990.2812	2637.4593	6257.8	5359.95
990.4055	2638.7265	6246.5	5354.2
990.5298	2639.9931	6229.5	5337
990.654	2641.259	6217.3	5325.85
990.7782	2642.5242	6176.55	5283.3
990.9023	2643.7887	6173.1	5281.95
991.0264	2645.0525	6144.9	5255.7
991.1505	2646.3156	6136.65	5243.85
991.2745	2647.5781	6102.3	5210.7
991.3985	2648.8398	6105.15	5215.85
991.5225	2650.1009	6100.6	5200.75
991.6464	2651.3613	6050	5157.75
991.7703	2652.6211	6025.5	5134.95
991.8942	2653.8801	6009.05	5118.15
992.018	2655.1385	5990.9	5095.05
992.1418	2656.3961	5988.6	5096.55
992.2655	2657.6531	5998.55	5106.85
992.3892	2658.9094	5950.95	5060.4
992.5129	2660.1651	5962.2	5072.35
992.6366	2661.42	5935.8	5044.95
992.7602	2662.6743	5927.5	5033.95
992.8837	2663.9279	5902.6	5011.15
993.0073	2665.1808	5896.4	5001.65
993.1307	2666.433	5854.35	4960.1
993.2542	2667.6846	5828.7	4937.65
993.3776	2668.9354	5828.5	4935
993.501	2670.1856	5817	4925.1
993.6244	2671.4351	5814.45	4922.95
993.7477	2672.6839	5819.45	4925.1
993.8709	2673.9321	5786.05	4895.55
993.9942	2675.1795	5763.5	4871
994.1174	2676.4263	5747.15	4856.45
994.2405	2677.6724	5719.2	4827.05
994.3637	2678.9179	5712.1	4819.7
994.4868	2680.1626	5701	4812.05
994.6098	2681.4067	5677.6	4786.8
994.7328	2682.6501	5683.8	4793.1
994.8558	2683.8928	5669.6	4776.95
994.9788	2685.1348	5621.75	4730.7
995.1017	2686.3761	5606.6	4714.4
995.2245	2687.6168	5597.15	4705.95
995.3474	2688.8568	5577.5	4684.7
995.4702	2690.0961	5549.25	4658.25
995.5929	2691.3348	5536.95	4644.25
995.7156	2692.5727	5529.6	4637.2
995.8383	2693.81	5498.15	4605.7
995.961	2695.0466	5473.55	4582.2
996.0836	2696.2826	5455.3	4562.75
996.2062	2697.5178	5437.95	4546
996.3287	2698.7524	5434.55	4543
996.4512	2699.9863	5432.75	4540.95
996.5737	2701.2195	5390.05	4499.75
996.6961	2702.452	5403.3	4507.45
996.8185	2703.6839	5381.85	4489.9
996.9408	2704.9151	5365.55	4474.2
997.0631	2706.1456	5346.75	4455.05
997.1854	2707.3755	5349.75	4458.95
997.3077	2708.6046	5340.85	4448
997.4299	2709.8331	5322.9	4432.95
997.552	2711.0609	5293.75	4403
997.6742	2712.2881	5295.25	4403.35
997.7963	2713.5145	5285.05	4390.3
997.9183	2714.7403	5281.15	4389.95
998.0403	2715.9654	5275.6	4382.2
998.1623	2717.1899	5274.9	4369.65
998.2842	2718.4136	5277.3	4387.2
998.4062	2719.6367	5249.6	4358
998.528	2720.8591	5235.8	4340.3
998.6498	2722.0809	5230.2	4339.4
998.7716	2723.3019	5216.8	4322.1
998.8934	2724.5223	5225.05	4330.8
999.0151	2725.7421	5195.95	4303.35
999.1368	2726.9611	5213.3	4318.65
999.2584	2728.1795	5198.45	4301.8
999.38	2729.3972	5161.65	4271.1
999.5016	2730.6142	5131.6	4236.3
999.6231	2731.8306	5088.1	4195.4
999.7446	2733.0462	5057.05	4164.5
999.8661	2734.2612	5031.15	4134
999.9875	2735.4756	4997.15	4104.75
1000.1089	2736.6892	4975.5	4083
1000.2302	2737.9022	4936.65	4045.15
1000.3515	2739.1145	4917.85	4026.45
1000.4728	2740.3262	4880.9	3982.05
1000.594	2741.5372	4858.1	3967
1000.7152	2742.7475	4834.45	3941.15
1000.8363	2743.9571	4819.05	3925.75
1000.9575	2745.1661	4799.7	3903.2
1001.0785	2746.3744	4762.6	3869.65
1001.1996	2747.582	4752.15	3861.55
1001.3206	2748.7889	4736.2	3841.3
1001.4415	2749.9952	4708.2	3816.8
1001.5625	2751.2008	4690.45	3796.8
1001.6833	2752.4057	4683.4	3789.95
1001.8042	2753.61	4658.35	3764.8
1001.925	2754.8136	4632.4	3740.45
1002.0458	2756.0165	4626.7	3736.25
1002.1665	2757.2188	4620.6	3731.9
1002.2872	2758.4204	4602.9	3711.6
1002.4078	2759.6213	4586.65	3692.75
1002.5285	2760.8215	4596.25	3699.35
1002.649	2762.0211	4555.9	3662.95
1002.7696	2763.22	4547.8	3652.9
1002.8901	2764.4182	4532.55	3639.05
1003.0106	2765.6158	4518.7	3627.05
1003.131	2766.8127	4497.05	3607.4
1003.2514	2768.009	4487.25	3596.05
1003.3717	2769.2045	4475.55	3582.95
1003.492	2770.3994	4450.5	3556.8
1003.6123	2771.5936	4448.35	3555.1
1003.7325	2772.7872	4432.55	3541.45
1003.8527	2773.9801	4412.15	3519.65
1003.9729	2775.1723	4400.65	3492.75
1004.093	2776.3639	4383.35	3492.5
1004.2131	2777.5548	4370.35	3477.1
1004.3331	2778.745	4358.45	3465.5
1004.4531	2779.9346	4350.9	3461.2
1004.5731	2781.1235	4362.25	3470.2
1004.693	2782.3117	4333.85	3442.85
1004.8129	2783.4992	4326	3436.3
1004.9328	2784.6861	4306.55	3413.8
1005.0526	2785.8723	4318.75	3425.5
1005.1723	2787.0579	4302.1	3409.45
1005.2921	2788.2428	4294.4	3401.7
1005.4118	2789.427	4280.5	3392.55
1005.5314	2790.6106	4287.3	3395.8
1005.651	2791.7935	4267.9	3375.05
1005.7706	2792.9757	4268.85	3378.55
1005.8902	2794.1573	4282.25	3389.05
1006.0097	2795.3382	4283.95	3393.4
1006.1291	2796.5184	4277.15	3387.8
1006.2485	2797.698	4281.8	3388.8
1006.3679	2798.8769	4278.3	3386.25
1006.4873	2800.0551	4278.6	3384.9
1006.6066	2801.2327	4295.8	3401.45
1006.7258	2802.4096	4282.3	3391.7
1006.8451	2803.5859	4305.5	3413
1006.9642	2804.7615	4313.1	3420.65
1007.0834	2805.9364	4327.65	3437.45
1007.2025	2807.1106	4335.3	3443.85
1007.3216	2808.2842	4353.45	3462.1
1007.4406	2809.4572	4361.85	3471.2
1007.5596	2810.6294	4390.1	3496.7
1007.6785	2811.801	4434.1	3544.85
1007.7975	2812.972	4465.4	3575.65
1007.9163	2814.1423	4491.75	3599.75
1008.0352	2815.3119	4517.65	3626.2
1008.154	2816.4808	4556.6	3666.65
1008.2727	2817.6491	4603	3712.5
1008.3914	2818.8167	4636.7	3747.8
1008.5101	2819.9837	4691.85	3795.95
1008.6288	2821.15	4712.65	3820.45
1008.7474	2822.3157	4750.15	3859.7
1008.8659	2823.4807	4767.1	3875.65
1008.9844	2824.645	4829.05	3936.45
1009.1029	2825.8086	4853	3961.15
1009.2214	2826.9716	4877.95	3988.85
1009.3398	2828.134	4913.15	4025.15
1009.4581	2829.2957	4967.9	4075.2
1009.5764	2830.4567	4959.2	4069.15
1009.6947	2831.617	4976.05	4086.3
1009.813	2832.7767	4987.8	4094.75
1009.9312	2833.9358	4961.2	4072.25
1010.0493	2835.0941	4968.05	4073.9
1010.1675	2836.2519	4952.7	4061.75
1010.2855	2837.4089	4922	4030
1010.4036	2838.5653	4905.6	4013.4
1010.5216	2839.7211	4902.35	4012.8
1010.6396	2840.8761	4895.4	4003.2
1010.7575	2842.0306	4914.8	4024.3
1010.8754	2843.1843	4950.5	4059.55
1010.9932	2844.3374	4982.95	4093.3
1011.111	2845.4899	5037.95	4146.8
1011.2288	2846.6417	5103.75	4213.15
1011.3465	2847.7928	5159.55	4267.1
1011.4642	2848.9433	5255.9	4365.35
1011.5818	2850.0931	5322.2	4430
1011.6995	2851.2422	5387.75	4494.35
1011.817	2852.3907	5457.1	4566.25
1011.9345	2853.5385	5510.6	4617.7
1012.052	2854.6857	5570.05	4652.35
1012.1695	2855.8323	5583	4691.8
1012.2869	2856.9781	5638.2	4748.5
1012.4042	2858.1233	5682.3	4790.55
1012.5216	2859.2679	5712.25	4820.05
1012.6389	2860.4118	5753	4862.7
1012.7561	2861.555	5776.3	4882.45
1012.8733	2862.6976	5811.7	4919.95
1012.9905	2863.8395	5827.25	4936.7
1013.1076	2864.9808	5838.55	4947.5
1013.2247	2866.1214	5848.8	4960.05
1013.3417	2867.2614	5846.65	4954.2
1013.4587	2868.4007	5844.7	4953.65
1013.5757	2869.5393	5841.3	4948.4
1013.6926	2870.6773	5863.95	4970.3
1013.8095	2871.8146	5880.05	4987.85
1013.9263	2872.9513	5870.35	4976.7
1014.0431	2874.0874	5839.9	4948.3
1014.1599	2875.2227	5822.25	4930.6
1014.2766	2876.3574	5774	4882.65
1014.3933	2877.4915	5765.7	4873.9
1014.51	2878.6249	5733.65	4841.65
1014.6266	2879.7577	5708.1	4814.45
1014.7431	2880.8898	5668.3	4768.95
1014.8596	2882.0212	5647.05	4757.05
1014.9761	2883.152	5616.05	4725.7
1015.0925	2884.2821	5602.8	4712.95
1015.2089	2885.4116	5563	4674.3
1015.3253	2886.5405	5549.05	4659
1015.4416	2887.6686	5554.1	4659.35
1015.5579	2888.7962	5559.15	4668.85
1015.6741	2889.923	5544.85	4654.05
1015.7903	2891.0493	5566.95	4676
1015.9065	2892.1748	5561.5	4670.95
1016.0226	2893.2997	5547	4656.55
1016.1387	2894.424	5569	4679.15
1016.2547	2895.5476	5580.25	4687.6
1016.3707	2896.6706	5591.75	4701.65
1016.4866	2897.7929	5615.95	4723.45
1016.6025	2898.9145	5647.45	4756.05
1016.7184	2900.0355	5649.55	4756.25
1016.8342	2901.1559	5652.2	4759
1016.95	2902.2756	5700.25	4811.35
1017.0658	2903.3946	5715.3	4825.15
1017.1815	2904.513	5750.9	4857.05
1017.2971	2905.6308	5749.7	4859.75
1017.4127	2906.7479	5763.05	4873.45
1017.5283	2907.8643	5792.05	4900.9
1017.6439	2908.9801	5782.65	4890.95
1017.7594	2910.0953	5790	4901.1
1017.8748	2911.2098	5794.2	4901.05
1017.9902	2912.3236	5768.4	4869.2
1018.1056	2913.4368	5751.6	4858.1
1018.2209	2914.5494	5725.95	4834.9
1018.3362	2915.6613	5689	4794.4
1018.4515	2916.7725	5648.1	4754.7
1018.5667	2917.8831	5628.95	4738.35
1018.6819	2918.9931	5589.55	4696.9
1018.797	2920.1024	5561.2	4669.8
1018.9121	2921.211	5519.65	4630.4
1019.0271	2922.319	5491.6	4601.15
1019.1421	2923.4264	5476.85	4584.45
1019.2571	2924.5331	5444.2	4554.9
1019.372	2925.6391	5400.45	4510.85
1019.4869	2926.7445	5406.95	4518.1
1019.6017	2927.8493	5403.9	4513.5
1019.7165	2928.9534	5386.15	4495.2
1019.8313	2930.0569	5360.85	4469.2
1019.946	2931.1597	5347.7	4455.2
1020.0606	2932.2619	5345.55	4454.7
1020.1753	2933.3634	5326.5	4438.45
1020.2899	2934.4643	5317.45	4419.9
1020.4044	2935.5645	5290.55	4393.75
1020.5189	2936.6641	5238.15	4342.2
1020.6334	2937.763	5166.15	4276.25
1020.7478	2938.8613	5114.25	4224.7
1020.8622	2939.959	5058.05	4163.4
1020.9765	2941.056	4978.6	4086.25
1021.0908	2942.1523	4879.7	3986.4
1021.2051	2943.248	4776.5	3885.55
1021.3193	2944.3431	4690.95	3801.4
1021.4334	2945.4375	4584.5	3695.7
1021.5476	2946.5313	4471.3	3580.95
1021.6617	2947.6244	4364.9	3472.75
1021.7757	2948.7169	4252	3359.55
1021.8897	2949.8087	4148.35	3257.95
1022.0037	2950.8999	4043.95	3152.55
1022.1176	2951.9904	3955	3065.7
1022.2315	2953.0803	3875.6	2984.85
1022.3453	2954.1696	3799.4	2908.75
1022.4591	2955.2582	3756.8	2866.65
1022.5728	2956.3462	3685.75	2793.15
1022.6865	2957.4335	3656.9	2765.35
1022.8002	2958.5202	3603.3	2711.5
1022.9138	2959.6062	3557.3	2666.2
1023.0274	2960.6916	3524.9	2636.1
1023.141	2961.7764	3510.85	2618.7
1023.2545	2962.8605	3483.45	2593.45
1023.3679	2963.9439	3465.9	2575.25
1023.4813	2965.0267	3453.6	2562.2
1023.5947	2966.1089	3448.6	2536.3
1023.708	2967.1905	3421.7	2532.15
1023.8213	2968.2714	3403.3	2512.65
1023.9346	2969.3516	3403.4	2513.75
1024.0478	2970.4312	3408.6	2511.45
1024.1609	2971.5102	3378	2487.35
1024.274	2972.5885	3388.15	2497.2
1024.3871	2973.6662	3386.25	2488.2
1024.5002	2974.7432	3361.25	2470.55
1024.6132	2975.8196	3350.7	2460.1
1024.7261	2976.8954	3343.45	2453.8
1024.839	2977.9705	3322.75	2434.75
1024.9519	2979.045	3304.05	2413.6
1025.0647	2980.1188	3273.6	2384.4
1025.1775	2981.192	3249.4	2358.1
1025.2902	2982.2645	3223.2	2332.05
1025.4029	2983.3364	3198.8	2307.35
1025.5156	2984.4077	3149.95	2259.7
1025.6282	2985.4783	3135.6	2241.8
1025.7407	2986.5483	3086.85	2196.55
1025.8532	2987.6177	3050.4	2163.05
1025.9657	2988.6864	3013.65	2123.9
1026.0782	2989.7545	2974	2083.6
1026.1906	2990.8219	2941	2051.2
1026.3029	2991.8887	2897.25	2004.4
1026.4152	2992.9548	2861.55	1970.9
1026.5275	2994.0204	2835.45	1946.15
1026.6397	2995.0852	2798.65	1911.1
1026.7519	2996.1495	2769.4	1879.2
1026.864	2997.2131	2735.45	1844.6
1026.9761	2998.276	2705.05	1816.45
1027.0882	2999.3383	2691.4	1800.2
1027.2002	3000.4	2667.35	1775.65
1027.3122	3001.4611	2639.75	1750
1027.4241	3002.5215	2619.25	1728.95
1027.536	3003.5812	2611.45	1723.1
1027.6478	3004.6404	2588.15	1696.6
1027.7596	3005.6989	2580.65	1687.5
1027.8714	3006.7567	2569.05	1678.95
1027.9831	3007.8139	2565.95	1651.2
1028.0947	3008.8705	2531.25	1640.2
1028.2064	3009.9264	2530.85	1636.25
1028.3179	3010.9818	2524.85	1633.6
1028.4295	3012.0364	2508.8	1620
1028.541	3013.0905	2495.4	1605.75
1028.6524	3014.1439	2497.3	1607.2
1028.7638	3015.1966	2490.85	1600.25
1028.8752	3016.2487	2480.05	1590.3
1028.9865	3017.3002	2477.1	1579.45
1029.0978	3018.3511	2470.5	1581.75
1029.209	3019.4013	2483.05	1595.7
1029.3202	3020.4509	2468.45	1578.45
1029.4314	3021.4998	2458.2	1568.3
1029.5425	3022.5481	2454.35	1563.25
1029.6535	3023.5958	2448.05	1557.7
1029.7645	3024.6428	2444.9	1553.65
1029.8755	3025.6892	2435.6	1547
1029.9864	3026.735	2448.55	1559.45
1030.0973	3027.7802	2444.25	1556.15
1030.2082	3028.8247	2438.3	1549.45
1030.319	3029.8685	2427.85	1537.75
1030.4297	3030.9118	2429.85	1538.2
1030.5404	3031.9544	2437.65	1547.3
1030.6511	3032.9963	2430.6	1538.6
1030.7617	3034.0376	2421.75	1531.3
1030.8723	3035.0783	2434.7	1541.2
1030.9829	3036.1184	2426.7	1534.05
1031.0934	3037.1578	2416.05	1526.8
1031.2038	3038.1966	2428.6	1538.45
1031.3142	3039.2348	2428.9	1541.4
1031.4246	3040.2723	2407.05	1508.1
1031.5349	3041.3092	2401.9	1510.7
1031.6452	3042.3455	2393.05	1504.7
1031.7554	3043.3811	2389.05	1498.1
1031.8656	3044.4161	2390.9	1500
1031.9758	3045.4505	2372.8	1483.6
1032.0859	3046.4842	2361.9	1471.35
1032.1959	3047.5173	2346.1	1458.1
1032.3059	3048.5498	2340.85	1451.15
1032.4159	3049.5816	2337.25	1445.6
1032.5258	3050.6128	2328.35	1437.95
1032.6357	3051.6434	2318.9	1427.85
1032.7455	3052.6734	2306.05	1415.35
1032.8553	3053.7027	2287.9	1396.95
1032.9651	3054.7314	2277.6	1388.45
1033.0748	3055.7594	2277.5	1387.35
1033.1845	3056.7868	2257.85	1365.4
1033.2941	3057.8136	2257.55	1367.25
1033.4037	3058.8398	2238.55	1348.1
1033.5132	3059.8653	2228.8	1338.85
1033.6227	3060.8902	2218.15	1327
1033.7321	3061.9145	2208.75	1319.45
1033.8415	3062.9381	2202.15	1312.4
1033.9509	3063.9612	2213.95	1306
1034.0602	3064.9835	2189.4	1299.6
1034.1694	3066.0053	2185.9	1292.75
1034.2787	3067.0264	2168.15	1276
1034.3878	3068.0469	2157.2	1267.8
1034.497	3069.0668	2143.95	1251.8
1034.6061	3070.086	2128.7	1240.5
1034.7151	3071.1046	2117.75	1227.15
1034.8241	3072.1226	2112.4	1220.2
1034.9331	3073.1399	2094.55	1204.95
1035.042	3074.1567	2083.25	1192.3
1035.1508	3075.1727	2078.2	1186.65
1035.2597	3076.1882	2055.85	1166.1
1035.3684	3077.203	2049.75	1158.8
1035.4772	3078.2173	2030.7	1141
1035.5859	3079.2308	2028.55	1136.4
1035.6945	3080.2438	2013.3	1122.65
1035.8031	3081.2561	2003.8	1113.35
1035.9117	3082.2678	1988.5	1098.45
1036.0202	3083.2789	1971.6	1083.15
1036.1286	3084.2893	1971.3	1082.4
1036.2371	3085.2991	1958	1067
1036.3454	3086.3083	1954.55	1060.65
1036.4538	3087.3169	1943.6	1049.6
1036.562	3088.3248	1940.95	1050.35
1036.6703	3089.3321	1933.1	1042.95
1036.7785	3090.3388	1920.8	1032.75
1036.8866	3091.3449	1909.05	1020.65
1036.9948	3092.3503	1903.2	1010.1
1037.1028	3093.3551	1889.1	999.7
1037.2108	3094.3593	1887.9	1000.6
1037.3188	3095.3629	1883.7	994.7
1037.4267	3096.3658	1874.9	984.25
1037.5346	3097.3681	1869.95	980.2
1037.6425	3098.3698	1861.85	968.6
1037.7503	3099.3708	1860.15	964.7
1037.858	3100.3713	1844.85	955.4
1037.9657	3101.3711	1852.1	961.75
1038.0734	3102.3702	1943.15	938.35
1038.181	3103.3688	1836.1	944.5
1038.2886	3104.3667	1828.65	939.8
1038.3961	3105.364	1814.1	925.1
1038.5036	3106.3607	1816.05	926
1038.611	3107.3568	1808.55	916.9
1038.7184	3108.3522	1789.55	899.8
1038.8257	3109.347	1800.8	909.3
1038.933	3110.3412	1793.25	899.95
1039.0403	3111.3348	1780.95	890.4
1039.1475	3112.3277	1782.7	893.35
1039.2547	3113.32	1763.15	874.7
1039.3618	3114.3117	1769.55	879.25
1039.4689	3115.3028	1761.25	871.7
1039.5759	3116.2932	1757.8	867.35
1039.6829	3117.2831	1746.95	850.8
1039.7898	3118.2723	1742.4	852.45
1039.8967	3119.2608	1730.15	840.35
1040.0035	3120.2488	1739.55	849.7
1040.1103	3121.2361	1732.4	841.7
1040.2171	3122.2229	1714.15	825.3
1040.3238	3123.209	1715	823.05
1040.4305	3124.1944	1714.35	825.55
1040.5371	3125.1793	1713.05	821.35
1040.6437	3126.1635	1711.6	823.3
1040.7502	3127.1471	1701.1	812.15
1040.8567	3128.1301	1693.75	805.75
1040.9631	3129.1125	1695.3	806.7
1041.0695	3130.0942	1691.45	800.55
1041.1759	3131.0753	1689.55	790.7
1041.2822	3132.0558	1680.85	786.25
1041.3884	3133.0357	1683.3	793.95
1041.4946	3134.015	1675.45	786.3
1041.6008	3134.9936	1672.2	781.6
1041.7069	3135.9716	1684.55	772.75
1041.813	3136.949	1657.4	768.45
1041.919	3137.9258	1661.45	765.2
1042.025	3138.902	1659.15	764
1042.1309	3139.8775	1652.1	762.3
1042.2368	3140.8524	1646.4	757.15
1042.3427	3141.8267	1646.15	755
1042.4485	3142.8004	1639.95	749.25
1042.5542	3143.7735	1646.95	749.3
1042.6599	3144.7459	1632.5	738.7
1042.7656	3145.7178	1631.45	739.8
1042.8712	3146.689	1629.15	741.25
1042.9768	3147.6596	1630.75	738.9
1043.0823	3148.6295	1616.45	726.2
1043.1878	3149.5989	1612.65	723
1043.2932	3150.5676	1611.25	722.7
1043.3986	3151.5357	1600.05	712.3
1043.5039	3152.5032	1597.75	706.9
1043.6092	3153.4701	1589.7	701
1043.7145	3154.4364	1588.65	697.35
1043.8197	3155.402	1597.9	707.6
1043.9248	3156.367	1591.05	700.2
1044.03	3157.3315	1621.45	688.1
1044.135	3158.2952	1577.2	686.55
1044.24	3159.2584	1568.45	678.95
1044.345	3160.221	1570.75	680.25
1044.4499	3161.1829	1565.75	675.65
1044.5548	3162.1442	1560.95	669.2
1044.6596	3163.105	1548.5	657.9
1044.7644	3164.065	1551.25	662.6
1044.8692	3165.0245	1548.6	654.55
1044.9739	3165.9834	1542.7	655.2
1045.0785	3166.9416	1542.85	653.25
1045.1831	3167.8993	1533.5	643.9
1045.2877	3168.8563	1534	644.95
1045.3922	3169.8127	1523.85	634.55
1045.4966	3170.7684	1520.6	631.9
1045.6011	3171.7236	1513.35	623.8
1045.7054	3172.6782	1515.35	626.3
1045.8098	3173.6321	1513.15	622
1045.914	3174.5854	1520.95	626
1046.0183	3175.5381	1502.85	612.25
1046.1224	3176.4902	1506.55	616.5
1046.2266	3177.4417	1496.05	606.4
1046.3307	3178.3926	1496.6	607.9
1046.4347	3179.3428	1495.9	608.5
1046.5387	3180.2924	1494.3	605.85
1046.6427	3181.2415	1485.55	595.95
1046.7466	3182.1899	1485.85	595.2
1046.8504	3183.1377	1481.35	592.5
1046.9542	3184.0848	1484.25	590.55
1047.058	3185.0314	1469.95	579.75
1047.1617	3185.9773	1468.3	579.25
1047.2654	3186.9227	1468.15	578
1047.369	3187.8674	1462.7	573.25
1047.4726	3188.8115	1469.2	576.65
1047.5761	3189.755	1464.95	576.55
1047.6796	3190.6979	1459.7	569.45
1047.783	3191.6402	1458.3	568.25
1047.8864	3192.5818	1454.3	565.45
1047.9898	3193.5229	1476.1	564.5
1048.0931	3194.4633	1444.6	555.5
1048.1963	3195.4031	1436.3	545.55
1048.2995	3196.3423	1438.55	548.45
1048.4027	3197.2809	1435.9	545.95
1048.5058	3198.2189	1440.3	550.9
1048.6089	3199.1563	1443.15	538.8
1048.7119	3200.0931	1431.65	541.1
1048.8148	3201.0292	1427.1	537.95
1048.9178	3201.9648	1422.35	531.85
1049.0206	3202.8997	1419.9	527.5
1049.1235	3203.834	1418.65	529.75
1049.2262	3204.7677	1417.15	527.85
1049.329	3205.7008	1409.65	518.7
1049.4317	3206.6333	1404.4	514.1
1049.5343	3207.5652	1415.15	522.55
1049.6369	3208.4964	1403.5	513.15
1049.7394	3209.4271	1404.65	517.3
1049.8419	3210.3571	1398.9	508.85
1049.9444	3211.2865	1397.15	505.45
1050.0468	3212.2154	1389.15	497.05
1050.1491	3213.1436	1392.85	501.05
1050.2514	3214.0712	1398.15	504.2
1050.3537	3214.9982	1390.05	500.75
1050.4559	3215.9246	1386.5	497
1050.5581	3216.8503	1381.2	493
1050.6602	3217.7755	1378.45	487.75
1050.7623	3218.7001	1381.4	492.6
1050.8643	3219.624	1375.05	485.8
1050.9663	3220.5473	1366.4	477.15
1051.0682	3221.4701	1371.45	480
1051.1701	3222.3922	1371.3	479.35
1051.2719	3223.3137	1363.2	477.1
1051.3737	3224.2346	1363.9	473.45
1051.4754	3225.1549	1352.65	464.45
1051.5771	3226.0746	1355.9	466.1
1051.6788	3226.9937	1351.7	461.85
1051.7804	3227.9121	1345.05	455.3
1051.8819	3228.83	1348.45	460.55
1051.9834	3229.7473	1345.6	455.95
1052.0849	3230.6639	1347.45	457.3
1052.1863	3231.5799	1339.15	450.5
1052.2876	3232.4954	1336.9	448.1
1052.3889	3233.4102	1341.95	454.8
1052.4902	3234.3244	1337.05	448.2
1052.5914	3235.238	1330.65	442.45
1052.6926	3236.151	1351	437.95
1052.7937	3237.0634	1323.75	433.95
1052.8948	3237.9752	1322.65	432.8
1052.9958	3238.8864	1324.45	434.2
1053.0968	3239.797	1317.8	430.65
1053.1977	3240.7069	1309.85	420.85
1053.2986	3241.6163	1310.4	419.5
1053.3994	3242.5251	1310.35	420.4
1053.5002	3243.4332	1310.35	420.7
1053.6009	3244.3408	1306.55	415.45
1053.7016	3245.2477	1308.4	418.35
1053.8022	3246.154	1302.5	412.55
1053.9028	3247.0598	1294.45	404.6
1054.0034	3247.9649	1295.2	405.8
1054.1039	3248.8694	1291.8	402.65
1054.2043	3249.7733	1289.15	401
1054.3047	3250.6766	1292.85	404.15
1054.4051	3251.5793	1282.2	391.9
1054.5054	3252.4814	1277.55	388.4
1054.6056	3253.3829	1275.7	386.25
1054.7058	3254.2838	1281.45	393.15
1054.806	3255.1841	1273.8	386.05
1054.9061	3256.0838	1277.7	387.45
1055.0061	3256.9829	1265	376.75
1055.1062	3257.8814	1266.2	374.55
1055.2061	3258.7792	1264.55	373.65
1055.306	3259.6765	1259.75	369.5
1055.4059	3260.5731	1250.05	360.15
1055.5057	3261.4692	1254.15	363.25
1055.6055	3262.3647	1242.2	351.8
1055.7052	3263.2595	1238.1	349.9
1055.8049	3264.1538	1238.3	350.8
1055.9045	3265.0474	1228.7	337.45
1056.0041	3265.9404	1228.15	338.7
1056.1036	3266.8329	1223.25	333.5
1056.2031	3267.7247	1223	323.65
1056.3025	3268.616	1208.25	319.6
1056.4019	3269.5066	1201.9	314.1
1056.5013	3270.3966	1191.4	300.8
1056.6005	3271.286	1180.1	292.9
