Software Version:	3.9.2.0
Unit SN:	10000200
Spectrometer SN:	6960
Date:	3/6/2024 10:47:35 AM
Data Line Index:	25
Spectral Points:	2048
Integration time (ms):	125
Averages:	20
Delay (ms):	30
Sequence Number:	1
Processing:	dark subtract
Laser Power (mW):	300
Laser Current (mA):	822
Laser Diode Temp (C):	25.1
Laser Case Temp (C):	27.4
System Temp (C):	27.2
Spectrometer Temp (C):	24.6
CCD Temp (C):	0.01
Secondary Temp (C):	20.011
Heatsink Temp (C):	22.976
CCDPCB Temp (C):	36.774
SecondaryPCB Temp (C):	34.339

Wavelength	RamanShift	Raw Counts	Dark Subtracted
787.061	30.1047	1141.15	726.95
787.2016	32.3739	1171.2	759.1
787.3422	34.6426	1217.5	803.3
787.4828	36.9109	1270.4	854.5
787.6235	39.1787	1328.05	909.35
787.7642	41.4461	1381.65	959.7
787.9049	43.7131	1447.6	1019.5
788.0456	45.9796	1514.9	1085.3
788.1863	48.2456	1578.95	1144.45
788.3271	50.5112	1646.6	1209.55
788.4679	52.7764	1730.3	1290.65
788.6087	55.0411	1805.75	1362.6
788.7496	57.3054	1896.25	1447.8
788.8904	59.5692	1984.6	1534.7
789.0313	61.8326	2093.55	1637.55
789.1722	64.0955	2194.9	1735.35
789.3132	66.3579	2327.75	1864.25
789.4541	68.6199	2479.1	2013.1
789.5951	70.8815	2749.45	2280.25
789.7361	73.1426	3266.7	2790.35
789.8771	75.4032	4584.55	4106.25
790.0181	77.6634	7955.8	7472.1
790.1592	79.9231	17121.75	16634.8
790.3003	82.1824	54100.2	53601.9
790.4414	84.4412	65535	65020.45
790.5825	86.6995	65535	64998.75
790.7237	88.9574	65535	64981.2
790.8648	91.2148	65535	64965.6
791.006	93.4717	65535	64954.25
791.1472	95.7282	65535	64947.5
791.2885	97.9842	65535	64946.2
791.4297	100.2398	65535	64943.5
791.571	102.4949	65535	64940.7
791.7123	104.7495	65535	64937.85
791.8536	107.0036	65535	64933.3
791.9949	109.2573	65535	64937.7
792.1363	111.5105	65535	64934.15
792.2777	113.7632	65535	64931.55
792.4191	116.0154	65535	64924.65
792.5605	118.2672	65535	64928.6
792.7019	120.5185	65535	64930.05
792.8434	122.7693	65535	64925.2
792.9849	125.0197	65535	64919.5
793.1264	127.2696	65535	64919.15
793.2679	129.519	65535	64914.4
793.4094	131.7679	65535	64912.15
793.551	134.0163	65535	64905.85
793.6926	136.2642	65535	64902.8
793.8342	138.5117	65535	64895.9
793.9758	140.7587	65535	64903.75
794.1175	143.0052	65535	64901.45
794.2591	145.2512	65535	64899.5
794.4008	147.4967	65535	64896.85
794.5425	149.7417	65535	64893.9
794.6842	151.9863	65535	64892.9
794.826	154.2304	65535	64887.85
794.9677	156.4739	65535	64879.3
795.1095	158.717	65535	64880.95
795.2513	160.9596	65535	64878.6
795.3931	163.2017	65535	64875.6
795.535	165.4433	65535	64877
795.6768	167.6844	65535	64874.15
795.8187	169.925	65535	64868.65
795.9606	172.1651	65535	64864.05
796.1025	174.4047	65535	64862.1
796.2445	176.6439	65535	64858.85
796.3864	178.8825	65535	64857.15
796.5284	181.1206	65535	64853.3
796.6704	183.3582	65535	64846.75
796.8124	185.5954	65535	64847
796.9544	187.832	65535	64845.65
797.0965	190.0681	65535	64842.9
797.2386	192.3037	65535	64840.2
797.3806	194.5388	65535	64836.5
797.5228	196.7734	65535	64833.3
797.6649	199.0075	65535	64829.55
797.807	201.2411	65535	64826.75
797.9492	203.4742	65535	64831.25
798.0914	205.7068	65535	64829.75
798.2336	207.9389	65535	64826.25
798.3758	210.1704	65535	64820.3
798.518	212.4015	65535	64821.25
798.6603	214.632	65535	64829.5
798.8025	216.862	65535	64842.2
798.9448	219.0915	65535	64842.5
799.0871	221.3205	65535	64841.6
799.2294	223.549	65535	64845.7
799.3718	225.777	65535	64842.2
799.5141	228.0044	65535	64839.8
799.6565	230.2314	65535	64841
799.7989	232.4578	65535	64839.75
799.9413	234.6837	65535	64828.35
800.0837	236.909	65535	64827.2
800.2262	239.1339	65535	64802.55
800.3687	241.3582	65535	64820.95
800.5111	243.582	65535	64788.6
800.6536	245.8053	65535	64799.15
800.7961	248.0281	65535	64804.85
800.9387	250.2503	65535	64801.45
801.0812	252.472	65535	64797.45
801.2238	254.6932	65535	64795.7
801.3664	256.9139	65535	64795.7
801.509	259.134	65535	64794.1
801.6516	261.3536	65535	64793.85
801.7942	263.5727	65535	64788.7
801.9369	265.7912	65535	64792.6
802.0795	268.0092	65535	64792.05
802.2222	270.2267	65535	64790.05
802.3649	272.4436	65535	64788.35
802.5076	274.6601	65535	64783.95
802.6504	276.8759	65535	64784
802.7931	279.0913	65535	64781.6
802.9359	281.3061	65535	64778.1
803.0787	283.5204	65535	64781.1
803.2215	285.7341	65535	64776.65
803.3643	287.9473	65535	64762.3
803.5071	290.16	65535	64768.15
803.6499	292.3721	65535	64775.35
803.7928	294.5837	65535	64775.7
803.9357	296.7947	65535	64774.75
804.0786	299.0052	65535	64776.25
804.2215	301.2152	65535	64773.6
804.3644	303.4246	65535	64771.85
804.5074	305.6334	65535	64775.25
804.6503	307.8418	65535	64771.6
804.7933	310.0495	65535	64769.25
804.9363	312.2568	65535	64769
805.0793	314.4635	65535	64766.7
805.2223	316.6696	65535	64765.6
805.3653	318.8752	65535	64760.65
805.5084	321.0802	65535	64766.25
805.6514	323.2847	65535	64760.85
805.7945	325.4887	65535	64766.6
805.9376	327.692	65535	64761.8
806.0807	329.8949	65535	64759.5
806.2238	332.0972	65535	64755.7
806.367	334.2989	65535	64752.1
806.5101	336.5001	65535	64755.95
806.6533	338.7007	65535	64754
806.7965	340.9008	65535	64753.05
806.9397	343.1003	65535	64751.4
807.0829	345.2992	65535	64750.85
807.2261	347.4976	65535	64746.65
807.3693	349.6955	65535	64743.85
807.5126	351.8927	65535	64743.2
807.6559	354.0895	65535	64736.2
807.7991	356.2856	65535	64745.75
807.9424	358.4812	65535	64741.35
808.0857	360.6763	65535	64744.25
808.2291	362.8707	65535	64741.05
808.3724	365.0646	65535	64738.45
808.5158	367.258	65535	64731.6
808.6591	369.4508	65535	64733
808.8025	371.643	65535	64735.45
808.9459	373.8346	65535	64730.75
809.0893	376.0257	65535	64726.9
809.2327	378.2162	65535	64728.1
809.3762	380.4062	65535	64723.5
809.5196	382.5956	65535	64723.75
809.6631	384.7844	65535	64727.45
809.8066	386.9726	65535	64727.7
809.9501	389.1603	65535	64727.6
810.0936	391.3474	65535	64688.05
810.2371	393.5339	65535	64726.65
810.3806	395.7199	65535	64734.5
810.5241	397.9052	65535	64735.3
810.6677	400.09	65535	64735.75
810.8113	402.2743	65535	64734.8
810.9548	404.4579	65535	64733.45
811.0984	406.641	65535	64730.15
811.2421	408.8235	65535	64731.25
811.3857	411.0054	65535	64730.2
811.5293	413.1868	65535	64725.65
811.673	415.3675	65535	64725.7
811.8166	417.5477	65535	64722.7
811.9603	419.7273	65535	64722.85
812.104	421.9064	65535	64710.8
812.2477	424.0848	65535	64716.9
812.3914	426.2627	65535	64715.8
812.5351	428.4399	65535	64713.65
812.6788	430.6166	65535	64712.8
812.8226	432.7928	65535	64708.05
812.9663	434.9683	65535	64712.1
813.1101	437.1432	65535	64705.75
813.2539	439.3176	65535	64708.35
813.3977	441.4914	65535	64709.15
813.5415	443.6645	65535	64707.35
813.6853	445.8371	65535	64705.2
813.8291	448.0091	65535	64708.6
813.973	450.1806	65535	64707.55
814.1168	452.3514	65535	64704.65
814.2607	454.5216	65535	64696.8
814.4046	456.6913	65535	64701.75
814.5485	458.8603	65535	64705.15
814.6924	461.0288	65535	64705.15
814.8363	463.1967	65535	64703.4
814.9802	465.3639	65535	64703.85
815.1241	467.5306	65535	64698.95
815.2681	469.6967	65535	64703.85
815.412	471.8622	65535	64701.7
815.556	474.0271	65535	64704
815.7	476.1914	65535	64700.5
815.844	478.3551	65535	64700.55
815.988	480.5182	65535	64699.1
816.132	482.6807	65535	64698.05
816.276	484.8426	65535	64702.3
816.4201	487.0039	65535	64696.45
816.5641	489.1647	65535	64695.75
816.7082	491.3248	65535	64697.8
816.8522	493.4843	65535	64696.45
816.9963	495.6432	65535	64696.3
817.1404	497.8015	65535	64693.3
817.2845	499.9592	65535	64695.8
817.4286	502.1163	65535	64695.3
817.5727	504.2728	65535	64695.35
817.7168	506.4287	65535	64695.05
817.861	508.5839	65535	64692.4
818.0051	510.7386	65535	64694.55
818.1493	512.8927	65535	64691.95
818.2935	515.0461	65535	64689.8
818.4377	517.199	65535	64692.5
818.5818	519.3512	65535	64689.2
818.726	521.5029	65535	64686.2
818.8703	523.6539	65535	64688.9
819.0145	525.8043	65535	64688.15
819.1587	527.9541	65535	64685.65
819.303	530.1033	65535	64684.15
819.4472	532.2519	65535	64688.65
819.5915	534.3999	65535	64682.85
819.7357	536.5472	65535	64685.45
819.88	538.694	65535	64686.75
820.0243	540.8401	65535	64683.45
820.1686	542.9856	65535	64683.6
820.3129	545.1305	65535	64680.85
820.4572	547.2748	65535	64679.45
820.6016	549.4185	65535	64681
820.7459	551.5615	65535	64678.25
820.8902	553.704	65535	64678.8
821.0346	555.8458	65535	64683.8
821.1789	557.987	65535	64682.25
821.3233	560.1276	65535	64682.05
821.4677	562.2675	65535	64682.2
821.6121	564.4069	65535	64679.9
821.7565	566.5456	65535	64683.25
821.9009	568.6837	65535	64681.95
822.0453	570.8212	65535	64683.85
822.1897	572.958	65535	64680.2
822.3342	575.0942	65535	64683.15
822.4786	577.2299	65535	64680.1
822.6231	579.3648	65535	64682.5
822.7675	581.4992	65535	64682.05
822.912	583.6329	65535	64682.1
823.0565	585.766	65535	64681.15
823.201	587.8985	65535	64679.15
823.3454	590.0304	65535	64653.35
823.4899	592.1616	65535	64673.7
823.6345	594.2922	65535	64675.7
823.779	596.4222	65535	64672.65
823.9235	598.5515	65535	64674.4
824.068	600.6802	65535	64672.8
824.2126	602.8083	65535	64673.65
824.3571	604.9358	65535	64675.25
824.5017	607.0626	65535	64672.8
824.6462	609.1888	65535	64672.6
824.7908	611.3144	65535	64675.15
824.9354	613.4393	65535	64674.55
825.08	615.5636	65535	64669.6
825.2246	617.6873	65535	64673.45
825.3692	619.8103	65535	64671.85
825.5138	621.9327	65535	64668.25
825.6584	624.0544	65535	64672.7
825.803	626.1756	65535	64673.4
825.9477	628.2961	65535	64672.75
826.0923	630.4159	65535	64673
826.237	632.5351	65535	64669.4
826.3816	634.6537	65535	64670.55
826.5263	636.7716	65535	64665.85
826.6709	638.8889	65535	64670.1
826.8156	641.0056	65535	64666.85
826.9603	643.1216	65535	64666.5
827.105	645.237	65535	64663.4
827.2497	647.3518	65535	64667.85
827.3944	649.4659	65535	64667.15
827.5391	651.5793	65535	64666.9
827.6838	653.6922	65535	64668.2
827.8285	655.8043	65535	64667.05
827.9733	657.9159	65535	64667
828.118	660.0268	65535	64664.8
828.2627	662.137	65535	64664.8
828.4075	664.2466	65535	64661
828.5522	666.3556	65535	64667.65
828.697	668.4639	65535	64663.4
828.8418	670.5716	65535	64666.65
828.9865	672.6786	65535	64664.7
829.1313	674.785	65535	64662.5
829.2761	676.8907	65535	64665.2
829.4209	678.9958	65535	64665.2
829.5657	681.1002	65535	64662.3
829.7105	683.204	65535	64660.2
829.8553	685.3072	65535	64662.1
830.0001	687.4097	65535	64660.6
830.1449	689.5115	65535	64660.6
830.2898	691.6127	65535	64660.8
830.4346	693.7132	65535	64657.85
830.5794	695.8131	65535	64654.4
830.7243	697.9123	65535	64660.15
830.8691	700.0109	65535	64659.65
831.014	702.1089	65535	64661.8
831.1588	704.2061	65535	64658.4
831.3037	706.3028	65535	64658.4
831.4486	708.3987	65535	64661.7
831.5935	710.4941	65535	64657.25
831.7383	712.5887	65535	64657.9
831.8832	714.6827	65535	64653.9
832.0281	716.7761	65535	64657.6
832.173	718.8688	65535	64655.8
832.3179	720.9608	65535	64654.65
832.4628	723.0522	65535	64652.4
832.6077	725.1429	65535	64657.8
832.7527	727.233	65535	64654.8
832.8976	729.3224	65535	64653.15
833.0425	731.4112	65535	64656.15
833.1874	733.4993	65535	64652.65
833.3324	735.5867	65535	64652.65
833.4773	737.6735	65535	64654
833.6222	739.7596	65535	64653.25
833.7672	741.845	65535	64654.9
833.9122	743.9298	65535	64652.75
834.0571	746.014	65535	64656.85
834.2021	748.0974	65535	64653.95
834.347	750.1802	65535	64653.9
834.492	752.2624	65535	64654.9
834.637	754.3439	65535	64651.35
834.782	756.4247	65535	64647.55
834.9269	758.5048	65535	64655.35
835.0719	760.5843	65535	64652.2
835.2169	762.6631	65535	64654.35
835.3619	764.7413	65535	64655.3
835.5069	766.8188	65535	64653.1
835.6519	768.8956	65535	64654
835.7969	770.9718	65535	64653.05
835.9419	773.0473	65535	64652.95
836.0869	775.1221	65535	64653.7
836.232	777.1962	65535	64650.7
836.377	779.2697	65535	64651.05
836.522	781.3426	65535	64632.15
836.667	783.4147	65535	64648.95
836.8121	785.4862	65535	64654.65
836.9571	787.557	65535	64652.6
837.1021	789.6271	65535	64652.05
837.2472	791.6966	65535	64650.85
837.3922	793.7654	65535	64651.5
837.5373	795.8335	65535	64652.4
837.6823	797.901	65535	64650
837.8274	799.9678	65535	64652.6
837.9724	802.0339	65535	64650.1
838.1175	804.0993	65535	64642.9
838.2626	806.1641	65535	64647.2
838.4076	808.2282	65535	64648.55
838.5527	810.2916	65535	64647.85
838.6978	812.3544	65535	64651.85
838.8428	814.4164	65535	64652.65
838.9879	816.4778	65535	64650
839.133	818.5385	65535	64649.35
839.2781	820.5986	65535	64652.15
839.4232	822.658	65535	64648.1
839.5682	824.7166	65535	64649.85
839.7133	826.7747	65535	64650.65
839.8584	828.832	65535	64648.8
840.0035	830.8886	65535	64647.2
840.1486	832.9446	65535	64649.95
840.2937	834.9999	65535	64650.95
840.4388	837.0545	65535	64644.35
840.5839	839.1085	65535	64646.1
840.729	841.1618	65535	64644.9
840.8741	843.2143	65535	64647.95
841.0192	845.2662	65535	64648.55
841.1643	847.3175	65535	64649.25
841.3095	849.368	65535	64648.6
841.4546	851.4179	65535	64646.55
841.5997	853.467	65535	64648.55
841.7448	855.5155	65535	64648
841.8899	857.5633	65535	64645.45
842.0351	859.6105	65535	64649.15
842.1802	861.6569	65535	64649.35
842.3253	863.7027	65535	64642.85
842.4704	865.7478	65535	64647.35
842.6156	867.7922	65535	64645.05
842.7607	869.8359	65535	64646.05
842.9058	871.8789	65535	64646.1
843.0509	873.9212	65535	64615.75
843.1961	875.9629	65535	64645.3
843.3412	878.0039	65535	64647.2
843.4863	880.0441	65535	64646.95
843.6315	882.0837	65535	64646.9
843.7766	884.1226	65535	64645.65
843.9218	886.1609	65535	64642.85
844.0669	888.1984	65535	64648.3
844.212	890.2352	65535	64645.15
844.3572	892.2714	65535	64644.5
844.5023	894.3069	65535	64646.5
844.6475	896.3416	65535	64645.6
844.7926	898.3757	65535	64645.35
844.9377	900.4091	65535	64643.25
845.0829	902.4418	65535	64640.6
845.228	904.4739	65535	64643.25
845.3732	906.5052	65535	64645.3
845.5183	908.5358	65535	64648
845.6635	910.5658	65535	64642.3
845.8086	912.595	65535	64646.4
845.9538	914.6236	65535	64646.2
846.0989	916.6515	65535	64646.55
846.2441	918.6786	65535	64644.2
846.3892	920.7051	65535	64643.55
846.5344	922.7309	65535	64643.5
846.6795	924.756	65535	64644.3
846.8246	926.7804	65535	64640.25
846.9698	928.8041	65535	64638.15
847.1149	930.8272	65535	64642.6
847.2601	932.8495	65535	64644.2
847.4052	934.8711	65535	64645.1
847.5504	936.892	65535	64642.9
847.6955	938.9123	65535	64642.55
847.8407	940.9318	65535	64643.1
847.9858	942.9506	65535	64640.35
848.131	944.9688	65535	64644.1
848.2761	946.9862	65535	64641.55
848.4213	949.003	65535	64642.75
848.5664	951.019	65535	64642.95
848.7115	953.0344	65535	64639.8
848.8567	955.0491	65535	64640.7
849.0018	957.063	65535	64641.3
849.147	959.0763	65535	64644
849.2921	961.0888	65535	64642.3
849.4373	963.1007	65535	64644.9
849.5824	965.1119	65535	64644.8
849.7275	967.1223	65535	64642.45
849.8727	969.1321	65535	64643.65
850.0178	971.1412	65535	64643.6
850.1629	973.1495	65535	64643.15
850.3081	975.1572	65535	64609.4
850.4532	977.1641	65535	64640.75
850.5983	979.1704	65535	64642
850.7435	981.1759	65535	64637.15
850.8886	983.1808	65535	64640.85
851.0337	985.1849	65535	64630.25
851.1788	987.1884	65535	64638.2
851.324	989.1911	65535	64638.65
851.4691	991.1932	65535	64641.4
851.6142	993.1945	65535	64642
851.7593	995.1951	65535	64640.9
851.9045	997.1951	65535	64635.6
852.0496	999.1943	65535	64639.25
852.1947	1001.1928	65535	64640.4
852.3398	1003.1906	65535	64643.6
852.4849	1005.1877	65535	64642.2
852.63	1007.1841	65535	64640.1
852.7751	1009.1798	65535	64640.7
852.9202	1011.1748	65535	64641.4
853.0653	1013.1691	65535	64641.65
853.2104	1015.1627	65535	64641.45
853.3555	1017.1556	65535	64645.1
853.5006	1019.1477	65535	64639.6
853.6457	1021.1392	65535	64643.45
853.7908	1023.1299	65535	64642.55
853.9359	1025.12	65535	64642.8
854.081	1027.1093	65535	64643.8
854.2261	1029.0979	65535	64643.55
854.3712	1031.0859	65535	64645.05
854.5163	1033.0731	65535	64640.65
854.6613	1035.0596	65535	64642.35
854.8064	1037.0454	65535	64640.15
854.9515	1039.0304	65535	64640.8
855.0965	1041.0148	65535	64643.25
855.2416	1042.9985	65535	64641.45
855.3867	1044.9814	65535	64641.2
855.5317	1046.9636	65535	64640.05
855.6768	1048.9452	65535	64643.75
855.8219	1050.926	65535	64640.65
855.9669	1052.9061	65535	64643.4
856.112	1054.8855	65535	64642.5
856.257	1056.8642	65535	64643.05
856.4021	1058.8421	65535	64638.55
856.5471	1060.8194	65535	64641.4
856.6921	1062.7959	65535	64641.55
856.8372	1064.7717	65535	64640.75
856.9822	1066.7469	65535	64638.8
857.1272	1068.7213	65535	64636.1
857.2723	1070.695	65535	64641.5
857.4173	1072.6679	65535	64640.4
857.5623	1074.6402	65535	64639.65
857.7073	1076.6117	65535	64634.45
857.8523	1078.5826	65535	64640.25
857.9973	1080.5527	65535	64639.65
858.1423	1082.5221	65535	64641.55
858.2873	1084.4908	65535	64639.45
858.4323	1086.4587	65535	64641.75
858.5773	1088.426	65535	64639.6
858.7223	1090.3925	65535	64632.95
858.8673	1092.3584	65535	64643.3
859.0123	1094.3235	65535	64642.3
859.1573	1096.2879	65535	64640.4
859.3022	1098.2515	65535	64639.85
859.4472	1100.2145	65535	64641.05
859.5922	1102.1767	65535	64636.35
859.7371	1104.1382	65535	64639.45
859.8821	1106.099	65535	64638.8
860.027	1108.0591	65535	64641.6
860.172	1110.0185	65535	64638.7
860.3169	1111.9771	65535	64642.4
860.4619	1113.9351	65535	64640.5
860.6068	1115.8923	65535	64637.9
860.7517	1117.8488	65535	64637.5
860.8967	1119.8045	65535	64638.7
861.0416	1121.7596	65535	64638.85
861.1865	1123.7139	65535	64639.6
861.3314	1125.6675	65535	64641.3
861.4763	1127.6204	65535	64639.6
861.6212	1129.5726	65535	64639.35
861.7661	1131.524	65535	64643.1
861.911	1133.4748	65535	64640.45
862.0559	1135.4248	65535	64638.45
862.2008	1137.3741	65535	64640.55
862.3457	1139.3226	65535	64638.3
862.4905	1141.2705	65535	64639.95
862.6354	1143.2176	65535	64636.7
862.7803	1145.164	65535	64638.75
862.9251	1147.1097	65535	64639.05
863.07	1149.0546	65535	64638.75
863.2148	1150.9989	65535	64637.45
863.3597	1152.9424	65535	64638
863.5045	1154.8852	65535	64640.15
863.6493	1156.8272	65535	64641.15
863.7942	1158.7686	65535	64632.7
863.939	1160.7092	65535	64639
864.0838	1162.6491	65535	64637.7
864.2286	1164.5883	65535	64640.9
864.3734	1166.5267	65535	64638.55
864.5182	1168.4644	65535	64641.7
864.663	1170.4014	65535	64636.25
864.8078	1172.3377	65535	64640.3
864.9526	1174.2732	65535	64639.95
865.0974	1176.2081	65535	64638.4
865.2421	1178.1421	65535	64635.75
865.3869	1180.0755	65535	64640.15
865.5317	1182.0082	65535	64639.3
865.6764	1183.9401	65535	64639
865.8212	1185.8713	65535	64639.25
865.9659	1187.8017	65535	64639.45
866.1106	1189.7315	65535	64643
866.2554	1191.6605	65535	64610.35
866.4001	1193.5888	65535	64640.25
866.5448	1195.5163	65535	64640.25
866.6895	1197.4432	65535	64637.6
866.8342	1199.3693	65535	64639.2
866.9789	1201.2947	65535	64636.8
867.1236	1203.2193	65535	64638.65
867.2683	1205.1432	65535	64639.15
867.413	1207.0664	65535	64640.5
867.5576	1208.9889	65535	64638.9
867.7023	1210.9106	65535	64640.3
867.847	1212.8316	65535	64639.65
867.9916	1214.7519	65535	64629.6
868.1363	1216.6715	65535	64638
868.2809	1218.5903	65535	64641.05
868.4255	1220.5084	65535	64639.15
868.5701	1222.4257	65535	64639.65
868.7148	1224.3424	65535	64639.55
868.8594	1226.2583	65535	64634.9
869.004	1228.1735	65535	64639.2
869.1486	1230.0879	65535	64637.45
869.2932	1232.0016	65535	64642.1
869.4377	1233.9146	65535	64636.65
869.5823	1235.8269	65535	64639.65
869.7269	1237.7384	65535	64639.95
869.8715	1239.6492	65535	64639.7
870.016	1241.5592	65535	64639.05
870.1606	1243.4686	65535	64639
870.3051	1245.3772	65535	64637.65
870.4496	1247.285	65535	64640.45
870.5941	1249.1922	65535	64637.7
870.7387	1251.0986	65535	64639.6
870.8832	1253.0042	65535	64640.6
871.0277	1254.9092	65535	64636.35
871.1722	1256.8134	65535	64641.6
871.3167	1258.7169	65535	64636.8
871.4611	1260.6196	65535	64640.85
871.6056	1262.5216	65535	64638.8
871.7501	1264.4229	65535	64639.85
871.8945	1266.3234	65535	64639.15
872.039	1268.2232	65535	64638.45
872.1834	1270.1223	65535	64638.3
872.3278	1272.0207	65535	64642.65
872.4723	1273.9183	65535	64631.95
872.6167	1275.8151	65535	64638.5
872.7611	1277.7113	65535	64638.6
872.9055	1279.6067	65535	64638.9
873.0499	1281.5014	65535	64637.4
873.1943	1283.3953	65535	64636.3
873.3386	1285.2885	65535	64639.3
873.483	1287.181	65535	64637.85
873.6274	1289.0727	65535	64638.7
873.7717	1290.9637	65535	64639.7
873.9161	1292.854	65535	64638.15
874.0604	1294.7435	65535	64640.55
874.2047	1296.6323	65535	64638.85
874.349	1298.5204	65535	64636.75
874.4933	1300.4077	65535	64639
874.6376	1302.2943	65535	64638.65
874.7819	1304.1802	65535	64640.8
874.9262	1306.0653	65535	64636.6
875.0705	1307.9497	65535	64637
875.2147	1309.8333	65535	64640.3
875.359	1311.7162	65535	64636.55
875.5032	1313.5984	65535	64638.95
875.6475	1315.4798	65535	64629.75
875.7917	1317.3605	65535	64620.55
875.9359	1319.2405	65535	64638.8
876.0801	1321.1197	65535	64635.2
876.2243	1322.9982	65535	64635.6
876.3685	1324.876	65535	64640.15
876.5127	1326.753	65535	64637.8
876.6569	1328.6293	65535	64639.3
876.801	1330.5048	65535	64637.2
876.9452	1332.3796	65535	64638.75
877.0893	1334.2537	65535	64613.55
877.2335	1336.127	65535	64640.05
877.3776	1337.9996	65535	64638.05
877.5217	1339.8714	65535	64638.55
877.6658	1341.7426	65535	64595.65
877.8099	1343.6129	65535	64637.7
877.954	1345.4826	65535	64637.75
878.0981	1347.3515	65535	64634.8
878.2422	1349.2196	65535	64636.2
878.3862	1351.087	65535	64637.5
878.5303	1352.9537	65535	64639.45
878.6743	1354.8197	65535	64639.45
878.8184	1356.6849	65535	64640.8
878.9624	1358.5493	65535	64638.4
879.1064	1360.4131	65535	64637.05
879.2504	1362.276	65535	64640.2
879.3944	1364.1383	65535	64637.45
879.5384	1365.9998	65535	64633
879.6823	1367.8606	65535	64639.45
879.8263	1369.7206	65535	64637.55
879.9702	1371.5799	65535	64639.4
880.1142	1373.4384	65535	64636
880.2581	1375.2962	65535	64638.85
880.402	1377.1533	65535	64636.75
880.5459	1379.0096	65535	64634.75
880.6898	1380.8652	65535	64637.6
880.8337	1382.7201	65535	64640.35
880.9776	1384.5742	65535	64640.9
881.1215	1386.4275	65535	64638.25
881.2653	1388.2802	65535	64640.3
881.4092	1390.132	65535	64639.75
881.553	1391.9832	65535	64638.2
881.6968	1393.8336	65535	64635.75
881.8406	1395.6832	65535	64636.9
881.9844	1397.5322	65535	64638.45
882.1282	1399.3803	65535	64633.7
882.272	1401.2278	65535	64636.85
882.4158	1403.0745	65535	64640.05
882.5595	1404.9204	65535	64640.95
882.7033	1406.7656	65535	64639.35
882.847	1408.6101	65535	64638.4
882.9908	1410.4538	65535	64638.1
883.1345	1412.2968	65535	64638.75
883.2782	1414.139	65535	64638.15
883.4219	1415.9805	65535	64640.05
883.5656	1417.8213	65535	64631.35
883.7092	1419.6613	65535	64637
883.8529	1421.5006	65535	64638.7
883.9965	1423.3391	65535	64638.4
884.1402	1425.1769	65535	64636
884.2838	1427.0139	65535	64638.8
884.4274	1428.8502	65535	64637.65
884.571	1430.6858	65535	64635.75
884.7146	1432.5206	65535	64638.95
884.8582	1434.3547	65535	64639.05
885.0018	1436.188	65535	64639.5
885.1453	1438.0206	65535	64637.8
885.2889	1439.8524	65535	64636.85
885.4324	1441.6835	65535	64639.2
885.5759	1443.5139	65535	64634.65
885.7194	1445.3435	65535	64637.45
885.8629	1447.1724	65535	64637.85
886.0064	1449.0005	65535	64638.2
886.1499	1450.8279	65535	64636.15
886.2933	1452.6545	65535	64639.15
886.4368	1454.4804	65535	64638.6
886.5802	1456.3056	65535	64631.65
886.7237	1458.13	65535	64639.75
886.8671	1459.9536	65535	64638.3
887.0105	1461.7766	65535	64639.1
887.1539	1463.5987	65535	64640.1
887.2972	1465.4202	65535	64639.05
887.4406	1467.2409	65535	64639.05
887.584	1469.0608	65535	64640.7
887.7273	1470.88	65535	64637.15
887.8706	1472.6984	65535	64638.85
888.0139	1474.5161	65535	64635.85
888.1572	1476.3331	65535	64639.45
888.3005	1478.1493	65535	64638.05
888.4438	1479.9648	65535	64639.7
888.5871	1481.7795	65535	64639.05
888.7303	1483.5935	65535	64642.75
888.8736	1485.4067	65535	64639.3
889.0168	1487.2192	65535	64636.75
889.16	1489.031	65535	64637.7
889.3032	1490.842	65535	64638.9
889.4464	1492.6522	65535	64640.6
889.5896	1494.4618	65535	64637.9
889.7327	1496.2705	65535	64641.05
889.8759	1498.0785	65535	64638.7
890.019	1499.8858	65535	64639.35
890.1622	1501.6924	65535	64639.85
890.3053	1503.4981	65535	64640.1
890.4484	1505.3032	65535	64638.35
890.5914	1507.1075	65535	64638.05
890.7345	1508.911	65535	64639
890.8776	1510.7138	65535	64639.85
891.0206	1512.5159	65535	64637.2
891.1637	1514.3172	65535	64640.05
891.3067	1516.1178	65535	64640.95
891.4497	1517.9176	65535	64636.5
891.5927	1519.7166	65535	64639.7
891.7357	1521.515	65535	64631.45
891.8786	1523.3126	65535	64636.35
892.0216	1525.1094	65535	64638.1
892.1645	1526.9055	65535	64641.55
892.3074	1528.7008	65535	64640.9
892.4503	1530.4954	65535	64631.85
892.5932	1532.2893	65535	64642.8
892.7361	1534.0824	65535	64635.95
892.879	1535.8747	65535	64638.65
893.0218	1537.6663	65535	64639.1
893.1647	1539.4572	65535	64638.25
893.3075	1541.2473	65535	64638.85
893.4503	1543.0367	65535	64641.45
893.5931	1544.8253	65535	64635.55
893.7359	1546.6132	65535	64637
893.8787	1548.4003	65535	64628.95
894.0214	1550.1867	65535	64628.55
894.1642	1551.9723	65535	64633.65
894.3069	1553.7572	65535	64637.95
894.4496	1555.5414	65535	64640.65
894.5923	1557.3247	65502.4	64605.6
894.735	1559.1074	65535	64641.9
894.8777	1560.8893	65535	64641.95
895.0204	1562.6705	65535	64639.85
895.163	1564.4509	65520.8	64625.1
895.3056	1566.2305	65535	64640.9
895.4482	1568.0094	65535	64640.5
895.5908	1569.7876	65535	64639.75
895.7334	1571.565	65517.7	64623.55
895.876	1573.3417	65535	64640.8
896.0186	1575.1176	65529	64634.9
896.1611	1576.8928	65514.8	64620.7
896.3036	1578.6672	65446.1	64553.35
896.4461	1580.4409	65499.1	64605
896.5886	1582.2138	65356	64460.2
896.7311	1583.986	65411.3	64516.1
896.8736	1585.7575	65148.1	64254.25
897.0161	1587.5282	65285.7	64391.55
897.1585	1589.2981	65253.45	64360.65
897.3009	1591.0673	64916.55	64020.9
897.4433	1592.8358	64667.65	63775.25
897.5857	1594.6035	64942.7	64044.95
897.7281	1596.3704	64994.3	64099.1
897.8705	1598.1366	64424.15	63528.05
898.0128	1599.9021	64058.2	63164.65
898.1551	1601.6668	64613.35	63716.25
898.2975	1603.4308	64323.15	63427.8
898.4398	1605.194	64346.1	63447.55
898.5821	1606.9564	63543	62649.4
898.7243	1608.7182	63992.15	63094
898.8666	1610.4791	63548.15	62656
899.0088	1612.2394	63981.65	63088.7
899.1511	1613.9988	63461.2	62567.45
899.2933	1615.7576	64078.1	63185
899.4355	1617.5156	64026.95	63125.55
899.5776	1619.2728	64578.65	63685.15
899.7198	1621.0293	63606	62712.3
899.862	1622.785	63645.55	62750.05
900.0041	1624.54	63937.4	63043.1
900.1462	1626.2942	63446.1	62550.2
900.2883	1628.0477	62625.55	61730.6
900.4304	1629.8005	61921.05	61026.45
900.5725	1631.5525	62633.25	61741.15
900.7145	1633.3037	61471.8	60577.6
900.8566	1635.0542	61349.25	60455.85
900.9986	1636.804	61792.05	60896.45
901.1406	1638.553	60764.8	59788.05
901.2826	1640.3013	61090.15	60197
901.4245	1642.0488	60364.25	59470.35
901.5665	1643.7955	60857	59964.55
901.7085	1645.5416	60333.65	59441.5
901.8504	1647.2868	59904.85	59012.8
901.9923	1649.0313	60683.75	59789.45
902.1342	1650.7751	60220.95	59323.65
902.2761	1652.5181	59845.95	58952.85
902.4179	1654.2604	59934.95	59043.6
902.5598	1656.0019	60345.85	59453.05
902.7016	1657.7427	60105.95	59212.65
902.8434	1659.4828	60653.55	59761.45
902.9852	1661.222	60284.2	59387.55
903.127	1662.9606	60754.65	59863
903.2687	1664.6984	59987.6	59093.55
903.4105	1666.4354	60098.45	59205.7
903.5522	1668.1717	58989.2	58095.4
903.6939	1669.9072	58251.6	57358.25
903.8356	1671.642	57959.65	57065.85
903.9773	1673.3761	57663.3	56769.85
904.119	1675.1094	57388.4	56495.1
904.2606	1676.8419	56820.45	55928
904.4022	1678.5737	56658.45	55765.25
904.5439	1680.3048	56408.6	55517.05
904.6855	1682.0351	56087.7	55194.2
904.827	1683.7646	55801.6	54905.75
904.9686	1685.4934	55811.9	54920.1
905.1101	1687.2215	54938.45	54045.85
905.2517	1688.9488	55463.45	54571.65
905.3932	1690.6754	54249.95	53355.7
905.5347	1692.4012	54622.95	53731.65
905.6761	1694.1263	54548.85	53656.85
905.8176	1695.8506	54299.45	53405.3
905.9591	1697.5742	54063.7	53172.95
906.1005	1699.297	53849	52957.5
906.2419	1701.0191	53689.95	52798.7
906.3833	1702.7404	53284.3	52391.75
906.5246	1704.461	52984.35	52090.2
906.666	1706.1808	52909.8	52016
906.8073	1707.8999	52789.75	51896.85
906.9487	1709.6182	52544.45	51651.2
907.09	1711.3358	52395.55	51502.85
907.2313	1713.0527	52239.55	51346.9
907.3725	1714.7688	52066	51166.85
907.5138	1716.4841	51645.3	50752.3
907.655	1718.1987	51764.1	50865.45
907.7962	1719.9126	51533.3	50644.7
907.9374	1721.6257	51355.55	50460.3
908.0786	1723.338	51430.75	50539.4
908.2198	1725.0496	50835.6	49942.4
908.3609	1726.7605	50800.9	49906.65
908.502	1728.4706	50641.85	49748.5
908.6431	1730.18	50411.3	49516
908.7842	1731.8886	50287.25	49394.8
908.9253	1733.5964	50155.15	49243.25
909.0664	1735.3036	50101.45	49204.8
909.2074	1737.0099	49883.25	48990.1
909.3484	1738.7156	49685.2	48794.45
909.4894	1740.4204	49431	48537.5
909.6304	1742.1246	49346.85	48453.75
909.7714	1743.8279	49269.45	48377.6
909.9123	1745.5306	49158.95	48266.75
910.0532	1747.2325	48895.65	48003.4
910.1941	1748.9336	48729.6	47837.75
910.335	1750.634	48570.05	47677.3
910.4759	1752.3336	48471.6	47577.65
910.6168	1754.0325	48351.95	47460.6
910.7576	1755.7307	48301.7	47408.2
910.8984	1757.4281	48175.1	47285.2
911.0392	1759.1247	48169.55	47270
911.18	1760.8206	47948.05	47049.55
911.3208	1762.5158	47850.35	46953.85
911.4615	1764.2102	47674.1	46782.6
911.6022	1765.9039	47451.9	46559.2
911.7429	1767.5968	47332.85	46443.15
911.8836	1769.289	47173.15	46281.7
912.0243	1770.9804	47113.55	46222.2
912.1649	1772.6711	47033.25	46142.95
912.3056	1774.361	46782.15	45887.7
912.4462	1776.0502	46713.3	45820
912.5868	1777.7386	46552.25	45655.6
912.7274	1779.4263	46431.5	45538.4
912.8679	1781.1132	46355.4	45462.75
913.0084	1782.7994	46133.5	45240.5
913.149	1784.4849	46072.2	45181.35
913.2895	1786.1696	45773.2	44875.05
913.4299	1787.8535	45736.65	44847.75
913.5704	1789.5367	45555.8	44662.2
913.7108	1791.2192	45479.65	44587.05
913.8513	1792.9009	45269.15	44348.8
913.9917	1794.5818	45221.6	44328.3
914.132	1796.2621	45114.8	44223
914.2724	1797.9415	44926.8	44033
914.4128	1799.6202	44828.75	43934.2
914.5531	1801.2982	44692.8	43800.45
914.6934	1802.9755	44519.45	43626.15
914.8337	1804.6519	44428.05	43538.25
914.9739	1806.3277	44320.4	43429.2
915.1142	1808.0027	43980.5	43088.15
915.2544	1809.6769	44014.95	43121.5
915.3946	1811.3504	43887.05	42992.25
915.5348	1813.0231	43709.45	42816.1
915.675	1814.6951	43715.05	42823.5
915.8151	1816.3664	43669	42774.6
915.9553	1818.0369	43530.6	42639.55
916.0954	1819.7067	43312.25	42420.55
916.2355	1821.3757	43206.05	42311.5
916.3755	1823.044	43086.25	42195.45
916.5156	1824.7115	42917.65	42026.8
916.6556	1826.3783	42773.05	41884.65
916.7956	1828.0443	42665.2	41773.45
916.9356	1829.7096	42462.4	41571.3
917.0756	1831.3741	42449.1	41555.3
917.2155	1833.0379	42312.6	41420.95
917.3555	1834.701	42123.4	41230.65
917.4954	1836.3633	42024.9	41132.15
917.6353	1838.0248	41940.3	41047.2
917.7751	1839.6856	41843.25	40952.75
917.915	1841.3457	41778.55	40886.9
918.0548	1843.005	41675.35	40784.25
918.1946	1844.6636	41634.65	40743.75
918.3344	1846.3214	41437.6	40548
918.4742	1847.9785	41356.45	40465.05
918.6139	1849.6349	41289.35	40395.1
918.7537	1851.2904	41140.25	40239.55
918.8934	1852.9453	40978.85	40087.2
919.0331	1854.5994	40860.1	39964.95
919.1727	1856.2528	40902.55	40004.55
919.3124	1857.9054	40702.75	39810.2
919.452	1859.5572	40598.65	39709.75
919.5916	1861.2083	40523.9	39632.1
919.7312	1862.8587	40467.9	39578
919.8708	1864.5084	40345.9	39453.7
920.0103	1866.1572	40203.5	39312.9
920.1498	1867.8054	39976.8	39085.35
920.2893	1869.4528	39928	39035.75
920.4288	1871.0994	39804.3	38910.95
920.5683	1872.7453	39728.45	38836.9
920.7077	1874.3905	39619.35	38721.2
920.8471	1876.0349	39428.1	38536.8
920.9865	1877.6786	39383.6	38490.55
921.1259	1879.3215	39366.7	38475.05
921.2653	1880.9637	39278.55	38387.35
921.4046	1882.6051	39195.05	38305.5
921.5439	1884.2458	39020.7	38127.55
921.6832	1885.8858	38805.75	37912.15
921.8225	1887.525	38757.8	37863.2
921.9617	1889.1634	38530.2	37639.65
922.101	1890.8011	38405.2	37513
922.2402	1892.4381	38304	37414.7
922.3794	1894.0743	38311.55	37421.9
922.5185	1895.7098	38174.4	37283.3
922.6577	1897.3446	38067.9	37176.95
922.7968	1898.9786	37902.4	37006.5
922.9359	1900.6118	37856.25	36965.3
923.075	1902.2443	37651.35	36759.2
923.214	1903.8761	37574.2	36684.35
923.3531	1905.5071	37298.75	36407.5
923.4921	1907.1374	37209.1	36317.95
923.6311	1908.7669	37167.5	36276.2
923.77	1910.3957	37055.45	36163.05
923.909	1912.0237	36768.55	35875.9
924.0479	1913.651	36795.95	35905.4
924.1868	1915.2776	36676.85	35786.7
924.3257	1916.9034	36481.3	35591.1
924.4646	1918.5285	36293.45	35404.25
924.6034	1920.1528	36132.9	35241.15
924.7422	1921.7764	36083.35	35192.55
924.881	1923.3992	35904.15	35012.6
925.0198	1925.0213	35667.05	34773.5
925.1586	1926.6427	35541.05	34650.35
925.2973	1928.2633	35597	34591.35
925.436	1929.8832	35336.2	34443.05
925.5747	1931.5023	35147.45	34256.95
925.7134	1933.1207	35115.9	34224.35
925.852	1934.7383	35048.95	34157.7
925.9906	1936.3552	34851.55	33959.8
926.1292	1937.9714	34786.3	33894.4
926.2678	1939.5868	34602.35	33709.95
926.4064	1941.2015	34368.7	33476.55
926.5449	1942.8154	34228.2	33337.1
926.6834	1944.4286	34073.05	33182.75
926.8219	1946.041	33946	33036.2
926.9604	1947.6528	33739.1	32841.75
927.0988	1949.2637	33692.45	32802.75
927.2372	1950.8739	33538.25	32646.5
927.3756	1952.4834	33499.65	32607.65
927.514	1954.0921	33408.55	32516.9
927.6523	1955.7001	33271.85	32375
927.7907	1957.3074	33195.65	32305.15
927.929	1958.9139	32980.1	32089.45
928.0673	1960.5197	32927.9	32036.95
928.2055	1962.1247	32760.75	31868.25
928.3438	1963.729	32622.95	31732.9
928.482	1965.3325	32474.45	31560.75
928.6202	1966.9353	32345.45	31454.55
928.7584	1968.5374	32243.9	31353.1
928.8965	1970.1387	32135.85	31245.2
929.0346	1971.7393	31987.75	31096.25
929.1727	1973.3392	31918.4	31026.2
929.3108	1974.9383	31740.25	30849.55
929.4489	1976.5366	31587.95	30697.05
929.5869	1978.1342	31568	30675.85
929.7249	1979.7311	31464.05	30571.4
929.8629	1981.3273	31351.8	30461.2
930.0009	1982.9227	31217.15	30324.85
930.1388	1984.5173	31062.15	30170.3
930.2767	1986.1112	30960.35	30070.35
930.4146	1987.7044	30908.9	30019.15
930.5525	1989.2968	30731.6	29839.25
930.6904	1990.8885	30671.25	29777.2
930.8282	1992.4795	30598.85	29706.05
930.966	1994.0697	30500.8	29609.65
931.1038	1995.6592	30377.05	29484.7
931.2415	1997.2479	30291.1	29399.1
931.3793	1998.8359	30203.3	29312.85
931.517	2000.4232	30063.75	29175.35
931.6547	2002.0097	29914.1	29025.45
931.7923	2003.5955	29760.35	28867.9
931.93	2005.1805	29717.9	28825.05
932.0676	2006.7648	29655.9	28764.3
932.2052	2008.3484	29546.85	28654.4
932.3427	2009.9312	29559.95	28668.65
932.4803	2011.5133	29406.9	28514.8
932.6178	2013.0946	29276.4	28384.75
932.7553	2014.6752	29185.55	28296.5
932.8928	2016.2551	29109.25	28219.1
933.0302	2017.8342	28917.5	28026.15
933.1676	2019.4126	28848.55	27959.55
933.305	2020.9902	28705.8	27813.45
933.4424	2022.5672	28634.65	27742.35
933.5798	2024.1433	28617.85	27720.45
933.7171	2025.7188	28469.6	27582.35
933.8544	2027.2935	28374.05	27481.65
933.9917	2028.8674	28237.65	27346.5
934.129	2030.4406	28138.85	27250.05
934.2662	2032.0131	28031	27140.85
934.4034	2033.5849	27953.55	27052.8
934.5406	2035.1559	27869.85	26978.3
934.6778	2036.7261	27847.7	26955.4
934.8149	2038.2957	27679.4	26789.2
934.952	2039.8645	27644.15	26754.6
935.0891	2041.4325	27633.8	26741.8
935.2262	2042.9998	27504.85	26614.3
935.3632	2044.5664	27419.95	26528.9
935.5002	2046.1323	27316.3	26426.65
935.6372	2047.6974	27203.5	26313.95
935.7742	2049.2617	27135.65	26246.7
935.9111	2050.8254	27118.65	26207.05
936.048	2052.3883	27101.55	26209.65
936.1849	2053.9504	26947.45	26054.95
936.3218	2055.5118	26867.2	25975.6
936.4586	2057.0725	26703.95	25808.65
936.5955	2058.6325	26685	25793.6
936.7323	2060.1917	26540.95	25651.1
936.869	2061.7502	26530.3	25638.7
937.0058	2063.3079	26363.5	25472.6
937.1425	2064.8649	26297.6	25403.65
937.2792	2066.4212	26220.35	25330.25
937.4159	2067.9767	26119.75	25229.2
937.5525	2069.5315	25992.75	25102.05
937.6891	2071.0856	25885.3	24994.35
937.8257	2072.6389	25768.45	24877
937.9623	2074.1915	25631.8	24741.2
938.0989	2075.7433	25523.35	24630.75
938.2354	2077.2945	25462.95	24574.2
938.3719	2078.8448	25379.15	24488.05
938.5084	2080.3945	25286.3	24394.4
938.6448	2081.9434	25267.25	24376.6
938.7812	2083.4916	25147.5	24255.45
938.9176	2085.039	25031.45	24140.5
939.054	2086.5857	25024.5	24133.35
939.1903	2088.1317	24938.4	24048.2
939.3267	2089.677	24905.75	24016.05
939.463	2091.2215	24784.1	23892.2
939.5992	2092.7652	24675.15	23782.35
939.7355	2094.3083	24656.3	23764.85
939.8717	2095.8506	24610.95	23720.85
940.0079	2097.3921	24561.1	23671.9
940.1441	2098.933	24424.85	23534.4
940.2802	2100.4731	24388.05	23499
940.4163	2102.0124	24360.9	23462
940.5524	2103.5511	24238.35	23346.1
940.6885	2105.089	24229.85	23337.95
940.8245	2106.6261	24093.7	23204.35
940.9606	2108.1626	24019.05	23128.1
941.0965	2109.6983	23963.55	23044.5
941.2325	2111.2332	23879.4	22986.2
941.3684	2112.7675	23764.45	22872.45
941.5044	2114.301	23734.65	22841.1
941.6403	2115.8337	23707.7	22815.6
941.7761	2117.3657	23648.6	22758.15
941.912	2118.897	23536	22642.35
942.0478	2120.4276	23455.8	22557.85
942.1835	2121.9575	23324.45	22433.35
942.3193	2123.4866	23333.75	22425.95
942.455	2125.0149	23275.65	22381.9
942.5907	2126.5426	23117.7	22227.8
942.7264	2128.0695	23055.8	22158.1
942.8621	2129.5956	23014.45	22123.95
942.9977	2131.1211	22951.75	22056.15
943.1333	2132.6458	22900.3	22010.65
943.2689	2134.1698	22854.1	21963.15
943.4044	2135.693	22780.2	21886.65
943.54	2137.2155	22734.5	21840.6
943.6755	2138.7373	22651.9	21759.15
943.8109	2140.2584	22569.3	21679.6
943.9464	2141.7787	22465.1	21569.25
944.0818	2143.2983	22358.85	21467.05
944.2172	2144.8171	22245.6	21357.25
944.3526	2146.3353	22181.6	21288.25
944.4879	2147.8527	22114.6	21224.4
944.6232	2149.3693	22057.65	21166.2
944.7585	2150.8853	21946.45	21054.15
944.8938	2152.4005	21856.7	20966.55
945.029	2153.9149	21755.55	20862.5
945.1642	2155.4287	21727.55	20838.15
945.2994	2156.9417	21692.55	20801.05
945.4346	2158.454	21652.4	20757.85
945.5697	2159.9655	21557.75	20668.2
945.7048	2161.4764	21535.7	20643.75
945.8399	2162.9865	21450.7	20559
945.9749	2164.4958	21378.3	20486.2
946.1099	2166.0045	21281.15	20385.4
946.2449	2167.5124	21266.05	20376.5
946.3799	2169.0195	21227.95	20339.15
946.5148	2170.526	21167.45	20277
946.6498	2172.0317	21088.15	20198.05
946.7846	2173.5367	21006.6	20112.95
946.9195	2175.0409	20960.05	20070.05
947.0543	2176.5445	20954.5	20064.55
947.1891	2178.0473	20828	19936.35
947.3239	2179.5494	20720.65	19825.65
947.4587	2181.0507	20648.6	19755.95
947.5934	2182.5513	20594.35	19703.8
947.7281	2184.0512	20524.85	19632.8
947.8628	2185.5504	20443.65	19554.2
947.9974	2187.0488	20365.3	19473.9
948.132	2188.5465	20265.4	19373.3
948.2666	2190.0435	20209.6	19318.25
948.4012	2191.5397	20111.3	19221.4
948.5357	2193.0353	20074.5	19184
948.6702	2194.5301	19920.05	19028.75
948.8047	2196.0241	19858.85	18967.05
948.9392	2197.5175	19836.2	18945.3
949.0736	2199.0101	19722.15	18827.9
949.208	2200.502	19621.55	18730.2
949.3424	2201.9931	19556.2	18665.95
949.4767	2203.4835	19505.5	18613.7
949.611	2204.9733	19452.35	18554.95
949.7453	2206.4622	19406.4	18514.6
949.8796	2207.9505	19284.7	18392.55
950.0138	2209.438	19208.45	18317.6
950.148	2210.9248	19171.5	18278.25
950.2822	2212.4109	19080.1	18190.45
950.4164	2213.8962	19036.7	18144.5
950.5505	2215.3809	18972	18078.45
950.6846	2216.8648	18923.35	18032.4
950.8186	2218.3479	18875.9	17979.55
950.9527	2219.8304	18770.95	17877.3
951.0867	2221.3121	18688.15	17794.4
951.2207	2222.7931	18653.15	17763.25
951.3546	2224.2733	18559.55	17667.9
951.4886	2225.7529	18460	17568.55
951.6225	2227.2317	18406.6	17514.4
951.7563	2228.7098	18419.05	17526.7
951.8902	2230.1872	18301.75	17410.5
952.024	2231.6638	18260.2	17368.4
952.1578	2233.1397	18182.5	17285.2
952.2916	2234.6149	18114.6	17223.5
952.4253	2236.0894	18005.55	17114.9
952.559	2237.5632	17992.75	17091.4
952.6927	2239.0362	17918.1	17028.55
952.8263	2240.5085	17848.4	16956.75
952.9599	2241.9801	17823.35	16931.95
953.0935	2243.4509	17742.45	16851.35
953.2271	2244.921	17648.75	16757.8
953.3606	2246.3904	17581.75	16689.65
953.4941	2247.8591	17531.2	16640.15
953.6276	2249.3271	17476.5	16584.75
953.7611	2250.7943	17387.8	16494.8
953.8945	2252.2608	17354	16462.85
954.0279	2253.7266	17283.75	16393.8
954.1612	2255.1917	17271.05	16381.65
954.2946	2256.656	17182.15	16290.25
954.4279	2258.1197	17138.85	16248
954.5612	2259.5826	17060.2	16167.9
954.6944	2261.0447	17056.65	16163.3
954.8276	2262.5062	16940.4	16045.75
954.9608	2263.9669	16915.15	16021.5
955.094	2265.4269	16894.3	16003.55
955.2271	2266.8862	16830.55	15938.5
955.3602	2268.3448	16767.75	15875
955.4933	2269.8026	16754.05	15861.15
955.6264	2271.2598	16659.2	15768.55
955.7594	2272.7162	16609.85	15719.2
955.8924	2274.1719	16559.4	15666.85
956.0253	2275.6268	16528.9	15638.6
956.1583	2277.0811	16494.15	15605.5
956.2912	2278.5346	16412.65	15520.3
956.4241	2279.9874	16375.45	15484.2
956.5569	2281.4395	16331.15	15441.05
956.6897	2282.8908	16250.05	15354.5
956.8225	2284.3414	16220.1	15328.75
956.9553	2285.7914	16151.35	15260.5
957.088	2287.2406	16111.55	15215.45
957.2207	2288.689	16061.25	15169.4
957.3534	2290.1368	16006.05	15114.1
957.486	2291.5838	15937.1	15042.05
957.6186	2293.0302	15896.2	15003.25
957.7512	2294.4758	15796.55	14904.7
957.8838	2295.9206	15776.2	14882.05
958.0163	2297.3648	15736.65	14845.4
958.1488	2298.8082	15713.4	14820.55
958.2813	2300.251	15640.95	14749.25
958.4137	2301.693	15561.55	14668.55
958.5461	2303.1343	15575.8	14682.6
958.6785	2304.5748	15509.35	14615.6
958.8108	2306.0147	15415.4	14523.1
958.9432	2307.4538	15368.75	14476.15
959.0754	2308.8922	15333.8	14444.2
959.2077	2310.3299	15279.75	14388.55
959.3399	2311.7669	15235	14343.7
959.4721	2313.2031	15149.25	14259
959.6043	2314.6387	15083	14190.65
959.7365	2316.0735	15028.5	14138
959.8686	2317.5076	15006.35	14114.85
960.0006	2318.941	14975.9	14082.1
960.1327	2320.3737	14919.95	14028.55
960.2647	2321.8056	14855.75	13962.15
960.3967	2323.2369	14828.1	13936.7
960.5287	2324.6674	14797.65	13904.85
960.6606	2326.0972	14730.65	13838.7
960.7925	2327.5263	14674.6	13781.8
960.9244	2328.9547	14638.8	13748.2
961.0562	2330.3823	14584	13692.1
961.1881	2331.8092	14569.45	13675.35
961.3198	2333.2355	14481.75	13590.85
961.4516	2334.661	14470.9	13576.9
961.5833	2336.0858	14405.5	13512.1
961.715	2337.5098	14398.85	13509
961.8467	2338.9332	14361.55	13471.05
961.9783	2340.3558	14250.25	13354.9
962.1099	2341.7778	14199.2	13307.95
962.2415	2343.199	14165.65	13273.35
962.373	2344.6195	14111.55	13220.2
962.5045	2346.0393	14097.4	13208.3
962.636	2347.4583	14048.8	13158.2
962.7675	2348.8767	13986.95	13092.8
962.8989	2350.2943	13960.7	13070
963.0303	2351.7113	13939.35	13046.1
963.1617	2353.1275	13896.55	13004
963.293	2354.543	13832.4	12930.35
963.4243	2355.9578	13770.1	12877.4
963.5556	2357.3718	13667.2	12775.4
963.6868	2358.7852	13638.1	12741.7
963.818	2360.1978	13584.55	12693.55
963.9492	2361.6098	13541.8	12650.35
964.0803	2363.021	13541.5	12647.45
964.2114	2364.4315	13444.15	12553.7
964.3425	2365.8413	13420.45	12526.4
964.4736	2367.2504	13352.45	12461
964.6046	2368.6587	13279.65	12388.55
964.7356	2370.0664	13245.85	12356.95
964.8666	2371.4733	13179.25	12289.65
964.9975	2372.8795	13152.8	12262.4
965.1284	2374.285	13115	12223
965.2593	2375.6899	13007	12117.95
965.3901	2377.0939	12950.4	12059.05
965.5209	2378.4973	12911.05	12020.05
965.6517	2379.9	12877	11985
965.7825	2381.3019	12830.6	11939.3
965.9132	2382.7032	12804	11914.35
966.0439	2384.1037	12780.3	11892.45
966.1745	2385.5035	12704.55	11813.25
966.3051	2386.9027	12670.95	11779.35
966.4357	2388.3011	12620.6	11725
966.5663	2389.6987	12559.6	11670.2
966.6968	2391.0957	12519.4	11629.75
966.8273	2392.492	12463.4	11572.4
966.9578	2393.8876	12378.75	11487.95
967.0882	2395.2824	12333.3	11443.85
967.2186	2396.6765	12298.1	11408.15
967.349	2398.07	12239.55	11349.1
967.4793	2399.4627	12241.4	11348.5
967.6097	2400.8547	12186.25	11297.5
967.7399	2402.246	12121.45	11224.85
967.8702	2403.6366	12051.6	11159.45
968.0004	2405.0265	12008.4	11117.45
968.1306	2406.4156	11963.65	11068.1
968.2607	2407.8041	11902.15	11009.15
968.3909	2409.1918	11857.8	10964.45
968.521	2410.5789	11816.3	10924.8
968.651	2411.9652	11750.35	10857.2
968.781	2413.3508	11700.5	10810
968.911	2414.7358	11667.1	10776.3
969.041	2416.12	11619.45	10729.65
969.1709	2417.5035	11596.8	10707.7
969.3008	2418.8863	11556.65	10666.3
969.4307	2420.2684	11538.45	10646.45
969.5606	2421.6497	11480.05	10589.65
969.6904	2423.0304	11406.35	10515.85
969.8201	2424.4104	11360.5	10468.15
969.9499	2425.7896	11340.3	10448.85
970.0796	2427.1682	11298	10406.8
970.2093	2428.546	11275.85	10384.7
970.3389	2429.9232	11254.6	10362.25
970.4685	2431.2996	11226.5	10337.2
970.5981	2432.6753	11169.25	10278.95
970.7277	2434.0503	11163.05	10272.95
970.8572	2435.4246	11094.6	10203.3
970.9867	2436.7982	11033.45	10142.2
971.1161	2438.1711	11010.3	10121.5
971.2456	2439.5433	10982.05	10091.35
971.375	2440.9148	10911.15	10016.8
971.5043	2442.2856	10876	9983.55
971.6336	2443.6557	10862.75	9970.6
971.7629	2445.025	10794.15	9904.25
971.8922	2446.3937	10813.45	9922.3
972.0214	2447.7617	10737.3	9846.3
972.1506	2449.1289	10722.45	9832.1
972.2798	2450.4955	10696.65	9803.6
972.4089	2451.8613	10648.3	9757.3
972.538	2453.2265	10618.3	9725.35
972.6671	2454.5909	10599	9706.05
972.7961	2455.9546	10591.25	9702.7
972.9251	2457.3177	10537.7	9649.15
973.0541	2458.68	10473.05	9580.65
973.1831	2460.0416	10474.05	9583.4
973.312	2461.4025	10483.9	9589.85
973.4408	2462.7627	10434.3	9530
973.5697	2464.1222	10391.95	9502.45
973.6985	2465.4811	10348.5	9455.8
973.8273	2466.8392	10315.4	9424.55
973.956	2468.1966	10273	9379.05
974.0847	2469.5533	10265.75	9372.25
974.2134	2470.9093	10219.65	9326.55
974.3421	2472.2645	10182	9291.05
974.4707	2473.6191	10155.65	9265.75
974.5993	2474.973	10096.05	9206.7
974.7278	2476.3262	10075.2	9183.6
974.8563	2477.6787	10034.9	9144.2
974.9848	2479.0305	9976.75	9085.25
975.1132	2480.3816	9967.05	9073.9
975.2417	2481.7319	9925	9033.3
975.37	2483.0816	9883.95	8990.95
975.4984	2484.4306	9854.9	8962.5
975.6267	2485.7789	9810.65	8918.7
975.755	2487.1264	9758.4	8866.5
975.8833	2488.4733	9707.95	8819.45
976.0115	2489.8195	9702.45	8794.35
976.1397	2491.165	9645.4	8749.8
976.2678	2492.5097	9644.85	8751.25
976.3959	2493.8538	9592.1	8698.75
976.524	2495.1972	9501.05	8609.6
976.6521	2496.5398	9475.65	8584.05
976.7801	2497.8818	9476.8	8584.05
976.9081	2499.2231	9442.9	8552.55
977.036	2500.5637	9376.85	8484.25
977.164	2501.9035	9353.15	8461.6
977.2918	2503.2427	9351.5	8456.65
977.4197	2504.5812	9316.95	8426.5
977.5475	2505.919	9281.45	8388.6
977.6753	2507.256	9263.6	8373.5
977.8031	2508.5924	9214.8	8322.95
977.9308	2509.9281	9194.4	8296.75
978.0585	2511.2631	9165.45	8274.15
978.1861	2512.5974	9130.4	8239.65
978.3137	2513.9309	9084.55	8193.9
978.4413	2515.2638	9061.4	8137.6
978.5689	2516.596	9020.1	8128.75
978.6964	2517.9275	8985.95	8092.65
978.8239	2519.2583	8953.2	8060.4
978.9513	2520.5884	8931.25	8040.15
979.0788	2521.9178	8900.3	8007.5
979.2062	2523.2465	8852.3	7961.75
979.3335	2524.5745	8825.35	7934.8
979.4608	2525.9018	8787.05	7896.45
979.5881	2527.2284	8782.55	7892.2
979.7154	2528.5543	8753.05	7864.05
979.8426	2529.8796	8720.5	7829.85
979.9698	2531.2041	8682.85	7790.45
980.0969	2532.5279	8671.6	7783.6
980.224	2533.851	8655.35	7762.9
980.3511	2535.1735	8623.2	7731.5
980.4781	2536.4952	8587.65	7697
980.6052	2537.8163	8574.05	7680.25
980.7321	2539.1366	8537.9	7648.55
980.8591	2540.4562	8496.15	7604.55
980.986	2541.7752	8486.8	7595.55
981.1129	2543.0935	8506.4	7615.05
981.2397	2544.411	8472.6	7581.45
981.3665	2545.7279	8443.65	7552.75
981.4933	2547.0441	8418.85	7528.45
981.62	2548.3596	8404.2	7508.7
981.7467	2549.6744	8382.7	7490.65
981.8734	2550.9885	8345.3	7449.65
982.0001	2552.3019	8319.25	7430.05
982.1267	2553.6146	8298.6	7406.9
982.2532	2554.9266	8254.1	7364.5
982.3798	2556.2379	8249.15	7357.3
982.5063	2557.5485	8241.6	7352.4
982.6327	2558.8585	8179.5	7280.65
982.7592	2560.1677	8189.5	7295.95
982.8856	2561.4762	8156.1	7264.7
983.0119	2562.7841	8130.85	7235.25
983.1383	2564.0913	8130.05	7240.75
983.2646	2565.3977	8112.25	7222.8
983.3908	2566.7035	8085.35	7196.5
983.517	2568.0086	8062.1	7169.8
983.6432	2569.313	8044.8	7152.9
983.7694	2570.6167	8055.65	7160.2
983.8955	2571.9197	8018.65	7127.5
984.0216	2573.222	8016.95	7122.25
984.1476	2574.5236	7965.5	7072.9
984.2737	2575.8246	7953.2	7058.9
984.3996	2577.1248	7930.4	7035.25
984.5256	2578.4244	7920.6	7029.05
984.6515	2579.7232	7893.25	7002.3
984.7774	2581.0214	7920.35	7002.75
984.9032	2582.3189	7860.2	6970
985.029	2583.6157	7858.55	6963.35
985.1548	2584.9118	7841.6	6948.4
985.2806	2586.2072	7822.05	6930.85
985.4063	2587.5019	7786.25	6895.45
985.5319	2588.7959	7763.4	6870.25
985.6576	2590.0893	7768.35	6873.3
985.7832	2591.3819	7736.95	6845.3
985.9087	2592.6739	7706.6	6814.5
986.0343	2593.9652	7689.25	6797.3
986.1597	2595.2557	7650.3	6759.15
986.2852	2596.5456	7616.8	6723.7
986.4106	2597.8348	7577.45	6686.4
986.536	2599.1234	7556.6	6667.05
986.6614	2600.4112	7532.15	6639.1
986.7867	2601.6983	7514.55	6619.6
986.912	2602.9848	7478.75	6586.1
987.0372	2604.2705	7448	6552.25
987.1624	2605.5556	7447.35	6557.1
987.2876	2606.84	7411.3	6519.3
987.4128	2608.1237	7407	6514.35
987.5379	2609.4067	7350.8	6458.3
987.6629	2610.689	7344.6	6446.05
987.788	2611.9707	7319.6	6424.25
987.913	2613.2516	7287	6389.4
988.0379	2614.5319	7243.7	6353.1
988.1629	2615.8115	7221.25	6329.7
988.2878	2617.0903	7193.05	6300.15
988.4126	2618.3685	7165.65	6274.3
988.5375	2619.6461	7149.25	6257.6
988.6622	2620.9229	7103.8	6213.4
988.787	2622.199	7104.7	6212.3
988.9117	2623.4745	7088.4	6195.1
989.0364	2624.7493	7037.1	6144.5
989.161	2626.0234	7028.9	6138.15
989.2857	2627.2968	6995.9	6104.8
989.4102	2628.5695	6972.95	6082.95
989.5348	2629.8415	6934.35	6041.25
989.6593	2631.1128	6899.85	6005.95
989.7837	2632.3835	6885.75	5994
989.9082	2633.6535	6857.2	5966.15
990.0326	2634.9228	6853.25	5962
990.1569	2636.1914	6797.85	5907.45
990.2812	2637.4593	6817.2	5920.35
990.4055	2638.7265	6778.6	5886.25
990.5298	2639.9931	6748.65	5857
990.654	2641.259	6753.3	5861.25
990.7782	2642.5242	6711.3	5821.75
990.9023	2643.7887	6681.75	5789.5
991.0264	2645.0525	6674.4	5784.85
991.1505	2646.3156	6641.2	5751.1
991.2745	2647.5781	6632.7	5743.35
991.3985	2648.8398	6606.5	5715.3
991.5225	2650.1009	6598.9	5698.2
991.6464	2651.3613	6556.55	5664.45
991.7703	2652.6211	6526.8	5635.75
991.8942	2653.8801	6513.05	5621.7
992.018	2655.1385	6523.65	5630.1
992.1418	2656.3961	6491.05	5598.65
992.2655	2657.6531	6485.85	5594.6
992.3892	2658.9094	6466.85	5574.7
992.5129	2660.1651	6427.9	5538.75
992.6366	2661.42	6413.7	5521.25
992.7602	2662.6743	6422.15	5529.8
992.8837	2663.9279	6396.3	5504.25
993.0073	2665.1808	6375	5481.45
993.1307	2666.433	6373	5478.7
993.2542	2667.6846	6342.95	5451.45
993.3776	2668.9354	6322.35	5428.7
993.501	2670.1856	6301.9	5411.05
993.6244	2671.4351	6292.4	5401.25
993.7477	2672.6839	6289.95	5397.25
993.8709	2673.9321	6268.4	5378.4
993.9942	2675.1795	6256.1	5365.8
994.1174	2676.4263	6213.15	5320.45
994.2405	2677.6724	6207.3	5316.1
994.3637	2678.9179	6198.75	5306.8
994.4868	2680.1626	6180.3	5290.5
994.6098	2681.4067	6159.45	5265.4
994.7328	2682.6501	6140.3	5249.55
994.8558	2683.8928	6119.2	5226.5
994.9788	2685.1348	6093.05	5203.55
995.1017	2686.3761	6083.5	5194.35
995.2245	2687.6168	6044.75	5154.95
995.3474	2688.8568	6033.55	5140.3
995.4702	2690.0961	6008.4	5117.4
995.5929	2691.3348	5988.6	5096.55
995.7156	2692.5727	5966.8	5074.95
995.8383	2693.81	5944.8	5053.55
995.961	2695.0466	5931.95	5041.6
996.0836	2696.2826	5903.8	5012.15
996.2062	2697.5178	5909.65	5016.3
996.3287	2698.7524	5870.95	4981.3
996.4512	2699.9863	5852.9	4958.65
996.5737	2701.2195	5840.55	4948.6
996.6961	2702.452	5837.4	4945.45
996.8185	2703.6839	5816.1	4925.5
996.9408	2704.9151	5789.55	4900.15
997.0631	2706.1456	5784	4892.3
997.1854	2707.3755	5760.7	4869.25
997.3077	2708.6046	5760.45	4865.5
997.4299	2709.8331	5751.4	4858.8
997.552	2711.0609	5723.05	4831.1
997.6742	2712.2881	5727.65	4837.4
997.7963	2713.5145	5722.8	4830.05
997.9183	2714.7403	5710.85	4820.4
998.0403	2715.9654	5668.1	4774.2
998.1623	2717.1899	5683.8	4777.25
998.2842	2718.4136	5676.65	4784.75
998.4062	2719.6367	5660.65	4770.7
998.528	2720.8591	5668.8	4772.25
998.6498	2722.0809	5635.5	4742.35
998.7716	2723.3019	5631.65	4736.6
998.8934	2724.5223	5623.5	4730.5
999.0151	2725.7421	5613.75	4721.15
999.1368	2726.9611	5603.05	4709.95
999.2584	2728.1795	5577.2	4681.35
999.38	2729.3972	5548.05	4657.75
999.5016	2730.6142	5528.85	4629.3
999.6231	2731.8306	5489.65	4595.55
999.7446	2733.0462	5466	4574.8
999.8661	2734.2612	5427.4	4532.75
999.9875	2735.4756	5389.6	4495.45
1000.1089	2736.6892	5344.7	4451.85
1000.2302	2737.9022	5312.45	4419.85
1000.3515	2739.1145	5298.7	4409.05
1000.4728	2740.3262	5260.15	4361.65
1000.594	2741.5372	5223.9	4332.05
1000.7152	2742.7475	5206.45	4313.55
1000.8363	2743.9571	5196.65	4303.65
1000.9575	2745.1661	5162.5	4267
1001.0785	2746.3744	5143.1	4251.7
1001.1996	2747.582	5123.6	4233.1
1001.3206	2748.7889	5085.8	4192.95
1001.4415	2749.9952	5066.5	4174
1001.5625	2751.2008	5067.4	4173.75
1001.6833	2752.4057	5024.25	4130.8
1001.8042	2753.61	4992.25	4099.25
1001.925	2754.8136	5005.2	4111.3
1002.0458	2756.0165	4996.05	4104.35
1002.1665	2757.2188	4976.9	4087
1002.2872	2758.4204	4956.55	4066.35
1002.4078	2759.6213	4945.25	4052.6
1002.5285	2760.8215	4934.65	4038.65
1002.649	2762.0211	4904.1	4009.7
1002.7696	2763.22	4876.95	3982.5
1002.8901	2764.4182	4880.7	3988.6
1003.0106	2765.6158	4860.85	3970.35
1003.131	2766.8127	4846.1	3956.7
1003.2514	2768.009	4827.05	3937.15
1003.3717	2769.2045	4807.65	3917.4
1003.492	2770.3994	4794.3	3902.35
1003.6123	2771.5936	4787.75	3896.2
1003.7325	2772.7872	4758.45	3868.7
1003.8527	2773.9801	4737.65	3843.55
1003.9729	2775.1723	4739.95	3831.35
1004.093	2776.3639	4718.35	3828.55
1004.2131	2777.5548	4695.1	3800.65
1004.3331	2778.745	4696.85	3803.95
1004.4531	2779.9346	4678.75	3786.85
1004.5731	2781.1235	4666.95	3776.45
1004.693	2782.3117	4661.2	3769.7
1004.8129	2783.4992	4643.85	3752
1004.9328	2784.6861	4624.45	3733.1
1005.0526	2785.8723	4620.9	3727.95
1005.1723	2787.0579	4618.5	3724.55
1005.2921	2788.2428	4606.3	3714.6
1005.4118	2789.427	4590	3699.8
1005.5314	2790.6106	4588.6	3698.25
1005.651	2791.7935	4585.95	3691.75
1005.7706	2792.9757	4577.35	3687.9
1005.8902	2794.1573	4577.65	3685.65
1006.0097	2795.3382	4560.05	3667.75
1006.1291	2796.5184	4570.75	3681.55
1006.2485	2797.698	4588.5	3695.6
1006.3679	2798.8769	4590.55	3700.95
1006.4873	2800.0551	4594.7	3704.9
1006.6066	2801.2327	4601.75	3708
1006.7258	2802.4096	4591.45	3700.65
1006.8451	2803.5859	4588.2	3696.5
1006.9642	2804.7615	4596	3705.2
1007.0834	2805.9364	4611.4	3722.4
1007.2025	2807.1106	4631.45	3739.95
1007.3216	2808.2842	4639.5	3748.5
1007.4406	2809.4572	4654.15	3763.3
1007.5596	2810.6294	4689.05	3797.2
1007.6785	2811.801	4717.15	3827.05
1007.7975	2812.972	4755.05	3865.05
1007.9163	2814.1423	4783.9	3892.85
1008.0352	2815.3119	4823.2	3930.7
1008.154	2816.4808	4855.95	3965.65
1008.2727	2817.6491	4895.25	4002.7
1008.3914	2818.8167	4917.6	4027.55
1008.5101	2819.9837	4979.55	4081.85
1008.6288	2821.15	4996.05	4104.05
1008.7474	2822.3157	5020.35	4130.15
1008.8659	2823.4807	5065.05	4173.45
1008.9844	2824.645	5102.2	4210
1009.1029	2825.8086	5122	4231.15
1009.2214	2826.9716	5159.9	4268.4
1009.3398	2828.134	5197.05	4308.15
1009.4581	2829.2957	5230.35	4339.3
1009.5764	2830.4567	5240.8	4350.9
1009.6947	2831.617	5256.8	4365.3
1009.813	2832.7767	5249.05	4360.15
1009.9312	2833.9358	5256.15	4366.85
1010.0493	2835.0941	5236.95	4344.45
1010.1675	2836.2519	5204.4	4316.05
1010.2855	2837.4089	5182.7	4290.75
1010.4036	2838.5653	5163.8	4273.35
1010.5216	2839.7211	5157.65	4267.75
1010.6396	2840.8761	5167.3	4275.55
1010.7575	2842.0306	5189.45	4298.95
1010.8754	2843.1843	5202.65	4312.95
1010.9932	2844.3374	5240.45	4349.65
1011.111	2845.4899	5298.05	4405.5
1011.2288	2846.6417	5372.25	4481.65
1011.3465	2847.7928	5451.35	4559.85
1011.4642	2848.9433	5517.1	4626.15
1011.5818	2850.0931	5550.55	4660.5
1011.6995	2851.2422	5667.5	4773.95
1011.817	2852.3907	5711.85	4819.8
1011.9345	2853.5385	5773.25	4879.85
1012.052	2854.6857	5814.35	4894
1012.1695	2855.8323	5862.1	4972.7
1012.2869	2856.9781	5894.5	5003.15
1012.4042	2858.1233	5934.8	5044.7
1012.5216	2859.2679	5960.85	5070.35
1012.6389	2860.4118	5995.1	5103.9
1012.7561	2861.555	6041.5	5145.5
1012.8733	2862.6976	6045.7	5151.55
1012.9905	2863.8395	6068.45	5178.4
1013.1076	2864.9808	6081.65	5192.05
1013.2247	2866.1214	6087	5197.75
1013.3417	2867.2614	6085.5	5192.4
1013.4587	2868.4007	6085.3	5191.55
1013.5757	2869.5393	6088	5195.45
1013.6926	2870.6773	6101.45	5209.65
1013.8095	2871.8146	6098.4	5206.85
1013.9263	2872.9513	6083.35	5190.4
1014.0431	2874.0874	6075.65	5183.95
1014.1599	2875.2227	6042.1	5149.85
1014.2766	2876.3574	6024.55	5133.25
1014.3933	2877.4915	5978.7	5088.55
1014.51	2878.6249	5939.35	5048.35
1014.6266	2879.7577	5906.6	5015.4
1014.7431	2880.8898	5894.65	4993.6
1014.8596	2882.0212	5856.75	4965.55
1014.9761	2883.152	5824.45	4934.7
1015.0925	2884.2821	5802.85	4913.8
1015.2089	2885.4116	5794.1	4903.2
1015.3253	2886.5405	5770.15	4879.4
1015.4416	2887.6686	5785.85	4892.2
1015.5579	2888.7962	5761.8	4871.1
1015.6741	2889.923	5743.6	4853.65
1015.7903	2891.0493	5750.95	4863.25
1015.9065	2892.1748	5773.55	4883.75
1016.0226	2893.2997	5757.4	4866.95
1016.1387	2894.424	5778.25	4888.45
1016.2547	2895.5476	5774.3	4885.05
1016.3707	2896.6706	5780.9	4889.6
1016.4866	2897.7929	5810.05	4918.5
1016.6025	2898.9145	5839	4949.45
1016.7184	2900.0355	5866.9	4975.45
1016.8342	2901.1559	5878.55	4987.5
1016.95	2902.2756	5906.6	5016.2
1017.0658	2903.3946	5914.6	5025.65
1017.1815	2904.513	5940.05	5046.5
1017.2971	2905.6308	5941.85	5053.8
1017.4127	2906.7479	5973.25	5081.05
1017.5283	2907.8643	5976.75	5084.25
1017.6439	2908.9801	5986.7	5096.45
1017.7594	2910.0953	6005.6	5116.35
1017.8748	2911.2098	5974.55	5081.25
1017.9902	2912.3236	5962.1	5060.95
1018.1056	2913.4368	5940.05	5046.3
1018.2209	2914.5494	5900.8	5009.35
1018.3362	2915.6613	5859.05	4963.1
1018.4515	2916.7725	5839.85	4948.1
1018.5667	2917.8831	5808.9	4916.9
1018.6819	2918.9931	5781.05	4887.4
1018.797	2920.1024	5729.6	4837.6
1018.9121	2921.211	5706.1	4815.75
1019.0271	2922.319	5684.6	4794.05
1019.1421	2923.4264	5655.35	4764.45
1019.2571	2924.5331	5618.1	4728.1
1019.372	2925.6391	5593.1	4701.8
1019.4869	2926.7445	5590.6	4701.9
1019.6017	2927.8493	5569.75	4678.9
1019.7165	2928.9534	5557.3	4666.1
1019.8313	2930.0569	5566.5	4672.65
1019.946	2931.1597	5526.65	4634.25
1020.0606	2932.2619	5525.2	4633.6
1020.1753	2933.3634	5495.55	4604.9
1020.2899	2934.4643	5495	4599.1
1020.4044	2935.5645	5463.6	4567.75
1020.5189	2936.6641	5409.85	4515.9
1020.6334	2937.763	5344.75	4454.1
1020.7478	2938.8613	5305.65	4415.4
1020.8622	2939.959	5230.6	4334.3
1020.9765	2941.056	5132.6	4242
1021.0908	2942.1523	5050.4	4159.3
1021.2051	2943.248	4976.5	4085.85
1021.3193	2944.3431	4852.55	3961.05
1021.4334	2945.4375	4753.65	3863.3
1021.5476	2946.5313	4631.5	3742.1
1021.6617	2947.6244	4519.45	3627.8
1021.7757	2948.7169	4414.9	3524.6
1021.8897	2949.8087	4322.45	3433.35
1022.0037	2950.8999	4208.1	3316.5
1022.1176	2951.9904	4120.35	3229.65
1022.2315	2953.0803	4036.7	3144.85
1022.3453	2954.1696	3970.5	3078.85
1022.4591	2955.2582	3931.95	3042.65
1022.5728	2956.3462	3864.1	2972.75
1022.6865	2957.4335	3799.95	2908.55
1022.8002	2958.5202	3775.9	2882.3
1022.9138	2959.6062	3713.15	2821.05
1023.0274	2960.6916	3695.4	2805.55
1023.141	2961.7764	3658.7	2768.8
1023.2545	2962.8605	3634.95	2743.05
1023.3679	2963.9439	3622.1	2733.3
1023.4813	2965.0267	3599.6	2707.9
1023.5947	2966.1089	3611.45	2697.2
1023.708	2967.1905	3589.45	2698.2
1023.8213	2968.2714	3575.35	2685
1023.9346	2969.3516	3563.4	2670.75
1024.0478	2970.4312	3565.1	2669.7
1024.1609	2971.5102	3538.35	2648.4
1024.274	2972.5885	3529.2	2640.05
1024.3871	2973.6662	3530.2	2634.6
1024.5002	2974.7432	3519.45	2627.35
1024.6132	2975.8196	3507.3	2617.25
1024.7261	2976.8954	3470.95	2578.85
1024.839	2977.9705	3477	2585.75
1024.9519	2979.045	3455.6	2564.4
1025.0647	2980.1188	3436.75	2546.8
1025.1775	2981.192	3397.95	2508.4
1025.2902	2982.2645	3360.7	2469.75
1025.4029	2983.3364	3342.2	2452
1025.5156	2984.4077	3294.3	2405.15
1025.6282	2985.4783	3275.7	2379.55
1025.7407	2986.5483	3246.25	2355.95
1025.8532	2987.6177	3197.8	2307.7
1025.9657	2988.6864	3151.05	2260.65
1026.0782	2989.7545	3109.05	2216.95
1026.1906	2990.8219	3074.05	2184.7
1026.3029	2991.8887	3043.8	2151.9
1026.4152	2992.9548	3004.5	2112.9
1026.5275	2994.0204	2958.55	2070.6
1026.6397	2995.0852	2934.25	2044.55
1026.7519	2996.1495	2909.15	2016.7
1026.864	2997.2131	2874.4	1982.9
1026.9761	2998.276	2847.65	1956.45
1027.0882	2999.3383	2810.05	1918.95
1027.2002	3000.4	2793.9	1903.6
1027.3122	3001.4611	2774.4	1882.95
1027.4241	3002.5215	2753.15	1862.45
1027.536	3003.5812	2733.2	1843.65
1027.6478	3004.6404	2730.3	1841.7
1027.7596	3005.6989	2707.65	1815.7
1027.8714	3006.7567	2700.6	1809.75
1027.9831	3007.8139	2694.5	1779.25
1028.0947	3008.8705	2666.9	1777.15
1028.2064	3009.9264	2664.15	1770.45
1028.3179	3010.9818	2656.55	1766.05
1028.4295	3012.0364	2629.25	1738.7
1028.541	3013.0905	2628.75	1737.1
1028.6524	3014.1439	2628.75	1738.25
1028.7638	3015.1966	2613.35	1723.5
1028.8752	3016.2487	2609.7	1720.65
1028.9865	3017.3002	2618.05	1719.8
1029.0978	3018.3511	2599.75	1711.1
1029.209	3019.4013	2596.15	1706.95
1029.3202	3020.4509	2595.1	1704.45
1029.4314	3021.4998	2593	1702
1029.5425	3022.5481	2587.05	1696.55
1029.6535	3023.5958	2583.2	1693.5
1029.7645	3024.6428	2562.05	1671.75
1029.8755	3025.6892	2581.75	1692.15
1029.9864	3026.735	2581.85	1691.85
1030.0973	3027.7802	2562.45	1672
1030.2082	3028.8247	2564.95	1675.3
1030.319	3029.8685	2547.65	1655.75
1030.4297	3030.9118	2546.35	1654.35
1030.5404	3031.9544	2546.3	1656.45
1030.6511	3032.9963	2553.2	1663.2
1030.7617	3034.0376	2548.4	1657.85
1030.8723	3035.0783	2543.7	1650.45
1030.9829	3036.1184	2548.1	1655.4
1031.0934	3037.1578	2541.4	1654.05
1031.2038	3038.1966	2536.95	1646.3
1031.3142	3039.2348	2536.35	1646.75
1031.4246	3040.2723	2531	1632.3
1031.5349	3041.3092	2518.55	1628.1
1031.6452	3042.3455	2515.85	1624.25
1031.7554	3043.3811	2514.75	1624.4
1031.8656	3044.4161	2496.9	1605.75
1031.9758	3045.4505	2483.85	1594.1
1032.0859	3046.4842	2477.55	1585.4
1032.1959	3047.5173	2466.75	1579.6
1032.3059	3048.5498	2461.75	1570.95
1032.4159	3049.5816	2455.4	1567
1032.5258	3050.6128	2434.1	1541.3
1032.6357	3051.6434	2432.8	1542.1
1032.7455	3052.6734	2407.5	1515.1
1032.8553	3053.7027	2398.65	1508.55
1032.9651	3054.7314	2396.65	1507.4
1033.0748	3055.7594	2376.9	1487.35
1033.1845	3056.7868	2365.95	1473.7
1033.2941	3057.8136	2365.95	1475.25
1033.4037	3058.8398	2348.6	1459.9
1033.5132	3059.8653	2339.15	1448.25
1033.6227	3060.8902	2325.85	1435.55
1033.7321	3061.9145	2319.35	1429.35
1033.8415	3062.9381	2312.5	1421.8
1033.9509	3063.9612	2318.1	1411.2
1034.0602	3064.9835	2290.55	1397.8
1034.1694	3066.0053	2271.5	1379.8
1034.2787	3067.0264	2272.8	1383.5
1034.3878	3068.0469	2254.3	1362.85
1034.497	3069.0668	2249.75	1358.15
1034.6061	3070.086	2237.4	1348.15
1034.7151	3071.1046	2224.35	1334.7
1034.8241	3072.1226	2197.5	1305.7
1034.9331	3073.1399	2195.65	1305.6
1035.042	3074.1567	2184.65	1292.45
1035.1508	3075.1727	2170.9	1278.25
1035.2597	3076.1882	2159.5	1269.85
1035.3684	3077.203	2152.35	1263.55
1035.4772	3078.2173	2143.5	1251.25
1035.5859	3079.2308	2122.7	1229.85
1035.6945	3080.2438	2117.8	1226.1
1035.8031	3081.2561	2095.65	1204.85
1035.9117	3082.2678	2087	1196.8
1036.0202	3083.2789	2082.65	1193.1
1036.1286	3084.2893	2064.85	1174.75
1036.2371	3085.2991	2057.85	1169.1
1036.3454	3086.3083	2048.7	1152.1
1036.4538	3087.3169	2040.75	1148.45
1036.562	3088.3248	2026.55	1136.3
1036.6703	3089.3321	2019.55	1129.25
1036.7785	3090.3388	2002.95	1113.4
1036.8866	3091.3449	2000.75	1110.85
1036.9948	3092.3503	1996.05	1101.85
1037.1028	3093.3551	1985.85	1095.05
1037.2108	3094.3593	1977.35	1088.2
1037.3188	3095.3629	1972.55	1084.3
1037.4267	3096.3658	1972.6	1081.5
1037.5346	3097.3681	1951.4	1061.45
1037.6425	3098.3698	1949.65	1058.45
1037.7503	3099.3708	1952.05	1055.3
1037.858	3100.3713	1929.75	1039.45
1037.9657	3101.3711	1926.3	1036.95
1038.0734	3102.3702	2029.45	1021.65
1038.181	3103.3688	1926	1032.15
1038.2886	3104.3667	1897.4	1010.05
1038.3961	3105.364	1905.6	1017.15
1038.5036	3106.3607	1904.15	1013.8
1038.611	3107.3568	1889.15	998.8
1038.7184	3108.3522	1889.45	999.1
1038.8257	3109.347	1877.55	986.6
1038.933	3110.3412	1871.55	978.65
1039.0403	3111.3348	1866.3	974.85
1039.1475	3112.3277	1862.6	972.2
1039.2547	3113.32	1853.65	964.9
1039.3618	3114.3117	1849.1	957.95
1039.4689	3115.3028	1842.45	953.2
1039.5759	3116.2932	1839.85	948.55
1039.6829	3117.2831	1838.15	944.5
1039.7898	3118.2723	1826.5	937.3
1039.8967	3119.2608	1819.95	930.2
1040.0035	3120.2488	1810.05	919.7
1040.1103	3121.2361	1809.1	918.7
1040.2171	3122.2229	1808.1	918.3
1040.3238	3123.209	1796.55	906.1
1040.4305	3124.1944	1796.25	907.1
1040.5371	3125.1793	1792.2	901.75
1040.6437	3126.1635	1786.75	898.3
1040.7502	3127.1471	1780.4	889.6
1040.8567	3128.1301	1775.8	886.4
1040.9631	3129.1125	1769.45	879.75
1041.0695	3130.0942	1770.1	879.95
1041.1759	3131.0753	1776.15	877.3
1041.2822	3132.0558	1767.1	872.95
1041.3884	3133.0357	1755.5	866.65
1041.4946	3134.015	1746	857.1
1041.6008	3134.9936	1745.4	853.9
1041.7069	3135.9716	1756.3	845.8
1041.813	3136.949	1741.2	849.8
1041.919	3137.9258	1734.1	837.6
1042.025	3138.902	1735.15	838.05
1042.1309	3139.8775	1732.8	842.55
1042.2368	3140.8524	1719	829.8
1042.3427	3141.8267	1719.05	828.25
1042.4485	3142.8004	1720.8	830
1042.5542	3143.7735	1714.85	816.95
1042.6599	3144.7459	1712.8	822.1
1042.7656	3145.7178	1706.55	815.2
1042.8712	3146.689	1695.9	806.4
1042.9768	3147.6596	1697.85	805.55
1043.0823	3148.6295	1686.8	797.15
1043.1878	3149.5989	1680	790.35
1043.2932	3150.5676	1666.75	778.5
1043.3986	3151.5357	1675.3	786.75
1043.5039	3152.5032	1673.35	783.9
1043.6092	3153.4701	1662.1	773.1
1043.7145	3154.4364	1664.85	772.35
1043.8197	3155.402	1661.35	771.9
1043.9248	3156.367	1655.3	764.65
1044.03	3157.3315	1689.6	754.9
1044.135	3158.2952	1642.8	753.15
1044.24	3159.2584	1636.45	747.2
1044.345	3160.221	1630	740.15
1044.4499	3161.1829	1623.35	732.85
1044.5548	3162.1442	1625.9	736.35
1044.6596	3163.105	1623.3	733.9
1044.7644	3164.065	1609.35	718.05
1044.8692	3165.0245	1611.85	720.8
1044.9739	3165.9834	1604	714.6
1045.0785	3166.9416	1604.15	713.4
1045.1831	3167.8993	1607.65	716.65
1045.2877	3168.8563	1593.45	704.15
1045.3922	3169.8127	1588.55	700.65
1045.4966	3170.7684	1588.4	698.65
1045.6011	3171.7236	1580.15	689.2
1045.7054	3172.6782	1573.15	684.35
1045.8098	3173.6321	1571.2	680.9
1045.914	3174.5854	1569.9	674.75
1046.0183	3175.5381	1573.7	683.7
1046.1224	3176.4902	1570.2	681.55
1046.2266	3177.4417	1561.2	673.05
1046.3307	3178.3926	1560.35	669.6
1046.4347	3179.3428	1559.8	671.95
1046.5387	3180.2924	1546.5	657.35
1046.6427	3181.2415	1548.45	659.2
1046.7466	3182.1899	1548.1	656.9
1046.8504	3183.1377	1542.05	653.2
1046.9542	3184.0848	1541.1	647.15
1047.058	3185.0314	1533.65	643.05
1047.1617	3185.9773	1526.35	636.25
1047.2654	3186.9227	1529.2	639.35
1047.369	3187.8674	1516.05	627.35
1047.4726	3188.8115	1518.95	623.8
1047.5761	3189.755	1521.9	631.2
1047.6796	3190.6979	1516.65	626.1
1047.783	3191.6402	1515.45	626.9
1047.8864	3192.5818	1506.35	616.95
1047.9898	3193.5229	1513.1	611.05
1048.0931	3194.4633	1507.95	617.95
1048.1963	3195.4031	1500.85	611.25
1048.2995	3196.3423	1492.25	603.1
1048.4027	3197.2809	1491.75	603.05
1048.5058	3198.2189	1487.95	598.4
1048.6089	3199.1563	1485.2	590.55
1048.7119	3200.0931	1479.1	587.95
1048.8148	3201.0292	1483.5	593.9
1048.9178	3201.9648	1474.45	586.05
1049.0206	3202.8997	1476.9	584.25
1049.1235	3203.834	1470	579.7
1049.2262	3204.7677	1466.55	577.55
1049.329	3205.7008	1465.45	574.4
1049.4317	3206.6333	1453.2	564.45
1049.5343	3207.5652	1460.8	568.75
1049.6369	3208.4964	1454.6	563.6
1049.7394	3209.4271	1450.95	560.85
1049.8419	3210.3571	1443.95	555.6
1049.9444	3211.2865	1441.55	552.65
1050.0468	3212.2154	1443.85	551.9
1050.1491	3213.1436	1444.85	552.15
1050.2514	3214.0712	1442.25	545.1
1050.3537	3214.9982	1449.7	559.4
1050.4559	3215.9246	1432.85	542.7
1050.5581	3216.8503	1435.6	545.65
1050.6602	3217.7755	1424.1	534.5
1050.7623	3218.7001	1424.25	535.2
1050.8643	3219.624	1419.5	528.05
1050.9663	3220.5473	1419.55	530.6
1051.0682	3221.4701	1419.75	528.85
1051.1701	3222.3922	1416.85	524.6
1051.2719	3223.3137	1407.95	517.6
1051.3737	3224.2346	1405.6	515.9
1051.4754	3225.1549	1398.4	510.65
1051.5771	3226.0746	1398.25	507.85
1051.6788	3226.9937	1392.15	501.3
1051.7804	3227.9121	1396.6	505.8
1051.8819	3228.83	1391.65	502.6
1051.9834	3229.7473	1395.95	507.3
1052.0849	3230.6639	1390.25	501.75
1052.1863	3231.5799	1387.05	499.75
1052.2876	3232.4954	1378.95	488.1
1052.3889	3233.4102	1376.85	487.55
1052.4902	3234.3244	1376.3	486.15
1052.5914	3235.238	1378.1	488.75
1052.6926	3236.151	1395.25	480.85
1052.7937	3237.0634	1367.4	477.15
1052.8948	3237.9752	1365.05	474.55
1052.9958	3238.8864	1364.45	476.9
1053.0968	3239.797	1366.1	477.35
1053.1977	3240.7069	1358.65	467.45
1053.2986	3241.6163	1353.8	462
1053.3994	3242.5251	1349.25	460.25
1053.5002	3243.4332	1343.35	455.1
1053.6009	3244.3408	1341.65	452.2
1053.7016	3245.2477	1345.15	456.3
1053.8022	3246.154	1343.5	451.95
1053.9028	3247.0598	1338.5	447.6
1054.0034	3247.9649	1330.9	442.3
1054.1039	3248.8694	1334.3	444.6
1054.2043	3249.7733	1330.55	441.5
1054.3047	3250.6766	1334.35	445.55
1054.4051	3251.5793	1324.15	434.65
1054.5054	3252.4814	1317.4	428.3
1054.6056	3253.3829	1316.5	427.35
1054.7058	3254.2838	1318.25	429.05
1054.806	3255.1841	1311.9	423.25
1054.9061	3256.0838	1315.15	425.85
1055.0061	3256.9829	1308.5	421.35
1055.1062	3257.8814	1305.75	413.5
1055.2061	3258.7792	1303.05	411.1
1055.306	3259.6765	1294.3	403.35
1055.4059	3260.5731	1294.45	406.65
1055.5057	3261.4692	1284.7	396.6
1055.6055	3262.3647	1280.75	389.2
1055.7052	3263.2595	1277.65	389.35
1055.8049	3264.1538	1271.15	383.15
1055.9045	3265.0474	1266.55	376.25
1056.0041	3265.9404	1259.25	370.3
1056.1036	3266.8329	1251.95	362.85
1056.2031	3267.7247	1255.6	355.65
1056.3025	3268.616	1236.8	347.25
1056.4019	3269.5066	1235.5	345.9
1056.5013	3270.3966	1224.5	335.6
1056.6005	3271.286	1206.7	318.65
