Software Version:	3.9.2.0
Unit SN:	10000200
Spectrometer SN:	6960
Date:	3/6/2024 10:40:15 AM
Data Line Index:	25
Spectral Points:	2048
Integration time (ms):	125
Averages:	20
Delay (ms):	30
Sequence Number:	1
Processing:	dark subtract
Laser Power (mW):	305
Laser Current (mA):	824
Laser Diode Temp (C):	25
Laser Case Temp (C):	26.9
System Temp (C):	26.7
Spectrometer Temp (C):	24.1
CCD Temp (C):	-0.009
Secondary Temp (C):	20.01
Heatsink Temp (C):	22.409
CCDPCB Temp (C):	36.407
SecondaryPCB Temp (C):	33.317

Wavelength	RamanShift	Raw Counts	Dark Subtracted
787.061	30.1047	1136.5	722.7
787.2016	32.3739	1162.1	750.8
787.3422	34.6426	1212.15	798.55
787.4828	36.9109	1256.55	842.3
787.6235	39.1787	1312.15	893.2
787.7642	41.4461	1375.6	952.65
787.9049	43.7131	1443.85	1018
788.0456	45.9796	1499.6	1068.6
788.1863	48.2456	1577.7	1143.35
788.3271	50.5112	1645.25	1207.8
788.4679	52.7764	1717.55	1277.45
788.6087	55.0411	1790.15	1345.65
788.7496	57.3054	1879.45	1429.05
788.8904	59.5692	1968.5	1515.6
789.0313	61.8326	2066.45	1612.3
789.1722	64.0955	2185.65	1727.05
789.3132	66.3579	2310.35	1847.7
789.4541	68.6199	2472.25	2005.45
789.5951	70.8815	2711.8	2241.9
789.7361	73.1426	3229.85	2756.3
789.8771	75.4032	4572	4093.7
790.0181	77.6634	7973.1	7488.25
790.1592	79.9231	16951.55	16462.75
790.3003	82.1824	55353.4	54853.85
790.4414	84.4412	65535	65014.05
790.5825	86.6995	65535	64985.65
790.7237	88.9574	65535	64958.5
790.8648	91.2148	65535	64942.35
791.006	93.4717	65535	64932.35
791.1472	95.7282	65535	64920.8
791.2885	97.9842	65535	64919.7
791.4297	100.2398	65535	64919.2
791.571	102.4949	65535	64913.1
791.7123	104.7495	65535	64910.8
791.8536	107.0036	65535	64911.5
791.9949	109.2573	65535	64912.7
792.1363	111.5105	65535	64907.25
792.2777	113.7632	65535	64907.7
792.4191	116.0154	65535	64895.75
792.5605	118.2672	65535	64900.2
792.7019	120.5185	65535	64898.1
792.8434	122.7693	65535	64900.8
792.9849	125.0197	65535	64893.6
793.1264	127.2696	65535	64891.65
793.2679	129.519	65535	64889.9
793.4094	131.7679	65535	64887
793.551	134.0163	65535	64886.4
793.6926	136.2642	65535	64874
793.8342	138.5117	65535	64868
793.9758	140.7587	65535	64877.6
794.1175	143.0052	65535	64871.35
794.2591	145.2512	65535	64870.3
794.4008	147.4967	65535	64867.45
794.5425	149.7417	65535	64868.6
794.6842	151.9863	65535	64862.25
794.826	154.2304	65535	64862.25
794.9677	156.4739	65535	64856.8
795.1095	158.717	65535	64858.45
795.2513	160.9596	65535	64849.95
795.3931	163.2017	65535	64849.75
795.535	165.4433	65535	64848.15
795.6768	167.6844	65535	64847.85
795.8187	169.925	65535	64844.4
795.9606	172.1651	65535	64840.6
796.1025	174.4047	65535	64836.75
796.2445	176.6439	65535	64836.8
796.3864	178.8825	65535	64831.35
796.5284	181.1206	65535	64830.2
796.6704	183.3582	65535	64828.15
796.8124	185.5954	65535	64824.8
796.9544	187.832	65535	64821.85
797.0965	190.0681	65535	64817.85
797.2386	192.3037	65535	64814.75
797.3806	194.5388	65535	64808.95
797.5228	196.7734	65535	64808.05
797.6649	199.0075	65535	64804.1
797.807	201.2411	65535	64807.05
797.9492	203.4742	65535	64804.55
798.0914	205.7068	65535	64800.7
798.2336	207.9389	65535	64800
798.3758	210.1704	65535	64798.6
798.518	212.4015	65535	64801.35
798.6603	214.632	65535	64812.1
798.8025	216.862	65535	64816.25
798.9448	219.0915	65535	64817.8
799.0871	221.3205	65535	64814.35
799.2294	223.549	65535	64820.4
799.3718	225.777	65535	64820.5
799.5141	228.0044	65535	64818.65
799.6565	230.2314	65535	64815.4
799.7989	232.4578	65535	64815.4
799.9413	234.6837	65535	64801.6
800.0837	236.909	65535	64802.05
800.2262	239.1339	65535	64778.7
800.3687	241.3582	65535	64792.9
800.5111	243.582	65535	64762.1
800.6536	245.8053	65535	64775.2
800.7961	248.0281	65535	64777.3
800.9387	250.2503	65535	64772.6
801.0812	252.472	65535	64770.2
801.2238	254.6932	65535	64773.4
801.3664	256.9139	65535	64770.65
801.509	259.134	65535	64765.55
801.6516	261.3536	65535	64769.1
801.7942	263.5727	65535	64765.6
801.9369	265.7912	65535	64768.8
802.0795	268.0092	65535	64767.75
802.2222	270.2267	65535	64763.6
802.3649	272.4436	65535	64764.65
802.5076	274.6601	65535	64758.8
802.6504	276.8759	65535	64763.2
802.7931	279.0913	65535	64756.1
802.9359	281.3061	65535	64755.95
803.0787	283.5204	65535	64758.45
803.2215	285.7341	65535	64757
803.3643	287.9473	65535	64737.45
803.5071	290.16	65535	64743.4
803.6499	292.3721	65535	64751.05
803.7928	294.5837	65535	64749.25
803.9357	296.7947	65535	64751.95
804.0786	299.0052	65535	64754.2
804.2215	301.2152	65535	64749.8
804.3644	303.4246	65535	64753
804.5074	305.6334	65535	64752.2
804.6503	307.8418	65535	64748.1
804.7933	310.0495	65535	64744.3
804.9363	312.2568	65535	64749.6
805.0793	314.4635	65535	64746.6
805.2223	316.6696	65535	64745.05
805.3653	318.8752	65535	64735.95
805.5084	321.0802	65535	64740.85
805.6514	323.2847	65535	64742.85
805.7945	325.4887	65535	64740.85
805.9376	327.692	65535	64738.7
806.0807	329.8949	65535	64735.2
806.2238	332.0972	65535	64736.15
806.367	334.2989	65535	64734.75
806.5101	336.5001	65535	64733.35
806.6533	338.7007	65535	64735.3
806.7965	340.9008	65535	64731.15
806.9397	343.1003	65535	64723.45
807.0829	345.2992	65535	64727.05
807.2261	347.4976	65535	64727.15
807.3693	349.6955	65535	64719.8
807.5126	351.8927	65535	64723.45
807.6559	354.0895	65535	64710.15
807.7991	356.2856	65535	64719.95
807.9424	358.4812	65535	64721.8
808.0857	360.6763	65535	64716.5
808.2291	362.8707	65535	64721.1
808.3724	365.0646	65535	64713.9
808.5158	367.258	65535	64716.2
808.6591	369.4508	65535	64710
808.8025	371.643	65535	64711
808.9459	373.8346	65535	64707.3
809.0893	376.0257	65535	64703.35
809.2327	378.2162	65535	64707.6
809.3762	380.4062	65535	64701.75
809.5196	382.5956	65535	64704.4
809.6631	384.7844	65535	64704.7
809.8066	386.9726	65535	64706.6
809.9501	389.1603	65535	64708.6
810.0936	391.3474	65535	64673
810.2371	393.5339	65535	64706.55
810.3806	395.7199	65535	64710.25
810.5241	397.9052	65535	64713.05
810.6677	400.09	65535	64712.55
810.8113	402.2743	65535	64714.1
810.9548	404.4579	65535	64710.45
811.0984	406.641	65535	64708.55
811.2421	408.8235	65535	64708.45
811.3857	411.0054	65535	64707
811.5293	413.1868	65535	64703.4
811.673	415.3675	65535	64698.45
811.8166	417.5477	65535	64703.35
811.9603	419.7273	65535	64698.75
812.104	421.9064	65535	64692.4
812.2477	424.0848	65535	64694.4
812.3914	426.2627	65535	64692.55
812.5351	428.4399	65535	64691.55
812.6788	430.6166	65535	64694.65
812.8226	432.7928	65535	64691.3
812.9663	434.9683	65535	64688.5
813.1101	437.1432	65535	64687.1
813.2539	439.3176	65535	64689.05
813.3977	441.4914	65535	64689.75
813.5415	443.6645	65535	64688.55
813.6853	445.8371	65535	64688.15
813.8291	448.0091	65535	64689.1
813.973	450.1806	65535	64687.6
814.1168	452.3514	65535	64682.2
814.2607	454.5216	65535	64677.95
814.4046	456.6913	65535	64683.75
814.5485	458.8603	65535	64686.95
814.6924	461.0288	65535	64686.65
814.8363	463.1967	65535	64689
814.9802	465.3639	65535	64684.5
815.1241	467.5306	65535	64681.7
815.2681	469.6967	65535	64683.2
815.412	471.8622	65535	64683.9
815.556	474.0271	65535	64688.45
815.7	476.1914	65535	64679.1
815.844	478.3551	65535	64683.8
815.988	480.5182	65535	64683.3
816.132	482.6807	65535	64680.5
816.276	484.8426	65535	64688.55
816.4201	487.0039	65535	64682.3
816.5641	489.1647	65535	64681.2
816.7082	491.3248	65535	64677.55
816.8522	493.4843	65535	64677.45
816.9963	495.6432	65535	64677.8
817.1404	497.8015	65535	64674.45
817.2845	499.9592	65535	64672.55
817.4286	502.1163	65535	64675.85
817.5727	504.2728	65535	64671.85
817.7168	506.4287	65535	64678.8
817.861	508.5839	65535	64678.45
818.0051	510.7386	65535	64674.8
818.1493	512.8927	65535	64671.8
818.2935	515.0461	65535	64673
818.4377	517.199	65535	64670.85
818.5818	519.3512	65535	64676.55
818.726	521.5029	65535	64667.5
818.8703	523.6539	65535	64671.9
819.0145	525.8043	65535	64670.9
819.1587	527.9541	65535	64665.7
819.303	530.1033	65535	64668.6
819.4472	532.2519	65535	64668.6
819.5915	534.3999	65535	64667.5
819.7357	536.5472	65535	64672
819.88	538.694	65535	64672.3
820.0243	540.8401	65535	64668.05
820.1686	542.9856	65535	64665.9
820.3129	545.1305	65535	64664.95
820.4572	547.2748	65535	64665.55
820.6016	549.4185	65535	64663.15
820.7459	551.5615	65535	64662.6
820.8902	553.704	65535	64664.55
821.0346	555.8458	65535	64664.2
821.1789	557.987	65535	64663.25
821.3233	560.1276	65535	64664.25
821.4677	562.2675	65535	64665.7
821.6121	564.4069	65535	64658.8
821.7565	566.5456	65535	64663.05
821.9009	568.6837	65535	64661.45
822.0453	570.8212	65535	64664.7
822.1897	572.958	65535	64658.85
822.3342	575.0942	65535	64662.45
822.4786	577.2299	65535	64664.35
822.6231	579.3648	65535	64665.55
822.7675	581.4992	65535	64666.45
822.912	583.6329	65535	64667.15
823.0565	585.766	65535	64665.05
823.201	587.8985	65535	64664.4
823.3454	590.0304	65535	64638.35
823.4899	592.1616	65535	64660.15
823.6345	594.2922	65535	64658.85
823.779	596.4222	65535	64657.35
823.9235	598.5515	65535	64659.1
824.068	600.6802	65535	64658.9
824.2126	602.8083	65535	64657.3
824.3571	604.9358	65535	64659.4
824.5017	607.0626	65535	64656.35
824.6462	609.1888	65535	64656.55
824.7908	611.3144	65535	64655.3
824.9354	613.4393	65535	64656.2
825.08	615.5636	65535	64657.5
825.2246	617.6873	65535	64659.75
825.3692	619.8103	65535	64653.45
825.5138	621.9327	65535	64652.55
825.6584	624.0544	65535	64658.35
825.803	626.1756	65535	64654.9
825.9477	628.2961	65535	64655.65
826.0923	630.4159	65535	64655.7
826.237	632.5351	65535	64653
826.3816	634.6537	65535	64654.15
826.5263	636.7716	65535	64650.5
826.6709	638.8889	65535	64652.4
826.8156	641.0056	65535	64649.35
826.9603	643.1216	65535	64651.25
827.105	645.237	65535	64650.65
827.2497	647.3518	65535	64652
827.3944	649.4659	65535	64653.55
827.5391	651.5793	65535	64651.5
827.6838	653.6922	65535	64651.2
827.8285	655.8043	65535	64651.15
827.9733	657.9159	65535	64646.1
828.118	660.0268	65535	64647.65
828.2627	662.137	65535	64649.7
828.4075	664.2466	65535	64645.2
828.5522	666.3556	65535	64649.5
828.697	668.4639	65535	64644.4
828.8418	670.5716	65535	64651
828.9865	672.6786	65535	64650.45
829.1313	674.785	65535	64646.35
829.2761	676.8907	65535	64649.45
829.4209	678.9958	65535	64647.2
829.5657	681.1002	65535	64647.9
829.7105	683.204	65535	64644.35
829.8553	685.3072	65535	64645.85
830.0001	687.4097	65535	64647.5
830.1449	689.5115	65535	64642.4
830.2898	691.6127	65535	64646.7
830.4346	693.7132	65535	64645.85
830.5794	695.8131	65535	64635.5
830.7243	697.9123	65535	64640.35
830.8691	700.0109	65535	64643.55
831.014	702.1089	65535	64644.55
831.1588	704.2061	65535	64648.95
831.3037	706.3028	65535	64644.8
831.4486	708.3987	65535	64642.2
831.5935	710.4941	65535	64644.1
831.7383	712.5887	65535	64640.7
831.8832	714.6827	65535	64636.75
832.0281	716.7761	65535	64640.35
832.173	718.8688	65535	64645.15
832.3179	720.9608	65535	64637.65
832.4628	723.0522	65535	64640.75
832.6077	725.1429	65535	64641.7
832.7527	727.233	65535	64641.85
832.8976	729.3224	65535	64640.9
833.0425	731.4112	65535	64641.65
833.1874	733.4993	65535	64639
833.3324	735.5867	65535	64641.35
833.4773	737.6735	65535	64640.65
833.6222	739.7596	65535	64639.65
833.7672	741.845	65535	64639.1
833.9122	743.9298	65535	64636.8
834.0571	746.014	65535	64642.35
834.2021	748.0974	65535	64637.2
834.347	750.1802	65535	64639.4
834.492	752.2624	65535	64639.7
834.637	754.3439	65535	64638.3
834.782	756.4247	65535	64629.95
834.9269	758.5048	65535	64639.3
835.0719	760.5843	65535	64637.55
835.2169	762.6631	65535	64640.1
835.3619	764.7413	65535	64641.05
835.5069	766.8188	65535	64637.85
835.6519	768.8956	65535	64640
835.7969	770.9718	65535	64638.1
835.9419	773.0473	65535	64638.3
836.0869	775.1221	65535	64639.25
836.232	777.1962	65535	64641.2
836.377	779.2697	65535	64640.6
836.522	781.3426	65535	64620.6
836.667	783.4147	65535	64635.35
836.8121	785.4862	65535	64638.55
836.9571	787.557	65535	64636.85
837.1021	789.6271	65535	64637.45
837.2472	791.6966	65535	64638.4
837.3922	793.7654	65535	64638.05
837.5373	795.8335	65535	64639.8
837.6823	797.901	65535	64638.25
837.8274	799.9678	65535	64634.2
837.9724	802.0339	65535	64636.2
838.1175	804.0993	65535	64626.6
838.2626	806.1641	65535	64634.95
838.4076	808.2282	65535	64640.5
838.5527	810.2916	65535	64633.1
838.6978	812.3544	65535	64637.2
838.8428	814.4164	65535	64638.95
838.9879	816.4778	65535	64635.3
839.133	818.5385	65535	64637.4
839.2781	820.5986	65535	64638.2
839.4232	822.658	65535	64635.3
839.5682	824.7166	65535	64638.05
839.7133	826.7747	65535	64637.15
839.8584	828.832	65535	64637.55
840.0035	830.8886	65535	64634.1
840.1486	832.9446	65535	64633.2
840.2937	834.9999	65535	64637.4
840.4388	837.0545	65535	64632.2
840.5839	839.1085	65535	64634.45
840.729	841.1618	65535	64630.4
840.8741	843.2143	65535	64633.3
841.0192	845.2662	65535	64635.1
841.1643	847.3175	65535	64635.45
841.3095	849.368	65535	64634.6
841.4546	851.4179	65535	64636.75
841.5997	853.467	65535	64633.6
841.7448	855.5155	65535	64635.8
841.8899	857.5633	65535	64635.55
842.0351	859.6105	65535	64633.5
842.1802	861.6569	65535	64637.15
842.3253	863.7027	65535	64634.8
842.4704	865.7478	65535	64635.3
842.6156	867.7922	65535	64635.25
842.7607	869.8359	65535	64632.6
842.9058	871.8789	65535	64635
843.0509	873.9212	65535	64604.3
843.1961	875.9629	65535	64634.2
843.3412	878.0039	65535	64633.15
843.4863	880.0441	65535	64634.55
843.6315	882.0837	65535	64632.6
843.7766	884.1226	65535	64629.5
843.9218	886.1609	65535	64634.6
844.0669	888.1984	65535	64634.5
844.212	890.2352	65535	64633.7
844.3572	892.2714	65535	64629.95
844.5023	894.3069	65535	64633.4
844.6475	896.3416	65535	64635.55
844.7926	898.3757	65535	64633.1
844.9377	900.4091	65535	64631.5
845.0829	902.4418	65535	64628.55
845.228	904.4739	65535	64630.45
845.3732	906.5052	65535	64629.75
845.5183	908.5358	65535	64632
845.6635	910.5658	65535	64628.5
845.8086	912.595	65535	64635.25
845.9538	914.6236	65535	64632.85
846.0989	916.6515	65535	64632.35
846.2441	918.6786	65535	64632.7
846.3892	920.7051	65535	64627.6
846.5344	922.7309	65535	64631.2
846.6795	924.756	65535	64632.6
846.8246	926.7804	65535	64629.25
846.9698	928.8041	65535	64629.25
847.1149	930.8272	65535	64633.15
847.2601	932.8495	65535	64631.1
847.4052	934.8711	65535	64630.05
847.5504	936.892	65535	64630.1
847.6955	938.9123	65535	64631.45
847.8407	940.9318	65535	64631.95
847.9858	942.9506	65535	64631.45
848.131	944.9688	65535	64630
848.2761	946.9862	65535	64631.1
848.4213	949.003	65535	64631.65
848.5664	951.019	65535	64631.1
848.7115	953.0344	65535	64630.3
848.8567	955.0491	65535	64629.25
849.0018	957.063	65535	64629.3
849.147	959.0763	65535	64631.1
849.2921	961.0888	65535	64628
849.4373	963.1007	65535	64631.35
849.5824	965.1119	65535	64635.05
849.7275	967.1223	65535	64634.3
849.8727	969.1321	65535	64633
850.0178	971.1412	65535	64632.65
850.1629	973.1495	65535	64631.9
850.3081	975.1572	65535	64585.2
850.4532	977.1641	65535	64632.25
850.5983	979.1704	65535	64632.7
850.7435	981.1759	65535	64628.6
850.8886	983.1808	65535	64631.05
851.0337	985.1849	65535	64620.25
851.1788	987.1884	65535	64628.35
851.324	989.1911	65535	64628.85
851.4691	991.1932	65535	64634.7
851.6142	993.1945	65535	64629.35
851.7593	995.1951	65535	64629.5
851.9045	997.1951	65535	64624.35
852.0496	999.1943	65535	64634.05
852.1947	1001.1928	65535	64628.5
852.3398	1003.1906	65535	64630.25
852.4849	1005.1877	65535	64631.15
852.63	1007.1841	65535	64629.25
852.7751	1009.1798	65535	64629.3
852.9202	1011.1748	65535	64631.4
853.0653	1013.1691	65535	64629.1
853.2104	1015.1627	65535	64629.3
853.3555	1017.1556	65535	64634.55
853.5006	1019.1477	65535	64629.9
853.6457	1021.1392	65535	64632.1
853.7908	1023.1299	65535	64631.95
853.9359	1025.12	65535	64629.65
854.081	1027.1093	65535	64634.8
854.2261	1029.0979	65535	64636.8
854.3712	1031.0859	65535	64634.35
854.5163	1033.0731	65535	64633.4
854.6613	1035.0596	65535	64632.4
854.8064	1037.0454	65535	64630.9
854.9515	1039.0304	65535	64630.45
855.0965	1041.0148	65535	64632.6
855.2416	1042.9985	65535	64630.8
855.3867	1044.9814	65535	64632.85
855.5317	1046.9636	65535	64628.95
855.6768	1048.9452	65535	64631.85
855.8219	1050.926	65535	64632.35
855.9669	1052.9061	65535	64631.5
856.112	1054.8855	65535	64632.3
856.257	1056.8642	65535	64631.3
856.4021	1058.8421	65535	64627.05
856.5471	1060.8194	65535	64629.85
856.6921	1062.7959	65535	64630.6
856.8372	1064.7717	65535	64630.4
856.9822	1066.7469	65535	64629.25
857.1272	1068.7213	65535	64628.35
857.2723	1070.695	65535	64632.9
857.4173	1072.6679	65535	64629.15
857.5623	1074.6402	65535	64629.9
857.7073	1076.6117	65535	64626
857.8523	1078.5826	65535	64628.85
857.9973	1080.5527	65535	64628.3
858.1423	1082.5221	65535	64632.2
858.2873	1084.4908	65535	64631.35
858.4323	1086.4587	65535	64630.95
858.5773	1088.426	65535	64631.15
858.7223	1090.3925	65535	64627.25
858.8673	1092.3584	65535	64632.05
859.0123	1094.3235	65535	64632
859.1573	1096.2879	65535	64631.25
859.3022	1098.2515	65535	64629.9
859.4472	1100.2145	65535	64631.9
859.5922	1102.1767	65535	64629
859.7371	1104.1382	65535	64628.5
859.8821	1106.099	65535	64629.05
860.027	1108.0591	65535	64632.3
860.172	1110.0185	65535	64630.6
860.3169	1111.9771	65535	64632.05
860.4619	1113.9351	65535	64631
860.6068	1115.8923	65535	64630.9
860.7517	1117.8488	65535	64626.6
860.8967	1119.8045	65535	64630.6
861.0416	1121.7596	65535	64630.35
861.1865	1123.7139	65535	64630.65
861.3314	1125.6675	65535	64633.05
861.4763	1127.6204	65535	64630.7
861.6212	1129.5726	65535	64630.85
861.7661	1131.524	65535	64631
861.911	1133.4748	65535	64631.35
862.0559	1135.4248	65535	64627.65
862.2008	1137.3741	65535	64630.8
862.3457	1139.3226	65535	64627.95
862.4905	1141.2705	65535	64630.45
862.6354	1143.2176	65535	64624.05
862.7803	1145.164	65535	64630.65
862.9251	1147.1097	65535	64632.45
863.07	1149.0546	65535	64630.3
863.2148	1150.9989	65535	64630.45
863.3597	1152.9424	65535	64629.85
863.5045	1154.8852	65535	64630.95
863.6493	1156.8272	65535	64632.7
863.7942	1158.7686	65535	64625.05
863.939	1160.7092	65535	64628.8
864.0838	1162.6491	65535	64629.3
864.2286	1164.5883	65535	64631.15
864.3734	1166.5267	65535	64628.6
864.5182	1168.4644	65535	64634.05
864.663	1170.4014	65535	64627.8
864.8078	1172.3377	65535	64630.7
864.9526	1174.2732	65535	64631.35
865.0974	1176.2081	65535	64631.55
865.2421	1178.1421	65535	64626.6
865.3869	1180.0755	65535	64632.95
865.5317	1182.0082	65535	64634.1
865.6764	1183.9401	65535	64632.45
865.8212	1185.8713	65535	64634.2
865.9659	1187.8017	65535	64632.95
866.1106	1189.7315	65535	64632.15
866.2554	1191.6605	65535	64605.7
866.4001	1193.5888	65535	64633.95
866.5448	1195.5163	65535	64632.9
866.6895	1197.4432	65535	64633.85
866.8342	1199.3693	65535	64633.7
866.9789	1201.2947	65535	64629.85
867.1236	1203.2193	65535	64632.55
867.2683	1205.1432	65535	64630.7
867.413	1207.0664	65535	64630.15
867.5576	1208.9889	65535	64629.6
867.7023	1210.9106	65535	64633.6
867.847	1212.8316	65535	64633.1
867.9916	1214.7519	65535	64622.95
868.1363	1216.6715	65535	64633.55
868.2809	1218.5903	65535	64633.45
868.4255	1220.5084	65535	64632.15
868.5701	1222.4257	65535	64632
868.7148	1224.3424	65535	64632.75
868.8594	1226.2583	65535	64625.7
869.004	1228.1735	65535	64631.6
869.1486	1230.0879	65535	64632.75
869.2932	1232.0016	65535	64634.05
869.4377	1233.9146	65535	64632.1
869.5823	1235.8269	65535	64632.2
869.7269	1237.7384	65535	64631.6
869.8715	1239.6492	65535	64632.7
870.016	1241.5592	65535	64633.4
870.1606	1243.4686	65535	64632.65
870.3051	1245.3772	65535	64631.6
870.4496	1247.285	65535	64633
870.5941	1249.1922	65535	64632.85
870.7387	1251.0986	65535	64635.6
870.8832	1253.0042	65535	64632.45
871.0277	1254.9092	65535	64633.9
871.1722	1256.8134	65535	64631.35
871.3167	1258.7169	65535	64631.7
871.4611	1260.6196	65535	64633.8
871.6056	1262.5216	65535	64630.3
871.7501	1264.4229	65535	64632.45
871.8945	1266.3234	65535	64633.7
872.039	1268.2232	65535	64630.9
872.1834	1270.1223	65535	64631
872.3278	1272.0207	65535	64632.25
872.4723	1273.9183	65535	64626.35
872.6167	1275.8151	65535	64632.35
872.7611	1277.7113	65535	64631.65
872.9055	1279.6067	65535	64633.15
873.0499	1281.5014	65535	64631
873.1943	1283.3953	65535	64630.75
873.3386	1285.2885	65535	64633
873.483	1287.181	65535	64630.3
873.6274	1289.0727	65535	64633.25
873.7717	1290.9637	65535	64632.35
873.9161	1292.854	65535	64632.05
874.0604	1294.7435	65535	64632.85
874.2047	1296.6323	65535	64631.05
874.349	1298.5204	65535	64630.9
874.4933	1300.4077	65535	64631.6
874.6376	1302.2943	65535	64632.55
874.7819	1304.1802	65535	64633.4
874.9262	1306.0653	65535	64631.45
875.0705	1307.9497	65535	64630.05
875.2147	1309.8333	65535	64632.55
875.359	1311.7162	65535	64631.9
875.5032	1313.5984	65535	64629.55
875.6475	1315.4798	65535	64620.65
875.7917	1317.3605	65535	64618
875.9359	1319.2405	65535	64631
876.0801	1321.1197	65535	64630.1
876.2243	1322.9982	65535	64630.25
876.3685	1324.876	65535	64631.95
876.5127	1326.753	65535	64631.6
876.6569	1328.6293	65535	64632.05
876.801	1330.5048	65535	64630.25
876.9452	1332.3796	65535	64633.8
877.0893	1334.2537	65535	64606.05
877.2335	1336.127	65535	64630.3
877.3776	1337.9996	65535	64634.85
877.5217	1339.8714	65535	64633
877.6658	1341.7426	65535	64591.25
877.8099	1343.6129	65535	64632.45
877.954	1345.4826	65535	64632.25
878.0981	1347.3515	65535	64629.05
878.2422	1349.2196	65535	64630
878.3862	1351.087	65535	64632.65
878.5303	1352.9537	65535	64631.15
878.6743	1354.8197	65535	64633.35
878.8184	1356.6849	65535	64633.15
878.9624	1358.5493	65535	64630.3
879.1064	1360.4131	65535	64633.05
879.2504	1362.276	65535	64634.2
879.3944	1364.1383	65535	64634.85
879.5384	1365.9998	65535	64627.45
879.6823	1367.8606	65535	64630.8
879.8263	1369.7206	65535	64634.2
879.9702	1371.5799	65535	64629.4
880.1142	1373.4384	65535	64631.5
880.2581	1375.2962	65535	64631.65
880.402	1377.1533	65535	64633.2
880.5459	1379.0096	65535	64632.35
880.6898	1380.8652	65535	64632.05
880.8337	1382.7201	65535	64631.45
880.9776	1384.5742	65535	64634.05
881.1215	1386.4275	65535	64630.45
881.2653	1388.2802	65535	64636.55
881.4092	1390.132	65535	64632.25
881.553	1391.9832	65535	64629.15
881.6968	1393.8336	65535	64631.6
881.8406	1395.6832	65535	64631.2
881.9844	1397.5322	65535	64634.75
882.1282	1399.3803	65535	64628.5
882.272	1401.2278	65535	64630.15
882.4158	1403.0745	65535	64633.05
882.5595	1404.9204	65535	64634.35
882.7033	1406.7656	65535	64634.25
882.847	1408.6101	65535	64631.6
882.9908	1410.4538	65535	64632.2
883.1345	1412.2968	65535	64633.25
883.2782	1414.139	65535	64634.6
883.4219	1415.9805	65535	64634.55
883.5656	1417.8213	65535	64626.1
883.7092	1419.6613	65535	64633.05
883.8529	1421.5006	65535	64632.85
883.9965	1423.3391	65535	64633.2
884.1402	1425.1769	65535	64629.45
884.2838	1427.0139	65535	64631.65
884.4274	1428.8502	65535	64629.1
884.571	1430.6858	65535	64632.85
884.7146	1432.5206	65535	64634.95
884.8582	1434.3547	65535	64632.6
885.0018	1436.188	65535	64632.45
885.1453	1438.0206	65535	64634.4
885.2889	1439.8524	65535	64632
885.4324	1441.6835	65535	64632.3
885.5759	1443.5139	65535	64629.5
885.7194	1445.3435	65535	64634.7
885.8629	1447.1724	65535	64634.6
886.0064	1449.0005	65535	64635.2
886.1499	1450.8279	65535	64631
886.2933	1452.6545	65535	64631.15
886.4368	1454.4804	65535	64635.5
886.5802	1456.3056	65535	64627.3
886.7237	1458.13	65535	64635.65
886.8671	1459.9536	65535	64633.6
887.0105	1461.7766	65535	64634.25
887.1539	1463.5987	65535	64631.8
887.2972	1465.4202	65535	64633.2
887.4406	1467.2409	65535	64632.25
887.584	1469.0608	65535	64633.9
887.7273	1470.88	65535	64633.1
887.8706	1472.6984	65535	64636.4
888.0139	1474.5161	65535	64629.35
888.1572	1476.3331	65535	64634.35
888.3005	1478.1493	65535	64632.75
888.4438	1479.9648	65535	64632.05
888.5871	1481.7795	65535	64632.95
888.7303	1483.5935	65535	64633.05
888.8736	1485.4067	65535	64633.15
889.0168	1487.2192	65535	64632.9
889.16	1489.031	65535	64631.7
889.3032	1490.842	65535	64634.85
889.4464	1492.6522	65535	64634.9
889.5896	1494.4618	65535	64633
889.7327	1496.2705	65535	64634.15
889.8759	1498.0785	65535	64631.75
890.019	1499.8858	65535	64632.35
890.1622	1501.6924	65535	64634.65
890.3053	1503.4981	65535	64633.4
890.4484	1505.3032	65535	64634.85
890.5914	1507.1075	65535	64635
890.7345	1508.911	65535	64633.8
890.8776	1510.7138	65535	64633.25
891.0206	1512.5159	65535	64634.5
891.1637	1514.3172	65535	64635.5
891.3067	1516.1178	65535	64636.15
891.4497	1517.9176	65535	64631.7
891.5927	1519.7166	65535	64634.5
891.7357	1521.515	65535	64628.85
891.8786	1523.3126	65535	64635.2
892.0216	1525.1094	65535	64630.5
892.1645	1526.9055	65535	64635.7
892.3074	1528.7008	65535	64634.5
892.4503	1530.4954	65535	64627.7
892.5932	1532.2893	65535	64636.3
892.7361	1534.0824	65535	64631.95
892.879	1535.8747	65535	64635.6
893.0218	1537.6663	65535	64633.7
893.1647	1539.4572	65535	64631.65
893.3075	1541.2473	65535	64634.05
893.4503	1543.0367	65535	64637.05
893.5931	1544.8253	65535	64629.75
893.7359	1546.6132	65535	64631.05
893.8787	1548.4003	65535	64624.65
894.0214	1550.1867	65535	64625.45
894.1642	1551.9723	65535	64631
894.3069	1553.7572	65535	64632.5
894.4496	1555.5414	65535	64632.4
894.5923	1557.3247	65535	64637.2
894.735	1559.1074	65535	64638.15
894.8777	1560.8893	65535	64637.85
895.0204	1562.6705	65535	64635.35
895.163	1564.4509	65535	64636.35
895.3056	1566.2305	65535	64639.55
895.4482	1568.0094	65535	64639.6
895.5908	1569.7876	65535	64637.4
895.7334	1571.565	65535	64636.4
895.876	1573.3417	65535	64635.85
896.0186	1575.1176	65535	64638.5
896.1611	1576.8928	65535	64637.45
896.3036	1578.6672	65535	64638.55
896.4461	1580.4409	65535	64639.85
896.5886	1582.2138	65535	64636.1
896.7311	1583.986	65535	64636.75
896.8736	1585.7575	65535	64636.75
897.0161	1587.5282	65535	64638.9
897.1585	1589.2981	65535	64638.85
897.3009	1591.0673	65535	64637.9
897.4433	1592.8358	65535	64640
897.5857	1594.6035	65535	64634.2
897.7281	1596.3704	65535	64636.2
897.8705	1598.1366	65535	64638
898.0128	1599.9021	65535	64638.3
898.1551	1601.6668	65535	64636
898.2975	1603.4308	65535	64637.85
898.4398	1605.194	65535	64634.1
898.5821	1606.9564	65532.45	64635.95
898.7243	1608.7182	65535	64634.95
898.8666	1610.4791	65535	64640.45
899.0088	1612.2394	65535	64641.3
899.1511	1613.9988	65528.35	64634.2
899.2933	1615.7576	65535	64638.85
899.4355	1617.5156	65535	64633.1
899.5776	1619.2728	65535	64639.4
899.7198	1621.0293	65534.8	64638.35
899.862	1622.785	65535	64634.9
900.0041	1624.54	65535	64636.95
900.1462	1626.2942	65528.7	64631.1
900.2883	1628.0477	65517.1	64617.1
900.4304	1629.8005	65459	64559.25
900.5725	1631.5525	65520.5	64623.1
900.7145	1633.3037	65419.2	64522.75
900.8566	1635.0542	65403.35	64508
900.9986	1636.804	65469.85	64574.2
901.1406	1638.553	65279.7	64304.25
901.2826	1640.3013	65365.05	64468.4
901.4245	1642.0488	65182.45	64284.5
901.5665	1643.7955	65341.45	64445.9
901.7085	1645.5416	65215.3	64321.15
901.8504	1647.2868	64992.5	64096.95
901.9923	1649.0313	65299.35	64406
902.1342	1650.7751	65141.4	64242.1
902.2761	1652.5181	64994.2	64100
902.4179	1654.2604	65044.05	64145.95
902.5598	1656.0019	65119.9	64225.45
902.7016	1657.7427	65077.1	64181.2
902.8434	1659.4828	65317.05	64420.55
902.9852	1661.222	65051.5	64156.15
903.127	1662.9606	65343.65	64448.35
903.2687	1664.6984	64958.15	64061.6
903.4105	1666.4354	65152.3	64257.1
903.5522	1668.1717	64633.6	63739
903.6939	1669.9072	63735.95	62841.65
903.8356	1671.642	63762.75	62865.25
903.9773	1673.3761	63512.9	62618.45
904.119	1675.1094	63304.7	62410.95
904.2606	1676.8419	62409.2	61515.65
904.4022	1678.5737	62756.3	61858.35
904.5439	1680.3048	62326.9	61429.1
904.6855	1682.0351	61998.3	61105.4
904.827	1683.7646	61617.7	60719.9
904.9686	1685.4934	62007.3	61111.85
905.1101	1687.2215	60420.95	59527.05
905.2517	1688.9488	61562.65	60667.9
905.3932	1690.6754	59373.6	58479.25
905.5347	1692.4012	60447.3	59553.45
905.6761	1694.1263	60530.3	59634.7
905.8176	1695.8506	59672.6	58776.75
905.9591	1697.5742	59722.3	58825.95
906.1005	1699.297	59439.05	58545.5
906.2419	1701.0191	59588.7	58693.55
906.3833	1702.7404	58592.8	57698.85
906.5246	1704.461	58328.8	57434
906.666	1706.1808	58643.35	57746.25
906.8073	1707.8999	58407.05	57512.15
906.9487	1709.6182	58094.8	57201.2
907.09	1711.3358	58022.7	57127.15
907.2313	1713.0527	57771.35	56879.25
907.3725	1714.7688	57835.9	56938.15
907.5138	1716.4841	56784.1	55887.25
907.655	1718.1987	57195.05	56297.7
907.7962	1719.9126	56885.95	55992.55
907.9374	1721.6257	56910.9	56016.6
908.0786	1723.338	56988.85	56092.6
908.2198	1725.0496	55886.2	54989.5
908.3609	1726.7605	55994.95	55100.95
908.502	1728.4706	55631.55	54737.35
908.6431	1730.18	55730.3	54835
908.7842	1731.8886	55463.65	54568.1
908.9253	1733.5964	55129.75	54214.85
909.0664	1735.3036	55428.05	54529.35
909.2074	1737.0099	55186.9	54292.45
909.3484	1738.7156	54704.15	53810.95
909.4894	1740.4204	54465.1	53569.75
909.6304	1742.1246	54524.95	53629.7
909.7714	1743.8279	54523.5	53631
909.9123	1745.5306	54463.55	53570
910.0532	1747.2325	53662.15	52769.75
910.1941	1748.9336	53646.75	52753.3
910.335	1750.634	53591.75	52697
910.4759	1752.3336	53688.45	52793.5
910.6168	1754.0325	53193.9	52301.55
910.7576	1755.7307	53506.25	52612.95
910.8984	1757.4281	53018.05	52124.2
911.0392	1759.1247	53274.05	52371.6
911.18	1760.8206	52695	51798.55
911.3208	1762.5158	52681.95	51783.4
911.4615	1764.2102	52603.65	51712.05
911.6022	1765.9039	52413.45	51520.6
911.7429	1767.5968	52203.3	51310.1
911.8836	1769.289	52062.9	51171.15
912.0243	1770.9804	51940.75	51047.6
912.1649	1772.6711	51860.95	50968
912.3056	1774.361	51674.75	50780.3
912.4462	1776.0502	51577.3	50682.55
912.5868	1777.7386	51301.25	50405.25
912.7274	1779.4263	51188.45	50294.7
912.8679	1781.1132	51159.75	50266.65
913.0084	1782.7994	50869.75	49976.2
913.149	1784.4849	50920.9	50027.2
913.2895	1786.1696	50538.8	49639.55
913.4299	1787.8535	50486.3	49593.6
913.5704	1789.5367	50459.6	49565.7
913.7108	1791.2192	50247	49354.65
913.8513	1792.9009	50092.9	49165.05
913.9917	1794.5818	49957.5	49061.65
914.132	1796.2621	49861.15	48970.05
914.2724	1797.9415	49715.2	48819.45
914.4128	1799.6202	49512.4	48618.35
914.5531	1801.2982	49463.85	48568.8
914.6934	1802.9755	49281.7	48386.9
914.8337	1804.6519	49249.2	48355.4
914.9739	1806.3277	49041.8	48148.9
915.1142	1808.0027	48669.6	47780.25
915.2544	1809.6769	48642.05	47747.65
915.3946	1811.3504	48575.05	47682.4
915.5348	1813.0231	48376.45	47482.2
915.675	1814.6951	48342.65	47449.6
915.8151	1816.3664	48270.45	47374.85
915.9553	1818.0369	48114.15	47218.65
916.0954	1819.7067	47951.9	47059.9
916.2355	1821.3757	47947.35	47053.6
916.3755	1823.044	47669.55	46776.35
916.5156	1824.7115	47557.85	46664
916.6556	1826.3783	47382.55	46489.85
916.7956	1828.0443	47203.05	46311.05
916.9356	1829.7096	47071.5	46177.9
917.0756	1831.3741	47040.3	46144.85
917.2155	1833.0379	46903.4	46010.5
917.3555	1834.701	46788.9	45894.3
917.4954	1836.3633	46638.1	45745.65
917.6353	1838.0248	46535.6	45640.05
917.7751	1839.6856	46383.4	45491.2
917.915	1841.3457	46310.35	45418.95
918.0548	1843.005	46199.95	45309.65
918.1946	1844.6636	46138.05	45244.75
918.3344	1846.3214	45974.2	45082.8
918.4742	1847.9785	45906.95	45014.05
918.6139	1849.6349	45764.9	44869.1
918.7537	1851.2904	45688.95	44787.8
918.8934	1852.9453	45478.3	44584.3
919.0331	1854.5994	45362.55	44468.7
919.1727	1856.2528	45344.25	44447.15
919.3124	1857.9054	45204.6	44312.5
919.452	1859.5572	45139.65	44247.75
919.5916	1861.2083	45009.15	44114.95
919.7312	1862.8587	44988.4	44096.2
919.8708	1864.5084	44769	43874.45
920.0103	1866.1572	44659.7	43765.3
920.1498	1867.8054	44432.6	43541.4
920.2893	1869.4528	44407.8	43513.15
920.4288	1871.0994	44270.3	43377.6
920.5683	1872.7453	44214.1	43318.85
920.7077	1874.3905	44024.3	43126.9
920.8471	1876.0349	43922.2	43028.65
920.9865	1877.6786	43812.65	42916.7
921.1259	1879.3215	43801.75	42909.7
921.2653	1880.9637	43717.8	42823
921.4046	1882.6051	43542.4	42649.25
921.5439	1884.2458	43464.2	42568.35
921.6832	1885.8858	43242.3	42347.3
921.8225	1887.525	43177.25	42281.75
921.9617	1889.1634	42931.75	42037.95
922.101	1890.8011	42813.35	41919.25
922.2402	1892.4381	42696.45	41805.9
922.3794	1894.0743	42632.75	41739.7
922.5185	1895.7098	42574.55	41683.3
922.6577	1897.3446	42432.35	41539
922.7968	1898.9786	42258.8	41362.15
922.9359	1900.6118	42170	41278.45
923.075	1902.2443	41945.25	41049
923.214	1903.8761	41813.4	40921.2
923.3531	1905.5071	41576.15	40680.9
923.4921	1907.1374	41442.9	40550.85
923.6311	1908.7669	41407.55	40515.65
923.77	1910.3957	41333.6	40441.95
923.909	1912.0237	41023.8	40132.55
924.0479	1913.651	40987.6	40094.2
924.1868	1915.2776	40870.3	39980.85
924.3257	1916.9034	40687.45	39797.05
924.4646	1918.5285	40482.25	39591.65
924.6034	1920.1528	40289.85	39396.85
924.7422	1921.7764	40194.8	39301.85
924.881	1923.3992	40112.1	39220.05
925.0198	1925.0213	39785.3	38892.6
925.1586	1926.6427	39642.7	38751.3
925.2973	1928.2633	39656.2	38651.85
925.436	1929.8832	39454.65	38560.3
925.5747	1931.5023	39237.3	38343.65
925.7134	1933.1207	39126.25	38232.7
925.852	1934.7383	39012.55	38120.35
925.9906	1936.3552	38894.1	38002.7
926.1292	1937.9714	38831.4	37939.25
926.2678	1939.5868	38644.55	37748.1
926.4064	1941.2015	38431	37537.6
926.5449	1942.8154	38322.15	37430.35
926.6834	1944.4286	38100.5	37205.85
926.8219	1946.041	37956.9	37045.9
926.9604	1947.6528	37768.1	36869.75
927.0988	1949.2637	37648.5	36756.65
927.2372	1950.8739	37538.6	36646.2
927.3756	1952.4834	37478.1	36587
927.514	1954.0921	37383.2	36490.1
927.6523	1955.7001	37226.15	36331.05
927.7907	1957.3074	37085.2	36196.45
927.929	1958.9139	36934.8	36044.55
928.0673	1960.5197	36825.8	35932.15
928.2055	1962.1247	36648.1	35755.95
928.3438	1963.729	36501.85	35609.25
928.482	1965.3325	36340.6	35425.75
928.6202	1966.9353	36233.85	35341.7
928.7584	1968.5374	36127.95	35236.35
928.8965	1970.1387	35984.8	35093
929.0346	1971.7393	35847.2	34955.3
929.1727	1973.3392	35726.25	34835.4
929.3108	1974.9383	35583.65	34695.1
929.4489	1976.5366	35362	34471.15
929.5869	1978.1342	35359.7	34467.4
929.7249	1979.7311	35255.3	34360.95
929.8629	1981.3273	35151.5	34259.95
930.0009	1982.9227	34995.95	34101.35
930.1388	1984.5173	34867.6	33975.3
930.2767	1986.1112	34692	33802.3
930.4146	1987.7044	34646.05	33754.65
930.5525	1989.2968	34510.55	33618.8
930.6904	1990.8885	34447.2	33553.2
930.8282	1992.4795	34348.7	33457.05
930.966	1994.0697	34134.8	33242.8
931.1038	1995.6592	34051	33159.15
931.2415	1997.2479	33962.75	33071.35
931.3793	1998.8359	33875.85	32983.9
931.517	2000.4232	33672.2	32781.2
931.6547	2002.0097	33602.25	32714.95
931.7923	2003.5955	33414.3	32522.6
931.93	2005.1805	33395.55	32502.8
932.0676	2006.7648	33277.15	32387.55
932.2052	2008.3484	33145.2	32250.8
932.3427	2009.9312	33143.5	32250.65
932.4803	2011.5133	32985.55	32094.3
932.6178	2013.0946	32853.8	31962.7
932.7553	2014.6752	32812.65	31923.35
932.8928	2016.2551	32686.45	31793.45
933.0302	2017.8342	32514.9	31624.95
933.1676	2019.4126	32415.7	31524.85
933.305	2020.9902	32287.6	31396.5
933.4424	2022.5672	32224.65	31331.95
933.5798	2024.1433	32090.4	31195.7
933.7171	2025.7188	31992.85	31104.65
933.8544	2027.2935	31845	30953.8
933.9917	2028.8674	31737.1	30848
934.129	2030.4406	31664.3	30776.25
934.2662	2032.0131	31493.45	30602.9
934.4034	2033.5849	31445.95	30550.55
934.5406	2035.1559	31401.75	30508.75
934.6778	2036.7261	31290.65	30400
934.8149	2038.2957	31168.45	30280.25
934.952	2039.8645	31106.8	30218.8
935.0891	2041.4325	31088.95	30196.2
935.2262	2042.9998	30947.05	30056.65
935.3632	2044.5664	30841.6	29948.65
935.5002	2046.1323	30755.5	29866.15
935.6372	2047.6974	30670.6	29779.4
935.7742	2049.2617	30570.1	29680.6
935.9111	2050.8254	30494.55	29582.65
936.048	2052.3883	30449.2	29556.75
936.1849	2053.9504	30336.05	29445.75
936.3218	2055.5118	30226	29333.55
936.4586	2057.0725	30096	29202.55
936.5955	2058.6325	29965.9	29074.7
936.7323	2060.1917	29874.8	28984.95
936.869	2061.7502	29817.85	28926.75
937.0058	2063.3079	29706.05	28814.85
937.1425	2064.8649	29630.35	28737.05
937.2792	2066.4212	29580.5	28687.5
937.4159	2067.9767	29415.85	28525.7
937.5525	2069.5315	29291.65	28399.65
937.6891	2071.0856	29150.45	28260.25
937.8257	2072.6389	29037.75	28147
937.9623	2074.1915	28872.7	27983.45
938.0989	2075.7433	28747.75	27857.15
938.2354	2077.2945	28707	27817
938.3719	2078.8448	28613.1	27722.65
938.5084	2080.3945	28499.75	27610.25
938.6448	2081.9434	28481.4	27590.55
938.7812	2083.4916	28333.7	27439.8
938.9176	2085.039	28228.35	27336.6
939.054	2086.5857	28195.2	27302.3
939.1903	2088.1317	28149.35	27259.8
939.3267	2089.677	28028.8	27136.45
939.463	2091.2215	27909.95	27018.45
939.5992	2092.7652	27852.55	26960.1
939.7355	2094.3083	27767.4	26877.05
939.8717	2095.8506	27722.1	26830.75
940.0079	2097.3921	27698.15	26808.5
940.1441	2098.933	27581.75	26689.75
940.2802	2100.4731	27480.8	26591.35
940.4163	2102.0124	27401.8	26503.75
940.5524	2103.5511	27400.45	26508.55
940.6885	2105.089	27293.3	26402.75
940.8245	2106.6261	27197.2	26304.9
940.9606	2108.1626	27111.9	26218.7
941.0965	2109.6983	27081.45	26162.25
941.2325	2111.2332	26951.9	26059.1
941.3684	2112.7675	26893.95	26002.7
941.5044	2114.301	26772.65	25881.15
941.6403	2115.8337	26798.45	25905.95
941.7761	2117.3657	26689.6	25797.75
941.912	2118.897	26605.05	25711.9
942.0478	2120.4276	26518.3	25621.15
942.1835	2121.9575	26373.35	25480.15
942.3193	2123.4866	26427.7	25522.95
942.455	2125.0149	26291.7	25397.1
942.5907	2126.5426	26127.1	25237.6
942.7264	2128.0695	26042.1	25145.95
942.8621	2129.5956	26000.5	25110.9
942.9977	2131.1211	25972.5	25078.95
943.1333	2132.6458	25859.7	24968.8
943.2689	2134.1698	25813.35	24923.65
943.4044	2135.693	25736.15	24842.3
943.54	2137.2155	25670.4	24777.55
943.6755	2138.7373	25598.1	24707.3
943.8109	2140.2584	25471.2	24579.2
943.9464	2141.7787	25419.05	24521.4
944.0818	2143.2983	25267	24377.25
944.2172	2144.8171	25178.9	24288.45
944.3526	2146.3353	25096.8	24205.3
944.4879	2147.8527	24935.4	24045.7
944.6232	2149.3693	24962.1	24070.75
944.7585	2150.8853	24835.8	23943.2
944.8938	2152.4005	24717.7	23824.1
945.029	2153.9149	24690.55	23799.45
945.1642	2155.4287	24602.6	23709.65
945.2994	2156.9417	24555.1	23662.85
945.4346	2158.454	24505.8	23614
945.5697	2159.9655	24422.55	23530.6
945.7048	2161.4764	24369.85	23479.45
945.8399	2162.9865	24290.9	23399.7
945.9749	2164.4958	24203.5	23310.85
946.1099	2166.0045	24113.7	23220.65
946.2449	2167.5124	24054.6	23164.15
946.3799	2169.0195	23959.75	23070.1
946.5148	2170.526	23946.5	23056.25
946.6498	2172.0317	23880.45	22990.05
946.7846	2173.5367	23790.3	22897.75
946.9195	2175.0409	23722.25	22832.3
947.0543	2176.5445	23715.1	22826.45
947.1891	2178.0473	23591.2	22700.45
947.3239	2179.5494	23488.4	22592.2
947.4587	2181.0507	23371.5	22479.35
947.5934	2182.5513	23343	22451.15
947.7281	2184.0512	23292.45	22401.15
947.8628	2185.5504	23149.75	22259.45
947.9974	2187.0488	23034.75	22143.8
948.132	2188.5465	22966.95	22076.75
948.2666	2190.0435	22880.2	21987.8
948.4012	2191.5397	22817.15	21927.4
948.5357	2193.0353	22702.05	21811.5
948.6702	2194.5301	22589.05	21696
948.8047	2196.0241	22524.65	21634.05
948.9392	2197.5175	22476.35	21586.7
949.0736	2199.0101	22397.45	21502.55
949.208	2200.502	22255.75	21364.65
949.3424	2201.9931	22188.85	21298.2
949.4767	2203.4835	22083	21191.7
949.611	2204.9733	22059.15	21161.6
949.7453	2206.4622	22021	21129
949.8796	2207.9505	21903.45	21013.1
950.0138	2209.438	21782.25	20890
950.148	2210.9248	21732.2	20840.6
950.2822	2212.4109	21676.35	20785.65
950.4164	2213.8962	21582.45	20687.75
950.5505	2215.3809	21529.5	20634.9
950.6846	2216.8648	21479.5	20587.9
950.8186	2218.3479	21397.35	20500.4
950.9527	2219.8304	21293.45	20398.45
951.0867	2221.3121	21221.3	20329.35
951.2207	2222.7931	21151.7	20261.8
951.3546	2224.2733	21054.35	20163.95
951.4886	2225.7529	20995.2	20104.55
951.6225	2227.2317	20865.8	19974.6
951.7563	2228.7098	20885.75	19994.9
951.8902	2230.1872	20783.55	19890.55
952.024	2231.6638	20722.05	19830.25
952.1578	2233.1397	20666.9	19768.45
952.2916	2234.6149	20583	19691.65
952.4253	2236.0894	20511.15	19619.4
952.559	2237.5632	20473.95	19574.9
952.6927	2239.0362	20342.8	19449.55
952.8263	2240.5085	20308.85	19417
952.9599	2241.9801	20207.2	19316.25
953.0935	2243.4509	20195.85	19303.7
953.2271	2244.921	20071.3	19179.95
953.3606	2246.3904	20005.55	19110.25
953.4941	2247.8591	19951.1	19060.85
953.6276	2249.3271	19890.3	18999.65
953.7611	2250.7943	19829	18938.2
953.8945	2252.2608	19728.3	18837
954.0279	2253.7266	19668.75	18776.05
954.1612	2255.1917	19597.85	18706.35
954.2946	2256.656	19474.2	18583.7
954.4279	2258.1197	19456.95	18564.8
954.5612	2259.5826	19414.4	18522.65
954.6944	2261.0447	19359.1	18468
954.8276	2262.5062	19268.8	18374.65
954.9608	2263.9669	19211.95	18319.05
955.094	2265.4269	19220.15	18329.35
955.2271	2266.8862	19136.65	18245.05
955.3602	2268.3448	19060.3	18169.25
955.4933	2269.8026	19018.65	18127
955.6264	2271.2598	18936	18045.9
955.7594	2272.7162	18875.35	17984.35
955.8924	2274.1719	18869.95	17980.65
956.0253	2275.6268	18799.4	17909.3
956.1583	2277.0811	18735.8	17844.35
956.2912	2278.5346	18668.15	17776.25
956.4241	2279.9874	18622.25	17730.7
956.5569	2281.4395	18598.35	17706.9
956.6897	2282.8908	18527.9	17630.75
956.8225	2284.3414	18490.9	17598.15
956.9553	2285.7914	18389.45	17499
957.088	2287.2406	18347.7	17456
957.2207	2288.689	18273.75	17383.45
957.3534	2290.1368	18241.4	17349.95
957.486	2291.5838	18181.2	17286.35
957.6186	2293.0302	18088.55	17195.05
957.7512	2294.4758	17974.6	17084.1
957.8838	2295.9206	17943.65	17049.45
958.0163	2297.3648	17908.7	17016.75
958.1488	2298.8082	17880.5	16988.55
958.2813	2300.251	17816.15	16927.15
958.4137	2301.693	17731.7	16837.55
958.5461	2303.1343	17706	16814.1
958.6785	2304.5748	17649.25	16756.55
958.8108	2306.0147	17579.25	16688.5
958.9432	2307.4538	17547.1	16653.8
959.0754	2308.8922	17492	16603.4
959.2077	2310.3299	17430.05	16539.7
959.3399	2311.7669	17336.65	16444.85
959.4721	2313.2031	17287.85	16396.35
959.6043	2314.6387	17222.1	16329.8
959.7365	2316.0735	17183.1	16292.95
959.8686	2317.5076	17122.45	16231.4
960.0006	2318.941	17050.45	16159.05
960.1327	2320.3737	16977.15	16084.65
960.2647	2321.8056	16952.45	16058.8
960.3967	2323.2369	16895.3	16004.65
960.5287	2324.6674	16857.1	15964.8
960.6606	2326.0972	16791.85	15899.8
960.7925	2327.5263	16722.2	15831.4
960.9244	2328.9547	16663.55	15771.85
961.0562	2330.3823	16607.3	15716.35
961.1881	2331.8092	16603.4	15709.7
961.3198	2333.2355	16525.2	15634
961.4516	2334.661	16519.15	15626.1
961.5833	2336.0858	16440.35	15548.2
961.715	2337.5098	16375	15484.65
961.8467	2338.9332	16378.75	15487.2
961.9783	2340.3558	16287.2	15392.4
962.1099	2341.7778	16222.35	15330.5
962.2415	2343.199	16121.2	15226.45
962.373	2344.6195	16116.25	15225.1
962.5045	2346.0393	16054.55	15163.8
962.636	2347.4583	16025	15132.45
962.7675	2348.8767	15970.05	15077.55
962.8989	2350.2943	15941.75	15050.4
963.0303	2351.7113	15905.55	15013.9
963.1617	2353.1275	15805.05	14913
963.293	2354.543	15767	14867.25
963.4243	2355.9578	15732.95	14842
963.5556	2357.3718	15633.6	14743.6
963.6868	2358.7852	15538.7	14644.15
963.818	2360.1978	15500.65	14610.35
963.9492	2361.6098	15446.7	14556.4
964.0803	2363.021	15422.95	14528.9
964.2114	2364.4315	15354.9	14462.45
964.3425	2365.8413	15309.75	14416.95
964.4736	2367.2504	15248.65	14357.2
964.6046	2368.6587	15171.6	14279
964.7356	2370.0664	15112.5	14220.35
964.8666	2371.4733	15060.15	14169.35
964.9975	2372.8795	15027.75	14136.8
965.1284	2374.285	14961	14068.6
965.2593	2375.6899	14879.5	13988.05
965.3901	2377.0939	14790	13898.85
965.5209	2378.4973	14764.8	13874.7
965.6517	2379.9	14712.1	13821.1
965.7825	2381.3019	14663.9	13772.45
965.9132	2382.7032	14607.6	13717.2
966.0439	2384.1037	14552.6	13663.6
966.1745	2385.5035	14522.5	13631.65
966.3051	2386.9027	14460.85	13571.2
966.4357	2388.3011	14453.15	13560.2
966.5663	2389.6987	14372.25	13480.1
966.6968	2391.0957	14303.45	13413.45
966.8273	2392.492	14229.8	13341.55
966.9578	2393.8876	14157.9	13265.1
967.0882	2395.2824	14085.2	13194.65
967.2186	2396.6765	14048.35	13160.1
967.349	2398.07	13976.5	13087.2
967.4793	2399.4627	13965.5	13075.15
967.6097	2400.8547	13898.1	13007.25
967.7399	2402.246	13883.75	12987.95
967.8702	2403.6366	13748.7	12856.3
968.0004	2405.0265	13683.15	12793.8
968.1306	2406.4156	13673.15	12779.4
968.2607	2407.8041	13662.05	12766.95
968.3909	2409.1918	13574.25	12681.6
968.521	2410.5789	13511.05	12620.85
968.651	2411.9652	13467.4	12573.35
968.781	2413.3508	13405.65	12513.65
968.911	2414.7358	13343.8	12453.5
969.041	2416.12	13324.15	12433.5
969.1709	2417.5035	13285.7	12397.55
969.3008	2418.8863	13249.15	12358.4
969.4307	2420.2684	13169.35	12280.55
969.5606	2421.6497	13121.75	12231.75
969.6904	2423.0304	13062.25	12171.35
969.8201	2424.4104	13021.3	12129.1
969.9499	2425.7896	12976.85	12082.9
970.0796	2427.1682	12932.2	12042.05
970.2093	2428.546	12882.05	11990.9
970.3389	2429.9232	12872.65	11980.1
970.4685	2431.2996	12827.1	11937.9
970.5981	2432.6753	12801.5	11911.2
970.7277	2434.0503	12725.85	11835.4
970.8572	2435.4246	12702.4	11812.2
970.9867	2436.7982	12656.7	11761.8
971.1161	2438.1711	12610.4	11719.85
971.2456	2439.5433	12558	11666.8
971.375	2440.9148	12520.8	11628.85
971.5043	2442.2856	12438.15	11548.7
971.6336	2443.6557	12413.55	11521.9
971.7629	2445.025	12377.95	11489.4
971.8922	2446.3937	12339.15	11447.4
972.0214	2447.7617	12320.95	11428
972.1506	2449.1289	12277.65	11387.25
972.2798	2450.4955	12228.2	11334.65
972.4089	2451.8613	12202.9	11313.85
972.538	2453.2265	12151.1	11260.05
972.6671	2454.5909	12111.4	11219.25
972.7961	2455.9546	12070.95	11180.95
972.9251	2457.3177	12029.75	11138.4
973.0541	2458.68	12006.8	11114.55
973.1831	2460.0416	11983.85	11092.7
973.312	2461.4025	11958.9	11066.1
973.4408	2462.7627	11909.35	11006.45
973.5697	2464.1222	11874.15	10983.9
973.6985	2465.4811	11838.05	10945.85
973.8273	2466.8392	11807.55	10918.45
973.956	2468.1966	11755.2	10864.3
974.0847	2469.5533	11737.5	10844.8
974.2134	2470.9093	11701.2	10809.95
974.3421	2472.2645	11674.7	10784.15
974.4707	2473.6191	11653.4	10762.05
974.5993	2474.973	11602.4	10710.7
974.7278	2476.3262	11551.2	10659.7
974.8563	2477.6787	11508.25	10618.35
974.9848	2479.0305	11443.3	10553.75
975.1132	2480.3816	11405.4	10512.4
975.2417	2481.7319	11350.4	10459.6
975.37	2483.0816	11316.4	10425
975.4984	2484.4306	11295.25	10401
975.6267	2485.7789	11244.5	10355.45
975.755	2487.1264	11177.95	10283.9
975.8833	2488.4733	11132.4	10241.7
976.0115	2489.8195	11095.6	10184.7
976.1397	2491.165	11055.55	10160.55
976.2678	2492.5097	11019.4	10126.95
976.3959	2493.8538	10937.4	10048.45
976.524	2495.1972	10915.3	10024.4
976.6521	2496.5398	10878.65	9987.75
976.7801	2497.8818	10846.6	9953.6
976.9081	2499.2231	10805.95	9913.95
977.036	2500.5637	10770.35	9877.6
977.164	2501.9035	10723.85	9831.65
977.2918	2503.2427	10698.4	9804.7
977.4197	2504.5812	10666.75	9775.7
977.5475	2505.919	10634.65	9742.75
977.6753	2507.256	10607.3	9716.6
977.8031	2508.5924	10551.4	9661.8
977.9308	2509.9281	10501.15	9604.15
978.0585	2511.2631	10464	9572.4
978.1861	2512.5974	10443.95	9553.35
978.3137	2513.9309	10410	9517.4
978.4413	2515.2638	10385.2	9468
978.5689	2516.596	10338.4	9446.85
978.6964	2517.9275	10277.2	9385.95
978.8239	2519.2583	10252.1	9361.75
978.9513	2520.5884	10219.95	9327.2
979.0788	2521.9178	10184.25	9292.55
979.2062	2523.2465	10133.75	9243.25
979.3335	2524.5745	10095.6	9206
979.4608	2525.9018	10073.75	9181.8
979.5881	2527.2284	10048.9	9159.8
979.7154	2528.5543	10018.5	9130.55
979.8426	2529.8796	9994.95	9102.65
979.9698	2531.2041	9981.4	9090.7
980.0969	2532.5279	9947.3	9058.35
980.224	2533.851	9919.1	9027.45
980.3511	2535.1735	9878.9	8988.5
980.4781	2536.4952	9859.05	8968.8
980.6052	2537.8163	9836.55	8945.4
980.7321	2539.1366	9781.25	8890.8
980.8591	2540.4562	9741	8849.95
980.986	2541.7752	9726.95	8836.75
981.1129	2543.0935	9734.35	8844.6
981.2397	2544.411	9692.85	8799.75
981.3665	2545.7279	9663.95	8773.9
981.4933	2547.0441	9637.6	8744.6
981.62	2548.3596	9620	8724.6
981.7467	2549.6744	9622.2	8731.55
981.8734	2550.9885	9580.8	8689.35
982.0001	2552.3019	9532.8	8642.8
982.1267	2553.6146	9517.75	8627.65
982.2532	2554.9266	9486.65	8595.5
982.3798	2556.2379	9464.25	8571.8
982.5063	2557.5485	9440.95	8550.2
982.6327	2558.8585	9405.35	8508
982.7592	2560.1677	9391.75	8495.85
982.8856	2561.4762	9366.85	8472.8
983.0119	2562.7841	9353.9	8462.4
983.1383	2564.0913	9327.2	8438.35
983.2646	2565.3977	9316.25	8426.95
983.3908	2566.7035	9258.4	8366.7
983.517	2568.0086	9257.85	8364.2
983.6432	2569.313	9239.25	8348.2
983.7694	2570.6167	9220.6	8327.65
983.8955	2571.9197	9174.25	8284.1
984.0216	2573.222	9178.5	8285.35
984.1476	2574.5236	9140.1	8249.25
984.2737	2575.8246	9120.95	8228.2
984.3996	2577.1248	9085.45	8193.2
984.5256	2578.4244	9054.95	8164.35
984.6515	2579.7232	9078	8188.65
984.7774	2581.0214	9069.05	8151.9
984.9032	2582.3189	9030.9	8139.65
985.029	2583.6157	8995.75	8097.95
985.1548	2584.9118	8981.65	8088.4
985.2806	2586.2072	8945.15	8056.2
985.4063	2587.5019	8926.65	8037.1
985.5319	2588.7959	8923.95	8032.15
985.6576	2590.0893	8904.05	8012.65
985.7832	2591.3819	8878.8	7988.75
985.9087	2592.6739	8816.25	7926.35
986.0343	2593.9652	8803.45	7911.3
986.1597	2595.2557	8779.95	7890.25
986.2852	2596.5456	8734.35	7843.3
986.4106	2597.8348	8709	7817.85
986.536	2599.1234	8667.45	7776.8
986.6614	2600.4112	8658	7766.9
986.7867	2601.6983	8607.6	7713.55
986.912	2602.9848	8584.55	7695.05
987.0372	2604.2705	8535	7636.95
987.1624	2605.5556	8512.6	7622.3
987.2876	2606.84	8480.3	7590.15
987.4128	2608.1237	8473.9	7583.05
987.5379	2609.4067	8442.2	7550.7
987.6629	2610.689	8426.65	7529.2
987.788	2611.9707	8402.3	7509.1
987.913	2613.2516	8347.4	7449.55
988.0379	2614.5319	8311.15	7419.75
988.1629	2615.8115	8270.15	7380.35
988.2878	2617.0903	8234.15	7344.5
988.4126	2618.3685	8199.95	7310.1
988.5375	2619.6461	8162.85	7272
988.6622	2620.9229	8151.75	7260.55
988.787	2622.199	8145.6	7252.9
988.9117	2623.4745	8096.95	7205.05
989.0364	2624.7493	8085.75	7193.65
989.161	2626.0234	8044.8	7154.5
989.2857	2627.2968	8011.55	7120.55
989.4102	2628.5695	7983.9	7091.4
989.5348	2629.8415	7937.45	7045.4
989.6593	2631.1128	7920.05	7027.95
989.7837	2632.3835	7881.8	6991.45
989.9082	2633.6535	7873.35	6981.55
990.0326	2634.9228	7822.15	6932.1
990.1569	2636.1914	7815	6923.45
990.2812	2637.4593	7789.35	6897.45
990.4055	2638.7265	7746.55	6855.15
990.5298	2639.9931	7717.9	6825.8
990.654	2641.259	7692.4	6800.75
990.7782	2642.5242	7678	6786.55
990.9023	2643.7887	7671.85	6777.6
991.0264	2645.0525	7644.5	6754.2
991.1505	2646.3156	7625.15	6734.55
991.2745	2647.5781	7588.05	6698.95
991.3985	2648.8398	7549.95	6660.55
991.5225	2650.1009	7549.75	6650.55
991.6464	2651.3613	7518.9	6627
991.7703	2652.6211	7491.9	6599.85
991.8942	2653.8801	7456.65	6567
992.018	2655.1385	7447.4	6554.25
992.1418	2656.3961	7437.05	6546.7
992.2655	2657.6531	7423.95	6532.7
992.3892	2658.9094	7404.45	6512.35
992.5129	2660.1651	7374.25	6483.85
992.6366	2661.42	7357.85	6466.75
992.7602	2662.6743	7348.65	6455.45
992.8837	2663.9279	7321.4	6432.3
993.0073	2665.1808	7301.9	6410.3
993.1307	2666.433	7254.8	6361.7
993.2542	2667.6846	7239.6	6348.3
993.3776	2668.9354	7236.9	6343.5
993.501	2670.1856	7201.65	6309.45
993.6244	2671.4351	7168.6	6277.9
993.7477	2672.6839	7176.8	6283.35
993.8709	2673.9321	7159.15	6268.75
993.9942	2675.1795	7125.85	6235.55
994.1174	2676.4263	7111.65	6220
994.2405	2677.6724	7092.75	6202.1
994.3637	2678.9179	7075	6182.2
994.4868	2680.1626	7055.2	6164.45
994.6098	2681.4067	7032.3	6141.75
994.7328	2682.6501	6995.3	6103.5
994.8558	2683.8928	6986.45	6095.35
994.9788	2685.1348	6968.45	6078.4
995.1017	2686.3761	6939.55	6049.85
995.2245	2687.6168	6896	6005.75
995.3474	2688.8568	6884.3	5994.3
995.4702	2690.0961	6858.6	5968.1
995.5929	2691.3348	6854.35	5962.85
995.7156	2692.5727	6834.95	5944.55
995.8383	2693.81	6808.7	5917
995.961	2695.0466	6796.35	5908.85
996.0836	2696.2826	6761.5	5869.25
996.2062	2697.5178	6722.1	5829.25
996.3287	2698.7524	6714.45	5824.15
996.4512	2699.9863	6707.6	5814.75
996.5737	2701.2195	6667.25	5778.2
996.6961	2702.452	6651.95	5761.9
996.8185	2703.6839	6644.7	5751.9
996.9408	2704.9151	6640.25	5749.65
997.0631	2706.1456	6588.7	5696
997.1854	2707.3755	6573.55	5682.75
997.3077	2708.6046	6576.25	5681.5
997.4299	2709.8331	6559.1	5667.95
997.552	2711.0609	6527.6	5636.5
997.6742	2712.2881	6517.2	5626.45
997.7963	2713.5145	6513.45	5620.95
997.9183	2714.7403	6496.4	5606.55
998.0403	2715.9654	6487.35	5594.65
998.1623	2717.1899	6475.3	5570.2
998.2842	2718.4136	6449.55	5556.6
998.4062	2719.6367	6464.75	5574.4
998.528	2720.8591	6444.9	5547.15
998.6498	2722.0809	6406.45	5515.35
998.7716	2723.3019	6395.95	5502
998.8934	2724.5223	6377.45	5486.6
999.0151	2725.7421	6372.85	5479.1
999.1368	2726.9611	6345.45	5451.7
999.2584	2728.1795	6319.35	5423.4
999.38	2729.3972	6314.45	5425.55
999.5016	2730.6142	6275.1	5372.65
999.6231	2731.8306	6236.8	5345.15
999.7446	2733.0462	6218.95	5328.25
999.8661	2734.2612	6171.25	5275.1
999.9875	2735.4756	6111.9	5218.25
1000.1089	2736.6892	6076.6	5185.15
1000.2302	2737.9022	6076.9	5187.15
1000.3515	2739.1145	6019.15	5128.8
1000.4728	2740.3262	5992.35	5094.3
1000.594	2741.5372	5966.4	5078
1000.7152	2742.7475	5921.95	5031.35
1000.8363	2743.9571	5915.05	5023.9
1000.9575	2745.1661	5877.7	4983.35
1001.0785	2746.3744	5869.45	4977.65
1001.1996	2747.582	5838.45	4947.05
1001.3206	2748.7889	5827	4933.8
1001.4415	2749.9952	5794	4904.05
1001.5625	2751.2008	5765.9	4876.5
1001.6833	2752.4057	5759.6	4866.35
1001.8042	2753.61	5736.1	4843.65
1001.925	2754.8136	5714.8	4819.25
1002.0458	2756.0165	5677.35	4785.7
1002.1665	2757.2188	5672.65	4782.85
1002.2872	2758.4204	5663.45	4773.25
1002.4078	2759.6213	5634.3	4744.05
1002.5285	2760.8215	5627.7	4731.55
1002.649	2762.0211	5604.65	4711.15
1002.7696	2763.22	5592.7	4698.45
1002.8901	2764.4182	5574.45	4681.6
1003.0106	2765.6158	5545.2	4655.05
1003.131	2766.8127	5524.5	4633.9
1003.2514	2768.009	5516.65	4627.7
1003.3717	2769.2045	5491.5	4600.8
1003.492	2770.3994	5476.85	4584.7
1003.6123	2771.5936	5441.9	4550.6
1003.7325	2772.7872	5426.65	4538.2
1003.8527	2773.9801	5387.4	4492.45
1003.9729	2775.1723	5390.95	4485
1004.093	2776.3639	5345.35	4453.4
1004.2131	2777.5548	5347.5	4456.15
1004.3331	2778.745	5349.2	4457.25
1004.4531	2779.9346	5333.9	4443.7
1004.5731	2781.1235	5304.9	4413.95
1004.693	2782.3117	5295.35	4405.25
1004.8129	2783.4992	5267.55	4377.65
1004.9328	2784.6861	5250.9	4360.5
1005.0526	2785.8723	5253	4359.05
1005.1723	2787.0579	5246.95	4354.65
1005.2921	2788.2428	5242	4352.35
1005.4118	2789.427	5238.8	4349.3
1005.5314	2790.6106	5220.95	4330.25
1005.651	2791.7935	5227.4	4336.8
1005.7706	2792.9757	5209.05	4318.85
1005.8902	2794.1573	5199.9	4308.05
1006.0097	2795.3382	5186.45	4295.8
1006.1291	2796.5184	5200.55	4310.5
1006.2485	2797.698	5189.25	4295.65
1006.3679	2798.8769	5182.9	4293.2
1006.4873	2800.0551	5179.4	4289.15
1006.6066	2801.2327	5186.35	4293.65
1006.7258	2802.4096	5180.65	4291.25
1006.8451	2803.5859	5177.6	4286.7
1006.9642	2804.7615	5181.95	4290.4
1007.0834	2805.9364	5207.9	4317.45
1007.2025	2807.1106	5198.7	4309
1007.3216	2808.2842	5218.9	4326.7
1007.4406	2809.4572	5236.2	4343.6
1007.5596	2810.6294	5265.25	4374
1007.6785	2811.801	5295.35	4406.6
1007.7975	2812.972	5322.1	4432.55
1007.9163	2814.1423	5348.7	4458.3
1008.0352	2815.3119	5372.35	4481.05
1008.154	2816.4808	5408.8	4519.7
1008.2727	2817.6491	5453.1	4561.2
1008.3914	2818.8167	5489.4	4599.4
1008.5101	2819.9837	5513.75	4619.2
1008.6288	2821.15	5558.55	4668
1008.7474	2822.3157	5566	4678
1008.8659	2823.4807	5581.7	4693.4
1008.9844	2824.645	5666.85	4775.4
1009.1029	2825.8086	5691.6	4801.5
1009.2214	2826.9716	5693	4801.55
1009.3398	2828.134	5741.45	4853.4
1009.4581	2829.2957	5766.55	4876.4
1009.5764	2830.4567	5791.25	4902.65
1009.6947	2831.617	5795.55	4904.9
1009.813	2832.7767	5777.45	4888.1
1009.9312	2833.9358	5770.9	4883.4
1010.0493	2835.0941	5770.1	4878.4
1010.1675	2836.2519	5729.45	4837.75
1010.2855	2837.4089	5726.25	4834.8
1010.4036	2838.5653	5712.35	4822.65
1010.5216	2839.7211	5693.5	4804.25
1010.6396	2840.8761	5706.2	4815.7
1010.7575	2842.0306	5709	4819.8
1010.8754	2843.1843	5722.8	4833.05
1010.9932	2844.3374	5762.5	4871.05
1011.111	2845.4899	5804.7	4915.3
1011.2288	2846.6417	5898	5005.05
1011.3465	2847.7928	5942.45	5053.25
1011.4642	2848.9433	6006.45	5117.95
1011.5818	2850.0931	6075	5183.95
1011.6995	2851.2422	6138.55	5247.05
1011.817	2852.3907	6233.35	5343.95
1011.9345	2853.5385	6269.05	5376.6
1012.052	2854.6857	6322.2	5406.05
1012.1695	2855.8323	6331.35	5441.55
1012.2869	2856.9781	6370.25	5481.1
1012.4042	2858.1233	6413	5522.15
1012.5216	2859.2679	6442.7	5552
1012.6389	2860.4118	6455.15	5566.3
1012.7561	2861.555	6485.4	5591.65
1012.8733	2862.6976	6520.95	5627.95
1012.9905	2863.8395	6532.7	5642.8
1013.1076	2864.9808	6561.95	5670.5
1013.2247	2866.1214	6536.05	5646.5
1013.3417	2867.2614	6550.05	5658.9
1013.4587	2868.4007	6558.6	5666
1013.5757	2869.5393	6537.7	5645.95
1013.6926	2870.6773	6563.55	5669.65
1013.8095	2871.8146	6547.6	5653.55
1013.9263	2872.9513	6553.5	5661.65
1014.0431	2874.0874	6516.7	5625
1014.1599	2875.2227	6492.4	5602.6
1014.2766	2876.3574	6457.45	5567.55
1014.3933	2877.4915	6434.55	5544.35
1014.51	2878.6249	6382.15	5492
1014.6266	2879.7577	6362.9	5470.15
1014.7431	2880.8898	6343.1	5442.4
1014.8596	2882.0212	6308.4	5417.35
1014.9761	2883.152	6267.05	5377.65
1015.0925	2884.2821	6242.75	5354.75
1015.2089	2885.4116	6213.7	5325.2
1015.3253	2886.5405	6199.45	5311.2
1015.4416	2887.6686	6230.55	5336.85
1015.5579	2888.7962	6203.05	5313.2
1015.6741	2889.923	6201.1	5311.35
1015.7903	2891.0493	6186.15	5295.1
1015.9065	2892.1748	6185.05	5294
1016.0226	2893.2997	6190.85	5299.25
1016.1387	2894.424	6197.9	5308.9
1016.2547	2895.5476	6203.95	5314.5
1016.3707	2896.6706	6199.95	5310.8
1016.4866	2897.7929	6210.5	5319.7
1016.6025	2898.9145	6231.3	5340.95
1016.7184	2900.0355	6249.7	5361.1
1016.8342	2901.1559	6263.4	5372.45
1016.95	2902.2756	6287.1	5398.35
1017.0658	2903.3946	6305.2	5414.1
1017.1815	2904.513	6315.3	5420.6
1017.2971	2905.6308	6333	5443.6
1017.4127	2906.7479	6349.8	5458.05
1017.5283	2907.8643	6364.6	5471.7
1017.6439	2908.9801	6368.3	5479
1017.7594	2910.0953	6360.35	5470.4
1017.8748	2911.2098	6342.65	5450.6
1017.9902	2912.3236	6347.25	5450.15
1018.1056	2913.4368	6314.55	5422.65
1018.2209	2914.5494	6292.45	5402.65
1018.3362	2915.6613	6266.65	5370.65
1018.4515	2916.7725	6217.9	5325.85
1018.5667	2917.8831	6184.5	5293.75
1018.6819	2918.9931	6140.1	5248.7
1018.797	2920.1024	6094.4	5202
1018.9121	2921.211	6085.7	5194.8
1019.0271	2922.319	6031.05	5141.05
1019.1421	2923.4264	6026.7	5136.05
1019.2571	2924.5331	5993.4	5104.9
1019.372	2925.6391	5972.4	5084.15
1019.4869	2926.7445	5948.45	5059.4
1019.6017	2927.8493	5921.45	5031.2
1019.7165	2928.9534	5905.65	5017
1019.8313	2930.0569	5888.4	4996.7
1019.946	2931.1597	5885.35	4993.65
1020.0606	2932.2619	5877.05	4986.35
1020.1753	2933.3634	5864.6	4974.8
1020.2899	2934.4643	5860.45	4963.2
1020.4044	2935.5645	5800.6	4905.75
1020.5189	2936.6641	5754.8	4862.45
1020.6334	2937.763	5694.7	4805.85
1020.7478	2938.8613	5651.9	4761.3
1020.8622	2939.959	5574.85	4680.85
1020.9765	2941.056	5496.45	4605.45
1021.0908	2942.1523	5416.7	4523.75
1021.2051	2943.248	5331.7	4440.45
1021.3193	2944.3431	5191.4	4300.95
1021.4334	2945.4375	5089.9	4198.95
1021.5476	2946.5313	4963.5	4074.4
1021.6617	2947.6244	4867	3978.3
1021.7757	2948.7169	4765.4	3873.65
1021.8897	2949.8087	4642.6	3754.55
1022.0037	2950.8999	4556.5	3667.05
1022.1176	2951.9904	4451.05	3561.05
1022.2315	2953.0803	4399.55	3507.55
1022.3453	2954.1696	4313.5	3421.35
1022.4591	2955.2582	4254.45	3364.45
1022.5728	2956.3462	4189.65	3298.8
1022.6865	2957.4335	4144.2	3254.2
1022.8002	2958.5202	4105.75	3213.7
1022.9138	2959.6062	4069.5	3180.3
1023.0274	2960.6916	4032.65	3143.2
1023.141	2961.7764	4008.7	3118.6
1023.2545	2962.8605	3970.25	3079.9
1023.3679	2963.9439	3950.65	3061.15
1023.4813	2965.0267	3935.3	3043.05
1023.5947	2966.1089	3952	3037.75
1023.708	2967.1905	3888.85	2998.95
1023.8213	2968.2714	3888.45	3000.3
1023.9346	2969.3516	3876.1	2986.65
1024.0478	2970.4312	3866.9	2969.5
1024.1609	2971.5102	3867.55	2976.65
1024.274	2972.5885	3837.75	2947.55
1024.3871	2973.6662	3846.5	2951.1
1024.5002	2974.7432	3826.55	2937.35
1024.6132	2975.8196	3808.1	2918.05
1024.7261	2976.8954	3797.95	2908.75
1024.839	2977.9705	3785.2	2897.25
1024.9519	2979.045	3741.65	2852.95
1025.0647	2980.1188	3725.9	2835.75
1025.1775	2981.192	3704.2	2814.65
1025.2902	2982.2645	3659.85	2768.75
1025.4029	2983.3364	3641.25	2750.15
1025.5156	2984.4077	3591.15	2701.15
1025.6282	2985.4783	3589.95	2694.3
1025.7407	2986.5483	3523	2633.6
1025.8532	2987.6177	3472.35	2582.95
1025.9657	2988.6864	3440.75	2551.8
1026.0782	2989.7545	3409.6	2518
1026.1906	2990.8219	3358.75	2468.55
1026.3029	2991.8887	3335.8	2444.35
1026.4152	2992.9548	3279.65	2388.85
1026.5275	2994.0204	3263.95	2376.1
1026.6397	2995.0852	3226.25	2337.95
1026.7519	2996.1495	3198.1	2307.2
1026.864	2997.2131	3169.4	2282.2
1026.9761	2998.276	3126.55	2237.45
1027.0882	2999.3383	3108.35	2218.2
1027.2002	3000.4	3069.55	2178.3
1027.3122	3001.4611	3070.95	2178.75
1027.4241	3002.5215	3035.55	2146
1027.536	3003.5812	3015.15	2125.45
1027.6478	3004.6404	3007.75	2117.6
1027.7596	3005.6989	2992.75	2100.2
1027.8714	3006.7567	2974	2084.3
1027.9831	3007.8139	2979.4	2067.7
1028.0947	3008.8705	2943.1	2051.85
1028.2064	3009.9264	2912.5	2020
1028.3179	3010.9818	2917.35	2027.85
1028.4295	3012.0364	2911.05	2019.95
1028.541	3013.0905	2905.55	2014.9
1028.6524	3014.1439	2891.05	2000.85
1028.7638	3015.1966	2895.15	2005.4
1028.8752	3016.2487	2879.25	1988.8
1028.9865	3017.3002	2873.9	1980.1
1029.0978	3018.3511	2866.35	1979.45
1029.209	3019.4013	2857.9	1966.75
1029.3202	3020.4509	2852.2	1963.1
1029.4314	3021.4998	2853.2	1962.8
1029.5425	3022.5481	2829.2	1939.2
1029.6535	3023.5958	2828.1	1937.5
1029.7645	3024.6428	2834.1	1943.6
1029.8755	3025.6892	2834.3	1944.95
1029.9864	3026.735	2823.9	1936.2
1030.0973	3027.7802	2803.9	1914.15
1030.2082	3028.8247	2805	1916.3
1030.319	3029.8685	2802.9	1913.75
1030.4297	3030.9118	2809.85	1919.35
1030.5404	3031.9544	2795.05	1906.25
1030.6511	3032.9963	2806.05	1916.4
1030.7617	3034.0376	2786.5	1895.55
1030.8723	3035.0783	2797.55	1906.65
1030.9829	3036.1184	2781.25	1890.55
1031.0934	3037.1578	2795.6	1908.5
1031.2038	3038.1966	2788.55	1898.8
1031.3142	3039.2348	2771.05	1882.6
1031.4246	3040.2723	2770.75	1873.05
1031.5349	3041.3092	2751.05	1862.05
1031.6452	3042.3455	2746.6	1856.2
1031.7554	3043.3811	2745.15	1854.35
1031.8656	3044.4161	2742.4	1854
1031.9758	3045.4505	2719.6	1832.6
1032.0859	3046.4842	2702.2	1812.35
1032.1959	3047.5173	2698.35	1808.95
1032.3059	3048.5498	2687.7	1796.65
1032.4159	3049.5816	2666	1775.55
1032.5258	3050.6128	2668.25	1774.85
1032.6357	3051.6434	2662.65	1770.6
1032.7455	3052.6734	2640.1	1749.55
1032.8553	3053.7027	2625.85	1737.3
1032.9651	3054.7314	2618.15	1729.85
1033.0748	3055.7594	2607	1720.35
1033.1845	3056.7868	2604.5	1712.65
1033.2941	3057.8136	2580.9	1692.55
1033.4037	3058.8398	2570.05	1681.8
1033.5132	3059.8653	2564.8	1674.6
1033.6227	3060.8902	2544.1	1655.4
1033.7321	3061.9145	2546.35	1656.2
1033.8415	3062.9381	2528.65	1639.35
1033.9509	3063.9612	2530.8	1626.8
1034.0602	3064.9835	2503.15	1611.8
1034.1694	3066.0053	2512.2	1621.4
1034.2787	3067.0264	2475.55	1586.1
1034.3878	3068.0469	2468.3	1579.5
1034.497	3069.0668	2466.8	1574.95
1034.6061	3070.086	2447.65	1557.45
1034.7151	3071.1046	2434.25	1544.2
1034.8241	3072.1226	2418.1	1526
1034.9331	3073.1399	2415.55	1525.55
1035.042	3074.1567	2391.95	1501.15
1035.1508	3075.1727	2385.4	1492.85
1035.2597	3076.1882	2366.25	1477.6
1035.3684	3077.203	2352.35	1462.15
1035.4772	3078.2173	2347.3	1457.65
1035.5859	3079.2308	2342.05	1449.4
1035.6945	3080.2438	2324.85	1432.55
1035.8031	3081.2561	2299.35	1411.5
1035.9117	3082.2678	2278.95	1390.1
1036.0202	3083.2789	2276.95	1387.7
1036.1286	3084.2893	2277.05	1387.85
1036.2371	3085.2991	2252.35	1361.5
1036.3454	3086.3083	2250.2	1359.05
1036.4538	3087.3169	2242.15	1350.8
1036.562	3088.3248	2230.2	1340.55
1036.6703	3089.3321	2224.8	1334.3
1036.7785	3090.3388	2217.7	1329
1036.8866	3091.3449	2203.9	1315.45
1036.9948	3092.3503	2201.35	1309.75
1037.1028	3093.3551	2183.4	1293.4
1037.2108	3094.3593	2171.3	1283.85
1037.3188	3095.3629	2169	1277.8
1037.4267	3096.3658	2159.2	1270.1
1037.5346	3097.3681	2154.5	1264.15
1037.6425	3098.3698	2137.65	1245.05
1037.7503	3099.3708	2142.05	1248
1037.858	3100.3713	2120.15	1230.6
1037.9657	3101.3711	2116.3	1227.5
1038.0734	3102.3702	2235.5	1207.7
1038.181	3103.3688	2123.9	1231.5
1038.2886	3104.3667	2099.8	1212.75
1038.3961	3105.364	2090.3	1200.25
1038.5036	3106.3607	2084.2	1192.35
1038.611	3107.3568	2077.3	1184.9
1038.7184	3108.3522	2062.55	1175.15
1038.8257	3109.347	2064.8	1175.3
1038.933	3110.3412	2059	1166.1
1039.0403	3111.3348	2041.35	1152.75
1039.1475	3112.3277	2037.2	1148.1
1039.2547	3113.32	2028.1	1139.9
1039.3618	3114.3117	2029.75	1141.2
1039.4689	3115.3028	2029.55	1140.55
1039.5759	3116.2932	2012.7	1121.65
1039.6829	3117.2831	2022.1	1128.65
1039.7898	3118.2723	2004.75	1115.85
1039.8967	3119.2608	1996.95	1107.4
1040.0035	3120.2488	1988.95	1099.3
1040.1103	3121.2361	1982.5	1094.6
1040.2171	3122.2229	1972.85	1084.2
1040.3238	3123.209	1975.2	1084.95
1040.4305	3124.1944	1954.55	1067.1
1040.5371	3125.1793	1966.65	1075.1
1040.6437	3126.1635	1950.8	1061.4
1040.7502	3127.1471	1947.05	1056.75
1040.8567	3128.1301	1933.25	1044.2
1040.9631	3129.1125	1933.9	1045.65
1041.0695	3130.0942	1930.1	1041.6
1041.1759	3131.0753	1931.35	1032.8
1041.2822	3132.0558	1913.4	1020.2
1041.3884	3133.0357	1913.6	1024.35
1041.4946	3134.015	1907.25	1018.2
1041.6008	3134.9936	1894.3	1004.3
1041.7069	3135.9716	1915.9	1006
1041.813	3136.949	1892.1	1002.05
1041.919	3137.9258	1894	1000.9
1042.025	3138.902	1890.15	994.7
1042.1309	3139.8775	1889.25	1001.65
1042.2368	3140.8524	1877	987.7
1042.3427	3141.8267	1874.85	985.6
1042.4485	3142.8004	1871.8	982.25
1042.5542	3143.7735	1869.2	974.2
1042.6599	3144.7459	1857.3	966.3
1042.7656	3145.7178	1852.55	962.15
1042.8712	3146.689	1853.25	965.35
1042.9768	3147.6596	1848.7	958.8
1043.0823	3148.6295	1839.2	949.35
1043.1878	3149.5989	1835.65	947.6
1043.2932	3150.5676	1821	933.9
1043.3986	3151.5357	1822.25	935
1043.5039	3152.5032	1814.65	926.05
1043.6092	3153.4701	1801	912.3
1043.7145	3154.4364	1810.4	918.3
1043.8197	3155.402	1807.25	918.45
1043.9248	3156.367	1797.6	906.9
1044.03	3157.3315	1833.15	898.85
1044.135	3158.2952	1792.35	902.25
1044.24	3159.2584	1780.35	892.35
1044.345	3160.221	1774.85	884.3
1044.4499	3161.1829	1764.9	875.6
1044.5548	3162.1442	1762.3	872.45
1044.6596	3163.105	1755.85	868.4
1044.7644	3164.065	1749.8	860.25
1044.8692	3165.0245	1749.45	857.75
1044.9739	3165.9834	1737.3	850.05
1045.0785	3166.9416	1733	844.15
1045.1831	3167.8993	1728.3	838.6
1045.2877	3168.8563	1728.3	839.9
1045.3922	3169.8127	1722.45	833.1
1045.4966	3170.7684	1721.15	833.15
1045.6011	3171.7236	1718.2	829.75
1045.7054	3172.6782	1705.9	815.8
1045.8098	3173.6321	1707.05	817.85
1045.914	3174.5854	1704.25	811.45
1046.0183	3175.5381	1703.35	813.8
1046.1224	3176.4902	1694.7	804.5
1046.2266	3177.4417	1688.3	798.7
1046.3307	3178.3926	1687.25	800
1046.4347	3179.3428	1680	791.6
1046.5387	3180.2924	1670.15	780.25
1046.6427	3181.2415	1671.35	780.3
1046.7466	3182.1899	1664.05	773.85
1046.8504	3183.1377	1662.05	774.65
1046.9542	3184.0848	1659.55	767.35
1047.058	3185.0314	1653.2	765.05
1047.1617	3185.9773	1649.35	757.4
1047.2654	3186.9227	1642.75	752.05
1047.369	3187.8674	1636	747.9
1047.4726	3188.8115	1635.6	742.8
1047.5761	3189.755	1639.4	751.1
1047.6796	3190.6979	1634.45	746.05
1047.783	3191.6402	1623.45	735.45
1047.8864	3192.5818	1618.15	729.25
1047.9898	3193.5229	1628.15	727.95
1048.0931	3194.4633	1624.15	733.1
1048.1963	3195.4031	1613.4	723.35
1048.2995	3196.3423	1610.75	722.65
1048.4027	3197.2809	1607.35	718.8
1048.5058	3198.2189	1604.55	715.5
1048.6089	3199.1563	1603.75	709.75
1048.7119	3200.0931	1591.95	701.85
1048.8148	3201.0292	1593.65	704.4
1048.9178	3201.9648	1586.85	697.1
1049.0206	3202.8997	1582.6	690.2
1049.1235	3203.834	1575.1	684.75
1049.2262	3204.7677	1582.4	693.85
1049.329	3205.7008	1570.55	681.25
1049.4317	3206.6333	1565.25	678.6
1049.5343	3207.5652	1562.3	671
1049.6369	3208.4964	1560.8	672.75
1049.7394	3209.4271	1561.55	673.35
1049.8419	3210.3571	1555.55	667.25
1049.9444	3211.2865	1551.9	662.05
1050.0468	3212.2154	1547.95	658.65
1050.1491	3213.1436	1543.1	650.5
1050.2514	3214.0712	1551.4	655.15
1050.3537	3214.9982	1542.15	652.35
1050.4559	3215.9246	1532.3	641.45
1050.5581	3216.8503	1530.65	642.05
1050.6602	3217.7755	1538.1	648.5
1050.7623	3218.7001	1531.85	644.2
1050.8643	3219.624	1532.45	642.65
1050.9663	3220.5473	1518.75	630.5
1051.0682	3221.4701	1515.8	626.55
1051.1701	3222.3922	1516.65	625.9
1051.2719	3223.3137	1504.7	616.1
1051.3737	3224.2346	1506.85	617.75
1051.4754	3225.1549	1504.25	615.85
1051.5771	3226.0746	1499.5	611
1051.6788	3226.9937	1501.9	612.8
1051.7804	3227.9121	1489.9	602.3
1051.8819	3228.83	1489.55	601.05
1051.9834	3229.7473	1481.85	592.7
1052.0849	3230.6639	1477.1	586.3
1052.1863	3231.5799	1481.9	592.6
1052.2876	3232.4954	1473.7	582.75
1052.3889	3233.4102	1474.65	585.8
1052.4902	3234.3244	1467.75	579.7
1052.5914	3235.238	1461.75	573.1
1052.6926	3236.151	1485.15	574.5
1052.7937	3237.0634	1463.8	577.2
1052.8948	3237.9752	1455.25	564.9
1052.9958	3238.8864	1450.8	563.2
1053.0968	3239.797	1448.1	557.9
1053.1977	3240.7069	1445.7	556.2
1053.2986	3241.6163	1441.8	551.2
1053.3994	3242.5251	1432.95	544.4
1053.5002	3243.4332	1436.75	548.3
1053.6009	3244.3408	1427.6	539.3
1053.7016	3245.2477	1426.4	539
1053.8022	3246.154	1428.6	541.3
1053.9028	3247.0598	1422.1	530.3
1054.0034	3247.9649	1420.3	531
1054.1039	3248.8694	1417.1	528.2
1054.2043	3249.7733	1411.7	521.7
1054.3047	3250.6766	1405.8	517.75
1054.4051	3251.5793	1406.85	516.9
1054.5054	3252.4814	1400.35	509.6
1054.6056	3253.3829	1399.35	511.55
1054.7058	3254.2838	1398	510.1
1054.806	3255.1841	1395.15	509.2
1054.9061	3256.0838	1386.7	497.85
1055.0061	3256.9829	1373.6	488
1055.1062	3257.8814	1377.65	486.45
1055.2061	3258.7792	1376.25	485.35
1055.306	3259.6765	1367.65	478.6
1055.4059	3260.5731	1362.7	475.8
1055.5057	3261.4692	1355.8	465.85
1055.6055	3262.3647	1359.8	472.9
1055.7052	3263.2595	1354.2	465.7
1055.8049	3264.1538	1346.8	460.05
1055.9045	3265.0474	1334.2	444.8
1056.0041	3265.9404	1331.9	442.55
1056.1036	3266.8329	1316.95	429.7
1056.2031	3267.7247	1325.2	427.45
1056.3025	3268.616	1301.4	413.7
1056.4019	3269.5066	1296.9	409.65
1056.5013	3270.3966	1289.2	398.9
1056.6005	3271.286	1267.45	380.85
