Software Version:	3.9.2.0
Unit SN:	10000200
Spectrometer SN:	6960
Date:	3/6/2024 9:33:42 AM
Data Line Index:	25
Spectral Points:	2048
Integration time (ms):	125
Averages:	20
Delay (ms):	30
Sequence Number:	1
Processing:	dark subtract
Laser Power (mW):	305
Laser Current (mA):	825
Laser Diode Temp (C):	25.1
Laser Case Temp (C):	23.7
System Temp (C):	23.5
Spectrometer Temp (C):	21.1
CCD Temp (C):	-0.032
Secondary Temp (C):	20.007
Heatsink Temp (C):	17.806
CCDPCB Temp (C):	30.838
SecondaryPCB Temp (C):	25.491

Wavelength	RamanShift	Raw Counts	Dark Subtracted
787.061	30.1047	509.8	100.65
787.2016	32.3739	512.25	105.85
787.3422	34.6426	519.95	110.95
787.4828	36.9109	529.45	120.5
787.6235	39.1787	537.65	124.85
787.7642	41.4461	547.2	129
787.9049	43.7131	562.9	142.7
788.0456	45.9796	576.7	153.4
788.1863	48.2456	586.05	159.35
788.3271	50.5112	601.15	171.35
788.4679	52.7764	612.05	179.45
788.6087	55.0411	626.2	187.7
788.7496	57.3054	645.35	205.05
788.8904	59.5692	656.8	212.95
789.0313	61.8326	670.7	224.95
789.1722	64.0955	692.1	242.7
789.3132	66.3579	714.65	260.05
789.4541	68.6199	742.65	284.75
789.5951	70.8815	791.25	327.9
789.7361	73.1426	892.9	427.3
789.8771	75.4032	1161.35	692.15
790.0181	77.6634	1818.3	1345.9
790.1592	79.9231	3384.65	2909.2
790.3003	82.1824	6810.85	6332
790.4414	84.4412	12838.15	12353.15
790.5825	86.6995	20992.35	20498.55
790.7237	88.9574	28874.1	28372.2
790.8648	91.2148	34437.05	33931
791.006	93.4717	37390.2	36882.05
791.1472	95.7282	38642.25	38129.9
791.2885	97.9842	39335.3	38819.75
791.4297	100.2398	39590.65	39073.6
791.571	102.4949	39653.25	39134.5
791.7123	104.7495	39749.45	39225.85
791.8536	107.0036	39725.35	39201.25
791.9949	109.2573	39891.15	39369.3
792.1363	111.5105	39798.4	39271.55
792.2777	113.7632	39918.85	39389.65
792.4191	116.0154	39971.15	39432.3
792.5605	118.2672	40226.95	39695.05
792.7019	120.5185	40245.5	39711.85
792.8434	122.7693	40362.25	39823.8
792.9849	125.0197	40447.5	39904.55
793.1264	127.2696	40568.2	40020.75
793.2679	129.519	40741.2	40191.95
793.4094	131.7679	40988.95	40435.9
793.551	134.0163	40717.85	40165.05
793.6926	136.2642	40924.4	40367.85
793.8342	138.5117	41072.2	40511.05
793.9758	140.7587	41105.15	40546.15
794.1175	143.0052	41205.75	40640.65
794.2591	145.2512	41086.85	40522.95
794.4008	147.4967	41176.75	40610.2
794.5425	149.7417	41163.7	40593.5
794.6842	151.9863	41228.95	40654.2
794.826	154.2304	41144	40566.3
794.9677	156.4739	41150.95	40567.9
795.1095	158.717	41273.5	40689.75
795.2513	160.9596	41320.25	40731.75
795.3931	163.2017	41253.15	40666.05
795.535	165.4433	41306.3	40715.05
795.6768	167.6844	41303.25	40707.8
795.8187	169.925	41425.7	40827.3
795.9606	172.1651	41322.25	40718.95
796.1025	174.4047	41361.45	40758.2
796.2445	176.6439	41373.65	40768.4
796.3864	178.8825	41451.4	40844.65
796.5284	181.1206	41546.2	40933.6
796.6704	183.3582	41614.85	40998.5
796.8124	185.5954	41517.3	40899.75
796.9544	187.832	41696.45	41072.75
797.0965	190.0681	41734.5	41106.95
797.2386	192.3037	41893.1	41264.15
797.3806	194.5388	42038.5	41406.2
797.5228	196.7734	41846.25	41214.85
797.6649	199.0075	42153.85	41520.9
797.807	201.2411	42375.2	41741.6
797.9492	203.4742	42471.9	41832.7
798.0914	205.7068	42637	41995
798.2336	207.9389	42676.3	42036.7
798.3758	210.1704	42789.35	42158.45
798.518	212.4015	42847.7	42223.05
798.6603	214.632	42762.9	42143.7
798.8025	216.862	42932.35	42313.65
798.9448	219.0915	43006.25	42385.25
799.0871	221.3205	42992.95	42369.35
799.2294	223.549	43189	42568.15
799.3718	225.777	43235.65	42613.85
799.5141	228.0044	43320.8	42690.45
799.6565	230.2314	43440.9	42807.4
799.7989	232.4578	43418.15	42781.35
799.9413	234.6837	43454.1	42809.35
800.0837	236.909	43715.9	43069.85
800.2262	239.1339	43498.35	42830
800.3687	241.3582	43686.5	43033.35
800.5111	243.582	43663.2	42979.3
800.6536	245.8053	43779.65	43105.05
800.7961	248.0281	43745.75	43079.05
800.9387	250.2503	43838.95	43168.45
801.0812	252.472	43844.65	43173.55
801.2238	254.6932	43925.35	43253.75
801.3664	256.9139	43899.5	43223.65
801.509	259.134	44143.3	43465.95
801.6516	261.3536	43926.1	43251.6
801.7942	263.5727	44148.7	43471.05
801.9369	265.7912	44041.65	43363.3
802.0795	268.0092	44189.45	43512.1
802.2222	270.2267	44193.45	43513.95
802.3649	272.4436	44254.05	43571.9
802.5076	274.6601	44291.3	43599.65
802.6504	276.8759	44320.05	43634
802.7931	279.0913	44391.15	43700.85
802.9359	281.3061	44377.45	43688.4
803.0787	283.5204	44500.05	43808.9
803.2215	285.7341	44577.35	43884.65
803.3643	287.9473	44713.1	44007.45
803.5071	290.16	44625.15	43926.9
803.6499	292.3721	44809.25	44119.55
803.7928	294.5837	44451.85	43758.15
803.9357	296.7947	44433.2	43741.6
804.0786	299.0052	44565.75	43871.65
804.2215	301.2152	44470.3	43770.75
804.3644	303.4246	44552.05	43857.35
804.5074	305.6334	44545.55	43847.55
804.6503	307.8418	44471.65	43773.4
804.7933	310.0495	44488.7	43788.85
804.9363	312.2568	44442.4	43739.35
805.0793	314.4635	44293.05	43587.85
805.2223	316.6696	44284.05	43578.6
805.3653	318.8752	44260	43545.2
805.5084	321.0802	44011.4	43302.3
805.6514	323.2847	44140.5	43428.95
805.7945	325.4887	44086.45	43376.45
805.9376	327.692	44046.65	43334.9
806.0807	329.8949	44267.9	43553.95
806.2238	332.0972	44202.9	43489.05
806.367	334.2989	44358.25	43638.65
806.5101	336.5001	44287	43566.8
806.6533	338.7007	44234.5	43515.6
806.7965	340.9008	44346.45	43625.8
806.9397	343.1003	44243.9	43519.95
807.0829	345.2992	44266.4	43542.8
807.2261	347.4976	44167.25	43442.7
807.3693	349.6955	44145.05	43416.55
807.5126	351.8927	44284.15	43555.15
807.6559	354.0895	44183.3	43441.65
807.7991	356.2856	44232.6	43500.95
807.9424	358.4812	44120.4	43385.5
808.0857	360.6763	44180.7	43444.25
808.2291	362.8707	44164.1	43424.3
808.3724	365.0646	44200.55	43459.3
808.5158	367.258	44098.1	43354.05
808.6591	369.4508	44003.8	43258.4
808.8025	371.643	44148.2	43401.65
808.9459	373.8346	44026	43279.4
809.0893	376.0257	44023.8	43272.8
809.2327	378.2162	43968.1	43219.1
809.3762	380.4062	43977.85	43228.9
809.5196	382.5956	43911.2	43168
809.6631	384.7844	43885.2	43145.5
809.8066	386.9726	43771.9	43034.45
809.9501	389.1603	43733.45	42996.8
810.0936	391.3474	43697.65	42911.15
810.2371	393.5339	43704	42961.05
810.3806	395.7199	43555.8	42815.65
810.5241	397.9052	43540.4	42798.7
810.6677	400.09	43534.55	42790.75
810.8113	402.2743	43590.6	42844.9
810.9548	404.4579	43535.75	42791.2
811.0984	406.641	43622.35	42872.9
811.2421	408.8235	43669.3	42919.1
811.3857	411.0054	43682.35	42927.2
811.5293	413.1868	43711.9	42953.35
811.673	415.3675	43736.85	42977.1
811.8166	417.5477	43759.3	42998.05
811.9603	419.7273	43720.8	42955.6
812.104	421.9064	43557.85	42786.05
812.2477	424.0848	43406.75	42643
812.3914	426.2627	43292.2	42527.05
812.5351	428.4399	43177.4	42411.55
812.6788	430.6166	43085.6	42315.65
812.8226	432.7928	43022.05	42248.2
812.9663	434.9683	42848.7	42077.45
813.1101	437.1432	42862.65	42087.7
813.2539	439.3176	42769.05	41998.9
813.3977	441.4914	42520.45	41748.1
813.5415	443.6645	42529.5	41755.6
813.6853	445.8371	42371.75	41600.35
813.8291	448.0091	42227.45	41454.95
813.973	450.1806	42108.1	41333.45
814.1168	452.3514	42002.1	41223
814.2607	454.5216	42049.15	41262.9
814.4046	456.6913	41811.1	41031.85
814.5485	458.8603	41896.25	41118.95
814.6924	461.0288	41863.5	41086.05
814.8363	463.1967	41786	41009.55
814.9802	465.3639	41866.05	41086.85
815.1241	467.5306	41787.6	41007.35
815.2681	469.6967	41694.3	40915.8
815.412	471.8622	41542.65	40761.7
815.556	474.0271	41553.5	40772.15
815.7	476.1914	41534.35	40752.1
815.844	478.3551	41453.45	40672.35
815.988	480.5182	41571	40787.3
816.132	482.6807	41538.65	40753.05
816.276	484.8426	41570.45	40785.85
816.4201	487.0039	41657.55	40873.95
816.5641	489.1647	41681.25	40894.9
816.7082	491.3248	41748.75	40961.1
816.8522	493.4843	41634.25	40846.7
816.9963	495.6432	41649.25	40860.8
817.1404	497.8015	41497.5	40706.75
817.2845	499.9592	41561.65	40772.6
817.4286	502.1163	41465.2	40674.3
817.5727	504.2728	41334.7	40539.75
817.7168	506.4287	41423.85	40632.7
817.861	508.5839	41310.15	40519.25
818.0051	510.7386	41214.6	40422.35
818.1493	512.8927	41245.25	40445.15
818.2935	515.0461	41284.75	40488.4
818.4377	517.199	41241.1	40446.4
818.5818	519.3512	41231.9	40436.85
818.726	521.5029	41227.4	40426.8
818.8703	523.6539	41215.8	40417.6
819.0145	525.8043	41235.3	40434.4
819.1587	527.9541	41184.35	40384.85
819.303	530.1033	41075.5	40276.15
819.4472	532.2519	40953.7	40153.05
819.5915	534.3999	40868.7	40066.45
819.7357	536.5472	40892.85	40091.45
819.88	538.694	40844.1	40044.6
820.0243	540.8401	40855.75	40055.9
820.1686	542.9856	40944.8	40144.2
820.3129	545.1305	40861.25	40057.95
820.4572	547.2748	40891.15	40087.7
820.6016	549.4185	40857.3	40054.95
820.7459	551.5615	40790	39986.55
820.8902	553.704	40783.45	39978.55
821.0346	555.8458	40686.5	39883.45
821.1789	557.987	40721.4	39918
821.3233	560.1276	40712.5	39908.1
821.4677	562.2675	40782.5	39979.05
821.6121	564.4069	40732.05	39929.6
821.7565	566.5456	40652.1	39847.9
821.9009	568.6837	40637.65	39830.5
822.0453	570.8212	40447.1	39642.05
822.1897	572.958	40298.6	39487.2
822.3342	575.0942	40233.8	39425.85
822.4786	577.2299	40172.15	39360.85
822.6231	579.3648	40035.75	39224.2
822.7675	581.4992	39784.15	38973.3
822.912	583.6329	39689.5	38877.95
823.0565	585.766	39662.3	38854.65
823.201	587.8985	39597.8	38790.9
823.3454	590.0304	39513.95	38689.3
823.4899	592.1616	39501	38685.75
823.6345	594.2922	39430.5	38615.75
823.779	596.4222	39277.15	38463.45
823.9235	598.5515	39182.95	38368.15
824.068	600.6802	39105.65	38291.15
824.2126	602.8083	38940.1	38124.85
824.3571	604.9358	38958.5	38142.9
824.5017	607.0626	38741.5	37923.5
824.6462	609.1888	38771	37953.7
824.7908	611.3144	38676.05	37859.35
824.9354	613.4393	38600.55	37782.7
825.08	615.5636	38585.3	37767.95
825.2246	617.6873	38666.1	37848.9
825.3692	619.8103	38694.7	37873.95
825.5138	621.9327	38547	37723.95
825.6584	624.0544	38527	37707.65
825.803	626.1756	38475.05	37653.05
825.9477	628.2961	38390.55	37567.95
826.0923	630.4159	38326.1	37505.8
826.237	632.5351	38309.2	37487.55
826.3816	634.6537	38215.05	37391.15
826.5263	636.7716	38179.85	37356.75
826.6709	638.8889	38198.9	37376.3
826.8156	641.0056	38213.7	37388.4
826.9603	643.1216	38105.4	37280.4
827.105	645.237	38152.5	37326.35
827.2497	647.3518	38013.9	37188.55
827.3944	649.4659	38058.2	37233.15
827.5391	651.5793	37963.4	37138.05
827.6838	653.6922	37882.55	37057.85
827.8285	655.8043	37821.1	36994.2
827.9733	657.9159	37804.95	36977.35
828.118	660.0268	37633.15	36801.35
828.2627	662.137	37573.2	36744.6
828.4075	664.2466	37597.85	36768.95
828.5522	666.3556	37594.45	36767.6
828.697	668.4639	37453.85	36620.3
828.8418	670.5716	37464.5	36634.8
828.9865	672.6786	37460.45	36630.2
829.1313	674.785	37296.25	36464.2
829.2761	676.8907	37204.6	36373.05
829.4209	678.9958	37168.7	36339
829.5657	681.1002	37102.45	36269.15
829.7105	683.204	37042.7	36207.3
829.8553	685.3072	36973.45	36139.55
830.0001	687.4097	36922.5	36088.15
830.1449	689.5115	36880.95	36044.8
830.2898	691.6127	36906.4	36073.7
830.4346	693.7132	36752.65	35917.35
830.5794	695.8131	36812.65	35955.8
830.7243	697.9123	36804.55	35968.35
830.8691	700.0109	36713.2	35878.7
831.014	702.1089	36653.6	35819.1
831.1588	704.2061	36637.9	35802.5
831.3037	706.3028	36656.6	35820.1
831.4486	708.3987	36591.9	35756.1
831.5935	710.4941	36535.45	35700.45
831.7383	712.5887	36519.3	35684.3
831.8832	714.6827	36494.35	35652.3
832.0281	716.7761	36468.1	35630.55
832.173	718.8688	36415.6	35574.95
832.3179	720.9608	36336.55	35494.9
832.4628	723.0522	36391.2	35546.95
832.6077	725.1429	36267.1	35427.5
832.7527	727.233	36227.5	35387.3
832.8976	729.3224	36341.85	35503.65
833.0425	731.4112	36251.6	35409.7
833.1874	733.4993	36165.85	35322.3
833.3324	735.5867	35964.9	35124.05
833.4773	737.6735	35935.05	35092.9
833.6222	739.7596	35818.9	34976.25
833.7672	741.845	35752.75	34909.55
833.9122	743.9298	35660.3	34813.5
834.0571	746.014	35594.4	34751.7
834.2021	748.0974	35548.6	34703.35
834.347	750.1802	35426.15	34581.5
834.492	752.2624	35347.35	34504.6
834.637	754.3439	35226.95	34383
834.782	756.4247	35090.9	34237.45
834.9269	758.5048	34988.75	34144.95
835.0719	760.5843	34930.35	34087.25
835.2169	762.6631	34849.05	34004.9
835.3619	764.7413	34771.75	33928
835.5069	766.8188	34853.2	34006.35
835.6519	768.8956	34775	33928.1
835.7969	770.9718	34816.05	33973.45
835.9419	773.0473	34676.65	33832.35
836.0869	775.1221	34638.35	33792.25
836.232	777.1962	34480.45	33633.65
836.377	779.2697	34456.15	33608.65
836.522	781.3426	34411.35	33543.85
836.667	783.4147	34381.95	33534.3
836.8121	785.4862	34389.55	33544.75
836.9571	787.557	34225.7	33377.45
837.1021	789.6271	34137.25	33291.05
837.2472	791.6966	33953.6	33106.7
837.3922	793.7654	33756.65	32908.7
837.5373	795.8335	33748.5	32900.15
837.6823	797.901	33648	32798.4
837.8274	799.9678	33606.1	32756.15
837.9724	802.0339	33538.7	32690.45
838.1175	804.0993	33527.4	32669.6
838.2626	806.1641	33409.35	32557.1
838.4076	808.2282	33272.8	32423.3
838.5527	810.2916	33280.25	32426.75
838.6978	812.3544	33250.45	32403.2
838.8428	814.4164	33120.15	32272.35
838.9879	816.4778	33128.75	32277.65
839.133	818.5385	33025.8	32173.9
839.2781	820.5986	33033.85	32184.85
839.4232	822.658	33047.25	32193.1
839.5682	824.7166	32961.75	32110.65
839.7133	826.7747	33065.9	32216.35
839.8584	828.832	33059.15	32206.5
840.0035	830.8886	32942.6	32090.7
840.1486	832.9446	32929	32075.05
840.2937	834.9999	32848.6	31998.2
840.4388	837.0545	32753.3	31895.05
840.5839	839.1085	32643.3	31789.8
840.729	841.1618	32521.15	31665.75
840.8741	843.2143	32477.2	31624
841.0192	845.2662	32307.95	31455.1
841.1643	847.3175	32307.2	31454.8
841.3095	849.368	32185.35	31332.55
841.4546	851.4179	32114.35	31261.15
841.5997	853.467	31970.8	31114.45
841.7448	855.5155	31998.35	31144.8
841.8899	857.5633	31938.4	31082.5
842.0351	859.6105	31838.1	30981.65
842.1802	861.6569	31787.45	30933.1
842.3253	863.7027	31683.6	30829.2
842.4704	865.7478	31698.25	30845.45
842.6156	867.7922	31645.55	30792.15
842.7607	869.8359	31573.25	30716.35
842.9058	871.8789	31556.7	30699.55
843.0509	873.9212	31502.95	30613.05
843.1961	875.9629	31378.8	30523.8
843.3412	878.0039	31391.6	30533.45
843.4863	880.0441	31328.55	30471.85
843.6315	882.0837	31367.4	30511
843.7766	884.1226	31337.55	30479.75
843.9218	886.1609	31335.15	30479
844.0669	888.1984	31349.9	30493.9
844.212	890.2352	31396.35	30536.55
844.3572	892.2714	31291.45	30428.95
844.5023	894.3069	31275.4	30415.85
844.6475	896.3416	31108.1	30248.55
844.7926	898.3757	31029.95	30170.25
844.9377	900.4091	30989.25	30128.95
845.0829	902.4418	30967.55	30103.8
845.228	904.4739	30831.85	29971.95
845.3732	906.5052	30824.95	29967
845.5183	908.5358	30776.7	29917.35
845.6635	910.5658	30713.2	29852.25
845.8086	912.595	30612.45	29753.1
845.9538	914.6236	30503.85	29644.2
846.0989	916.6515	30458.2	29596.55
846.2441	918.6786	30365.6	29504.4
846.3892	920.7051	30338.7	29477.5
846.5344	922.7309	30336.45	29475.35
846.6795	924.756	30233.2	29373.35
846.8246	926.7804	30255.6	29393.1
846.9698	928.8041	30005	29142.95
847.1149	930.8272	30057.95	29197.9
847.2601	932.8495	29866.8	29003.25
847.4052	934.8711	29871.35	29008.4
847.5504	936.892	29735.35	28873.6
847.6955	938.9123	29653.1	28787.6
847.8407	940.9318	29621.5	28757.85
847.9858	942.9506	29495.05	28632.75
848.131	944.9688	29369.3	28508.4
848.2761	946.9862	29352.25	28490.35
848.4213	949.003	29203.85	28341.4
848.5664	951.019	29152.95	28290.25
848.7115	953.0344	29043.3	28179.85
848.8567	955.0491	29023.6	28158.6
849.0018	957.063	28991.75	28128.2
849.147	959.0763	29032	28168.55
849.2921	961.0888	28837.7	27970.55
849.4373	963.1007	28824.2	27961.65
849.5824	965.1119	28815.1	27952.4
849.7275	967.1223	28750.75	27889.65
849.8727	969.1321	28698.55	27835.85
850.0178	971.1412	28682.25	27818.95
850.1629	973.1495	28553.25	27688.7
850.3081	975.1572	28556.95	27644.75
850.4532	977.1641	28460.85	27596.65
850.5983	979.1704	28363.1	27497.6
850.7435	981.1759	28304.7	27436.1
850.8886	983.1808	28275.9	27410.9
851.0337	985.1849	28197.1	27326.1
851.1788	987.1884	28089.3	27222.1
851.324	989.1911	28059.15	27190.85
851.4691	991.1932	28047.8	27181.1
851.6142	993.1945	27894.95	27029.25
851.7593	995.1951	27763.05	26895.95
851.9045	997.1951	27747.3	26874
852.0496	999.1943	27613.2	26748.8
852.1947	1001.1928	27542.8	26677.8
852.3398	1003.1906	27437.5	26570.35
852.4849	1005.1877	27418	26552.45
852.63	1007.1841	27331.1	26464.95
852.7751	1009.1798	27243.95	26376.8
852.9202	1011.1748	27122.35	26256.75
853.0653	1013.1691	27024.45	26156.35
853.2104	1015.1627	26938.35	26070.25
853.3555	1017.1556	26772.7	25906.55
853.5006	1019.1477	26658.95	25789.95
853.6457	1021.1392	26522.55	25658
853.7908	1023.1299	26429.9	25561.6
853.9359	1025.12	26340.35	25472.05
854.081	1027.1093	26204.15	25338.8
854.2261	1029.0979	26129.5	25264.25
854.3712	1031.0859	26054.4	25187.45
854.5163	1033.0731	26022	25153.8
854.6613	1035.0596	25912.8	25046.6
854.8064	1037.0454	25773.35	24906.35
854.9515	1039.0304	25721.8	24851.95
855.0965	1041.0148	25598.25	24730.5
855.2416	1042.9985	25536.4	24667.5
855.3867	1044.9814	25528.05	24660.85
855.5317	1046.9636	25412	24541.6
855.6768	1048.9452	25295.8	24426.75
855.8219	1050.926	25275.25	24407.7
855.9669	1052.9061	25202.35	24334.7
856.112	1054.8855	25161.55	24293.95
856.257	1056.8642	25109.95	24244.8
856.4021	1058.8421	25121.25	24249.2
856.5471	1060.8194	25002.85	24132.7
856.6921	1062.7959	24900.2	24031.7
856.8372	1064.7717	24879.65	24008.35
856.9822	1066.7469	24813.35	23942.3
857.1272	1068.7213	24782.9	23909.35
857.2723	1070.695	24764.1	23894
857.4173	1072.6679	24664.85	23794.85
857.5623	1074.6402	24678.2	23807.6
857.7073	1076.6117	24725.05	23850.55
857.8523	1078.5826	24634.45	23762.3
857.9973	1080.5527	24512.35	23639.1
858.1423	1082.5221	24386.65	23516.7
858.2873	1084.4908	24345.9	23477.1
858.4323	1086.4587	24279.9	23409.5
858.5773	1088.426	24204.95	23334.7
858.7223	1090.3925	24099.9	23227.15
858.8673	1092.3584	24105.05	23234.15
859.0123	1094.3235	23983.95	23115.35
859.1573	1096.2879	23918.4	23046.2
859.3022	1098.2515	23951.4	23081.1
859.4472	1100.2145	23948.75	23080.15
859.5922	1102.1767	23838.7	22964.05
859.7371	1104.1382	23824.45	22951.25
859.8821	1106.099	23832.9	22959.8
860.027	1108.0591	23785.3	22915
860.172	1110.0185	23760.85	22888.15
860.3169	1111.9771	23746.7	22875.8
860.4619	1113.9351	23706.2	22834.45
860.6068	1115.8923	23708.55	22836.35
860.7517	1117.8488	23683.6	22810.9
860.8967	1119.8045	23570.25	22699.8
861.0416	1121.7596	23498.8	22625.55
861.1865	1123.7139	23271.2	22399.15
861.3314	1125.6675	23207	22335.6
861.4763	1127.6204	23227.8	22358.1
861.6212	1129.5726	23099.85	22225.2
861.7661	1131.524	23109.1	22239.5
861.911	1133.4748	23044.2	22171.9
862.0559	1135.4248	22910.65	22037.05
862.2008	1137.3741	22836.65	21962.95
862.3457	1139.3226	22790.7	21917.7
862.4905	1141.2705	22752.25	21880
862.6354	1143.2176	22622.35	21743.75
862.7803	1145.164	22600.3	21727.5
862.9251	1147.1097	22585.65	21713.1
863.07	1149.0546	22539.4	21665.1
863.2148	1150.9989	22469.7	21595.55
863.3597	1152.9424	22503.1	21630.6
863.5045	1154.8852	22432.9	21559.05
863.6493	1156.8272	22398.55	21526.3
863.7942	1158.7686	22410.5	21531.1
863.939	1160.7092	22312.3	21438.7
864.0838	1162.6491	22224.9	21349.35
864.2286	1164.5883	22191.3	21317.95
864.3734	1166.5267	22170	21295.2
864.5182	1168.4644	22158.95	21283.4
864.663	1170.4014	22116.4	21236.4
864.8078	1172.3377	22185.25	21313.95
864.9526	1174.2732	22170.4	21296.35
865.0974	1176.2081	22201.4	21326.95
865.2421	1178.1421	22258.25	21380.45
865.3869	1180.0755	22378.05	21505
865.5317	1182.0082	22341.65	21469.25
865.6764	1183.9401	22302.1	21425.95
865.8212	1185.8713	22146.8	21274.7
865.9659	1187.8017	22039.8	21166.6
866.1106	1189.7315	21902.75	21032.05
866.2554	1191.6605	21731.4	20859.2
866.4001	1193.5888	21564.4	20689.15
866.5448	1195.5163	21550.5	20677.25
866.6895	1197.4432	21463.15	20587.95
866.8342	1199.3693	21378.55	20505.1
866.9789	1201.2947	21263.95	20387.7
867.1236	1203.2193	21172.1	20295.6
867.2683	1205.1432	21165	20289.75
867.413	1207.0664	21101.45	20226.5
867.5576	1208.9889	21047.05	20168.45
867.7023	1210.9106	20967.5	20093.25
867.847	1212.8316	20882.4	20006
867.9916	1214.7519	20880.35	19996.05
868.1363	1216.6715	20788.2	19912.65
868.2809	1218.5903	20758.05	19883.65
868.4255	1220.5084	20753.7	19876.8
868.5701	1222.4257	20721.5	19845.25
868.7148	1224.3424	20643.05	19770
868.8594	1226.2583	20617.55	19736.45
869.004	1228.1735	20579.6	19705.2
869.1486	1230.0879	20510.75	19634.1
869.2932	1232.0016	20529.05	19654.5
869.4377	1233.9146	20485.2	19608.85
869.5823	1235.8269	20440.15	19564.45
869.7269	1237.7384	20440.7	19564.65
869.8715	1239.6492	20318.25	19443.25
870.016	1241.5592	20337.75	19460.6
870.1606	1243.4686	20276.75	19401.85
870.3051	1245.3772	20325.15	19448.95
870.4496	1247.285	20330.55	19454.45
870.5941	1249.1922	20361.1	19485.2
870.7387	1251.0986	20393.7	19518.65
870.8832	1253.0042	20335.95	19460.75
871.0277	1254.9092	20430.8	19552.05
871.1722	1256.8134	20469.55	19592.9
871.3167	1258.7169	20470.35	19594.1
871.4611	1260.6196	20493.95	19617.4
871.6056	1262.5216	20535.35	19657.45
871.7501	1264.4229	20474.05	19598.35
871.8945	1266.3234	20413.55	19537.25
872.039	1268.2232	20374.5	19496.3
872.1834	1270.1223	20287.3	19408.3
872.3278	1272.0207	20250.85	19374.95
872.4723	1273.9183	20156.05	19274.2
872.6167	1275.8151	20112.45	19237.25
872.7611	1277.7113	20129.85	19251.5
872.9055	1279.6067	20129.5	19252.15
873.0499	1281.5014	20199.05	19320.6
873.1943	1283.3953	20313.4	19436.3
873.3386	1285.2885	20460.75	19584.8
873.483	1287.181	20578.8	19701.05
873.6274	1289.0727	20683.05	19807.2
873.7717	1290.9637	20595.95	19718.3
873.9161	1292.854	20487.15	19610.95
874.0604	1294.7435	20319.3	19440.3
874.2047	1296.6323	20223.3	19348.05
874.349	1298.5204	20091.35	19210.25
874.4933	1300.4077	20009.25	19133.95
874.6376	1302.2943	19937.85	19060.65
874.7819	1304.1802	19919.35	19043.8
874.9262	1306.0653	19800.7	18921.3
875.0705	1307.9497	19769.2	18890.5
875.2147	1309.8333	19735.35	18858.1
875.359	1311.7162	19685.2	18809.85
875.5032	1313.5984	19659.65	18779.3
875.6475	1315.4798	19558.7	18678.9
875.7917	1317.3605	19524.05	18640.25
875.9359	1319.2405	19552.15	18673.7
876.0801	1321.1197	19491.85	18610.75
876.2243	1322.9982	19383.8	18500.6
876.3685	1324.876	19371.9	18495.6
876.5127	1326.753	19237.4	18361.25
876.6569	1328.6293	19158.1	18278.15
876.801	1330.5048	19101.7	18224.15
876.9452	1332.3796	18938.25	18061
877.0893	1334.2537	18940.9	18040.65
877.2335	1336.127	18829.7	17952.45
877.3776	1337.9996	18751.3	17872.7
877.5217	1339.8714	18707.15	17828.6
877.6658	1341.7426	18671.05	17748.25
877.8099	1343.6129	18640.1	17762
877.954	1345.4826	18570.25	17691.5
878.0981	1347.3515	18578.3	17697.4
878.2422	1349.2196	18552.9	17674.15
878.3862	1351.087	18516.7	17636.5
878.5303	1352.9537	18443.4	17564.85
878.6743	1354.8197	18453.05	17573.8
878.8184	1356.6849	18455.55	17578.35
878.9624	1358.5493	18430.6	17552.35
879.1064	1360.4131	18389.5	17511.7
879.2504	1362.276	18363	17484.4
879.3944	1364.1383	18367.3	17487.4
879.5384	1365.9998	18351.3	17466.7
879.6823	1367.8606	18305.8	17428.55
879.8263	1369.7206	18259.8	17381.3
879.9702	1371.5799	18222.35	17343.2
880.1142	1373.4384	18170.65	17293
880.2581	1375.2962	18123	17245.7
880.402	1377.1533	17993.45	17116.55
880.5459	1379.0096	17913.8	17033.65
880.6898	1380.8652	17849.7	16970.8
880.8337	1382.7201	17770.75	16892.45
880.9776	1384.5742	17675.8	16797.55
881.1215	1386.4275	17559.6	16680
881.2653	1388.2802	17490.45	16612.85
881.4092	1390.132	17437.3	16558.4
881.553	1391.9832	17401.9	16521.95
881.6968	1393.8336	17314.1	16435.15
881.8406	1395.6832	17316.3	16435.15
881.9844	1397.5322	17257.5	16378.35
882.1282	1399.3803	17190.45	16308.05
882.272	1401.2278	17083.05	16203.85
882.4158	1403.0745	17041.75	16162.25
882.5595	1404.9204	16956.05	16079.75
882.7033	1406.7656	16929.65	16049.85
882.847	1408.6101	16849.35	15966.95
882.9908	1410.4538	16786	15904.95
883.1345	1412.2968	16765.55	15886.75
883.2782	1414.139	16679	15798.85
883.4219	1415.9805	16675.3	15797.95
883.5656	1417.8213	16618.45	15719.05
883.7092	1419.6613	16579.1	15703.15
883.8529	1421.5006	16568.45	15688.2
883.9965	1423.3391	16531.45	15652.25
884.1402	1425.1769	16491.05	15608.75
884.2838	1427.0139	16580.7	15699.6
884.4274	1428.8502	16626.9	15745.05
884.571	1430.6858	16632.7	15753.75
884.7146	1432.5206	16582.65	15702.9
884.8582	1434.3547	16590.05	15709.15
885.0018	1436.188	16523.9	15644.55
885.1453	1438.0206	16517.35	15637.25
885.2889	1439.8524	16427.3	15546.2
885.4324	1441.6835	16435	15553.55
885.5759	1443.5139	16380.75	15499.8
885.7194	1445.3435	16339.9	15460.45
885.8629	1447.1724	16334.8	15453.75
886.0064	1449.0005	16296.85	15417.85
886.1499	1450.8279	16306.35	15425.6
886.2933	1452.6545	16253.95	15373.55
886.4368	1454.4804	16234.05	15354.5
886.5802	1456.3056	16225.85	15338.1
886.7237	1458.13	16159.9	15281.25
886.8671	1459.9536	16126.1	15245
887.0105	1461.7766	16106.35	15224.9
887.1539	1463.5987	15976.3	15096.75
887.2972	1465.4202	15949.7	15068.4
887.4406	1467.2409	15888.65	15010.7
887.584	1469.0608	15822.5	14943.65
887.7273	1470.88	15778.95	14899.35
887.8706	1472.6984	15713.3	14834.1
888.0139	1474.5161	15628.3	14744.1
888.1572	1476.3331	15576.7	14697.85
888.3005	1478.1493	15565.65	14683.6
888.4438	1479.9648	15568.15	14686.85
888.5871	1481.7795	15487.45	14606.2
888.7303	1483.5935	15503.55	14625.15
888.8736	1485.4067	15445.6	14565.55
889.0168	1487.2192	15441.3	14562.85
889.16	1489.031	15434.5	14553.2
889.3032	1490.842	15381.55	14501.65
889.4464	1492.6522	15364.95	14485.6
889.5896	1494.4618	15355.4	14473.5
889.7327	1496.2705	15307.65	14427.45
889.8759	1498.0785	15262.55	14380.2
890.019	1499.8858	15219.4	14338.6
890.1622	1501.6924	15175	14296.2
890.3053	1503.4981	15137.1	14258.45
890.4484	1505.3032	15111.85	14231.75
890.5914	1507.1075	15103.95	14222.3
890.7345	1508.911	15081.65	14202.35
890.8776	1510.7138	15021.15	14140.05
891.0206	1512.5159	14927.3	14046.5
891.1637	1514.3172	14932.3	14052.7
891.3067	1516.1178	14872.95	13993.8
891.4497	1517.9176	14858.85	13976.85
891.5927	1519.7166	14786.75	13907.95
891.7357	1521.515	14741.75	13856.5
891.8786	1523.3126	14711.5	13829.05
892.0216	1525.1094	14694.95	13814.8
892.1645	1526.9055	14627.1	13747.55
892.3074	1528.7008	14593.6	13711.5
892.4503	1530.4954	14469.45	13586.05
892.5932	1532.2893	14444.3	13564.35
892.7361	1534.0824	14391.35	13507.9
892.879	1535.8747	14377.4	13498.25
893.0218	1537.6663	14305.85	13424
893.1647	1539.4572	14299.7	13419.2
893.3075	1541.2473	14231.45	13350.35
893.4503	1543.0367	14216	13335.4
893.5931	1544.8253	14150.5	13265.85
893.7359	1546.6132	14132.65	13248.6
893.8787	1548.4003	14047.45	13158.5
894.0214	1550.1867	14020.35	13130.4
894.1642	1551.9723	13992.15	13105.75
894.3069	1553.7572	13976.55	13092.4
894.4496	1555.5414	13921.8	13042.5
894.5923	1557.3247	13948.75	13067.25
894.735	1559.1074	13926.55	13048.15
894.8777	1560.8893	13887.6	13006.25
895.0204	1562.6705	13858.95	12980.65
895.163	1564.4509	13880.8	13000.5
895.3056	1566.2305	13835.5	12958.05
895.4482	1568.0094	13845.5	12965.95
895.5908	1569.7876	13815.65	12934.45
895.7334	1571.565	13782.4	12901.45
895.876	1573.3417	13740.4	12860.4
896.0186	1575.1176	13696.8	12816.85
896.1611	1576.8928	13688.1	12807.85
896.3036	1578.6672	13648.1	12768.95
896.4461	1580.4409	13604.8	12725.85
896.5886	1582.2138	13612.35	12728.5
896.7311	1583.986	13590.5	12709.8
896.8736	1585.7575	13620.2	12741.2
897.0161	1587.5282	13617.65	12739.15
897.1585	1589.2981	13621.55	12744.15
897.3009	1591.0673	13589.6	12707.9
897.4433	1592.8358	13574.65	12695.3
897.5857	1594.6035	13543.95	12660.85
897.7281	1596.3704	13455.45	12575.6
897.8705	1598.1366	13393.85	12514.8
898.0128	1599.9021	13354.4	12475.2
898.1551	1601.6668	13268.15	12383.9
898.2975	1603.4308	13218.55	12337.85
898.4398	1605.194	13176.9	12290.5
898.5821	1606.9564	13132.6	12253.6
898.7243	1608.7182	13135.35	12249.5
898.8666	1610.4791	13174.95	12296.45
899.0088	1612.2394	13218.65	12339.5
899.1511	1613.9988	13270.3	12386.7
899.2933	1615.7576	13342.75	12462.35
899.4355	1617.5156	13355.65	12471.5
899.5776	1619.2728	13333.8	12455.5
899.7198	1621.0293	13206.7	12328.5
899.862	1622.785	13085.9	12203.45
900.0041	1624.54	12892.8	12009.6
900.1462	1626.2942	12790.5	11908
900.2883	1628.0477	12589.2	11706.7
900.4304	1629.8005	12511.2	11626.05
900.5725	1631.5525	12432.05	11552.2
900.7145	1633.3037	12319.05	11438.05
900.8566	1635.0542	12284.85	11404.7
900.9986	1636.804	12178.6	11295.7
901.1406	1638.553	12156.45	11189.35
901.2826	1640.3013	12056.75	11178.05
901.4245	1642.0488	12005.2	11122.6
901.5665	1643.7955	11955.25	11077.6
901.7085	1645.5416	11871	10991.5
901.8504	1647.2868	11862.2	10984.35
901.9923	1649.0313	11817.95	10936.55
902.1342	1650.7751	11793.05	10910.2
902.2761	1652.5181	11764	10885.15
902.4179	1654.2604	11704.6	10823.75
902.5598	1656.0019	11668.55	10789.35
902.7016	1657.7427	11637	10757.4
902.8434	1659.4828	11650.5	10771.4
902.9852	1661.222	11676	10794.75
903.127	1662.9606	11616	10736.1
903.2687	1664.6984	11652.6	10771.5
903.4105	1666.4354	11662.85	10781.1
903.5522	1668.1717	11601.65	10721.75
903.6939	1669.9072	11481.45	10602.3
903.8356	1671.642	11448.5	10565.45
903.9773	1673.3761	11369.3	10489.65
904.119	1675.1094	11326.4	10446.5
904.2606	1676.8419	11233.7	10351.75
904.4022	1678.5737	11195.15	10315.2
904.5439	1680.3048	11139.45	10259.7
904.6855	1682.0351	11057.7	10177.75
904.827	1683.7646	11009.8	10126.5
904.9686	1685.4934	10967.25	10088.7
905.1101	1687.2215	10937.15	10055.9
905.2517	1688.9488	10872.8	9993.75
905.3932	1690.6754	10831.6	9951.4
905.5347	1692.4012	10800.2	9919.2
905.6761	1694.1263	10779.85	9901.75
905.8176	1695.8506	10763.2	9882.15
905.9591	1697.5742	10705.15	9824.7
906.1005	1699.297	10658.6	9779
906.2419	1701.0191	10597.15	9715.35
906.3833	1702.7404	10578.2	9697.35
906.5246	1704.461	10502.55	9621.7
906.666	1706.1808	10461.4	9578.95
906.8073	1707.8999	10412.1	9531.05
906.9487	1709.6182	10407.75	9525.55
907.09	1711.3358	10391.95	9512.85
907.2313	1713.0527	10349.6	9471.7
907.3725	1714.7688	10307.15	9419.9
907.5138	1716.4841	10273.15	9392.75
907.655	1718.1987	10273.25	9386.9
907.7962	1719.9126	10211.15	9333.4
907.9374	1721.6257	10183.5	9300.05
908.0786	1723.338	10154.6	9273.7
908.2198	1725.0496	10105.35	9223.7
908.3609	1726.7605	10097.75	9216.8
908.502	1728.4706	10058.9	9175.75
908.6431	1730.18	10022.8	9140.45
908.7842	1731.8886	10011.5	9132.5
908.9253	1733.5964	10022.9	9122.65
909.0664	1735.3036	9984.2	9100.1
909.2074	1737.0099	9966.15	9085.65
909.3484	1738.7156	9930.95	9049.55
909.4894	1740.4204	9893.35	9010.3
909.6304	1742.1246	9881.15	8997.15
909.7714	1743.8279	9892.9	9013.3
909.9123	1745.5306	9864.4	8981.95
910.0532	1747.2325	9826.9	8946.5
910.1941	1748.9336	9818.05	8935
910.335	1750.634	9768.95	8886.6
910.4759	1752.3336	9758.6	8878.55
910.6168	1754.0325	9757.95	8878.75
910.7576	1755.7307	9744.7	8864.3
910.8984	1757.4281	9727.3	8847.05
911.0392	1759.1247	9737.35	8848.85
911.18	1760.8206	9712.9	8827.4
911.3208	1762.5158	9693.15	8809.35
911.4615	1764.2102	9643.3	8762.6
911.6022	1765.9039	9606.85	8726.45
911.7429	1767.5968	9612.95	8733
911.8836	1769.289	9547.5	8667.05
912.0243	1770.9804	9565.15	8682.55
912.1649	1772.6711	9546.45	8666.3
912.3056	1774.361	9512.7	8631.65
912.4462	1776.0502	9511.1	8632.3
912.5868	1777.7386	9504.6	8623.75
912.7274	1779.4263	9459.95	8577.7
912.8679	1781.1132	9453.9	8573.45
913.0084	1782.7994	9406.65	8525.8
913.149	1784.4849	9390.4	8509.7
913.2895	1786.1696	9361.3	8462.1
913.4299	1787.8535	9361.45	8479.6
913.5704	1789.5367	9334.7	8454.75
913.7108	1791.2192	9309.15	8428.65
913.8513	1792.9009	9289.5	8390.05
913.9917	1794.5818	9279.8	8399.25
914.132	1796.2621	9221.35	8342.05
914.2724	1797.9415	9223.6	8343.15
914.4128	1799.6202	9192.15	8312.15
914.5531	1801.2982	9164.8	8282.35
914.6934	1802.9755	9150.85	8270
914.8337	1804.6519	9144.9	8263.8
914.9739	1806.3277	9081.8	8200.7
915.1142	1808.0027	9061.35	8181.65
915.2544	1809.6769	9048.75	8168.65
915.3946	1811.3504	9037.6	8156.15
915.5348	1813.0231	9030.6	8149.3
915.675	1814.6951	8988.55	8107.6
915.8151	1816.3664	8980.8	8096.75
915.9553	1818.0369	8997.95	8116.4
916.0954	1819.7067	8951.4	8073.35
916.2355	1821.3757	8930.15	8049.25
916.3755	1823.044	8923.55	8041.65
916.5156	1824.7115	8888.05	8008.65
916.6556	1826.3783	8857.7	7978.45
916.7956	1828.0443	8823	7944.6
916.9356	1829.7096	8791.1	7908.95
917.0756	1831.3741	8810.2	7926.05
917.2155	1833.0379	8789.15	7909.4
917.3555	1834.701	8767.8	7886.85
917.4954	1836.3633	8761.25	7878.4
917.6353	1838.0248	8720.6	7838.65
917.7751	1839.6856	8717.1	7836.8
917.915	1841.3457	8712.1	7831.1
918.0548	1843.005	8686.6	7806.3
918.1946	1844.6636	8637.2	7757.9
918.3344	1846.3214	8624.9	7744.7
918.4742	1847.9785	8631.25	7750.75
918.6139	1849.6349	8605.2	7723.8
918.7537	1851.2904	8584.4	7694.85
918.8934	1852.9453	8547.4	7666.45
919.0331	1854.5994	8533.2	7652.15
919.1727	1856.2528	8547.1	7663.75
919.3124	1857.9054	8520.55	7640.6
919.452	1859.5572	8497.95	7615.25
919.5916	1861.2083	8496.45	7614.65
919.7312	1862.8587	8471.9	7589.55
919.8708	1864.5084	8464.3	7583.1
920.0103	1866.1572	8435.8	7558.55
920.1498	1867.8054	8398.55	7517.6
920.2893	1869.4528	8392.9	7511.1
920.4288	1871.0994	8386.15	7506.75
920.5683	1872.7453	8343.4	7461.75
920.7077	1874.3905	8338	7452.3
920.8471	1876.0349	8300.05	7419.5
920.9865	1877.6786	8321.4	7438.25
921.1259	1879.3215	8286.3	7406.35
921.2653	1880.9637	8272.5	7389.15
921.4046	1882.6051	8266.4	7386.7
921.5439	1884.2458	8235.2	7350.5
921.6832	1885.8858	8214.85	7333.5
921.8225	1887.525	8195.85	7313.55
921.9617	1889.1634	8149.55	7267.5
922.101	1890.8011	8134.25	7252.85
922.2402	1892.4381	8131.7	7249.45
922.3794	1894.0743	8121.25	7241.4
922.5185	1895.7098	8107	7226.55
922.6577	1897.3446	8088.3	7206.95
922.7968	1898.9786	8071.75	7185.35
922.9359	1900.6118	8028.95	7150.1
923.075	1902.2443	8008.25	7125.5
923.214	1903.8761	8003.55	7123.65
923.3531	1905.5071	7969.35	7088.05
923.4921	1907.1374	7972.3	7091.15
923.6311	1908.7669	7950.6	7069.15
923.77	1910.3957	7932.55	7050.85
923.909	1912.0237	7894.4	7015.9
924.0479	1913.651	7860	6978.55
924.1868	1915.2776	7832.95	6953.7
924.3257	1916.9034	7812.95	6934.45
924.4646	1918.5285	7786	6903.8
924.6034	1920.1528	7759.55	6877.9
924.7422	1921.7764	7745.7	6863.5
924.881	1923.3992	7725.4	6843.25
925.0198	1925.0213	7688.75	6808.7
925.1586	1926.6427	7658.1	6778.45
925.2973	1928.2633	7795.6	6709.5
925.436	1929.8832	7681.85	6797
925.5747	1931.5023	7601.25	6720.6
925.7134	1933.1207	7576.15	6695.7
925.852	1934.7383	7584.8	6703.1
925.9906	1936.3552	7535.2	6653.95
926.1292	1937.9714	7522.85	6642.7
926.2678	1939.5868	7500.8	6617.9
926.4064	1941.2015	7441.35	6559.75
926.5449	1942.8154	7430.9	6548.15
926.6834	1944.4286	7416.3	6535.6
926.8219	1946.041	7398.45	6496
926.9604	1947.6528	7360.1	6475.7
927.0988	1949.2637	7343.95	6465.95
927.2372	1950.8739	7324.75	6440.95
927.3756	1952.4834	7300.35	6419.75
927.514	1954.0921	7292.6	6410.4
927.6523	1955.7001	7276.4	6391.15
927.7907	1957.3074	7254.4	6375.05
927.929	1958.9139	7225.5	6345.5
928.0673	1960.5197	7221.3	6341.3
928.2055	1962.1247	7183.65	6303.2
928.3438	1963.729	7158.6	6279.8
928.482	1965.3325	7162.85	6261.35
928.6202	1966.9353	7133.7	6254
928.7584	1968.5374	7104.9	6221.95
928.8965	1970.1387	7086.2	6204.6
929.0346	1971.7393	7052	6169.25
929.1727	1973.3392	7039.3	6159.7
929.3108	1974.9383	7025.35	6145.45
929.4489	1976.5366	6984.65	6106.6
929.5869	1978.1342	6998.25	6116.4
929.7249	1979.7311	6979.15	6099.2
929.8629	1981.3273	6953.2	6073.5
930.0009	1982.9227	6935.7	6052.85
930.1388	1984.5173	6924.05	6042.6
930.2767	1986.1112	6900.4	6020.95
930.4146	1987.7044	6902.65	6024.8
930.5525	1989.2968	6870.8	5990.85
930.6904	1990.8885	6884.3	6000.5
930.8282	1992.4795	6844.25	5962.1
930.966	1994.0697	6810.75	5929.25
931.1038	1995.6592	6801.55	5920.4
931.2415	1997.2479	6777.2	5897.45
931.3793	1998.8359	6781.75	5902.1
931.517	2000.4232	6718.6	5837.45
931.6547	2002.0097	6733.95	5855.25
931.7923	2003.5955	6695.75	5815.25
931.93	2005.1805	6681.6	5799.1
932.0676	2006.7648	6678.6	5799.65
932.2052	2008.3484	6663	5782.65
932.3427	2009.9312	6666.7	5785.5
932.4803	2011.5133	6642.95	5762.75
932.6178	2013.0946	6616.7	5736.7
932.7553	2014.6752	6621.9	5744.1
932.8928	2016.2551	6611.2	5730.4
933.0302	2017.8342	6570.3	5691.2
933.1676	2019.4126	6549.1	5669.55
933.305	2020.9902	6527.35	5649.7
933.4424	2022.5672	6527.6	5647.1
933.5798	2024.1433	6529.55	5643.9
933.7171	2025.7188	6500.25	5623
933.8544	2027.2935	6475.05	5595.1
933.9917	2028.8674	6463.7	5585.2
934.129	2030.4406	6430.8	5551.8
934.2662	2032.0131	6408.2	5528.6
934.4034	2033.5849	6400.4	5512.5
934.5406	2035.1559	6387.15	5509.75
934.6778	2036.7261	6388.3	5509.25
934.8149	2038.2957	6356.45	5474.3
934.952	2039.8645	6355	5475.5
935.0891	2041.4325	6353.05	5470.95
935.2262	2042.9998	6339.55	5461.4
935.3632	2044.5664	6338.6	5457.25
935.5002	2046.1323	6327.05	5447.2
935.6372	2047.6974	6303	5421.9
935.7742	2049.2617	6266.6	5387.3
935.9111	2050.8254	6285.45	5384.3
936.048	2052.3883	6252.35	5371.5
936.1849	2053.9504	6251.55	5372.4
936.3218	2055.5118	6249.2	5366.35
936.4586	2057.0725	6229.75	5347.8
936.5955	2058.6325	6218.4	5337
936.7323	2060.1917	6210.3	5331.65
936.869	2061.7502	6196.05	5315.55
937.0058	2063.3079	6170.05	5291.1
937.1425	2064.8649	6164.45	5280.6
937.2792	2066.4212	6160.55	5277.25
937.4159	2067.9767	6148	5267.7
937.5525	2069.5315	6106.85	5227.5
937.6891	2071.0856	6079.55	5198.8
937.8257	2072.6389	6069	5186.7
937.9623	2074.1915	6047.75	5169.85
938.0989	2075.7433	6033.9	5150.65
938.2354	2077.2945	6010.6	5133.2
938.3719	2078.8448	5999.6	5120.4
938.5084	2080.3945	5989.7	5109.4
938.6448	2081.9434	5984.25	5106.25
938.7812	2083.4916	5977.85	5097.15
938.9176	2085.039	5963.1	5083.3
939.054	2086.5857	5945.95	5064.1
939.1903	2088.1317	5934.3	5054.15
939.3267	2089.677	5915.55	5037.75
939.463	2091.2215	5903.85	5022.05
939.5992	2092.7652	5895.8	5015.45
939.7355	2094.3083	5877.3	4994.9
939.8717	2095.8506	5873.75	4995.45
940.0079	2097.3921	5872.7	4992.9
940.1441	2098.933	5875	4993.3
940.2802	2100.4731	5858.95	4979.2
940.4163	2102.0124	5858.55	4959.8
940.5524	2103.5511	5844.75	4965.9
940.6885	2105.089	5828	4949.1
940.8245	2106.6261	5818.4	4936.5
940.9606	2108.1626	5809.3	4928.05
941.0965	2109.6983	5806.1	4897.15
941.2325	2111.2332	5775.4	4894.9
941.3684	2112.7675	5792.45	4910.65
941.5044	2114.301	5764.9	4882.4
941.6403	2115.8337	5767	4884.6
941.7761	2117.3657	5761.7	4882.55
941.912	2118.897	5739.3	4858.2
942.0478	2120.4276	5714.7	4830.35
942.1835	2121.9575	5697.5	4817.55
942.3193	2123.4866	5703.7	4820.8
942.455	2125.0149	5694.7	4812.35
942.5907	2126.5426	5640.4	4761.4
942.7264	2128.0695	5651	4766.35
942.8621	2129.5956	5635.55	4756.35
942.9977	2131.1211	5644.45	4758.8
943.1333	2132.6458	5614.75	4734.95
943.2689	2134.1698	5604.2	4722.75
943.4044	2135.693	5578.2	4695.2
943.54	2137.2155	5588.25	4706.15
943.6755	2138.7373	5568.55	4689.4
943.8109	2140.2584	5556	4675.9
943.9464	2141.7787	5541.75	4655.1
944.0818	2143.2983	5510.75	4634.2
944.2172	2144.8171	5499.85	4620.3
944.3526	2146.3353	5492.85	4610.75
944.4879	2147.8527	5473.3	4593.8
944.6232	2149.3693	5480.9	4601.1
944.7585	2150.8853	5471.85	4592.2
944.8938	2152.4005	5443.7	4564.5
945.029	2153.9149	5443.35	4563.6
945.1642	2155.4287	5425	4545.9
945.2994	2156.9417	5426.2	4543.95
945.4346	2158.454	5401.75	4518.95
945.5697	2159.9655	5381.3	4499.5
945.7048	2161.4764	5379.5	4498.05
945.8399	2162.9865	5344.05	4464.4
945.9749	2164.4958	5352.1	4469.2
946.1099	2166.0045	5354.9	4470.05
946.2449	2167.5124	5328.15	4448.25
946.3799	2169.0195	5333.75	4454.1
946.5148	2170.526	5319	4438.7
946.6498	2172.0317	5308.2	4427.8
946.7846	2173.5367	5283.05	4403
946.9195	2175.0409	5257.55	4377.8
947.0543	2176.5445	5263.9	4383.9
947.1891	2178.0473	5243.9	4365.05
947.3239	2179.5494	5228.4	4344.7
947.4587	2181.0507	5206.4	4325.7
947.5934	2182.5513	5197.55	4318
947.7281	2184.0512	5208.25	4328.15
947.8628	2185.5504	5191	4311.8
947.9974	2187.0488	5169.3	4288.75
948.132	2188.5465	5131.75	4252.7
948.2666	2190.0435	5128.75	4248.2
948.4012	2191.5397	5116	4235.75
948.5357	2193.0353	5118.75	4239.65
948.6702	2194.5301	5094.85	4212.05
948.8047	2196.0241	5079.85	4200.6
948.9392	2197.5175	5082.25	4204.25
949.0736	2199.0101	5039.3	4155.55
949.208	2200.502	5034.2	4154.45
949.3424	2201.9931	5012.05	4132.15
949.4767	2203.4835	4997.55	4116.6
949.611	2204.9733	4998.25	4112.55
949.7453	2206.4622	4994.7	4114.65
949.8796	2207.9505	4977.6	4096.25
950.0138	2209.438	4936.15	4058.2
950.148	2210.9248	4927.6	4045.45
950.2822	2212.4109	4920.8	4040.6
950.4164	2213.8962	4915.8	4031.25
950.5505	2215.3809	4881.8	4000.45
950.6846	2216.8648	4889.8	4010.1
950.8186	2218.3479	4876.25	3993.2
950.9527	2219.8304	4871.8	3988.8
951.0867	2221.3121	4847.6	3966.65
951.2207	2222.7931	4837.55	3959.1
951.3546	2224.2733	4809.7	3929.05
951.4886	2225.7529	4800.55	3921
951.6225	2227.2317	4804.05	3921.35
951.7563	2228.7098	4792.1	3912.8
951.8902	2230.1872	4767.25	3887.45
952.024	2231.6638	4759.75	3880.55
952.1578	2233.1397	4752.85	3863.8
952.2916	2234.6149	4730.9	3852.2
952.4253	2236.0894	4692.25	3810.8
952.559	2237.5632	4712.4	3829.55
952.6927	2239.0362	4689.65	3811.15
952.8263	2240.5085	4670.7	3790.7
952.9599	2241.9801	4656.4	3776.4
953.0935	2243.4509	4642.7	3763.05
953.2271	2244.921	4644.25	3764.1
953.3606	2246.3904	4611.7	3729.6
953.4941	2247.8591	4622.35	3742.3
953.6276	2249.3271	4601.7	3723.5
953.7611	2250.7943	4580	3698.75
953.8945	2252.2608	4567.15	3687.8
954.0279	2253.7266	4564.15	3686.05
954.1612	2255.1917	4550.55	3672.25
954.2946	2256.656	4535.3	3652.95
954.4279	2258.1197	4516.55	3635.6
954.5612	2259.5826	4507.65	3625
954.6944	2261.0447	4499.05	3618.15
954.8276	2262.5062	4495.95	3614.55
954.9608	2263.9669	4501.25	3618.7
955.094	2265.4269	4487.75	3608.55
955.2271	2266.8862	4470.25	3590.65
955.3602	2268.3448	4457.65	3579.6
955.4933	2269.8026	4461.85	3580.85
955.6264	2271.2598	4456.95	3578.75
955.7594	2272.7162	4426.25	3547.25
955.8924	2274.1719	4430.65	3551.8
956.0253	2275.6268	4409.5	3530.7
956.1583	2277.0811	4388.35	3507
956.2912	2278.5346	4391.8	3512.2
956.4241	2279.9874	4376.2	3496.95
956.5569	2281.4395	4386.4	3507.95
956.6897	2282.8908	4363.65	3477.4
956.8225	2284.3414	4355.45	3474.8
956.9553	2285.7914	4334.5	3455.9
957.088	2287.2406	4323.95	3442.55
957.2207	2288.689	4320.4	3439.85
957.3534	2290.1368	4317.15	3437.35
957.486	2291.5838	4284.85	3403.45
957.6186	2293.0302	4287.35	3406.25
957.7512	2294.4758	4264.4	3384.05
957.8838	2295.9206	4262.1	3378.95
958.0163	2297.3648	4244.15	3365.5
958.1488	2298.8082	4252.95	3371.4
958.2813	2300.251	4237.15	3358.8
958.4137	2301.693	4232.35	3350.5
958.5461	2303.1343	4205.25	3325.8
958.6785	2304.5748	4191.45	3311.2
958.8108	2306.0147	4177.65	3298.35
958.9432	2307.4538	4199.8	3317.25
959.0754	2308.8922	4158.6	3278.85
959.2077	2310.3299	4160.95	3279.55
959.3399	2311.7669	4148.2	3268.8
959.4721	2313.2031	4129.85	3250.4
959.6043	2314.6387	4109.4	3229.15
959.7365	2316.0735	4114.2	3233.45
959.8686	2317.5076	4099.6	3218
960.0006	2318.941	4096.4	3217
960.1327	2320.3737	4089.85	3211.35
960.2647	2321.8056	4082.7	3200.85
960.3967	2323.2369	4059.5	3178.55
960.5287	2324.6674	4067.25	3184
960.6606	2326.0972	4055.1	3174.05
960.7925	2327.5263	4041.1	3158.95
960.9244	2328.9547	4024.8	3142.65
961.0562	2330.3823	4013.05	3134.4
961.1881	2331.8092	4012.15	3128.5
961.3198	2333.2355	3987.1	3107.95
961.4516	2334.661	3990.05	3106.75
961.5833	2336.0858	3971.05	3088.5
961.715	2337.5098	3966.4	3086.15
961.8467	2338.9332	3962.4	3078.3
961.9783	2340.3558	3939.7	3057.2
962.1099	2341.7778	3937.3	3055.3
962.2415	2343.199	3931.1	3048.3
962.373	2344.6195	3928.55	3049.6
962.5045	2346.0393	3910.8	3031.1
962.636	2347.4583	3901.3	3019.65
962.7675	2348.8767	3891.9	3011.15
962.8989	2350.2943	3885.05	3004.7
963.0303	2351.7113	3874.4	2992.2
963.1617	2353.1275	3853.6	2972.05
963.293	2354.543	3864.7	2978
963.4243	2355.9578	3850	2971.35
963.5556	2357.3718	3826.75	2945.1
963.6868	2358.7852	3815.3	2932.35
963.818	2360.1978	3810.8	2930.7
963.9492	2361.6098	3784.35	2906
964.0803	2363.021	3785.2	2901.8
964.2114	2364.4315	3779.7	2898.75
964.3425	2365.8413	3768.85	2883.25
964.4736	2367.2504	3757.3	2877.2
964.6046	2368.6587	3725.8	2845.6
964.7356	2370.0664	3721.25	2840.25
964.8666	2371.4733	3711.7	2830.8
964.9975	2372.8795	3711	2830.75
965.1284	2374.285	3692.9	2812
965.2593	2375.6899	3689.55	2810.55
965.3901	2377.0939	3664.45	2783
965.5209	2378.4973	3651.55	2770.2
965.6517	2379.9	3654.65	2774.3
965.7825	2381.3019	3650.25	2770.65
965.9132	2382.7032	3633.1	2752.8
966.0439	2384.1037	3632.85	2756.45
966.1745	2385.5035	3610.1	2728.35
966.3051	2386.9027	3599.75	2720.7
966.4357	2388.3011	3605.3	2720.65
966.5663	2389.6987	3601.65	2720.9
966.6968	2391.0957	3587.3	2708.8
966.8273	2392.492	3581.6	2701.3
966.9578	2393.8876	3556.2	2675.1
967.0882	2395.2824	3544.05	2663.7
967.2186	2396.6765	3524.7	2646.55
967.349	2398.07	3502.05	2622.95
967.4793	2399.4627	3508.95	2626.05
967.6097	2400.8547	3502.35	2622.75
967.7399	2402.246	3496.2	2611.1
967.8702	2403.6366	3469.5	2587.5
968.0004	2405.0265	3452.25	2571.45
968.1306	2406.4156	3447.55	2562.65
968.2607	2407.8041	3447.3	2562.9
968.3909	2409.1918	3428.4	2543.85
968.521	2410.5789	3416.75	2535.35
968.651	2411.9652	3406.15	2523.15
968.781	2413.3508	3409.3	2527.85
968.911	2414.7358	3385.2	2504.05
969.041	2416.12	3383.55	2503.55
969.1709	2417.5035	3385.15	2506.15
969.3008	2418.8863	3353.95	2472.5
969.4307	2420.2684	3357.3	2478
969.5606	2421.6497	3328.3	2447.1
969.6904	2423.0304	3317.35	2437.95
969.8201	2424.4104	3316	2436.25
969.9499	2425.7896	3298.25	2415.75
970.0796	2427.1682	3303.45	2423.45
970.2093	2428.546	3288.75	2406.15
970.3389	2429.9232	3294	2412.25
970.4685	2431.2996	3282.45	2403.4
970.5981	2432.6753	3279.65	2399.2
970.7277	2434.0503	3274.15	2393.4
970.8572	2435.4246	3256.6	2376.3
970.9867	2436.7982	3252.8	2368.4
971.1161	2438.1711	3247.15	2365.7
971.2456	2439.5433	3234.05	2352.95
971.375	2440.9148	3221.9	2334.5
971.5043	2442.2856	3219.4	2339.4
971.6336	2443.6557	3212.75	2332.05
971.7629	2445.025	3205.05	2323.55
971.8922	2446.3937	3189.2	2307.45
972.0214	2447.7617	3186.95	2305
972.1506	2449.1289	3171.85	2290.45
972.2798	2450.4955	3173	2288.55
972.4089	2451.8613	3155.9	2276.05
972.538	2453.2265	3143.9	2264.45
972.6671	2454.5909	3147.25	2266.15
972.7961	2455.9546	3144.1	2262.25
972.9251	2457.3177	3122.6	2242.2
973.0541	2458.68	3117	2234.35
973.1831	2460.0416	3127.7	2247.75
973.312	2461.4025	3113.85	2233
973.4408	2462.7627	3106.7	2213.4
973.5697	2464.1222	3092.2	2212.85
973.6985	2465.4811	3097.45	2216.8
973.8273	2466.8392	3068.2	2187.2
973.956	2468.1966	3080.6	2197.7
974.0847	2469.5533	3083.3	2200.35
974.2134	2470.9093	3056.6	2176.55
974.3421	2472.2645	3064.05	2181.8
974.4707	2473.6191	3040.55	2159
974.5993	2474.973	3035.4	2155.25
974.7278	2476.3262	3031	2150.9
974.8563	2477.6787	3018.95	2139.75
974.9848	2479.0305	3013.9	2133.1
975.1132	2480.3816	3010	2129.05
975.2417	2481.7319	3002.7	2122.3
975.37	2483.0816	2988.45	2103.95
975.4984	2484.4306	2989.2	2111.65
975.6267	2485.7789	2970.4	2089.95
975.755	2487.1264	2952.1	2070.6
975.8833	2488.4733	2943.25	2063.75
976.0115	2489.8195	2957.5	2069.25
976.1397	2491.165	2930.55	2047.35
976.2678	2492.5097	2923.85	2041.2
976.3959	2493.8538	2917	2037.4
976.524	2495.1972	2900.45	2020.1
976.6521	2496.5398	2896.7	2015.1
976.7801	2497.8818	2905.55	2023.45
976.9081	2499.2231	2895	2016.75
977.036	2500.5637	2880.9	1999.1
977.164	2501.9035	2863.55	1982.05
977.2918	2503.2427	2864	1978.7
977.4197	2504.5812	2849.7	1970.05
977.5475	2505.919	2861.7	1977.35
977.6753	2507.256	2844.35	1965.45
977.8031	2508.5924	2836.15	1955.85
977.9308	2509.9281	2837.35	1950.6
978.0585	2511.2631	2819.05	1940.65
978.1861	2512.5974	2818.75	1938.8
978.3137	2513.9309	2819	1936.1
978.4413	2515.2638	2819.4	1910.9
978.5689	2516.596	2798.6	1920.5
978.6964	2517.9275	2790	1908.25
978.8239	2519.2583	2781.8	1898.9
978.9513	2520.5884	2761.8	1878.7
979.0788	2521.9178	2756.3	1875.5
979.2062	2523.2465	2751	1872.2
979.3335	2524.5745	2732.6	1852.45
979.4608	2525.9018	2738.4	1857.65
979.5881	2527.2284	2730.7	1851.3
979.7154	2528.5543	2728.5	1849.5
979.8426	2529.8796	2721.1	1840.15
979.9698	2531.2041	2725.1	1844.45
980.0969	2532.5279	2708.95	1829.65
980.224	2533.851	2707.85	1826.35
980.3511	2535.1735	2682.95	1803.4
980.4781	2536.4952	2690.85	1809.25
980.6052	2537.8163	2680.55	1800.3
980.7321	2539.1366	2684.65	1805.65
980.8591	2540.4562	2677.3	1794.6
980.986	2541.7752	2667.75	1789.55
981.1129	2543.0935	2672.2	1791.25
981.2397	2544.411	2664.2	1782.4
981.3665	2545.7279	2657.7	1779.35
981.4933	2547.0441	2655.8	1774.95
981.62	2548.3596	2644.55	1763.6
981.7467	2549.6744	2642.7	1762.35
981.8734	2550.9885	2641.25	1753.35
982.0001	2552.3019	2630.3	1750.6
982.1267	2553.6146	2638.45	1756.85
982.2532	2554.9266	2626.35	1746.85
982.3798	2556.2379	2611.95	1729.5
982.5063	2557.5485	2604.1	1725.35
982.6327	2558.8585	2606.9	1719.6
982.7592	2560.1677	2599.7	1715.35
982.8856	2561.4762	2593.15	1714.05
983.0119	2562.7841	2585.95	1700.8
983.1383	2564.0913	2587.5	1708.55
983.2646	2565.3977	2588.15	1707.9
983.3908	2566.7035	2569.65	1688.5
983.517	2568.0086	2589.25	1708.7
983.6432	2569.313	2569.4	1687.8
983.7694	2570.6167	2577.45	1693.1
983.8955	2571.9197	2554.85	1674.7
984.0216	2573.222	2559.5	1673.75
984.1476	2574.5236	2553.75	1674.1
984.2737	2575.8246	2544.85	1660.9
984.3996	2577.1248	2540.4	1657
984.5256	2578.4244	2546.55	1668.3
984.6515	2579.7232	2530.45	1650.65
984.7774	2581.0214	2555.9	1650.4
984.9032	2582.3189	2528.7	1649.95
985.029	2583.6157	2528.45	1646.1
985.1548	2584.9118	2521.7	1640.75
985.2806	2586.2072	2513.8	1633.85
985.4063	2587.5019	2504.3	1624.9
985.5319	2588.7959	2504.05	1622.6
985.6576	2590.0893	2499.65	1618.25
985.7832	2591.3819	2488.7	1610.35
985.9087	2592.6739	2487.35	1609.65
986.0343	2593.9652	2475.4	1593.3
986.1597	2595.2557	2465.35	1585.1
986.2852	2596.5456	2459.4	1576.45
986.4106	2597.8348	2454.7	1574.9
986.536	2599.1234	2456.05	1575.2
986.6614	2600.4112	2450.6	1571.45
986.7867	2601.6983	2440.1	1556.7
986.912	2602.9848	2424.2	1543.8
987.0372	2604.2705	2421.75	1534.35
987.1624	2605.5556	2417.8	1537.55
987.2876	2606.84	2408.9	1529.15
987.4128	2608.1237	2404.2	1522.1
987.5379	2609.4067	2395.75	1514
987.6629	2610.689	2403.95	1517.1
987.788	2611.9707	2390.1	1505.75
987.913	2613.2516	2385.25	1500.25
988.0379	2614.5319	2365.45	1484.9
988.1629	2615.8115	2348.8	1467.45
988.2878	2617.0903	2352.75	1472.95
988.4126	2618.3685	2346.65	1464.85
988.5375	2619.6461	2348.85	1470.75
988.6622	2620.9229	2352.7	1471.05
988.787	2622.199	2345.35	1464.6
988.9117	2623.4745	2335.1	1454.85
989.0364	2624.7493	2324.65	1445.25
989.161	2626.0234	2317.15	1436.85
989.2857	2627.2968	2310.9	1431.7
989.4102	2628.5695	2307.9	1424.6
989.5348	2629.8415	2288.1	1407.65
989.6593	2631.1128	2291.55	1408.5
989.7837	2632.3835	2268.35	1388.55
989.9082	2633.6535	2273.15	1393.9
990.0326	2634.9228	2272.95	1393.1
990.1569	2636.1914	2263.45	1384.6
990.2812	2637.4593	2255.95	1369.65
990.4055	2638.7265	2262.65	1380.6
990.5298	2639.9931	2239.9	1360.65
990.654	2641.259	2253.25	1370.65
990.7782	2642.5242	2239.9	1357.85
990.9023	2643.7887	2235.4	1354.35
991.0264	2645.0525	2228.7	1345.85
991.1505	2646.3156	2228.2	1347.55
991.2745	2647.5781	2212.95	1335.25
991.3985	2648.8398	2216.2	1336.9
991.5225	2650.1009	2217.15	1328.15
991.6464	2651.3613	2206.85	1326.5
991.7703	2652.6211	2207.15	1326.55
991.8942	2653.8801	2190.75	1312.35
992.018	2655.1385	2194.7	1310.95
992.1418	2656.3961	2185.15	1305.8
992.2655	2657.6531	2190.3	1310.55
992.3892	2658.9094	2174.45	1295.05
992.5129	2660.1651	2172.95	1293.2
992.6366	2661.42	2165.8	1283.5
992.7602	2662.6743	2168.5	1286.1
992.8837	2663.9279	2155.3	1275.75
993.0073	2665.1808	2151.6	1271.3
993.1307	2666.433	2155.1	1273.45
993.2542	2667.6846	2142.85	1262.9
993.3776	2668.9354	2150.45	1268
993.501	2670.1856	2146.2	1266.4
993.6244	2671.4351	2140.5	1259.65
993.7477	2672.6839	2134.85	1253.5
993.8709	2673.9321	2128.8	1248.3
993.9942	2675.1795	2112.3	1232.8
994.1174	2676.4263	2108.65	1227.45
994.2405	2677.6724	2111.8	1232.65
994.3637	2678.9179	2107.85	1228.4
994.4868	2680.1626	2106.65	1226
994.6098	2681.4067	2105.9	1226.15
994.7328	2682.6501	2099.2	1217.25
994.8558	2683.8928	2106.95	1227.35
994.9788	2685.1348	2076.45	1196.75
995.1017	2686.3761	2074.95	1195.1
995.2245	2687.6168	2070.3	1191.1
995.3474	2688.8568	2072.05	1191.1
995.4702	2690.0961	2062.5	1185.15
995.5929	2691.3348	2059.6	1179.95
995.7156	2692.5727	2050.65	1169.9
995.8383	2693.81	2058.3	1177.95
995.961	2695.0466	2049.15	1169.05
996.0836	2696.2826	2043.1	1159.95
996.2062	2697.5178	2045.2	1161.55
996.3287	2698.7524	2040.7	1161.65
996.4512	2699.9863	2031.5	1151.1
996.5737	2701.2195	2027.7	1148.05
996.6961	2702.452	2025.05	1141.95
996.8185	2703.6839	2009.8	1129.75
996.9408	2704.9151	2015.55	1135.4
997.0631	2706.1456	2010.35	1127.4
997.1854	2707.3755	2005.3	1122.4
997.3077	2708.6046	2004.05	1121.45
997.4299	2709.8331	2000.55	1120.55
997.552	2711.0609	1984.85	1102.9
997.6742	2712.2881	1984.65	1107.35
997.7963	2713.5145	1986.15	1103.85
997.9183	2714.7403	1980.6	1101.6
998.0403	2715.9654	1967.25	1086.15
998.1623	2717.1899	1982.15	1087.95
998.2842	2718.4136	1976.1	1094.8
998.4062	2719.6367	1961.7	1081.55
998.528	2720.8591	1965.25	1077.85
998.6498	2722.0809	1963.4	1084.35
998.7716	2723.3019	1964.1	1078.95
998.8934	2724.5223	1935.55	1052.85
999.0151	2725.7421	1937	1054.2
999.1368	2726.9611	1941.3	1057.45
999.2584	2728.1795	1932	1048.6
999.38	2729.3972	1920.4	1039.8
999.5016	2730.6142	1924.85	1029.5
999.6231	2731.8306	1910.65	1029.85
999.7446	2733.0462	1911.3	1030.2
999.8661	2734.2612	1906.9	1022.2
999.9875	2735.4756	1900.2	1018.3
1000.1089	2736.6892	1894.65	1012.65
1000.2302	2737.9022	1886.05	1006.15
1000.3515	2739.1145	1874.75	994.1
1000.4728	2740.3262	1889.1	1001.6
1000.594	2741.5372	1875.45	996.6
1000.7152	2742.7475	1858.7	977.6
1000.8363	2743.9571	1868.8	985.5
1000.9575	2745.1661	1863.05	979.05
1001.0785	2746.3744	1861.8	980.2
1001.1996	2747.582	1854.25	974.35
1001.3206	2748.7889	1858	974.8
1001.4415	2749.9952	1855.65	975.7
1001.5625	2751.2008	1837.6	955.55
1001.6833	2752.4057	1850.85	968.65
1001.8042	2753.61	1834.4	952.4
1001.925	2754.8136	1829.2	947.1
1002.0458	2756.0165	1830.35	951.05
1002.1665	2757.2188	1816.2	935
1002.2872	2758.4204	1819.95	939.85
1002.4078	2759.6213	1807.7	925.15
1002.5285	2760.8215	1814.7	931.3
1002.649	2762.0211	1802.15	920.6
1002.7696	2763.22	1805.5	921.35
1002.8901	2764.4182	1796.95	915.65
1003.0106	2765.6158	1796.05	915.85
1003.131	2766.8127	1786.75	906.3
1003.2514	2768.009	1787.45	907.1
1003.3717	2769.2045	1785.75	904.15
1003.492	2770.3994	1787.85	906.7
1003.6123	2771.5936	1790.5	907.8
1003.7325	2772.7872	1769.9	889.5
1003.8527	2773.9801	1763.5	882
1003.9729	2775.1723	1782.1	887.2
1004.093	2776.3639	1762.15	882.3
1004.2131	2777.5548	1753.7	871.5
1004.3331	2778.745	1752.8	869.05
1004.4531	2779.9346	1752.55	871.85
1004.5731	2781.1235	1750.5	868.85
1004.693	2782.3117	1743.35	864.15
1004.8129	2783.4992	1737.2	858.2
1004.9328	2784.6861	1734.1	853.25
1005.0526	2785.8723	1739.05	857.5
1005.1723	2787.0579	1725.1	844.5
1005.2921	2788.2428	1723.1	842.35
1005.4118	2789.427	1724.2	843.45
1005.5314	2790.6106	1715.35	834.05
1005.651	2791.7935	1715.1	834.7
1005.7706	2792.9757	1711.9	831.85
1005.8902	2794.1573	1708.2	825.8
1006.0097	2795.3382	1703.75	824.85
1006.1291	2796.5184	1695.05	818.15
1006.2485	2797.698	1688.9	805.8
1006.3679	2798.8769	1694	813.65
1006.4873	2800.0551	1698.55	817.95
1006.6066	2801.2327	1682.85	798.8
1006.7258	2802.4096	1675.8	794.3
1006.8451	2803.5859	1674.3	793.95
1006.9642	2804.7615	1677.2	797.25
1007.0834	2805.9364	1669.75	790.3
1007.2025	2807.1106	1665.25	784.8
1007.3216	2808.2842	1671.95	791.7
1007.4406	2809.4572	1664.1	783.4
1007.5596	2810.6294	1656.35	775.25
1007.6785	2811.801	1663.7	784.9
1007.7975	2812.972	1663.9	786.35
1007.9163	2814.1423	1657.4	775.85
1008.0352	2815.3119	1655.55	773.6
1008.154	2816.4808	1659.7	781.65
1008.2727	2817.6491	1659.85	769.3
1008.3914	2818.8167	1661.9	784.05
1008.5101	2819.9837	1655.75	770.65
1008.6288	2821.15	1655.95	777.5
1008.7474	2822.3157	1658.55	777.75
1008.8659	2823.4807	1668.55	788.9
1008.9844	2824.645	1671.65	789.7
1009.1029	2825.8086	1675.6	797.4
1009.2214	2826.9716	1679.95	800.9
1009.3398	2828.134	1699.7	818.8
1009.4581	2829.2957	1699.5	819.7
1009.5764	2830.4567	1695.55	815.15
1009.6947	2831.617	1695.85	814.4
1009.813	2832.7767	1704.05	825.8
1009.9312	2833.9358	1695.8	816.65
1010.0493	2835.0941	1706	822.7
1010.1675	2836.2519	1690.9	809.3
1010.2855	2837.4089	1684.9	805.1
1010.4036	2838.5653	1683.6	802.7
1010.5216	2839.7211	1668.5	789.6
1010.6396	2840.8761	1672.55	791.2
1010.7575	2842.0306	1662.35	783.15
1010.8754	2843.1843	1664.7	784.95
1010.9932	2844.3374	1659.85	779.8
1011.111	2845.4899	1660.95	780.35
1011.2288	2846.6417	1666.3	787.55
1011.3465	2847.7928	1667.45	789.85
1011.4642	2848.9433	1660.15	781.85
1011.5818	2850.0931	1654.85	775.4
1011.6995	2851.2422	1659.5	778.75
1011.817	2852.3907	1665.1	784.85
1011.9345	2853.5385	1658.55	777.05
1012.052	2854.6857	1662.8	773.55
1012.1695	2855.8323	1655	779.25
1012.2869	2856.9781	1650.55	769.2
1012.4042	2858.1233	1651.65	773.35
1012.5216	2859.2679	1647.05	766.1
1012.6389	2860.4118	1662.6	782.25
1012.7561	2861.555	1664.15	778.65
1012.8733	2862.6976	1660.05	778.5
1012.9905	2863.8395	1647.5	767.6
1013.1076	2864.9808	1661.7	781.55
1013.2247	2866.1214	1650	772.4
1013.3417	2867.2614	1656.4	775.65
1013.4587	2868.4007	1658.45	775.6
1013.5757	2869.5393	1647.2	764.5
1013.6926	2870.6773	1646.2	764.5
1013.8095	2871.8146	1646.85	764.5
1013.9263	2872.9513	1655.95	773.75
1014.0431	2874.0874	1646.4	766.9
1014.1599	2875.2227	1649.6	769.1
1014.2766	2876.3574	1646.55	766.9
1014.3933	2877.4915	1639.1	760.2
1014.51	2878.6249	1641.4	762.6
1014.6266	2879.7577	1644.75	762.6
1014.7431	2880.8898	1654.1	764.45
1014.8596	2882.0212	1645.6	766.95
1014.9761	2883.152	1651.2	770.9
1015.0925	2884.2821	1634.3	754.3
1015.2089	2885.4116	1635.85	756.95
1015.3253	2886.5405	1636.95	757.7
1015.4416	2887.6686	1648.6	765.35
1015.5579	2888.7962	1643.95	765.55
1015.6741	2889.923	1634	753.85
1015.7903	2891.0493	1630.15	753.15
1015.9065	2892.1748	1625.65	745.6
1016.0226	2893.2997	1625.3	746.8
1016.1387	2894.424	1621.9	743.25
1016.2547	2895.5476	1618.65	739.5
1016.3707	2896.6706	1610.65	732.1
1016.4866	2897.7929	1612.55	731.75
1016.6025	2898.9145	1613.9	734.5
1016.7184	2900.0355	1603.45	723
1016.8342	2901.1559	1599.9	719.6
1016.95	2902.2756	1601.5	723.2
1017.0658	2903.3946	1598.7	718.65
1017.1815	2904.513	1600.1	717.85
1017.2971	2905.6308	1593.2	713.95
1017.4127	2906.7479	1594.75	713.2
1017.5283	2907.8643	1594.05	712.8
1017.6439	2908.9801	1589.05	707.8
1017.7594	2910.0953	1577.2	697.55
1017.8748	2911.2098	1588.3	705.2
1017.9902	2912.3236	1583.55	696.4
1018.1056	2913.4368	1570.3	689.35
1018.2209	2914.5494	1573.9	693.75
1018.3362	2915.6613	1571.7	686.15
1018.4515	2916.7725	1569.75	689.05
1018.5667	2917.8831	1564.2	683.35
1018.6819	2918.9931	1563.6	680.1
1018.797	2920.1024	1548.45	666.2
1018.9121	2921.211	1546.1	665.4
1019.0271	2922.319	1542.55	661.85
1019.1421	2923.4264	1533.9	653.8
1019.2571	2924.5331	1530.7	651.3
1019.372	2925.6391	1527.8	646.85
1019.4869	2926.7445	1528.85	650.3
1019.6017	2927.8493	1528.95	647.55
1019.7165	2928.9534	1533.15	652.1
1019.8313	2930.0569	1522.95	640.75
1019.946	2931.1597	1530.2	650.1
1020.0606	2932.2619	1529.2	647.55
1020.1753	2933.3634	1532.2	652.85
1020.2899	2934.4643	1530.25	643.25
1020.4044	2935.5645	1530.9	647.5
1020.5189	2936.6641	1526.1	642.75
1020.6334	2937.763	1523.05	642.3
1020.7478	2938.8613	1515	633.9
1020.8622	2939.959	1522.25	637.6
1020.9765	2941.056	1512.35	632.85
1021.0908	2942.1523	1500.9	619.2
1021.2051	2943.248	1488.95	607.15
1021.3193	2944.3431	1479.6	600.5
1021.4334	2945.4375	1467	586.15
1021.5476	2946.5313	1455.45	576.4
1021.6617	2947.6244	1452.15	573.3
1021.7757	2948.7169	1436.1	555.15
1021.8897	2949.8087	1433.35	552.65
1022.0037	2950.8999	1431.75	551.25
1022.1176	2951.9904	1417.35	538.05
1022.2315	2953.0803	1410	529.3
1022.3453	2954.1696	1398.85	519.1
1022.4591	2955.2582	1395.25	516.55
1022.5728	2956.3462	1387.05	507.3
1022.6865	2957.4335	1387.85	506.85
1022.8002	2958.5202	1386.65	505.2
1022.9138	2959.6062	1382	501
1023.0274	2960.6916	1381.5	502.45
1023.141	2961.7764	1382.1	499.85
1023.2545	2962.8605	1379.15	499.65
1023.3679	2963.9439	1373.6	493.2
1023.4813	2965.0267	1367.15	484.7
1023.5947	2966.1089	1398.95	497.5
1023.708	2967.1905	1369	489.45
1023.8213	2968.2714	1364.5	486.7
1023.9346	2969.3516	1362.35	480.6
1024.0478	2970.4312	1366.75	479.55
1024.1609	2971.5102	1365.3	485
1024.274	2972.5885	1352.65	473.6
1024.3871	2973.6662	1357.3	471.35
1024.5002	2974.7432	1356.8	478.5
1024.6132	2975.8196	1347.2	467.8
1024.7261	2976.8954	1344.25	464.15
1024.839	2977.9705	1346.55	466.45
1024.9519	2979.045	1344.5	464.8
1025.0647	2980.1188	1341	462.55
1025.1775	2981.192	1340.3	460.55
1025.2902	2982.2645	1346.85	466.95
1025.4029	2983.3364	1337.9	456.9
1025.5156	2984.4077	1329.4	449.8
1025.6282	2985.4783	1330.05	443.25
1025.7407	2986.5483	1330.15	451.3
1025.8532	2987.6177	1317.95	436.85
1025.9657	2988.6864	1317.1	437.2
1026.0782	2989.7545	1314.75	433.15
1026.1906	2990.8219	1304.65	425.7
1026.3029	2991.8887	1306.35	422.85
1026.4152	2992.9548	1303.15	423.75
1026.5275	2994.0204	1294.5	417.15
1026.6397	2995.0852	1291.05	415
1026.7519	2996.1495	1285.3	404.95
1026.864	2997.2131	1285.95	408.2
1026.9761	2998.276	1277.55	395.9
1027.0882	2999.3383	1275.55	396
1027.2002	3000.4	1271.75	391
1027.3122	3001.4611	1271.25	390.9
1027.4241	3002.5215	1267.25	387
1027.536	3003.5812	1263	381.6
1027.6478	3004.6404	1254.35	375.55
1027.7596	3005.6989	1260.95	379.45
1027.8714	3006.7567	1255.7	376
1027.9831	3007.8139	1274.4	372.05
1028.0947	3008.8705	1246.3	367.05
1028.2064	3009.9264	1249.95	366.9
1028.3179	3010.9818	1248.6	367.6
1028.4295	3012.0364	1240.4	359.4
1028.541	3013.0905	1243.5	363
1028.6524	3014.1439	1241.45	360.45
1028.7638	3015.1966	1235.75	358.7
1028.8752	3016.2487	1234.35	353.95
1028.9865	3017.3002	1240.1	353.2
1029.0978	3018.3511	1228.35	350.9
1029.209	3019.4013	1229.45	349.9
1029.3202	3020.4509	1231.2	354.15
1029.4314	3021.4998	1229.9	349.15
1029.5425	3022.5481	1229.25	348
1029.6535	3023.5958	1230.25	350.9
1029.7645	3024.6428	1226.4	346.7
1029.8755	3025.6892	1218.95	340.7
1029.9864	3026.735	1223.75	343.8
1030.0973	3027.7802	1221.8	343.95
1030.2082	3028.8247	1220.95	340.35
1030.319	3029.8685	1215.85	334.9
1030.4297	3030.9118	1218.9	337.9
1030.5404	3031.9544	1214	336.05
1030.6511	3032.9963	1210.45	330.95
1030.7617	3034.0376	1211.3	331.8
1030.8723	3035.0783	1212.75	329.65
1030.9829	3036.1184	1213.1	332.6
1031.0934	3037.1578	1198.55	318.5
1031.2038	3038.1966	1207.6	327.45
1031.3142	3039.2348	1207.85	328.7
1031.4246	3040.2723	1203.5	314
1031.5349	3041.3092	1200.9	322.3
1031.6452	3042.3455	1198.15	318.6
1031.7554	3043.3811	1193.15	312.35
1031.8656	3044.4161	1198.5	318.25
1031.9758	3045.4505	1196.75	318.05
1032.0859	3046.4842	1197.35	317.5
1032.1959	3047.5173	1191.25	311.35
1032.3059	3048.5498	1191.1	311.45
1032.4159	3049.5816	1194.85	315.45
1032.5258	3050.6128	1196.6	315.85
1032.6357	3051.6434	1188.35	306.2
1032.7455	3052.6734	1190.95	308.85
1032.8553	3053.7027	1182.65	302.4
1032.9651	3054.7314	1186.05	307.9
1033.0748	3055.7594	1186.25	307.9
1033.1845	3056.7868	1182.65	303.55
1033.2941	3057.8136	1182.05	302.25
1033.4037	3058.8398	1180.65	301.1
1033.5132	3059.8653	1182.65	303.85
1033.6227	3060.8902	1182.8	302.45
1033.7321	3061.9145	1181.45	304.8
1033.8415	3062.9381	1179.4	300.25
1033.9509	3063.9612	1191.85	294.9
1034.0602	3064.9835	1174.65	295.6
1034.1694	3066.0053	1182.25	300.7
1034.2787	3067.0264	1171.15	292.5
1034.3878	3068.0469	1173	292.4
1034.497	3069.0668	1179.35	296.9
1034.6061	3070.086	1169.8	290.15
1034.7151	3071.1046	1167.95	288.15
1034.8241	3072.1226	1175.9	294.8
1034.9331	3073.1399	1160.45	281.85
1035.042	3074.1567	1166.2	283.75
1035.1508	3075.1727	1170.35	286.6
1035.2597	3076.1882	1161.2	281.3
1035.3684	3077.203	1159	279.6
1035.4772	3078.2173	1161.45	279.6
1035.5859	3079.2308	1159.35	275.95
1035.6945	3080.2438	1155.35	272.85
1035.8031	3081.2561	1154.15	274.9
1035.9117	3082.2678	1149.95	269.4
1036.0202	3083.2789	1148.6	269.15
1036.1286	3084.2893	1146.15	267.7
1036.2371	3085.2991	1148.65	269.4
1036.3454	3086.3083	1147.95	263.6
1036.4538	3087.3169	1147.95	267.7
1036.562	3088.3248	1148.15	268.35
1036.6703	3089.3321	1147.6	266.1
1036.7785	3090.3388	1142.1	265.35
1036.8866	3091.3449	1137.05	254.2
1036.9948	3092.3503	1134.85	253.3
1037.1028	3093.3551	1135.25	255.2
1037.2108	3094.3593	1133.4	256.05
1037.3188	3095.3629	1133.85	255.15
1037.4267	3096.3658	1134.7	252.65
1037.5346	3097.3681	1132.4	253.55
1037.6425	3098.3698	1131.75	249.8
1037.7503	3099.3708	1139.4	254.1
1037.858	3100.3713	1130.65	252.65
1037.9657	3101.3711	1123.95	244.35
1038.0734	3102.3702	1260.05	244.15
1038.181	3103.3688	1126.55	244.55
1038.2886	3104.3667	1121.2	240.7
1038.3961	3105.364	1119.05	240.05
1038.5036	3106.3607	1120.05	239.6
1038.611	3107.3568	1115.45	234.95
1038.7184	3108.3522	1113.5	235.9
1038.8257	3109.347	1117.25	236
1038.933	3110.3412	1115.15	231.75
1039.0403	3111.3348	1115.45	235.45
1039.1475	3112.3277	1112	232.25
1039.2547	3113.32	1108.05	229.1
1039.3618	3114.3117	1105.35	226.4
1039.4689	3115.3028	1103.55	223.5
1039.5759	3116.2932	1103.9	222.5
1039.6829	3117.2831	1109.3	222.9
1039.7898	3118.2723	1098.15	219.8
1039.8967	3119.2608	1094	214.2
1040.0035	3120.2488	1104.9	224.7
1040.1103	3121.2361	1098.1	219.2
1040.2171	3122.2229	1096.8	218.35
1040.3238	3123.209	1091.6	212.4
1040.4305	3124.1944	1090.7	211.8
1040.5371	3125.1793	1095.4	214.05
1040.6437	3126.1635	1092.1	213.65
1040.7502	3127.1471	1093.1	214.7
1040.8567	3128.1301	1090.7	212.3
1040.9631	3129.1125	1086.25	208.2
1041.0695	3130.0942	1084	203.35
1041.1759	3131.0753	1095.35	207.65
1041.2822	3132.0558	1085.25	202.45
1041.3884	3133.0357	1086.65	205.25
1041.4946	3134.015	1086.85	206.05
1041.6008	3134.9936	1083.05	199.1
1041.7069	3135.9716	1104.15	206.2
1041.813	3136.949	1081.1	203.65
1041.919	3137.9258	1082.4	197.1
1042.025	3138.902	1083.05	200.85
1042.1309	3139.8775	1073.85	194.4
1042.2368	3140.8524	1076.75	196.45
1042.3427	3141.8267	1079.75	197.75
1042.4485	3142.8004	1072.5	192.2
1042.5542	3143.7735	1081.7	198.25
1042.6599	3144.7459	1075.45	193
1042.7656	3145.7178	1070.65	190
1042.8712	3146.689	1066.15	187.95
1042.9768	3147.6596	1071.75	191.25
1043.0823	3148.6295	1072.25	191.2
1043.1878	3149.5989	1068.3	189.65
1043.2932	3150.5676	1065.85	186.7
1043.3986	3151.5357	1063.8	185.75
1043.5039	3152.5032	1062.45	183.7
1043.6092	3153.4701	1064.25	185.9
1043.7145	3154.4364	1062.3	176.75
1043.8197	3155.402	1057.15	179.9
1043.9248	3156.367	1067.3	186.15
1044.03	3157.3315	1105.4	189.4
1044.135	3158.2952	1062.1	182.2
1044.24	3159.2584	1061.6	181.35
1044.345	3160.221	1054.65	175.45
1044.4499	3161.1829	1058.05	178.2
1044.5548	3162.1442	1053.7	175
1044.6596	3163.105	1055.45	177.2
1044.7644	3164.065	1055.75	176.25
1044.8692	3165.0245	1055.4	175.8
1044.9739	3165.9834	1050.05	170.45
1045.0785	3166.9416	1049.15	170.2
1045.1831	3167.8993	1053.45	172.3
1045.2877	3168.8563	1052.35	172.25
1045.3922	3169.8127	1044.3	164.2
1045.4966	3170.7684	1047.45	168.5
1045.6011	3171.7236	1048.35	166.95
1045.7054	3172.6782	1048.15	169.25
1045.8098	3173.6321	1045.55	164.05
1045.914	3174.5854	1050.35	167.05
1046.0183	3175.5381	1045.45	166.6
1046.1224	3176.4902	1044.05	165.25
1046.2266	3177.4417	1038.2	159.15
1046.3307	3178.3926	1039.85	159.4
1046.4347	3179.3428	1036.55	159
1046.5387	3180.2924	1033.9	156
1046.6427	3181.2415	1035.2	155.3
1046.7466	3182.1899	1038	156.35
1046.8504	3183.1377	1034.25	155.3
1046.9542	3184.0848	1039.75	157.65
1047.058	3185.0314	1035	154.75
1047.1617	3185.9773	1034.6	152.45
1047.2654	3186.9227	1031.1	150.35
1047.369	3187.8674	1031.55	153.35
1047.4726	3188.8115	1036.6	152.15
1047.5761	3189.755	1031.4	152.4
1047.6796	3190.6979	1031.55	151.65
1047.783	3191.6402	1028.7	151.9
1047.8864	3192.5818	1029.9	150.65
1047.9898	3193.5229	1033.2	146.5
1048.0931	3194.4633	1026.45	148.3
1048.1963	3195.4031	1025.4	143.2
1048.2995	3196.3423	1024.25	144.5
1048.4027	3197.2809	1022.85	143.15
1048.5058	3198.2189	1023.3	143.8
1048.6089	3199.1563	1029	145
1048.7119	3200.0931	1018.4	138.5
1048.8148	3201.0292	1020.65	142.65
1048.9178	3201.9648	1020.4	140.85
1049.0206	3202.8997	1025.1	141.75
1049.1235	3203.834	1018.05	137.75
1049.2262	3204.7677	1015.6	137.3
1049.329	3205.7008	1020.45	136.9
1049.4317	3206.6333	1015.05	137
1049.5343	3207.5652	1019.8	136.9
1049.6369	3208.4964	1017.6	138.05
1049.7394	3209.4271	1016	139
1049.8419	3210.3571	1015.65	136.05
1049.9444	3211.2865	1013.5	133.95
1050.0468	3212.2154	1013.15	132.5
1050.1491	3213.1436	1014.9	134.15
1050.2514	3214.0712	1014.6	129.35
1050.3537	3214.9982	1008.3	129.55
1050.4559	3215.9246	1009.25	129.9
1050.5581	3216.8503	1005.4	124.35
1050.6602	3217.7755	1009.15	131.3
1050.7623	3218.7001	1007.6	128.4
1050.8643	3219.624	1008.35	128.5
1050.9663	3220.5473	1007.15	125.7
1051.0682	3221.4701	1006.85	125.8
1051.1701	3222.3922	1010	131.25
1051.2719	3223.3137	1005.25	125
1051.3737	3224.2346	999.85	120.6
1051.4754	3225.1549	1006.85	128.05
1051.5771	3226.0746	999.95	121.1
1051.6788	3226.9937	1000.05	122.65
1051.7804	3227.9121	1000.15	120.6
1051.8819	3228.83	999.35	119.5
1051.9834	3229.7473	996.75	117
1052.0849	3230.6639	998.55	117.65
1052.1863	3231.5799	997.5	119.35
1052.2876	3232.4954	1001.05	122.8
1052.3889	3233.4102	996.6	117.55
1052.4902	3234.3244	995.15	114.35
1052.5914	3235.238	994.9	116.9
1052.6926	3236.151	1018.4	115.25
1052.7937	3237.0634	996.2	118.1
1052.8948	3237.9752	994	112.5
1052.9958	3238.8864	996.2	115.35
1053.0968	3239.797	993.5	113.8
1053.1977	3240.7069	988.95	107.05
1053.2986	3241.6163	992.3	111.6
1053.3994	3242.5251	991.5	112.15
1053.5002	3243.4332	987.5	109.3
1053.6009	3244.3408	986.9	105.9
1053.7016	3245.2477	988.4	110.55
1053.8022	3246.154	990.7	111.05
1053.9028	3247.0598	989.3	108.65
1054.0034	3247.9649	987.3	106.75
1054.1039	3248.8694	985	106.75
1054.2043	3249.7733	986.15	105.6
1054.3047	3250.6766	981.95	102.75
1054.4051	3251.5793	984.15	102.8
1054.5054	3252.4814	980.15	100.6
1054.6056	3253.3829	981.55	101.6
1054.7058	3254.2838	980.5	101
1054.806	3255.1841	978.95	101.5
1054.9061	3256.0838	981.75	100.45
1055.0061	3256.9829	978.9	100.4
1055.1062	3257.8814	978.5	97.1
1055.2061	3258.7792	981.5	99.15
1055.306	3259.6765	977.35	97.85
1055.4059	3260.5731	976.75	97.3
1055.5057	3261.4692	972.4	93.85
1055.6055	3262.3647	974.1	94.55
1055.7052	3263.2595	968.1	89.3
1055.8049	3264.1538	969.25	89.25
1055.9045	3265.0474	969.8	88.75
1056.0041	3265.9404	967.35	86.55
1056.1036	3266.8329	966.45	89.75
1056.2031	3267.7247	974.05	83.8
1056.3025	3268.616	959.05	82.45
1056.4019	3269.5066	963.65	83.65
1056.5013	3270.3966	961.5	80.3
1056.6005	3271.286	954.7	75.7
