Software Version:	3.9.2.0
Unit SN:	10000200
Spectrometer SN:	6960
Date:	3/6/2024 9:32:33 AM
Data Line Index:	25
Spectral Points:	2048
Integration time (ms):	125
Averages:	20
Delay (ms):	30
Sequence Number:	1
Processing:	dark subtract
Laser Power (mW):	300
Laser Current (mA):	824
Laser Diode Temp (C):	25.1
Laser Case Temp (C):	23.6
System Temp (C):	23.4
Spectrometer Temp (C):	21.1
CCD Temp (C):	-0.021
Secondary Temp (C):	20.004
Heatsink Temp (C):	17.713
CCDPCB Temp (C):	30.049
SecondaryPCB Temp (C):	25.38

Wavelength	RamanShift	Raw Counts	Dark Subtracted
787.061	30.1047	528.65	122.6
787.2016	32.3739	531.9	125.9
787.3422	34.6426	539.3	133.5
787.4828	36.9109	551.4	142.5
787.6235	39.1787	560.7	149.2
787.7642	41.4461	573.8	155.35
787.9049	43.7131	592.4	171.85
788.0456	45.9796	601	177.4
788.1863	48.2456	616.05	188.85
788.3271	50.5112	629.95	199.8
788.4679	52.7764	644.55	210.55
788.6087	55.0411	662.4	225.45
788.7496	57.3054	678.15	235.25
788.8904	59.5692	690.85	247.1
789.0313	61.8326	712.45	267.3
789.1722	64.0955	733.6	285.9
789.3132	66.3579	758.5	303.75
789.4541	68.6199	791.15	332.65
789.5951	70.8815	847.65	385.5
789.7361	73.1426	970	502.35
789.8771	75.4032	1269.85	801.35
790.0181	77.6634	2041.15	1568.2
790.1592	79.9231	3869.45	3394.2
790.3003	82.1824	7861.55	7381.35
790.4414	84.4412	14937.5	14447.25
790.5825	86.6995	24478.45	23980.7
790.7237	88.9574	33577.7	33069
790.8648	91.2148	40120.9	39609.8
791.006	93.4717	43350.9	42833.75
791.1472	95.7282	44783.25	44265.2
791.2885	97.9842	45403.85	44882.55
791.4297	100.2398	45816.25	45292.8
791.571	102.4949	45520.55	44995.8
791.7123	104.7495	46003.15	45469.95
791.8536	107.0036	45665.2	45132.85
791.9949	109.2573	46361.9	45829.8
792.1363	111.5105	45715.35	45180.5
792.2777	113.7632	46276.7	45741.65
792.4191	116.0154	46332	45785.45
792.5605	118.2672	46714.05	46174.5
792.7019	120.5185	46675.75	46133.85
792.8434	122.7693	46731.25	46183.05
792.9849	125.0197	46548.25	45996.75
793.1264	127.2696	47202.25	46647.95
793.2679	129.519	47363.15	46805.15
793.4094	131.7679	47769.4	47209.5
793.551	134.0163	46628.2	46068.35
793.6926	136.2642	47228.9	46663.8
793.8342	138.5117	47988.65	47420.75
793.9758	140.7587	47742.8	47174.75
794.1175	143.0052	47892.2	47321.2
794.2591	145.2512	47356.1	46784.75
794.4008	147.4967	48080.3	47506.1
794.5425	149.7417	47800.2	47222.6
794.6842	151.9863	47954.2	47373.45
794.826	154.2304	47267.45	46684.35
794.9677	156.4739	47898.15	47305.95
795.1095	158.717	48198.5	47608.45
795.2513	160.9596	48074.85	47477.9
795.3931	163.2017	47540.15	46942.8
795.535	165.4433	48275.45	47677
795.6768	167.6844	47943.4	47341.95
795.8187	169.925	48318.7	47711.4
795.9606	172.1651	48176.5	47568.65
796.1025	174.4047	47977.45	47362.85
796.2445	176.6439	48256	47640.9
796.3864	178.8825	48329.75	47712.6
796.5284	181.1206	48529.75	47910.1
796.6704	183.3582	48598.65	47977.15
796.8124	185.5954	48106.85	47483.5
796.9544	187.832	48463.65	47834.35
797.0965	190.0681	48240.05	47606.65
797.2386	192.3037	48898.95	48263
797.3806	194.5388	49530.55	48890.9
797.5228	196.7734	48198.95	47560.65
797.6649	199.0075	49284.7	48645.25
797.807	201.2411	49120.35	48478.8
797.9492	203.4742	49730.5	49086.35
798.0914	205.7068	49765.15	49118.6
798.2336	207.9389	49743.75	49097.6
798.3758	210.1704	49604.25	48963.85
798.518	212.4015	50267.9	49634.25
798.6603	214.632	49379.1	48752.45
798.8025	216.862	50214	49586
798.9448	219.0915	50261.25	49633.35
799.0871	221.3205	49871.2	49237.75
799.2294	223.549	50469	49840.75
799.3718	225.777	50509.4	49882.25
799.5141	228.0044	50563.3	49928.7
799.6565	230.2314	50584.4	49945.2
799.7989	232.4578	50527.7	49885.65
799.9413	234.6837	50567.05	49913.2
800.0837	236.909	51710.6	51057.75
800.2262	239.1339	50233.15	49557.5
800.3687	241.3582	50896.45	50234.55
800.5111	243.582	50855.15	50163.3
800.6536	245.8053	51085.4	50405.45
800.7961	248.0281	51014.15	50338.2
800.9387	250.2503	51344	50668.05
801.0812	252.472	51097	50417.55
801.2238	254.6932	51148.35	50469.8
801.3664	256.9139	51103.6	50422.7
801.509	259.134	52167.9	51482.3
801.6516	261.3536	50771.5	50090.6
801.7942	263.5727	51855.15	51171
801.9369	265.7912	51344.4	50662.75
802.0795	268.0092	51532.35	50846.4
802.2222	270.2267	51565.05	50877.6
802.3649	272.4436	51298.05	50613.2
802.5076	274.6601	51667.55	50968
802.6504	276.8759	51902.7	51208.25
802.7931	279.0913	51936.75	51241
802.9359	281.3061	51729.8	51033.65
803.0787	283.5204	52040.8	51344.15
803.2215	285.7341	51875.6	51173.25
803.3643	287.9473	52540.75	51829.6
803.5071	290.16	51947.75	51240
803.6499	292.3721	52606.3	51908.75
803.7928	294.5837	51705.1	51004.05
803.9357	296.7947	51481.5	50778.75
804.0786	299.0052	52100.65	51397.6
804.2215	301.2152	51645.7	50940.95
804.3644	303.4246	52362.75	51661.35
804.5074	305.6334	52265	51562.3
804.6503	307.8418	51552.4	50844.2
804.7933	310.0495	51922.9	51214.35
804.9363	312.2568	51758.75	51052.85
805.0793	314.4635	51649	50937.75
805.2223	316.6696	51774.7	51059.9
805.3653	318.8752	52220.35	51499.1
805.5084	321.0802	51093.1	50380.4
805.6514	323.2847	51460.9	50744.75
805.7945	325.4887	51600.05	50882.7
805.9376	327.692	51277.3	50558.75
806.0807	329.8949	51708.85	50988.6
806.2238	332.0972	51483.6	50761.2
806.367	334.2989	51749.2	51022.8
806.5101	336.5001	52258.15	51532.45
806.6533	338.7007	51440.85	50715
806.7965	340.9008	51723.75	50993
806.9397	343.1003	51727.7	50996.75
807.0829	345.2992	52065.3	51334.25
807.2261	347.4976	51543.5	50809.8
807.3693	349.6955	51695.1	50959.1
807.5126	351.8927	51430.6	50691.85
807.6559	354.0895	51776.1	51025.55
807.7991	356.2856	51638.05	50898.4
807.9424	358.4812	52043.15	51303.35
808.0857	360.6763	51580.95	50837.65
808.2291	362.8707	51670.55	50926.65
808.3724	365.0646	51579.7	50833.3
808.5158	367.258	51590.35	50841.45
808.6591	369.4508	51285.2	50534.4
808.8025	371.643	51676.65	50926
808.9459	373.8346	51586.55	50833.85
809.0893	376.0257	51504.5	50747.1
809.2327	378.2162	51345.75	50590.95
809.3762	380.4062	51049.4	50293.35
809.5196	382.5956	51167.35	50413.8
809.6631	384.7844	51244.7	50494.95
809.8066	386.9726	51277.8	50527.65
809.9501	389.1603	51428.6	50678.45
810.0936	391.3474	50868.4	50069.8
810.2371	393.5339	51381.75	50633.9
810.3806	395.7199	50730.5	49984.9
810.5241	397.9052	50803.2	50053.45
810.6677	400.09	50967.15	50216.05
810.8113	402.2743	51081.35	50330.4
810.9548	404.4579	50975.85	50220
811.0984	406.641	50804.55	50048
811.2421	408.8235	51093.25	50334.6
811.3857	411.0054	51004.7	50242.8
811.5293	413.1868	51017.1	50255.45
811.673	415.3675	51067.25	50298.7
811.8166	417.5477	51075.85	50310.05
811.9603	419.7273	50988.6	50218.6
812.104	421.9064	50779.45	50003.05
812.2477	424.0848	50772.65	49999.7
812.3914	426.2627	50854.6	50083.15
812.5351	428.4399	50395.95	49622.85
812.6788	430.6166	50193.95	49419
812.8226	432.7928	50366.75	49590.5
812.9663	434.9683	49998.65	49219.8
813.1101	437.1432	50058.15	49278.45
813.2539	439.3176	50100.35	49323.65
813.3977	441.4914	49684.2	48905.95
813.5415	443.6645	49795.35	49015.55
813.6853	445.8371	49662.95	48883.2
813.8291	448.0091	49365.9	48586.35
813.973	450.1806	49350.75	48571.9
814.1168	452.3514	49143.85	48360.55
814.2607	454.5216	49125.1	48332.65
814.4046	456.6913	49010.8	48225.9
814.5485	458.8603	49072.95	48288.25
814.6924	461.0288	48945.25	48162.65
814.8363	463.1967	48950.8	48168.65
814.9802	465.3639	49048.55	48264.9
815.1241	467.5306	48678.2	47890.85
815.2681	469.6967	48717.05	47930.85
815.412	471.8622	48587.8	47802
815.556	474.0271	48587.15	47801.25
815.7	476.1914	48556.9	47768.1
815.844	478.3551	48508.9	47721.65
815.988	480.5182	48778.5	47991.6
816.132	482.6807	48574.1	47785.8
816.276	484.8426	48641.7	47851.85
816.4201	487.0039	48836.4	48044.5
816.5641	489.1647	48798.35	48007.75
816.7082	491.3248	48639.15	47849.45
816.8522	493.4843	48812.45	48021.95
816.9963	495.6432	48839.05	48044.55
817.1404	497.8015	48496.1	47700.55
817.2845	499.9592	48638.8	47844.45
817.4286	502.1163	48487.1	47689.15
817.5727	504.2728	48377.15	47578.9
817.7168	506.4287	48461.95	47667.3
817.861	508.5839	48274.8	47478.35
818.0051	510.7386	48275.7	47478.45
818.1493	512.8927	48363.35	47556.15
818.2935	515.0461	48363.35	47564.25
818.4377	517.199	48314.85	47514.8
818.5818	519.3512	48336.65	47534.65
818.726	521.5029	48258.85	47452.6
818.8703	523.6539	48277.8	47475.15
819.0145	525.8043	48049.2	47246.35
819.1587	527.9541	48149.65	47344.25
819.303	530.1033	48025.9	47221.6
819.4472	532.2519	47901.5	47098.2
819.5915	534.3999	47922.8	47118.3
819.7357	536.5472	47916.45	47109.9
819.88	538.694	47777.55	46973.1
820.0243	540.8401	47866.35	47058.05
820.1686	542.9856	47894.1	47086.25
820.3129	545.1305	47745	46934.6
820.4572	547.2748	47773.4	46961.65
820.6016	549.4185	47763.5	46950.45
820.7459	551.5615	47750.6	46939.35
820.8902	553.704	47737.75	46927.9
821.0346	555.8458	47556.35	46745.05
821.1789	557.987	47605.15	46795.7
821.3233	560.1276	47634.3	46823.2
821.4677	562.2675	47599.8	46791.15
821.6121	564.4069	47578.75	46768.7
821.7565	566.5456	47576.55	46766.55
821.9009	568.6837	47438.35	46626.3
822.0453	570.8212	47345.85	46533.2
822.1897	572.958	47149.4	46333.95
822.3342	575.0942	47088.6	46275.05
822.4786	577.2299	46880.5	46067.35
822.6231	579.3648	46814.95	46000.7
822.7675	581.4992	46588.4	45773.95
822.912	583.6329	46439.05	45624.6
823.0565	585.766	46398.4	45586.05
823.201	587.8985	46314.9	45500.75
823.3454	590.0304	46195.3	45366.35
823.4899	592.1616	46165.9	45345.35
823.6345	594.2922	46066	45246.35
823.779	596.4222	45993.3	45172.25
823.9235	598.5515	45848.15	45024.35
824.068	600.6802	45747.95	44925.45
824.2126	602.8083	45515.1	44694.75
824.3571	604.9358	45536.3	44714.35
824.5017	607.0626	45406.9	44584.9
824.6462	609.1888	45283.65	44460.45
824.7908	611.3144	45232.85	44410.15
824.9354	613.4393	45202.55	44378.75
825.08	615.5636	45212.9	44389.05
825.2246	617.6873	45251.25	44427
825.3692	619.8103	45269.9	44442.95
825.5138	621.9327	45126.6	44299.75
825.6584	624.0544	45091.85	44268.1
825.803	626.1756	45074.7	44248.15
825.9477	628.2961	44942.15	44115.25
826.0923	630.4159	44781.25	43953.95
826.237	632.5351	44799.05	43972.1
826.3816	634.6537	44691.4	43863.05
826.5263	636.7716	44652.05	43823.4
826.6709	638.8889	44642.9	43812.7
826.8156	641.0056	44700.55	43873.3
826.9603	643.1216	44618.15	43786.05
827.105	645.237	44658.3	43827.65
827.2497	647.3518	44535.25	43707.3
827.3944	649.4659	44554.6	43725.9
827.5391	651.5793	44427.95	43596.85
827.6838	653.6922	44370.65	43540.8
827.8285	655.8043	44297.9	43467.05
827.9733	657.9159	44320.7	43487.4
828.118	660.0268	44098.65	43264.75
828.2627	662.137	44036.95	43202.85
828.4075	664.2466	44089.35	43254.75
828.5522	666.3556	43965.1	43130.85
828.697	668.4639	43825.75	42988.4
828.8418	670.5716	43859.6	43025.55
828.9865	672.6786	43897.35	43061.8
829.1313	674.785	43656.05	42820.35
829.2761	676.8907	43506.75	42670.25
829.4209	678.9958	43559.35	42723.85
829.5657	681.1002	43430.25	42591.25
829.7105	683.204	43348.8	42506.8
829.8553	685.3072	43290.45	42452.35
830.0001	687.4097	43204.15	42368.15
830.1449	689.5115	43199.75	42361.8
830.2898	691.6127	43222.35	42383.95
830.4346	693.7132	43067.25	42226.6
830.5794	695.8131	43115.55	42256.6
830.7243	697.9123	43103.65	42262.9
830.8691	700.0109	43047.95	42206.5
831.014	702.1089	42971.15	42133.5
831.1588	704.2061	42894.05	42052.8
831.3037	706.3028	42866.3	42021.9
831.4486	708.3987	42883	42042.8
831.5935	710.4941	42738.9	41896.7
831.7383	712.5887	42753.55	41911.9
831.8832	714.6827	42706.2	41857.85
832.0281	716.7761	42709.6	41867.65
832.173	718.8688	42678.95	41836.9
832.3179	720.9608	42579.4	41732.5
832.4628	723.0522	42604.15	41756.65
832.6077	725.1429	42484.75	41640.4
832.7527	727.233	42462.1	41616.15
832.8976	729.3224	42478.8	41633.45
833.0425	731.4112	42407.3	41560.1
833.1874	733.4993	42306.7	41460.7
833.3324	735.5867	42193.65	41347.4
833.4773	737.6735	42062.75	41214.6
833.6222	739.7596	41931.15	41083.8
833.7672	741.845	41864.8	41018.5
833.9122	743.9298	41790.75	40941.75
834.0571	746.014	41688.2	40842.65
834.2021	748.0974	41621.95	40771.35
834.347	750.1802	41525.3	40676.75
834.492	752.2624	41380.4	40532.15
834.637	754.3439	41219.65	40369.75
834.782	756.4247	41111.8	40251.1
834.9269	758.5048	41002.4	40152.2
835.0719	760.5843	40914.95	40063.75
835.2169	762.6631	40801	39949.7
835.3619	764.7413	40762.05	39913.95
835.5069	766.8188	40832.4	39979.6
835.6519	768.8956	40766.1	39912.05
835.7969	770.9718	40758.7	39909.35
835.9419	773.0473	40597.3	39746.8
836.0869	775.1221	40533.45	39683.2
836.232	777.1962	40340	39488.25
836.377	779.2697	40360.15	39506.2
836.522	781.3426	40333.6	39463.3
836.667	783.4147	40263.3	39411.05
836.8121	785.4862	40215.7	39365.05
836.9571	787.557	40071	39218.55
837.1021	789.6271	39959.25	39106
837.2472	791.6966	39774.6	38922.4
837.3922	793.7654	39602.45	38748.05
837.5373	795.8335	39606.15	38753.2
837.6823	797.901	39394.35	38540.45
837.8274	799.9678	39366.35	38509.25
837.9724	802.0339	39248.15	38396.45
838.1175	804.0993	39292.9	38429.7
838.2626	806.1641	39116	38261.3
838.4076	808.2282	38991.4	38136.35
838.5527	810.2916	38990.15	38132.35
838.6978	812.3544	38975.05	38120.35
838.8428	814.4164	38844.95	37991.35
838.9879	816.4778	38937.8	38080.25
839.133	818.5385	38755.95	37900.25
839.2781	820.5986	38728.7	37874.65
839.4232	822.658	38743	37881.75
839.5682	824.7166	38660.65	37803.9
839.7133	826.7747	38801.25	37944.35
839.8584	828.832	38758.35	37900.25
840.0035	830.8886	38571.05	37712.55
840.1486	832.9446	38637.9	37779.7
840.2937	834.9999	38508.05	37653.85
840.4388	837.0545	38425.35	37562.25
840.5839	839.1085	38327.35	37468.55
840.729	841.1618	38222.7	37360.9
840.8741	843.2143	38097.45	37239.65
841.0192	845.2662	37932.5	37075.15
841.1643	847.3175	37857.95	37001.05
841.3095	849.368	37753.2	36895.1
841.4546	851.4179	37768.1	36908.15
841.5997	853.467	37603.2	36743.85
841.7448	855.5155	37511.5	36654.3
841.8899	857.5633	37506.45	36649
842.0351	859.6105	37322.35	36461.6
842.1802	861.6569	37309.7	36449.95
842.3253	863.7027	37209.4	36347.8
842.4704	865.7478	37189.05	36328.35
842.6156	867.7922	37208.15	36344
842.7607	869.8359	37029.6	36168.35
842.9058	871.8789	37059.15	36197.45
843.0509	873.9212	37043.25	36148.95
843.1961	875.9629	36817.85	35956.85
843.3412	878.0039	36846.25	35984.2
843.4863	880.0441	36815.8	35955.1
843.6315	882.0837	36815	35953.35
843.7766	884.1226	36740.55	35876.55
843.9218	886.1609	36715.05	35855.05
844.0669	888.1984	36770.75	35910.25
844.212	890.2352	36844.75	35982.5
844.3572	892.2714	36767.85	35901.2
844.5023	894.3069	36758.7	35893.15
844.6475	896.3416	36495.85	35631.7
844.7926	898.3757	36452.15	35586.7
844.9377	900.4091	36406.75	35544.2
845.0829	902.4418	36334	35462.95
845.228	904.4739	36193.25	35326.3
845.3732	906.5052	36173.1	35308.15
845.5183	908.5358	36083.5	35219.05
845.6635	910.5658	36004.15	35137.3
845.8086	912.595	35942.35	35076.7
845.9538	914.6236	35812.7	34949.3
846.0989	916.6515	35745.85	34881.4
846.2441	918.6786	35638.85	34771.8
846.3892	920.7051	35586.05	34719.1
846.5344	922.7309	35638.45	34774.65
846.6795	924.756	35493.75	34626.7
846.8246	926.7804	35490.45	34623.55
846.9698	928.8041	35202.9	34333.4
847.1149	930.8272	35232.5	34366.6
847.2601	932.8495	35054	34184.15
847.4052	934.8711	35047.75	34181.55
847.5504	936.892	34865.45	33996.2
847.6955	938.9123	34816.6	33948.35
847.8407	940.9318	34775.6	33908.75
847.9858	942.9506	34674.1	33805.85
848.131	944.9688	34516.75	33647.05
848.2761	946.9862	34442.75	33576.05
848.4213	949.003	34259.45	33391.8
848.5664	951.019	34159.35	33292.95
848.7115	953.0344	34100.65	33232.1
848.8567	955.0491	34071	33199.65
849.0018	957.063	34028.8	33160.05
849.147	959.0763	34036.5	33168.9
849.2921	961.0888	33911.95	33041.8
849.4373	963.1007	33862.8	32994.45
849.5824	965.1119	33863.35	32995.8
849.7275	967.1223	33805.25	32937.15
849.8727	969.1321	33716.3	32850.55
850.0178	971.1412	33645.35	32777.5
850.1629	973.1495	33562.15	32692.75
850.3081	975.1572	33524.8	32608.85
850.4532	977.1641	33528.45	32660.15
850.5983	979.1704	33346.15	32474.95
850.7435	981.1759	33234.05	32364.35
850.8886	983.1808	33223.95	32350.9
851.0337	985.1849	33138.05	32262.6
851.1788	987.1884	33064.95	32191.6
851.324	989.1911	32947.45	32076.65
851.4691	991.1932	32916.65	32046.45
851.6142	993.1945	32798.3	31927.35
851.7593	995.1951	32632.7	31762.75
851.9045	997.1951	32583.15	31709.4
852.0496	999.1943	32477	31605.1
852.1947	1001.1928	32335.65	31464.85
852.3398	1003.1906	32215.3	31344.75
852.4849	1005.1877	32205.8	31336.4
852.63	1007.1841	32053.7	31182.7
852.7751	1009.1798	31975.95	31104.7
852.9202	1011.1748	31833.9	30962.5
853.0653	1013.1691	31729.1	30856.25
853.2104	1015.1627	31641.75	30771.15
853.3555	1017.1556	31392.15	30520.45
853.5006	1019.1477	31337	30465.05
853.6457	1021.1392	31150.35	30280.25
853.7908	1023.1299	31064.45	30192
853.9359	1025.12	30895.8	30021
854.081	1027.1093	30771.6	29902.15
854.2261	1029.0979	30732.65	29865
854.3712	1031.0859	30632.6	29763.5
854.5163	1033.0731	30552.85	29680.5
854.6613	1035.0596	30457.4	29587.85
854.8064	1037.0454	30281.2	29409.45
854.9515	1039.0304	30249.65	29376.6
855.0965	1041.0148	30107.05	29233.55
855.2416	1042.9985	29980.4	29104.35
855.3867	1044.9814	29915	29043.65
855.5317	1046.9636	29775.35	28901.35
855.6768	1048.9452	29669.15	28796.3
855.8219	1050.926	29678.5	28805.25
855.9669	1052.9061	29589.9	28717.45
856.112	1054.8855	29536.4	28664.8
856.257	1056.8642	29488.7	28616.85
856.4021	1058.8421	29465.3	28589.5
856.5471	1060.8194	29353.9	28480.8
856.6921	1062.7959	29264.55	28390.3
856.8372	1064.7717	29220.95	28345.65
856.9822	1066.7469	29184	28311.3
857.1272	1068.7213	29103.7	28225.1
857.2723	1070.695	29044.2	28170.25
857.4173	1072.6679	28929.1	28054
857.5623	1074.6402	28955.45	28084.9
857.7073	1076.6117	28964.9	28086.15
857.8523	1078.5826	28870.65	27995.15
857.9973	1080.5527	28793.15	27915.75
858.1423	1082.5221	28632.75	27757.95
858.2873	1084.4908	28576.5	27702.45
858.4323	1086.4587	28484.7	27607.5
858.5773	1088.426	28429.05	27552.45
858.7223	1090.3925	28324.75	27446.5
858.8673	1092.3584	28289.9	27414.85
859.0123	1094.3235	28174.4	27301.55
859.1573	1096.2879	28089.8	27213.05
859.3022	1098.2515	28077	27201.95
859.4472	1100.2145	28083.25	27208.3
859.5922	1102.1767	27983.5	27104.55
859.7371	1104.1382	27975.4	27100.25
859.8821	1106.099	27943.3	27065.6
860.027	1108.0591	27911.35	27036.8
860.172	1110.0185	27872.85	26995.85
860.3169	1111.9771	27880.6	27007
860.4619	1113.9351	27776.55	26900
860.6068	1115.8923	27765.45	26890.7
860.7517	1117.8488	27747.25	26869.95
860.8967	1119.8045	27601.6	26727.35
861.0416	1121.7596	27515.15	26637.35
861.1865	1123.7139	27319.05	26444.4
861.3314	1125.6675	27209.7	26334.45
861.4763	1127.6204	27189.65	26313.6
861.6212	1129.5726	27095.2	26217.35
861.7661	1131.524	27084.15	26209.55
861.911	1133.4748	27041.6	26163.95
862.0559	1135.4248	26844.85	25966.55
862.2008	1137.3741	26776.5	25899.45
862.3457	1139.3226	26674.6	25797.25
862.4905	1141.2705	26706.9	25831.65
862.6354	1143.2176	26544.55	25660.65
862.7803	1145.164	26533.8	25655.4
862.9251	1147.1097	26499.2	25620.4
863.07	1149.0546	26440.05	25561.9
863.2148	1150.9989	26419.7	25542.95
863.3597	1152.9424	26392.95	25514.8
863.5045	1154.8852	26284.35	25406.3
863.6493	1156.8272	26262.15	25385.9
863.7942	1158.7686	26298.3	25414.85
863.939	1160.7092	26197.1	25318.4
864.0838	1162.6491	26122	25243.85
864.2286	1164.5883	26089.6	25212.6
864.3734	1166.5267	26031.9	25152.85
864.5182	1168.4644	25994.2	25117.4
864.663	1170.4014	25954.05	25071.5
864.8078	1172.3377	26026.8	25151.95
864.9526	1174.2732	25997	25119.45
865.0974	1176.2081	26073.55	25195.7
865.2421	1178.1421	26086.6	25204.6
865.3869	1180.0755	26180.7	25304.55
865.5317	1182.0082	26104.2	25225.6
865.6764	1183.9401	26064	25184.5
865.8212	1185.8713	25931.5	25055.55
865.9659	1187.8017	25764.65	24885.85
866.1106	1189.7315	25681.45	24807.6
866.2554	1191.6605	25432.2	24557.4
866.4001	1193.5888	25333	24455.25
866.5448	1195.5163	25241.3	24363.45
866.6895	1197.4432	25164.3	24283.2
866.8342	1199.3693	25044.8	24167.3
866.9789	1201.2947	24918.1	24035.95
867.1236	1203.2193	24824.5	23944.85
867.2683	1205.1432	24795.7	23918
867.413	1207.0664	24699.05	23820.05
867.5576	1208.9889	24669.3	23785.2
867.7023	1210.9106	24530.55	23652.75
867.847	1212.8316	24432.1	23553.95
867.9916	1214.7519	24422.05	23535.25
868.1363	1216.6715	24364.3	23485.9
868.2809	1218.5903	24312.5	23433.9
868.4255	1220.5084	24297.65	23417.65
868.5701	1222.4257	24290.55	23410.4
868.7148	1224.3424	24150.55	23272.35
868.8594	1226.2583	24120.8	23237.5
869.004	1228.1735	24095.95	23215.25
869.1486	1230.0879	23987.95	23106.4
869.2932	1232.0016	23968.15	23088.15
869.4377	1233.9146	23959.8	23079.05
869.5823	1235.8269	23876.1	22997.3
869.7269	1237.7384	23912.2	23033.6
869.8715	1239.6492	23785.3	22907.5
870.016	1241.5592	23783.1	22904.25
870.1606	1243.4686	23746.75	22867.55
870.3051	1245.3772	23758.8	22878.3
870.4496	1247.285	23738.35	22858.05
870.5941	1249.1922	23743.1	22862.25
870.7387	1251.0986	23785.55	22905
870.8832	1253.0042	23754.85	22874.05
871.0277	1254.9092	23830.9	22951.45
871.1722	1256.8134	23828.4	22950.25
871.3167	1258.7169	23912.45	23031.25
871.4611	1260.6196	23886.05	23008.1
871.6056	1262.5216	23926.5	23047.05
871.7501	1264.4229	23865.4	22984.65
871.8945	1266.3234	23838.85	22958.55
872.039	1268.2232	23740.55	22858.55
872.1834	1270.1223	23621.75	22740.55
872.3278	1272.0207	23584.45	22704.2
872.4723	1273.9183	23517.1	22627.45
872.6167	1275.8151	23478.6	22598.3
872.7611	1277.7113	23455.05	22574.25
872.9055	1279.6067	23457.65	22577
873.0499	1281.5014	23527.65	22647.15
873.1943	1283.3953	23672.05	22789.5
873.3386	1285.2885	23849.5	22971.3
873.483	1287.181	23989.95	23107.3
873.6274	1289.0727	24047.25	23168.05
873.7717	1290.9637	23957.75	23074.75
873.9161	1292.854	23843.1	22962.35
874.0604	1294.7435	23645.9	22763.55
874.2047	1296.6323	23539.6	22657.75
874.349	1298.5204	23376.8	22492
874.4933	1300.4077	23286.75	22407.1
874.6376	1302.2943	23199	22317.3
874.7819	1304.1802	23168.4	22289.45
874.9262	1306.0653	23087.95	22203.7
875.0705	1307.9497	23045.05	22165.2
875.2147	1309.8333	23001.4	22119.75
875.359	1311.7162	22953.3	22073.8
875.5032	1313.5984	22899.55	22017.4
875.6475	1315.4798	22796.05	21914.5
875.7917	1317.3605	22770.85	21885.75
875.9359	1319.2405	22789.3	21906.4
876.0801	1321.1197	22757.45	21874.05
876.2243	1322.9982	22653.25	21768.85
876.3685	1324.876	22641.1	21759.4
876.5127	1326.753	22456.1	21575.15
876.6569	1328.6293	22415	21532.55
876.801	1330.5048	22313.7	21430.75
876.9452	1332.3796	22161.25	21279.45
877.0893	1334.2537	22095.8	21188.25
877.2335	1336.127	21986.15	21104.3
877.3776	1337.9996	21928.45	21048.15
877.5217	1339.8714	21848.75	20967.15
877.6658	1341.7426	21771.35	20847.65
877.8099	1343.6129	21756.6	20875.8
877.954	1345.4826	21727.85	20846.05
878.0981	1347.3515	21713.35	20829.9
878.2422	1349.2196	21660.2	20775.45
878.3862	1351.087	21610.05	20727
878.5303	1352.9537	21606.65	20723.45
878.6743	1354.8197	21617.35	20735.45
878.8184	1356.6849	21576.05	20695.25
878.9624	1358.5493	21514.5	20631.95
879.1064	1360.4131	21536.5	20654.5
879.2504	1362.276	21475.2	20594.15
879.3944	1364.1383	21457.25	20578.5
879.5384	1365.9998	21452.2	20566.15
879.6823	1367.8606	21402.35	20520.9
879.8263	1369.7206	21361.1	20477.3
879.9702	1371.5799	21270.7	20385.75
880.1142	1373.4384	21227.55	20345.95
880.2581	1375.2962	21183.7	20297.75
880.402	1377.1533	21021.7	20140.35
880.5459	1379.0096	20919.4	20036.8
880.6898	1380.8652	20799.65	19919.05
880.8337	1382.7201	20736.85	19854.8
880.9776	1384.5742	20660.5	19779
881.1215	1386.4275	20562.2	19677.7
881.2653	1388.2802	20456.35	19575.45
881.4092	1390.132	20408.3	19523.9
881.553	1391.9832	20352.3	19468.75
881.6968	1393.8336	20251.9	19368.85
881.8406	1395.6832	20219.35	19333.3
881.9844	1397.5322	20129.5	19247.85
882.1282	1399.3803	20098.2	19211.35
882.272	1401.2278	19958.3	19076.7
882.4158	1403.0745	19948.65	19066
882.5595	1404.9204	19823.9	18943.85
882.7033	1406.7656	19815.9	18931.5
882.847	1408.6101	19742.5	18861
882.9908	1410.4538	19644.45	18761.85
883.1345	1412.2968	19592.35	18710.55
883.2782	1414.139	19521.65	18639.25
883.4219	1415.9805	19477.6	18594.95
883.5656	1417.8213	19354	18450.7
883.7092	1419.6613	19333.05	18450.2
883.8529	1421.5006	19331.8	18447.3
883.9965	1423.3391	19317.9	18435.05
884.1402	1425.1769	19299.95	18413.3
884.2838	1427.0139	19320	18436.9
884.4274	1428.8502	19382.85	18498.7
884.571	1430.6858	19418.7	18533.7
884.7146	1432.5206	19331.05	18450.05
884.8582	1434.3547	19289.6	18406.3
885.0018	1436.188	19263.5	18379.95
885.1453	1438.0206	19222.1	18339.65
885.2889	1439.8524	19134.5	18252.1
885.4324	1441.6835	19112.15	18229.65
885.5759	1443.5139	19128.55	18238.45
885.7194	1445.3435	19065.8	18183.1
885.8629	1447.1724	19052.15	18169.35
886.0064	1449.0005	19022.25	18138.3
886.1499	1450.8279	18982.15	18097.25
886.2933	1452.6545	18973.45	18089.2
886.4368	1454.4804	18940	18057.95
886.5802	1456.3056	18871.2	17981.65
886.7237	1458.13	18813.2	17928.85
886.8671	1459.9536	18822.25	17939
887.0105	1461.7766	18743.95	17859.4
887.1539	1463.5987	18673.5	17787.9
887.2972	1465.4202	18592.75	17709.95
887.4406	1467.2409	18507.15	17623.4
887.584	1469.0608	18465.2	17582.95
887.7273	1470.88	18399.4	17515.9
887.8706	1472.6984	18353.85	17470.9
888.0139	1474.5161	18257.35	17371.85
888.1572	1476.3331	18183.45	17301
888.3005	1478.1493	18177.95	17293.05
888.4438	1479.9648	18130.95	17252.5
888.5871	1481.7795	18088.05	17205.15
888.7303	1483.5935	18106.75	17222.3
888.8736	1485.4067	18045.95	17160.35
889.0168	1487.2192	18036.6	17152.7
889.16	1489.031	18035.9	17150.65
889.3032	1490.842	17990.15	17107.65
889.4464	1492.6522	17958.05	17075.95
889.5896	1494.4618	17901.7	17016.4
889.7327	1496.2705	17871.3	16987.8
889.8759	1498.0785	17783.25	16900.85
890.019	1499.8858	17751.9	16867.65
890.1622	1501.6924	17703.7	16821.25
890.3053	1503.4981	17659.95	16776.55
890.4484	1505.3032	17628.3	16745
890.5914	1507.1075	17594.65	16710.6
890.7345	1508.911	17566.1	16682.2
890.8776	1510.7138	17521.85	16637.25
891.0206	1512.5159	17460.45	16577
891.1637	1514.3172	17396	16512.15
891.3067	1516.1178	17334.8	16453.75
891.4497	1517.9176	17324.05	16437.8
891.5927	1519.7166	17239.65	16359.65
891.7357	1521.515	17215.15	16324.4
891.8786	1523.3126	17145.15	16262.05
892.0216	1525.1094	17120.75	16237.1
892.1645	1526.9055	17058	16176.4
892.3074	1528.7008	16969.55	16087.25
892.4503	1530.4954	16851.2	15967.65
892.5932	1532.2893	16832.2	15949.45
892.7361	1534.0824	16766.35	15877.85
892.879	1535.8747	16730.15	15845.4
893.0218	1537.6663	16645.5	15760.7
893.1647	1539.4572	16610	15728.1
893.3075	1541.2473	16569.65	15684.9
893.4503	1543.0367	16511.2	15629.65
893.5931	1544.8253	16451.6	15563.95
893.7359	1546.6132	16428.3	15544.65
893.8787	1548.4003	16350.9	15457.85
894.0214	1550.1867	16329.15	15436.45
894.1642	1551.9723	16272.2	15387.1
894.3069	1553.7572	16234	15350
894.4496	1555.5414	16208.75	15325
894.5923	1557.3247	16167.5	15284.25
894.735	1559.1074	16163.95	15281.2
894.8777	1560.8893	16136.55	15254.95
895.0204	1562.6705	16085.6	15200.5
895.163	1564.4509	16074.75	15192.75
895.3056	1566.2305	16055.15	15174
895.4482	1568.0094	16059.5	15176.9
895.5908	1569.7876	16035.2	15153.7
895.7334	1571.565	15983.6	15100.3
895.876	1573.3417	15965.4	15082.9
896.0186	1575.1176	15900.8	15017
896.1611	1576.8928	15857.7	14973.65
896.3036	1578.6672	15818.55	14940.6
896.4461	1580.4409	15772.4	14891.15
896.5886	1582.2138	15757.25	14874.2
896.7311	1583.986	15726.1	14844.55
896.8736	1585.7575	15771.3	14888
897.0161	1587.5282	15752.2	14871.5
897.1585	1589.2981	15763.3	14881.6
897.3009	1591.0673	15685.65	14804.3
897.4433	1592.8358	15667.95	14787.15
897.5857	1594.6035	15649.25	14764.9
897.7281	1596.3704	15557.8	14674
897.8705	1598.1366	15495.25	14613.9
898.0128	1599.9021	15404.75	14523.95
898.1551	1601.6668	15296.75	14412.95
898.2975	1603.4308	15239.15	14358.35
898.4398	1605.194	15186.95	14300.15
898.5821	1606.9564	15158.7	14277.55
898.7243	1608.7182	15163.05	14276.9
898.8666	1610.4791	15210.65	14330.6
899.0088	1612.2394	15255.45	14375.85
899.1511	1613.9988	15275.85	14394.95
899.2933	1615.7576	15317.3	14436.6
899.4355	1617.5156	15367.6	14479.45
899.5776	1619.2728	15308.25	14427.95
899.7198	1621.0293	15211	14327.9
899.862	1622.785	15068.3	14181.1
900.0041	1624.54	14902	14018.1
900.1462	1626.2942	14720.65	13835.9
900.2883	1628.0477	14523.4	13639.55
900.4304	1629.8005	14436.05	13550.3
900.5725	1631.5525	14309.05	13427.15
900.7145	1633.3037	14263.45	13382
900.8566	1635.0542	14170	13287.15
900.9986	1636.804	14060.4	13177.85
901.1406	1638.553	14085.65	13115.5
901.2826	1640.3013	13947	13064.95
901.4245	1642.0488	13862.2	12979.8
901.5665	1643.7955	13831.1	12951.45
901.7085	1645.5416	13759.15	12875.55
901.8504	1647.2868	13710.95	12830.1
901.9923	1649.0313	13652.55	12771.3
902.1342	1650.7751	13662.3	12776.05
902.2761	1652.5181	13596.75	12715.85
902.4179	1654.2604	13516.3	12634.65
902.5598	1656.0019	13505.6	12623.7
902.7016	1657.7427	13459.1	12576.8
902.8434	1659.4828	13474.25	12594.3
902.9852	1661.222	13446.8	12562.7
903.127	1662.9606	13409.85	12528.6
903.2687	1664.6984	13450.95	12569.7
903.4105	1666.4354	13414.1	12531.55
903.5522	1668.1717	13381.1	12497.4
903.6939	1669.9072	13273.05	12389.8
903.8356	1671.642	13192.95	12307.6
903.9773	1673.3761	13124.4	12243.6
904.119	1675.1094	13056.1	12174.7
904.2606	1676.8419	12975.15	12091.8
904.4022	1678.5737	12890.15	12008.4
904.5439	1680.3048	12864.45	11982.35
904.6855	1682.0351	12768.65	11886.05
904.827	1683.7646	12725.3	11839.2
904.9686	1685.4934	12696.35	11814.8
905.1101	1687.2215	12638.15	11754.45
905.2517	1688.9488	12538.8	11657.6
905.3932	1690.6754	12469.5	11587.05
905.5347	1692.4012	12471.5	11588.2
905.6761	1694.1263	12406.8	11525.4
905.8176	1695.8506	12376.25	11493.6
905.9591	1697.5742	12339.15	11457.3
906.1005	1699.297	12271.35	11388.7
906.2419	1701.0191	12231.75	11349.55
906.3833	1702.7404	12173.85	11292.3
906.5246	1704.461	12096.1	11211.5
906.666	1706.1808	12090.25	11207
906.8073	1707.8999	12012.55	11129.65
906.9487	1709.6182	11989.95	11107.2
907.09	1711.3358	11964.6	11082.75
907.2313	1713.0527	11916.75	11034.85
907.3725	1714.7688	11887.95	11002.05
907.5138	1716.4841	11823.95	10941.35
907.655	1718.1987	11806.4	10918.95
907.7962	1719.9126	11780.8	10901.65
907.9374	1721.6257	11726.7	10840.6
908.0786	1723.338	11701.3	10817.5
908.2198	1725.0496	11628.6	10746.1
908.3609	1726.7605	11629.4	10745.55
908.502	1728.4706	11603.9	10721.75
908.6431	1730.18	11563.55	10677.7
908.7842	1731.8886	11534.6	10653.45
908.9253	1733.5964	11541.25	10638.95
909.0664	1735.3036	11482.7	10597.65
909.2074	1737.0099	11482	10600
909.3484	1738.7156	11467.45	10585.9
909.4894	1740.4204	11415.65	10529.95
909.6304	1742.1246	11389.35	10504.9
909.7714	1743.8279	11390.25	10508.55
909.9123	1745.5306	11343	10460.6
910.0532	1747.2325	11320.5	10441
910.1941	1748.9336	11305.4	10423.3
910.335	1750.634	11253.5	10369.55
910.4759	1752.3336	11248.9	10369
910.6168	1754.0325	11225	10345.7
910.7576	1755.7307	11200.7	10319.7
910.8984	1757.4281	11231.5	10350.65
911.0392	1759.1247	11218.25	10328.15
911.18	1760.8206	11175.65	10289.2
911.3208	1762.5158	11175.85	10289.35
911.4615	1764.2102	11110.05	10227.7
911.6022	1765.9039	11083.85	10202.25
911.7429	1767.5968	11052.9	10170.75
911.8836	1769.289	11021.55	10140.25
912.0243	1770.9804	10973.85	10091.45
912.1649	1772.6711	10980	10097.5
912.3056	1774.361	10943.2	10059.9
912.4462	1776.0502	10939.6	10057.75
912.5868	1777.7386	10918.95	10033.75
912.7274	1779.4263	10900.75	10018.3
912.8679	1781.1132	10882.6	9999.95
913.0084	1782.7994	10821.9	9937.55
913.149	1784.4849	10802.3	9921.9
913.2895	1786.1696	10787.6	9886.2
913.4299	1787.8535	10752.3	9871.1
913.5704	1789.5367	10749.65	9867.6
913.7108	1791.2192	10738.55	9858.8
913.8513	1792.9009	10697.4	9798.05
913.9917	1794.5818	10648.45	9765.6
914.132	1796.2621	10624.4	9743.2
914.2724	1797.9415	10613.85	9730.65
914.4128	1799.6202	10570.15	9687.25
914.5531	1801.2982	10545.15	9662.35
914.6934	1802.9755	10544.6	9661.3
914.8337	1804.6519	10525.55	9641
914.9739	1806.3277	10455.4	9574.25
915.1142	1808.0027	10404.2	9522.95
915.2544	1809.6769	10413.05	9531.1
915.3946	1811.3504	10382.6	9498.7
915.5348	1813.0231	10362.15	9478.75
915.675	1814.6951	10339.45	9457.4
915.8151	1816.3664	10349.95	9464.5
915.9553	1818.0369	10311.7	9429.5
916.0954	1819.7067	10294.2	9412.95
916.2355	1821.3757	10257.55	9373.75
916.3755	1823.044	10210.55	9330.05
916.5156	1824.7115	10201.85	9317.4
916.6556	1826.3783	10178.8	9298.45
916.7956	1828.0443	10145.65	9265.15
916.9356	1829.7096	10113.4	9229.25
917.0756	1831.3741	10126.95	9240.85
917.2155	1833.0379	10082.9	9200.95
917.3555	1834.701	10064.45	9180.5
917.4954	1836.3633	10052.1	9169.25
917.6353	1838.0248	10010.6	9128.3
917.7751	1839.6856	9989.5	9107.7
917.915	1841.3457	9996.6	9115.5
918.0548	1843.005	9966.5	9086.65
918.1946	1844.6636	9933.35	9050.9
918.3344	1846.3214	9926.35	9043.05
918.4742	1847.9785	9902.55	9021.05
918.6139	1849.6349	9888.35	9004.35
918.7537	1851.2904	9881.1	8991.35
918.8934	1852.9453	9814.95	8932.15
919.0331	1854.5994	9793.05	8908.2
919.1727	1856.2528	9819.25	8932.5
919.3124	1857.9054	9786.35	8904.4
919.452	1859.5572	9743.85	8862.4
919.5916	1861.2083	9718.15	8837.45
919.7312	1862.8587	9730.45	8847.6
919.8708	1864.5084	9708.95	8826.3
920.0103	1866.1572	9654.05	8772.5
920.1498	1867.8054	9645.3	8763
920.2893	1869.4528	9622	8738.95
920.4288	1871.0994	9596.15	8712.75
920.5683	1872.7453	9584.7	8702.85
920.7077	1874.3905	9535.1	8644.7
920.8471	1876.0349	9502.3	8619.4
920.9865	1877.6786	9517.6	8631.95
921.1259	1879.3215	9512.2	8629.45
921.2653	1880.9637	9469.9	8586
921.4046	1882.6051	9460.95	8579.5
921.5439	1884.2458	9452.95	8567
921.6832	1885.8858	9406.95	8525.3
921.8225	1887.525	9392.95	8509.55
921.9617	1889.1634	9341	8458.9
922.101	1890.8011	9357.7	8474.05
922.2402	1892.4381	9319.1	8437.95
922.3794	1894.0743	9343.7	8464.05
922.5185	1895.7098	9294.65	8411.15
922.6577	1897.3446	9285.9	8403.1
922.7968	1898.9786	9265.9	8378.1
922.9359	1900.6118	9228.9	8346.25
923.075	1902.2443	9180.3	8297.55
923.214	1903.8761	9174.7	8293.95
923.3531	1905.5071	9103.4	8217.75
923.4921	1907.1374	9101.75	8216.55
923.6311	1908.7669	9067.25	8184
923.77	1910.3957	9085.4	8203.8
923.909	1912.0237	9012.5	8130.65
924.0479	1913.651	9007.55	8123.6
924.1868	1915.2776	9002.1	8120.5
924.3257	1916.9034	8964.05	8084
924.4646	1918.5285	8917.5	8037
924.6034	1920.1528	8876.8	7993.85
924.7422	1921.7764	8909.75	8027.25
924.881	1923.3992	8846.55	7964.85
925.0198	1925.0213	8799.45	7916.8
925.1586	1926.6427	8756.1	7876.5
925.2973	1928.2633	8923.15	7829.65
925.436	1929.8832	8752.45	7867.05
925.5747	1931.5023	8691.1	7809.45
925.7134	1933.1207	8666.9	7784.5
925.852	1934.7383	8640	7757.15
925.9906	1936.3552	8618.4	7736.95
926.1292	1937.9714	8611.8	7729.2
926.2678	1939.5868	8587.3	7703.5
926.4064	1941.2015	8523.05	7638.95
926.5449	1942.8154	8511.9	7631.45
926.6834	1944.4286	8488.6	7606.95
926.8219	1946.041	8480.6	7575.45
926.9604	1947.6528	8432.25	7544.5
927.0988	1949.2637	8404.25	7522.05
927.2372	1950.8739	8351.4	7468.35
927.3756	1952.4834	8341.25	7458.7
927.514	1954.0921	8360.7	7478
927.6523	1955.7001	8320.2	7436
927.7907	1957.3074	8305.3	7424.45
927.929	1958.9139	8283.55	7402.8
928.0673	1960.5197	8262.75	7379.45
928.2055	1962.1247	8230.95	7350.3
928.3438	1963.729	8206.2	7326.5
928.482	1965.3325	8173.05	7268.3
928.6202	1966.9353	8146.15	7267.95
928.7584	1968.5374	8125.35	7240.8
928.8965	1970.1387	8105.95	7224
929.0346	1971.7393	8092.95	7211.3
929.1727	1973.3392	8053	7169.8
929.3108	1974.9383	8018.25	7138.85
929.4489	1976.5366	7995.05	7112.7
929.5869	1978.1342	7993.9	7109.9
929.7249	1979.7311	7964.5	7082.3
929.8629	1981.3273	7956.3	7075
930.0009	1982.9227	7919.7	7038.4
930.1388	1984.5173	7892.1	7013.7
930.2767	1986.1112	7863.35	6981.9
930.4146	1987.7044	7858.4	6979.45
930.5525	1989.2968	7847.9	6966.25
930.6904	1990.8885	7838.65	6955.45
930.8282	1992.4795	7817.45	6935.6
930.966	1994.0697	7789.3	6906.1
931.1038	1995.6592	7774.45	6894.3
931.2415	1997.2479	7737.8	6856.95
931.3793	1998.8359	7727.2	6844.35
931.517	2000.4232	7709.65	6828.2
931.6547	2002.0097	7680.05	6802.15
931.7923	2003.5955	7669.2	6787.7
931.93	2005.1805	7655.85	6773.35
932.0676	2006.7648	7641.8	6762.35
932.2052	2008.3484	7621.45	6740.35
932.3427	2009.9312	7625.05	6740.25
932.4803	2011.5133	7577.85	6699.7
932.6178	2013.0946	7526.1	6644.45
932.7553	2014.6752	7523.2	6643.1
932.8928	2016.2551	7511.9	6628.85
933.0302	2017.8342	7501.5	6620.45
933.1676	2019.4126	7492.15	6615.45
933.305	2020.9902	7451.85	6571.95
933.4424	2022.5672	7438.2	6556.65
933.5798	2024.1433	7440.55	6554.5
933.7171	2025.7188	7397	6517.85
933.8544	2027.2935	7398.15	6516.9
933.9917	2028.8674	7367.6	6487.3
934.129	2030.4406	7347	6467.4
934.2662	2032.0131	7325.1	6445.4
934.4034	2033.5849	7293.55	6405.95
934.5406	2035.1559	7302.9	6424.7
934.6778	2036.7261	7279.35	6400.8
934.8149	2038.2957	7279.45	6399.4
934.952	2039.8645	7262	6383.35
935.0891	2041.4325	7272.3	6387.65
935.2262	2042.9998	7237.1	6355.85
935.3632	2044.5664	7242.15	6360.8
935.5002	2046.1323	7211.7	6329.55
935.6372	2047.6974	7177.7	6296.85
935.7742	2049.2617	7169.1	6289.95
935.9111	2050.8254	7172	6268.6
936.048	2052.3883	7161	6280.9
936.1849	2053.9504	7130.3	6248.95
936.3218	2055.5118	7119.85	6238.55
936.4586	2057.0725	7097.2	6214.95
936.5955	2058.6325	7060.5	6180.5
936.7323	2060.1917	7066	6186.3
936.869	2061.7502	7065.6	6180.9
937.0058	2063.3079	7046.1	6164.65
937.1425	2064.8649	7015.55	6133
937.2792	2066.4212	7003.75	6121.55
937.4159	2067.9767	7002.75	6123.1
937.5525	2069.5315	6966.45	6087.35
937.6891	2071.0856	6946	6065.55
937.8257	2072.6389	6933.5	6052.2
937.9623	2074.1915	6894.05	6015.5
938.0989	2075.7433	6876.9	5995.05
938.2354	2077.2945	6853.1	5972.75
938.3719	2078.8448	6852.75	5972.8
938.5084	2080.3945	6848.25	5968.5
938.6448	2081.9434	6835.05	5955.35
938.7812	2083.4916	6822.3	5942.2
938.9176	2085.039	6791.65	5909.7
939.054	2086.5857	6796.1	5915.25
939.1903	2088.1317	6779.9	5897.4
939.3267	2089.677	6765.5	5884.8
939.463	2091.2215	6744.95	5862.2
939.5992	2092.7652	6726.5	5843.95
939.7355	2094.3083	6713.85	5832.8
939.8717	2095.8506	6682.75	5803.55
940.0079	2097.3921	6696.4	5814.95
940.1441	2098.933	6686.85	5806.9
940.2802	2100.4731	6660.25	5780.6
940.4163	2102.0124	6665.2	5767.2
940.5524	2103.5511	6671.15	5791.55
940.6885	2105.089	6654.2	5773.45
940.8245	2106.6261	6626.45	5746.1
940.9606	2108.1626	6610.9	5729.8
941.0965	2109.6983	6638.6	5729.5
941.2325	2111.2332	6595.75	5715.95
941.3684	2112.7675	6586.5	5705.1
941.5044	2114.301	6576.65	5694.4
941.6403	2115.8337	6573.75	5693.15
941.7761	2117.3657	6571.7	5691.1
941.912	2118.897	6555.05	5676.1
942.0478	2120.4276	6515.85	5628.65
942.1835	2121.9575	6481.2	5600.45
942.3193	2123.4866	6499.8	5616.5
942.455	2125.0149	6494.75	5611.15
942.5907	2126.5426	6465.7	5587.1
942.7264	2128.0695	6465.25	5579.8
942.8621	2129.5956	6445.95	5568.4
942.9977	2131.1211	6455.65	5569.35
943.1333	2132.6458	6416.75	5537.25
943.2689	2134.1698	6379.4	5497
943.4044	2135.693	6398.35	5516.75
943.54	2137.2155	6371.45	5488.75
943.6755	2138.7373	6357.25	5476
943.8109	2140.2584	6361.55	5480.2
943.9464	2141.7787	6329.4	5442.85
944.0818	2143.2983	6309.6	5431.45
944.2172	2144.8171	6287.6	5410.35
944.3526	2146.3353	6276.95	5393.2
944.4879	2147.8527	6249.1	5369.65
944.6232	2149.3693	6273.05	5393.05
944.7585	2150.8853	6228.65	5347
944.8938	2152.4005	6187.7	5307.4
945.029	2153.9149	6190.05	5310.5
945.1642	2155.4287	6182	5302.6
945.2994	2156.9417	6175.25	5294.5
945.4346	2158.454	6148.3	5265.5
945.5697	2159.9655	6132.15	5252.45
945.7048	2161.4764	6148.8	5269.05
945.8399	2162.9865	6128.05	5248.1
945.9749	2164.4958	6096.3	5214.55
946.1099	2166.0045	6066.1	5182.95
946.2449	2167.5124	6068.6	5187.75
946.3799	2169.0195	6068.5	5188.7
946.5148	2170.526	6076.2	5195.7
946.6498	2172.0317	6021.15	5140.5
946.7846	2173.5367	6004.9	5123.85
946.9195	2175.0409	6014.65	5133.35
947.0543	2176.5445	5997.65	5117.4
947.1891	2178.0473	5980.3	5100.65
947.3239	2179.5494	5962.25	5080.45
947.4587	2181.0507	5921.8	5040.4
947.5934	2182.5513	5924.95	5044.8
947.7281	2184.0512	5927.25	5047.5
947.8628	2185.5504	5904.2	5024.8
947.9974	2187.0488	5872.1	4991.45
948.132	2188.5465	5876.05	4995.3
948.2666	2190.0435	5854.95	4974.75
948.4012	2191.5397	5831.55	4950.4
948.5357	2193.0353	5822.75	4941.3
948.6702	2194.5301	5809.8	4927.9
948.8047	2196.0241	5780.95	4900.55
948.9392	2197.5175	5743.35	4863
949.0736	2199.0101	5735.05	4851.85
949.208	2200.502	5719.95	4841.15
949.3424	2201.9931	5710.05	4828.45
949.4767	2203.4835	5687.5	4805
949.611	2204.9733	5675.6	4789.6
949.7453	2206.4622	5677.85	4799.05
949.8796	2207.9505	5667.9	4784.05
950.0138	2209.438	5626.95	4749.05
950.148	2210.9248	5616.6	4734.2
950.2822	2212.4109	5588.4	4708.95
950.4164	2213.8962	5577.2	4693.1
950.5505	2215.3809	5580	4697.05
950.6846	2216.8648	5567.65	4687
950.8186	2218.3479	5547.05	4662.1
950.9527	2219.8304	5519.35	4636.95
951.0867	2221.3121	5513.95	4633.15
951.2207	2222.7931	5497.25	4617.55
951.3546	2224.2733	5476	4594.7
951.4886	2225.7529	5453.35	4573.1
951.6225	2227.2317	5432.7	4549.25
951.7563	2228.7098	5443.85	4563.55
951.8902	2230.1872	5412.85	4531.95
952.024	2231.6638	5397.45	4516.4
952.1578	2233.1397	5375.65	4489.35
952.2916	2234.6149	5382.15	4503.25
952.4253	2236.0894	5367.8	4487.75
952.559	2237.5632	5349.1	4466.35
952.6927	2239.0362	5316.85	4436.7
952.8263	2240.5085	5315.1	4435.15
952.9599	2241.9801	5297.1	4414.7
953.0935	2243.4509	5287.95	4407.6
953.2271	2244.921	5285.25	4405.15
953.3606	2246.3904	5249.85	4368.25
953.4941	2247.8591	5247.45	4366.4
953.6276	2249.3271	5228.35	4346.85
953.7611	2250.7943	5202.85	4324.7
953.8945	2252.2608	5204.9	4323.8
954.0279	2253.7266	5174.55	4293.6
954.1612	2255.1917	5173.25	4292.7
954.2946	2256.656	5166.25	4286.4
954.4279	2258.1197	5103	4222.25
954.5612	2259.5826	5118.85	4235.05
954.6944	2261.0447	5097.3	4214.3
954.8276	2262.5062	5084.5	4203.15
954.9608	2263.9669	5086.15	4203.9
955.094	2265.4269	5086	4206.35
955.2271	2266.8862	5080.4	4198.05
955.3602	2268.3448	5060.55	4178.55
955.4933	2269.8026	5052.9	4173.4
955.6264	2271.2598	5033.75	4153.55
955.7594	2272.7162	5010.35	4131.4
955.8924	2274.1719	5000.7	4120.45
956.0253	2275.6268	4999.2	4118.6
956.1583	2277.0811	4993.95	4113.7
956.2912	2278.5346	4983.65	4102.75
956.4241	2279.9874	4973.1	4094
956.5569	2281.4395	4952.8	4072.3
956.6897	2282.8908	4959	4073.3
956.8225	2284.3414	4934.95	4055.1
956.9553	2285.7914	4906.7	4026.3
957.088	2287.2406	4894.75	4013.5
957.2207	2288.689	4890.75	4012.2
957.3534	2290.1368	4880.6	3997.35
957.486	2291.5838	4879.3	3996.2
957.6186	2293.0302	4824.75	3940.55
957.7512	2294.4758	4832.15	3952.95
957.8838	2295.9206	4829	3948.05
958.0163	2297.3648	4812.3	3933.7
958.1488	2298.8082	4801.25	3919.8
958.2813	2300.251	4775.9	3894.85
958.4137	2301.693	4792.75	3911.8
958.5461	2303.1343	4775.6	3894.15
958.6785	2304.5748	4764.05	3883.35
958.8108	2306.0147	4741	3859.55
958.9432	2307.4538	4741.8	3860.45
959.0754	2308.8922	4714.15	3833.65
959.2077	2310.3299	4698.3	3818.45
959.3399	2311.7669	4674.75	3794.7
959.4721	2313.2031	4669.9	3789.9
959.6043	2314.6387	4662.45	3780.15
959.7365	2316.0735	4636.85	3756.2
959.8686	2317.5076	4635.4	3755.55
960.0006	2318.941	4627.9	3746.8
960.1327	2320.3737	4635	3753.1
960.2647	2321.8056	4608.15	3724.3
960.3967	2323.2369	4589.05	3708.75
960.5287	2324.6674	4575.65	3695.4
960.6606	2326.0972	4572.95	3690.8
960.7925	2327.5263	4557.35	3677.55
960.9244	2328.9547	4534.55	3653.15
961.0562	2330.3823	4532.3	3651.45
961.1881	2331.8092	4528.7	3646.45
961.3198	2333.2355	4517.3	3636.4
961.4516	2334.661	4489.9	3607.1
961.5833	2336.0858	4497	3613.5
961.715	2337.5098	4486.15	3604.6
961.8467	2338.9332	4478.65	3597.25
961.9783	2340.3558	4464.9	3581.5
962.1099	2341.7778	4450.55	3569.85
962.2415	2343.199	4424.1	3541.25
962.373	2344.6195	4418.5	3537.8
962.5045	2346.0393	4410.85	3529.5
962.636	2347.4583	4425.75	3544.35
962.7675	2348.8767	4381.7	3500.8
962.8989	2350.2943	4375.6	3493.55
963.0303	2351.7113	4366.15	3484.2
963.1617	2353.1275	4354.15	3471.7
963.293	2354.543	4352.45	3464.95
963.4243	2355.9578	4351.7	3468.5
963.5556	2357.3718	4325.15	3443.1
963.6868	2358.7852	4308.25	3423.35
963.818	2360.1978	4279	3396.5
963.9492	2361.6098	4272.95	3392.6
964.0803	2363.021	4270.15	3385.4
964.2114	2364.4315	4260.1	3379.35
964.3425	2365.8413	4247.6	3360.1
964.4736	2367.2504	4233.9	3352.65
964.6046	2368.6587	4218.55	3335.6
964.7356	2370.0664	4211.15	3329.8
964.8666	2371.4733	4204.6	3322
964.9975	2372.8795	4203.5	3322.65
965.1284	2374.285	4173.1	3292.3
965.2593	2375.6899	4149.2	3269.6
965.3901	2377.0939	4142.65	3260.25
965.5209	2378.4973	4121.5	3240.75
965.6517	2379.9	4113	3232.1
965.7825	2381.3019	4105.05	3223.35
965.9132	2382.7032	4096.25	3215.35
966.0439	2384.1037	4080.45	3201.65
966.1745	2385.5035	4065.9	3184.3
966.3051	2386.9027	4052.35	3171.45
966.4357	2388.3011	4054.85	3168.65
966.5663	2389.6987	4049.15	3169.35
966.6968	2391.0957	4023.5	3142.65
966.8273	2392.492	4010.15	3129.7
966.9578	2393.8876	3986.2	3103.45
967.0882	2395.2824	3991.5	3110.5
967.2186	2396.6765	3975.05	3094.7
967.349	2398.07	3948.75	3068.65
967.4793	2399.4627	3947.5	3066.6
967.6097	2400.8547	3948.25	3066.75
967.7399	2402.246	3915.25	3027.15
967.8702	2403.6366	3914.1	3031.35
968.0004	2405.0265	3895.9	3015.3
968.1306	2406.4156	3890	3005.1
968.2607	2407.8041	3862.95	2977.65
968.3909	2409.1918	3861.65	2976.45
968.521	2410.5789	3844.2	2961.75
968.651	2411.9652	3822.45	2937.05
968.781	2413.3508	3820.55	2940.4
968.911	2414.7358	3804.7	2921.6
969.041	2416.12	3783.3	2900.15
969.1709	2417.5035	3781.65	2899.75
969.3008	2418.8863	3774.95	2890.7
969.4307	2420.2684	3766.7	2884.5
969.5606	2421.6497	3752.05	2869.25
969.6904	2423.0304	3725.45	2846.45
969.8201	2424.4104	3722.55	2840.75
969.9499	2425.7896	3716.2	2833.7
970.0796	2427.1682	3703.65	2820.4
970.2093	2428.546	3687.8	2805.95
970.3389	2429.9232	3694.9	2812.85
970.4685	2431.2996	3680.5	2799.8
970.5981	2432.6753	3679.85	2797.55
970.7277	2434.0503	3658.9	2777.05
970.8572	2435.4246	3649.85	2767.65
970.9867	2436.7982	3640.2	2757.2
971.1161	2438.1711	3624.65	2743.3
971.2456	2439.5433	3620.4	2738.05
971.375	2440.9148	3603.1	2714.5
971.5043	2442.2856	3597.15	2714.75
971.6336	2443.6557	3580.75	2696.95
971.7629	2445.025	3568.6	2687.6
971.8922	2446.3937	3573.95	2689.3
972.0214	2447.7617	3557.05	2673.4
972.1506	2449.1289	3561.15	2679.8
972.2798	2450.4955	3548.35	2663.8
972.4089	2451.8613	3527.55	2647.9
972.538	2453.2265	3520.55	2639.35
972.6671	2454.5909	3527.85	2645.8
972.7961	2455.9546	3511.85	2630.5
972.9251	2457.3177	3487.2	2606.25
973.0541	2458.68	3482.75	2599.25
973.1831	2460.0416	3472.75	2590.75
973.312	2461.4025	3481.15	2598.2
973.4408	2462.7627	3481.8	2588
973.5697	2464.1222	3468.6	2588.1
973.6985	2465.4811	3449.95	2569.25
973.8273	2466.8392	3446.15	2564.8
973.956	2468.1966	3444.95	2561.45
974.0847	2469.5533	3432.3	2548.6
974.2134	2470.9093	3417.7	2535.4
974.3421	2472.2645	3410.8	2530.3
974.4707	2473.6191	3397.25	2515.6
974.5993	2474.973	3378.85	2496.8
974.7278	2476.3262	3381.4	2500.55
974.8563	2477.6787	3386.9	2506
974.9848	2479.0305	3375.2	2493.7
975.1132	2480.3816	3349.3	2466
975.2417	2481.7319	3349.15	2470.6
975.37	2483.0816	3336.85	2453.95
975.4984	2484.4306	3322.55	2438.5
975.6267	2485.7789	3320.5	2440.9
975.755	2487.1264	3292.75	2411.55
975.8833	2488.4733	3290.9	2410.45
976.0115	2489.8195	3284.4	2395.15
976.1397	2491.165	3261.8	2377.55
976.2678	2492.5097	3267	2383.9
976.3959	2493.8538	3255.75	2376.75
976.524	2495.1972	3240.65	2360.1
976.6521	2496.5398	3224.75	2341.6
976.7801	2497.8818	3227	2344.25
976.9081	2499.2231	3208.75	2328.15
977.036	2500.5637	3197.9	2314.8
977.164	2501.9035	3203.35	2319.4
977.2918	2503.2427	3193.75	2309.2
977.4197	2504.5812	3171.3	2290.5
977.5475	2505.919	3184.85	2301.55
977.6753	2507.256	3171.35	2288.75
977.8031	2508.5924	3158.7	2277.35
977.9308	2509.9281	3161.25	2274.8
978.0585	2511.2631	3141.75	2261.2
978.1861	2512.5974	3133.1	2252.1
978.3137	2513.9309	3117.1	2234.75
978.4413	2515.2638	3139.6	2229.8
978.5689	2516.596	3120.1	2239.45
978.6964	2517.9275	3094.25	2211.9
978.8239	2519.2583	3074.9	2190.75
978.9513	2520.5884	3080.3	2198.15
979.0788	2521.9178	3072.3	2191.3
979.2062	2523.2465	3064.4	2182.95
979.3335	2524.5745	3053.45	2172.35
979.4608	2525.9018	3041.9	2159.65
979.5881	2527.2284	3032.95	2152.95
979.7154	2528.5543	3018.45	2138.7
979.8426	2529.8796	3022.8	2142.75
979.9698	2531.2041	3022.9	2141.45
980.0969	2532.5279	3005.95	2127
980.224	2533.851	3004.35	2123.75
980.3511	2535.1735	3006.9	2125.35
980.4781	2536.4952	3000	2117.6
980.6052	2537.8163	2973.7	2091.1
980.7321	2539.1366	2968.5	2085.4
980.8591	2540.4562	2966.75	2083.15
980.986	2541.7752	2970.3	2087.35
981.1129	2543.0935	2946.8	2065.2
981.2397	2544.411	2953.55	2071.1
981.3665	2545.7279	2959	2076.5
981.4933	2547.0441	2944.2	2062.4
981.62	2548.3596	2947.2	2063.55
981.7467	2549.6744	2939.8	2057.4
981.8734	2550.9885	2928.2	2039.7
982.0001	2552.3019	2915.5	2034.6
982.1267	2553.6146	2922	2040.05
982.2532	2554.9266	2900.9	2019.5
982.3798	2556.2379	2899.9	2017
982.5063	2557.5485	2887.35	2007.35
982.6327	2558.8585	2888.65	1998.75
982.7592	2560.1677	2893.55	2007.6
982.8856	2561.4762	2877.3	1994.05
983.0119	2562.7841	2864.55	1981
983.1383	2564.0913	2863.45	1983.6
983.2646	2565.3977	2861.25	1981.5
983.3908	2566.7035	2847.9	1967.8
983.517	2568.0086	2847.65	1964.95
983.6432	2569.313	2852.4	1970.55
983.7694	2570.6167	2845	1959.75
983.8955	2571.9197	2823.5	1943.25
984.0216	2573.222	2824.9	1939.1
984.1476	2574.5236	2809.15	1926.55
984.2737	2575.8246	2819.45	1933.4
984.3996	2577.1248	2813.8	1930.3
984.5256	2578.4244	2804.45	1924.5
984.6515	2579.7232	2807.35	1926.9
984.7774	2581.0214	2822.25	1916.2
984.9032	2582.3189	2796.2	1917.35
985.029	2583.6157	2795.1	1909.95
985.1548	2584.9118	2771.55	1889.75
985.2806	2586.2072	2767.4	1886.3
985.4063	2587.5019	2758.85	1877.8
985.5319	2588.7959	2760.7	1877.9
985.6576	2590.0893	2754.65	1871.35
985.7832	2591.3819	2749.2	1866.75
985.9087	2592.6739	2742.05	1861.75
986.0343	2593.9652	2744.95	1865.05
986.1597	2595.2557	2728.35	1847.95
986.2852	2596.5456	2721.05	1837.75
986.4106	2597.8348	2706.6	1826.85
986.536	2599.1234	2689.65	1808.05
986.6614	2600.4112	2696.4	1816.65
986.7867	2601.6983	2690.3	1803.3
986.912	2602.9848	2682.4	1800.9
987.0372	2604.2705	2673.55	1784.95
987.1624	2605.5556	2674.95	1794.15
987.2876	2606.84	2655.65	1773.75
987.4128	2608.1237	2648.6	1765.3
987.5379	2609.4067	2640.25	1757.65
987.6629	2610.689	2642.9	1751.75
987.788	2611.9707	2627.6	1742.8
987.913	2613.2516	2611.55	1725.15
988.0379	2614.5319	2606.55	1726.5
988.1629	2615.8115	2599.25	1715.6
988.2878	2617.0903	2589.35	1706.65
988.4126	2618.3685	2590	1709.6
988.5375	2619.6461	2584.75	1703.55
988.6622	2620.9229	2577.2	1694.85
988.787	2622.199	2577.45	1695.45
988.9117	2623.4745	2560.1	1680.65
989.0364	2624.7493	2548.7	1667.9
989.161	2626.0234	2553.55	1673.6
989.2857	2627.2968	2544.75	1663.1
989.4102	2628.5695	2534.6	1652.5
989.5348	2629.8415	2528.45	1649.1
989.6593	2631.1128	2518.15	1634.85
989.7837	2632.3835	2514.55	1634.1
989.9082	2633.6535	2488.95	1608.4
990.0326	2634.9228	2496.55	1614.9
990.1569	2636.1914	2489.5	1606.65
990.2812	2637.4593	2481.35	1593.2
990.4055	2638.7265	2480.65	1600.85
990.5298	2639.9931	2471.35	1591.1
990.654	2641.259	2474.4	1592.2
990.7782	2642.5242	2456.7	1575.85
990.9023	2643.7887	2446.55	1564.1
991.0264	2645.0525	2453.6	1571.55
991.1505	2646.3156	2438.9	1557.75
991.2745	2647.5781	2418.95	1539.8
991.3985	2648.8398	2422.35	1539.05
991.5225	2650.1009	2428.95	1538.85
991.6464	2651.3613	2421.05	1540.35
991.7703	2652.6211	2411.25	1529.5
991.8942	2653.8801	2415.55	1535.1
992.018	2655.1385	2402.8	1518.25
992.1418	2656.3961	2387.7	1508.1
992.2655	2657.6531	2386.45	1503.85
992.3892	2658.9094	2388.35	1507.55
992.5129	2660.1651	2379.85	1499.2
992.6366	2661.42	2371.65	1491.2
992.7602	2662.6743	2370.75	1490.6
992.8837	2663.9279	2369.7	1487.3
993.0073	2665.1808	2355.8	1473.55
993.1307	2666.433	2356.95	1474.45
993.2542	2667.6846	2360.5	1479.65
993.3776	2668.9354	2349.05	1465.05
993.501	2670.1856	2347.85	1466.15
993.6244	2671.4351	2332.35	1452.5
993.7477	2672.6839	2339.55	1460.35
993.8709	2673.9321	2326.25	1445.25
993.9942	2675.1795	2325.35	1444.95
994.1174	2676.4263	2319.7	1438.2
994.2405	2677.6724	2303.65	1423
994.3637	2678.9179	2297.25	1414.8
994.4868	2680.1626	2308.6	1428.5
994.6098	2681.4067	2293.25	1412.55
994.7328	2682.6501	2289.75	1407.55
994.8558	2683.8928	2278.45	1398.7
994.9788	2685.1348	2269.2	1389.75
995.1017	2686.3761	2261.25	1380.05
995.2245	2687.6168	2266.85	1384.3
995.3474	2688.8568	2251.5	1370.55
995.4702	2690.0961	2247.3	1366.7
995.5929	2691.3348	2243.4	1360.3
995.7156	2692.5727	2229.7	1349.7
995.8383	2693.81	2240.85	1358.2
995.961	2695.0466	2226.25	1346.55
996.0836	2696.2826	2221.9	1338
996.2062	2697.5178	2227.25	1343.65
996.3287	2698.7524	2217.9	1337.05
996.4512	2699.9863	2219.55	1336.85
996.5737	2701.2195	2203.15	1323.7
996.6961	2702.452	2203.1	1319.95
996.8185	2703.6839	2187.9	1305.35
996.9408	2704.9151	2187.45	1306.7
997.0631	2706.1456	2185.4	1304.15
997.1854	2707.3755	2183.9	1303.5
997.3077	2708.6046	2184.25	1300.15
997.4299	2709.8331	2168.65	1287.65
997.552	2711.0609	2176.15	1295.45
997.6742	2712.2881	2154.85	1274
997.7963	2713.5145	2149.9	1264.25
997.9183	2714.7403	2147.75	1269.05
998.0403	2715.9654	2146.45	1263.6
998.1623	2717.1899	2146.65	1251
998.2842	2718.4136	2145.2	1264.35
998.4062	2719.6367	2134.35	1255.1
998.528	2720.8591	2141.2	1253
998.6498	2722.0809	2134.75	1252.65
998.7716	2723.3019	2120.75	1238
998.8934	2724.5223	2108.75	1227.5
999.0151	2725.7421	2108.85	1226.95
999.1368	2726.9611	2105.65	1222.65
999.2584	2728.1795	2088.1	1203.6
999.38	2729.3972	2081.7	1201.55
999.5016	2730.6142	2095.4	1201.55
999.6231	2731.8306	2074.75	1193.65
999.7446	2733.0462	2074	1190.5
999.8661	2734.2612	2061.05	1174.6
999.9875	2735.4756	2054.05	1172.1
1000.1089	2736.6892	2041.15	1158.45
1000.2302	2737.9022	2040.15	1158.5
1000.3515	2739.1145	2046.6	1165.85
1000.4728	2740.3262	2047.8	1160.4
1000.594	2741.5372	2032.05	1152.3
1000.7152	2742.7475	2020.65	1140.15
1000.8363	2743.9571	2026.85	1143.15
1000.9575	2745.1661	2023	1137.7
1001.0785	2746.3744	2010.25	1128
1001.1996	2747.582	2001.35	1120.95
1001.3206	2748.7889	2000.05	1117.9
1001.4415	2749.9952	1993.3	1110.3
1001.5625	2751.2008	1988.35	1109.2
1001.6833	2752.4057	1997.3	1114.2
1001.8042	2753.61	1979	1098.15
1001.925	2754.8136	1972.85	1087.9
1002.0458	2756.0165	1975.35	1096.15
1002.1665	2757.2188	1963.85	1084.65
1002.2872	2758.4204	1957.85	1076.55
1002.4078	2759.6213	1957.85	1074.55
1002.5285	2760.8215	1961.2	1076.45
1002.649	2762.0211	1948.8	1067
1002.7696	2763.22	1953.3	1071.25
1002.8901	2764.4182	1940.3	1057.05
1003.0106	2765.6158	1940.05	1059.4
1003.131	2766.8127	1931.8	1050.5
1003.2514	2768.009	1927.3	1046.55
1003.3717	2769.2045	1925.9	1044.95
1003.492	2770.3994	1921.15	1039.1
1003.6123	2771.5936	1918.85	1039.3
1003.7325	2772.7872	1908.9	1028.65
1003.8527	2773.9801	1908.95	1025.9
1003.9729	2775.1723	1913.85	1018.3
1004.093	2776.3639	1902.1	1021.25
1004.2131	2777.5548	1892.65	1009.3
1004.3331	2778.745	1889.25	1006
1004.4531	2779.9346	1886.35	1005.45
1004.5731	2781.1235	1886.85	1005.55
1004.693	2782.3117	1876.9	996.7
1004.8129	2783.4992	1873.5	994.25
1004.9328	2784.6861	1877.25	996.85
1005.0526	2785.8723	1858.05	978.35
1005.1723	2787.0579	1867.5	986.1
1005.2921	2788.2428	1859.15	977.95
1005.4118	2789.427	1844.5	963.8
1005.5314	2790.6106	1851.35	970.5
1005.651	2791.7935	1848.2	966.15
1005.7706	2792.9757	1833.8	952.5
1005.8902	2794.1573	1836.3	954.1
1006.0097	2795.3382	1834.15	954.9
1006.1291	2796.5184	1822.1	943.5
1006.2485	2797.698	1817.9	935.3
1006.3679	2798.8769	1816.6	938.75
1006.4873	2800.0551	1811.3	928.7
1006.6066	2801.2327	1818.3	933.6
1006.7258	2802.4096	1799.1	919.35
1006.8451	2803.5859	1800.6	919.8
1006.9642	2804.7615	1801.25	921
1007.0834	2805.9364	1790.05	910.65
1007.2025	2807.1106	1787.05	906.65
1007.3216	2808.2842	1790.25	910.5
1007.4406	2809.4572	1778.05	897.85
1007.5596	2810.6294	1782.3	901.75
1007.6785	2811.801	1775.2	894.45
1007.7975	2812.972	1775.35	895.25
1007.9163	2814.1423	1775.3	894.95
1008.0352	2815.3119	1767.55	887.1
1008.154	2816.4808	1760.8	880.85
1008.2727	2817.6491	1783.4	893.5
1008.3914	2818.8167	1775.9	896.1
1008.5101	2819.9837	1784.9	898.9
1008.6288	2821.15	1779.55	898.75
1008.7474	2822.3157	1776.85	896.15
1008.8659	2823.4807	1785.7	904.3
1008.9844	2824.645	1795.35	912.5
1009.1029	2825.8086	1794	913.55
1009.2214	2826.9716	1799.65	919.1
1009.3398	2828.134	1812.1	932.05
1009.4581	2829.2957	1818.15	936.95
1009.5764	2830.4567	1807.55	929.3
1009.6947	2831.617	1811.4	931.9
1009.813	2832.7767	1813.45	934.95
1009.9312	2833.9358	1809.2	931.6
1010.0493	2835.0941	1809.2	926.15
1010.1675	2836.2519	1805	924.35
1010.2855	2837.4089	1798.1	917.85
1010.4036	2838.5653	1786.55	903.6
1010.5216	2839.7211	1785.5	905.55
1010.6396	2840.8761	1780.3	897.6
1010.7575	2842.0306	1777.15	897.8
1010.8754	2843.1843	1779.25	899.7
1010.9932	2844.3374	1779.45	899.3
1011.111	2845.4899	1771.05	888.6
1011.2288	2846.6417	1771.25	894.3
1011.3465	2847.7928	1781.6	901.85
1011.4642	2848.9433	1770	890
1011.5818	2850.0931	1766.3	885.55
1011.6995	2851.2422	1773	889.45
1011.817	2852.3907	1766.25	883.95
1011.9345	2853.5385	1779.95	897.4
1012.052	2854.6857	1768.55	878.45
1012.1695	2855.8323	1769.35	890.45
1012.2869	2856.9781	1758.5	878.25
1012.4042	2858.1233	1759.8	880.45
1012.5216	2859.2679	1761.55	882.6
1012.6389	2860.4118	1759.05	878.95
1012.7561	2861.555	1768.3	881.75
1012.8733	2862.6976	1769	888.4
1012.9905	2863.8395	1755.8	876.8
1013.1076	2864.9808	1764.5	880.95
1013.2247	2866.1214	1763.25	885.6
1013.3417	2867.2614	1773.4	894.05
1013.4587	2868.4007	1758	875.5
1013.5757	2869.5393	1758.15	876.4
1013.6926	2870.6773	1763.95	881.95
1013.8095	2871.8146	1762.7	881.55
1013.9263	2872.9513	1761.25	878.8
1014.0431	2874.0874	1751.1	870.8
1014.1599	2875.2227	1752.6	871.4
1014.2766	2876.3574	1746.25	866.1
1014.3933	2877.4915	1748.45	868.15
1014.51	2878.6249	1740.6	862.1
1014.6266	2879.7577	1745.7	863.55
1014.7431	2880.8898	1757.95	867.45
1014.8596	2882.0212	1746.85	865.75
1014.9761	2883.152	1743.25	861.7
1015.0925	2884.2821	1742.85	863.55
1015.2089	2885.4116	1733.4	852.45
1015.3253	2886.5405	1736.6	856.55
1015.4416	2887.6686	1744	860.05
1015.5579	2888.7962	1735.3	857.7
1015.6741	2889.923	1733.1	854.95
1015.7903	2891.0493	1721.55	842.85
1015.9065	2892.1748	1721.7	842.9
1016.0226	2893.2997	1716.2	834.35
1016.1387	2894.424	1720.7	840.4
1016.2547	2895.5476	1718.7	837.3
1016.3707	2896.6706	1710.15	830.4
1016.4866	2897.7929	1718.45	839
1016.6025	2898.9145	1712.7	832.7
1016.7184	2900.0355	1713.4	831.35
1016.8342	2901.1559	1707.7	825.5
1016.95	2902.2756	1696.55	815.95
1017.0658	2903.3946	1691.15	812.45
1017.1815	2904.513	1691.2	807.8
1017.2971	2905.6308	1681.85	800.25
1017.4127	2906.7479	1679.75	800.15
1017.5283	2907.8643	1680.95	798.7
1017.6439	2908.9801	1672.75	794.25
1017.7594	2910.0953	1671.75	790.5
1017.8748	2911.2098	1674.3	791.7
1017.9902	2912.3236	1674.25	785.45
1018.1056	2913.4368	1662.65	779.85
1018.2209	2914.5494	1656.3	776.35
1018.3362	2915.6613	1660.05	775.6
1018.4515	2916.7725	1647.2	764.75
1018.5667	2917.8831	1649.85	769.1
1018.6819	2918.9931	1647	763.95
1018.797	2920.1024	1631.85	750.4
1018.9121	2921.211	1629.45	749.2
1019.0271	2922.319	1619.8	740.2
1019.1421	2923.4264	1621.2	741.75
1019.2571	2924.5331	1614.05	733.5
1019.372	2925.6391	1616.8	737.45
1019.4869	2926.7445	1613	734.1
1019.6017	2927.8493	1620.75	740.65
1019.7165	2928.9534	1607.7	727
1019.8313	2930.0569	1604.75	721.25
1019.946	2931.1597	1603.7	720.55
1020.0606	2932.2619	1604.2	723.5
1020.1753	2933.3634	1600.05	718.8
1020.2899	2934.4643	1620.9	733.15
1020.4044	2935.5645	1613.7	728.9
1020.5189	2936.6641	1604.4	720.05
1020.6334	2937.763	1600.9	721.8
1020.7478	2938.8613	1606.6	725.85
1020.8622	2939.959	1606.4	721.55
1020.9765	2941.056	1588	709.55
1021.0908	2942.1523	1578.5	697.8
1021.2051	2943.248	1573.25	693.55
1021.3193	2944.3431	1559.15	680.3
1021.4334	2945.4375	1545.45	665.55
1021.5476	2946.5313	1537.3	659.25
1021.6617	2947.6244	1530.45	649.35
1021.7757	2948.7169	1521.15	640.85
1021.8897	2949.8087	1517.95	635.65
1022.0037	2950.8999	1493.35	612.9
1022.1176	2951.9904	1485.7	605.2
1022.2315	2953.0803	1484.45	602.1
1022.3453	2954.1696	1476.8	597
1022.4591	2955.2582	1474.95	596.2
1022.5728	2956.3462	1463.25	584.1
1022.6865	2957.4335	1461.65	579.35
1022.8002	2958.5202	1455.15	573.4
1022.9138	2959.6062	1452.9	574.2
1023.0274	2960.6916	1455.9	576.95
1023.141	2961.7764	1451.3	567.2
1023.2545	2962.8605	1445.8	563.15
1023.3679	2963.9439	1448.4	568.45
1023.4813	2965.0267	1447.5	565.75
1023.5947	2966.1089	1454.45	550.55
1023.708	2967.1905	1429.5	550.2
1023.8213	2968.2714	1435.25	555.3
1023.9346	2969.3516	1423.8	543.25
1024.0478	2970.4312	1434.8	544.95
1024.1609	2971.5102	1426.7	545.9
1024.274	2972.5885	1422.85	542.8
1024.3871	2973.6662	1429.7	543.5
1024.5002	2974.7432	1419.6	540.5
1024.6132	2975.8196	1419.2	540.1
1024.7261	2976.8954	1417.3	537.55
1024.839	2977.9705	1405.05	524
1024.9519	2979.045	1413.1	533.7
1025.0647	2980.1188	1405.05	526.5
1025.1775	2981.192	1406.9	528.85
1025.2902	2982.2645	1405.6	524.45
1025.4029	2983.3364	1394.9	513.95
1025.5156	2984.4077	1393.1	513.5
1025.6282	2985.4783	1393.55	508.35
1025.7407	2986.5483	1380.95	501.85
1025.8532	2987.6177	1381.35	501.55
1025.9657	2988.6864	1377.05	496.4
1026.0782	2989.7545	1377.15	497.6
1026.1906	2990.8219	1369.9	488.65
1026.3029	2991.8887	1368.75	489.4
1026.4152	2992.9548	1361.45	479.55
1026.5275	2994.0204	1362.9	484.35
1026.6397	2995.0852	1348.9	471.7
1026.7519	2996.1495	1350	467.55
1026.864	2997.2131	1349.65	468.1
1026.9761	2998.276	1335.85	454.5
1027.0882	2999.3383	1336.2	454.6
1027.2002	3000.4	1333	454.4
1027.3122	3001.4611	1327.1	446.6
1027.4241	3002.5215	1321.2	440.45
1027.536	3003.5812	1319.7	439.5
1027.6478	3004.6404	1319.4	438.65
1027.7596	3005.6989	1317.85	435.3
1027.8714	3006.7567	1314.15	437.1
1027.9831	3007.8139	1326.7	422.4
1028.0947	3008.8705	1306.05	427.65
1028.2064	3009.9264	1309.35	424.95
1028.3179	3010.9818	1303.35	422.9
1028.4295	3012.0364	1298.8	417.75
1028.541	3013.0905	1296.35	416.1
1028.6524	3014.1439	1298.2	418
1028.7638	3015.1966	1295.85	416.5
1028.8752	3016.2487	1293.85	412.05
1028.9865	3017.3002	1295.1	408.45
1029.0978	3018.3511	1284.8	406.65
1029.209	3019.4013	1284.2	405.75
1029.3202	3020.4509	1282.65	402.35
1029.4314	3021.4998	1282.45	399.75
1029.5425	3022.5481	1282.1	400.45
1029.6535	3023.5958	1275.7	394.05
1029.7645	3024.6428	1276.2	395.85
1029.8755	3025.6892	1272.95	395.4
1029.9864	3026.735	1272.25	391.45
1030.0973	3027.7802	1272.65	393.05
1030.2082	3028.8247	1268.7	389.45
1030.319	3029.8685	1273.25	393.4
1030.4297	3030.9118	1262.7	381.85
1030.5404	3031.9544	1259.05	379.55
1030.6511	3032.9963	1256.2	376
1030.7617	3034.0376	1257.1	378.35
1030.8723	3035.0783	1263	379.7
1030.9829	3036.1184	1262.7	382.15
1031.0934	3037.1578	1249.1	370.8
1031.2038	3038.1966	1255.15	373.5
1031.3142	3039.2348	1251.55	372.15
1031.4246	3040.2723	1258.55	369.15
1031.5349	3041.3092	1249.35	371.65
1031.6452	3042.3455	1252.05	371.5
1031.7554	3043.3811	1253.2	373.75
1031.8656	3044.4161	1244.85	363.45
1031.9758	3045.4505	1242	364.5
1032.0859	3046.4842	1239.15	358.5
1032.1959	3047.5173	1233.85	355.4
1032.3059	3048.5498	1235.8	357.85
1032.4159	3049.5816	1239	358.95
1032.5258	3050.6128	1236.45	356.05
1032.6357	3051.6434	1240.4	357.35
1032.7455	3052.6734	1235.8	356
1032.8553	3053.7027	1229.8	350.05
1032.9651	3054.7314	1224.1	344.25
1033.0748	3055.7594	1224.6	345.55
1033.1845	3056.7868	1231.15	351.05
1033.2941	3057.8136	1226.2	348.2
1033.4037	3058.8398	1224.85	346.9
1033.5132	3059.8653	1227.45	347
1033.6227	3060.8902	1225.25	344.45
1033.7321	3061.9145	1223.95	343.5
1033.8415	3062.9381	1223.4	343.65
1033.9509	3063.9612	1233.5	340.1
1034.0602	3064.9835	1220	340.05
1034.1694	3066.0053	1225.05	344.65
1034.2787	3067.0264	1214.55	333.8
1034.3878	3068.0469	1217.2	336.25
1034.497	3069.0668	1220.95	339.05
1034.6061	3070.086	1216.4	337.95
1034.7151	3071.1046	1211.1	330.15
1034.8241	3072.1226	1215	334.3
1034.9331	3073.1399	1213.15	335.05
1035.042	3074.1567	1203.5	323.7
1035.1508	3075.1727	1207.5	324.3
1035.2597	3076.1882	1202.1	323.55
1035.3684	3077.203	1201.7	320.95
1035.4772	3078.2173	1201.2	319.15
1035.5859	3079.2308	1196.7	315.3
1035.6945	3080.2438	1195	311.1
1035.8031	3081.2561	1194.95	315.3
1035.9117	3082.2678	1196.6	317.15
1036.0202	3083.2789	1189.75	309.75
1036.1286	3084.2893	1189.5	311.45
1036.2371	3085.2991	1186.9	308.95
1036.3454	3086.3083	1187.8	303.6
1036.4538	3087.3169	1181.75	300.9
1036.562	3088.3248	1181.9	301.4
1036.6703	3089.3321	1183.1	300.55
1036.7785	3090.3388	1178.25	299.45
1036.8866	3091.3449	1179.4	300.4
1036.9948	3092.3503	1182.1	299.85
1037.1028	3093.3551	1170	290.25
1037.2108	3094.3593	1175.3	296.6
1037.3188	3095.3629	1171.55	293.1
1037.4267	3096.3658	1170.45	289.1
1037.5346	3097.3681	1172.65	294.35
1037.6425	3098.3698	1164.65	284.1
1037.7503	3099.3708	1167.7	283.25
1037.858	3100.3713	1160.85	279.95
1037.9657	3101.3711	1160.75	279.65
1038.0734	3102.3702	1295.85	277.75
1038.181	3103.3688	1165.55	282.65
1038.2886	3104.3667	1153.15	274.85
1038.3961	3105.364	1157.6	278.9
1038.5036	3106.3607	1154.25	272.6
1038.611	3107.3568	1156.1	274.9
1038.7184	3108.3522	1151.55	272.05
1038.8257	3109.347	1149.05	267.6
1038.933	3110.3412	1152.9	270.75
1039.0403	3111.3348	1151.05	271.05
1039.1475	3112.3277	1142.55	263.1
1039.2547	3113.32	1142	263.7
1039.3618	3114.3117	1142.45	263.3
1039.4689	3115.3028	1138	257.05
1039.5759	3116.2932	1144	263.4
1039.6829	3117.2831	1141.85	257.5
1039.7898	3118.2723	1136.25	256.65
1039.8967	3119.2608	1134.5	252.95
1040.0035	3120.2488	1128.15	247.6
1040.1103	3121.2361	1125.4	246
1040.2171	3122.2229	1124.95	245.3
1040.3238	3123.209	1127.9	247.55
1040.4305	3124.1944	1119.8	240.25
1040.5371	3125.1793	1124.85	243
1040.6437	3126.1635	1128.75	249.5
1040.7502	3127.1471	1120.4	242.65
1040.8567	3128.1301	1118.5	237.2
1040.9631	3129.1125	1120.4	243.85
1041.0695	3130.0942	1120.65	240.45
1041.1759	3131.0753	1128.85	239.6
1041.2822	3132.0558	1120.4	239.6
1041.3884	3133.0357	1124.45	241.9
1041.4946	3134.015	1115.15	234.45
1041.6008	3134.9936	1116.9	236.05
1041.7069	3135.9716	1132.25	230.45
1041.813	3136.949	1116.35	237.05
1041.919	3137.9258	1115.3	229.15
1042.025	3138.902	1109	224.45
1042.1309	3139.8775	1107.55	229.85
1042.2368	3140.8524	1103.05	223.45
1042.3427	3141.8267	1110.5	229.3
1042.4485	3142.8004	1105.2	225.55
1042.5542	3143.7735	1107.6	220.45
1042.6599	3144.7459	1107.25	225.3
1042.7656	3145.7178	1106.35	226.05
1042.8712	3146.689	1103.2	225.7
1042.9768	3147.6596	1101.25	218.9
1043.0823	3148.6295	1096.9	217.1
1043.1878	3149.5989	1100.4	222
1043.2932	3150.5676	1097.5	218.75
1043.3986	3151.5357	1092.35	214.6
1043.5039	3152.5032	1093.95	215.95
1043.6092	3153.4701	1092.7	214.4
1043.7145	3154.4364	1091.25	209.75
1043.8197	3155.402	1087.85	210.4
1043.9248	3156.367	1094.25	213.5
1044.03	3157.3315	1127.75	209.45
1044.135	3158.2952	1087.7	206.65
1044.24	3159.2584	1089.45	209.65
1044.345	3160.221	1078.25	196.6
1044.4499	3161.1829	1081.9	200.1
1044.5548	3162.1442	1082.65	205.6
1044.6596	3163.105	1081.6	202.6
1044.7644	3164.065	1081.1	201
1044.8692	3165.0245	1082.75	199.2
1044.9739	3165.9834	1083	204
1045.0785	3166.9416	1072.25	193.2
1045.1831	3167.8993	1079	199
1045.2877	3168.8563	1072.8	192.45
1045.3922	3169.8127	1070.15	191.7
1045.4966	3170.7684	1072.6	194.25
1045.6011	3171.7236	1074.05	193.4
1045.7054	3172.6782	1072.35	193.4
1045.8098	3173.6321	1067.75	188.45
1045.914	3174.5854	1074.25	190.15
1046.0183	3175.5381	1069.15	189.85
1046.1224	3176.4902	1065.8	186.8
1046.2266	3177.4417	1060.7	181.75
1046.3307	3178.3926	1064.4	186.2
1046.4347	3179.3428	1061.9	184
1046.5387	3180.2924	1062.3	183
1046.6427	3181.2415	1063.2	183
1046.7466	3182.1899	1062.5	181.9
1046.8504	3183.1377	1061.95	182.95
1046.9542	3184.0848	1058.75	176.8
1047.058	3185.0314	1055.8	175.35
1047.1617	3185.9773	1058.85	181.55
1047.2654	3186.9227	1053.5	173.35
1047.369	3187.8674	1055.65	177.5
1047.4726	3188.8115	1057.45	172.85
1047.5761	3189.755	1052.35	170.9
1047.6796	3190.6979	1047.85	168.65
1047.783	3191.6402	1047.2	167.65
1047.8864	3192.5818	1049.25	170.15
1047.9898	3193.5229	1056.8	171.35
1048.0931	3194.4633	1047.1	167.2
1048.1963	3195.4031	1052.45	173.75
1048.2995	3196.3423	1048.6	166.35
1048.4027	3197.2809	1051.25	171.1
1048.5058	3198.2189	1044.75	164.45
1048.6089	3199.1563	1053.35	167.95
1048.7119	3200.0931	1042.5	163.25
1048.8148	3201.0292	1042.6	162.35
1048.9178	3201.9648	1042.5	162.45
1049.0206	3202.8997	1045.5	163.8
1049.1235	3203.834	1038.1	158.7
1049.2262	3204.7677	1037.85	157.15
1049.329	3205.7008	1038.85	158.25
1049.4317	3206.6333	1036.15	155
1049.5343	3207.5652	1039.65	159.15
1049.6369	3208.4964	1037.2	158.8
1049.7394	3209.4271	1036	156.5
1049.8419	3210.3571	1035.8	157.6
1049.9444	3211.2865	1032.9	151.7
1050.0468	3212.2154	1034.9	154.3
1050.1491	3213.1436	1036.75	153
1050.2514	3214.0712	1035.05	150.35
1050.3537	3214.9982	1032.3	153.3
1050.4559	3215.9246	1030.65	150.35
1050.5581	3216.8503	1025.7	148.3
1050.6602	3217.7755	1027.15	145.65
1050.7623	3218.7001	1028.55	148.6
1050.8643	3219.624	1027.3	148.2
1050.9663	3220.5473	1022.3	142.45
1051.0682	3221.4701	1027.6	146.6
1051.1701	3222.3922	1025.75	143.7
1051.2719	3223.3137	1026.05	147.2
1051.3737	3224.2346	1021.95	142.55
1051.4754	3225.1549	1021.7	143.95
1051.5771	3226.0746	1023.7	144.2
1051.6788	3226.9937	1023.55	143.55
1051.7804	3227.9121	1017.6	138.65
1051.8819	3228.83	1019.3	139.5
1051.9834	3229.7473	1019.6	138.05
1052.0849	3230.6639	1019.65	138.35
1052.1863	3231.5799	1016.5	136.7
1052.2876	3232.4954	1017.6	135.95
1052.3889	3233.4102	1018	138.2
1052.4902	3234.3244	1012.2	133.35
1052.5914	3235.238	1012.5	132.25
1052.6926	3236.151	1039.4	137.15
1052.7937	3237.0634	1007.6	129.2
1052.8948	3237.9752	1007.55	128.6
1052.9958	3238.8864	1010.5	130.2
1053.0968	3239.797	1009.65	129.8
1053.1977	3240.7069	1005.95	125.75
1053.2986	3241.6163	1013.85	131.15
1053.3994	3242.5251	1005.4	128.7
1053.5002	3243.4332	1006.25	127.15
1053.6009	3244.3408	1006.25	127.6
1053.7016	3245.2477	1004.55	125.05
1053.8022	3246.154	1003.65	123.8
1053.9028	3247.0598	1004.5	123.05
1054.0034	3247.9649	1002.25	122.2
1054.1039	3248.8694	1001.15	121.4
1054.2043	3249.7733	1003.15	122.15
1054.3047	3250.6766	999.85	120.7
1054.4051	3251.5793	1000.7	121.2
1054.5054	3252.4814	999.75	121.3
1054.6056	3253.3829	996.7	117.7
1054.7058	3254.2838	1000.15	119.1
1054.806	3255.1841	995.75	119.05
1054.9061	3256.0838	994	114.9
1055.0061	3256.9829	993.8	115.1
1055.1062	3257.8814	995.45	113.7
1055.2061	3258.7792	998.55	116.95
1055.306	3259.6765	987.75	106.5
1055.4059	3260.5731	991.9	112.55
1055.5057	3261.4692	990	109.7
1055.6055	3262.3647	990.7	109.5
1055.7052	3263.2595	984.3	103.35
1055.8049	3264.1538	983.55	103.8
1055.9045	3265.0474	985.4	104.65
1056.0041	3265.9404	982.15	101.75
1056.1036	3266.8329	980.1	101.85
1056.2031	3267.7247	989.1	99.85
1056.3025	3268.616	973.3	93.85
1056.4019	3269.5066	971.35	90.7
1056.5013	3270.3966	974	93.45
1056.6005	3271.286	966.5	86.85
