Software Version:	3.9.2.0
Unit SN:	10000200
Spectrometer SN:	6960
Date:	3/6/2024 9:57:27 AM
Data Line Index:	25
Spectral Points:	2048
Integration time (ms):	125
Averages:	20
Delay (ms):	30
Sequence Number:	1
Processing:	dark subtract
Laser Power (mW):	305
Laser Current (mA):	825
Laser Diode Temp (C):	25.1
Laser Case Temp (C):	24.5
System Temp (C):	24.4
Spectrometer Temp (C):	21.9
CCD Temp (C):	-0.023
Secondary Temp (C):	20
Heatsink Temp (C):	18.232
CCDPCB Temp (C):	31.472
SecondaryPCB Temp (C):	26.303

Wavelength	RamanShift	Raw Counts	Dark Subtracted
787.061	30.1047	700.35	290.85
787.2016	32.3739	712	304.65
787.3422	34.6426	727.75	319.8
787.4828	36.9109	750.25	340.5
787.6235	39.1787	774.6	361.6
787.7642	41.4461	799.75	383.15
787.9049	43.7131	827.2	406.85
788.0456	45.9796	853.75	431.4
788.1863	48.2456	882.05	454.75
788.3271	50.5112	916.7	485.4
788.4679	52.7764	941.25	508.85
788.6087	55.0411	975.95	537.95
788.7496	57.3054	1016.4	574.1
788.8904	59.5692	1052.3	608.05
789.0313	61.8326	1086.2	637.5
789.1722	64.0955	1132.9	682.75
789.3132	66.3579	1193.45	735.3
789.4541	68.6199	1264	804.7
789.5951	70.8815	1388.95	924.6
789.7361	73.1426	1646.65	1178.45
789.8771	75.4032	2307.05	1833.95
790.0181	77.6634	3999.4	3523
790.1592	79.9231	8204.1	7724.8
790.3003	82.1824	18487.4	17999.65
790.4414	84.4412	42097.85	41595.9
790.5825	86.6995	55573.8	55052.95
790.7237	88.9574	59816.85	59281.05
790.8648	91.2148	61634	61088.7
791.006	93.4717	62222.9	61666.85
791.1472	95.7282	62442.6	61882
791.2885	97.9842	62532.1	61973.55
791.4297	100.2398	62565.25	62003.2
791.571	102.4949	62538.1	61973.2
791.7123	104.7495	62567.4	62000.25
791.8536	107.0036	62501.6	61930.9
791.9949	109.2573	62591.4	62023.35
792.1363	111.5105	62529.8	61958.95
792.2777	113.7632	62578.4	62005.1
792.4191	116.0154	62580.25	61995.95
792.5605	118.2672	62624.15	62045
792.7019	120.5185	62642.25	62063.45
792.8434	122.7693	62646.35	62062.2
792.9849	125.0197	62590.65	62004
793.1264	127.2696	62723.85	62132.8
793.2679	129.519	62712.05	62118.05
793.4094	131.7679	62768.75	62173.3
793.551	134.0163	62622.7	62024.45
793.6926	136.2642	62679.65	62075.7
793.8342	138.5117	62790.9	62179.15
793.9758	140.7587	62751.4	62144.45
794.1175	143.0052	62747.85	62139.3
794.2591	145.2512	62672.65	62061.4
794.4008	147.4967	62768.8	62155.55
794.5425	149.7417	62734.75	62120
794.6842	151.9863	62738.3	62117.35
794.826	154.2304	62666.75	62047.45
794.9677	156.4739	62749.3	62120.9
795.1095	158.717	62790.65	62164.75
795.2513	160.9596	62744.75	62111.55
795.3931	163.2017	62668.3	62032.8
795.535	165.4433	62768.6	62131.1
795.6768	167.6844	62727.7	62091.45
795.8187	169.925	62760.4	62119.85
795.9606	172.1651	62733.5	62090.25
796.1025	174.4047	62722.9	62073.5
796.2445	176.6439	62729.65	62078.65
796.3864	178.8825	62727.8	62075.85
796.5284	181.1206	62772.4	62118.85
796.6704	183.3582	62774.9	62115.55
796.8124	185.5954	62749.7	62083.35
796.9544	187.832	62756.95	62089.9
797.0965	190.0681	62713.35	62042
797.2386	192.3037	62811.6	62139.2
797.3806	194.5388	62884.05	62207.3
797.5228	196.7734	62675.45	61997.7
797.6649	199.0075	62856.4	62176.3
797.807	201.2411	62805.3	62124.2
797.9492	203.4742	62913.15	62233.15
798.0914	205.7068	62912.4	62226.05
798.2336	207.9389	62903.25	62215.95
798.3758	210.1704	62898.4	62213.65
798.518	212.4015	62959.6	62284.95
798.6603	214.632	62866	62197.6
798.8025	216.862	62976.4	62313.9
798.9448	219.0915	62942.45	62275.6
799.0871	221.3205	62916.85	62248.7
799.2294	223.549	63015.05	62348
799.3718	225.777	62981.85	62315.95
799.5141	228.0044	63029.9	62356.6
799.6565	230.2314	63018.35	62343.5
799.7989	232.4578	63016.65	62337.45
799.9413	234.6837	63011.25	62323.9
800.0837	236.909	63183.4	62493.4
800.2262	239.1339	62972.1	62260.85
800.3687	241.3582	63057.15	62359.95
800.5111	243.582	63061.2	62332.5
800.6536	245.8053	63082.75	62369.15
800.7961	248.0281	63091.1	62379.15
800.9387	250.2503	63134.45	62416.9
801.0812	252.472	63068.65	62349.15
801.2238	254.6932	63101.45	62384
801.3664	256.9139	63075.1	62358.7
801.509	259.134	63222.5	62500.55
801.6516	261.3536	63036.35	62317.65
801.7942	263.5727	63156.65	62433.75
801.9369	265.7912	63090.9	62370.1
802.0795	268.0092	63114.6	62391.55
802.2222	270.2267	63120.5	62397.95
802.3649	272.4436	63059.8	62334.25
802.5076	274.6601	63124.5	62390.2
802.6504	276.8759	63168.85	62436.6
802.7931	279.0913	63139.95	62408.95
802.9359	281.3061	63148.9	62416.35
803.0787	283.5204	63176.75	62441.7
803.2215	285.7341	63161.8	62420.7
803.3643	287.9473	63239.2	62490.4
803.5071	290.16	63167.55	62422.1
803.6499	292.3721	63223.1	62483.8
803.7928	294.5837	63159.8	62417.8
803.9357	296.7947	63112.05	62375.3
804.0786	299.0052	63210.75	62470
804.2215	301.2152	63147.25	62404.55
804.3644	303.4246	63257.95	62520.4
804.5074	305.6334	63226.4	62489.6
804.6503	307.8418	63119.65	62376.25
804.7933	310.0495	63144.6	62399
804.9363	312.2568	63140.8	62392
805.0793	314.4635	63133.3	62384.7
805.2223	316.6696	63153.75	62403.85
805.3653	318.8752	63200.25	62440.95
805.5084	321.0802	63056.3	62299.5
805.6514	323.2847	63119.05	62363.5
805.7945	325.4887	63127.6	62370.15
805.9376	327.692	63064.65	62307.4
806.0807	329.8949	63125.2	62368.85
806.2238	332.0972	63079.45	62320.2
806.367	334.2989	63116.25	62350.8
806.5101	336.5001	63186.45	62423.5
806.6533	338.7007	63068.4	62306.15
806.7965	340.9008	63113.4	62348.4
806.9397	343.1003	63109	62342.95
807.0829	345.2992	63157	62388.7
807.2261	347.4976	63102.3	62332.55
807.3693	349.6955	63108.85	62334.15
807.5126	351.8927	63059.65	62286
807.6559	354.0895	63122.95	62335.45
807.7991	356.2856	63107.45	62331.3
807.9424	358.4812	63165.65	62391.4
808.0857	360.6763	63076.65	62300.15
808.2291	362.8707	63135.55	62355.65
808.3724	365.0646	63103.25	62318.75
808.5158	367.258	63100.95	62315.5
808.6591	369.4508	63055.25	62268.05
808.8025	371.643	63133.55	62345.75
808.9459	373.8346	63104.7	62315.1
809.0893	376.0257	63085.1	62290.25
809.2327	378.2162	63084.95	62294.95
809.3762	380.4062	63027	62235.05
809.5196	382.5956	63061.4	62270.7
809.6631	384.7844	63082.1	62294.45
809.8066	386.9726	63084.15	62299.85
809.9501	389.1603	63081.65	62297.85
810.0936	391.3474	63018.1	62202.5
810.2371	393.5339	63085	62297.7
810.3806	395.7199	62978.1	62192.6
810.5241	397.9052	63004.4	62219.65
810.6677	400.09	63017.7	62228.25
810.8113	402.2743	63058.9	62271.7
810.9548	404.4579	63009.85	62222.05
811.0984	406.641	63006	62214.8
811.2421	408.8235	63052.15	62258.6
811.3857	411.0054	63032.25	62239.4
811.5293	413.1868	63038.8	62241.15
811.673	415.3675	63020.05	62217.7
811.8166	417.5477	63041.15	62240.6
811.9603	419.7273	63013.65	62209.3
812.104	421.9064	62999.5	62190.9
812.2477	424.0848	63017.25	62210.6
812.3914	426.2627	63021.05	62216.85
812.5351	428.4399	62957.85	62152.7
812.6788	430.6166	62899.45	62090.6
812.8226	432.7928	62966.55	62156.6
812.9663	434.9683	62910	62096.9
813.1101	437.1432	62926.2	62114.3
813.2539	439.3176	62982.55	62173.15
813.3977	441.4914	62867.8	62059.85
813.5415	443.6645	62893.75	62082.3
813.6853	445.8371	62864.5	62055.5
813.8291	448.0091	62834	62020.05
813.973	450.1806	62800.7	61986.3
814.1168	452.3514	62798.7	61984.55
814.2607	454.5216	62785.3	61965.2
814.4046	456.6913	62808.6	61989.45
814.5485	458.8603	62815.6	62001.55
814.6924	461.0288	62749.85	61936.95
814.8363	463.1967	62792.05	61978.75
814.9802	465.3639	62806.15	61991.9
815.1241	467.5306	62712.15	61894.15
815.2681	469.6967	62747.75	61930.55
815.412	471.8622	62731.7	61916.05
815.556	474.0271	62723.4	61909.45
815.7	476.1914	62734.5	61914.3
815.844	478.3551	62739.95	61920.3
815.988	480.5182	62787.35	61968.05
816.132	482.6807	62710.05	61893.9
816.276	484.8426	62749.35	61934.15
816.4201	487.0039	62800.7	61983.95
816.5641	489.1647	62799.3	61977.9
816.7082	491.3248	62710.05	61890.5
816.8522	493.4843	62800.4	61983.05
816.9963	495.6432	62795.6	61973.35
817.1404	497.8015	62713.85	61886.15
817.2845	499.9592	62749.35	61920.85
817.4286	502.1163	62757.25	61926.6
817.5727	504.2728	62743.9	61917.65
817.7168	506.4287	62756.85	61933.9
817.861	508.5839	62702.55	61880.35
818.0051	510.7386	62727.5	61900.5
818.1493	512.8927	62735.15	61907.1
818.2935	515.0461	62720.3	61890.4
818.4377	517.199	62758.55	61927.4
818.5818	519.3512	62737.3	61906.05
818.726	521.5029	62708.4	61870.25
818.8703	523.6539	62727.9	61893.8
819.0145	525.8043	62674.35	61841
819.1587	527.9541	62714.3	61878.75
819.303	530.1033	62697	61859.35
819.4472	532.2519	62670.5	61833.45
819.5915	534.3999	62698.55	61859.05
819.7357	536.5472	62705.9	61872.45
819.88	538.694	62649.45	61817.85
820.0243	540.8401	62706.85	61869.2
820.1686	542.9856	62694.2	61852.55
820.3129	545.1305	62695.1	61850.1
820.4572	547.2748	62676.75	61832.1
820.6016	549.4185	62695.6	61849.7
820.7459	551.5615	62697	61853.4
820.8902	553.704	62693.95	61849.25
821.0346	555.8458	62662.6	61821.35
821.1789	557.987	62656.1	61816
821.3233	560.1276	62650.55	61808.6
821.4677	562.2675	62646.3	61804.45
821.6121	564.4069	62646.4	61805.1
821.7565	566.5456	62666.9	61824.25
821.9009	568.6837	62633.05	61791.35
822.0453	570.8212	62640.1	61802.6
822.1897	572.958	62587.6	61742.75
822.3342	575.0942	62612.7	61772.1
822.4786	577.2299	62573.1	61731.6
822.6231	579.3648	62556.3	61719.85
822.7675	581.4992	62524.4	61689.5
822.912	583.6329	62496.55	61661.3
823.0565	585.766	62502.5	61665.95
823.201	587.8985	62508.65	61669.5
823.3454	590.0304	62458.45	61604.4
823.4899	592.1616	62483.65	61636.75
823.6345	594.2922	62448.3	61596.6
823.779	596.4222	62430.95	61581.8
823.9235	598.5515	62425.7	61573
824.068	600.6802	62420.1	61568.8
824.2126	602.8083	62387.5	61537.6
824.3571	604.9358	62399.9	61548.3
824.5017	607.0626	62396.25	61544.65
824.6462	609.1888	62363.5	61507.95
824.7908	611.3144	62378.1	61519.4
824.9354	613.4393	62349.8	61493.2
825.08	615.5636	62330	61472.75
825.2246	617.6873	62336.6	61483.7
825.3692	619.8103	62337.2	61480.65
825.5138	621.9327	62305.8	61449.25
825.6584	624.0544	62306.75	61452.4
825.803	626.1756	62305.35	61452.85
825.9477	628.2961	62309.05	61450.5
826.0923	630.4159	62295.7	61439.45
826.237	632.5351	62280.15	61420
826.3816	634.6537	62277.1	61419.55
826.5263	636.7716	62272	61413.15
826.6709	638.8889	62300.4	61440.75
826.8156	641.0056	62285.6	61424.7
826.9603	643.1216	62262.35	61399.75
827.105	645.237	62274.35	61412.5
827.2497	647.3518	62260.25	61401.2
827.3944	649.4659	62257.35	61403
827.5391	651.5793	62260.45	61403.25
827.6838	653.6922	62251.4	61393.3
827.8285	655.8043	62232.35	61375.35
827.9733	657.9159	62255.5	61396.65
828.118	660.0268	62197.65	61336.15
828.2627	662.137	62192.4	61328.25
828.4075	664.2466	62190.2	61323.8
828.5522	666.3556	62183.5	61319.8
828.697	668.4639	62185.75	61322.05
828.8418	670.5716	62192.4	61329.85
828.9865	672.6786	62182	61321.2
829.1313	674.785	62168.55	61301.05
829.2761	676.8907	62163.35	61299.9
829.4209	678.9958	62139.5	61278
829.5657	681.1002	62123.65	61258.95
829.7105	683.204	62120.8	61248.1
829.8553	685.3072	62112.35	61243.8
830.0001	687.4097	62094.05	61226.9
830.1449	689.5115	62074	61204.05
830.2898	691.6127	62100.9	61235.9
830.4346	693.7132	62049.35	61183.5
830.5794	695.8131	62061.75	61176.25
830.7243	697.9123	62062.5	61195.1
830.8691	700.0109	62060.35	61188.8
831.014	702.1089	62056.45	61186.55
831.1588	704.2061	62028.4	61161.7
831.3037	706.3028	62041.2	61167.8
831.4486	708.3987	62036.5	61166.3
831.5935	710.4941	62037.35	61167.05
831.7383	712.5887	62036.45	61165.2
831.8832	714.6827	62022.7	61148.85
832.0281	716.7761	62012.1	61142.15
832.173	718.8688	61999.5	61129.15
832.3179	720.9608	62010.25	61136.15
832.4628	723.0522	62015.1	61136.15
832.6077	725.1429	61978.95	61106
832.7527	727.233	62002.8	61127.45
832.8976	729.3224	61983.5	61111.15
833.0425	731.4112	61964.7	61086.9
833.1874	733.4993	61941.9	61063.55
833.3324	735.5867	61934.6	61058.1
833.4773	737.6735	61929.4	61054.75
833.6222	739.7596	61902.55	61026.2
833.7672	741.845	61893.7	61014.6
833.9122	743.9298	61884.8	61008.2
834.0571	746.014	61870.3	60996.1
834.2021	748.0974	61855.95	60977.5
834.347	750.1802	61821.6	60943.8
834.492	752.2624	61811.15	60933.8
834.637	754.3439	61801.25	60920.65
834.782	756.4247	61776.65	60891.6
834.9269	758.5048	61751.9	60873.55
835.0719	760.5843	61750.5	60867.8
835.2169	762.6631	61738.25	60858.65
835.3619	764.7413	61738.65	60859.3
835.5069	766.8188	61715.3	60833.95
835.6519	768.8956	61729.4	60849
835.7969	770.9718	61749.65	60869.5
835.9419	773.0473	61702.25	60822.5
836.0869	775.1221	61620.75	60741.15
836.232	777.1962	61626.6	60745.95
836.377	779.2697	61554.55	60673.8
836.522	781.3426	61594.45	60689.65
836.667	783.4147	61589.45	60707.85
836.8121	785.4862	61569.8	60689.1
836.9571	787.557	61472.75	60588.2
837.1021	789.6271	61569.15	60686.6
837.2472	791.6966	61480.9	60600.45
837.3922	793.7654	61355.4	60474.9
837.5373	795.8335	61387.1	60506
837.6823	797.901	61415.95	60533.6
837.8274	799.9678	61352.5	60467.05
837.9724	802.0339	61297.15	60410.85
838.1175	804.0993	61316.55	60421.2
838.2626	806.1641	61258.9	60374.05
838.4076	808.2282	61232.8	60345.5
838.5527	810.2916	61187.05	60299.8
838.6978	812.3544	61280.9	60399.25
838.8428	814.4164	61161.9	60281.6
838.9879	816.4778	61184.2	60295.8
839.133	818.5385	61160.8	60275.7
839.2781	820.5986	61150.7	60265
839.4232	822.658	61152.45	60264.65
839.5682	824.7166	61165.9	60283.55
839.7133	826.7747	61100.25	60213.45
839.8584	828.832	61103.45	60215.85
840.0035	830.8886	61165.45	60277.45
840.1486	832.9446	61161.95	60275.4
840.2937	834.9999	60950	60063.3
840.4388	837.0545	61010.6	60119.3
840.5839	839.1085	61065.25	60177.9
840.729	841.1618	61022.15	60132.6
840.8741	843.2143	60904.3	60014.75
841.0192	845.2662	60884.8	59994.85
841.1643	847.3175	60910.7	60021.65
841.3095	849.368	60784	59894.35
841.4546	851.4179	60892.45	60003.9
841.5997	853.467	60782.15	59894.05
841.7448	855.5155	60817.6	59930.65
841.8899	857.5633	60726.45	59837.4
842.0351	859.6105	60698.75	59811
842.1802	861.6569	60770.5	59877.95
842.3253	863.7027	60634.3	59742
842.4704	865.7478	60670.3	59779.45
842.6156	867.7922	60615	59724.15
842.7607	869.8359	60672.7	59782.8
842.9058	871.8789	60563.35	59674
843.0509	873.9212	60610.8	59692.85
843.1961	875.9629	60599.5	59709.9
843.3412	878.0039	60586.25	59695.15
843.4863	880.0441	60525.8	59636.5
843.6315	882.0837	60566.35	59677.35
843.7766	884.1226	60542	59651.1
843.9218	886.1609	60534.2	59644
844.0669	888.1984	60491.1	59600.95
844.212	890.2352	60591.05	59701.6
844.3572	892.2714	60466.7	59573.35
844.5023	894.3069	60495.3	59601.5
844.6475	896.3416	60452.35	59560.4
844.7926	898.3757	60425.3	59531.15
844.9377	900.4091	60313.25	59420.55
845.0829	902.4418	60399.8	59501.9
845.228	904.4739	60346	59449.95
845.3732	906.5052	60352.65	59460.75
845.5183	908.5358	60317.35	59424.95
845.6635	910.5658	60281	59386.45
845.8086	912.595	60260.25	59365.85
845.9538	914.6236	60181.85	59290.1
846.0989	916.6515	60301.3	59408.45
846.2441	918.6786	60150.65	59256.55
846.3892	920.7051	60167	59270.8
846.5344	922.7309	60140.15	59247.55
846.6795	924.756	60164.2	59266.75
846.8246	926.7804	60083.3	59185.3
846.9698	928.8041	59995.7	59097.25
847.1149	930.8272	60025.75	59127.35
847.2601	932.8495	59990.9	59096.55
847.4052	934.8711	59953.55	59058.8
847.5504	936.892	59878.85	58981.7
847.6955	938.9123	59914.75	59019.45
847.8407	940.9318	59846.45	58953.1
847.9858	942.9506	59810.65	58917.85
848.131	944.9688	59806.4	58911.55
848.2761	946.9862	59714.6	58817.7
848.4213	949.003	59724.7	58832.65
848.5664	951.019	59641.3	58744.15
848.7115	953.0344	59673.85	58778.75
848.8567	955.0491	59645.75	58749.6
849.0018	957.063	59642.55	58745.75
849.147	959.0763	59636.1	58741.1
849.2921	961.0888	59600.7	58701.6
849.4373	963.1007	59616.1	58720.6
849.5824	965.1119	59599.85	58707
849.7275	967.1223	59553.4	58662.1
849.8727	969.1321	59581.55	58692.15
850.0178	971.1412	59523.7	58628.6
850.1629	973.1495	59477.2	58583.25
850.3081	975.1572	59501.2	58567.45
850.4532	977.1641	59476.25	58578.65
850.5983	979.1704	59428.85	58533.55
850.7435	981.1759	59397.35	58497.6
850.8886	983.1808	59389.3	58490.95
851.0337	985.1849	59354.55	58446
851.1788	987.1884	59339.75	58441.95
851.324	989.1911	59338.6	58441.35
851.4691	991.1932	59282.25	58386.05
851.6142	993.1945	59267.3	58371.2
851.7593	995.1951	59229.75	58332.9
851.9045	997.1951	59219.5	58315.75
852.0496	999.1943	59150.7	58252.45
852.1947	1001.1928	59114	58213.9
852.3398	1003.1906	59076.45	58177.15
852.4849	1005.1877	59043.4	58143.5
852.63	1007.1841	59025.7	58129.35
852.7751	1009.1798	58995.15	58096.6
852.9202	1011.1748	58974.95	58078.65
853.0653	1013.1691	58924.2	58026.8
853.2104	1015.1627	58764.45	57868.65
853.3555	1017.1556	58796.95	57901.95
853.5006	1019.1477	58782.1	57885.05
853.6457	1021.1392	58720.7	57827.35
853.7908	1023.1299	58590.6	57695.2
853.9359	1025.12	58629.15	57737.75
854.081	1027.1093	58529.55	57642.5
854.2261	1029.0979	58494.65	57610.1
854.3712	1031.0859	58453.2	57565.65
854.5163	1033.0731	58345.25	57452.75
854.6613	1035.0596	58395.7	57503.95
854.8064	1037.0454	58338.75	57442.4
854.9515	1039.0304	58276.15	57379.25
855.0965	1041.0148	58066.9	57169.1
855.2416	1042.9985	58089.75	57193.05
855.3867	1044.9814	58221.2	57325.9
855.5317	1046.9636	58008.7	57110.7
855.6768	1048.9452	58029.8	57135.55
855.8219	1050.926	57964.55	57068.35
855.9669	1052.9061	57943.7	57046.5
856.112	1054.8855	57936.35	57037.25
856.257	1056.8642	57864.2	56962.75
856.4021	1058.8421	57768.4	56867.6
856.5471	1060.8194	57778.45	56878.25
856.6921	1062.7959	57658.3	56758.8
856.8372	1064.7717	57798.55	56897.85
856.9822	1066.7469	57722.6	56824.4
857.1272	1068.7213	57689.9	56790
857.2723	1070.695	57604.7	56705.95
857.4173	1072.6679	57486.7	56588.8
857.5623	1074.6402	57569.45	56671.1
857.7073	1076.6117	57430.95	56527.05
857.8523	1078.5826	57440.65	56537.85
857.9973	1080.5527	57411.95	56510.1
858.1423	1082.5221	57273.4	56371.85
858.2873	1084.4908	57321.1	56423.15
858.4323	1086.4587	57258.75	56360
858.5773	1088.426	57220.2	56321.05
858.7223	1090.3925	57188.15	56284.15
858.8673	1092.3584	57186.7	56287.25
859.0123	1094.3235	56989.7	56089.95
859.1573	1096.2879	56999.75	56100.4
859.3022	1098.2515	57075.3	56177.85
859.4472	1100.2145	56949.35	56051.95
859.5922	1102.1767	56904.3	56002.45
859.7371	1104.1382	56979	56080.9
859.8821	1106.099	56886.75	55986.25
860.027	1108.0591	56832.85	55933.85
860.172	1110.0185	56531.45	55630.35
860.3169	1111.9771	56863.95	55964.8
860.4619	1113.9351	56699.9	55802.05
860.6068	1115.8923	56550.6	55652.1
860.7517	1117.8488	56411.9	55511.25
860.8967	1119.8045	56250.85	55353.25
861.0416	1121.7596	56392.15	55491.75
861.1865	1123.7139	56257.75	55361.2
861.3314	1125.6675	56260.3	55361.65
861.4763	1127.6204	56172.15	55275.95
861.6212	1129.5726	55964.15	55064.75
861.7661	1131.524	56128.05	55228.75
861.911	1133.4748	56107.8	55206.8
862.0559	1135.4248	55892.15	54991.7
862.2008	1137.3741	55859.75	54962.35
862.3457	1139.3226	55801.55	54901.2
862.4905	1141.2705	55783.65	54883.25
862.6354	1143.2176	55766.15	54862.2
862.7803	1145.164	55527	54629.05
862.9251	1147.1097	55645.8	54747.95
863.07	1149.0546	55635.95	54736.9
863.2148	1150.9989	55621	54722.4
863.3597	1152.9424	55414.55	54514.85
863.5045	1154.8852	55614.3	54714.7
863.6493	1156.8272	55344.5	54442.45
863.7942	1158.7686	55565.9	54659.25
863.939	1160.7092	55217.55	54314.2
864.0838	1162.6491	55228.45	54324.35
864.2286	1164.5883	55310.5	54411.1
864.3734	1166.5267	55157.25	54254.1
864.5182	1168.4644	55256.95	54357.25
864.663	1170.4014	55178.95	54275.25
864.8078	1172.3377	55265.55	54369.6
864.9526	1174.2732	55354.7	54456.95
865.0974	1176.2081	55208.55	54311.25
865.2421	1178.1421	55156.55	54255.3
865.3869	1180.0755	55382.4	54483.9
865.5317	1182.0082	55254.75	54356.15
865.6764	1183.9401	55271.1	54374.05
865.8212	1185.8713	55061.8	54167.45
865.9659	1187.8017	55026.75	54131.75
866.1106	1189.7315	54976.7	54086.7
866.2554	1191.6605	54870.75	53979.3
866.4001	1193.5888	54760.45	53866.4
866.5448	1195.5163	54569.35	53672.5
866.6895	1197.4432	54553.5	53654
866.8342	1199.3693	54566.25	53667.75
866.9789	1201.2947	54468.7	53563.5
867.1236	1203.2193	54475.35	53576.2
867.2683	1205.1432	54269.35	53369.55
867.413	1207.0664	54273.4	53377.2
867.5576	1208.9889	54205.35	53303.85
867.7023	1210.9106	54148.7	53251.85
867.847	1212.8316	54013.95	53115.5
867.9916	1214.7519	53999.95	53091.3
868.1363	1216.6715	53936.75	53038.5
868.2809	1218.5903	53912.85	53013.85
868.4255	1220.5084	53889.8	52990.05
868.5701	1222.4257	53870.7	52972.15
868.7148	1224.3424	53812.2	52913.75
868.8594	1226.2583	53736.2	52833.4
869.004	1228.1735	53788.15	52887.35
869.1486	1230.0879	53651.9	52751.75
869.2932	1232.0016	53630.6	52733.5
869.4377	1233.9146	53570.05	52668.05
869.5823	1235.8269	53554.25	52658.7
869.7269	1237.7384	53509	52610.15
869.8715	1239.6492	53407.2	52505.7
870.016	1241.5592	53360.6	52462.85
870.1606	1243.4686	53372.4	52472.15
870.3051	1245.3772	53279.25	52379.45
870.4496	1247.285	53298	52398.6
870.5941	1249.1922	53202.75	52304.05
870.7387	1251.0986	53255.6	52358.65
870.8832	1253.0042	53104.7	52204.25
871.0277	1254.9092	53163.2	52264.05
871.1722	1256.8134	53033.4	52136.15
871.3167	1258.7169	53149.25	52247.05
871.4611	1260.6196	53037.45	52139.3
871.6056	1262.5216	53090.75	52189
871.7501	1264.4229	53048.45	52151
871.8945	1266.3234	53083.1	52186.75
872.039	1268.2232	53083.1	52183.05
872.1834	1270.1223	52962.55	52064.3
872.3278	1272.0207	52933.35	52034
872.4723	1273.9183	52926.7	52023.4
872.6167	1275.8151	52876.3	51978
872.7611	1277.7113	52843.7	51940.85
872.9055	1279.6067	52768.4	51870.65
873.0499	1281.5014	52761.1	51860.5
873.1943	1283.3953	52819.65	51915.8
873.3386	1285.2885	52873.65	51976.8
873.483	1287.181	52906.4	52007.1
873.6274	1289.0727	52927.4	52030.15
873.7717	1290.9637	52862.7	51965.45
873.9161	1292.854	52956.35	52058.65
874.0604	1294.7435	52901.8	52002.45
874.2047	1296.6323	52877.45	51978.5
874.349	1298.5204	52787.05	51883.3
874.4933	1300.4077	52750.85	51848.9
874.6376	1302.2943	52675.4	51776
874.7819	1304.1802	52641.55	51746.25
874.9262	1306.0653	52543.2	51643.9
875.0705	1307.9497	52449.6	51550.35
875.2147	1309.8333	52353.7	51455.1
875.359	1311.7162	52296.65	51395.9
875.5032	1313.5984	52266.8	51365.5
875.6475	1315.4798	52178.55	51277.35
875.7917	1317.3605	52135.15	51221.05
875.9359	1319.2405	52172	51271.5
876.0801	1321.1197	52020.7	51119.25
876.2243	1322.9982	51971.35	51070.6
876.3685	1324.876	51938.55	51041
876.5127	1326.753	51809	50909.45
876.6569	1328.6293	51831.3	50934.3
876.801	1330.5048	51795.95	50893.65
876.9452	1332.3796	51625.85	50727.1
877.0893	1334.2537	51594.8	50669.5
877.2335	1336.127	51625.6	50725.9
877.3776	1337.9996	51493.05	50591.1
877.5217	1339.8714	51559.35	50658.75
877.6658	1341.7426	51294.45	50351.2
877.8099	1343.6129	51435.6	50535.85
877.954	1345.4826	51410.75	50513.8
878.0981	1347.3515	51189.5	50288
878.2422	1349.2196	51324.95	50421.5
878.3862	1351.087	51284.5	50383.45
878.5303	1352.9537	51270.9	50369.85
878.6743	1354.8197	51256.8	50355.45
878.8184	1356.6849	51247.95	50348.7
878.9624	1358.5493	51182.8	50279.9
879.1064	1360.4131	51127.45	50229
879.2504	1362.276	51271.35	50372.05
879.3944	1364.1383	51029.35	50130.75
879.5384	1365.9998	50940.9	50039.85
879.6823	1367.8606	50944.45	50043.85
879.8263	1369.7206	50776.45	49875.9
879.9702	1371.5799	50650.9	49750.5
880.1142	1373.4384	50488.75	49586.75
880.2581	1375.2962	50469.45	49570.45
880.402	1377.1533	50153.75	49256.85
880.5459	1379.0096	49996.05	49097
880.6898	1380.8652	49927	49029.3
880.8337	1382.7201	49761.45	48864.05
880.9776	1384.5742	49728.75	48830.85
881.1215	1386.4275	49330.3	48429.2
881.2653	1388.2802	49430.85	48531.4
881.4092	1390.132	49412.25	48513.35
881.553	1391.9832	49120.9	48218.1
881.6968	1393.8336	48859.55	47960.05
881.8406	1395.6832	48968.65	48069.15
881.9844	1397.5322	48996.1	48094.65
882.1282	1399.3803	48700.05	47796.8
882.272	1401.2278	48635.45	47734.55
882.4158	1403.0745	48521.65	47623.85
882.5595	1404.9204	48475.4	47576.65
882.7033	1406.7656	48446.7	47546.6
882.847	1408.6101	48193.1	47294.45
882.9908	1410.4538	48199.3	47298.45
883.1345	1412.2968	48192.2	47294.25
883.2782	1414.139	47889.3	46990.65
883.4219	1415.9805	47980.5	47081
883.5656	1417.8213	47758.7	46854.5
883.7092	1419.6613	47919.8	47020.15
883.8529	1421.5006	47737.2	46838.85
883.9965	1423.3391	47634.65	46733.95
884.1402	1425.1769	47663.6	46764.65
884.2838	1427.0139	47882.5	46983.75
884.4274	1428.8502	47789.65	46888.85
884.571	1430.6858	47861.8	46962
884.7146	1432.5206	48120.75	47222.65
884.8582	1434.3547	47870.9	46969.6
885.0018	1436.188	47680.9	46780.85
885.1453	1438.0206	47861.85	46964.9
885.2889	1439.8524	47730.35	46832.3
885.4324	1441.6835	47540	46642.1
885.5759	1443.5139	47625.6	46722.1
885.7194	1445.3435	47390.15	46492.1
885.8629	1447.1724	47446.45	46548.55
886.0064	1449.0005	47140.75	46243.7
886.1499	1450.8279	47323	46425.45
886.2933	1452.6545	47219.45	46320.8
886.4368	1454.4804	47104.2	46206.3
886.5802	1456.3056	46874.85	45971.5
886.7237	1458.13	46990	46091.6
886.8671	1459.9536	47220.75	46322.75
887.0105	1461.7766	46783.5	45883.2
887.1539	1463.5987	46454.65	45554.2
887.2972	1465.4202	46439.75	45540.95
887.4406	1467.2409	46265.45	45366.25
887.584	1469.0608	45851.7	44955.7
887.7273	1470.88	45927.65	45028.75
887.8706	1472.6984	45939.15	45044.35
888.0139	1474.5161	45460.15	44558.55
888.1572	1476.3331	45553	44655.15
888.3005	1478.1493	45252.2	44354.05
888.4438	1479.9648	45151.65	44252.95
888.5871	1481.7795	45287.8	44390.4
888.7303	1483.5935	45295.05	44396.7
888.8736	1485.4067	44963.2	44065.25
889.0168	1487.2192	45004.35	44105.55
889.16	1489.031	44808.3	43907.65
889.3032	1490.842	44897.6	44001.95
889.4464	1492.6522	44933.25	44036.85
889.5896	1494.4618	44677.2	43778.75
889.7327	1496.2705	44757	43859.75
889.8759	1498.0785	44296.55	43398.45
890.019	1499.8858	44397.85	43501.05
890.1622	1501.6924	44564.5	43669.35
890.3053	1503.4981	44207.5	43308.55
890.4484	1505.3032	44259.7	43362.35
890.5914	1507.1075	43965.2	43065.4
890.7345	1508.911	43983.9	43088.7
890.8776	1510.7138	43931.7	43035.1
891.0206	1512.5159	43990.9	43093.65
891.1637	1514.3172	43443.25	42547.1
891.3067	1516.1178	43534.3	42637.85
891.4497	1517.9176	43639.85	42742.55
891.5927	1519.7166	43436.7	42539.2
891.7357	1521.515	43281.4	42374.95
891.8786	1523.3126	43096.5	42200.8
892.0216	1525.1094	43194.4	42296.35
892.1645	1526.9055	42995.05	42100
892.3074	1528.7008	42976.2	42082.15
892.4503	1530.4954	42625.8	41727.95
892.5932	1532.2893	42794.7	41901.65
892.7361	1534.0824	42426.4	41527.1
892.879	1535.8747	42293.6	41398.65
893.0218	1537.6663	42591	41696.9
893.1647	1539.4572	41889.35	40992.8
893.3075	1541.2473	42168.35	41271.45
893.4503	1543.0367	41984.6	41091.9
893.5931	1544.8253	41863	40964.9
893.7359	1546.6132	41873.2	40978.15
893.8787	1548.4003	41638.35	40734.85
894.0214	1550.1867	41567.8	40664.25
894.1642	1551.9723	41545.5	40645.55
894.3069	1553.7572	41495.25	40599.95
894.4496	1555.5414	41584.4	40692.55
894.5923	1557.3247	41214.75	40320.5
894.735	1559.1074	41386.3	40494.7
894.8777	1560.8893	41250.3	40357.2
895.0204	1562.6705	41270.2	40380.05
895.163	1564.4509	41095.2	40204.3
895.3056	1566.2305	41122.35	40232.4
895.4482	1568.0094	41325.65	40434.85
895.5908	1569.7876	41151.1	40258.05
895.7334	1571.565	40919.45	40026.3
895.876	1573.3417	40990.5	40098.7
896.0186	1575.1176	40866.45	39976.4
896.1611	1576.8928	40810.85	39918.65
896.3036	1578.6672	40573.7	39686.4
896.4461	1580.4409	40567.7	39679.3
896.5886	1582.2138	40336.45	39444.95
896.7311	1583.986	40338.05	39447.6
896.8736	1585.7575	40273.85	39382.5
897.0161	1587.5282	40218.2	39331.5
897.1585	1589.2981	40243.45	39354.65
897.3009	1591.0673	40048.4	39160.55
897.4433	1592.8358	40034.35	39146.15
897.5857	1594.6035	40106.05	39215.4
897.7281	1596.3704	40034.05	39142.35
897.8705	1598.1366	39794.15	38904.6
898.0128	1599.9021	39672.65	38783.9
898.1551	1601.6668	39724.75	38832
898.2975	1603.4308	39627.15	38735.45
898.4398	1605.194	39781.45	38887.35
898.5821	1606.9564	39488.7	38601.45
898.7243	1608.7182	39670	38780.15
898.8666	1610.4791	39546.4	38661.95
899.0088	1612.2394	39657.85	38772.35
899.1511	1613.9988	39652.35	38768.9
899.2933	1615.7576	39739	38852.1
899.4355	1617.5156	39748.15	38854.2
899.5776	1619.2728	39881.85	38989.9
899.7198	1621.0293	39513.9	38623.7
899.862	1622.785	39411.5	38521.5
900.0041	1624.54	39281	38389.9
900.1462	1626.2942	39042.95	38154.1
900.2883	1628.0477	38592.45	37701.95
900.4304	1629.8005	38313.95	37423.7
900.5725	1631.5525	38307.85	37421.4
900.7145	1633.3037	37919.65	37031.4
900.8566	1635.0542	37829.45	36943.25
900.9986	1636.804	37754.05	36867.7
901.1406	1638.553	37555.65	36625.75
901.2826	1640.3013	37423.15	36537.05
901.4245	1642.0488	37240.1	36351
901.5665	1643.7955	37279	36393.9
901.7085	1645.5416	37137.25	36251.75
901.8504	1647.2868	37120.45	36234.55
901.9923	1649.0313	37110.8	36224.15
902.1342	1650.7751	37051.05	36161.45
902.2761	1652.5181	37025	36139.2
902.4179	1654.2604	36940.45	36054.8
902.5598	1656.0019	36996.1	36110.85
902.7016	1657.7427	36940.65	36055.25
902.8434	1659.4828	37050.45	36162.7
902.9852	1661.222	36945.15	36057.7
903.127	1662.9606	36942.55	36055.45
903.2687	1664.6984	36754.2	35864.85
903.4105	1666.4354	36603.8	35711.95
903.5522	1668.1717	36178.95	35288.45
903.6939	1669.9072	35773.65	34883.95
903.8356	1671.642	35598.9	34708.85
903.9773	1673.3761	35405.6	34517.5
904.119	1675.1094	35147.15	34262.75
904.2606	1676.8419	34913.55	34026.85
904.4022	1678.5737	34716.4	33827.85
904.5439	1680.3048	34598.1	33709.1
904.6855	1682.0351	34372	33484.05
904.827	1683.7646	34171.9	33281.1
904.9686	1685.4934	34105.45	33218.45
905.1101	1687.2215	33887.45	33001.5
905.2517	1688.9488	33780.45	32893.85
905.3932	1690.6754	33521.35	32633.9
905.5347	1692.4012	33556.9	32669.85
905.6761	1694.1263	33486.55	32601.7
905.8176	1695.8506	33361.35	32472.35
905.9591	1697.5742	33228.95	32343.55
906.1005	1699.297	33072.3	32188.8
906.2419	1701.0191	32949.65	32065.05
906.3833	1702.7404	32813.15	31927.35
906.5246	1704.461	32604.75	31718.2
906.666	1706.1808	32539.3	31653.3
906.8073	1707.8999	32474.2	31587.25
906.9487	1709.6182	32388.6	31503.3
907.09	1711.3358	32240.55	31356.45
907.2313	1713.0527	32109.65	31225.95
907.3725	1714.7688	32013.1	31124.8
907.5138	1716.4841	31925.7	31038
907.655	1718.1987	31884.2	30993.85
907.7962	1719.9126	31800.2	30918.9
907.9374	1721.6257	31679.35	30791.95
908.0786	1723.338	31635.55	30750.85
908.2198	1725.0496	31426.25	30540.7
908.3609	1726.7605	31394.75	30510.15
908.502	1728.4706	31332.5	30448.5
908.6431	1730.18	31140.85	30252.4
908.7842	1731.8886	31077.55	30193.35
908.9253	1733.5964	30987.1	30095.1
909.0664	1735.3036	30957.35	30068.2
909.2074	1737.0099	30884.2	29999.75
909.3484	1738.7156	30785.15	29900
909.4894	1740.4204	30679.05	29793.35
909.6304	1742.1246	30645.7	29758.8
909.7714	1743.8279	30562.65	29679.15
909.9123	1745.5306	30472.35	29585.4
910.0532	1747.2325	30417.5	29534.8
910.1941	1748.9336	30300.45	29417
910.335	1750.634	30132.85	29245.55
910.4759	1752.3336	30116.8	29232.1
910.6168	1754.0325	30083.55	29199.35
910.7576	1755.7307	30014.8	29131.15
910.8984	1757.4281	30023.95	29140
911.0392	1759.1247	29966.25	29073.6
911.18	1760.8206	29894.4	29005.05
911.3208	1762.5158	29844.75	28956.5
911.4615	1764.2102	29697.5	28812.05
911.6022	1765.9039	29573.75	28691.45
911.7429	1767.5968	29558.75	28674.4
911.8836	1769.289	29455.2	28570.95
912.0243	1770.9804	29427.5	28539.1
912.1649	1772.6711	29368.95	28484.1
912.3056	1774.361	29346.4	28459.7
912.4462	1776.0502	29254.7	28370.05
912.5868	1777.7386	29201.25	28313
912.7274	1779.4263	29071.05	28187.05
912.8679	1781.1132	29041.2	28157.95
913.0084	1782.7994	28936.85	28052.5
913.149	1784.4849	28936.35	28054.3
913.2895	1786.1696	28824.2	27919.6
913.4299	1787.8535	28775.75	27894
913.5704	1789.5367	28657.65	27772.2
913.7108	1791.2192	28649.25	27766.9
913.8513	1792.9009	28570.65	27656.2
913.9917	1794.5818	28455.75	27570.5
914.132	1796.2621	28398.85	27515.75
914.2724	1797.9415	28289.6	27403.95
914.4128	1799.6202	28270.7	27385.6
914.5531	1801.2982	28205.95	27322.35
914.6934	1802.9755	28126.4	27240.3
914.8337	1804.6519	28093.15	27208.75
914.9739	1806.3277	27973.2	27090.5
915.1142	1808.0027	27893.3	27013.05
915.2544	1809.6769	27902.5	27019.05
915.3946	1811.3504	27758.85	26876
915.5348	1813.0231	27721.85	26840
915.675	1814.6951	27680.3	26796.7
915.8151	1816.3664	27692.3	26805.85
915.9553	1818.0369	27591.7	26707.95
916.0954	1819.7067	27521.3	26636.55
916.2355	1821.3757	27436.7	26550.2
916.3755	1823.044	27383.65	26498.5
916.5156	1824.7115	27309.25	26422.85
916.6556	1826.3783	27191.25	26308.75
916.7956	1828.0443	27165.3	26281.75
916.9356	1829.7096	27092.3	26209.2
917.0756	1831.3741	27047.35	26160.5
917.2155	1833.0379	27012.95	26132.05
917.3555	1834.701	26906.5	26020.45
917.4954	1836.3633	26864.1	25979.1
917.6353	1838.0248	26825.75	25941.4
917.7751	1839.6856	26737	25852.35
917.915	1841.3457	26726.45	25842.95
918.0548	1843.005	26668.85	25786.1
918.1946	1844.6636	26613.2	25729
918.3344	1846.3214	26560.8	25672.75
918.4742	1847.9785	26561.95	25679.7
918.6139	1849.6349	26474.6	25588.5
918.7537	1851.2904	26398.25	25505.2
918.8934	1852.9453	26321.75	25435.45
919.0331	1854.5994	26229.4	25343.55
919.1727	1856.2528	26307.8	25417.85
919.3124	1857.9054	26194.1	25310
919.452	1859.5572	26189.7	25305.95
919.5916	1861.2083	26079.55	25194.3
919.7312	1862.8587	26098.5	25214.3
919.8708	1864.5084	26025.05	25139.6
920.0103	1866.1572	25960.6	25076.9
920.1498	1867.8054	25827.9	24942.1
920.2893	1869.4528	25791.55	24906.85
920.4288	1871.0994	25671.75	24785.05
920.5683	1872.7453	25650.95	24765.2
920.7077	1874.3905	25587.25	24696.25
920.8471	1876.0349	25516.25	24633.25
920.9865	1877.6786	25575.1	24688.4
921.1259	1879.3215	25487.65	24602.8
921.2653	1880.9637	25408.35	24524.1
921.4046	1882.6051	25397.8	24514.45
921.5439	1884.2458	25295.65	24411.25
921.6832	1885.8858	25218.75	24333.15
921.8225	1887.525	25204.75	24318.3
921.9617	1889.1634	25058.3	24176.05
922.101	1890.8011	25019.3	24133.35
922.2402	1892.4381	24954.5	24070.6
922.3794	1894.0743	24956.05	24071.15
922.5185	1895.7098	24872.9	23990.45
922.6577	1897.3446	24808	23923.05
922.7968	1898.9786	24710.75	23820.3
922.9359	1900.6118	24697.5	23815
923.075	1902.2443	24565.85	23681.35
923.214	1903.8761	24516.95	23633.05
923.3531	1905.5071	24368.5	23483.95
923.4921	1907.1374	24323.35	23438.05
923.6311	1908.7669	24311.4	23426.65
923.77	1910.3957	24252.8	23368.1
923.909	1912.0237	24113.1	23227.75
924.0479	1913.651	24067.35	23182.45
924.1868	1915.2776	24002.9	23120.05
924.3257	1916.9034	23935.45	23051.95
924.4646	1918.5285	23829	22946.1
924.6034	1920.1528	23706.2	22820.8
924.7422	1921.7764	23689.2	22807.95
924.881	1923.3992	23603.75	22719.15
925.0198	1925.0213	23481.25	22595.65
925.1586	1926.6427	23425.05	22543.55
925.2973	1928.2633	23576.6	22443.65
925.436	1929.8832	23321.1	22434.25
925.5747	1931.5023	23184.45	22300.5
925.7134	1933.1207	23160.15	22274.45
925.852	1934.7383	23133.6	22249.9
925.9906	1936.3552	22993.3	22110.6
926.1292	1937.9714	22960.3	22076.1
926.2678	1939.5868	22868.4	21980.9
926.4064	1941.2015	22749.05	21862.7
926.5449	1942.8154	22676.3	21792.2
926.6834	1944.4286	22573.65	21688.85
926.8219	1946.041	22543	21637.65
926.9604	1947.6528	22419.9	21530.6
927.0988	1949.2637	22384.95	21500.25
927.2372	1950.8739	22284.95	21402.45
927.3756	1952.4834	22294	21411.15
927.514	1954.0921	22212.2	21327.15
927.6523	1955.7001	22138.55	21250.9
927.7907	1957.3074	22054.5	21174.1
927.929	1958.9139	21966.3	21086.7
928.0673	1960.5197	21926.05	21041.7
928.2055	1962.1247	21807.7	20924.4
928.3438	1963.729	21720.25	20838.95
928.482	1965.3325	21648.7	20743.65
928.6202	1966.9353	21583.95	20701.85
928.7584	1968.5374	21565	20680
928.8965	1970.1387	21439.45	20558.3
929.0346	1971.7393	21385.95	20501.65
929.1727	1973.3392	21298.5	20415.45
929.3108	1974.9383	21222.55	20340.75
929.4489	1976.5366	21111.5	20228.35
929.5869	1978.1342	21114.05	20229.85
929.7249	1979.7311	21068.4	20184.3
929.8629	1981.3273	21005.1	20123.75
930.0009	1982.9227	20945.3	20062.55
930.1388	1984.5173	20871.2	19989.6
930.2767	1986.1112	20773	19892.3
930.4146	1987.7044	20739	19859.35
930.5525	1989.2968	20702.85	19818.3
930.6904	1990.8885	20640.45	19755.65
930.8282	1992.4795	20602.45	19720.65
930.966	1994.0697	20515.6	19634.25
931.1038	1995.6592	20458.1	19578.1
931.2415	1997.2479	20411.9	19530.8
931.3793	1998.8359	20344.15	19465.6
931.517	2000.4232	20239.65	19358.2
931.6547	2002.0097	20173.95	19295.05
931.7923	2003.5955	20113.05	19232.65
931.93	2005.1805	20083.8	19204.6
932.0676	2006.7648	19999.45	19118.5
932.2052	2008.3484	19954.15	19070.6
932.3427	2009.9312	20007.25	19125.35
932.4803	2011.5133	19866.5	18990.65
932.6178	2013.0946	19808.6	18929.8
932.7553	2014.6752	19762.3	18883.2
932.8928	2016.2551	19733.15	18852.45
933.0302	2017.8342	19640.85	18759.5
933.1676	2019.4126	19562.25	18683.85
933.305	2020.9902	19498.5	18619.45
933.4424	2022.5672	19445.9	18565.2
933.5798	2024.1433	19436.35	18550.65
933.7171	2025.7188	19362	18483.45
933.8544	2027.2935	19296.8	18417.3
933.9917	2028.8674	19215.45	18336.4
934.129	2030.4406	19164.15	18285.7
934.2662	2032.0131	19094	18215.6
934.4034	2033.5849	19026.4	18141.65
934.5406	2035.1559	18981.4	18104.15
934.6778	2036.7261	18965.1	18086.3
934.8149	2038.2957	18897.35	18015.6
934.952	2039.8645	18855.25	17975.7
935.0891	2041.4325	18870.3	17986.45
935.2262	2042.9998	18787.4	17907.65
935.3632	2044.5664	18762.45	17878.8
935.5002	2046.1323	18672.4	17792.9
935.6372	2047.6974	18634.5	17754.9
935.7742	2049.2617	18615.35	17736.45
935.9111	2050.8254	18550.8	17666.2
936.048	2052.3883	18520.05	17638.35
936.1849	2053.9504	18430.75	17549.95
936.3218	2055.5118	18390.2	17508.3
936.4586	2057.0725	18316.6	17432.15
936.5955	2058.6325	18272.15	17391.8
936.7323	2060.1917	18227.1	17347.6
936.869	2061.7502	18201.9	17318.85
937.0058	2063.3079	18125.4	17246.55
937.1425	2064.8649	18071.4	17187.7
937.2792	2066.4212	18061.55	17180.1
937.4159	2067.9767	17953.7	17073.25
937.5525	2069.5315	17917.75	17039.15
937.6891	2071.0856	17834.7	16955.5
937.8257	2072.6389	17767.6	16886.1
937.9623	2074.1915	17684.2	16805.65
938.0989	2075.7433	17617.55	16734.5
938.2354	2077.2945	17552.7	16673
938.3719	2078.8448	17505.4	16623.75
938.5084	2080.3945	17435.25	16554.1
938.6448	2081.9434	17431.25	16549.85
938.7812	2083.4916	17384.85	16502.7
938.9176	2085.039	17316.1	16433
939.054	2086.5857	17311.9	16428.05
939.1903	2088.1317	17243.55	16362.3
939.3267	2089.677	17237.35	16354.9
939.463	2091.2215	17165.25	16282.9
939.5992	2092.7652	17142.6	16258.8
939.7355	2094.3083	17086.75	16204.4
939.8717	2095.8506	17064.3	16182.15
940.0079	2097.3921	17010.8	16130.8
940.1441	2098.933	16974.9	16095.4
940.2802	2100.4731	16904.15	16022.6
940.4163	2102.0124	16887.8	15989.35
940.5524	2103.5511	16854.1	15972.75
940.6885	2105.089	16812.5	15928.7
940.8245	2106.6261	16765.55	15885
940.9606	2108.1626	16745.8	15861.25
941.0965	2109.6983	16769.75	15860.8
941.2325	2111.2332	16671.25	15788.85
941.3684	2112.7675	16638.55	15756.65
941.5044	2114.301	16567.8	15683.55
941.6403	2115.8337	16557.75	15674.95
941.7761	2117.3657	16519.85	15637.1
941.912	2118.897	16456	15574.85
942.0478	2120.4276	16450	15563.6
942.1835	2121.9575	16318.5	15437.1
942.3193	2123.4866	16355.5	15460.35
942.455	2125.0149	16309.25	15425.85
942.5907	2126.5426	16175.3	15294.9
942.7264	2128.0695	16152.8	15267.25
942.8621	2129.5956	16137.45	15258.65
942.9977	2131.1211	16109.05	15223.75
943.1333	2132.6458	16086.75	15204.85
943.2689	2134.1698	16013.4	15131.4
943.4044	2135.693	15995.8	15109.6
943.54	2137.2155	15964.65	15078.3
943.6755	2138.7373	15916.6	15035.3
943.8109	2140.2584	15867.85	14987
943.9464	2141.7787	15796.95	14908.9
944.0818	2143.2983	15745	14866
944.2172	2144.8171	15662.95	14784.7
944.3526	2146.3353	15611.85	14730.05
944.4879	2147.8527	15566.65	14686.75
944.6232	2149.3693	15550.7	14668.35
944.7585	2150.8853	15508.9	14628.8
944.8938	2152.4005	15439.75	14555.15
945.029	2153.9149	15419.95	14535.65
945.1642	2155.4287	15361.85	14480.4
945.2994	2156.9417	15345.95	14462.9
945.4346	2158.454	15305.65	14421.7
945.5697	2159.9655	15257.65	14377.45
945.7048	2161.4764	15223.25	14340.3
945.8399	2162.9865	15186.6	14304.65
945.9749	2164.4958	15148.15	14266.35
946.1099	2166.0045	15099.4	14216.7
946.2449	2167.5124	15039.95	14157.8
946.3799	2169.0195	14989.25	14107.55
946.5148	2170.526	14990.7	14108.35
946.6498	2172.0317	14961.15	14079
946.7846	2173.5367	14883.2	14000.45
946.9195	2175.0409	14844.95	13965.3
947.0543	2176.5445	14830.05	13948.05
947.1891	2178.0473	14776.85	13892.05
947.3239	2179.5494	14716.7	13832.35
947.4587	2181.0507	14681.3	13799.2
947.5934	2182.5513	14639.65	13757.95
947.7281	2184.0512	14592.65	13710.85
947.8628	2185.5504	14539.35	13658.75
947.9974	2187.0488	14500.35	13621.15
948.132	2188.5465	14459.45	13578.35
948.2666	2190.0435	14397.65	13517.85
948.4012	2191.5397	14356.65	13477.05
948.5357	2193.0353	14322.35	13438.8
948.6702	2194.5301	14230.5	13346.15
948.8047	2196.0241	14212.75	13328.15
948.9392	2197.5175	14168.1	13283.95
949.0736	2199.0101	14096.65	13211.6
949.208	2200.502	14077.85	13195.05
949.3424	2201.9931	14006.45	13124
949.4767	2203.4835	13970.5	13087.65
949.611	2204.9733	13931.1	13044.4
949.7453	2206.4622	13909.75	13031.05
949.8796	2207.9505	13847.55	12964.1
950.0138	2209.438	13774.85	12896.45
950.148	2210.9248	13720.55	12839.6
950.2822	2212.4109	13710.3	12827.7
950.4164	2213.8962	13637.2	12752.65
950.5505	2215.3809	13628.25	12744.4
950.6846	2216.8648	13599.45	12715.7
950.8186	2218.3479	13552.7	12665.15
950.9527	2219.8304	13516.95	12630.5
951.0867	2221.3121	13444.25	12558.5
951.2207	2222.7931	13389.45	12507.3
951.3546	2224.2733	13379.6	12497.1
951.4886	2225.7529	13305.8	12423
951.6225	2227.2317	13274.3	12391.3
951.7563	2228.7098	13251.9	12372.4
951.8902	2230.1872	13176.95	12296.6
952.024	2231.6638	13159.9	12281.05
952.1578	2233.1397	13127.55	12239.5
952.2916	2234.6149	13079.7	12198.25
952.4253	2236.0894	13030.3	12147.4
952.559	2237.5632	13011.8	12120.1
952.6927	2239.0362	12972.7	12091.35
952.8263	2240.5085	12921.2	12040.75
952.9599	2241.9801	12866.15	11981.1
953.0935	2243.4509	12849.3	11969
953.2271	2244.921	12775.7	11891.5
953.3606	2246.3904	12750.55	11863.75
953.4941	2247.8591	12681.1	11800.1
953.6276	2249.3271	12675.15	11792.1
953.7611	2250.7943	12630.1	11747.5
953.8945	2252.2608	12599.55	11716.65
954.0279	2253.7266	12559	11675.3
954.1612	2255.1917	12519.6	11636.5
954.2946	2256.656	12447	11563.5
954.4279	2258.1197	12432.45	11552
954.5612	2259.5826	12422.05	11538.65
954.6944	2261.0447	12387.9	11506.1
954.8276	2262.5062	12332.05	11447.55
954.9608	2263.9669	12313	11428.5
955.094	2265.4269	12295.1	11416.1
955.2271	2266.8862	12213.6	11329.95
955.3602	2268.3448	12218.75	11337.75
955.4933	2269.8026	12159.4	11274.3
955.6264	2271.2598	12139.8	11258.4
955.7594	2272.7162	12099.5	11217.45
955.8924	2274.1719	12068.45	11184.3
956.0253	2275.6268	11995.7	11113.25
956.1583	2277.0811	12018.35	11135.15
956.2912	2278.5346	11962.25	11081.3
956.4241	2279.9874	11956.05	11074.3
956.5569	2281.4395	11949.9	11068.8
956.6897	2282.8908	11897.8	11010.95
956.8225	2284.3414	11859.65	10976.55
956.9553	2285.7914	11803.05	10921.05
957.088	2287.2406	11796.5	10911.75
957.2207	2288.689	11774.9	10892
957.3534	2290.1368	11720.6	10837.65
957.486	2291.5838	11705.35	10818.4
957.6186	2293.0302	11655.35	10770.7
957.7512	2294.4758	11581.7	10698.3
957.8838	2295.9206	11547.35	10661.85
958.0163	2297.3648	11537.75	10653.65
958.1488	2298.8082	11507.8	10626.05
958.2813	2300.251	11460.85	10578.2
958.4137	2301.693	11419.4	10532.9
958.5461	2303.1343	11439.75	10555.1
958.6785	2304.5748	11366.55	10483.5
958.8108	2306.0147	11331.45	10450.5
958.9432	2307.4538	11325.5	10440.95
959.0754	2308.8922	11289.4	10410.6
959.2077	2310.3299	11246.15	10363.3
959.3399	2311.7669	11203.2	10321.95
959.4721	2313.2031	11179.1	10297.35
959.6043	2314.6387	11140.55	10257.85
959.7365	2316.0735	11083.6	10201.8
959.8686	2317.5076	11093.05	10209.05
960.0006	2318.941	11042.85	10159.7
960.1327	2320.3737	11035.65	10151.15
960.2647	2321.8056	10998.55	10113.55
960.3967	2323.2369	10952.05	10067.6
960.5287	2324.6674	10924.9	10042.2
960.6606	2326.0972	10875.25	9990.65
960.7925	2327.5263	10850.35	9967.1
960.9244	2328.9547	10817.55	9932.05
961.0562	2330.3823	10788	9904.65
961.1881	2331.8092	10771.4	9885
961.3198	2333.2355	10743.7	9858.15
961.4516	2334.661	10713	9827.6
961.5833	2336.0858	10706.6	9819.3
961.715	2337.5098	10687.7	9804.85
961.8467	2338.9332	10628.45	9746.4
961.9783	2340.3558	10601.85	9716.25
962.1099	2341.7778	10565.2	9681.85
962.2415	2343.199	10527.3	9642.75
962.373	2344.6195	10509.2	9629.25
962.5045	2346.0393	10465.15	9583.1
962.636	2347.4583	10447.2	9562.1
962.7675	2348.8767	10394.65	9508.8
962.8989	2350.2943	10396.5	9512.6
963.0303	2351.7113	10373.45	9487.8
963.1617	2353.1275	10306.35	9420.45
963.293	2354.543	10301.25	9408.05
963.4243	2355.9578	10276.9	9392.4
963.5556	2357.3718	10215.1	9332.35
963.6868	2358.7852	10153.75	9268.2
963.818	2360.1978	10153.15	9270.55
963.9492	2361.6098	10111.2	9229.75
964.0803	2363.021	10082.7	9195.6
964.2114	2364.4315	10056.5	9176.25
964.3425	2365.8413	10005.6	9120.05
964.4736	2367.2504	10006.9	9127.9
964.6046	2368.6587	9951.2	9068.4
964.7356	2370.0664	9899.15	9016.7
964.8666	2371.4733	9863.3	8981.75
964.9975	2372.8795	9848.95	8967.05
965.1284	2374.285	9788.6	8904.8
965.2593	2375.6899	9749.1	8866.55
965.3901	2377.0939	9719.95	8836.3
965.5209	2378.4973	9675.1	8794.1
965.6517	2379.9	9661.3	8778.2
965.7825	2381.3019	9610.1	8726.9
965.9132	2382.7032	9601.4	8722.05
966.0439	2384.1037	9570.35	8691.3
966.1745	2385.5035	9566.05	8684.8
966.3051	2386.9027	9502.3	8620.55
966.4357	2388.3011	9484.65	8598.25
966.5663	2389.6987	9438.25	8556.3
966.6968	2391.0957	9421.95	8540.35
966.8273	2392.492	9394.5	8512.45
966.9578	2393.8876	9322.05	8440.1
967.0882	2395.2824	9321.65	8439.8
967.2186	2396.6765	9283.5	8401.35
967.349	2398.07	9225.6	8344.2
967.4793	2399.4627	9228.65	8343.3
967.6097	2400.8547	9183.75	8302.2
967.7399	2402.246	9150.45	8261.85
967.8702	2403.6366	9107.2	8225.65
968.0004	2405.0265	9071	8188.45
968.1306	2406.4156	9056.15	8169.9
968.2607	2407.8041	9020.3	8135
968.3909	2409.1918	8976.1	8090.3
968.521	2410.5789	8968.05	8086.05
968.651	2411.9652	8912.65	8026.45
968.781	2413.3508	8875.35	7989.85
968.911	2414.7358	8849.4	7962.85
969.041	2416.12	8828.1	7945.7
969.1709	2417.5035	8814.6	7934.5
969.3008	2418.8863	8769.2	7886.8
969.4307	2420.2684	8738.7	7854.55
969.5606	2421.6497	8686.9	7803
969.6904	2423.0304	8644.8	7762.35
969.8201	2424.4104	8651.95	7768.25
969.9499	2425.7896	8623.5	7737.1
970.0796	2427.1682	8597.8	7715.55
970.2093	2428.546	8570.5	7686.55
970.3389	2429.9232	8550.15	7666.75
970.4685	2431.2996	8521.4	7640.1
970.5981	2432.6753	8526.3	7644.3
970.7277	2434.0503	8498.05	7615.15
970.8572	2435.4246	8451.25	7570.9
970.9867	2436.7982	8430.3	7544.45
971.1161	2438.1711	8389.2	7506.4
971.2456	2439.5433	8362.65	7478.5
971.375	2440.9148	8335.95	7447.4
971.5043	2442.2856	8314.6	7432.95
971.6336	2443.6557	8285.4	7402.1
971.7629	2445.025	8237.95	7356.7
971.8922	2446.3937	8237.75	7355.4
972.0214	2447.7617	8209.15	7326.15
972.1506	2449.1289	8203.75	7323
972.2798	2450.4955	8169.05	7281.5
972.4089	2451.8613	8126.6	7244.15
972.538	2453.2265	8119.45	7236.8
972.6671	2454.5909	8102.8	7218.5
972.7961	2455.9546	8083.3	7201.25
972.9251	2457.3177	8049.95	7166.6
973.0541	2458.68	8038.45	7155.85
973.1831	2460.0416	8028.85	7146.2
973.312	2461.4025	8011.6	7127.35
973.4408	2462.7627	7983.7	7089.95
973.5697	2464.1222	7975.2	7095.35
973.6985	2465.4811	7948.75	7063.6
973.8273	2466.8392	7912.5	7030.8
973.956	2468.1966	7877.55	6991.75
974.0847	2469.5533	7884.85	7000.35
974.2134	2470.9093	7845.1	6961.95
974.3421	2472.2645	7831.35	6946.6
974.4707	2473.6191	7795.85	6913.1
974.5993	2474.973	7759.25	6875.5
974.7278	2476.3262	7730.1	6845.25
974.8563	2477.6787	7720.8	6839.1
974.9848	2479.0305	7675.1	6791.45
975.1132	2480.3816	7664.05	6780.65
975.2417	2481.7319	7640.5	6759.8
975.37	2483.0816	7588.95	6704.65
975.4984	2484.4306	7560.2	6676
975.6267	2485.7789	7548.5	6667.55
975.755	2487.1264	7513.1	6629.25
975.8833	2488.4733	7496.95	6614.8
976.0115	2489.8195	7476.65	6588.35
976.1397	2491.165	7430.2	6545.05
976.2678	2492.5097	7421.8	6539.5
976.3959	2493.8538	7380	6497.9
976.524	2495.1972	7351.2	6468.55
976.6521	2496.5398	7350.45	6466
976.7801	2497.8818	7330.7	6445.7
976.9081	2499.2231	7305.6	6423.2
977.036	2500.5637	7268.05	6382.85
977.164	2501.9035	7259.1	6373.5
977.2918	2503.2427	7210.3	6326.1
977.4197	2504.5812	7208.05	6325.95
977.5475	2505.919	7199	6311.4
977.6753	2507.256	7173.55	6292.45
977.8031	2508.5924	7145.85	6264.05
977.9308	2509.9281	7122.4	6232.4
978.0585	2511.2631	7095	6212.8
978.1861	2512.5974	7096.05	6213.25
978.3137	2513.9309	7092.35	6208.85
978.4413	2515.2638	7043.35	6125.15
978.5689	2516.596	7028.9	6147.8
978.6964	2517.9275	6995.05	6111.3
978.8239	2519.2583	6962	6077.8
978.9513	2520.5884	6917.3	6033.05
979.0788	2521.9178	6917.8	6033.95
979.2062	2523.2465	6903.2	6021.95
979.3335	2524.5745	6875.05	5991.9
979.4608	2525.9018	6858.35	5973.1
979.5881	2527.2284	6842.75	5962.4
979.7154	2528.5543	6799.7	5918.1
979.8426	2529.8796	6795.05	5913.75
979.9698	2531.2041	6767.2	5884.85
980.0969	2532.5279	6765.5	5883.4
980.224	2533.851	6748.95	5865.05
980.3511	2535.1735	6751.05	5870.3
980.4781	2536.4952	6720.9	5835.6
980.6052	2537.8163	6701.25	5818.35
980.7321	2539.1366	6681.3	5798.2
980.8591	2540.4562	6649	5765.25
980.986	2541.7752	6635.6	5751.85
981.1129	2543.0935	6643.45	5759.75
981.2397	2544.411	6612.45	5730.35
981.3665	2545.7279	6603.35	5720.75
981.4933	2547.0441	6592.4	5707.85
981.62	2548.3596	6569.2	5682.45
981.7467	2549.6744	6566	5682.4
981.8734	2550.9885	6559.75	5669.2
982.0001	2552.3019	6511.55	5629.25
982.1267	2553.6146	6516.7	5634.15
982.2532	2554.9266	6493.6	5608.55
982.3798	2556.2379	6487.05	5603.9
982.5063	2557.5485	6455.1	5573.3
982.6327	2558.8585	6438.3	5547.4
982.7592	2560.1677	6428.7	5542.1
982.8856	2561.4762	6413.2	5529.95
983.0119	2562.7841	6408.75	5522.3
983.1383	2564.0913	6387.25	5506.8
983.2646	2565.3977	6381.35	5498.95
983.3908	2566.7035	6359.55	5477.45
983.517	2568.0086	6355.3	5469.85
983.6432	2569.313	6359.15	5474.45
983.7694	2570.6167	6337.35	5452.05
983.8955	2571.9197	6306.85	5424.05
984.0216	2573.222	6311.35	5425.1
984.1476	2574.5236	6294.4	5410.7
984.2737	2575.8246	6268.1	5381.65
984.3996	2577.1248	6266.1	5378.4
984.5256	2578.4244	6255.3	5371.85
984.6515	2579.7232	6242.85	5360.25
984.7774	2581.0214	6239.8	5330.8
984.9032	2582.3189	6221.2	5338.65
985.029	2583.6157	6188.4	5301.7
985.1548	2584.9118	6176.95	5293.3
985.2806	2586.2072	6177.55	5296.4
985.4063	2587.5019	6141.35	5259.9
985.5319	2588.7959	6137.2	5254.3
985.6576	2590.0893	6103.9	5218.1
985.7832	2591.3819	6085.5	5201.95
985.9087	2592.6739	6065.2	5183.1
986.0343	2593.9652	6039.1	5154.8
986.1597	2595.2557	6052.85	5169.85
986.2852	2596.5456	6012.25	5127.7
986.4106	2597.8348	5984.8	5103.95
986.536	2599.1234	5964.75	5082
986.6614	2600.4112	5952.9	5070.05
986.7867	2601.6983	5937.35	5050.5
986.912	2602.9848	5916.65	5032.15
987.0372	2604.2705	5909.95	5020.5
987.1624	2605.5556	5876.5	4993.4
987.2876	2606.84	5869.9	4988.3
987.4128	2608.1237	5839.2	4951.5
987.5379	2609.4067	5815.7	4933.9
987.6629	2610.689	5808.65	4918.25
987.788	2611.9707	5768.95	4882.2
987.913	2613.2516	5753.5	4868.05
988.0379	2614.5319	5720.3	4838.2
988.1629	2615.8115	5702.3	4818.6
988.2878	2617.0903	5696.35	4811.8
988.4126	2618.3685	5660.5	4777.1
988.5375	2619.6461	5640.35	4758.05
988.6622	2620.9229	5621.8	4739
988.787	2622.199	5623.4	4741.55
988.9117	2623.4745	5625.4	4741.65
989.0364	2624.7493	5591.65	4710.35
989.161	2626.0234	5566.95	4686.35
989.2857	2627.2968	5567.35	4684.8
989.4102	2628.5695	5526.1	4643.65
989.5348	2629.8415	5499.5	4618.5
989.6593	2631.1128	5492.3	4607.4
989.7837	2632.3835	5454.7	4574.4
989.9082	2633.6535	5441.75	4559.2
990.0326	2634.9228	5442.65	4559.55
990.1569	2636.1914	5406.15	4524.1
990.2812	2637.4593	5392.25	4502.5
990.4055	2638.7265	5396.45	4513.35
990.5298	2639.9931	5377.3	4494.5
990.654	2641.259	5361.1	4476.05
990.7782	2642.5242	5327	4443.95
990.9023	2643.7887	5330.75	4447.4
991.0264	2645.0525	5319.55	4439.05
991.1505	2646.3156	5282.3	4400.25
991.2745	2647.5781	5266.3	4383.5
991.3985	2648.8398	5267.1	4386.45
991.5225	2650.1009	5251.6	4358.25
991.6464	2651.3613	5223.65	4340.5
991.7703	2652.6211	5221.9	4337.95
991.8942	2653.8801	5204.2	4321.75
992.018	2655.1385	5177.3	4292.45
992.1418	2656.3961	5171.95	4288.85
992.2655	2657.6531	5171.25	4290.3
992.3892	2658.9094	5160.45	4277.35
992.5129	2660.1651	5131.9	4249.8
992.6366	2661.42	5123.35	4242.45
992.7602	2662.6743	5119.65	4234.75
992.8837	2663.9279	5108.8	4227.2
993.0073	2665.1808	5105.5	4223.8
993.1307	2666.433	5073.5	4189.05
993.2542	2667.6846	5067.45	4185.75
993.3776	2668.9354	5053	4165.95
993.501	2670.1856	5030.55	4146.75
993.6244	2671.4351	5010.8	4128.5
993.7477	2672.6839	5014.9	4130.55
993.8709	2673.9321	4985.2	4104.75
993.9942	2675.1795	4983.8	4099.45
994.1174	2676.4263	4979.25	4098.35
994.2405	2677.6724	4960.95	4078.4
994.3637	2678.9179	4932.5	4047.6
994.4868	2680.1626	4918.35	4036.4
994.6098	2681.4067	4912.25	4030.4
994.7328	2682.6501	4897.35	4014.75
994.8558	2683.8928	4904.25	4022.65
994.9788	2685.1348	4864.15	3982.3
995.1017	2686.3761	4853.7	3972.25
995.2245	2687.6168	4833.2	3949.85
995.3474	2688.8568	4815.95	3933
995.4702	2690.0961	4809.15	3928.05
995.5929	2691.3348	4801.9	3919.35
995.7156	2692.5727	4794.85	3912.1
995.8383	2693.81	4767.1	3883
995.961	2695.0466	4757.45	3875.4
996.0836	2696.2826	4750.45	3866.75
996.2062	2697.5178	4743.75	3856.8
996.3287	2698.7524	4727.15	3846.75
996.4512	2699.9863	4714.2	3828.75
996.5737	2701.2195	4694.65	3814.5
996.6961	2702.452	4686.65	3803
996.8185	2703.6839	4665.3	3780.9
996.9408	2704.9151	4660.15	3777.6
997.0631	2706.1456	4641.25	3760.8
997.1854	2707.3755	4627.55	3745.45
997.3077	2708.6046	4633.95	3750.7
997.4299	2709.8331	4598.3	3715.05
997.552	2711.0609	4597.9	3716.05
997.6742	2712.2881	4578.05	3697.05
997.7963	2713.5145	4576.3	3691.4
997.9183	2714.7403	4570.4	3689.45
998.0403	2715.9654	4544.65	3660.8
998.1623	2717.1899	4538.85	3639.9
998.2842	2718.4136	4524.15	3641.45
998.4062	2719.6367	4506.15	3623.85
998.528	2720.8591	4525.2	3638.5
998.6498	2722.0809	4473.45	3591.9
998.7716	2723.3019	4464.65	3579.5
998.8934	2724.5223	4455.45	3572.35
999.0151	2725.7421	4456.55	3572.75
999.1368	2726.9611	4441.55	3557.8
999.2584	2728.1795	4442.25	3556.1
999.38	2729.3972	4410.4	3527.9
999.5016	2730.6142	4400.05	3505.25
999.6231	2731.8306	4388.45	3504.9
999.7446	2733.0462	4358.15	3474.45
999.8661	2734.2612	4328.65	3441.35
999.9875	2735.4756	4306	3423
1000.1089	2736.6892	4295.8	3415.3
1000.2302	2737.9022	4270.2	3387.4
1000.3515	2739.1145	4260.6	3379.85
1000.4728	2740.3262	4240.15	3351.2
1000.594	2741.5372	4217.25	3335.15
1000.7152	2742.7475	4202.5	3320.1
1000.8363	2743.9571	4191.95	3309
1000.9575	2745.1661	4196.2	3309.55
1001.0785	2746.3744	4178.9	3296.75
1001.1996	2747.582	4158.25	3275.9
1001.3206	2748.7889	4144.2	3260.15
1001.4415	2749.9952	4123.3	3241.65
1001.5625	2751.2008	4105.25	3221.65
1001.6833	2752.4057	4107.05	3222.1
1001.8042	2753.61	4081.1	3198.75
1001.925	2754.8136	4074.05	3190.9
1002.0458	2756.0165	4060.9	3180.35
1002.1665	2757.2188	4039.55	3157.15
1002.2872	2758.4204	4040.15	3160.1
1002.4078	2759.6213	4012.55	3129.2
1002.5285	2760.8215	4009.85	3124.4
1002.649	2762.0211	4008.55	3126.7
1002.7696	2763.22	3999.65	3114.1
1002.8901	2764.4182	3969.9	3087.75
1003.0106	2765.6158	3965.45	3080.85
1003.131	2766.8127	3927.25	3046.5
1003.2514	2768.009	3936.65	3055.05
1003.3717	2769.2045	3917.8	3034.45
1003.492	2770.3994	3923.3	3040.5
1003.6123	2771.5936	3910	3027.55
1003.7325	2772.7872	3887.95	3008.75
1003.8527	2773.9801	3868.6	2986.45
1003.9729	2775.1723	3866.65	2966.95
1004.093	2776.3639	3851.25	2972.8
1004.2131	2777.5548	3854.7	2971.4
1004.3331	2778.745	3833.75	2949.6
1004.4531	2779.9346	3815.85	2935.4
1004.5731	2781.1235	3804.2	2919.25
1004.693	2782.3117	3799.45	2919.55
1004.8129	2783.4992	3783.95	2903.55
1004.9328	2784.6861	3770.7	2887.95
1005.0526	2785.8723	3770.15	2888.1
1005.1723	2787.0579	3743.05	2862.6
1005.2921	2788.2428	3748.55	2866.45
1005.4118	2789.427	3727.9	2846.95
1005.5314	2790.6106	3719.9	2838.35
1005.651	2791.7935	3720.55	2840.55
1005.7706	2792.9757	3705.85	2825.45
1005.8902	2794.1573	3701.95	2817.7
1006.0097	2795.3382	3686.7	2804.65
1006.1291	2796.5184	3688.6	2807.3
1006.2485	2797.698	3687.7	2805.2
1006.3679	2798.8769	3661	2780.75
1006.4873	2800.0551	3673.3	2792.45
1006.6066	2801.2327	3670.65	2786.8
1006.7258	2802.4096	3648.85	2768.25
1006.8451	2803.5859	3649.15	2767.55
1006.9642	2804.7615	3630	2747.55
1007.0834	2805.9364	3631.1	2750.85
1007.2025	2807.1106	3622.8	2742.55
1007.3216	2808.2842	3634.15	2750.2
1007.4406	2809.4572	3621.65	2741.8
1007.5596	2810.6294	3641.05	2756.9
1007.6785	2811.801	3660.15	2780.1
1007.7975	2812.972	3650	2769.75
1007.9163	2814.1423	3653.95	2771.2
1008.0352	2815.3119	3660.2	2778.45
1008.154	2816.4808	3660.9	2777.65
1008.2727	2817.6491	3678.8	2795.85
1008.3914	2818.8167	3692.85	2813.2
1008.5101	2819.9837	3722	2834.6
1008.6288	2821.15	3712.4	2831.7
1008.7474	2822.3157	3737.5	2858.2
1008.8659	2823.4807	3758.6	2876.5
1008.9844	2824.645	3790.9	2909.85
1009.1029	2825.8086	3795.75	2914.5
1009.2214	2826.9716	3816.35	2937.35
1009.3398	2828.134	3839.6	2958.9
1009.4581	2829.2957	3833.55	2952.55
1009.5764	2830.4567	3850.4	2970.15
1009.6947	2831.617	3844.65	2963.6
1009.813	2832.7767	3847.05	2967.2
1009.9312	2833.9358	3842.05	2962.9
1010.0493	2835.0941	3817.45	2933.65
1010.1675	2836.2519	3815.2	2938.1
1010.2855	2837.4089	3805.65	2923.05
1010.4036	2838.5653	3783.6	2904
1010.5216	2839.7211	3784.3	2905.8
1010.6396	2840.8761	3761.55	2877.85
1010.7575	2842.0306	3769.95	2890.4
1010.8754	2843.1843	3773.25	2892
1010.9932	2844.3374	3780.7	2900.4
1011.111	2845.4899	3796.1	2915.35
1011.2288	2846.6417	3818.85	2938
1011.3465	2847.7928	3833.3	2953.5
1011.4642	2848.9433	3844.95	2965.5
1011.5818	2850.0931	3856.35	2976.8
1011.6995	2851.2422	3881.4	2998.9
1011.817	2852.3907	3909.4	3027.95
1011.9345	2853.5385	3919.9	3037.9
1012.052	2854.6857	3943.8	3052.75
1012.1695	2855.8323	3924.6	3042.9
1012.2869	2856.9781	3950.45	3069
1012.4042	2858.1233	3969.3	3088.75
1012.5216	2859.2679	3978.3	3097.6
1012.6389	2860.4118	3988.85	3107.95
1012.7561	2861.555	4004.9	3120.45
1012.8733	2862.6976	4017.75	3137.5
1012.9905	2863.8395	4016.8	3137.5
1013.1076	2864.9808	4015.8	3135.3
1013.2247	2866.1214	4024	3143.45
1013.3417	2867.2614	4033.25	3152.3
1013.4587	2868.4007	4020	3138.65
1013.5757	2869.5393	4011.05	3126.85
1013.6926	2870.6773	4007.5	3123.35
1013.8095	2871.8146	4012	3128.85
1013.9263	2872.9513	4005.9	3123.05
1014.0431	2874.0874	3978.55	3100.25
1014.1599	2875.2227	3988.15	3108.05
1014.2766	2876.3574	3945.4	3064.95
1014.3933	2877.4915	3921.65	3042.65
1014.51	2878.6249	3928.55	3048.35
1014.6266	2879.7577	3890.6	3008.55
1014.7431	2880.8898	3900.05	3008.25
1014.8596	2882.0212	3860.8	2981.35
1014.9761	2883.152	3864.45	2983.05
1015.0925	2884.2821	3844.8	2967.3
1015.2089	2885.4116	3829.45	2950.05
1015.3253	2886.5405	3819.7	2938.85
1015.4416	2887.6686	3818.35	2934.35
1015.5579	2888.7962	3808.05	2928.15
1015.6741	2889.923	3803.6	2924.1
1015.7903	2891.0493	3783.5	2904.5
1015.9065	2892.1748	3778	2898
1016.0226	2893.2997	3779.8	2898.9
1016.1387	2894.424	3788.65	2908.45
1016.2547	2895.5476	3791.35	2910.75
1016.3707	2896.6706	3771.1	2894.3
1016.4866	2897.7929	3778.05	2897.5
1016.6025	2898.9145	3770.4	2892
1016.7184	2900.0355	3781.1	2900.3
1016.8342	2901.1559	3779.4	2897.6
1016.95	2902.2756	3784.6	2904.45
1017.0658	2903.3946	3791.35	2911.75
1017.1815	2904.513	3791.8	2909.75
1017.2971	2905.6308	3797.7	2917.35
1017.4127	2906.7479	3799.3	2917.45
1017.5283	2907.8643	3793.9	2913.7
1017.6439	2908.9801	3803.15	2921.7
1017.7594	2910.0953	3804.05	2923.5
1017.8748	2911.2098	3789.8	2905.4
1017.9902	2912.3236	3790.5	2902.35
1018.1056	2913.4368	3765.75	2883.3
1018.2209	2914.5494	3748.05	2868.65
1018.3362	2915.6613	3728.3	2844.15
1018.4515	2916.7725	3701.8	2818.6
1018.5667	2917.8831	3698.35	2815.3
1018.6819	2918.9931	3667.45	2783.35
1018.797	2920.1024	3645.7	2766.8
1018.9121	2921.211	3637.75	2757
1019.0271	2922.319	3616.45	2735.3
1019.1421	2923.4264	3607.85	2727
1019.2571	2924.5331	3599.55	2721.65
1019.372	2925.6391	3580.45	2701.1
1019.4869	2926.7445	3571.6	2693.05
1019.6017	2927.8493	3569.5	2690.1
1019.7165	2928.9534	3560.2	2681.4
1019.8313	2930.0569	3561.4	2678.35
1019.946	2931.1597	3568.35	2685.5
1020.0606	2932.2619	3551.2	2672.25
1020.1753	2933.3634	3553.55	2673.15
1020.2899	2934.4643	3551.7	2664.4
1020.4044	2935.5645	3549.4	2663.65
1020.5189	2936.6641	3523.5	2640.5
1020.6334	2937.763	3506.6	2625.95
1020.7478	2938.8613	3491.05	2611.55
1020.8622	2939.959	3448	2561.75
1020.9765	2941.056	3424.75	2545.05
1021.0908	2942.1523	3375.15	2493.75
1021.2051	2943.248	3330.3	2451.75
1021.3193	2944.3431	3301.15	2421.7
1021.4334	2945.4375	3244.2	2362.3
1021.5476	2946.5313	3195.35	2316.8
1021.6617	2947.6244	3152.7	2272.75
1021.7757	2948.7169	3092.6	2211.3
1021.8897	2949.8087	3054.85	2175.95
1022.0037	2950.8999	3021.85	2140.8
1022.1176	2951.9904	2964.1	2083.2
1022.2315	2953.0803	2938	2059.05
1022.3453	2954.1696	2914.9	2033.65
1022.4591	2955.2582	2876.2	1995.8
1022.5728	2956.3462	2841.15	1960.7
1022.6865	2957.4335	2835.65	1954.2
1022.8002	2958.5202	2809.75	1928.85
1022.9138	2959.6062	2793.05	1913.55
1023.0274	2960.6916	2761.65	1881.4
1023.141	2961.7764	2746.25	1865.55
1023.2545	2962.8605	2733.2	1852.3
1023.3679	2963.9439	2720.55	1842.4
1023.4813	2965.0267	2722.75	1839.35
1023.5947	2966.1089	2717.5	1813.45
1023.708	2967.1905	2693.1	1813.75
1023.8213	2968.2714	2685.9	1806.8
1023.9346	2969.3516	2697.5	1818.1
1024.0478	2970.4312	2683.65	1797.8
1024.1609	2971.5102	2670.5	1790.8
1024.274	2972.5885	2674.35	1794.95
1024.3871	2973.6662	2669.85	1784.55
1024.5002	2974.7432	2656.65	1779.1
1024.6132	2975.8196	2654.65	1773.15
1024.7261	2976.8954	2649.9	1769.6
1024.839	2977.9705	2635.45	1754.85
1024.9519	2979.045	2625.15	1746.55
1025.0647	2980.1188	2615.55	1736.9
1025.1775	2981.192	2587.45	1708.85
1025.2902	2982.2645	2587.95	1707.45
1025.4029	2983.3364	2565.35	1685.4
1025.5156	2984.4077	2547.9	1668.6
1025.6282	2985.4783	2546.05	1660.2
1025.7407	2986.5483	2527.55	1648.45
1025.8532	2987.6177	2511.55	1632.8
1025.9657	2988.6864	2478.05	1597.6
1026.0782	2989.7545	2455.55	1573.8
1026.1906	2990.8219	2432.3	1553.7
1026.3029	2991.8887	2427.3	1543.65
1026.4152	2992.9548	2398.6	1519.35
1026.5275	2994.0204	2387.3	1510.1
1026.6397	2995.0852	2368.2	1488.6
1026.7519	2996.1495	2353.7	1473.6
1026.864	2997.2131	2343.7	1464.2
1026.9761	2998.276	2320.3	1442
1027.0882	2999.3383	2308.7	1429
1027.2002	3000.4	2284.05	1402.3
1027.3122	3001.4611	2283.75	1403.8
1027.4241	3002.5215	2269.25	1389.75
1027.536	3003.5812	2253.4	1374.7
1027.6478	3004.6404	2244.65	1364.35
1027.7596	3005.6989	2237.7	1355.9
1027.8714	3006.7567	2229.55	1350.5
1027.9831	3007.8139	2236.85	1335.95
1028.0947	3008.8705	2204.55	1323.75
1028.2064	3009.9264	2208.1	1325.1
1028.3179	3010.9818	2192.75	1312.2
1028.4295	3012.0364	2182.4	1301.2
1028.541	3013.0905	2173.85	1294.3
1028.6524	3014.1439	2169.25	1289.6
1028.7638	3015.1966	2167.15	1288.65
1028.8752	3016.2487	2166.4	1285.8
1028.9865	3017.3002	2155.6	1271
1029.0978	3018.3511	2130.1	1253
1029.209	3019.4013	2139.1	1259.75
1029.3202	3020.4509	2134.1	1256.1
1029.4314	3021.4998	2123.1	1242.35
1029.5425	3022.5481	2120	1241.9
1029.6535	3023.5958	2114.6	1233.9
1029.7645	3024.6428	2112.75	1231.7
1029.8755	3025.6892	2107.85	1229.15
1029.9864	3026.735	2111.25	1230.95
1030.0973	3027.7802	2097.9	1217.45
1030.2082	3028.8247	2095.4	1217.45
1030.319	3029.8685	2085.5	1205.1
1030.4297	3030.9118	2078.2	1199.05
1030.5404	3031.9544	2069.75	1190.55
1030.6511	3032.9963	2072.15	1194.15
1030.7617	3034.0376	2071.15	1194.4
1030.8723	3035.0783	2069.3	1187.55
1030.9829	3036.1184	2055.2	1174.15
1031.0934	3037.1578	2054.45	1176.1
1031.2038	3038.1966	2061.8	1179.5
1031.3142	3039.2348	2048.9	1172.8
1031.4246	3040.2723	2056.2	1166.65
1031.5349	3041.3092	2053.2	1174.25
1031.6452	3042.3455	2038	1157.5
1031.7554	3043.3811	2028.65	1150.95
1031.8656	3044.4161	2018.3	1138.85
1031.9758	3045.4505	2029	1151
1032.0859	3046.4842	2016.2	1137.9
1032.1959	3047.5173	2007.3	1128
1032.3059	3048.5498	2005.25	1125.25
1032.4159	3049.5816	1996.45	1118
1032.5258	3050.6128	1991.25	1110.4
1032.6357	3051.6434	1989.4	1111.3
1032.7455	3052.6734	1991.65	1109.85
1032.8553	3053.7027	1991.4	1113.05
1032.9651	3054.7314	1972.65	1093.65
1033.0748	3055.7594	1967.15	1087.5
1033.1845	3056.7868	1969.2	1087.6
1033.2941	3057.8136	1959.3	1080.75
1033.4037	3058.8398	1961.8	1085.4
1033.5132	3059.8653	1944.65	1066.1
1033.6227	3060.8902	1947.75	1069.2
1033.7321	3061.9145	1934.35	1054.55
1033.8415	3062.9381	1927.55	1047.8
1033.9509	3063.9612	1944.4	1049
1034.0602	3064.9835	1930.3	1052
1034.1694	3066.0053	1922.05	1039.45
1034.2787	3067.0264	1908.5	1029.9
1034.3878	3068.0469	1908.55	1029.65
1034.497	3069.0668	1900.5	1018.65
1034.6061	3070.086	1904.35	1027.7
1034.7151	3071.1046	1894.3	1014.6
1034.8241	3072.1226	1886.05	1005.8
1034.9331	3073.1399	1874.05	995.1
1035.042	3074.1567	1877.65	997
1035.1508	3075.1727	1874.9	993.95
1035.2597	3076.1882	1858.85	980.2
1035.3684	3077.203	1857.7	977.25
1035.4772	3078.2173	1841.95	962.05
1035.5859	3079.2308	1840.35	955.7
1035.6945	3080.2438	1837.1	957.4
1035.8031	3081.2561	1826.9	948.35
1035.9117	3082.2678	1823.65	944.65
1036.0202	3083.2789	1817.95	939.35
1036.1286	3084.2893	1819.6	939.5
1036.2371	3085.2991	1807.95	931.2
1036.3454	3086.3083	1806.15	923
1036.4538	3087.3169	1795.7	917
1036.562	3088.3248	1795.15	915.85
1036.6703	3089.3321	1786	906.05
1036.7785	3090.3388	1777.95	900.3
1036.8866	3091.3449	1775.6	896.65
1036.9948	3092.3503	1769.9	886.1
1037.1028	3093.3551	1767.95	890
1037.2108	3094.3593	1763.25	883.65
1037.3188	3095.3629	1751.2	872.5
1037.4267	3096.3658	1747.3	867.4
1037.5346	3097.3681	1749.95	871.65
1037.6425	3098.3698	1732.85	852.8
1037.7503	3099.3708	1746.85	858.8
1037.858	3100.3713	1728.05	849.75
1037.9657	3101.3711	1723.05	843.3
1038.0734	3102.3702	1837.4	821.1
1038.181	3103.3688	1719.25	838.85
1038.2886	3104.3667	1709.9	830.05
1038.3961	3105.364	1701.35	822.9
1038.5036	3106.3607	1692.75	813
1038.611	3107.3568	1698.05	817.8
1038.7184	3108.3522	1688.75	810.75
1038.8257	3109.347	1676.9	796.1
1038.933	3110.3412	1683.75	799.3
1039.0403	3111.3348	1670.7	792.05
1039.1475	3112.3277	1664.3	783.85
1039.2547	3113.32	1655.65	777.45
1039.3618	3114.3117	1653.3	773.45
1039.4689	3115.3028	1655.5	777.75
1039.5759	3116.2932	1652.95	773.25
1039.6829	3117.2831	1645.3	760.95
1039.7898	3118.2723	1643.45	767.45
1039.8967	3119.2608	1629.1	749.45
1040.0035	3120.2488	1639.9	759.6
1040.1103	3121.2361	1632.5	753.95
1040.2171	3122.2229	1622.15	743.4
1040.3238	3123.209	1619.5	737.8
1040.4305	3124.1944	1603.9	724.1
1040.5371	3125.1793	1612.85	733.5
1040.6437	3126.1635	1609.05	731.7
1040.7502	3127.1471	1602.1	723.95
1040.8567	3128.1301	1598.6	719
1040.9631	3129.1125	1597.3	717.2
1041.0695	3130.0942	1592.2	712.7
1041.1759	3131.0753	1593.05	704.7
1041.2822	3132.0558	1587.1	703.05
1041.3884	3133.0357	1583.2	703.15
1041.4946	3134.015	1578.3	697.8
1041.6008	3134.9936	1577.85	696.15
1041.7069	3135.9716	1587.3	688.8
1041.813	3136.949	1572.15	692.8
1041.919	3137.9258	1570.95	688
1042.025	3138.902	1574.1	690.7
1042.1309	3139.8775	1556.95	679.95
1042.2368	3140.8524	1553	674.4
1042.3427	3141.8267	1554.5	673.9
1042.4485	3142.8004	1547.05	666.45
1042.5542	3143.7735	1554	670.8
1042.6599	3144.7459	1547.55	667.55
1042.7656	3145.7178	1544.95	665.15
1042.8712	3146.689	1534.4	657.55
1042.9768	3147.6596	1532.1	649.3
1043.0823	3148.6295	1525.2	647
1043.1878	3149.5989	1531.95	650.95
1043.2932	3150.5676	1522.15	644.6
1043.3986	3151.5357	1515.85	639
1043.5039	3152.5032	1517.6	637.85
1043.6092	3153.4701	1508.5	630.7
1043.7145	3154.4364	1508.6	627.25
1043.8197	3155.402	1498.15	620.05
1043.9248	3156.367	1502.85	621.65
1044.03	3157.3315	1538	620.95
1044.135	3158.2952	1497.8	619.35
1044.24	3159.2584	1483.75	604.7
1044.345	3160.221	1486.55	608.95
1044.4499	3161.1829	1484.6	606.05
1044.5548	3162.1442	1484.4	605.1
1044.6596	3163.105	1476.95	599.8
1044.7644	3164.065	1466.5	588.3
1044.8692	3165.0245	1468.1	588.05
1044.9739	3165.9834	1469.4	592.5
1045.0785	3166.9416	1465	584.65
1045.1831	3167.8993	1463.1	584.7
1045.2877	3168.8563	1461.15	580.85
1045.3922	3169.8127	1447.45	569.6
1045.4966	3170.7684	1459.05	582.7
1045.6011	3171.7236	1448.6	566.35
1045.7054	3172.6782	1445.15	568.05
1045.8098	3173.6321	1446.5	565.7
1045.914	3174.5854	1446.1	561.75
1046.0183	3175.5381	1436.65	559
1046.1224	3176.4902	1439.5	560.05
1046.2266	3177.4417	1428.4	550.45
1046.3307	3178.3926	1428.3	547.8
1046.4347	3179.3428	1423.3	547.6
1046.5387	3180.2924	1419.65	540.2
1046.6427	3181.2415	1420.45	541.05
1046.7466	3182.1899	1419.35	538.4
1046.8504	3183.1377	1417.15	539.05
1046.9542	3184.0848	1409.7	526.4
1047.058	3185.0314	1410.15	531.45
1047.1617	3185.9773	1412.55	532.35
1047.2654	3186.9227	1399.2	520.2
1047.369	3187.8674	1399	519.8
1047.4726	3188.8115	1400.5	515.8
1047.5761	3189.755	1393.5	515.6
1047.6796	3190.6979	1392.5	513.85
1047.783	3191.6402	1387.2	509.9
1047.8864	3192.5818	1387.3	507.1
1047.9898	3193.5229	1397.3	502.1
1048.0931	3194.4633	1382.6	504.85
1048.1963	3195.4031	1384	504.5
1048.2995	3196.3423	1373.45	495.55
1048.4027	3197.2809	1377.2	497.9
1048.5058	3198.2189	1364.5	486.2
1048.6089	3199.1563	1379.3	484.95
1048.7119	3200.0931	1360.2	483.4
1048.8148	3201.0292	1355.7	478.05
1048.9178	3201.9648	1361.35	481.9
1049.0206	3202.8997	1360.6	477.8
1049.1235	3203.834	1351.4	474.45
1049.2262	3204.7677	1353.4	473.45
1049.329	3205.7008	1348.75	468.35
1049.4317	3206.6333	1341.9	465.15
1049.5343	3207.5652	1350.5	468.45
1049.6369	3208.4964	1334.6	457.75
1049.7394	3209.4271	1340	462.35
1049.8419	3210.3571	1332.25	454.65
1049.9444	3211.2865	1333.85	454.7
1050.0468	3212.2154	1337.4	456.75
1050.1491	3213.1436	1332.35	450.05
1050.2514	3214.0712	1330.8	444.75
1050.3537	3214.9982	1327.95	451.45
1050.4559	3215.9246	1325.3	446.2
1050.5581	3216.8503	1321.6	443.45
1050.6602	3217.7755	1317.05	439.75
1050.7623	3218.7001	1317.6	440.1
1050.8643	3219.624	1318.55	440.45
1050.9663	3220.5473	1314.8	436.85
1051.0682	3221.4701	1313.75	433.65
1051.1701	3222.3922	1308	427.55
1051.2719	3223.3137	1308.5	430.35
1051.3737	3224.2346	1298.65	418.9
1051.4754	3225.1549	1300.25	424.15
1051.5771	3226.0746	1300.1	421.45
1051.6788	3226.9937	1295.6	416.15
1051.7804	3227.9121	1291.55	413.5
1051.8819	3228.83	1287.15	406.9
1051.9834	3229.7473	1289.55	409.85
1052.0849	3230.6639	1286.75	407.8
1052.1863	3231.5799	1284.7	405.8
1052.2876	3232.4954	1288.55	409.05
1052.3889	3233.4102	1280.7	401.35
1052.4902	3234.3244	1278.65	399.85
1052.5914	3235.238	1282.2	403.3
1052.6926	3236.151	1298.3	396.9
1052.7937	3237.0634	1276.1	401.45
1052.8948	3237.9752	1265.8	386.25
1052.9958	3238.8864	1272.75	391.8
1053.0968	3239.797	1263.45	384.85
1053.1977	3240.7069	1263.4	384.45
1053.2986	3241.6163	1261.55	383.9
1053.3994	3242.5251	1256	378.8
1053.5002	3243.4332	1247.75	369.8
1053.6009	3244.3408	1249.8	369.15
1053.7016	3245.2477	1255.2	377.7
1053.8022	3246.154	1245.9	366.85
1053.9028	3247.0598	1251.45	372.1
1054.0034	3247.9649	1241	364.4
1054.1039	3248.8694	1238.1	358.2
1054.2043	3249.7733	1236.9	359.3
1054.3047	3250.6766	1242	363.4
1054.4051	3251.5793	1238	358.05
1054.5054	3252.4814	1224.8	349.55
1054.6056	3253.3829	1231.95	354.7
1054.7058	3254.2838	1227.2	349.25
1054.806	3255.1841	1230.1	351.35
1054.9061	3256.0838	1218.6	338.25
1055.0061	3256.9829	1215.35	337.6
1055.1062	3257.8814	1214.9	333.6
1055.2061	3258.7792	1218.7	337.85
1055.306	3259.6765	1210.45	331.75
1055.4059	3260.5731	1203.75	325.35
1055.5057	3261.4692	1199.75	321.75
1055.6055	3262.3647	1199.95	322.25
1055.7052	3263.2595	1200.05	321.75
1055.8049	3264.1538	1189.65	313.15
1055.9045	3265.0474	1185.95	305.65
1056.0041	3265.9404	1179.7	303.15
1056.1036	3266.8329	1173.4	294.85
1056.2031	3267.7247	1181.9	293.15
1056.3025	3268.616	1160.35	284.55
1056.4019	3269.5066	1154.75	275.75
1056.5013	3270.3966	1146.9	264.45
1056.6005	3271.286	1139.05	261.6
