Software Version:	3.9.2.0
Unit SN:	10000200
Spectrometer SN:	6960
Date:	3/6/2024 10:03:19 AM
Data Line Index:	25
Spectral Points:	2048
Integration time (ms):	125
Averages:	20
Delay (ms):	30
Sequence Number:	1
Processing:	dark subtract
Laser Power (mW):	300
Laser Current (mA):	826
Laser Diode Temp (C):	25.1
Laser Case Temp (C):	24.7
System Temp (C):	24.5
Spectrometer Temp (C):	22.1
CCD Temp (C):	0.001
Secondary Temp (C):	20.01
Heatsink Temp (C):	18.577
CCDPCB Temp (C):	31.16
SecondaryPCB Temp (C):	26.147

Wavelength	RamanShift	Raw Counts	Dark Subtracted
787.061	30.1047	737.95	330.2
787.2016	32.3739	750.1	345.25
787.3422	34.6426	771.65	365.6
787.4828	36.9109	791.15	384
787.6235	39.1787	828.3	417.35
787.7642	41.4461	853.45	437.35
787.9049	43.7131	884.4	463.5
788.0456	45.9796	908.05	483.75
788.1863	48.2456	945.6	517.4
788.3271	50.5112	975.2	544
788.4679	52.7764	1012.25	578.45
788.6087	55.0411	1045.05	606.05
788.7496	57.3054	1092.3	647.6
788.8904	59.5692	1127.75	682.3
789.0313	61.8326	1173.9	725.95
789.1722	64.0955	1227.9	778.1
789.3132	66.3579	1287.3	830.15
789.4541	68.6199	1365.45	905.2
789.5951	70.8815	1499.6	1035.95
789.7361	73.1426	1785.2	1316.5
789.8771	75.4032	2529.25	2058.65
790.0181	77.6634	4418.85	3943.1
790.1592	79.9231	9169.2	8689.65
790.3003	82.1824	22916.9	22424.55
790.4414	84.4412	44614.3	44107.9
790.5825	86.6995	55236.4	54711.75
790.7237	88.9574	59366.25	58823.3
790.8648	91.2148	61256.95	60702.1
791.006	93.4717	61914.7	61352.5
791.1472	95.7282	62192.5	61626.3
791.2885	97.9842	62290.5	61720.25
791.4297	100.2398	62331.45	61759.35
791.571	102.4949	62291.6	61716.75
791.7123	104.7495	62330.6	61754.15
791.8536	107.0036	62272	61692.7
791.9949	109.2573	62361.05	61784.2
792.1363	111.5105	62274.65	61692.05
792.2777	113.7632	62332.6	61750.65
792.4191	116.0154	62348.15	61751.7
792.5605	118.2672	62390.7	61805.2
792.7019	120.5185	62394.95	61808.55
792.8434	122.7693	62393.7	61802.2
792.9849	125.0197	62362.15	61764.95
793.1264	127.2696	62446.35	61847.4
793.2679	129.519	62471.75	61868.45
793.4094	131.7679	62513.45	61907.8
793.551	134.0163	62378.35	61766.25
793.6926	136.2642	62415.9	61804.15
793.8342	138.5117	62514.75	61899.85
793.9758	140.7587	62499.4	61885.1
794.1175	143.0052	62514.05	61894.9
794.2591	145.2512	62442.05	61821.75
794.4008	147.4967	62503.15	61882.4
794.5425	149.7417	62483.55	61857.7
794.6842	151.9863	62490.5	61862.95
794.826	154.2304	62426.65	61797
794.9677	156.4739	62481.55	61840.65
795.1095	158.717	62491.4	61852.9
795.2513	160.9596	62477.5	61836.95
795.3931	163.2017	62421.05	61777.2
795.535	165.4433	62496.25	61847.8
795.6768	167.6844	62435.65	61786.45
795.8187	169.925	62462.9	61812.1
795.9606	172.1651	62439.05	61784.35
796.1025	174.4047	62421.75	61764.65
796.2445	176.6439	62444.7	61787.25
796.3864	178.8825	62459.5	61800.3
796.5284	181.1206	62467.25	61799.6
796.6704	183.3582	62462.8	61790.1
796.8124	185.5954	62420.05	61749.55
796.9544	187.832	62463.15	61786.3
797.0965	190.0681	62453.5	61774.25
797.2386	192.3037	62499.6	61816.05
797.3806	194.5388	62555.6	61869.15
797.5228	196.7734	62433.5	61745.55
797.6649	199.0075	62522.05	61831.65
797.807	201.2411	62555.2	61865
797.9492	203.4742	62566.8	61872.6
798.0914	205.7068	62577.45	61883.15
798.2336	207.9389	62602.45	61904.95
798.3758	210.1704	62586.35	61889.95
798.518	212.4015	62638.8	61951.95
798.6603	214.632	62569.6	61891.3
798.8025	216.862	62629.35	61954.9
798.9448	219.0915	62650.7	61973.15
799.0871	221.3205	62618.45	61935.65
799.2294	223.549	62673.1	62000.2
799.3718	225.777	62679.5	62003.25
799.5141	228.0044	62693.9	62014.4
799.6565	230.2314	62705	62023.05
799.7989	232.4578	62702.75	62017.85
799.9413	234.6837	62699.9	62003.7
800.0837	236.909	62804.05	62106.7
800.2262	239.1339	62695.65	61973.75
800.3687	241.3582	62738.5	62029.45
800.5111	243.582	62735.9	62000.5
800.6536	245.8053	62744.95	62018.05
800.7961	248.0281	62747.85	62026.15
800.9387	250.2503	62762.35	62035.35
801.0812	252.472	62727.6	61999.5
801.2238	254.6932	62737.75	62009.25
801.3664	256.9139	62753.85	62023.45
801.509	259.134	62796.1	62063.4
801.6516	261.3536	62694.9	61966.7
801.7942	263.5727	62791.25	62057.05
801.9369	265.7912	62758.85	62025.65
802.0795	268.0092	62773.6	62041.75
802.2222	270.2267	62779.6	62044.55
802.3649	272.4436	62754.65	62021.35
802.5076	274.6601	62780.8	62038.25
802.6504	276.8759	62791.6	62051.65
802.7931	279.0913	62778.65	62038.7
802.9359	281.3061	62769.25	62027.75
803.0787	283.5204	62796.75	62051.15
803.2215	285.7341	62778.35	62026.35
803.3643	287.9473	62834.2	62075.05
803.5071	290.16	62785	62031.75
803.6499	292.3721	62866.7	62121.25
803.7928	294.5837	62774.05	62027.05
803.9357	296.7947	62754.9	62009.75
804.0786	299.0052	62819.95	62071.25
804.2215	301.2152	62780.1	62027.45
804.3644	303.4246	62845.85	62096.65
804.5074	305.6334	62810.05	62062.6
804.6503	307.8418	62768.85	62015.85
804.7933	310.0495	62801.35	62043.3
804.9363	312.2568	62765.05	62010.65
805.0793	314.4635	62768.05	62011.95
805.2223	316.6696	62765.3	62004.55
805.3653	318.8752	62785.9	62017.25
805.5084	321.0802	62691.6	61927.15
805.6514	323.2847	62733.8	61971.1
805.7945	325.4887	62745.95	61982.45
805.9376	327.692	62715	61951.35
806.0807	329.8949	62757.5	61987.75
806.2238	332.0972	62724.35	61953.95
806.367	334.2989	62729.65	61956.45
806.5101	336.5001	62761.3	61987.1
806.6533	338.7007	62718.3	61944.8
806.7965	340.9008	62736.5	61961.9
806.9397	343.1003	62724.8	61947.7
807.0829	345.2992	62764.05	61987.4
807.2261	347.4976	62713.9	61934.65
807.3693	349.6955	62733.3	61951.85
807.5126	351.8927	62733.5	61949.15
807.6559	354.0895	62741.35	61946.55
807.7991	356.2856	62749.4	61963.45
807.9424	358.4812	62749.75	61962.75
808.0857	360.6763	62734.25	61945.85
808.2291	362.8707	62741.5	61950.6
808.3724	365.0646	62733.7	61941.1
808.5158	367.258	62731.55	61940.7
808.6591	369.4508	62718.15	61922.6
808.8025	371.643	62710.4	61912.3
808.9459	373.8346	62717.35	61917.8
809.0893	376.0257	62701.9	61899.1
809.2327	378.2162	62694.8	61895.8
809.3762	380.4062	62696.1	61893.9
809.5196	382.5956	62689.25	61887.8
809.6631	384.7844	62687.7	61894.1
809.8066	386.9726	62685.3	61893.05
809.9501	389.1603	62687.55	61895.5
810.0936	391.3474	62662.65	61837
810.2371	393.5339	62692.5	61897.1
810.3806	395.7199	62626.3	61833
810.5241	397.9052	62620.25	61827.6
810.6677	400.09	62618	61824.75
810.8113	402.2743	62661.3	61864.6
810.9548	404.4579	62650.2	61855.8
811.0984	406.641	62628.3	61827.75
811.2421	408.8235	62650.35	61848.75
811.3857	411.0054	62648.85	61845.45
811.5293	413.1868	62657.2	61854.65
811.673	415.3675	62655.85	61845.95
811.8166	417.5477	62659.3	61849.6
811.9603	419.7273	62654.75	61839.9
812.104	421.9064	62611.65	61793.1
812.2477	424.0848	62628.7	61816.6
812.3914	426.2627	62639.45	61824
812.5351	428.4399	62611.35	61797.9
812.6788	430.6166	62584.8	61764.2
812.8226	432.7928	62577.8	61757.15
812.9663	434.9683	62568.5	61749.75
813.1101	437.1432	62537.3	61716.8
813.2539	439.3176	62522.6	61705.9
813.3977	441.4914	62523.35	61707.8
813.5415	443.6645	62529.55	61710.85
813.6853	445.8371	62486.05	61665
813.8291	448.0091	62448.85	61630.25
813.973	450.1806	62438.05	61615.7
814.1168	452.3514	62435.2	61612.8
814.2607	454.5216	62425.9	61595.2
814.4046	456.6913	62393.5	61568.35
814.5485	458.8603	62411.8	61587.2
814.6924	461.0288	62403.75	61583.2
814.8363	463.1967	62396.1	61576.25
814.9802	465.3639	62408.5	61585.85
815.1241	467.5306	62379.2	61555.45
815.2681	469.6967	62386.75	61564.55
815.412	471.8622	62370	61549.8
815.556	474.0271	62376.45	61552.6
815.7	476.1914	62375.65	61546.85
815.844	478.3551	62360	61532.15
815.988	480.5182	62383.3	61556.35
816.132	482.6807	62378.7	61555.15
816.276	484.8426	62383.6	61561.8
816.4201	487.0039	62398.65	61575.4
816.5641	489.1647	62404.45	61575.15
816.7082	491.3248	62401.9	61572.1
816.8522	493.4843	62414	61588.3
816.9963	495.6432	62412.3	61585.65
817.1404	497.8015	62396.45	61559.95
817.2845	499.9592	62409.9	61576.15
817.4286	502.1163	62381.15	61547.25
817.5727	504.2728	62359.5	61527.1
817.7168	506.4287	62390.05	61561.95
817.861	508.5839	62356.4	61523.15
818.0051	510.7386	62355.45	61523.2
818.1493	512.8927	62366.25	61529.05
818.2935	515.0461	62354.45	61517.35
818.4377	517.199	62350.85	61513.5
818.5818	519.3512	62369.8	61527.7
818.726	521.5029	62352.75	61510.9
818.8703	523.6539	62366.75	61524.8
819.0145	525.8043	62331	61494.4
819.1587	527.9541	62336.95	61494
819.303	530.1033	62332.95	61489.55
819.4472	532.2519	62337.4	61495.3
819.5915	534.3999	62327	61482.8
819.7357	536.5472	62327.75	61485.05
819.88	538.694	62316.6	61475.1
820.0243	540.8401	62343.45	61500.35
820.1686	542.9856	62337.95	61490.5
820.3129	545.1305	62307.9	61454.85
820.4572	547.2748	62334.8	61483.45
820.6016	549.4185	62317.05	61465.15
820.7459	551.5615	62311.3	61458
820.8902	553.704	62319	61468.8
821.0346	555.8458	62291.7	61443.25
821.1789	557.987	62289.85	61441.8
821.3233	560.1276	62296.2	61447.95
821.4677	562.2675	62291.25	61441.8
821.6121	564.4069	62290.05	61440.55
821.7565	566.5456	62292.75	61447.2
821.9009	568.6837	62287.1	61441.9
822.0453	570.8212	62271.75	61423.8
822.1897	572.958	62256.1	61406.15
822.3342	575.0942	62239.85	61391.35
822.4786	577.2299	62219.95	61372.6
822.6231	579.3648	62198.4	61354.1
822.7675	581.4992	62175.1	61334.75
822.912	583.6329	62184	61343.6
823.0565	585.766	62175.35	61330
823.201	587.8985	62137.9	61290.35
823.3454	590.0304	62138.35	61265.45
823.4899	592.1616	62116.4	61261.5
823.6345	594.2922	62098.85	61238.15
823.779	596.4222	62076.25	61216.9
823.9235	598.5515	62075.6	61217.2
824.068	600.6802	62072.9	61215.4
824.2126	602.8083	62041.7	61188.45
824.3571	604.9358	62043.2	61183.45
824.5017	607.0626	62037.9	61180.1
824.6462	609.1888	62013.55	61151.3
824.7908	611.3144	62010.1	61145.95
824.9354	613.4393	61983.95	61125
825.08	615.5636	61977.75	61113.85
825.2246	617.6873	61980.3	61118.25
825.3692	619.8103	61993.2	61129.5
825.5138	621.9327	61968.65	61106.85
825.6584	624.0544	61949.9	61092.6
825.803	626.1756	61973.7	61114.25
825.9477	628.2961	61945.25	61081.6
826.0923	630.4159	61964.1	61101.55
826.237	632.5351	61955.75	61093.7
826.3816	634.6537	61949.8	61086.7
826.5263	636.7716	61938.1	61072.8
826.6709	638.8889	61935.3	61070.6
826.8156	641.0056	61946.8	61081.8
826.9603	643.1216	61936.6	61067.25
827.105	645.237	61922.2	61053.5
827.2497	647.3518	61913.05	61048.65
827.3944	649.4659	61927.75	61065.75
827.5391	651.5793	61912.95	61052.9
827.6838	653.6922	61903.5	61042
827.8285	655.8043	61885.45	61021.5
827.9733	657.9159	61897.75	61030.6
828.118	660.0268	61875.25	61008.5
828.2627	662.137	61860.05	60991.05
828.4075	664.2466	61880.25	61007.2
828.5522	666.3556	61850.55	60984.9
828.697	668.4639	61840	60971.25
828.8418	670.5716	61849.5	60981.1
828.9865	672.6786	61846.8	60977.9
829.1313	674.785	61830.7	60955.2
829.2761	676.8907	61797.55	60929.15
829.4209	678.9958	61820.2	60950.7
829.5657	681.1002	61800.65	60931.15
829.7105	683.204	61786.9	60910.2
829.8553	685.3072	61766.95	60893.65
830.0001	687.4097	61763.2	60892.1
830.1449	689.5115	61756.65	60881.85
830.2898	691.6127	61773.45	60898.4
830.4346	693.7132	61760.7	60887.9
830.5794	695.8131	61749.15	60856.95
830.7243	697.9123	61758.3	60882.5
830.8691	700.0109	61736.45	60858.3
831.014	702.1089	61698.75	60824.95
831.1588	704.2061	61704	60830.8
831.3037	706.3028	61716.85	60840.1
831.4486	708.3987	61727.85	60850.9
831.5935	710.4941	61695.45	60822.1
831.7383	712.5887	61698.05	60820
831.8832	714.6827	61678.75	60801.85
832.0281	716.7761	61708	60829.4
832.173	718.8688	61691.6	60814.8
832.3179	720.9608	61663.3	60780.8
832.4628	723.0522	61684.65	60801.8
832.6077	725.1429	61633.9	60755.35
832.7527	727.233	61652.95	60772
832.8976	729.3224	61583.7	60703.8
833.0425	731.4112	61614.05	60732.65
833.1874	733.4993	61603.95	60723.7
833.3324	735.5867	61604.15	60721.7
833.4773	737.6735	61557.25	60677.6
833.6222	739.7596	61523.1	60643.45
833.7672	741.845	61484.85	60605.75
833.9122	743.9298	61555.8	60672.9
834.0571	746.014	61500.75	60618.9
834.2021	748.0974	61423.45	60539.75
834.347	750.1802	61502.85	60620.5
834.492	752.2624	61397.6	60514.4
834.637	754.3439	61380.35	60495.4
834.782	756.4247	61408.85	60516.65
834.9269	758.5048	61304.6	60422.45
835.0719	760.5843	61315.75	60430.1
835.2169	762.6631	61329.5	60447.3
835.3619	764.7413	61278	60393.05
835.5069	766.8188	61292	60404.7
835.6519	768.8956	61343	60458.45
835.7969	770.9718	61324.7	60437.8
835.9419	773.0473	61270	60385.5
836.0869	775.1221	61181.55	60294.4
836.232	777.1962	61148.4	60263.05
836.377	779.2697	61047.25	60160.55
836.522	781.3426	61117.8	60213.7
836.667	783.4147	61096.95	60211.95
836.8121	785.4862	61081.1	60195
836.9571	787.557	60963.2	60078.65
837.1021	789.6271	61085.75	60195.85
837.2472	791.6966	61007.7	60120.3
837.3922	793.7654	60894.7	60008
837.5373	795.8335	60900.3	60013.7
837.6823	797.901	60882.95	59994.65
837.8274	799.9678	60836.1	59948.2
837.9724	802.0339	60806.2	59918.95
838.1175	804.0993	60828.05	59927.4
838.2626	806.1641	60765.85	59875.5
838.4076	808.2282	60734	59845.1
838.5527	810.2916	60717.05	59826.95
838.6978	812.3544	60766.05	59881.2
838.8428	814.4164	60685.15	59798.1
838.9879	816.4778	60693.1	59802.4
839.133	818.5385	60666.5	59776.25
839.2781	820.5986	60646.95	59758.75
839.4232	822.658	60679.75	59787.35
839.5682	824.7166	60653.15	59764.9
839.7133	826.7747	60589.8	59700.75
839.8584	828.832	60628.95	59736.85
840.0035	830.8886	60655.45	59762
840.1486	832.9446	60650.4	59759.2
840.2937	834.9999	60473.7	59586.25
840.4388	837.0545	60549.25	59653.9
840.5839	839.1085	60557.15	59664.5
840.729	841.1618	60524.7	59628.2
840.8741	843.2143	60425.5	59534.3
841.0192	845.2662	60416.55	59523.5
841.1643	847.3175	60431.35	59539.9
841.3095	849.368	60303.6	59408.35
841.4546	851.4179	60373.8	59481.15
841.5997	853.467	60261.75	59367.1
841.7448	855.5155	60314.85	59420.5
841.8899	857.5633	60236.8	59345.8
842.0351	859.6105	60193.1	59299.15
842.1802	861.6569	60234.3	59343.15
842.3253	863.7027	60164.05	59266.65
842.4704	865.7478	60164.15	59268.7
842.6156	867.7922	60151.95	59256.45
842.7607	869.8359	60200.25	59303.95
842.9058	871.8789	60071.85	59178.6
843.0509	873.9212	60119.1	59191.85
843.1961	875.9629	60108.95	59212.9
843.3412	878.0039	60079.25	59186.75
843.4863	880.0441	60052.9	59161.85
843.6315	882.0837	60068.45	59175.6
843.7766	884.1226	60038.85	59142.65
843.9218	886.1609	60049.45	59154.9
844.0669	888.1984	59995.15	59099.9
844.212	890.2352	60063.9	59169.45
844.3572	892.2714	59981.8	59083.7
844.5023	894.3069	60033.4	59139.8
844.6475	896.3416	59948.25	59052.7
844.7926	898.3757	59935	59037.25
844.9377	900.4091	59808.75	58913.7
845.0829	902.4418	59933.6	59034.25
845.228	904.4739	59828.35	58929.3
845.3732	906.5052	59857.55	58961.2
845.5183	908.5358	59820.3	58925.2
845.6635	910.5658	59781.45	58880.95
845.8086	912.595	59773.3	58876.25
845.9538	914.6236	59651.95	58753.55
846.0989	916.6515	59778.4	58879.15
846.2441	918.6786	59600.95	58704.65
846.3892	920.7051	59628.55	58732.25
846.5344	922.7309	59606.8	58710.4
846.6795	924.756	59607.85	58708.1
846.8246	926.7804	59547.75	58646.85
846.9698	928.8041	59386.95	58487.7
847.1149	930.8272	59443.95	58543.65
847.2601	932.8495	59472.4	58574.1
847.4052	934.8711	59354.2	58454.9
847.5504	936.892	59272.8	58374.45
847.6955	938.9123	59335.35	58435.7
847.8407	940.9318	59230.45	58331.15
847.9858	942.9506	59213.75	58316.8
848.131	944.9688	59221.8	58323
848.2761	946.9862	59076.6	58175.75
848.4213	949.003	59064	58166.55
848.5664	951.019	58961.9	58060
848.7115	953.0344	58979.6	58081.7
848.8567	955.0491	58932.1	58032.25
849.0018	957.063	58945.1	58047.75
849.147	959.0763	58948.65	58050.55
849.2921	961.0888	58898.25	57996.9
849.4373	963.1007	58926.55	58027.65
849.5824	965.1119	58921.05	58024.25
849.7275	967.1223	58833.4	57938.15
849.8727	969.1321	58898.8	58004.9
850.0178	971.1412	58807.05	57910.05
850.1629	973.1495	58782.55	57884.9
850.3081	975.1572	58806.3	57867.75
850.4532	977.1641	58755.95	57855.9
850.5983	979.1704	58679.85	57781.1
850.7435	981.1759	58682.25	57778.5
850.8886	983.1808	58623.85	57723.8
851.0337	985.1849	58596.95	57685.25
851.1788	987.1884	58579.7	57679.95
851.324	989.1911	58615.25	57715.35
851.4691	991.1932	58501.95	57601.75
851.6142	993.1945	58465.55	57565.95
851.7593	995.1951	58453.25	57555.25
851.9045	997.1951	58373.65	57466.25
852.0496	999.1943	58353.75	57454.85
852.1947	1001.1928	58306.65	57403.9
852.3398	1003.1906	58272.9	57372.35
852.4849	1005.1877	58150.85	57247.35
852.63	1007.1841	58109.75	57207.9
852.7751	1009.1798	58100.15	57201.05
852.9202	1011.1748	58061.6	57160.7
853.0653	1013.1691	58030.5	57129.2
853.2104	1015.1627	57704.25	56803.75
853.3555	1017.1556	57814.6	56914.4
853.5006	1019.1477	57836.3	56934.85
853.6457	1021.1392	57663.7	56766.85
853.7908	1023.1299	57442.45	56544.8
853.9359	1025.12	57556.65	56659.75
854.081	1027.1093	57414.9	56524.45
854.2261	1029.0979	57370.45	56482
854.3712	1031.0859	57328.15	56437.45
854.5163	1033.0731	57186.1	56289.1
854.6613	1035.0596	57232.3	56335.4
854.8064	1037.0454	57153.7	56256.2
854.9515	1039.0304	57097.85	56195.05
855.0965	1041.0148	56884	55983.7
855.2416	1042.9985	56878.8	55976
855.3867	1044.9814	56998.1	56100.3
855.5317	1046.9636	56778.75	55875.55
855.6768	1048.9452	56764.5	55866.1
855.8219	1050.926	56717.75	55821.15
855.9669	1052.9061	56713.1	55811.15
856.112	1054.8855	56693.75	55792.75
856.257	1056.8642	56603.35	55700.95
856.4021	1058.8421	56518.9	55613.75
856.5471	1060.8194	56508.6	55609.9
856.6921	1062.7959	56452.1	55551.3
856.8372	1064.7717	56503.95	55600
856.9822	1066.7469	56461.95	55560.3
857.1272	1068.7213	56474.65	55568.45
857.2723	1070.695	56370.3	55469.4
857.4173	1072.6679	56241.9	55340.25
857.5623	1074.6402	56318.9	55416.95
857.7073	1076.6117	56241.1	55335.25
857.8523	1078.5826	56184.05	55283.6
857.9973	1080.5527	56190.35	55287.65
858.1423	1082.5221	56092.85	55189.6
858.2873	1084.4908	56063.8	55165.35
858.4323	1086.4587	56016.7	55116.25
858.5773	1088.426	55982.2	55079.95
858.7223	1090.3925	55963.95	55060.75
858.8673	1092.3584	55938.55	55036.8
859.0123	1094.3235	55824.15	54922.8
859.1573	1096.2879	55810.1	54905.25
859.3022	1098.2515	55821.9	54919.3
859.4472	1100.2145	55759.45	54861.3
859.5922	1102.1767	55726.05	54822.05
859.7371	1104.1382	55730.85	54830.1
859.8821	1106.099	55679	54776
860.027	1108.0591	55610.5	54707.85
860.172	1110.0185	55511.7	54609.25
860.3169	1111.9771	55621.1	54719.9
860.4619	1113.9351	55536.2	54636.7
860.6068	1115.8923	55444.35	54541.45
860.7517	1117.8488	55382.85	54477.95
860.8967	1119.8045	55257.75	54355.3
861.0416	1121.7596	55281.6	54379.55
861.1865	1123.7139	55225.65	54326.4
861.3314	1125.6675	55174.75	54275.75
861.4763	1127.6204	55199	54296.9
861.6212	1129.5726	55034.45	54133.25
861.7661	1131.524	55099.15	54196.35
861.911	1133.4748	55058.4	54158.2
862.0559	1135.4248	54915.25	54014.7
862.2008	1137.3741	54942.6	54038.1
862.3457	1139.3226	54908.3	54004.55
862.4905	1141.2705	54865.9	53961.85
862.6354	1143.2176	54801.35	53894.55
862.7803	1145.164	54658.5	53754.05
862.9251	1147.1097	54716.15	53813.05
863.07	1149.0546	54687.7	53785.75
863.2148	1150.9989	54685.8	53782.6
863.3597	1152.9424	54559.65	53656.65
863.5045	1154.8852	54644.35	53741.1
863.6493	1156.8272	54517.4	53614.3
863.7942	1158.7686	54615.5	53708.65
863.939	1160.7092	54401.65	53499.3
864.0838	1162.6491	54375.3	53470.1
864.2286	1164.5883	54399	53494.6
864.3734	1166.5267	54325	53420.4
864.5182	1168.4644	54358.85	53459.75
864.663	1170.4014	54320.6	53415.05
864.8078	1172.3377	54353.95	53456.3
864.9526	1174.2732	54383.95	53482.55
865.0974	1176.2081	54312.85	53410.6
865.2421	1178.1421	54316.3	53411.15
865.3869	1180.0755	54400.05	53497.95
865.5317	1182.0082	54306.5	53405.7
865.6764	1183.9401	54338.55	53433.8
865.8212	1185.8713	54191.95	53293
865.9659	1187.8017	54139.95	53243.75
866.1106	1189.7315	54109.05	53213.6
866.2554	1191.6605	54037.55	53116.15
866.4001	1193.5888	53898.5	52998.95
866.5448	1195.5163	53791.45	52892.4
866.6895	1197.4432	53783.9	52883.9
866.8342	1199.3693	53738.2	52838.4
866.9789	1201.2947	53677.9	52770.4
867.1236	1203.2193	53644.4	52745.25
867.2683	1205.1432	53544.1	52641.85
867.413	1207.0664	53523.55	52620.5
867.5576	1208.9889	53452.35	52547.65
867.7023	1210.9106	53403.1	52502.55
867.847	1212.8316	53318.4	52418.35
867.9916	1214.7519	53325.6	52416.9
868.1363	1216.6715	53243.4	52343.6
868.2809	1218.5903	53248.55	52346.75
868.4255	1220.5084	53178.8	52278.95
868.5701	1222.4257	53217.4	52316.35
868.7148	1224.3424	53121.55	52220.8
868.8594	1226.2583	53061.95	52157.75
869.004	1228.1735	53075.5	52173.3
869.1486	1230.0879	52994.9	52092.15
869.2932	1232.0016	52965.5	52065.75
869.4377	1233.9146	52897.5	51995.2
869.5823	1235.8269	52898.55	51998.3
869.7269	1237.7384	52874	51973.2
869.8715	1239.6492	52804.2	51904.05
870.016	1241.5592	52726.05	51825.25
870.1606	1243.4686	52712.6	51815.6
870.3051	1245.3772	52672.45	51772.6
870.4496	1247.285	52636.15	51733.35
870.5941	1249.1922	52567.8	51668.65
870.7387	1251.0986	52566.55	51666.5
870.8832	1253.0042	52519	51618.65
871.0277	1254.9092	52539.7	51638.8
871.1722	1256.8134	52431.3	51529.55
871.3167	1258.7169	52477.35	51574.65
871.4611	1260.6196	52432.6	51533.2
871.6056	1262.5216	52444.1	51540
871.7501	1264.4229	52413.8	51514.05
871.8945	1266.3234	52430.9	51530.3
872.039	1268.2232	52408.8	51504.6
872.1834	1270.1223	52350.4	51447.45
872.3278	1272.0207	52329.15	51426.3
872.4723	1273.9183	52338.3	51429.4
872.6167	1275.8151	52269.1	51368.05
872.7611	1277.7113	52237.1	51337.3
872.9055	1279.6067	52166.8	51267.8
873.0499	1281.5014	52135.05	51232.1
873.1943	1283.3953	52167.15	51264.6
873.3386	1285.2885	52166.95	51268.35
873.483	1287.181	52177.35	51278.8
873.6274	1289.0727	52228.75	51330.1
873.7717	1290.9637	52160.75	51259.05
873.9161	1292.854	52222.4	51319.65
874.0604	1294.7435	52159	51258.25
874.2047	1296.6323	52155.85	51255.55
874.349	1298.5204	52092.5	51189.1
874.4933	1300.4077	52092.65	51191.15
874.6376	1302.2943	52031.85	51129.45
874.7819	1304.1802	52010.6	51110.25
874.9262	1306.0653	51944.55	51040.85
875.0705	1307.9497	51877.95	50978.95
875.2147	1309.8333	51840.15	50940.6
875.359	1311.7162	51746.9	50848.15
875.5032	1313.5984	51745.25	50840.6
875.6475	1315.4798	51634.8	50732.55
875.7917	1317.3605	51597.75	50680.6
875.9359	1319.2405	51601.3	50701.55
876.0801	1321.1197	51476.55	50575.9
876.2243	1322.9982	51491.4	50585
876.3685	1324.876	51444.85	50544.3
876.5127	1326.753	51340.9	50439.35
876.6569	1328.6293	51374.95	50472.95
876.801	1330.5048	51353.85	50448.5
876.9452	1332.3796	51213.9	50313.5
877.0893	1334.2537	51204	50279.05
877.2335	1336.127	51205.1	50304.95
877.3776	1337.9996	51116	50217.9
877.5217	1339.8714	51153.45	50250.9
877.6658	1341.7426	50983.9	50036.3
877.8099	1343.6129	51059.95	50159.05
877.954	1345.4826	51031.75	50127.85
878.0981	1347.3515	50949.85	50047.5
878.2422	1349.2196	50955.9	50053.95
878.3862	1351.087	50915.6	50012.55
878.5303	1352.9537	50896.2	49995.55
878.6743	1354.8197	50943.7	50043.2
878.8184	1356.6849	50948.25	50046.8
878.9624	1358.5493	50906.9	50005.4
879.1064	1360.4131	50854.3	49952.55
879.2504	1362.276	50902.2	50003.35
879.3944	1364.1383	50781.1	49878.1
879.5384	1365.9998	50670	49762.25
879.6823	1367.8606	50638.2	49733.1
879.8263	1369.7206	50564.55	49662.3
879.9702	1371.5799	50452.85	49547.25
880.1142	1373.4384	50355.5	49454.2
880.2581	1375.2962	50350.85	49450.9
880.402	1377.1533	50131.75	49230.2
880.5459	1379.0096	50029.1	49131.6
880.6898	1380.8652	49973	49075.9
880.8337	1382.7201	49849	48950.1
880.9776	1384.5742	49748.55	48848.9
881.1215	1386.4275	49553.95	48651.2
881.2653	1388.2802	49564.2	48662
881.4092	1390.132	49556.5	48652.55
881.553	1391.9832	49377.95	48475.55
881.6968	1393.8336	49252.55	48352.35
881.8406	1395.6832	49260.7	48356.8
881.9844	1397.5322	49228.2	48328.75
882.1282	1399.3803	49052.7	48148.9
882.272	1401.2278	49019.15	48116.65
882.4158	1403.0745	48922.65	48021.95
882.5595	1404.9204	48886.6	47987.6
882.7033	1406.7656	48855.25	47953.8
882.847	1408.6101	48640.7	47739.1
882.9908	1410.4538	48639.65	47737.4
883.1345	1412.2968	48608.6	47707.9
883.2782	1414.139	48441.85	47541.95
883.4219	1415.9805	48519.7	47619.7
883.5656	1417.8213	48376.2	47469.85
883.7092	1419.6613	48500.3	47600.95
883.8529	1421.5006	48334.3	47431.45
883.9965	1423.3391	48301.6	47399.9
884.1402	1425.1769	48304.55	47403.8
884.2838	1427.0139	48429.95	47529.4
884.4274	1428.8502	48404.2	47501.8
884.571	1430.6858	48447.95	47549.05
884.7146	1432.5206	48575.55	47674.55
884.8582	1434.3547	48476.3	47575.2
885.0018	1436.188	48364.35	47462.8
885.1453	1438.0206	48432.15	47529.15
885.2889	1439.8524	48338.95	47438.45
885.4324	1441.6835	48241.7	47341.4
885.5759	1443.5139	48251.75	47349.95
885.7194	1445.3435	48099.65	47200.25
885.8629	1447.1724	48124.35	47225.35
886.0064	1449.0005	47982.35	47082.35
886.1499	1450.8279	48039.95	47140.6
886.2933	1452.6545	47968.7	47068.4
886.4368	1454.4804	47948.75	47050.05
886.5802	1456.3056	47874.85	46968.8
886.7237	1458.13	47852.1	46952.85
886.8671	1459.9536	47905.1	47004.3
887.0105	1461.7766	47729.85	46828.8
887.1539	1463.5987	47531.7	46630.65
887.2972	1465.4202	47492.35	46593.85
887.4406	1467.2409	47391.05	46490.8
887.584	1469.0608	47199.8	46300.85
887.7273	1470.88	47188.4	46289.65
887.8706	1472.6984	47199.9	46300
888.0139	1474.5161	46900.75	45998.85
888.1572	1476.3331	46951.95	46054.05
888.3005	1478.1493	46773.5	45872.15
888.4438	1479.9648	46714.25	45815.65
888.5871	1481.7795	46773.75	45872.1
888.7303	1483.5935	46787.55	45888.95
888.8736	1485.4067	46552.25	45651.85
889.0168	1487.2192	46608.85	45709
889.16	1489.031	46442.3	45542.2
889.3032	1490.842	46425.35	45527.65
889.4464	1492.6522	46508.35	45611.3
889.5896	1494.4618	46334.95	45435.15
889.7327	1496.2705	46441.05	45542.15
889.8759	1498.0785	46080.45	45181.45
890.019	1499.8858	46181.05	45283
890.1622	1501.6924	46302.7	45404.4
890.3053	1503.4981	46004.5	45105.85
890.4484	1505.3032	46042.8	45143.6
890.5914	1507.1075	45864.9	44964.85
890.7345	1508.911	45893.2	44995.55
890.8776	1510.7138	45849	44949.6
891.0206	1512.5159	45836.35	44939.25
891.1637	1514.3172	45422.7	44526.35
891.3067	1516.1178	45514.4	44618.5
891.4497	1517.9176	45599.8	44697.4
891.5927	1519.7166	45445.05	44548.7
891.7357	1521.515	45331.65	44429.4
891.8786	1523.3126	45192.2	44294.55
892.0216	1525.1094	45263.4	44362.5
892.1645	1526.9055	45093.65	44195.4
892.3074	1528.7008	45094.85	44197.95
892.4503	1530.4954	44823.25	43924.25
892.5932	1532.2893	44992.75	44097.7
892.7361	1534.0824	44756	43856.65
892.879	1535.8747	44605.55	43710.95
893.0218	1537.6663	44867.85	43971.1
893.1647	1539.4572	44291.15	43392.6
893.3075	1541.2473	44475.25	43578
893.4503	1543.0367	44359.35	43464.3
893.5931	1544.8253	44258.7	43359.1
893.7359	1546.6132	44263.35	43364.8
893.8787	1548.4003	44080.65	43175.45
894.0214	1550.1867	44079.15	43174.9
894.1642	1551.9723	44033.05	43131.4
894.3069	1553.7572	44066.55	43171.6
894.4496	1555.5414	44107	43210.5
894.5923	1557.3247	43783.35	42889.75
894.735	1559.1074	43986.3	43094.15
894.8777	1560.8893	43858.4	42964.25
895.0204	1562.6705	43926.95	43032.75
895.163	1564.4509	43761.3	42869.1
895.3056	1566.2305	43724.9	42832.75
895.4482	1568.0094	43890	42999.4
895.5908	1569.7876	43779.5	42885.1
895.7334	1571.565	43602	42707.5
895.876	1573.3417	43617.75	42724.25
896.0186	1575.1176	43525.75	42632.6
896.1611	1576.8928	43484.05	42593
896.3036	1578.6672	43334.4	42445.8
896.4461	1580.4409	43326.5	42437.65
896.5886	1582.2138	43202.25	42309.8
896.7311	1583.986	43201.45	42307.25
896.8736	1585.7575	43112.15	42220.75
897.0161	1587.5282	43076.2	42186.4
897.1585	1589.2981	43107.7	42217.7
897.3009	1591.0673	42931.85	42044.7
897.4433	1592.8358	42926.3	42036.35
897.5857	1594.6035	42970.25	42076.95
897.7281	1596.3704	42921.95	42028.25
897.8705	1598.1366	42759.25	41868.2
898.0128	1599.9021	42683.5	41793.65
898.1551	1601.6668	42705.7	41812.1
898.2975	1603.4308	42685.85	41792.7
898.4398	1605.194	42745.75	41849.05
898.5821	1606.9564	42574.8	41685.1
898.7243	1608.7182	42666.15	41775.75
898.8666	1610.4791	42584.75	41699.2
899.0088	1612.2394	42724	41839.15
899.1511	1613.9988	42639.75	41753.25
899.2933	1615.7576	42747.3	41857.4
899.4355	1617.5156	42753.25	41858.2
899.5776	1619.2728	42850.25	41959.4
899.7198	1621.0293	42625.8	41736.45
899.862	1622.785	42503.75	41611.55
900.0041	1624.54	42434.05	41544.55
900.1462	1626.2942	42298.5	41407.8
900.2883	1628.0477	41962.65	41071.95
900.4304	1629.8005	41780.35	40890
900.5725	1631.5525	41756.5	40869.75
900.7145	1633.3037	41540.4	40651.55
900.8566	1635.0542	41467.6	40579.95
900.9986	1636.804	41436.4	40546.85
901.1406	1638.553	41302.4	40368.75
901.2826	1640.3013	41205.55	40318.35
901.4245	1642.0488	41043.9	40152.4
901.5665	1643.7955	41120.65	40235.15
901.7085	1645.5416	40994.75	40107.35
901.8504	1647.2868	40962.95	40074.95
901.9923	1649.0313	41034.75	40146.2
902.1342	1650.7751	40958.45	40066.05
902.2761	1652.5181	40865.6	39978.5
902.4179	1654.2604	40833.65	39945.1
902.5598	1656.0019	40930.3	40044.75
902.7016	1657.7427	40904.7	40018.65
902.8434	1659.4828	41011.7	40125.4
902.9852	1661.222	40875.65	39985.45
903.127	1662.9606	40895.05	40005.3
903.2687	1664.6984	40663.6	39774.15
903.4105	1666.4354	40612	39719
903.5522	1668.1717	40246.75	39357.15
903.6939	1669.9072	39820.6	38932.4
903.8356	1671.642	39669.1	38775.3
903.9773	1673.3761	39499.85	38609.45
904.119	1675.1094	39305.45	38417.1
904.2606	1676.8419	39101	38212.55
904.4022	1678.5737	38994.45	38104.3
904.5439	1680.3048	38852.45	37963.55
904.6855	1682.0351	38672.7	37784.5
904.827	1683.7646	38539.6	37647.4
904.9686	1685.4934	38513.15	37625.25
905.1101	1687.2215	38241.85	37351.55
905.2517	1688.9488	38245.45	37358.8
905.3932	1690.6754	37860.9	36972.75
905.5347	1692.4012	37963.2	37075.2
905.6761	1694.1263	37907.1	37016.1
905.8176	1695.8506	37734.2	36846.15
905.9591	1697.5742	37676.45	36788.3
906.1005	1699.297	37620.85	36734.35
906.2419	1701.0191	37472.8	36586.2
906.3833	1702.7404	37294.6	36408.2
906.5246	1704.461	37151.2	36262.95
906.666	1706.1808	37171.2	36283.5
906.8073	1707.8999	37057.4	36168.95
906.9487	1709.6182	36966.35	36078.65
907.09	1711.3358	36902.9	36016.15
907.2313	1713.0527	36858.6	35973.9
907.3725	1714.7688	36793.2	35903.85
907.5138	1716.4841	36607.05	35718.15
907.655	1718.1987	36592.9	35699.95
907.7962	1719.9126	36472.5	35588.4
907.9374	1721.6257	36407.75	35521.6
908.0786	1723.338	36411.5	35525.2
908.2198	1725.0496	36195	35309.75
908.3609	1726.7605	36196.65	35309.35
908.502	1728.4706	36071.45	35182.3
908.6431	1730.18	35982.25	35094.95
908.7842	1731.8886	35860.1	34975.55
908.9253	1733.5964	35819.5	34929.45
909.0664	1735.3036	35816.2	34928.35
909.2074	1737.0099	35728.8	34842.4
909.3484	1738.7156	35669.2	34786.5
909.4894	1740.4204	35513.35	34625.7
909.6304	1742.1246	35525.6	34635.25
909.7714	1743.8279	35455.25	34569.2
909.9123	1745.5306	35427.2	34542
910.0532	1747.2325	35169	34285.5
910.1941	1748.9336	35104.2	34218.7
910.335	1750.634	35110.25	34222.9
910.4759	1752.3336	35092.1	34208.55
910.6168	1754.0325	34886.05	34002.6
910.7576	1755.7307	35018.15	34134.85
910.8984	1757.4281	34823.1	33936.2
911.0392	1759.1247	34914	34017.9
911.18	1760.8206	34630	33737.75
911.3208	1762.5158	34648.85	33760.2
911.4615	1764.2102	34615.1	33728.85
911.6022	1765.9039	34475.9	33591.3
911.7429	1767.5968	34457.1	33574.35
911.8836	1769.289	34295.5	33410.05
912.0243	1770.9804	34280.9	33395.05
912.1649	1772.6711	34222.65	33336.1
912.3056	1774.361	34115.75	33229.65
912.4462	1776.0502	34107.05	33219.45
912.5868	1777.7386	33887.8	32999.05
912.7274	1779.4263	33908.8	33021.25
912.8679	1781.1132	33933.55	33050.1
913.0084	1782.7994	33796.45	32910.45
913.149	1784.4849	33794.85	32912.05
913.2895	1786.1696	33514.2	32610.3
913.4299	1787.8535	33589.25	32704.9
913.5704	1789.5367	33571.95	32687.3
913.7108	1791.2192	33404.8	32520.7
913.8513	1792.9009	33324.2	32407.5
913.9917	1794.5818	33304.8	32417.15
914.132	1796.2621	33136.8	32252.1
914.2724	1797.9415	33148.5	32264.9
914.4128	1799.6202	33062.15	32175.9
914.5531	1801.2982	32990.1	32104.9
914.6934	1802.9755	32892.7	32008.7
914.8337	1804.6519	32819.15	31932.85
914.9739	1806.3277	32816.75	31931
915.1142	1808.0027	32536.75	31654.1
915.2544	1809.6769	32685.95	31801.8
915.3946	1811.3504	32610.6	31725.6
915.5348	1813.0231	32392.6	31508.1
915.675	1814.6951	32489.1	31606
915.8151	1816.3664	32415	31526.4
915.9553	1818.0369	32348.55	31462.9
916.0954	1819.7067	32240.55	31356
916.2355	1821.3757	32257.95	31371.5
916.3755	1823.044	32076.7	31188.95
916.5156	1824.7115	31964.45	31078.2
916.6556	1826.3783	31977.7	31094.25
916.7956	1828.0443	31901.95	31015.3
916.9356	1829.7096	31827.25	30942.2
917.0756	1831.3741	31684.2	30795.85
917.2155	1833.0379	31692.5	30807.75
917.3555	1834.701	31597.5	30711.45
917.4954	1836.3633	31529.7	30645
917.6353	1838.0248	31505.2	30619.65
917.7751	1839.6856	31430.6	30546.45
917.915	1841.3457	31314.4	30430.8
918.0548	1843.005	31387.3	30501.55
918.1946	1844.6636	31299.6	30416.45
918.3344	1846.3214	31077.65	30192.55
918.4742	1847.9785	31107.05	30223.95
918.6139	1849.6349	31000.5	30111.55
918.7537	1851.2904	31148.35	30252.65
918.8934	1852.9453	30879.2	29993.5
919.0331	1854.5994	30880.7	29992.55
919.1727	1856.2528	30925.8	30035.9
919.3124	1857.9054	30689.75	29804
919.452	1859.5572	30625.6	29743.15
919.5916	1861.2083	30646.15	29760.85
919.7312	1862.8587	30758.4	29873.55
919.8708	1864.5084	30480.15	29593.1
920.0103	1866.1572	30490.05	29603.75
920.1498	1867.8054	30289.85	29404.2
920.2893	1869.4528	30362.35	29475.45
920.4288	1871.0994	30149.75	29263.5
920.5683	1872.7453	30095.75	29208.7
920.7077	1874.3905	30121.45	29230.55
920.8471	1876.0349	29928.55	29043.7
920.9865	1877.6786	30003.8	29117.6
921.1259	1879.3215	29949.2	29063.45
921.2653	1880.9637	29935.85	29048.7
921.4046	1882.6051	29783.9	28900.2
921.5439	1884.2458	29729.75	28843.3
921.6832	1885.8858	29591.1	28704.65
921.8225	1887.525	29607.3	28722.3
921.9617	1889.1634	29469.45	28585.2
922.101	1890.8011	29392.6	28507
922.2402	1892.4381	29297.8	28413.15
922.3794	1894.0743	29341.3	28458.9
922.5185	1895.7098	29225.95	28341.8
922.6577	1897.3446	29135.05	28248.75
922.7968	1898.9786	29095.7	28205.85
922.9359	1900.6118	29023.65	28141.2
923.075	1902.2443	28874.05	27985.6
923.214	1903.8761	28910.65	28026.3
923.3531	1905.5071	28691.3	27804.3
923.4921	1907.1374	28519.2	27632.2
923.6311	1908.7669	28578.4	27693.95
923.77	1910.3957	28559	27675.45
923.909	1912.0237	28334.65	27450.75
924.0479	1913.651	28294.55	27408.9
924.1868	1915.2776	28218.35	27335.95
924.3257	1916.9034	28116.55	27232.05
924.4646	1918.5285	28010.5	27127.5
924.6034	1920.1528	27942.4	27055.5
924.7422	1921.7764	27855.5	26969.45
924.881	1923.3992	27789.95	26905.75
925.0198	1925.0213	27596.5	26711.65
925.1586	1926.6427	27476.35	26592.35
925.2973	1928.2633	27659.5	26525.2
925.436	1929.8832	27433.8	26544.95
925.5747	1931.5023	27288.45	26403.25
925.7134	1933.1207	27170.65	26284.55
925.852	1934.7383	27151.35	26268.35
925.9906	1936.3552	27034.5	26148.95
926.1292	1937.9714	26955.25	26070.2
926.2678	1939.5868	26881.35	25995.4
926.4064	1941.2015	26727.05	25840.05
926.5449	1942.8154	26625.25	25740.75
926.6834	1944.4286	26523.65	25638.55
926.8219	1946.041	26455.7	25549.75
926.9604	1947.6528	26346.45	25457
927.0988	1949.2637	26297.35	25415.45
927.2372	1950.8739	26172.8	25287.25
927.3756	1952.4834	26199.7	25314.5
927.514	1954.0921	26117.75	25233.1
927.6523	1955.7001	26013.85	25124.7
927.7907	1957.3074	25944.05	25060.4
927.929	1958.9139	25794.7	24912.7
928.0673	1960.5197	25754.5	24868.4
928.2055	1962.1247	25624.6	24741.9
928.3438	1963.729	25516.1	24634.4
928.482	1965.3325	25456.45	24549.55
928.6202	1966.9353	25428.9	24546.95
928.7584	1968.5374	25268.9	24383.65
928.8965	1970.1387	25213.8	24328.1
929.0346	1971.7393	25100.25	24217.45
929.1727	1973.3392	25049.4	24168.15
929.3108	1974.9383	24940.4	24056.7
929.4489	1976.5366	24864.1	23980.3
929.5869	1978.1342	24792.1	23907.45
929.7249	1979.7311	24720.05	23837.45
929.8629	1981.3273	24671.8	23789.2
930.0009	1982.9227	24609.85	23725.15
930.1388	1984.5173	24512.1	23629.5
930.2767	1986.1112	24425.7	23544.6
930.4146	1987.7044	24424.4	23543.55
930.5525	1989.2968	24279.7	23396.25
930.6904	1990.8885	24239.65	23355.2
930.8282	1992.4795	24209.1	23325.8
930.966	1994.0697	24090.1	23209.4
931.1038	1995.6592	24028.05	23146.45
931.2415	1997.2479	23997.5	23114.95
931.3793	1998.8359	23910.8	23028.95
931.517	2000.4232	23814.65	22932.5
931.6547	2002.0097	23722.45	22842.25
931.7923	2003.5955	23683.7	22800.95
931.93	2005.1805	23634.75	22752.9
932.0676	2006.7648	23530.8	22652.95
932.2052	2008.3484	23452.1	22569.05
932.3427	2009.9312	23486.1	22603.4
932.4803	2011.5133	23393.65	22513.15
932.6178	2013.0946	23276.6	22394.9
932.7553	2014.6752	23236.65	22354.85
932.8928	2016.2551	23175.15	22294.95
933.0302	2017.8342	23106.15	22225.35
933.1676	2019.4126	22998.85	22120.95
933.305	2020.9902	22896.45	22017.1
933.4424	2022.5672	22873.15	21992.1
933.5798	2024.1433	22821.35	21934.2
933.7171	2025.7188	22770	21890.85
933.8544	2027.2935	22684.85	21806.25
933.9917	2028.8674	22607.35	21727.75
934.129	2030.4406	22558.6	21679.5
934.2662	2032.0131	22434.1	21554.5
934.4034	2033.5849	22349.8	21465.05
934.5406	2035.1559	22344.95	21466.65
934.6778	2036.7261	22272.5	21392.6
934.8149	2038.2957	22228.35	21348.85
934.952	2039.8645	22138.7	21258.3
935.0891	2041.4325	22190.25	21306.4
935.2262	2042.9998	22053.95	21173.85
935.3632	2044.5664	22029.1	21144.95
935.5002	2046.1323	21944.95	21064.1
935.6372	2047.6974	21889.4	21009.6
935.7742	2049.2617	21826.25	20945.9
935.9111	2050.8254	21824	20937.7
936.048	2052.3883	21774.6	20891.65
936.1849	2053.9504	21707.5	20826.65
936.3218	2055.5118	21648.25	20765.9
936.4586	2057.0725	21506.65	20619.55
936.5955	2058.6325	21542.75	20663.05
936.7323	2060.1917	21449.55	20569.4
936.869	2061.7502	21358.5	20474.45
937.0058	2063.3079	21295.65	20415.35
937.1425	2064.8649	21214.1	20330.4
937.2792	2066.4212	21206.7	20325.15
937.4159	2067.9767	21139.6	20260.95
937.5525	2069.5315	21070.4	20191.6
937.6891	2071.0856	20970.7	20089.5
937.8257	2072.6389	20895.2	20012.05
937.9623	2074.1915	20807.3	19928.35
938.0989	2075.7433	20697.2	19815.95
938.2354	2077.2945	20655.45	19776.75
938.3719	2078.8448	20633.7	19755
938.5084	2080.3945	20546.65	19664.6
938.6448	2081.9434	20529.35	19647.7
938.7812	2083.4916	20452.95	19570.25
938.9176	2085.039	20349	19465.05
939.054	2086.5857	20309.6	19425.95
939.1903	2088.1317	20274.6	19391.1
939.3267	2089.677	20222.6	19338.55
939.463	2091.2215	20160.4	19275.85
939.5992	2092.7652	20110.05	19224.75
939.7355	2094.3083	20078.4	19194.75
939.8717	2095.8506	20029.55	19148.95
940.0079	2097.3921	20042.35	19161.65
940.1441	2098.933	19933.75	19050.7
940.2802	2100.4731	19894.2	19011.1
940.4163	2102.0124	19904.85	19005.75
940.5524	2103.5511	19829.3	18947.25
940.6885	2105.089	19788.35	18906.5
940.8245	2106.6261	19744.3	18862.1
940.9606	2108.1626	19677.9	18796.1
941.0965	2109.6983	19677	18766.7
941.2325	2111.2332	19601.95	18717.35
941.3684	2112.7675	19530.9	18648.25
941.5044	2114.301	19464.5	18580.55
941.6403	2115.8337	19444.3	18559.6
941.7761	2117.3657	19404.15	18521.85
941.912	2118.897	19357.4	18473.35
942.0478	2120.4276	19281.15	18391.3
942.1835	2121.9575	19201.05	18320
942.3193	2123.4866	19204.25	18306.4
942.455	2125.0149	19142.85	18258.95
942.5907	2126.5426	19003.5	18123.2
942.7264	2128.0695	19015.95	18130.15
942.8621	2129.5956	18958.25	18078.2
942.9977	2131.1211	18956.25	18069.9
943.1333	2132.6458	18874.65	17993.65
943.2689	2134.1698	18840	17956.4
943.4044	2135.693	18795.3	17910.65
943.54	2137.2155	18720.2	17835.55
943.6755	2138.7373	18688.85	17807.05
943.8109	2140.2584	18617.8	17738.65
943.9464	2141.7787	18581.7	17695.95
944.0818	2143.2983	18505.05	17623.55
944.2172	2144.8171	18393	17513.45
944.3526	2146.3353	18364.85	17481.7
944.4879	2147.8527	18271	17388.75
944.6232	2149.3693	18275.65	17394.2
944.7585	2150.8853	18239.25	17356.9
944.8938	2152.4005	18129.15	17247.65
945.029	2153.9149	18102.85	17218.7
945.1642	2155.4287	18019.15	17136.15
945.2994	2156.9417	18002.85	17120.9
945.4346	2158.454	17977.7	17093.15
945.5697	2159.9655	17928.3	17047.35
945.7048	2161.4764	17890.15	17009.65
945.8399	2162.9865	17826.6	16944.55
945.9749	2164.4958	17815.65	16934.75
946.1099	2166.0045	17698.7	16815.15
946.2449	2167.5124	17720.85	16839.65
946.3799	2169.0195	17649.85	16768.6
946.5148	2170.526	17646.6	16764.6
946.6498	2172.0317	17568	16685.85
946.7846	2173.5367	17525.75	16641.9
946.9195	2175.0409	17440.4	16560
947.0543	2176.5445	17436.65	16554.85
947.1891	2178.0473	17360.55	16476.45
947.3239	2179.5494	17282	16397.05
947.4587	2181.0507	17229.6	16346.2
947.5934	2182.5513	17196.1	16314.45
947.7281	2184.0512	17145.7	16262.3
947.8628	2185.5504	17085.5	16204.2
947.9974	2187.0488	16982.8	16102.6
948.132	2188.5465	16950.8	16067.7
948.2666	2190.0435	16896.35	16014.65
948.4012	2191.5397	16868.7	15986.4
948.5357	2193.0353	16817.85	15935.9
948.6702	2194.5301	16721.6	15836.45
948.8047	2196.0241	16674.8	15792.15
948.9392	2197.5175	16647.8	15765.3
949.0736	2199.0101	16579.4	15692.6
949.208	2200.502	16491.65	15610.05
949.3424	2201.9931	16477.85	15595.75
949.4767	2203.4835	16363.65	15479.95
949.611	2204.9733	16373.45	15485.4
949.7453	2206.4622	16326.75	15447.1
949.8796	2207.9505	16219.05	15335.6
950.0138	2209.438	16144	15264.5
950.148	2210.9248	16100.15	15218.3
950.2822	2212.4109	16071.2	15188.4
950.4164	2213.8962	16041.75	15153.75
950.5505	2215.3809	16003.25	15118.6
950.6846	2216.8648	15940.8	15055.35
950.8186	2218.3479	15909.2	15019.95
950.9527	2219.8304	15840.25	14952.8
951.0867	2221.3121	15783.95	14897.8
951.2207	2222.7931	15742.3	14860.3
951.3546	2224.2733	15685.75	14802.85
951.4886	2225.7529	15598.1	14713.05
951.6225	2227.2317	15553.55	14668.1
951.7563	2228.7098	15537.6	14656.8
951.8902	2230.1872	15468.4	14585.7
952.024	2231.6638	15447.45	14566.15
952.1578	2233.1397	15359	14471.15
952.2916	2234.6149	15360.1	14478.6
952.4253	2236.0894	15291.9	14409.2
952.559	2237.5632	15271.35	14378.75
952.6927	2239.0362	15197.8	14316.95
952.8263	2240.5085	15169.6	14287.25
952.9599	2241.9801	15112.55	14229.85
953.0935	2243.4509	15093.35	14210.35
953.2271	2244.921	15036.05	14152.25
953.3606	2246.3904	14973.6	14086.05
953.4941	2247.8591	14895.55	14012.4
953.6276	2249.3271	14863.65	13980.5
953.7611	2250.7943	14801.1	13916.65
953.8945	2252.2608	14755.65	13870.45
954.0279	2253.7266	14735.3	13854
954.1612	2255.1917	14683.1	13799.95
954.2946	2256.656	14624.7	13739.1
954.4279	2258.1197	14616.5	13734.75
954.5612	2259.5826	14579.1	13696.65
954.6944	2261.0447	14561.3	13676.2
954.8276	2262.5062	14482.55	13596.55
954.9608	2263.9669	14438.5	13554.85
955.094	2265.4269	14416.35	13533.35
955.2271	2266.8862	14356.35	13475.1
955.3602	2268.3448	14324.3	13442.2
955.4933	2269.8026	14293.4	13411.6
955.6264	2271.2598	14253.9	13371.95
955.7594	2272.7162	14194.95	13313
955.8924	2274.1719	14153.3	13270.75
956.0253	2275.6268	14158.65	13274.95
956.1583	2277.0811	14104.4	13219.75
956.2912	2278.5346	14065.3	13183.95
956.4241	2279.9874	14037.75	13154.55
956.5569	2281.4395	14014.25	13133.3
956.6897	2282.8908	13948.35	13061.95
956.8225	2284.3414	13923.25	13039.1
956.9553	2285.7914	13854.9	12973.75
957.088	2287.2406	13815.1	12931.7
957.2207	2288.689	13812.95	12929
957.3534	2290.1368	13736.95	12851.75
957.486	2291.5838	13696.45	12810.35
957.6186	2293.0302	13677.8	12793
957.7512	2294.4758	13613.55	12730.25
957.8838	2295.9206	13578.7	12693
958.0163	2297.3648	13546.95	12663
958.1488	2298.8082	13501.9	12617.9
958.2813	2300.251	13471.4	12588.45
958.4137	2301.693	13424.25	12536.55
958.5461	2303.1343	13413.2	12529.15
958.6785	2304.5748	13349.45	12466.35
958.8108	2306.0147	13292.75	12410.65
958.9432	2307.4538	13269	12385.65
959.0754	2308.8922	13213.55	12332.95
959.2077	2310.3299	13226.1	12342.75
959.3399	2311.7669	13167.1	12285.25
959.4721	2313.2031	13121.8	12237.8
959.6043	2314.6387	13085.75	12203.1
959.7365	2316.0735	13039.45	12154.9
959.8686	2317.5076	12988.55	12105.4
960.0006	2318.941	12961.3	12077.95
960.1327	2320.3737	12939.65	12056.2
960.2647	2321.8056	12899.6	12014.3
960.3967	2323.2369	12845.3	11959.3
960.5287	2324.6674	12792.6	11907.8
960.6606	2326.0972	12762.3	11878.15
960.7925	2327.5263	12719.35	11836.4
960.9244	2328.9547	12676.9	11793.35
961.0562	2330.3823	12660.05	11776.15
961.1881	2331.8092	12652.6	11764.65
961.3198	2333.2355	12591.7	11709.65
961.4516	2334.661	12575.55	11689.9
961.5833	2336.0858	12529	11643.75
961.715	2337.5098	12482.15	11598.6
961.8467	2338.9332	12475.55	11589.75
961.9783	2340.3558	12410.1	11523.05
962.1099	2341.7778	12364.4	11482.6
962.2415	2343.199	12336.05	11451.45
962.373	2344.6195	12272.55	11390.15
962.5045	2346.0393	12275.45	11393.15
962.636	2347.4583	12252.5	11366.4
962.7675	2348.8767	12216.3	11332.55
962.8989	2350.2943	12184.95	11298.7
963.0303	2351.7113	12181.25	11296.1
963.1617	2353.1275	12125.15	11240.1
963.293	2354.543	12074.75	11182.25
963.4243	2355.9578	12037.6	11153.7
963.5556	2357.3718	11971.8	11089.35
963.6868	2358.7852	11946.65	11062.2
963.818	2360.1978	11879.45	10996.7
963.9492	2361.6098	11825.55	10942.8
964.0803	2363.021	11825.8	10939.3
964.2114	2364.4315	11785.1	10900.35
964.3425	2365.8413	11758.25	10874.2
964.4736	2367.2504	11712	10832.5
964.6046	2368.6587	11676.4	10793.8
964.7356	2370.0664	11609.3	10725.25
964.8666	2371.4733	11584.65	10702.7
964.9975	2372.8795	11555.4	10670.95
965.1284	2374.285	11522.6	10639.4
965.2593	2375.6899	11464.45	10582.9
965.3901	2377.0939	11407.45	10525.2
965.5209	2378.4973	11375	10493.2
965.6517	2379.9	11340.4	10458.15
965.7825	2381.3019	11294.15	10410.45
965.9132	2382.7032	11277.6	10395.95
966.0439	2384.1037	11246.25	10367.1
966.1745	2385.5035	11213.85	10331.75
966.3051	2386.9027	11154.85	10274.35
966.4357	2388.3011	11124.8	10240.85
966.5663	2389.6987	11113	10229.85
966.6968	2391.0957	11062.55	10179.05
966.8273	2392.492	11039.7	10159.4
966.9578	2393.8876	10976.8	10091.55
967.0882	2395.2824	10910.65	10028.05
967.2186	2396.6765	10901.9	10018.55
967.349	2398.07	10832.3	9949.85
967.4793	2399.4627	10812.6	9928.15
967.6097	2400.8547	10779.2	9896.05
967.7399	2402.246	10750.15	9860.85
967.8702	2403.6366	10718.35	9834.25
968.0004	2405.0265	10619.05	9739.5
968.1306	2406.4156	10582.6	9696.2
968.2607	2407.8041	10568.6	9682.3
968.3909	2409.1918	10542.1	9655.45
968.521	2410.5789	10494.05	9610.4
968.651	2411.9652	10456	9570.6
968.781	2413.3508	10423.5	9541.25
968.911	2414.7358	10373.9	9487.75
969.041	2416.12	10343.5	9462
969.1709	2417.5035	10312.45	9427.35
969.3008	2418.8863	10288.25	9405
969.4307	2420.2684	10254.55	9371.15
969.5606	2421.6497	10204.55	9319.45
969.6904	2423.0304	10138.9	9257.65
969.8201	2424.4104	10126.7	9243.7
969.9499	2425.7896	10088.9	9205.6
970.0796	2427.1682	10062.95	9180.55
970.2093	2428.546	10034.7	9150.6
970.3389	2429.9232	10024.35	9140.7
970.4685	2431.2996	9984.05	9099.9
970.5981	2432.6753	9994.6	9114.15
970.7277	2434.0503	9944.5	9061.45
970.8572	2435.4246	9903.8	9021.45
970.9867	2436.7982	9876.95	8992.05
971.1161	2438.1711	9845.35	8962.75
971.2456	2439.5433	9803.7	8919.55
971.375	2440.9148	9773.15	8885.55
971.5043	2442.2856	9723.2	8839.7
971.6336	2443.6557	9714.45	8828.2
971.7629	2445.025	9675.1	8790.25
971.8922	2446.3937	9671	8788.2
972.0214	2447.7617	9622.25	8738.25
972.1506	2449.1289	9629	8744.6
972.2798	2450.4955	9574	8690.45
972.4089	2451.8613	9566.3	8685.25
972.538	2453.2265	9520.5	8638.25
972.6671	2454.5909	9510	8624.95
972.7961	2455.9546	9476.5	8593.85
972.9251	2457.3177	9420	8539.5
973.0541	2458.68	9401.75	8518.05
973.1831	2460.0416	9393.15	8510.75
973.312	2461.4025	9363.8	8479.75
973.4408	2462.7627	9344.9	8451
973.5697	2464.1222	9309.3	8426.8
973.6985	2465.4811	9297.6	8415
973.8273	2466.8392	9281.7	8397.5
973.956	2468.1966	9230.15	8343.85
974.0847	2469.5533	9250.1	8365.3
974.2134	2470.9093	9179.2	8296.65
974.3421	2472.2645	9155.15	8269.05
974.4707	2473.6191	9142.05	8258.45
974.5993	2474.973	9092.25	8208.4
974.7278	2476.3262	9075.05	8190.75
974.8563	2477.6787	9051.25	8167.65
974.9848	2479.0305	9023.6	8140.2
975.1132	2480.3816	8970.35	8088.95
975.2417	2481.7319	8946.25	8062.65
975.37	2483.0816	8906.15	8022.8
975.4984	2484.4306	8854.35	7970.75
975.6267	2485.7789	8834.7	7955.05
975.755	2487.1264	8809.85	7924.1
975.8833	2488.4733	8785.5	7903.9
976.0115	2489.8195	8738.55	7846.5
976.1397	2491.165	8698.7	7813.85
976.2678	2492.5097	8694	7809.95
976.3959	2493.8538	8648.95	7765.7
976.524	2495.1972	8599.7	7716.5
976.6521	2496.5398	8603.75	7718.9
976.7801	2497.8818	8568.5	7684.45
976.9081	2499.2231	8543.85	7662.75
977.036	2500.5637	8521.25	7636.35
977.164	2501.9035	8491.2	7607.3
977.2918	2503.2427	8442.5	7553.7
977.4197	2504.5812	8426.55	7543.8
977.5475	2505.919	8417.85	7532.45
977.6753	2507.256	8411	7528.35
977.8031	2508.5924	8356.85	7474.25
977.9308	2509.9281	8327.45	7440.5
978.0585	2511.2631	8334.1	7450.4
978.1861	2512.5974	8282.85	7400.15
978.3137	2513.9309	8247.55	7363.4
978.4413	2515.2638	8250.55	7335.85
978.5689	2516.596	8216.1	7333.9
978.6964	2517.9275	8155.1	7269.7
978.8239	2519.2583	8136.15	7254.3
978.9513	2520.5884	8105.45	7220.4
979.0788	2521.9178	8084.7	7201.4
979.2062	2523.2465	8042.5	7160.5
979.3335	2524.5745	8005.95	7123.05
979.4608	2525.9018	8006.25	7122.5
979.5881	2527.2284	7965.1	7084.1
979.7154	2528.5543	7976.65	7093.5
979.8426	2529.8796	7945.5	7061.15
979.9698	2531.2041	7924.3	7040.85
980.0969	2532.5279	7907.1	7024.6
980.224	2533.851	7896.25	7012.55
980.3511	2535.1735	7849.1	6967.3
980.4781	2536.4952	7835.1	6952.9
980.6052	2537.8163	7820.35	6935.4
980.7321	2539.1366	7802.15	6921.2
980.8591	2540.4562	7777.55	6894.6
980.986	2541.7752	7768.95	6885.7
981.1129	2543.0935	7746.9	6864.85
981.2397	2544.411	7745.75	6860.55
981.3665	2545.7279	7724.7	6841.65
981.4933	2547.0441	7686.45	6803.2
981.62	2548.3596	7715	6830.25
981.7467	2549.6744	7676.65	6794.05
981.8734	2550.9885	7641.65	6749.6
982.0001	2552.3019	7619.9	6739
982.1267	2553.6146	7600.75	6717.35
982.2532	2554.9266	7592.35	6707.3
982.3798	2556.2379	7559.05	6676.4
982.5063	2557.5485	7557.65	6676.3
982.6327	2558.8585	7562.15	6674.2
982.7592	2560.1677	7531.4	6645.45
982.8856	2561.4762	7515.75	6631
983.0119	2562.7841	7486.95	6602
983.1383	2564.0913	7470.95	6588.35
983.2646	2565.3977	7456.9	6574.4
983.3908	2566.7035	7437.05	6554.05
983.517	2568.0086	7413.2	6528.7
983.6432	2569.313	7406.85	6524.65
983.7694	2570.6167	7389.55	6502.15
983.8955	2571.9197	7362.55	6480.5
984.0216	2573.222	7357.15	6471.6
984.1476	2574.5236	7326.55	6441.45
984.2737	2575.8246	7298.65	6412.2
984.3996	2577.1248	7304.55	6417.55
984.5256	2578.4244	7313.7	6430.9
984.6515	2579.7232	7266.85	6383.8
984.7774	2581.0214	7268.4	6358.75
984.9032	2582.3189	7260.65	6378.75
985.029	2583.6157	7233.9	6346.45
985.1548	2584.9118	7236.35	6352.25
985.2806	2586.2072	7178.85	6296.8
985.4063	2587.5019	7147.75	6263.6
985.5319	2588.7959	7131.35	6249.45
985.6576	2590.0893	7143.3	6257.15
985.7832	2591.3819	7128.9	6247
985.9087	2592.6739	7087.8	6204.15
986.0343	2593.9652	7079.3	6196.25
986.1597	2595.2557	7048.85	6165
986.2852	2596.5456	7025.35	6140
986.4106	2597.8348	6984.35	6100.05
986.536	2599.1234	6976.8	6094.1
986.6614	2600.4112	6964.35	6082.35
986.7867	2601.6983	6918.95	6032.85
986.912	2602.9848	6916.5	6033.85
987.0372	2604.2705	6896.45	6007.1
987.1624	2605.5556	6862.65	5979.1
987.2876	2606.84	6845.4	5962.2
987.4128	2608.1237	6811.25	5927.95
987.5379	2609.4067	6791.05	5908.2
987.6629	2610.689	6784.85	5893.3
987.788	2611.9707	6763.65	5878.35
987.913	2613.2516	6732.35	5844.45
988.0379	2614.5319	6693.8	5811.55
988.1629	2615.8115	6660.45	5776.85
988.2878	2617.0903	6624.4	5741
988.4126	2618.3685	6615.55	5734.75
988.5375	2619.6461	6583.8	5700.95
988.6622	2620.9229	6571.65	5688.5
988.787	2622.199	6560.3	5675.95
988.9117	2623.4745	6545.8	5661.85
989.0364	2624.7493	6527.9	5644.5
989.161	2626.0234	6510.6	5627.85
989.2857	2627.2968	6480.7	5596.6
989.4102	2628.5695	6441.85	5557.4
989.5348	2629.8415	6425.4	5542.15
989.6593	2631.1128	6397	5513.2
989.7837	2632.3835	6383.25	5502.85
989.9082	2633.6535	6344.5	5462.65
990.0326	2634.9228	6319.85	5438.25
990.1569	2636.1914	6316.05	5435.2
990.2812	2637.4593	6319.1	5431.1
990.4055	2638.7265	6291.2	5408.65
990.5298	2639.9931	6263.7	5382.65
990.654	2641.259	6212.05	5326.05
990.7782	2642.5242	6242.55	5359.3
990.9023	2643.7887	6207.7	5323.9
991.0264	2645.0525	6200.3	5318.5
991.1505	2646.3156	6172.3	5289.65
991.2745	2647.5781	6153.55	5271.3
991.3985	2648.8398	6131.4	5247.95
991.5225	2650.1009	6132.25	5211.5
991.6464	2651.3613	6107.2	5225.3
991.7703	2652.6211	6098.3	5215.7
991.8942	2653.8801	6048.75	5168.25
992.018	2655.1385	6047.25	5162.65
992.1418	2656.3961	6039	5156.6
992.2655	2657.6531	6012	5130.65
992.3892	2658.9094	6001.5	5118.3
992.5129	2660.1651	5988	5106.4
992.6366	2661.42	5959.05	5076.6
992.7602	2662.6743	5957.8	5075.25
992.8837	2663.9279	5924.4	5043.05
993.0073	2665.1808	5914.4	5031.95
993.1307	2666.433	5913.55	5030.55
993.2542	2667.6846	5898.75	5017.55
993.3776	2668.9354	5878.25	4994.2
993.501	2670.1856	5867.3	4982.9
993.6244	2671.4351	5836.4	4955.5
993.7477	2672.6839	5847	4964.05
993.8709	2673.9321	5812.95	4931.45
993.9942	2675.1795	5793.7	4910.6
994.1174	2676.4263	5790.2	4907.85
994.2405	2677.6724	5768.15	4886.75
994.3637	2678.9179	5749.25	4865.4
994.4868	2680.1626	5735.55	4853.4
994.6098	2681.4067	5721.8	4838.8
994.7328	2682.6501	5718.65	4836.65
994.8558	2683.8928	5697.35	4814.5
994.9788	2685.1348	5667.6	4786.25
995.1017	2686.3761	5648.1	4766.2
995.2245	2687.6168	5645.4	4764.5
995.3474	2688.8568	5612.5	4729.65
995.4702	2690.0961	5593.85	4712.4
995.5929	2691.3348	5583.65	4700.1
995.7156	2692.5727	5567.65	4686
995.8383	2693.81	5548.15	4666.2
995.961	2695.0466	5542.45	4660.95
996.0836	2696.2826	5518.95	4637.15
996.2062	2697.5178	5541	4637.4
996.3287	2698.7524	5495.5	4613.05
996.4512	2699.9863	5463.95	4578.7
996.5737	2701.2195	5442	4560.55
996.6961	2702.452	5430.1	4544
996.8185	2703.6839	5441.05	4558.55
996.9408	2704.9151	5427.75	4546
997.0631	2706.1456	5385.8	4503.15
997.1854	2707.3755	5384.5	4503.3
997.3077	2708.6046	5357.15	4472.65
997.4299	2709.8331	5340.35	4458.3
997.552	2711.0609	5326.4	4443.8
997.6742	2712.2881	5318.25	4435.75
997.7963	2713.5145	5310.9	4426.45
997.9183	2714.7403	5318.3	4437.45
998.0403	2715.9654	5297.75	4415.6
998.1623	2717.1899	5275.1	4391.55
998.2842	2718.4136	5247	4365.15
998.4062	2719.6367	5251.8	4370.05
998.528	2720.8591	5226.1	4339.15
998.6498	2722.0809	5200.65	4318.95
998.7716	2723.3019	5200	4316.7
998.8934	2724.5223	5196.75	4313.05
999.0151	2725.7421	5176.1	4293.45
999.1368	2726.9611	5171.3	4285.1
999.2584	2728.1795	5149.75	4265.2
999.38	2729.3972	5123.4	4242.6
999.5016	2730.6142	5129.5	4239.8
999.6231	2731.8306	5060.45	4177
999.7446	2733.0462	5053.95	4170.95
999.8661	2734.2612	5024.15	4138.7
999.9875	2735.4756	4998.65	4116.4
1000.1089	2736.6892	4986.8	4104.6
1000.2302	2737.9022	4949.15	4068.5
1000.3515	2739.1145	4934.2	4052.8
1000.4728	2740.3262	4904.65	4014.25
1000.594	2741.5372	4892.75	4014.1
1000.7152	2742.7475	4875.15	3993.65
1000.8363	2743.9571	4860.2	3978.1
1000.9575	2745.1661	4845.5	3958.6
1001.0785	2746.3744	4829.7	3946.05
1001.1996	2747.582	4806.15	3923
1001.3206	2748.7889	4794.35	3909.8
1001.4415	2749.9952	4790.9	3909.8
1001.5625	2751.2008	4756.6	3874.45
1001.6833	2752.4057	4745.45	3862.2
1001.8042	2753.61	4713.85	3832.5
1001.925	2754.8136	4721	3835.7
1002.0458	2756.0165	4693.8	3812.35
1002.1665	2757.2188	4694.15	3813.85
1002.2872	2758.4204	4666.7	3785.75
1002.4078	2759.6213	4645	3761.25
1002.5285	2760.8215	4651.55	3765.8
1002.649	2762.0211	4632	3750.25
1002.7696	2763.22	4617.1	3732.05
1002.8901	2764.4182	4599	3717.8
1003.0106	2765.6158	4585.6	3704.85
1003.131	2766.8127	4572.2	3687.55
1003.2514	2768.009	4550.5	3667.55
1003.3717	2769.2045	4548	3668.45
1003.492	2770.3994	4543	3659
1003.6123	2771.5936	4513.7	3631.3
1003.7325	2772.7872	4490	3608.9
1003.8527	2773.9801	4482.7	3600.2
1003.9729	2775.1723	4475.65	3579.1
1004.093	2776.3639	4448.65	3568.85
1004.2131	2777.5548	4428.4	3543.75
1004.3331	2778.745	4421.4	3537.6
1004.4531	2779.9346	4412.55	3531.35
1004.5731	2781.1235	4416.55	3535.35
1004.693	2782.3117	4395.3	3514.8
1004.8129	2783.4992	4378.2	3497.2
1004.9328	2784.6861	4354	3471.95
1005.0526	2785.8723	4360.65	3479.4
1005.1723	2787.0579	4354.7	3472.9
1005.2921	2788.2428	4313.3	3430.9
1005.4118	2789.427	4317.4	3437.9
1005.5314	2790.6106	4315.7	3433
1005.651	2791.7935	4303.75	3421.1
1005.7706	2792.9757	4269.1	3388.85
1005.8902	2794.1573	4268.8	3385.1
1006.0097	2795.3382	4257.25	3376.5
1006.1291	2796.5184	4247.7	3365.7
1006.2485	2797.698	4244.75	3360.85
1006.3679	2798.8769	4236.95	3354.65
1006.4873	2800.0551	4230.85	3350.3
1006.6066	2801.2327	4228.75	3345.35
1006.7258	2802.4096	4203.6	3322.05
1006.8451	2803.5859	4216.05	3334.05
1006.9642	2804.7615	4203.65	3322.6
1007.0834	2805.9364	4198.3	3316.9
1007.2025	2807.1106	4207.15	3326.7
1007.3216	2808.2842	4209.5	3327.2
1007.4406	2809.4572	4201.35	3319.9
1007.5596	2810.6294	4204.55	3320.8
1007.6785	2811.801	4233.95	3354.2
1007.7975	2812.972	4236.45	3354.9
1007.9163	2814.1423	4231.8	3348.9
1008.0352	2815.3119	4255.55	3374.15
1008.154	2816.4808	4260.45	3381.2
1008.2727	2817.6491	4280.85	3399.5
1008.3914	2818.8167	4302.2	3423.05
1008.5101	2819.9837	4310.65	3423.35
1008.6288	2821.15	4344.55	3462.8
1008.7474	2822.3157	4363.8	3484.9
1008.8659	2823.4807	4363.35	3482.25
1008.9844	2824.645	4400.25	3518.1
1009.1029	2825.8086	4427.4	3547.55
1009.2214	2826.9716	4437.55	3557.55
1009.3398	2828.134	4466.8	3586.65
1009.4581	2829.2957	4484.5	3602.4
1009.5764	2830.4567	4479.15	3597.3
1009.6947	2831.617	4484.35	3602.3
1009.813	2832.7767	4483.55	3602.55
1009.9312	2833.9358	4471.35	3590.1
1010.0493	2835.0941	4479.25	3595.15
1010.1675	2836.2519	4465.6	3584.85
1010.2855	2837.4089	4424.45	3542.35
1010.4036	2838.5653	4400.2	3518.9
1010.5216	2839.7211	4403.05	3523.65
1010.6396	2840.8761	4399.65	3518.05
1010.7575	2842.0306	4379.15	3500.6
1010.8754	2843.1843	4402.5	3522.6
1010.9932	2844.3374	4404.55	3521.5
1011.111	2845.4899	4439.3	3558.25
1011.2288	2846.6417	4447.65	3566.7
1011.3465	2847.7928	4464.25	3587.05
1011.4642	2848.9433	4501.3	3621.05
1011.5818	2850.0931	4514.5	3635.95
1011.6995	2851.2422	4569.1	3686.15
1011.817	2852.3907	4572.95	3689.35
1011.9345	2853.5385	4574.25	3691.9
1012.052	2854.6857	4604.75	3714.25
1012.1695	2855.8323	4608.35	3726.4
1012.2869	2856.9781	4617.95	3735.1
1012.4042	2858.1233	4662.9	3783.25
1012.5216	2859.2679	4666.4	3784.7
1012.6389	2860.4118	4693.3	3813
1012.7561	2861.555	4706.85	3820.85
1012.8733	2862.6976	4713.85	3832.3
1012.9905	2863.8395	4706.7	3826.7
1013.1076	2864.9808	4726.05	3847.3
1013.2247	2866.1214	4731.3	3852.2
1013.3417	2867.2614	4737.1	3855
1013.4587	2868.4007	4723.65	3842
1013.5757	2869.5393	4710.6	3827.85
1013.6926	2870.6773	4714.6	3832.5
1013.8095	2871.8146	4727.95	3844.8
1013.9263	2872.9513	4703.95	3818.1
1014.0431	2874.0874	4675.85	3797.1
1014.1599	2875.2227	4658.55	3777.75
1014.2766	2876.3574	4642.85	3762.15
1014.3933	2877.4915	4636	3756.3
1014.51	2878.6249	4579.7	3699.9
1014.6266	2879.7577	4588.8	3707.65
1014.7431	2880.8898	4545.25	3654.7
1014.8596	2882.0212	4537.05	3657.95
1014.9761	2883.152	4521.1	3640.6
1015.0925	2884.2821	4505.85	3624.1
1015.2089	2885.4116	4489.9	3610.85
1015.3253	2886.5405	4477.65	3597.2
1015.4416	2887.6686	4476.2	3592.1
1015.5579	2888.7962	4453.35	3575.3
1015.6741	2889.923	4437.6	3559.45
1015.7903	2891.0493	4446	3565.75
1015.9065	2892.1748	4446.25	3566.45
1016.0226	2893.2997	4445.6	3565.1
1016.1387	2894.424	4447.8	3568
1016.2547	2895.5476	4433.8	3553.6
1016.3707	2896.6706	4428.75	3549.4
1016.4866	2897.7929	4430.95	3549.6
1016.6025	2898.9145	4438	3556.1
1016.7184	2900.0355	4443.1	3563.8
1016.8342	2901.1559	4442.5	3562.15
1016.95	2902.2756	4455.35	3575.45
1017.0658	2903.3946	4445.15	3564.15
1017.1815	2904.513	4455.4	3570
1017.2971	2905.6308	4473.15	3593
1017.4127	2906.7479	4464.7	3584.95
1017.5283	2907.8643	4466.1	3583.65
1017.6439	2908.9801	4460.35	3582.2
1017.7594	2910.0953	4459	3578.55
1017.8748	2911.2098	4459	3576.35
1017.9902	2912.3236	4424.75	3536.95
1018.1056	2913.4368	4424.25	3540.75
1018.2209	2914.5494	4404.45	3521.95
1018.3362	2915.6613	4386.65	3500.25
1018.4515	2916.7725	4357.1	3475.45
1018.5667	2917.8831	4346.35	3464.4
1018.6819	2918.9931	4316.85	3434.05
1018.797	2920.1024	4290.55	3410.75
1018.9121	2921.211	4268.15	3386.3
1019.0271	2922.319	4241.05	3359.6
1019.1421	2923.4264	4237	3356.7
1019.2571	2924.5331	4227.35	3347.15
1019.372	2925.6391	4207.65	3328.2
1019.4869	2926.7445	4198.5	3318.3
1019.6017	2927.8493	4187.4	3306.9
1019.7165	2928.9534	4177.65	3298.7
1019.8313	2930.0569	4184.7	3303.1
1019.946	2931.1597	4184.5	3304
1020.0606	2932.2619	4185.45	3305.85
1020.1753	2933.3634	4157.3	3276.55
1020.2899	2934.4643	4178.9	3291.65
1020.4044	2935.5645	4149	3263.35
1020.5189	2936.6641	4111.95	3226.9
1020.6334	2937.763	4094.2	3213.95
1020.7478	2938.8613	4067.75	3187.35
1020.8622	2939.959	4041.9	3156.7
1020.9765	2941.056	3997.7	3118.05
1021.0908	2942.1523	3937	3055.85
1021.2051	2943.248	3895.95	3015.35
1021.3193	2944.3431	3837.15	2956.75
1021.4334	2945.4375	3773.75	2892.7
1021.5476	2946.5313	3718.6	2839.25
1021.6617	2947.6244	3637.25	2756.05
1021.7757	2948.7169	3610.8	2730.6
1021.8897	2949.8087	3544.8	2665.55
1022.0037	2950.8999	3495.65	2614.75
1022.1176	2951.9904	3440.85	2559.95
1022.2315	2953.0803	3399.35	2519.45
1022.3453	2954.1696	3346.6	2467.3
1022.4591	2955.2582	3312.8	2432.9
1022.5728	2956.3462	3279.75	2398.85
1022.6865	2957.4335	3244.75	2363.65
1022.8002	2958.5202	3216.8	2334.5
1022.9138	2959.6062	3194.6	2315.3
1023.0274	2960.6916	3172.2	2291.35
1023.141	2961.7764	3156.8	2276.65
1023.2545	2962.8605	3138.85	2257.3
1023.3679	2963.9439	3118.4	2239.05
1023.4813	2965.0267	3116.9	2236.45
1023.5947	2966.1089	3123.95	2219.8
1023.708	2967.1905	3087.15	2207.55
1023.8213	2968.2714	3079.75	2200.35
1023.9346	2969.3516	3064.2	2185.7
1024.0478	2970.4312	3071.55	2183
1024.1609	2971.5102	3068.45	2187.75
1024.274	2972.5885	3059.15	2179.5
1024.3871	2973.6662	3059.5	2174.9
1024.5002	2974.7432	3034.55	2154.95
1024.6132	2975.8196	3025.35	2146.35
1024.7261	2976.8954	3025.9	2147.35
1024.839	2977.9705	3008.05	2126.05
1024.9519	2979.045	2989.35	2110
1025.0647	2980.1188	2987.3	2108
1025.1775	2981.192	2962.5	2082.75
1025.2902	2982.2645	2948.6	2066.5
1025.4029	2983.3364	2929.25	2050.35
1025.5156	2984.4077	2902.85	2025.2
1025.6282	2985.4783	2878.5	1991.4
1025.7407	2986.5483	2855.85	1977.35
1025.8532	2987.6177	2843.1	1963.5
1025.9657	2988.6864	2817.85	1937.6
1026.0782	2989.7545	2803.95	1923.55
1026.1906	2990.8219	2785.5	1908.15
1026.3029	2991.8887	2762.55	1879.8
1026.4152	2992.9548	2725.55	1846.05
1026.5275	2994.0204	2694.7	1815.3
1026.6397	2995.0852	2679.1	1802.45
1026.7519	2996.1495	2668.45	1786.5
1026.864	2997.2131	2644	1765.95
1026.9761	2998.276	2629.85	1751.15
1027.0882	2999.3383	2607.75	1727.3
1027.2002	3000.4	2580.4	1700.8
1027.3122	3001.4611	2573.55	1692.7
1027.4241	3002.5215	2552.1	1670.8
1027.536	3003.5812	2538.5	1657.45
1027.6478	3004.6404	2528.8	1647
1027.7596	3005.6989	2515.55	1633.9
1027.8714	3006.7567	2509.65	1629.7
1027.9831	3007.8139	2526.3	1615.9
1028.0947	3008.8705	2477.75	1598.45
1028.2064	3009.9264	2479.2	1594.1
1028.3179	3010.9818	2471.8	1590.05
1028.4295	3012.0364	2460.05	1578.05
1028.541	3013.0905	2431.95	1551.45
1028.6524	3014.1439	2434.55	1556.65
1028.7638	3015.1966	2431.05	1552.7
1028.8752	3016.2487	2423	1544.9
1028.9865	3017.3002	2427.7	1544.15
1029.0978	3018.3511	2414.9	1536.9
1029.209	3019.4013	2402.55	1521.35
1029.3202	3020.4509	2398.15	1520.15
1029.4314	3021.4998	2392.2	1512.4
1029.5425	3022.5481	2385.8	1507.6
1029.6535	3023.5958	2381.65	1504
1029.7645	3024.6428	2369.8	1488.25
1029.8755	3025.6892	2363.35	1486.9
1029.9864	3026.735	2363.55	1483.3
1030.0973	3027.7802	2344.3	1464.45
1030.2082	3028.8247	2337.7	1458
1030.319	3029.8685	2343.75	1464.85
1030.4297	3030.9118	2339.95	1460.1
1030.5404	3031.9544	2328.45	1451.4
1030.6511	3032.9963	2332.65	1451.2
1030.7617	3034.0376	2325.75	1446.25
1030.8723	3035.0783	2329.75	1447.3
1030.9829	3036.1184	2308.85	1426.2
1031.0934	3037.1578	2302.8	1424.55
1031.2038	3038.1966	2309.7	1428
1031.3142	3039.2348	2299.65	1421.55
1031.4246	3040.2723	2300.55	1413.5
1031.5349	3041.3092	2285.35	1406.7
1031.6452	3042.3455	2281.35	1398.9
1031.7554	3043.3811	2279.3	1398.7
1031.8656	3044.4161	2269.85	1389.3
1031.9758	3045.4505	2274	1394.75
1032.0859	3046.4842	2267.45	1387.6
1032.1959	3047.5173	2245.55	1366.6
1032.3059	3048.5498	2240.6	1362.15
1032.4159	3049.5816	2233.9	1354
1032.5258	3050.6128	2240.6	1361.1
1032.6357	3051.6434	2236.7	1353.8
1032.7455	3052.6734	2220.45	1340.05
1032.8553	3053.7027	2212.05	1333.15
1032.9651	3054.7314	2207.4	1328.65
1033.0748	3055.7594	2192.2	1312.2
1033.1845	3056.7868	2203.6	1323.05
1033.2941	3057.8136	2196.9	1319.65
1033.4037	3058.8398	2185.5	1307.5
1033.5132	3059.8653	2172	1292.75
1033.6227	3060.8902	2169.6	1290.25
1033.7321	3061.9145	2159.15	1277.6
1033.8415	3062.9381	2158.6	1281.7
1033.9509	3063.9612	2176.6	1280.6
1034.0602	3064.9835	2149.2	1270.35
1034.1694	3066.0053	2142.7	1261.65
1034.2787	3067.0264	2129.95	1248.8
1034.3878	3068.0469	2131.15	1250.2
1034.497	3069.0668	2123.05	1241
1034.6061	3070.086	2120.8	1243.85
1034.7151	3071.1046	2103.3	1225.35
1034.8241	3072.1226	2097.25	1215
1034.9331	3073.1399	2086.45	1207
1035.042	3074.1567	2088.2	1209.55
1035.1508	3075.1727	2072.65	1191.85
1035.2597	3076.1882	2061.45	1182.8
1035.3684	3077.203	2049.95	1169.25
1035.4772	3078.2173	2048.95	1167.9
1035.5859	3079.2308	2044	1161.15
1035.6945	3080.2438	2033.3	1151.55
1035.8031	3081.2561	2021.5	1142.8
1035.9117	3082.2678	2020.95	1141.05
1036.0202	3083.2789	2019.25	1139.65
1036.1286	3084.2893	2001.6	1122.1
1036.2371	3085.2991	1992.65	1113.65
1036.3454	3086.3083	1988	1108.65
1036.4538	3087.3169	1989.35	1108.7
1036.562	3088.3248	1981.4	1101.6
1036.6703	3089.3321	1965.2	1084.35
1036.7785	3090.3388	1965.2	1087.1
1036.8866	3091.3449	1952.6	1073.2
1036.9948	3092.3503	1947.75	1067
1037.1028	3093.3551	1941.35	1063.4
1037.2108	3094.3593	1938.05	1059.3
1037.3188	3095.3629	1943.7	1065.4
1037.4267	3096.3658	1938.35	1058.05
1037.5346	3097.3681	1916.15	1035.7
1037.6425	3098.3698	1918.1	1037.15
1037.7503	3099.3708	1911.45	1024.05
1037.858	3100.3713	1905.3	1026.35
1037.9657	3101.3711	1908.7	1027.8
1038.0734	3102.3702	2012.15	1001.15
1038.181	3103.3688	1893.25	1012.45
1038.2886	3104.3667	1868.75	991.3
1038.3961	3105.364	1877.3	998
1038.5036	3106.3607	1861.3	981.7
1038.611	3107.3568	1850.3	968.7
1038.7184	3108.3522	1854.85	977.6
1038.8257	3109.347	1843.5	963.65
1038.933	3110.3412	1841	958.15
1039.0403	3111.3348	1838.45	958.7
1039.1475	3112.3277	1833.95	955.65
1039.2547	3113.32	1816.25	936.95
1039.3618	3114.3117	1818.3	938.05
1039.4689	3115.3028	1813.85	935.25
1039.5759	3116.2932	1800.55	919.8
1039.6829	3117.2831	1802.35	916.9
1039.7898	3118.2723	1786.6	908.65
1039.8967	3119.2608	1788.45	908.25
1040.0035	3120.2488	1779.35	898.2
1040.1103	3121.2361	1778.7	899.35
1040.2171	3122.2229	1776.85	898.3
1040.3238	3123.209	1770.15	890.35
1040.4305	3124.1944	1758.1	879.45
1040.5371	3125.1793	1762.15	880.45
1040.6437	3126.1635	1756.15	877.55
1040.7502	3127.1471	1744.25	865.1
1040.8567	3128.1301	1740.35	862.1
1040.9631	3129.1125	1741.95	864.35
1041.0695	3130.0942	1738.8	859.95
1041.1759	3131.0753	1743.5	853.5
1041.2822	3132.0558	1732.25	851.1
1041.3884	3133.0357	1733.35	852.65
1041.4946	3134.015	1724.85	845.65
1041.6008	3134.9936	1720.8	839.25
1041.7069	3135.9716	1736.45	836.9
1041.813	3136.949	1712.9	832.8
1041.919	3137.9258	1716.05	831.75
1042.025	3138.902	1709.6	826.1
1042.1309	3139.8775	1702.4	822.9
1042.2368	3140.8524	1703.35	825.05
1042.3427	3141.8267	1687.95	805.95
1042.4485	3142.8004	1691.05	811.05
1042.5542	3143.7735	1693.05	807.25
1042.6599	3144.7459	1688	807.25
1042.7656	3145.7178	1676.6	799.25
1042.8712	3146.689	1676.1	797.45
1042.9768	3147.6596	1680.55	798.9
1043.0823	3148.6295	1666.25	786.65
1043.1878	3149.5989	1661.05	781.05
1043.2932	3150.5676	1654.85	777.05
1043.3986	3151.5357	1652.35	774.65
1043.5039	3152.5032	1649.3	771.55
1043.6092	3153.4701	1645.6	768.5
1043.7145	3154.4364	1643.2	762.8
1043.8197	3155.402	1636.35	755.3
1043.9248	3156.367	1629.2	748.1
1044.03	3157.3315	1655.4	736.7
1044.135	3158.2952	1625.5	746.35
1044.24	3159.2584	1619.25	741.55
1044.345	3160.221	1616.1	736.4
1044.4499	3161.1829	1605.15	725.75
1044.5548	3162.1442	1609.65	729.8
1044.6596	3163.105	1598.4	719.35
1044.7644	3164.065	1594.7	717
1044.8692	3165.0245	1586.55	704.25
1044.9739	3165.9834	1582.55	706.9
1045.0785	3166.9416	1585.95	707
1045.1831	3167.8993	1583.8	705.95
1045.2877	3168.8563	1573.45	694.05
1045.3922	3169.8127	1575.7	697.35
1045.4966	3170.7684	1573.2	691.4
1045.6011	3171.7236	1559.9	679.7
1045.7054	3172.6782	1553.85	673.55
1045.8098	3173.6321	1563.5	684.3
1045.914	3174.5854	1553.65	668.15
1046.0183	3175.5381	1548.1	670.15
1046.1224	3176.4902	1547.1	669.9
1046.2266	3177.4417	1541.45	663.45
1046.3307	3178.3926	1538.8	660.5
1046.4347	3179.3428	1538.8	660.15
1046.5387	3180.2924	1534.7	657.6
1046.6427	3181.2415	1525.95	644.7
1046.7466	3182.1899	1524.2	644.45
1046.8504	3183.1377	1526	648.5
1046.9542	3184.0848	1524.5	641.25
1047.058	3185.0314	1515.3	636.85
1047.1617	3185.9773	1515.65	633.65
1047.2654	3186.9227	1510.1	631.4
1047.369	3187.8674	1503.65	624.3
1047.4726	3188.8115	1504.6	621.5
1047.5761	3189.755	1504.6	626.85
1047.6796	3190.6979	1493.45	613.65
1047.783	3191.6402	1492.85	614.95
1047.8864	3192.5818	1486.25	607
1047.9898	3193.5229	1500.55	605.15
1048.0931	3194.4633	1484.9	607.8
1048.1963	3195.4031	1475.15	594.95
1048.2995	3196.3423	1478.3	597.2
1048.4027	3197.2809	1474.1	596.2
1048.5058	3198.2189	1467.45	587.1
1048.6089	3199.1563	1479.2	583.3
1048.7119	3200.0931	1464.1	588.35
1048.8148	3201.0292	1462.65	586.2
1048.9178	3201.9648	1457.55	579.3
1049.0206	3202.8997	1457.1	572.9
1049.1235	3203.834	1458.7	580.3
1049.2262	3204.7677	1450.4	573.55
1049.329	3205.7008	1443	563.65
1049.4317	3206.6333	1442.95	565.05
1049.5343	3207.5652	1443.3	562.7
1049.6369	3208.4964	1435.85	557.75
1049.7394	3209.4271	1435.6	556.85
1049.8419	3210.3571	1430.75	551
1049.9444	3211.2865	1434.55	554.8
1050.0468	3212.2154	1435.7	555.8
1050.1491	3213.1436	1432.05	549.8
1050.2514	3214.0712	1434.65	548.45
1050.3537	3214.9982	1420.3	542.6
1050.4559	3215.9246	1411.5	532.15
1050.5581	3216.8503	1410.7	533.15
1050.6602	3217.7755	1414.05	533.7
1050.7623	3218.7001	1406.35	527.9
1050.8643	3219.624	1405	525.4
1050.9663	3220.5473	1414.25	538.25
1051.0682	3221.4701	1402.3	522
1051.1701	3222.3922	1400.75	519.4
1051.2719	3223.3137	1393.25	514.75
1051.3737	3224.2346	1384.95	506.8
1051.4754	3225.1549	1388.85	512.35
1051.5771	3226.0746	1389.05	511.35
1051.6788	3226.9937	1381.2	502.4
1051.7804	3227.9121	1376.85	498.55
1051.8819	3228.83	1372.7	493.85
1051.9834	3229.7473	1379.1	499.2
1052.0849	3230.6639	1371	492.7
1052.1863	3231.5799	1363.8	484.5
1052.2876	3232.4954	1369.95	489.45
1052.3889	3233.4102	1363.05	483.2
1052.4902	3234.3244	1361.6	482.1
1052.5914	3235.238	1354	476.4
1052.6926	3236.151	1372.3	468.5
1052.7937	3237.0634	1349.65	472.8
1052.8948	3237.9752	1349.6	471.2
1052.9958	3238.8864	1351.4	470.7
1053.0968	3239.797	1348.55	470.75
1053.1977	3240.7069	1340.6	460.65
1053.2986	3241.6163	1347.2	467.5
1053.3994	3242.5251	1334.05	457.5
1053.5002	3243.4332	1328.75	449.55
1053.6009	3244.3408	1330.8	450.05
1053.7016	3245.2477	1324.75	446.8
1053.8022	3246.154	1335.3	456.7
1053.9028	3247.0598	1323.25	443.7
1054.0034	3247.9649	1321.35	441.2
1054.1039	3248.8694	1315.55	436.75
1054.2043	3249.7733	1314	433.45
1054.3047	3250.6766	1316.7	436.35
1054.4051	3251.5793	1308.9	431.1
1054.5054	3252.4814	1307.25	430.25
1054.6056	3253.3829	1306.3	429.25
1054.7058	3254.2838	1299.75	421.45
1054.806	3255.1841	1298.6	419.2
1054.9061	3256.0838	1297.95	418.4
1055.0061	3256.9829	1288.1	409.3
1055.1062	3257.8814	1286.25	406.8
1055.2061	3258.7792	1285.4	404.75
1055.306	3259.6765	1290.4	412.1
1055.4059	3260.5731	1273	395.3
1055.5057	3261.4692	1270	390.75
1055.6055	3262.3647	1264.4	385.45
1055.7052	3263.2595	1260.1	382.1
1055.8049	3264.1538	1254.3	377
1055.9045	3265.0474	1247.9	368.4
1056.0041	3265.9404	1244.45	366.75
1056.1036	3266.8329	1235.3	356.5
1056.2031	3267.7247	1239.4	350.6
1056.3025	3268.616	1219.9	342.55
1056.4019	3269.5066	1211.75	332.85
1056.5013	3270.3966	1206.85	326.3
1056.6005	3271.286	1195.7	319.65
