Software Version:	3.9.2.0
Unit SN:	10000200
Spectrometer SN:	6960
Date:	3/6/2024 10:42:37 AM
Data Line Index:	25
Spectral Points:	2048
Integration time (ms):	125
Averages:	20
Delay (ms):	30
Sequence Number:	1
Processing:	dark subtract
Laser Power (mW):	305
Laser Current (mA):	821
Laser Diode Temp (C):	25.1
Laser Case Temp (C):	27
System Temp (C):	26.9
Spectrometer Temp (C):	24.3
CCD Temp (C):	0.004
Secondary Temp (C):	20.003
Heatsink Temp (C):	22.567
CCDPCB Temp (C):	36.529
SecondaryPCB Temp (C):	33.417

Wavelength	RamanShift	Raw Counts	Dark Subtracted
787.061	30.1047	1133.05	721.1
787.2016	32.3739	1175.8	763.1
787.3422	34.6426	1217.7	807.1
787.4828	36.9109	1266	854.35
787.6235	39.1787	1317.65	897.85
787.7642	41.4461	1387.6	965.6
787.9049	43.7131	1445.25	1017.45
788.0456	45.9796	1509	1078.55
788.1863	48.2456	1587	1153
788.3271	50.5112	1670	1233.9
788.4679	52.7764	1730.55	1292.85
788.6087	55.0411	1812.75	1370.4
788.7496	57.3054	1888.6	1441.05
788.8904	59.5692	1982.65	1531.9
789.0313	61.8326	2085.35	1630.45
789.1722	64.0955	2195.25	1735.3
789.3132	66.3579	2320.15	1854.3
789.4541	68.6199	2478.5	2012.9
789.5951	70.8815	2741.95	2274.65
789.7361	73.1426	3269.15	2793.65
789.8771	75.4032	4592.85	4112.3
790.0181	77.6634	8039.55	7554.75
790.1592	79.9231	17113.35	16623.65
790.3003	82.1824	55153.7	54652.75
790.4414	84.4412	65535	65015.05
790.5825	86.6995	65535	64988.6
790.7237	88.9574	65535	64963.8
790.8648	91.2148	65535	64944.4
791.006	93.4717	65535	64933.5
791.1472	95.7282	65535	64930.2
791.2885	97.9842	65535	64924.85
791.4297	100.2398	65535	64923.4
791.571	102.4949	65535	64920.1
791.7123	104.7495	65535	64914.2
791.8536	107.0036	65535	64912.85
791.9949	109.2573	65535	64913.5
792.1363	111.5105	65535	64911.65
792.2777	113.7632	65535	64913.35
792.4191	116.0154	65535	64899.1
792.5605	118.2672	65535	64907.9
792.7019	120.5185	65535	64907.55
792.8434	122.7693	65535	64901.45
792.9849	125.0197	65535	64900.85
793.1264	127.2696	65535	64898.45
793.2679	129.519	65535	64894
793.4094	131.7679	65535	64889.9
793.551	134.0163	65535	64885.25
793.6926	136.2642	65535	64881.85
793.8342	138.5117	65535	64874.85
793.9758	140.7587	65535	64881
794.1175	143.0052	65535	64875.6
794.2591	145.2512	65535	64878.55
794.4008	147.4967	65535	64873.9
794.5425	149.7417	65535	64871.3
794.6842	151.9863	65535	64871.5
794.826	154.2304	65535	64863.5
794.9677	156.4739	65535	64857.45
795.1095	158.717	65535	64858.6
795.2513	160.9596	65535	64857.3
795.3931	163.2017	65535	64853.55
795.535	165.4433	65535	64850.6
795.6768	167.6844	65535	64849.35
795.8187	169.925	65535	64846.8
795.9606	172.1651	65535	64845.7
796.1025	174.4047	65535	64842.8
796.2445	176.6439	65535	64838.55
796.3864	178.8825	65535	64839
796.5284	181.1206	65535	64832.75
796.6704	183.3582	65535	64827.3
796.8124	185.5954	65535	64827.2
796.9544	187.832	65535	64822.25
797.0965	190.0681	65535	64821.75
797.2386	192.3037	65535	64817.95
797.3806	194.5388	65535	64815.05
797.5228	196.7734	65535	64813.15
797.6649	199.0075	65535	64810.4
797.807	201.2411	65535	64807.4
797.9492	203.4742	65535	64807.2
798.0914	205.7068	65535	64805.25
798.2336	207.9389	65535	64803.6
798.3758	210.1704	65535	64805.45
798.518	212.4015	65535	64804.7
798.6603	214.632	65535	64809.7
798.8025	216.862	65535	64818.8
798.9448	219.0915	65535	64821
799.0871	221.3205	65535	64818.7
799.2294	223.549	65535	64824.3
799.3718	225.777	65535	64822.05
799.5141	228.0044	65535	64817.5
799.6565	230.2314	65535	64822.75
799.7989	232.4578	65535	64820.25
799.9413	234.6837	65535	64807.25
800.0837	236.909	65535	64807.9
800.2262	239.1339	65535	64783.75
800.3687	241.3582	65535	64798.25
800.5111	243.582	65535	64765.3
800.6536	245.8053	65535	64778.3
800.7961	248.0281	65535	64786.8
800.9387	250.2503	65535	64779.2
801.0812	252.472	65535	64776
801.2238	254.6932	65535	64774.3
801.3664	256.9139	65535	64775.2
801.509	259.134	65535	64774.1
801.6516	261.3536	65535	64769.05
801.7942	263.5727	65535	64772.45
801.9369	265.7912	65535	64771.7
802.0795	268.0092	65535	64771.3
802.2222	270.2267	65535	64769.25
802.3649	272.4436	65535	64770.7
802.5076	274.6601	65535	64762.95
802.6504	276.8759	65535	64766.65
802.7931	279.0913	65535	64761.15
802.9359	281.3061	65535	64760.15
803.0787	283.5204	65535	64761.4
803.2215	285.7341	65535	64756
803.3643	287.9473	65535	64746.95
803.5071	290.16	65535	64748.15
803.6499	292.3721	65535	64757.25
803.7928	294.5837	65535	64753.5
803.9357	296.7947	65535	64756.65
804.0786	299.0052	65535	64754.3
804.2215	301.2152	65535	64753.25
804.3644	303.4246	65535	64758.8
804.5074	305.6334	65535	64754.25
804.6503	307.8418	65535	64748.25
804.7933	310.0495	65535	64747.2
804.9363	312.2568	65535	64746.7
805.0793	314.4635	65535	64751.65
805.2223	316.6696	65535	64745.75
805.3653	318.8752	65535	64739.15
805.5084	321.0802	65535	64748.7
805.6514	323.2847	65535	64743.9
805.7945	325.4887	65535	64745.65
805.9376	327.692	65535	64742.1
806.0807	329.8949	65535	64741.5
806.2238	332.0972	65535	64740.4
806.367	334.2989	65535	64733
806.5101	336.5001	65535	64737
806.6533	338.7007	65535	64737.8
806.7965	340.9008	65535	64733.45
806.9397	343.1003	65535	64734.85
807.0829	345.2992	65535	64732.75
807.2261	347.4976	65535	64733.65
807.3693	349.6955	65535	64727.6
807.5126	351.8927	65535	64723.85
807.6559	354.0895	65535	64716.75
807.7991	356.2856	65535	64723.8
807.9424	358.4812	65535	64724.5
808.0857	360.6763	65535	64722.95
808.2291	362.8707	65535	64722.85
808.3724	365.0646	65535	64720.1
808.5158	367.258	65535	64717.55
808.6591	369.4508	65535	64715.7
808.8025	371.643	65535	64712.95
808.9459	373.8346	65535	64714.35
809.0893	376.0257	65535	64707.1
809.2327	378.2162	65535	64710.6
809.3762	380.4062	65535	64709.3
809.5196	382.5956	65535	64704.4
809.6631	384.7844	65535	64710.5
809.8066	386.9726	65535	64709.4
809.9501	389.1603	65535	64712.4
810.0936	391.3474	65535	64671.3
810.2371	393.5339	65535	64712.55
810.3806	395.7199	65535	64714.45
810.5241	397.9052	65535	64717.7
810.6677	400.09	65535	64717.1
810.8113	402.2743	65535	64715.05
810.9548	404.4579	65535	64717.85
811.0984	406.641	65535	64713
811.2421	408.8235	65535	64710.7
811.3857	411.0054	65535	64711.8
811.5293	413.1868	65535	64709.45
811.673	415.3675	65535	64705.65
811.8166	417.5477	65535	64704.55
811.9603	419.7273	65535	64702.7
812.104	421.9064	65535	64693.05
812.2477	424.0848	65535	64700.7
812.3914	426.2627	65535	64696.95
812.5351	428.4399	65535	64696.4
812.6788	430.6166	65535	64691.7
812.8226	432.7928	65535	64691.9
812.9663	434.9683	65535	64693
813.1101	437.1432	65535	64690.95
813.2539	439.3176	65535	64691.9
813.3977	441.4914	65535	64692.3
813.5415	443.6645	65535	64691.7
813.6853	445.8371	65535	64691.85
813.8291	448.0091	65535	64691.45
813.973	450.1806	65535	64692.6
814.1168	452.3514	65535	64690.7
814.2607	454.5216	65535	64682.6
814.4046	456.6913	65535	64688.45
814.5485	458.8603	65535	64685
814.6924	461.0288	65535	64688.8
814.8363	463.1967	65535	64690.25
814.9802	465.3639	65535	64688.15
815.1241	467.5306	65535	64685.2
815.2681	469.6967	65535	64685.2
815.412	471.8622	65535	64687.2
815.556	474.0271	65535	64683.65
815.7	476.1914	65535	64684.25
815.844	478.3551	65535	64686.35
815.988	480.5182	65535	64683.8
816.132	482.6807	65535	64684.4
816.276	484.8426	65535	64689.25
816.4201	487.0039	65535	64688.85
816.5641	489.1647	65535	64684.9
816.7082	491.3248	65535	64682.95
816.8522	493.4843	65535	64681.5
816.9963	495.6432	65535	64680.55
817.1404	497.8015	65535	64677.6
817.2845	499.9592	65535	64678.05
817.4286	502.1163	65535	64677.85
817.5727	504.2728	65535	64675.75
817.7168	506.4287	65535	64679.45
817.861	508.5839	65535	64680.55
818.0051	510.7386	65535	64678.1
818.1493	512.8927	65535	64674.9
818.2935	515.0461	65535	64675.9
818.4377	517.199	65535	64676.95
818.5818	519.3512	65535	64673.9
818.726	521.5029	65535	64666.9
818.8703	523.6539	65535	64675.15
819.0145	525.8043	65535	64674.2
819.1587	527.9541	65535	64670.65
819.303	530.1033	65535	64674.6
819.4472	532.2519	65535	64670.95
819.5915	534.3999	65535	64671.1
819.7357	536.5472	65535	64669
819.88	538.694	65535	64670.1
820.0243	540.8401	65535	64670.5
820.1686	542.9856	65535	64668.65
820.3129	545.1305	65535	64665.6
820.4572	547.2748	65535	64665.5
820.6016	549.4185	65535	64666.35
820.7459	551.5615	65535	64665.55
820.8902	553.704	65535	64664.85
821.0346	555.8458	65535	64666.15
821.1789	557.987	65535	64670.1
821.3233	560.1276	65535	64665.45
821.4677	562.2675	65535	64663.7
821.6121	564.4069	65535	64663.4
821.7565	566.5456	65535	64666.75
821.9009	568.6837	65535	64661.95
822.0453	570.8212	65535	64665.4
822.1897	572.958	65535	64662.3
822.3342	575.0942	65535	64668.7
822.4786	577.2299	65535	64668.3
822.6231	579.3648	65535	64670.55
822.7675	581.4992	65535	64668.75
822.912	583.6329	65535	64668.95
823.0565	585.766	65535	64667.75
823.201	587.8985	65535	64669
823.3454	590.0304	65535	64641.2
823.4899	592.1616	65535	64662.5
823.6345	594.2922	65535	64665.75
823.779	596.4222	65535	64662.15
823.9235	598.5515	65535	64660.8
824.068	600.6802	65535	64661.35
824.2126	602.8083	65535	64664.6
824.3571	604.9358	65535	64660.7
824.5017	607.0626	65535	64659.25
824.6462	609.1888	65535	64657.9
824.7908	611.3144	65535	64654.85
824.9354	613.4393	65535	64656.55
825.08	615.5636	65535	64658.9
825.2246	617.6873	65535	64658.55
825.3692	619.8103	65535	64656.95
825.5138	621.9327	65535	64657.9
825.6584	624.0544	65535	64662.6
825.803	626.1756	65535	64655.9
825.9477	628.2961	65535	64658.1
826.0923	630.4159	65535	64655.8
826.237	632.5351	65535	64656.55
826.3816	634.6537	65535	64657.7
826.5263	636.7716	65535	64653.8
826.6709	638.8889	65535	64654.55
826.8156	641.0056	65535	64656.6
826.9603	643.1216	65535	64652.55
827.105	645.237	65535	64651.05
827.2497	647.3518	65535	64654.25
827.3944	649.4659	65535	64656.15
827.5391	651.5793	65535	64654.05
827.6838	653.6922	65535	64654.7
827.8285	655.8043	65535	64655.25
827.9733	657.9159	65535	64651.6
828.118	660.0268	65535	64649.85
828.2627	662.137	65535	64652.5
828.4075	664.2466	65535	64648.15
828.5522	666.3556	65535	64652
828.697	668.4639	65535	64647.95
828.8418	670.5716	65535	64652.2
828.9865	672.6786	65535	64648.8
829.1313	674.785	65535	64646.25
829.2761	676.8907	65535	64648.8
829.4209	678.9958	65535	64651.1
829.5657	681.1002	65535	64650.3
829.7105	683.204	65535	64647.1
829.8553	685.3072	65535	64647.9
830.0001	687.4097	65535	64646.35
830.1449	689.5115	65535	64647.45
830.2898	691.6127	65535	64648.15
830.4346	693.7132	65535	64649.85
830.5794	695.8131	65535	64637.7
830.7243	697.9123	65535	64645.65
830.8691	700.0109	65535	64649
831.014	702.1089	65535	64648.45
831.1588	704.2061	65535	64646.15
831.3037	706.3028	65535	64642.8
831.4486	708.3987	65535	64646.05
831.5935	710.4941	65535	64646
831.7383	712.5887	65535	64646.7
831.8832	714.6827	65535	64643.2
832.0281	716.7761	65535	64646.95
832.173	718.8688	65535	64646.45
832.3179	720.9608	65535	64641.45
832.4628	723.0522	65535	64640.75
832.6077	725.1429	65535	64644.5
832.7527	727.233	65535	64644
832.8976	729.3224	65535	64642.9
833.0425	731.4112	65535	64643.7
833.1874	733.4993	65535	64639.45
833.3324	735.5867	65535	64640.5
833.4773	737.6735	65535	64641.7
833.6222	739.7596	65535	64641.9
833.7672	741.845	65535	64641.35
833.9122	743.9298	65535	64642.7
834.0571	746.014	65535	64642.75
834.2021	748.0974	65535	64640.35
834.347	750.1802	65535	64641.5
834.492	752.2624	65535	64642.9
834.637	754.3439	65535	64641.65
834.782	756.4247	65535	64631.55
834.9269	758.5048	65535	64640
835.0719	760.5843	65535	64643.2
835.2169	762.6631	65535	64643.2
835.3619	764.7413	65535	64644
835.5069	766.8188	65535	64639.3
835.6519	768.8956	65535	64639.4
835.7969	770.9718	65535	64640.95
835.9419	773.0473	65535	64641.2
836.0869	775.1221	65535	64641.95
836.232	777.1962	65535	64642.25
836.377	779.2697	65535	64640.1
836.522	781.3426	65535	64620.9
836.667	783.4147	65535	64638.5
836.8121	785.4862	65535	64642.05
836.9571	787.557	65535	64641
837.1021	789.6271	65535	64637.5
837.2472	791.6966	65535	64638.75
837.3922	793.7654	65535	64638.9
837.5373	795.8335	65535	64640.1
837.6823	797.901	65535	64641.1
837.8274	799.9678	65535	64638.6
837.9724	802.0339	65535	64641.9
838.1175	804.0993	65535	64629.55
838.2626	806.1641	65535	64636.65
838.4076	808.2282	65535	64637.7
838.5527	810.2916	65535	64638.25
838.6978	812.3544	65535	64640.55
838.8428	814.4164	65535	64638.8
838.9879	816.4778	65535	64637.65
839.133	818.5385	65535	64636.7
839.2781	820.5986	65535	64641.35
839.4232	822.658	65535	64640.15
839.5682	824.7166	65535	64636.65
839.7133	826.7747	65535	64637.55
839.8584	828.832	65535	64639.25
840.0035	830.8886	65535	64635.2
840.1486	832.9446	65535	64634.85
840.2937	834.9999	65535	64639.25
840.4388	837.0545	65535	64633.8
840.5839	839.1085	65535	64637.65
840.729	841.1618	65535	64636.8
840.8741	843.2143	65535	64636.3
841.0192	845.2662	65535	64637.2
841.1643	847.3175	65535	64636.15
841.3095	849.368	65535	64638.55
841.4546	851.4179	65535	64635.85
841.5997	853.467	65535	64634.85
841.7448	855.5155	65535	64637.7
841.8899	857.5633	65535	64638.6
842.0351	859.6105	65535	64636.6
842.1802	861.6569	65535	64637.4
842.3253	863.7027	65535	64634.25
842.4704	865.7478	65535	64632.5
842.6156	867.7922	65535	64634.6
842.7607	869.8359	65535	64636.15
842.9058	871.8789	65535	64632.8
843.0509	873.9212	65535	64604.2
843.1961	875.9629	65535	64633.05
843.3412	878.0039	65535	64635.3
843.4863	880.0441	65535	64635.45
843.6315	882.0837	65535	64633.15
843.7766	884.1226	65535	64632.75
843.9218	886.1609	65535	64633.8
844.0669	888.1984	65535	64634
844.212	890.2352	65535	64636.15
844.3572	892.2714	65535	64630.15
844.5023	894.3069	65535	64633.75
844.6475	896.3416	65535	64636.4
844.7926	898.3757	65535	64635.15
844.9377	900.4091	65535	64631.8
845.0829	902.4418	65535	64628.75
845.228	904.4739	65535	64632.9
845.3732	906.5052	65535	64631.95
845.5183	908.5358	65535	64633.85
845.6635	910.5658	65535	64632.95
845.8086	912.595	65535	64634.25
845.9538	914.6236	65535	64633.95
846.0989	916.6515	65535	64634.2
846.2441	918.6786	65535	64629.95
846.3892	920.7051	65535	64631.85
846.5344	922.7309	65535	64633.15
846.6795	924.756	65535	64635.15
846.8246	926.7804	65535	64632
846.9698	928.8041	65535	64627.4
847.1149	930.8272	65535	64631.4
847.2601	932.8495	65535	64630.8
847.4052	934.8711	65535	64631.1
847.5504	936.892	65535	64632.9
847.6955	938.9123	65535	64632.2
847.8407	940.9318	65535	64633.4
847.9858	942.9506	65535	64635
848.131	944.9688	65535	64632.8
848.2761	946.9862	65535	64633.15
848.4213	949.003	65535	64632.8
848.5664	951.019	65535	64632.45
848.7115	953.0344	65535	64633.05
848.8567	955.0491	65535	64631.65
849.0018	957.063	65535	64631.35
849.147	959.0763	65535	64634.2
849.2921	961.0888	65535	64630.9
849.4373	963.1007	65535	64631.1
849.5824	965.1119	65535	64631
849.7275	967.1223	65535	64635.25
849.8727	969.1321	65535	64636.2
850.0178	971.1412	65535	64632.7
850.1629	973.1495	65535	64632
850.3081	975.1572	65535	64584.5
850.4532	977.1641	65535	64630.35
850.5983	979.1704	65535	64634.5
850.7435	981.1759	65535	64630.1
850.8886	983.1808	65535	64630.15
851.0337	985.1849	65535	64622.25
851.1788	987.1884	65535	64628.15
851.324	989.1911	65535	64631.85
851.4691	991.1932	65535	64629.9
851.6142	993.1945	65535	64632.3
851.7593	995.1951	65535	64631.45
851.9045	997.1951	65535	64626.9
852.0496	999.1943	65535	64632.65
852.1947	1001.1928	65535	64631.8
852.3398	1003.1906	65535	64631.25
852.4849	1005.1877	65535	64630.65
852.63	1007.1841	65535	64627.15
852.7751	1009.1798	65535	64632.8
852.9202	1011.1748	65535	64634.45
853.0653	1013.1691	65535	64633.1
853.2104	1015.1627	65535	64631.8
853.3555	1017.1556	65535	64633.6
853.5006	1019.1477	65535	64631.15
853.6457	1021.1392	65535	64635.45
853.7908	1023.1299	65535	64634.05
853.9359	1025.12	65535	64633.85
854.081	1027.1093	65535	64638.6
854.2261	1029.0979	65535	64636.75
854.3712	1031.0859	65535	64636.1
854.5163	1033.0731	65535	64631.9
854.6613	1035.0596	65535	64635.85
854.8064	1037.0454	65535	64633.4
854.9515	1039.0304	65535	64630.8
855.0965	1041.0148	65535	64631.15
855.2416	1042.9985	65535	64631.55
855.3867	1044.9814	65535	64634.75
855.5317	1046.9636	65535	64631.9
855.6768	1048.9452	65535	64632.2
855.8219	1050.926	65535	64635.4
855.9669	1052.9061	65535	64632.55
856.112	1054.8855	65535	64633.1
856.257	1056.8642	65535	64632.45
856.4021	1058.8421	65535	64627
856.5471	1060.8194	65535	64629.75
856.6921	1062.7959	65535	64633.25
856.8372	1064.7717	65535	64631.75
856.9822	1066.7469	65535	64633.35
857.1272	1068.7213	65535	64630.9
857.2723	1070.695	65535	64631.35
857.4173	1072.6679	65535	64632.35
857.5623	1074.6402	65535	64632.15
857.7073	1076.6117	65535	64626.45
857.8523	1078.5826	65535	64632.2
857.9973	1080.5527	65535	64630.05
858.1423	1082.5221	65535	64631
858.2873	1084.4908	65535	64634.7
858.4323	1086.4587	65535	64631.3
858.5773	1088.426	65535	64629.4
858.7223	1090.3925	65535	64627
858.8673	1092.3584	65535	64627.95
859.0123	1094.3235	65535	64633.2
859.1573	1096.2879	65535	64630.9
859.3022	1098.2515	65535	64635.2
859.4472	1100.2145	65535	64632.85
859.5922	1102.1767	65535	64629.45
859.7371	1104.1382	65535	64629.75
859.8821	1106.099	65535	64631.85
860.027	1108.0591	65535	64632.15
860.172	1110.0185	65535	64631.6
860.3169	1111.9771	65535	64632.35
860.4619	1113.9351	65535	64630.9
860.6068	1115.8923	65535	64634.15
860.7517	1117.8488	65535	64633.4
860.8967	1119.8045	65535	64630.85
861.0416	1121.7596	65535	64631.7
861.1865	1123.7139	65535	64631.1
861.3314	1125.6675	65535	64632.75
861.4763	1127.6204	65535	64631.3
861.6212	1129.5726	65535	64630.8
861.7661	1131.524	65535	64633.15
861.911	1133.4748	65535	64633
862.0559	1135.4248	65535	64630.4
862.2008	1137.3741	65535	64631.85
862.3457	1139.3226	65535	64631.65
862.4905	1141.2705	65535	64630.9
862.6354	1143.2176	65535	64627.15
862.7803	1145.164	65535	64630.65
862.9251	1147.1097	65535	64630.85
863.07	1149.0546	65535	64630.2
863.2148	1150.9989	65535	64632.4
863.3597	1152.9424	65535	64632.6
863.5045	1154.8852	65535	64634.35
863.6493	1156.8272	65535	64634.55
863.7942	1158.7686	65535	64625
863.939	1160.7092	65535	64630.85
864.0838	1162.6491	65535	64629
864.2286	1164.5883	65535	64630.75
864.3734	1166.5267	65535	64631.2
864.5182	1168.4644	65535	64630.75
864.663	1170.4014	65535	64627.3
864.8078	1172.3377	65535	64634.7
864.9526	1174.2732	65535	64634.15
865.0974	1176.2081	65535	64634.55
865.2421	1178.1421	65535	64628.5
865.3869	1180.0755	65535	64632.6
865.5317	1182.0082	65535	64630.65
865.6764	1183.9401	65535	64630.75
865.8212	1185.8713	65535	64629.9
865.9659	1187.8017	65535	64631.85
866.1106	1189.7315	65535	64633.55
866.2554	1191.6605	65535	64605.95
866.4001	1193.5888	65535	64637.05
866.5448	1195.5163	65535	64633.75
866.6895	1197.4432	65535	64632
866.8342	1199.3693	65535	64632.9
866.9789	1201.2947	65535	64630.05
867.1236	1203.2193	65535	64633.1
867.2683	1205.1432	65535	64631.25
867.413	1207.0664	65535	64632.4
867.5576	1208.9889	65535	64628.75
867.7023	1210.9106	65535	64632.45
867.847	1212.8316	65535	64636.2
867.9916	1214.7519	65535	64621.85
868.1363	1216.6715	65535	64632.8
868.2809	1218.5903	65535	64632.3
868.4255	1220.5084	65535	64634.4
868.5701	1222.4257	65535	64632.95
868.7148	1224.3424	65535	64633.95
868.8594	1226.2583	65535	64628.2
869.004	1228.1735	65535	64632.4
869.1486	1230.0879	65535	64633.35
869.2932	1232.0016	65535	64633.6
869.4377	1233.9146	65535	64631.85
869.5823	1235.8269	65535	64633.35
869.7269	1237.7384	65535	64633.95
869.8715	1239.6492	65535	64631.9
870.016	1241.5592	65535	64630
870.1606	1243.4686	65535	64633.3
870.3051	1245.3772	65535	64634.2
870.4496	1247.285	65535	64630.9
870.5941	1249.1922	65535	64630.8
870.7387	1251.0986	65535	64633.4
870.8832	1253.0042	65535	64633.7
871.0277	1254.9092	65535	64632.35
871.1722	1256.8134	65535	64634.3
871.3167	1258.7169	65535	64633.45
871.4611	1260.6196	65535	64632.9
871.6056	1262.5216	65535	64632.7
871.7501	1264.4229	65535	64628.8
871.8945	1266.3234	65535	64632.45
872.039	1268.2232	65535	64630.5
872.1834	1270.1223	65535	64632.2
872.3278	1272.0207	65535	64631.45
872.4723	1273.9183	65535	64625.65
872.6167	1275.8151	65535	64636.05
872.7611	1277.7113	65535	64633.2
872.9055	1279.6067	65535	64634.85
873.0499	1281.5014	65535	64630.15
873.1943	1283.3953	65535	64630.15
873.3386	1285.2885	65535	64634.45
873.483	1287.181	65535	64632.6
873.6274	1289.0727	65535	64636.4
873.7717	1290.9637	65535	64634.3
873.9161	1292.854	65535	64633.85
874.0604	1294.7435	65535	64631.85
874.2047	1296.6323	65535	64636.3
874.349	1298.5204	65535	64630.25
874.4933	1300.4077	65535	64629.7
874.6376	1302.2943	65535	64631.6
874.7819	1304.1802	65535	64632.95
874.9262	1306.0653	65535	64630.65
875.0705	1307.9497	65535	64631.6
875.2147	1309.8333	65535	64633.7
875.359	1311.7162	65535	64633.2
875.5032	1313.5984	65535	64631.35
875.6475	1315.4798	65535	64619
875.7917	1317.3605	65535	64617.15
875.9359	1319.2405	65535	64632.2
876.0801	1321.1197	65535	64632.1
876.2243	1322.9982	65535	64629.05
876.3685	1324.876	65535	64633.1
876.5127	1326.753	65535	64632.3
876.6569	1328.6293	65535	64630.9
876.801	1330.5048	65535	64632.15
876.9452	1332.3796	65535	64635.35
877.0893	1334.2537	65535	64607.6
877.2335	1336.127	65535	64633.9
877.3776	1337.9996	65535	64632.45
877.5217	1339.8714	65535	64632.45
877.6658	1341.7426	65535	64590.2
877.8099	1343.6129	65535	64632.55
877.954	1345.4826	65535	64635.6
878.0981	1347.3515	65535	64631.35
878.2422	1349.2196	65535	64630.75
878.3862	1351.087	65535	64634.45
878.5303	1352.9537	65535	64629.75
878.6743	1354.8197	65535	64634.45
878.8184	1356.6849	65535	64630.7
878.9624	1358.5493	65535	64629.65
879.1064	1360.4131	65535	64632.65
879.2504	1362.276	65535	64633.25
879.3944	1364.1383	65535	64633.2
879.5384	1365.9998	65535	64624.75
879.6823	1367.8606	65535	64631.2
879.8263	1369.7206	65535	64631.25
879.9702	1371.5799	65535	64630.9
880.1142	1373.4384	65535	64635.1
880.2581	1375.2962	65535	64631.4
880.402	1377.1533	65535	64634.8
880.5459	1379.0096	65535	64632.65
880.6898	1380.8652	65535	64633.5
880.8337	1382.7201	65535	64631.8
880.9776	1384.5742	65535	64633.7
881.1215	1386.4275	65535	64631
881.2653	1388.2802	65535	64633.15
881.4092	1390.132	65535	64632
881.553	1391.9832	65535	64630.65
881.6968	1393.8336	65535	64633.45
881.8406	1395.6832	65535	64631
881.9844	1397.5322	65535	64632.55
882.1282	1399.3803	65535	64627.6
882.272	1401.2278	65535	64631.25
882.4158	1403.0745	65535	64633.55
882.5595	1404.9204	65535	64633.5
882.7033	1406.7656	65535	64634
882.847	1408.6101	65535	64633.25
882.9908	1410.4538	65535	64634.6
883.1345	1412.2968	65535	64634.1
883.2782	1414.139	65535	64634.15
883.4219	1415.9805	65535	64633.25
883.5656	1417.8213	65535	64628.2
883.7092	1419.6613	65535	64633.7
883.8529	1421.5006	65535	64632.8
883.9965	1423.3391	65535	64633.8
884.1402	1425.1769	65535	64630.8
884.2838	1427.0139	65535	64632.05
884.4274	1428.8502	65535	64631
884.571	1430.6858	65535	64631.95
884.7146	1432.5206	65535	64632.85
884.8582	1434.3547	65535	64632.15
885.0018	1436.188	65535	64634.2
885.1453	1438.0206	65535	64632.7
885.2889	1439.8524	65535	64632.4
885.4324	1441.6835	65535	64633.55
885.5759	1443.5139	65535	64629
885.7194	1445.3435	65535	64632.5
885.8629	1447.1724	65535	64634.05
886.0064	1449.0005	65535	64634.55
886.1499	1450.8279	65535	64634.65
886.2933	1452.6545	65535	64633.8
886.4368	1454.4804	65535	64633.9
886.5802	1456.3056	65535	64627.7
886.7237	1458.13	65535	64635.9
886.8671	1459.9536	65535	64633.15
887.0105	1461.7766	65535	64636.25
887.1539	1463.5987	65535	64634.75
887.2972	1465.4202	65535	64634.3
887.4406	1467.2409	65535	64633.75
887.584	1469.0608	65535	64635.25
887.7273	1470.88	65535	64634.9
887.8706	1472.6984	65535	64634.75
888.0139	1474.5161	65535	64630.85
888.1572	1476.3331	65535	64633.5
888.3005	1478.1493	65535	64635
888.4438	1479.9648	65535	64634.9
888.5871	1481.7795	65535	64632.35
888.7303	1483.5935	65535	64634.05
888.8736	1485.4067	65535	64632.3
889.0168	1487.2192	65535	64633.4
889.16	1489.031	65535	64632.45
889.3032	1490.842	65535	64635.2
889.4464	1492.6522	65535	64633.95
889.5896	1494.4618	65535	64633.25
889.7327	1496.2705	65535	64638.25
889.8759	1498.0785	65535	64632.55
890.019	1499.8858	65535	64635.45
890.1622	1501.6924	65535	64635.1
890.3053	1503.4981	65535	64635.05
890.4484	1505.3032	65535	64633.3
890.5914	1507.1075	65535	64633.9
890.7345	1508.911	65535	64633.6
890.8776	1510.7138	65535	64632.6
891.0206	1512.5159	65535	64633.8
891.1637	1514.3172	65535	64636.8
891.3067	1516.1178	65535	64635
891.4497	1517.9176	65535	64633.5
891.5927	1519.7166	65535	64637.75
891.7357	1521.515	65535	64630.3
891.8786	1523.3126	65535	64632.35
892.0216	1525.1094	65535	64632.9
892.1645	1526.9055	65535	64636.8
892.3074	1528.7008	65535	64634.8
892.4503	1530.4954	65535	64628.35
892.5932	1532.2893	65535	64634.25
892.7361	1534.0824	65535	64630.8
892.879	1535.8747	65535	64636.95
893.0218	1537.6663	65535	64634.35
893.1647	1539.4572	65535	64635.75
893.3075	1541.2473	65535	64634.7
893.4503	1543.0367	65535	64635.8
893.5931	1544.8253	65535	64630.25
893.7359	1546.6132	65535	64632.15
893.8787	1548.4003	65535	64627.05
894.0214	1550.1867	65535	64627
894.1642	1551.9723	65535	64631.3
894.3069	1553.7572	65535	64635.45
894.4496	1555.5414	65535	64636.1
894.5923	1557.3247	65535	64636.65
894.735	1559.1074	65535	64638.8
894.8777	1560.8893	65535	64636.85
895.0204	1562.6705	65535	64637.85
895.163	1564.4509	65535	64636.85
895.3056	1566.2305	65535	64638.85
895.4482	1568.0094	65535	64637.75
895.5908	1569.7876	65535	64635.65
895.7334	1571.565	65535	64635.1
895.876	1573.3417	65535	64636.95
896.0186	1575.1176	65535	64636.6
896.1611	1576.8928	65535	64637.65
896.3036	1578.6672	65526.2	64630.75
896.4461	1580.4409	65535	64640.25
896.5886	1582.2138	65516.95	64618.35
896.7311	1583.986	65522.55	64625.8
896.8736	1585.7575	65491.75	64595.4
897.0161	1587.5282	65510.95	64615
897.1585	1589.2981	65510.85	64615.55
897.3009	1591.0673	65468.35	64569.65
897.4433	1592.8358	65387.3	64492.9
897.5857	1594.6035	65474.9	64575
897.7281	1596.3704	65480	64582.15
897.8705	1598.1366	65304.95	64409.7
898.0128	1599.9021	65204.35	64308.3
898.1551	1601.6668	65399.45	64503.6
898.2975	1603.4308	65323.7	64425.8
898.4398	1605.194	65323.2	64423.05
898.5821	1606.9564	65011.85	64114.7
898.7243	1608.7182	65188.4	64288.15
898.8666	1610.4791	65006.35	64111.45
899.0088	1612.2394	65187.45	64292.55
899.1511	1613.9988	64908.75	64015.5
899.2933	1615.7576	65200.4	64303.55
899.4355	1617.5156	65182.2	64281
899.5776	1619.2728	65373.95	64476.35
899.7198	1621.0293	65039.1	64143.25
899.862	1622.785	65053.4	64152.75
900.0041	1624.54	65176.2	64279.1
900.1462	1626.2942	64937.05	64039
900.2883	1628.0477	64445.15	63546.95
900.4304	1629.8005	63899.95	63002.2
900.5725	1631.5525	64521.2	63627.8
900.7145	1633.3037	63618.05	62722.3
900.8566	1635.0542	63458.1	62561.3
900.9986	1636.804	63930.45	63036.3
901.1406	1638.553	62935.3	61957.05
901.2826	1640.3013	63292.75	62396.2
901.4245	1642.0488	62632.7	61734.2
901.5665	1643.7955	63137.45	62243.3
901.7085	1645.5416	62631.25	61736.45
901.8504	1647.2868	62153.35	61259.2
901.9923	1649.0313	62959.5	62065.8
902.1342	1650.7751	62496.25	61600
902.2761	1652.5181	62124.65	61230.05
902.4179	1654.2604	62296.95	61401.6
902.5598	1656.0019	62583.35	61688.8
902.7016	1657.7427	62381.75	61486.75
902.8434	1659.4828	62906.75	62012.1
902.9852	1661.222	62400.25	61504.55
903.127	1662.9606	63041.1	62147.75
903.2687	1664.6984	62207.75	61311.5
903.4105	1666.4354	62476	61578.3
903.5522	1668.1717	61418.15	60520.85
903.6939	1669.9072	60630.35	59734.25
903.8356	1671.642	60392.9	59494.45
903.9773	1673.3761	60107.4	59213.05
904.119	1675.1094	59850.1	58954.5
904.2606	1676.8419	59206.75	58310.35
904.4022	1678.5737	59208.25	58314.25
904.5439	1680.3048	58930.6	58034.2
904.6855	1682.0351	58556.5	57661.6
904.827	1683.7646	58268.55	57371.1
904.9686	1685.4934	58429.6	57534.5
905.1101	1687.2215	57383.8	56487.75
905.2517	1688.9488	58016.6	57122.1
905.3932	1690.6754	56567.5	55671.85
905.5347	1692.4012	57149.3	56254.9
905.6761	1694.1263	57071.85	56177.65
905.8176	1695.8506	56660.25	55763.8
905.9591	1697.5742	56595.5	55702.3
906.1005	1699.297	56358.1	55462.6
906.2419	1701.0191	56266.9	55372.8
906.3833	1702.7404	55785.15	54891.2
906.5246	1704.461	55512.95	54616.8
906.666	1706.1808	55585.05	54688.85
906.8073	1707.8999	55428.1	54532.2
906.9487	1709.6182	55158.25	54263.55
907.09	1711.3358	55068.6	54174.55
907.2313	1713.0527	54849.85	53957.4
907.3725	1714.7688	54806.65	53908
907.5138	1716.4841	54221.95	53324.8
907.655	1718.1987	54370.5	53472.15
907.7962	1719.9126	54150.5	53258.45
907.9374	1721.6257	54057.35	53161.55
908.0786	1723.338	54102.95	53208.85
908.2198	1725.0496	53450.7	52554.25
908.3609	1726.7605	53412	52516.1
908.502	1728.4706	53199.15	52303.5
908.6431	1730.18	53053.9	52157.75
908.7842	1731.8886	52918.25	52023.7
908.9253	1733.5964	52762.45	51849.65
909.0664	1735.3036	52735.4	51839.25
909.2074	1737.0099	52580.95	51688.8
909.3484	1738.7156	52316.85	51424.85
909.4894	1740.4204	52147.45	51252.1
909.6304	1742.1246	52093.7	51197.45
909.7714	1743.8279	52016.05	51122.7
909.9123	1745.5306	52026	51130.35
910.0532	1747.2325	51508.1	50615
910.1941	1748.9336	51485.35	50591.3
910.335	1750.634	51276.75	50383.2
910.4759	1752.3336	51295.1	50401.35
910.6168	1754.0325	51061.05	50168.5
910.7576	1755.7307	51088.85	50195.65
910.8984	1757.4281	50820.2	49928.15
911.0392	1759.1247	50911.25	50009.45
911.18	1760.8206	50515.55	49615.8
911.3208	1762.5158	50464.15	49568.4
911.4615	1764.2102	50364.8	49472.65
911.6022	1765.9039	50151.3	49260.65
911.7429	1767.5968	49980.1	49086.6
911.8836	1769.289	49785.95	48893.3
912.0243	1770.9804	49714.2	48822
912.1649	1772.6711	49610.1	48716.5
912.3056	1774.361	49402.45	48508.5
912.4462	1776.0502	49371.8	48480.35
912.5868	1777.7386	49092.4	48194.7
912.7274	1779.4263	48990.85	48096.95
912.8679	1781.1132	49001.3	48106.65
913.0084	1782.7994	48747.25	47853.2
913.149	1784.4849	48686.15	47794.85
913.2895	1786.1696	48426.1	47526.6
913.4299	1787.8535	48364.9	47471.05
913.5704	1789.5367	48269.25	47375.7
913.7108	1791.2192	48085.85	47192.95
913.8513	1792.9009	47835.2	46911.55
913.9917	1794.5818	47777.35	46883.05
914.132	1796.2621	47688.7	46797.15
914.2724	1797.9415	47478.7	46584.45
914.4128	1799.6202	47374.5	46480.4
914.5531	1801.2982	47229.8	46336.25
914.6934	1802.9755	47053.5	46160.3
914.8337	1804.6519	47013.05	46119.25
914.9739	1806.3277	46823.35	45930.7
915.1142	1808.0027	46511.35	45619.75
915.2544	1809.6769	46558.95	45665.9
915.3946	1811.3504	46471.3	45578.15
915.5348	1813.0231	46208.8	45312.3
915.675	1814.6951	46215.35	45322
915.8151	1816.3664	46151.35	45255.9
915.9553	1818.0369	45987.95	45093.05
916.0954	1819.7067	45799.2	44906.8
916.2355	1821.3757	45778	44883.8
916.3755	1823.044	45586.6	44693.65
916.5156	1824.7115	45460.9	44568.3
916.6556	1826.3783	45307.1	44415.85
916.7956	1828.0443	45158.5	44268.65
916.9356	1829.7096	45014.5	44119.85
917.0756	1831.3741	44925.95	44030.45
917.2155	1833.0379	44808.8	43916.75
917.3555	1834.701	44661.75	43767.95
917.4954	1836.3633	44490.7	43597.35
917.6353	1838.0248	44428.25	43533
917.7751	1839.6856	44311.85	43419.2
917.915	1841.3457	44224.25	43333.2
918.0548	1843.005	44146.25	43253.75
918.1946	1844.6636	44033.55	43141.4
918.3344	1846.3214	43826.35	42933.4
918.4742	1847.9785	43852.15	42960
918.6139	1849.6349	43675.4	42780.35
918.7537	1851.2904	43597.35	42694.1
918.8934	1852.9453	43376.2	42481.9
919.0331	1854.5994	43304.95	42409.45
919.1727	1856.2528	43339.1	42439.85
919.3124	1857.9054	43119.9	42226.2
919.452	1859.5572	43085.1	42193.2
919.5916	1861.2083	42984.9	42090.75
919.7312	1862.8587	42962.6	42070.05
919.8708	1864.5084	42712.95	41820.25
920.0103	1866.1572	42631.4	41739.55
920.1498	1867.8054	42391.6	41497
920.2893	1869.4528	42373.05	41479.35
920.4288	1871.0994	42157.4	41265.35
920.5683	1872.7453	42021.4	41127.3
920.7077	1874.3905	41999.3	41099.5
920.8471	1876.0349	41863.05	40969.55
920.9865	1877.6786	41836.7	40943.1
921.1259	1879.3215	41725.9	40834.35
921.2653	1880.9637	41628.35	40733.8
921.4046	1882.6051	41602	40709.25
921.5439	1884.2458	41382.2	40489
921.6832	1885.8858	41244.2	40350.75
921.8225	1887.525	41133.55	40239.45
921.9617	1889.1634	40941.25	40047.6
922.101	1890.8011	40791.65	39897.95
922.2402	1892.4381	40659.05	39766.05
922.3794	1894.0743	40616.75	39726
922.5185	1895.7098	40551.8	39660.6
922.6577	1897.3446	40360.55	39465.95
922.7968	1898.9786	40256.75	39358.8
922.9359	1900.6118	40145.45	39253.5
923.075	1902.2443	39917.7	39022.75
923.214	1903.8761	39874.15	38981.65
923.3531	1905.5071	39622.55	38730.65
923.4921	1907.1374	39443.8	38549.8
923.6311	1908.7669	39436.3	38545
923.77	1910.3957	39386.85	38494.8
923.909	1912.0237	39083.9	38191
924.0479	1913.651	39007.6	38114.1
924.1868	1915.2776	38950.4	38057.8
924.3257	1916.9034	38742.75	37850.3
924.4646	1918.5285	38561.75	37670.55
924.6034	1920.1528	38390.55	37498.25
924.7422	1921.7764	38345.45	37452
924.881	1923.3992	38117.75	37224.4
925.0198	1925.0213	37887.25	36995.15
925.1586	1926.6427	37724.75	36831.5
925.2973	1928.2633	37728.3	36719.55
925.436	1929.8832	37535.1	36638.75
925.5747	1931.5023	37318.9	36427.5
925.7134	1933.1207	37215.4	36321.25
925.852	1934.7383	37129.2	36237
925.9906	1936.3552	36967.75	36075.85
926.1292	1937.9714	36974.6	36080.05
926.2678	1939.5868	36800	35905.85
926.4064	1941.2015	36564.35	35670.85
926.5449	1942.8154	36429.6	35537.95
926.6834	1944.4286	36272.25	35378.6
926.8219	1946.041	36135.05	35222.2
926.9604	1947.6528	35953.05	35055.75
927.0988	1949.2637	35833.5	34943.4
927.2372	1950.8739	35690.6	34797.85
927.3756	1952.4834	35641.55	34749.2
927.514	1954.0921	35534.95	34641.55
927.6523	1955.7001	35390.9	34491.45
927.7907	1957.3074	35255.6	34362.8
927.929	1958.9139	35073.3	34181.25
928.0673	1960.5197	34991.45	34097.75
928.2055	1962.1247	34857.45	33966.35
928.3438	1963.729	34654.4	33763.2
928.482	1965.3325	34527.2	33613.65
928.6202	1966.9353	34428.9	33537.05
928.7584	1968.5374	34324.05	33429.2
928.8965	1970.1387	34195.4	33303.45
929.0346	1971.7393	34052.45	33159.1
929.1727	1973.3392	33945.1	33053.25
929.3108	1974.9383	33758	32866.6
929.4489	1976.5366	33616.35	32723.2
929.5869	1978.1342	33570.05	32678.2
929.7249	1979.7311	33515.55	32621.15
929.8629	1981.3273	33375.75	32484.6
930.0009	1982.9227	33263.05	32370.6
930.1388	1984.5173	33128.1	32236.45
930.2767	1986.1112	32937.7	32045.95
930.4146	1987.7044	32898.3	32005.9
930.5525	1989.2968	32773.5	31879.2
930.6904	1990.8885	32700.9	31806.1
930.8282	1992.4795	32662.9	31769.2
930.966	1994.0697	32432.35	31542.3
931.1038	1995.6592	32338.2	31446.7
931.2415	1997.2479	32258.9	31368.65
931.3793	1998.8359	32160.25	31268.35
931.517	2000.4232	31975.4	31085.6
931.6547	2002.0097	31878.1	30990
931.7923	2003.5955	31755.1	30864.5
931.93	2005.1805	31693.1	30801.25
932.0676	2006.7648	31592.55	30700.5
932.2052	2008.3484	31467.65	30574.65
932.3427	2009.9312	31453.75	30559.75
932.4803	2011.5133	31257.5	30369.55
932.6178	2013.0946	31178.6	30289.45
932.7553	2014.6752	31130.3	30241.35
932.8928	2016.2551	31055.3	30162.6
933.0302	2017.8342	30891.15	30000.15
933.1676	2019.4126	30787.05	29895.05
933.305	2020.9902	30629.65	29737.7
933.4424	2022.5672	30574	29683.75
933.5798	2024.1433	30536.9	29640.35
933.7171	2025.7188	30360.1	29469.3
933.8544	2027.2935	30255.35	29364.1
933.9917	2028.8674	30106.75	29216.4
934.129	2030.4406	30040.45	29150.7
934.2662	2032.0131	29940.65	29052.55
934.4034	2033.5849	29796.3	28900.25
934.5406	2035.1559	29772.6	28882.1
934.6778	2036.7261	29652.6	28761.25
934.8149	2038.2957	29612.4	28723.15
934.952	2039.8645	29512.7	28622.45
935.0891	2041.4325	29520.1	28627.65
935.2262	2042.9998	29317.95	28426.35
935.3632	2044.5664	29240.65	28348.15
935.5002	2046.1323	29189.9	28299.3
935.6372	2047.6974	29026.65	28137.5
935.7742	2049.2617	28910.1	28019.9
935.9111	2050.8254	28936.65	28023.75
936.048	2052.3883	28842.3	27950.15
936.1849	2053.9504	28749.2	27856.5
936.3218	2055.5118	28658.5	27768
936.4586	2057.0725	28507	27612.95
936.5955	2058.6325	28451.35	27560.3
936.7323	2060.1917	28366.6	27476.6
936.869	2061.7502	28270.1	27377.05
937.0058	2063.3079	28173	27282.35
937.1425	2064.8649	28098.7	27203.3
937.2792	2066.4212	27992.35	27100.35
937.4159	2067.9767	27912.7	27021.5
937.5525	2069.5315	27803.35	26914.1
937.6891	2071.0856	27672.55	26781.05
937.8257	2072.6389	27522.9	26630.95
937.9623	2074.1915	27442.75	26553.5
938.0989	2075.7433	27251.85	26358.1
938.2354	2077.2945	27256	26363.7
938.3719	2078.8448	27140	26247.75
938.5084	2080.3945	26975.85	26084.2
938.6448	2081.9434	26980.4	26088.45
938.7812	2083.4916	26902.9	26010.75
938.9176	2085.039	26758.5	25864.45
939.054	2086.5857	26686.05	25792.65
939.1903	2088.1317	26635.75	25744.3
939.3267	2089.677	26556.1	25664.6
939.463	2091.2215	26436.85	25544.85
939.5992	2092.7652	26356.25	25463.15
939.7355	2094.3083	26266.5	25374.1
939.8717	2095.8506	26256	25363.85
940.0079	2097.3921	26223.7	25332.25
940.1441	2098.933	26107.8	25217.3
940.2802	2100.4731	25997.35	25106.35
940.4163	2102.0124	25946.2	25047.25
940.5524	2103.5511	25882.45	24991.05
940.6885	2105.089	25837.05	24945.8
940.8245	2106.6261	25760.95	24869.15
940.9606	2108.1626	25689.9	24797.25
941.0965	2109.6983	25659.85	24739.3
941.2325	2111.2332	25543.85	24652
941.3684	2112.7675	25463.95	24571.55
941.5044	2114.301	25373.15	24481.05
941.6403	2115.8337	25348.3	24457.2
941.7761	2117.3657	25254.6	24362.7
941.912	2118.897	25210.15	24317.8
942.0478	2120.4276	25086.05	24190
942.1835	2121.9575	24979.95	24088.6
942.3193	2123.4866	24975.65	24070.45
942.455	2125.0149	24899.45	24004.5
942.5907	2126.5426	24720.2	23829.4
942.7264	2128.0695	24690.4	23794.75
942.8621	2129.5956	24623.4	23735.7
942.9977	2131.1211	24536.1	23640.8
943.1333	2132.6458	24477	23585.45
943.2689	2134.1698	24394.4	23502.05
943.4044	2135.693	24312.1	23419.2
943.54	2137.2155	24259.4	23366
943.6755	2138.7373	24181.2	23288.45
943.8109	2140.2584	24134.45	23242.45
943.9464	2141.7787	24043.2	23145.85
944.0818	2143.2983	23903.2	23014.75
944.2172	2144.8171	23772.05	22881.6
944.3526	2146.3353	23742.2	22849.35
944.4879	2147.8527	23641.6	22751.1
944.6232	2149.3693	23607.45	22716.5
944.7585	2150.8853	23506.3	22615.25
944.8938	2152.4005	23392.55	22500.05
945.029	2153.9149	23365.25	22474.8
945.1642	2155.4287	23292.05	22400.55
945.2994	2156.9417	23235.95	22343.35
945.4346	2158.454	23114.9	22222.55
945.5697	2159.9655	23103.55	22213.15
945.7048	2161.4764	23050	22157
945.8399	2162.9865	22939.1	22046.1
945.9749	2164.4958	22895.3	22001.9
946.1099	2166.0045	22764.45	21871.65
946.2449	2167.5124	22772.35	21881.55
946.3799	2169.0195	22710.45	21819.9
946.5148	2170.526	22656.3	21765.3
946.6498	2172.0317	22561.75	21669.6
946.7846	2173.5367	22470.5	21577.55
946.9195	2175.0409	22433.45	21543
947.0543	2176.5445	22411.6	21520
947.1891	2178.0473	22310.15	21419.25
947.3239	2179.5494	22169.3	21274.9
947.4587	2181.0507	22094.7	21203
947.5934	2182.5513	22035.95	21143.35
947.7281	2184.0512	22002.75	21112.35
947.8628	2185.5504	21893.45	21000.75
947.9974	2187.0488	21771.95	20879.65
948.132	2188.5465	21715.6	20824.85
948.2666	2190.0435	21634.05	20742.3
948.4012	2191.5397	21541.95	20649.85
948.5357	2193.0353	21485.65	20594.7
948.6702	2194.5301	21369.05	20476.75
948.8047	2196.0241	21313.8	20420.3
948.9392	2197.5175	21246.55	20355.05
949.0736	2199.0101	21167.85	20273.5
949.208	2200.502	21080.4	20189.85
949.3424	2201.9931	20946.45	20055.3
949.4767	2203.4835	20904	20010.35
949.611	2204.9733	20860.1	19962.9
949.7453	2206.4622	20785.2	19894.15
949.8796	2207.9505	20673.8	19781.25
950.0138	2209.438	20586.3	19695.25
950.148	2210.9248	20539.1	19648.3
950.2822	2212.4109	20478.9	19588.35
950.4164	2213.8962	20373.75	19479.9
950.5505	2215.3809	20324.05	19431.5
950.6846	2216.8648	20244.1	19351.55
950.8186	2218.3479	20212.55	19316.75
950.9527	2219.8304	20121.4	19227.15
951.0867	2221.3121	20046.95	19152.6
951.2207	2222.7931	19961.9	19069.5
951.3546	2224.2733	19910.7	19018.9
951.4886	2225.7529	19823.1	18930.2
951.6225	2227.2317	19752.1	18858.3
951.7563	2228.7098	19724.75	18833.55
951.8902	2230.1872	19624.4	18731.25
952.024	2231.6638	19595.7	18705.45
952.1578	2233.1397	19504.55	18608.2
952.2916	2234.6149	19447.65	18557.25
952.4253	2236.0894	19375.25	18481.95
952.559	2237.5632	19294.95	18397.3
952.6927	2239.0362	19187	18296.1
952.8263	2240.5085	19162.25	18270.25
952.9599	2241.9801	19082.15	18190.45
953.0935	2243.4509	19047.7	18156.4
953.2271	2244.921	18966.45	18074.3
953.3606	2246.3904	18880.75	17986.3
953.4941	2247.8591	18814.65	17923.1
953.6276	2249.3271	18781.3	17890.6
953.7611	2250.7943	18681.4	17789.9
953.8945	2252.2608	18642.2	17750.3
954.0279	2253.7266	18551.85	17661.7
954.1612	2255.1917	18528.3	17637.1
954.2946	2256.656	18430.35	17539.4
954.4279	2258.1197	18365.6	17474.15
954.5612	2259.5826	18324.85	17431.95
954.6944	2261.0447	18266.8	17374
954.8276	2262.5062	18190.3	17296.25
954.9608	2263.9669	18177.45	17285.4
955.094	2265.4269	18122.1	17231.8
955.2271	2266.8862	18082.3	17191.65
955.3602	2268.3448	18013.25	17122.45
955.4933	2269.8026	17995.75	17103.95
955.6264	2271.2598	17890.9	16999.55
955.7594	2272.7162	17818.3	16928.55
955.8924	2274.1719	17793.35	16901.25
956.0253	2275.6268	17732.25	16838.35
956.1583	2277.0811	17688.4	16795.55
956.2912	2278.5346	17613.05	16723.05
956.4241	2279.9874	17572.4	16682.3
956.5569	2281.4395	17550.45	16660.9
956.6897	2282.8908	17478.45	16582.3
956.8225	2284.3414	17428.2	16535.55
956.9553	2285.7914	17335.25	16444.15
957.088	2287.2406	17240.5	16346.4
957.2207	2288.689	17257	16365.05
957.3534	2290.1368	17167.15	16274.1
957.486	2291.5838	17121.35	16227.2
957.6186	2293.0302	17057.15	16163.85
957.7512	2294.4758	16963.7	16073.2
957.8838	2295.9206	16926.8	16035.6
958.0163	2297.3648	16846.2	15956.05
958.1488	2298.8082	16864.1	15972.65
958.2813	2300.251	16807.45	15916.65
958.4137	2301.693	16754.6	15860.2
958.5461	2303.1343	16722	15829.4
958.6785	2304.5748	16642.9	15751.3
958.8108	2306.0147	16576.2	15683.55
958.9432	2307.4538	16528	15634.25
959.0754	2308.8922	16480.5	15589.65
959.2077	2310.3299	16417.8	15527.2
959.3399	2311.7669	16341.5	15451.6
959.4721	2313.2031	16312.9	15422.15
959.6043	2314.6387	16248.9	15356.85
959.7365	2316.0735	16181.2	15289.45
959.8686	2317.5076	16146.45	15252.95
960.0006	2318.941	16098.3	15207.2
960.1327	2320.3737	16022.4	15129.45
960.2647	2321.8056	15977.3	15083.5
960.3967	2323.2369	15926.65	15036.8
960.5287	2324.6674	15866.95	14972.25
960.6606	2326.0972	15839.5	14946.2
960.7925	2327.5263	15760.7	14870.1
960.9244	2328.9547	15742	14850.5
961.0562	2330.3823	15652.75	14760.95
961.1881	2331.8092	15647.85	14749.5
961.3198	2333.2355	15563.25	14671.55
961.4516	2334.661	15520.6	14628.1
961.5833	2336.0858	15492.65	14597.3
961.715	2337.5098	15456.8	14567.1
961.8467	2338.9332	15439.35	14545.25
961.9783	2340.3558	15361.45	14466.3
962.1099	2341.7778	15288.05	14395.05
962.2415	2343.199	15219.15	14326.25
962.373	2344.6195	15163.65	14271.65
962.5045	2346.0393	15156.2	14267.25
962.636	2347.4583	15129.9	14237
962.7675	2348.8767	15055.4	14163.15
962.8989	2350.2943	15011.55	14117.1
963.0303	2351.7113	15020.55	14128.65
963.1617	2353.1275	14902.2	14010.45
963.293	2354.543	14887.3	13986.8
963.4243	2355.9578	14822.9	13930.4
963.5556	2357.3718	14719.6	13828.2
963.6868	2358.7852	14646.65	13752.4
963.818	2360.1978	14604.25	13710.5
963.9492	2361.6098	14587.05	13696.1
964.0803	2363.021	14546.55	13650.65
964.2114	2364.4315	14521.8	13631.35
964.3425	2365.8413	14441.35	13550.55
964.4736	2367.2504	14366.95	13475.1
964.6046	2368.6587	14299.15	13408.8
964.7356	2370.0664	14218.1	13326
964.8666	2371.4733	14166.15	13275.4
964.9975	2372.8795	14107.55	13218.8
965.1284	2374.285	14062.15	13172.4
965.2593	2375.6899	14019.8	13129.95
965.3901	2377.0939	13972.9	13082.15
965.5209	2378.4973	13918.65	13027
965.6517	2379.9	13867.05	12974.75
965.7825	2381.3019	13798.1	12905.55
965.9132	2382.7032	13745.95	12854.45
966.0439	2384.1037	13721.6	12832.05
966.1745	2385.5035	13653	12762.95
966.3051	2386.9027	13625.65	12736.8
966.4357	2388.3011	13592.15	12697.4
966.5663	2389.6987	13536.25	12645.8
966.6968	2391.0957	13472.5	12581.1
966.8273	2392.492	13429.25	12540.4
966.9578	2393.8876	13309.2	12419.7
967.0882	2395.2824	13287.55	12396.8
967.2186	2396.6765	13225.35	12335.7
967.349	2398.07	13150.8	12263.65
967.4793	2399.4627	13130.8	12239.85
967.6097	2400.8547	13104.35	12211.9
967.7399	2402.246	13051.5	12155.4
967.8702	2403.6366	12960.5	12070.1
968.0004	2405.0265	12909	12019.55
968.1306	2406.4156	12842.25	11948.9
968.2607	2407.8041	12817.8	11924.7
968.3909	2409.1918	12748.95	11857.2
968.521	2410.5789	12703.35	11811.05
968.651	2411.9652	12679.3	11787.4
968.781	2413.3508	12620	11727.8
968.911	2414.7358	12572.35	11680.2
969.041	2416.12	12521.2	11631.9
969.1709	2417.5035	12505.95	11614.65
969.3008	2418.8863	12434.65	11544.75
969.4307	2420.2684	12413.6	11523.35
969.5606	2421.6497	12353.1	11461.95
969.6904	2423.0304	12289.7	11399.5
969.8201	2424.4104	12255.3	11362.15
969.9499	2425.7896	12189.05	11296.7
970.0796	2427.1682	12146.5	11256.1
970.2093	2428.546	12131.1	11237.85
970.3389	2429.9232	12073.6	11179.25
970.4685	2431.2996	12076.05	11184.8
970.5981	2432.6753	12024.5	11135.4
970.7277	2434.0503	11994.4	11103.05
970.8572	2435.4246	11936.8	11046.6
970.9867	2436.7982	11922.5	11030.75
971.1161	2438.1711	11892.65	11001.9
971.2456	2439.5433	11837.25	10944.4
971.375	2440.9148	11770.85	10877.15
971.5043	2442.2856	11703.7	10812.45
971.6336	2443.6557	11677.75	10785.9
971.7629	2445.025	11638.55	10748.8
971.8922	2446.3937	11618.75	10725.5
972.0214	2447.7617	11585.3	10693.35
972.1506	2449.1289	11549.6	10657.55
972.2798	2450.4955	11519.95	10624.15
972.4089	2451.8613	11476.75	10586.95
972.538	2453.2265	11420.2	10528.9
972.6671	2454.5909	11382.75	10490.25
972.7961	2455.9546	11362.05	10471.9
972.9251	2457.3177	11319.15	10429.55
973.0541	2458.68	11289.65	10397.65
973.1831	2460.0416	11284.45	10393.95
973.312	2461.4025	11242.2	10348.95
973.4408	2462.7627	11219.1	10314.65
973.5697	2464.1222	11176.55	10287.85
973.6985	2465.4811	11131.75	10239.95
973.8273	2466.8392	11093.9	10203.05
973.956	2468.1966	11048.05	10153.6
974.0847	2469.5533	11055.8	10161.65
974.2134	2470.9093	11031.15	10138.6
974.3421	2472.2645	10970.25	10079.25
974.4707	2473.6191	10942.7	10053.2
974.5993	2474.973	10893.8	10002.05
974.7278	2476.3262	10879.65	9986.8
974.8563	2477.6787	10801.2	9911.35
974.9848	2479.0305	10759.1	9866.9
975.1132	2480.3816	10735.95	9841.05
975.2417	2481.7319	10697.5	9808.2
975.37	2483.0816	10623.3	9729.9
975.4984	2484.4306	10603.75	9712.9
975.6267	2485.7789	10569.15	9680.35
975.755	2487.1264	10525.1	9631.4
975.8833	2488.4733	10464.8	9574.95
976.0115	2489.8195	10452.8	9545.75
976.1397	2491.165	10421.15	9527.9
976.2678	2492.5097	10363.1	9469
976.3959	2493.8538	10302.55	9411.35
976.524	2495.1972	10283.25	9393.2
976.6521	2496.5398	10198.65	9306.35
976.7801	2497.8818	10184.95	9293.25
976.9081	2499.2231	10165.1	9273.05
977.036	2500.5637	10136.45	9242.85
977.164	2501.9035	10096.65	9204.25
977.2918	2503.2427	10074.25	9178.5
977.4197	2504.5812	10038.9	9147.7
977.5475	2505.919	10017.25	9126.15
977.6753	2507.256	9989.25	9097.7
977.8031	2508.5924	9921.4	9030.7
977.9308	2509.9281	9896	8998.95
978.0585	2511.2631	9849.1	8956.6
978.1861	2512.5974	9842.35	8952.15
978.3137	2513.9309	9793.55	8902.7
978.4413	2515.2638	9748.45	8831.75
978.5689	2516.596	9694.65	8804
978.6964	2517.9275	9652.7	8761.4
978.8239	2519.2583	9668	8776.7
978.9513	2520.5884	9629.6	8736.65
979.0788	2521.9178	9580.5	8691.1
979.2062	2523.2465	9537.55	8648
979.3335	2524.5745	9482.05	8591.5
979.4608	2525.9018	9447.95	8556.35
979.5881	2527.2284	9444.1	8554.45
979.7154	2528.5543	9431.65	8540.65
979.8426	2529.8796	9396.8	8505.35
979.9698	2531.2041	9365.4	8472.75
980.0969	2532.5279	9332.1	8442.75
980.224	2533.851	9289.3	8397.7
980.3511	2535.1735	9283.2	8394.3
980.4781	2536.4952	9257.75	8366.75
980.6052	2537.8163	9264.15	8372.1
980.7321	2539.1366	9202.5	8310.55
980.8591	2540.4562	9161.9	8269.75
980.986	2541.7752	9170.15	8278.55
981.1129	2543.0935	9124.8	8232.95
981.2397	2544.411	9118.35	8225.55
981.3665	2545.7279	9097.6	8207.3
981.4933	2547.0441	9093.35	8200.8
981.62	2548.3596	9072.75	8178.5
981.7467	2549.6744	9033.75	8144.5
981.8734	2550.9885	8981.45	8087.35
982.0001	2552.3019	8986.4	8097.25
982.1267	2553.6146	8964.05	8072.05
982.2532	2554.9266	8919.7	8027.25
982.3798	2556.2379	8880	7986
982.5063	2557.5485	8843.55	7953.05
982.6327	2558.8585	8827.4	7927.45
982.7592	2560.1677	8834.35	7936.75
982.8856	2561.4762	8807.05	7915.85
983.0119	2562.7841	8788.3	7894.2
983.1383	2564.0913	8750.2	7861.6
983.2646	2565.3977	8712.15	7821.8
983.3908	2566.7035	8726.75	7835.4
983.517	2568.0086	8704.35	7811.2
983.6432	2569.313	8681.15	7787.35
983.7694	2570.6167	8676.25	7780.35
983.8955	2571.9197	8619.05	7728.65
984.0216	2573.222	8601.35	7707.8
984.1476	2574.5236	8577.45	7685.15
984.2737	2575.8246	8558.8	7666.35
984.3996	2577.1248	8543.45	7648.4
984.5256	2578.4244	8541.1	7649.55
984.6515	2579.7232	8524.4	7631.7
984.7774	2581.0214	8504.5	7589.4
984.9032	2582.3189	8482.2	7590.9
985.029	2583.6157	8474.8	7579.35
985.1548	2584.9118	8429.65	7536.85
985.2806	2586.2072	8391.5	7500.8
985.4063	2587.5019	8391.4	7499.45
985.5319	2588.7959	8358.3	7467.65
985.6576	2590.0893	8372.05	7478.8
985.7832	2591.3819	8336.15	7447.6
985.9087	2592.6739	8300.9	7411.45
986.0343	2593.9652	8274.9	7381.35
986.1597	2595.2557	8251.35	7360.2
986.2852	2596.5456	8231.75	7338.7
986.4106	2597.8348	8168.45	7277.35
986.536	2599.1234	8149.45	7261.1
986.6614	2600.4112	8127.5	7235.05
986.7867	2601.6983	8100.55	7205.35
986.912	2602.9848	8084.1	7193.9
987.0372	2604.2705	8045.25	7149.6
987.1624	2605.5556	8028.25	7137.8
987.2876	2606.84	7975.5	7084.45
987.4128	2608.1237	7956.45	7064.45
987.5379	2609.4067	7925.2	7032.9
987.6629	2610.689	7881.65	6983.3
987.788	2611.9707	7872.2	6976.6
987.913	2613.2516	7831.35	6935.8
988.0379	2614.5319	7791.85	6901.25
988.1629	2615.8115	7765.65	6873.35
988.2878	2617.0903	7744.8	6852.5
988.4126	2618.3685	7721.45	6829.35
988.5375	2619.6461	7688.25	6796.7
988.6622	2620.9229	7650.75	6760.7
988.787	2622.199	7631.9	6738.25
988.9117	2623.4745	7634.05	6743.35
989.0364	2624.7493	7580.75	6688.9
989.161	2626.0234	7566.45	6675.7
989.2857	2627.2968	7542	6651.75
989.4102	2628.5695	7513.05	6619.35
989.5348	2629.8415	7487.7	6596.25
989.6593	2631.1128	7439.25	6546.85
989.7837	2632.3835	7396.5	6504.45
989.9082	2633.6535	7379	6488.95
990.0326	2634.9228	7364.1	6474.35
990.1569	2636.1914	7334.75	6443.1
990.2812	2637.4593	7333.05	6442.4
990.4055	2638.7265	7312.25	6419.8
990.5298	2639.9931	7281.75	6391.3
990.654	2641.259	7266.65	6373.05
990.7782	2642.5242	7243.45	6351.1
990.9023	2643.7887	7190.65	6298.7
991.0264	2645.0525	7177.2	6287.05
991.1505	2646.3156	7168.5	6276.6
991.2745	2647.5781	7142.65	6251.45
991.3985	2648.8398	7122.75	6231.85
991.5225	2650.1009	7116.8	6216.2
991.6464	2651.3613	7089.65	6197.7
991.7703	2652.6211	7065.25	6173.4
991.8942	2653.8801	7005.95	6116.6
992.018	2655.1385	7009.85	6117.25
992.1418	2656.3961	6976.85	6086.45
992.2655	2657.6531	6970.8	6079.05
992.3892	2658.9094	6929.4	6036.7
992.5129	2660.1651	6927.6	6037.9
992.6366	2661.42	6902.4	6008.7
992.7602	2662.6743	6907.8	6015.7
992.8837	2663.9279	6903.4	6011.25
993.0073	2665.1808	6861.1	5968.55
993.1307	2666.433	6852.95	5957.4
993.2542	2667.6846	6834.8	5944.45
993.3776	2668.9354	6809.3	5915.25
993.501	2670.1856	6767.2	5875.35
993.6244	2671.4351	6783	5892.2
993.7477	2672.6839	6757.25	5863.3
993.8709	2673.9321	6732.45	5841.65
993.9942	2675.1795	6725.1	5834.95
994.1174	2676.4263	6693.75	5803.9
994.2405	2677.6724	6684.85	5796.75
994.3637	2678.9179	6648.45	5756.6
994.4868	2680.1626	6628.05	5736.05
994.6098	2681.4067	6628.25	5735.95
994.7328	2682.6501	6600.1	5708.85
994.8558	2683.8928	6579.25	5689
994.9788	2685.1348	6554.25	5664
995.1017	2686.3761	6525.5	5635.9
995.2245	2687.6168	6516.75	5626.25
995.3474	2688.8568	6472.75	5582.45
995.4702	2690.0961	6454.7	5563
995.5929	2691.3348	6429.65	5536.5
995.7156	2692.5727	6424.6	5532.85
995.8383	2693.81	6396.45	5506.9
995.961	2695.0466	6386.85	5497.05
996.0836	2696.2826	6361.5	5469.7
996.2062	2697.5178	6347.15	5456.2
996.3287	2698.7524	6317.55	5425.75
996.4512	2699.9863	6309.6	5417.25
996.5737	2701.2195	6289.65	5398.55
996.6961	2702.452	6283.45	5391.05
996.8185	2703.6839	6255.55	5364
996.9408	2704.9151	6227.1	5337.25
997.0631	2706.1456	6229.5	5340.3
997.1854	2707.3755	6205.7	5314.65
997.3077	2708.6046	6189.45	5294.1
997.4299	2709.8331	6179.95	5289.65
997.552	2711.0609	6146.1	5254.05
997.6742	2712.2881	6139.15	5248.3
997.7963	2713.5145	6150.65	5257.1
997.9183	2714.7403	6135.55	5245.55
998.0403	2715.9654	6105.9	5213.9
998.1623	2717.1899	6100.7	5192.1
998.2842	2718.4136	6096.95	5206.55
998.4062	2719.6367	6075.1	5183.45
998.528	2720.8591	6066.8	5169.75
998.6498	2722.0809	6043.25	5153.85
998.7716	2723.3019	6057.25	5162.4
998.8934	2724.5223	6029.65	5136.6
999.0151	2725.7421	6027.95	5136
999.1368	2726.9611	6001.95	5109.6
999.2584	2728.1795	5983.5	5088.8
999.38	2729.3972	5946.55	5052.75
999.5016	2730.6142	5950.45	5045.7
999.6231	2731.8306	5900.7	5008.55
999.7446	2733.0462	5839.2	4945.25
999.8661	2734.2612	5807.6	4910.75
999.9875	2735.4756	5764.7	4872.65
1000.1089	2736.6892	5749.95	4857.3
1000.2302	2737.9022	5710.75	4820.95
1000.3515	2739.1145	5681.3	4789.9
1000.4728	2740.3262	5642.6	4743.45
1000.594	2741.5372	5628.5	4736.7
1000.7152	2742.7475	5577.65	4685.9
1000.8363	2743.9571	5570.1	4673.9
1000.9575	2745.1661	5544.65	4648.05
1001.0785	2746.3744	5542.1	4650.7
1001.1996	2747.582	5506.9	4617.1
1001.3206	2748.7889	5471.1	4578.1
1001.4415	2749.9952	5464.4	4573.55
1001.5625	2751.2008	5419.7	4526.5
1001.6833	2752.4057	5425.7	4530.1
1001.8042	2753.61	5396.2	4504.55
1001.925	2754.8136	5379	4484.6
1002.0458	2756.0165	5366	4475
1002.1665	2757.2188	5332	4442.45
1002.2872	2758.4204	5322.15	4430.6
1002.4078	2759.6213	5305.8	4412.75
1002.5285	2760.8215	5299.75	4402.25
1002.649	2762.0211	5280.15	4389
1002.7696	2763.22	5260.3	4365.95
1002.8901	2764.4182	5242.75	4351.55
1003.0106	2765.6158	5233.65	4342.25
1003.131	2766.8127	5215.65	4323.75
1003.2514	2768.009	5186.05	4294.9
1003.3717	2769.2045	5154.75	4263.75
1003.492	2770.3994	5163.85	4269.8
1003.6123	2771.5936	5138.05	4246.75
1003.7325	2772.7872	5123.5	4233.35
1003.8527	2773.9801	5104.55	4211.95
1003.9729	2775.1723	5107.3	4198.95
1004.093	2776.3639	5059.5	4168.75
1004.2131	2777.5548	5052.5	4160.65
1004.3331	2778.745	5026.2	4133.65
1004.4531	2779.9346	5013.65	4122.4
1004.5731	2781.1235	5000.95	4106.5
1004.693	2782.3117	5004.9	4113
1004.8129	2783.4992	4987.05	4097.9
1004.9328	2784.6861	4975.85	4085.8
1005.0526	2785.8723	4951.25	4058.05
1005.1723	2787.0579	4958.2	4064.6
1005.2921	2788.2428	4933.5	4040.4
1005.4118	2789.427	4940.65	4053.2
1005.5314	2790.6106	4920.1	4029.55
1005.651	2791.7935	4916.55	4025.55
1005.7706	2792.9757	4920	4029.05
1005.8902	2794.1573	4905.25	4010.45
1006.0097	2795.3382	4896.75	4004.75
1006.1291	2796.5184	4918.4	4027.35
1006.2485	2797.698	4912.05	4019.8
1006.3679	2798.8769	4906	4016.15
1006.4873	2800.0551	4899.8	4007.45
1006.6066	2801.2327	4897.95	4003.55
1006.7258	2802.4096	4908.35	4016.45
1006.8451	2803.5859	4906.25	4014.85
1006.9642	2804.7615	4902.65	4011.45
1007.0834	2805.9364	4924.85	4036.1
1007.2025	2807.1106	4942.4	4050.75
1007.3216	2808.2842	4959.3	4068.95
1007.4406	2809.4572	4963.45	4074.45
1007.5596	2810.6294	5006	4114.1
1007.6785	2811.801	5013.05	4122.9
1007.7975	2812.972	5048.95	4159.15
1007.9163	2814.1423	5093.6	4204.45
1008.0352	2815.3119	5124.35	4234.3
1008.154	2816.4808	5151.45	4263.05
1008.2727	2817.6491	5175.75	4283.9
1008.3914	2818.8167	5207.7	4318.6
1008.5101	2819.9837	5272.85	4377.15
1008.6288	2821.15	5294.5	4403.6
1008.7474	2822.3157	5333.5	4442.7
1008.8659	2823.4807	5344.15	4452.15
1008.9844	2824.645	5397.3	4505.6
1009.1029	2825.8086	5417.25	4526.85
1009.2214	2826.9716	5442.95	4552.95
1009.3398	2828.134	5497.25	4606.75
1009.4581	2829.2957	5496.55	4605.85
1009.5764	2830.4567	5541.95	4651.6
1009.6947	2831.617	5537.6	4648.85
1009.813	2832.7767	5528.55	4639.15
1009.9312	2833.9358	5519.3	4630
1010.0493	2835.0941	5521.6	4629.65
1010.1675	2836.2519	5503	4613.15
1010.2855	2837.4089	5480.4	4590
1010.4036	2838.5653	5466.3	4576
1010.5216	2839.7211	5454.2	4564.25
1010.6396	2840.8761	5455.25	4562.25
1010.7575	2842.0306	5458.75	4567.65
1010.8754	2843.1843	5493.65	4603.1
1010.9932	2844.3374	5538.8	4647.75
1011.111	2845.4899	5563.55	4673.15
1011.2288	2846.6417	5650.8	4759.45
1011.3465	2847.7928	5711.3	4821.05
1011.4642	2848.9433	5792.45	4904.3
1011.5818	2850.0931	5846.15	4956.15
1011.6995	2851.2422	5921.15	5028.75
1011.817	2852.3907	5974.9	5082.15
1011.9345	2853.5385	6030.8	5138.75
1012.052	2854.6857	6089.2	5170.55
1012.1695	2855.8323	6120	5227.45
1012.2869	2856.9781	6156.45	5265.5
1012.4042	2858.1233	6212.5	5323.35
1012.5216	2859.2679	6213.05	5323.6
1012.6389	2860.4118	6261.3	5370.75
1012.7561	2861.555	6301.15	5404.5
1012.8733	2862.6976	6304.15	5411.4
1012.9905	2863.8395	6336	5447.25
1013.1076	2864.9808	6355.95	5465.65
1013.2247	2866.1214	6326.65	5437.7
1013.3417	2867.2614	6329.8	5439.5
1013.4587	2868.4007	6334.2	5442.9
1013.5757	2869.5393	6327	5435
1013.6926	2870.6773	6331.1	5436.7
1013.8095	2871.8146	6363	5469.2
1013.9263	2872.9513	6325.55	5430.85
1014.0431	2874.0874	6312.45	5422.15
1014.1599	2875.2227	6289.85	5398.85
1014.2766	2876.3574	6262.55	5373.4
1014.3933	2877.4915	6220.3	5330.4
1014.51	2878.6249	6192.9	5300.75
1014.6266	2879.7577	6158.05	5266.95
1014.7431	2880.8898	6117.65	5216.7
1014.8596	2882.0212	6085.65	5195.8
1014.9761	2883.152	6069.35	5177.6
1015.0925	2884.2821	6037.15	5148
1015.2089	2885.4116	6021.15	5130.15
1015.3253	2886.5405	6004.35	5112.1
1015.4416	2887.6686	6021.05	5127.55
1015.5579	2888.7962	6007.25	5117.9
1015.6741	2889.923	5980.4	5090.3
1015.7903	2891.0493	6010.85	5119.65
1015.9065	2892.1748	5997.3	5105.05
1016.0226	2893.2997	5987.2	5096.35
1016.1387	2894.424	6004.2	5114.4
1016.2547	2895.5476	6004.95	5113.65
1016.3707	2896.6706	6026.35	5136.35
1016.4866	2897.7929	6042.75	5151.95
1016.6025	2898.9145	6032.6	5141.15
1016.7184	2900.0355	6060.2	5168.55
1016.8342	2901.1559	6097.3	5204.45
1016.95	2902.2756	6146.2	5256.15
1017.0658	2903.3946	6143.55	5253.7
1017.1815	2904.513	6163.1	5270.5
1017.2971	2905.6308	6179.35	5290.8
1017.4127	2906.7479	6184.25	5293.85
1017.5283	2907.8643	6201.8	5310
1017.6439	2908.9801	6183.7	5293.05
1017.7594	2910.0953	6174.5	5282.85
1017.8748	2911.2098	6176.65	5281.7
1017.9902	2912.3236	6171.95	5273.45
1018.1056	2913.4368	6137.45	5242.75
1018.2209	2914.5494	6115.65	5222.85
1018.3362	2915.6613	6084.05	5186.15
1018.4515	2916.7725	6021.25	5129.2
1018.5667	2917.8831	6000.9	5110.7
1018.6819	2918.9931	5979	5087.2
1018.797	2920.1024	5931.1	5040.05
1018.9121	2921.211	5909	5017.55
1019.0271	2922.319	5882	4990.2
1019.1421	2923.4264	5853.95	4963.45
1019.2571	2924.5331	5836.35	4947.25
1019.372	2925.6391	5814.1	4924.65
1019.4869	2926.7445	5783.25	4895.45
1019.6017	2927.8493	5770.1	4877.15
1019.7165	2928.9534	5741.8	4849.9
1019.8313	2930.0569	5726.95	4833.75
1019.946	2931.1597	5724.25	4832.95
1020.0606	2932.2619	5712.4	4821.6
1020.1753	2933.3634	5679.85	4789.6
1020.2899	2934.4643	5677.85	4781.1
1020.4044	2935.5645	5651.4	4755.25
1020.5189	2936.6641	5600.15	4704.55
1020.6334	2937.763	5533.7	4644.15
1020.7478	2938.8613	5482.9	4592.3
1020.8622	2939.959	5439.6	4543.8
1020.9765	2941.056	5350	4458.3
1021.0908	2942.1523	5249.65	4359.95
1021.2051	2943.248	5154.95	4265.15
1021.3193	2944.3431	5045.5	4156
1021.4334	2945.4375	4940.35	4049.65
1021.5476	2946.5313	4809.75	3921.15
1021.6617	2947.6244	4720.4	3830.8
1021.7757	2948.7169	4609.2	3716.7
1021.8897	2949.8087	4502.7	3610.95
1022.0037	2950.8999	4401.35	3511.1
1022.1176	2951.9904	4298.8	3407.8
1022.2315	2953.0803	4223.55	3333.65
1022.3453	2954.1696	4151	3259.8
1022.4591	2955.2582	4074.55	3185.35
1022.5728	2956.3462	4036.25	3145.55
1022.6865	2957.4335	3990.9	3100.25
1022.8002	2958.5202	3954.7	3059.55
1022.9138	2959.6062	3905.1	3015.4
1023.0274	2960.6916	3871.3	2981.2
1023.141	2961.7764	3855.7	2966.7
1023.2545	2962.8605	3817.45	2925.05
1023.3679	2963.9439	3837.45	2948.3
1023.4813	2965.0267	3794.05	2901.7
1023.5947	2966.1089	3788.85	2877.35
1023.708	2967.1905	3758.55	2868.05
1023.8213	2968.2714	3750.9	2862.1
1023.9346	2969.3516	3721.45	2829.55
1024.0478	2970.4312	3725.35	2828.35
1024.1609	2971.5102	3706.5	2815.25
1024.274	2972.5885	3693.4	2804.35
1024.3871	2973.6662	3701.45	2806.6
1024.5002	2974.7432	3693.7	2804.05
1024.6132	2975.8196	3652.05	2761.15
1024.7261	2976.8954	3648.35	2758.45
1024.839	2977.9705	3634.3	2746.15
1024.9519	2979.045	3629.05	2740.4
1025.0647	2980.1188	3590.7	2700.2
1025.1775	2981.192	3565.75	2677.95
1025.2902	2982.2645	3513.05	2621.6
1025.4029	2983.3364	3483.2	2592.6
1025.5156	2984.4077	3454.3	2565.25
1025.6282	2985.4783	3423.15	2527.35
1025.7407	2986.5483	3404	2514.7
1025.8532	2987.6177	3336.4	2446.55
1025.9657	2988.6864	3318.5	2427.85
1026.0782	2989.7545	3278.25	2387.75
1026.1906	2990.8219	3245.3	2354.85
1026.3029	2991.8887	3190.4	2298.05
1026.4152	2992.9548	3152.85	2259.5
1026.5275	2994.0204	3116.85	2228.2
1026.6397	2995.0852	3080.65	2192.45
1026.7519	2996.1495	3064.6	2172.4
1026.864	2997.2131	3027.55	2137.85
1026.9761	2998.276	2998.4	2108.75
1027.0882	2999.3383	2971.45	2079.05
1027.2002	3000.4	2946.95	2056.3
1027.3122	3001.4611	2931.6	2037.2
1027.4241	3002.5215	2912.95	2022.65
1027.536	3003.5812	2892.1	2002.55
1027.6478	3004.6404	2879	1990.75
1027.7596	3005.6989	2858	1965.95
1027.8714	3006.7567	2837.5	1947.1
1027.9831	3007.8139	2850.65	1937.3
1028.0947	3008.8705	2811.3	1919.65
1028.2064	3009.9264	2800.95	1909.35
1028.3179	3010.9818	2796.95	1906.25
1028.4295	3012.0364	2790.45	1899.8
1028.541	3013.0905	2778	1887.4
1028.6524	3014.1439	2765.9	1876.7
1028.7638	3015.1966	2762.05	1873.8
1028.8752	3016.2487	2763.4	1873.2
1028.9865	3017.3002	2751.1	1857.4
1029.0978	3018.3511	2740.75	1849.55
1029.209	3019.4013	2736.25	1846.75
1029.3202	3020.4509	2735.8	1847.2
1029.4314	3021.4998	2720.95	1830.5
1029.5425	3022.5481	2713.6	1824
1029.6535	3023.5958	2725.3	1834.75
1029.7645	3024.6428	2707.1	1815.9
1029.8755	3025.6892	2710.1	1818.5
1029.9864	3026.735	2705.85	1817.1
1030.0973	3027.7802	2703.2	1813
1030.2082	3028.8247	2682.8	1793.1
1030.319	3029.8685	2690.7	1799.75
1030.4297	3030.9118	2685.25	1792.8
1030.5404	3031.9544	2685.6	1796.05
1030.6511	3032.9963	2674.8	1785.5
1030.7617	3034.0376	2677.65	1787.5
1030.8723	3035.0783	2673.8	1780.9
1030.9829	3036.1184	2680.05	1790.3
1031.0934	3037.1578	2676.05	1786.4
1031.2038	3038.1966	2673.05	1782.45
1031.3142	3039.2348	2659.05	1770.7
1031.4246	3040.2723	2662.65	1765.7
1031.5349	3041.3092	2638.35	1749.35
1031.6452	3042.3455	2640	1748.55
1031.7554	3043.3811	2630.2	1738.55
1031.8656	3044.4161	2627.55	1735.8
1031.9758	3045.4505	2612.4	1723.8
1032.0859	3046.4842	2601.85	1712.3
1032.1959	3047.5173	2593.5	1704.15
1032.3059	3048.5498	2578.65	1691
1032.4159	3049.5816	2565.95	1677.25
1032.5258	3050.6128	2560.6	1669.35
1032.6357	3051.6434	2554.45	1664.45
1032.7455	3052.6734	2536.35	1643.6
1032.8553	3053.7027	2518.75	1628.55
1032.9651	3054.7314	2514.95	1625.4
1033.0748	3055.7594	2505.15	1615.8
1033.1845	3056.7868	2499.4	1608.8
1033.2941	3057.8136	2481.6	1592.85
1033.4037	3058.8398	2466.4	1577.85
1033.5132	3059.8653	2453.45	1562.05
1033.6227	3060.8902	2451.1	1561.25
1033.7321	3061.9145	2433.55	1544.45
1033.8415	3062.9381	2433.55	1544.1
1033.9509	3063.9612	2433.25	1526.55
1034.0602	3064.9835	2407.2	1517.95
1034.1694	3066.0053	2396.5	1502.7
1034.2787	3067.0264	2390.05	1502.75
1034.3878	3068.0469	2382.45	1491.4
1034.497	3069.0668	2377	1482.6
1034.6061	3070.086	2359.45	1470.75
1034.7151	3071.1046	2339.6	1450
1034.8241	3072.1226	2340.1	1448.4
1034.9331	3073.1399	2302.05	1412.7
1035.042	3074.1567	2293.85	1404.25
1035.1508	3075.1727	2285.8	1394.15
1035.2597	3076.1882	2270.55	1380.35
1035.3684	3077.203	2248.2	1359.8
1035.4772	3078.2173	2239.5	1348.7
1035.5859	3079.2308	2230.55	1337.6
1035.6945	3080.2438	2222.4	1329.4
1035.8031	3081.2561	2206.55	1317.85
1035.9117	3082.2678	2183.1	1292.4
1036.0202	3083.2789	2181.9	1290.7
1036.1286	3084.2893	2164.75	1275.85
1036.2371	3085.2991	2165.05	1274.05
1036.3454	3086.3083	2152.05	1256.75
1036.4538	3087.3169	2139.75	1248.55
1036.562	3088.3248	2138.9	1246.5
1036.6703	3089.3321	2126.05	1234.65
1036.7785	3090.3388	2113.65	1225.55
1036.8866	3091.3449	2100.7	1211.1
1036.9948	3092.3503	2104	1212.9
1037.1028	3093.3551	2090.35	1202.35
1037.2108	3094.3593	2085.9	1196.8
1037.3188	3095.3629	2076.4	1186.5
1037.4267	3096.3658	2066.7	1174.65
1037.5346	3097.3681	2057.2	1165.3
1037.6425	3098.3698	2057.8	1164.75
1037.7503	3099.3708	2042.95	1151.4
1037.858	3100.3713	2033.05	1143.25
1037.9657	3101.3711	2029.8	1140.2
1038.0734	3102.3702	2150.45	1123.8
1038.181	3103.3688	2030.3	1138.45
1038.2886	3104.3667	2023.4	1134
1038.3961	3105.364	1993.25	1106.4
1038.5036	3106.3607	1992.85	1100.9
1038.611	3107.3568	1975.4	1083.95
1038.7184	3108.3522	1976	1087.45
1038.8257	3109.347	1973.55	1082.95
1038.933	3110.3412	1972.3	1077.7
1039.0403	3111.3348	1969.2	1081
1039.1475	3112.3277	1957.15	1067.35
1039.2547	3113.32	1937.65	1047.7
1039.3618	3114.3117	1949.65	1059.7
1039.4689	3115.3028	1940.1	1052.1
1039.5759	3116.2932	1931.75	1039.85
1039.6829	3117.2831	1917.4	1021.9
1039.7898	3118.2723	1914.55	1024.65
1039.8967	3119.2608	1904.75	1014.7
1040.0035	3120.2488	1912.15	1020.75
1040.1103	3121.2361	1899.25	1009.4
1040.2171	3122.2229	1882.95	994
1040.3238	3123.209	1889.25	998.75
1040.4305	3124.1944	1878.65	990.65
1040.5371	3125.1793	1880.7	988.7
1040.6437	3126.1635	1874.35	985.75
1040.7502	3127.1471	1862.4	973.65
1040.8567	3128.1301	1862.7	971.55
1040.9631	3129.1125	1860.95	973.25
1041.0695	3130.0942	1847.75	958.75
1041.1759	3131.0753	1860.4	962.85
1041.2822	3132.0558	1852.4	961.85
1041.3884	3133.0357	1842.35	951.9
1041.4946	3134.015	1833.85	943.8
1041.6008	3134.9936	1834.6	943.1
1041.7069	3135.9716	1843.1	935.85
1041.813	3136.949	1823.25	933.65
1041.919	3137.9258	1819.85	927.05
1042.025	3138.902	1816.55	921.15
1042.1309	3139.8775	1808.95	919.1
1042.2368	3140.8524	1794.5	905.6
1042.3427	3141.8267	1797.45	907.15
1042.4485	3142.8004	1783.8	893.4
1042.5542	3143.7735	1791.55	894.8
1042.6599	3144.7459	1790.75	897.75
1042.7656	3145.7178	1781.25	891.95
1042.8712	3146.689	1780.5	894.15
1042.9768	3147.6596	1778.75	887.4
1043.0823	3148.6295	1771.9	882
1043.1878	3149.5989	1753.7	863.8
1043.2932	3150.5676	1756.95	867.95
1043.3986	3151.5357	1749.65	862.5
1043.5039	3152.5032	1749.7	861.2
1043.6092	3153.4701	1741.5	854.05
1043.7145	3154.4364	1742.15	849.75
1043.8197	3155.402	1740.25	850.85
1043.9248	3156.367	1723.5	832.55
1044.03	3157.3315	1763.9	830.35
1044.135	3158.2952	1714.35	825.75
1044.24	3159.2584	1709.15	819.2
1044.345	3160.221	1712	823.6
1044.4499	3161.1829	1707.4	817.35
1044.5548	3162.1442	1690.35	800.4
1044.6596	3163.105	1688	797.3
1044.7644	3164.065	1685.2	795.9
1044.8692	3165.0245	1687	796.45
1044.9739	3165.9834	1677.4	789.6
1045.0785	3166.9416	1682.35	792.25
1045.1831	3167.8993	1668.05	778.1
1045.2877	3168.8563	1661.15	770.15
1045.3922	3169.8127	1653.4	764
1045.4966	3170.7684	1662.35	774.45
1045.6011	3171.7236	1657.6	765.55
1045.7054	3172.6782	1648.4	758.4
1045.8098	3173.6321	1641.15	750.1
1045.914	3174.5854	1653.25	758.5
1046.0183	3175.5381	1641.55	750.85
1046.1224	3176.4902	1632.1	742.9
1046.2266	3177.4417	1628.25	739.2
1046.3307	3178.3926	1623.65	733.2
1046.4347	3179.3428	1619	731.35
1046.5387	3180.2924	1625.45	737.4
1046.6427	3181.2415	1613.05	723.7
1046.7466	3182.1899	1610.8	719.15
1046.8504	3183.1377	1599.7	709.8
1046.9542	3184.0848	1607.3	714.4
1047.058	3185.0314	1600.4	710.5
1047.1617	3185.9773	1591.3	702.9
1047.2654	3186.9227	1588.3	698.75
1047.369	3187.8674	1581.75	693.5
1047.4726	3188.8115	1586.55	692.5
1047.5761	3189.755	1572.35	680.55
1047.6796	3190.6979	1575.15	686.3
1047.783	3191.6402	1569.7	680.95
1047.8864	3192.5818	1570.55	682.65
1047.9898	3193.5229	1575.45	672.9
1048.0931	3194.4633	1557.65	667.85
1048.1963	3195.4031	1556.85	667.15
1048.2995	3196.3423	1547.3	657.05
1048.4027	3197.2809	1549.05	659.95
1048.5058	3198.2189	1547.15	656.95
1048.6089	3199.1563	1551.65	656.2
1048.7119	3200.0931	1541.35	653.05
1048.8148	3201.0292	1542.05	653.2
1048.9178	3201.9648	1534.25	642.65
1049.0206	3202.8997	1530.55	639.9
1049.1235	3203.834	1530.85	639.75
1049.2262	3204.7677	1525.95	636.75
1049.329	3205.7008	1523.1	632.15
1049.4317	3206.6333	1515.95	626.8
1049.5343	3207.5652	1508.6	617.3
1049.6369	3208.4964	1510.05	619.8
1049.7394	3209.4271	1506.25	618.75
1049.8419	3210.3571	1500.7	611.9
1049.9444	3211.2865	1507.25	617.65
1050.0468	3212.2154	1500.65	608.25
1050.1491	3213.1436	1493.45	601.1
1050.2514	3214.0712	1507.1	610.55
1050.3537	3214.9982	1488.5	598.1
1050.4559	3215.9246	1487.1	599.6
1050.5581	3216.8503	1481.55	592.65
1050.6602	3217.7755	1479.45	588.95
1050.7623	3218.7001	1485.2	597.6
1050.8643	3219.624	1473.45	584.5
1050.9663	3220.5473	1473.05	583.55
1051.0682	3221.4701	1474.2	582.7
1051.1701	3222.3922	1456.9	565.5
1051.2719	3223.3137	1463.2	574.2
1051.3737	3224.2346	1459.7	571.35
1051.4754	3225.1549	1457.85	570.5
1051.5771	3226.0746	1460.75	571.05
1051.6788	3226.9937	1450.3	560.9
1051.7804	3227.9121	1447.25	558.8
1051.8819	3228.83	1441.25	551.7
1051.9834	3229.7473	1441.75	551.5
1052.0849	3230.6639	1446.2	556.15
1052.1863	3231.5799	1438.75	550.55
1052.2876	3232.4954	1433.4	542.55
1052.3889	3233.4102	1422.8	533.6
1052.4902	3234.3244	1428.15	538.7
1052.5914	3235.238	1418.5	530.55
1052.6926	3236.151	1439.3	527.3
1052.7937	3237.0634	1415.4	524.05
1052.8948	3237.9752	1415.65	527.25
1052.9958	3238.8864	1408.6	516.65
1053.0968	3239.797	1408.2	517.9
1053.1977	3240.7069	1400.05	509.65
1053.2986	3241.6163	1400.1	509.1
1053.3994	3242.5251	1397.05	508.65
1053.5002	3243.4332	1390.6	501.65
1053.6009	3244.3408	1388.45	498.5
1053.7016	3245.2477	1392.65	503.95
1053.8022	3246.154	1392.15	501.95
1053.9028	3247.0598	1384.25	492.35
1054.0034	3247.9649	1381.85	492.95
1054.1039	3248.8694	1384.5	494.95
1054.2043	3249.7733	1373.1	484.8
1054.3047	3250.6766	1373.5	484.15
1054.4051	3251.5793	1368.4	477.95
1054.5054	3252.4814	1366.4	475.3
1054.6056	3253.3829	1358.5	470.55
1054.7058	3254.2838	1357.8	469.5
1054.806	3255.1841	1347.9	461.3
1054.9061	3256.0838	1351.7	463.5
1055.0061	3256.9829	1350.25	461.05
1055.1062	3257.8814	1347.55	455.5
1055.2061	3258.7792	1341.3	448.55
1055.306	3259.6765	1337.2	447.9
1055.4059	3260.5731	1329.1	440.45
1055.5057	3261.4692	1325.8	435.75
1055.6055	3262.3647	1320.7	432.65
1055.7052	3263.2595	1309.25	418.75
1055.8049	3264.1538	1315.5	426.1
1055.9045	3265.0474	1305.95	417.75
1056.0041	3265.9404	1291.05	401.55
1056.1036	3266.8329	1288.9	401.35
1056.2031	3267.7247	1289.6	393.25
1056.3025	3268.616	1271.9	385.6
1056.4019	3269.5066	1263.1	374.1
1056.5013	3270.3966	1256.45	363.65
1056.6005	3271.286	1241.35	354.65
