Software Version:	3.9.2.0
Unit SN:	10000200
Spectrometer SN:	6960
Date:	3/6/2024 9:31:41 AM
Data Line Index:	25
Spectral Points:	2048
Integration time (ms):	125
Averages:	20
Delay (ms):	30
Sequence Number:	1
Processing:	dark subtract
Laser Power (mW):	305
Laser Current (mA):	824
Laser Diode Temp (C):	25.1
Laser Case Temp (C):	23.6
System Temp (C):	23.3
Spectrometer Temp (C):	20.9
CCD Temp (C):	-0.034
Secondary Temp (C):	20.001
Heatsink Temp (C):	17.752
CCDPCB Temp (C):	29.982
SecondaryPCB Temp (C):	25.18

Wavelength	RamanShift	Raw Counts	Dark Subtracted
787.061	30.1047	519.95	111.4
787.2016	32.3739	521.25	116.65
787.3422	34.6426	530.15	124.55
787.4828	36.9109	539.1	131.15
787.6235	39.1787	551.5	138.25
787.7642	41.4461	564.55	148.45
787.9049	43.7131	577.65	157.55
788.0456	45.9796	589.8	166.3
788.1863	48.2456	600.85	173.05
788.3271	50.5112	615.55	185.7
788.4679	52.7764	630.3	197.35
788.6087	55.0411	645.1	207.9
788.7496	57.3054	666.3	223.7
788.8904	59.5692	677.5	233.4
789.0313	61.8326	689.95	243.45
789.1722	64.0955	713.7	262.7
789.3132	66.3579	744.9	291.2
789.4541	68.6199	773.6	314
789.5951	70.8815	822.25	359.75
789.7361	73.1426	939.9	474.5
789.8771	75.4032	1226.95	757.1
790.0181	77.6634	1931.55	1460.85
790.1592	79.9231	3648	3171.75
790.3003	82.1824	7386.6	6905.6
790.4414	84.4412	14001.35	13511.05
790.5825	86.6995	22879.9	22378.9
790.7237	88.9574	31479.75	30971.8
790.8648	91.2148	37589.6	37075.9
791.006	93.4717	40749.4	40232.55
791.1472	95.7282	42201.75	41682.75
791.2885	97.9842	42870.65	42349.25
791.4297	100.2398	43185.85	42661.9
791.571	102.4949	43077.2	42549.35
791.7123	104.7495	43368.85	42838.5
791.8536	107.0036	43207.15	42673.85
791.9949	109.2573	43702.25	43169.5
792.1363	111.5105	43257.35	42722.05
792.2777	113.7632	43625.15	43087.85
792.4191	116.0154	43683.4	43135.6
792.5605	118.2672	44024.1	43484.65
792.7019	120.5185	43979.2	43435.2
792.8434	122.7693	44054.55	43507
792.9849	125.0197	44035.95	43482
793.1264	127.2696	44395.7	43839.55
793.2679	129.519	44626.35	44069.5
793.4094	131.7679	45017.85	44457.25
793.551	134.0163	44209.2	43647.25
793.6926	136.2642	44616	44049.15
793.8342	138.5117	45030.25	44462.6
793.9758	140.7587	45001.3	44434.15
794.1175	143.0052	45135.1	44561.9
794.2591	145.2512	44737.15	44163
794.4008	147.4967	45210.45	44635.5
794.5425	149.7417	45047.35	44467.1
794.6842	151.9863	45155.55	44572.25
794.826	154.2304	44760.85	44175.95
794.9677	156.4739	45051	44459.75
795.1095	158.717	45244.1	44649.95
795.2513	160.9596	45244.65	44647.25
795.3931	163.2017	44931.25	44336.6
795.535	165.4433	45346.15	44745.05
795.6768	167.6844	45130.6	44527.45
795.8187	169.925	45394.2	44786.45
795.9606	172.1651	45328.6	44720
796.1025	174.4047	45174.6	44563.4
796.2445	176.6439	45324.45	44711.6
796.3864	178.8825	45382.9	44764.9
796.5284	181.1206	45552.25	44929.05
796.6704	183.3582	45630.35	45003.5
796.8124	185.5954	45303.2	44675.95
796.9544	187.832	45614.5	44984.15
797.0965	190.0681	45555.25	44920.2
797.2386	192.3037	45905.3	45268.8
797.3806	194.5388	46341.15	45700.45
797.5228	196.7734	45545.8	44907.55
797.6649	199.0075	46226.75	45585.9
797.807	201.2411	46275.65	45631.6
797.9492	203.4742	46553.1	45906.5
798.0914	205.7068	46700.45	46051.1
798.2336	207.9389	46767.15	46120.55
798.3758	210.1704	46667.2	46029.5
798.518	212.4015	47067.75	46435.05
798.6603	214.632	46522.45	45896.5
798.8025	216.862	47035.6	46406.6
798.9448	219.0915	47196.45	46567.5
799.0871	221.3205	46898.15	46268.7
799.2294	223.549	47235.5	46607.45
799.3718	225.777	47334.1	46704.25
799.5141	228.0044	47345.7	46705.35
799.6565	230.2314	47504.25	46863.3
799.7989	232.4578	47456.65	46810.75
799.9413	234.6837	47434.5	46782.15
800.0837	236.909	48124.8	47470.85
800.2262	239.1339	47299.3	46622.5
800.3687	241.3582	47659.55	46995.4
800.5111	243.582	47673.85	46978.8
800.6536	245.8053	47849.35	47167.1
800.7961	248.0281	47816.2	47140.6
800.9387	250.2503	48014.35	47335.7
801.0812	252.472	47882.45	47204.25
801.2238	254.6932	47934.15	47254.5
801.3664	256.9139	47888.35	47203.8
801.509	259.134	48526.4	47842.65
801.6516	261.3536	47679.35	46997.75
801.7942	263.5727	48348.1	47663.8
801.9369	265.7912	48114.55	47430.55
802.0795	268.0092	48199.65	47513.1
802.2222	270.2267	48233.9	47545.5
802.3649	272.4436	48155.35	47466.7
802.5076	274.6601	48332.6	47634.1
802.6504	276.8759	48390	47695.8
802.7931	279.0913	48457.4	47760.2
802.9359	281.3061	48303.25	47605.6
803.0787	283.5204	48536.1	47838.4
803.2215	285.7341	48496.7	47794.1
803.3643	287.9473	48860.9	48149.9
803.5071	290.16	48548.15	47840.45
803.6499	292.3721	49099.45	48400.65
803.7928	294.5837	48314.5	47613.7
803.9357	296.7947	48275.05	47571.15
804.0786	299.0052	48604.75	47901.6
804.2215	301.2152	48394.25	47686.75
804.3644	303.4246	48764.55	48061.3
804.5074	305.6334	48671.55	47967.3
804.6503	307.8418	48320.15	47613.85
804.7933	310.0495	48509.55	47801.5
804.9363	312.2568	48376.85	47668.2
805.0793	314.4635	48287.35	47576.9
805.2223	316.6696	48299.55	47585.25
805.3653	318.8752	48506.15	47779.3
805.5084	321.0802	47847.4	47131.2
805.6514	323.2847	48073.35	47355.7
805.7945	325.4887	48092.25	47373.3
805.9376	327.692	47958.4	47239.6
806.0807	329.8949	48226.4	47504.4
806.2238	332.0972	48148.2	47424.65
806.367	334.2989	48282.2	47555
806.5101	336.5001	48457.6	47730.75
806.6533	338.7007	48137.1	47410.85
806.7965	340.9008	48369.5	47639.95
806.9397	343.1003	48276.3	47544.05
807.0829	345.2992	48397.1	47664.95
807.2261	347.4976	48192	47457.85
807.3693	349.6955	48215.1	47477.35
807.5126	351.8927	48169.6	47431.95
807.6559	354.0895	48205.8	47454.35
807.7991	356.2856	48187.8	47446.25
807.9424	358.4812	48402.75	47662.45
808.0857	360.6763	48162.3	47418.75
808.2291	362.8707	48110.25	47366.7
808.3724	365.0646	48158.35	47409.75
808.5158	367.258	48152.25	47403.45
808.6591	369.4508	48025.65	47272.45
808.8025	371.643	48132.9	47380.75
808.9459	373.8346	48040.55	47286.3
809.0893	376.0257	47930.85	47174.25
809.2327	378.2162	47888.3	47131.55
809.3762	380.4062	47830.7	47072.3
809.5196	382.5956	47809.15	47056.25
809.6631	384.7844	47812.8	47063.7
809.8066	386.9726	47710.5	46962.95
809.9501	389.1603	47785.9	47038.8
810.0936	391.3474	47534.75	46737.2
810.2371	393.5339	47746.15	46994.45
810.3806	395.7199	47363.3	46612.45
810.5241	397.9052	47382.7	46634.8
810.6677	400.09	47406.1	46654.95
810.8113	402.2743	47449.6	46697.1
810.9548	404.4579	47515	46761.05
811.0984	406.641	47453.05	46696.25
811.2421	408.8235	47581.75	46822.8
811.3857	411.0054	47573.25	46813.45
811.5293	413.1868	47630.2	46867.65
811.673	415.3675	47591.4	46824.9
811.8166	417.5477	47603.6	46837.55
811.9603	419.7273	47572.6	46804.7
812.104	421.9064	47360	46582.35
812.2477	424.0848	47293.15	46521.65
812.3914	426.2627	47250.3	46479.05
812.5351	428.4399	46980.4	46208.2
812.6788	430.6166	46913.05	46133.45
812.8226	432.7928	46871.6	46092.1
812.9663	434.9683	46678.7	45898
813.1101	437.1432	46625.15	45842.85
813.2539	439.3176	46496.55	45717.05
813.3977	441.4914	46307.15	45527.2
813.5415	443.6645	46392.85	45613.95
813.6853	445.8371	46185.95	45405.45
813.8291	448.0091	45953.7	45175.45
813.973	450.1806	45892.65	45111.55
814.1168	452.3514	45739.15	44952.8
814.2607	454.5216	45784.65	44993
814.4046	456.6913	45556.8	44770.7
814.5485	458.8603	45589.75	44806.35
814.6924	461.0288	45613.9	44830.4
814.8363	463.1967	45547.1	44763.55
814.9802	465.3639	45633.95	44847.5
815.1241	467.5306	45399.8	44612.6
815.2681	469.6967	45359.2	44573.2
815.412	471.8622	45209.75	44424.8
815.556	474.0271	45192.1	44404.7
815.7	476.1914	45176.25	44383.9
815.844	478.3551	45171.35	44383.6
815.988	480.5182	45251.35	44462.7
816.132	482.6807	45159.65	44369.9
816.276	484.8426	45276.35	44487.6
816.4201	487.0039	45377.45	44585.9
816.5641	489.1647	45416.4	44623.05
816.7082	491.3248	45449.95	44658.25
816.8522	493.4843	45378.05	44584.6
816.9963	495.6432	45379.55	44584.8
817.1404	497.8015	45189	44394.05
817.2845	499.9592	45265.9	44471.15
817.4286	502.1163	45191.3	44392.55
817.5727	504.2728	45008.95	44211.5
817.7168	506.4287	45112.6	44316.4
817.861	508.5839	44960.85	44164.55
818.0051	510.7386	44900.85	44101.35
818.1493	512.8927	44986.1	44179.85
818.2935	515.0461	44945.9	44145.15
818.4377	517.199	44901.6	44099.75
818.5818	519.3512	44915.8	44114.35
818.726	521.5029	44941.1	44132.65
818.8703	523.6539	44913.8	44109.05
819.0145	525.8043	44865.5	44061.6
819.1587	527.9541	44812.25	44008.6
819.303	530.1033	44676.15	43869.6
819.4472	532.2519	44629.35	43824.55
819.5915	534.3999	44568.75	43761.45
819.7357	536.5472	44587.85	43780.85
819.88	538.694	44552.25	43745.45
820.0243	540.8401	44583.6	43775.4
820.1686	542.9856	44592.45	43782.15
820.3129	545.1305	44455.35	43645.7
820.4572	547.2748	44507.35	43696
820.6016	549.4185	44506.55	43692.5
820.7459	551.5615	44406.75	43595.35
820.8902	553.704	44436.7	43624.85
821.0346	555.8458	44315.25	43505.3
821.1789	557.987	44322.75	43513.7
821.3233	560.1276	44306.2	43491.75
821.4677	562.2675	44360.45	43549.15
821.6121	564.4069	44294.65	43483.25
821.7565	566.5456	44255.2	43442.4
821.9009	568.6837	44226.95	43415.5
822.0453	570.8212	44006.85	43194.9
822.1897	572.958	43901.95	43085.2
822.3342	575.0942	43781.5	42966.5
822.4786	577.2299	43633.85	42820.25
822.6231	579.3648	43501.55	42685.6
822.7675	581.4992	43315.6	42502.1
822.912	583.6329	43193.25	42378.7
823.0565	585.766	43142	42329.05
823.201	587.8985	43087.7	42272.65
823.3454	590.0304	43026.1	42197.15
823.4899	592.1616	42978.05	42158.1
823.6345	594.2922	42909.9	42091.7
823.779	596.4222	42809.6	41987.25
823.9235	598.5515	42687.85	41865.05
824.068	600.6802	42525.4	41705.25
824.2126	602.8083	42330.55	41510.1
824.3571	604.9358	42339.8	41516.7
824.5017	607.0626	42257.1	41434.7
824.6462	609.1888	42204.7	41382
824.7908	611.3144	42198.8	41375.6
824.9354	613.4393	42062.45	41240.25
825.08	615.5636	42073.3	41249.1
825.2246	617.6873	42072.9	41249.45
825.3692	619.8103	42107.75	41278.8
825.5138	621.9327	42006.4	41176
825.6584	624.0544	42050.9	41222.75
825.803	626.1756	41959.75	41133.55
825.9477	628.2961	41865.5	41036.95
826.0923	630.4159	41724.25	40898.55
826.237	632.5351	41736.75	40907.35
826.3816	634.6537	41660.85	40831.3
826.5263	636.7716	41581	40751.75
826.6709	638.8889	41614.15	40782.05
826.8156	641.0056	41604.3	40774.55
826.9603	643.1216	41540.2	40708.15
827.105	645.237	41664	40830.85
827.2497	647.3518	41537.1	40704.1
827.3944	649.4659	41534.7	40702.6
827.5391	651.5793	41394.1	40561.8
827.6838	653.6922	41273.95	40444.2
827.8285	655.8043	41281.75	40450.35
827.9733	657.9159	41246.4	40411.8
828.118	660.0268	41088.15	40254
828.2627	662.137	41025.85	40192.95
828.4075	664.2466	40998.55	40163.2
828.5522	666.3556	40956	40122.95
828.697	668.4639	40841.3	40003.45
828.8418	670.5716	40883.4	40049.3
828.9865	672.6786	40842.2	40005.75
829.1313	674.785	40667.15	39825.75
829.2761	676.8907	40535.05	39696.5
829.4209	678.9958	40556	39719.35
829.5657	681.1002	40488.3	39649.9
829.7105	683.204	40366.4	39522.7
829.8553	685.3072	40328.95	39486.55
830.0001	687.4097	40318.1	39478.45
830.1449	689.5115	40270.9	39429.2
830.2898	691.6127	40291.55	39452.1
830.4346	693.7132	40129.05	39290.35
830.5794	695.8131	40131	39274.35
830.7243	697.9123	40191.45	39350.25
830.8691	700.0109	40090.7	39250.95
831.014	702.1089	40047.6	39205.55
831.1588	704.2061	39954.6	39113.8
831.3037	706.3028	39954.7	39111.55
831.4486	708.3987	39928.5	39089.4
831.5935	710.4941	39868.25	39023.85
831.7383	712.5887	39895.25	39050.45
831.8832	714.6827	39828.75	38982.05
832.0281	716.7761	39705.4	38862.15
832.173	718.8688	39695.4	38850.7
832.3179	720.9608	39624.8	38778.3
832.4628	723.0522	39680.75	38832.35
832.6077	725.1429	39557.6	38711.85
832.7527	727.233	39522.6	38675.35
832.8976	729.3224	39579.3	38734.55
833.0425	731.4112	39469	38622.15
833.1874	733.4993	39400	38550.85
833.3324	735.5867	39327.8	38480.9
833.4773	737.6735	39257.1	38407.75
833.6222	739.7596	39135.95	38287.2
833.7672	741.845	39033.4	38185.25
833.9122	743.9298	38911.1	38059.9
834.0571	746.014	38871.8	38022.75
834.2021	748.0974	38817.2	37967.9
834.347	750.1802	38696.6	37848
834.492	752.2624	38607.1	37757.8
834.637	754.3439	38411	37560.1
834.782	756.4247	38317.35	37454.05
834.9269	758.5048	38251.9	37401.55
835.0719	760.5843	38116.45	37262.45
835.2169	762.6631	38025.55	37172.2
835.3619	764.7413	37982.35	37131
835.5069	766.8188	37998.9	37148.45
835.6519	768.8956	37925.65	37070.45
835.7969	770.9718	37978.05	37126.45
835.9419	773.0473	37807.15	36957.1
836.0869	775.1221	37819.05	36968.2
836.232	777.1962	37577.25	36727.35
836.377	779.2697	37597.5	36742.3
836.522	781.3426	37572.5	36701.45
836.667	783.4147	37502.5	36646.25
836.8121	785.4862	37496.8	36644.6
836.9571	787.557	37312.85	36460.2
837.1021	789.6271	37207.95	36354.4
837.2472	791.6966	37034.95	36179.4
837.3922	793.7654	36884.75	36030.95
837.5373	795.8335	36827.65	35975.95
837.6823	797.901	36688.95	35834.4
837.8274	799.9678	36680.75	35823.3
837.9724	802.0339	36597.55	35741.8
838.1175	804.0993	36630.55	35767.65
838.2626	806.1641	36452.1	35595.35
838.4076	808.2282	36354.5	35501.35
838.5527	810.2916	36366.45	35505.65
838.6978	812.3544	36338.45	35484.55
838.8428	814.4164	36187.55	35334.15
838.9879	816.4778	36225.95	35368.95
839.133	818.5385	36125.8	35268.5
839.2781	820.5986	36143.65	35287.95
839.4232	822.658	36135.3	35274.35
839.5682	824.7166	36006.2	35151.25
839.7133	826.7747	36146.5	35290.55
839.8584	828.832	36090.4	35236.1
840.0035	830.8886	35954.25	35094.25
840.1486	832.9446	35940.45	35080.1
840.2937	834.9999	35869.95	35011.25
840.4388	837.0545	35714.1	34849.1
840.5839	839.1085	35674.05	34814.2
840.729	841.1618	35546.95	34684.85
840.8741	843.2143	35465.25	34605.95
841.0192	845.2662	35310.5	34451.15
841.1643	847.3175	35292.75	34433.45
841.3095	849.368	35195.45	34336.75
841.4546	851.4179	35131.55	34273.7
841.5997	853.467	34992.4	34131.4
841.7448	855.5155	34961.45	34100.65
841.8899	857.5633	34917.2	34056.7
842.0351	859.6105	34835.25	33974.75
842.1802	861.6569	34775.15	33914.6
842.3253	863.7027	34737.6	33876
842.4704	865.7478	34642.95	33780.25
842.6156	867.7922	34643.75	33783.55
842.7607	869.8359	34501.8	33640.45
842.9058	871.8789	34499.2	33638.35
843.0509	873.9212	34436.2	33541.15
843.1961	875.9629	34266.1	33405.6
843.3412	878.0039	34317.65	33454.5
843.4863	880.0441	34271.35	33410.3
843.6315	882.0837	34284.55	33423.4
843.7766	884.1226	34252.2	33386.3
843.9218	886.1609	34240.25	33379.75
844.0669	888.1984	34281.7	33419.7
844.212	890.2352	34310.3	33447.8
844.3572	892.2714	34221.7	33353.15
844.5023	894.3069	34192	33327
844.6475	896.3416	33986.6	33123.2
844.7926	898.3757	33983.9	33119.15
844.9377	900.4091	33853.65	32989.9
845.0829	902.4418	33792.1	32921.45
845.228	904.4739	33648.4	32781.25
845.3732	906.5052	33694.6	32829.6
845.5183	908.5358	33629.25	32765.55
845.6635	910.5658	33550.55	32685.55
845.8086	912.595	33485.75	32620.1
845.9538	914.6236	33333.7	32470
846.0989	916.6515	33325.15	32462.95
846.2441	918.6786	33215.05	32347.1
846.3892	920.7051	33158.8	32291.3
846.5344	922.7309	33181.35	32315.55
846.6795	924.756	33016.7	32149.85
846.8246	926.7804	33023.65	32153.55
846.9698	928.8041	32786.45	31916.85
847.1149	930.8272	32776.1	31910.9
847.2601	932.8495	32675.95	31809.4
847.4052	934.8711	32671.05	31803.75
847.5504	936.892	32501.3	31635
847.6955	938.9123	32407.6	31537.7
847.8407	940.9318	32382.85	31513.85
847.9858	942.9506	32276.2	31407.75
848.131	944.9688	32137.25	31271.9
848.2761	946.9862	32042.15	31174.3
848.4213	949.003	31855.55	30987.3
848.5664	951.019	31811.25	30943.65
848.7115	953.0344	31709.55	30840.7
848.8567	955.0491	31667.75	30799.3
849.0018	957.063	31670.9	30800.4
849.147	959.0763	31695.35	30826.6
849.2921	961.0888	31562.7	30693.9
849.4373	963.1007	31533.85	30663
849.5824	965.1119	31488.95	30619.65
849.7275	967.1223	31410.95	30544.3
849.8727	969.1321	31385.5	30518.8
850.0178	971.1412	31308.35	30439.3
850.1629	973.1495	31186.15	30318
850.3081	975.1572	31221.2	30305.05
850.4532	977.1641	31147.6	30276.5
850.5983	979.1704	31009.5	30137.75
850.7435	981.1759	30956.7	30084.2
850.8886	983.1808	30932.5	30060.25
851.0337	985.1849	30824.7	29948.7
851.1788	987.1884	30722.2	29848.9
851.324	989.1911	30652.75	29780.05
851.4691	991.1932	30621.9	29751.85
851.6142	993.1945	30499.65	29629.2
851.7593	995.1951	30355.8	29486.25
851.9045	997.1951	30350	29469.75
852.0496	999.1943	30210.85	29338.15
852.1947	1001.1928	30082.95	29210.75
852.3398	1003.1906	29901	29030.05
852.4849	1005.1877	29942.25	29068.5
852.63	1007.1841	29845.6	28972.5
852.7751	1009.1798	29701.65	28830
852.9202	1011.1748	29587.6	28717.45
853.0653	1013.1691	29517.5	28647.15
853.2104	1015.1627	29386.3	28513
853.3555	1017.1556	29142.8	28272.3
853.5006	1019.1477	29129.45	28256.5
853.6457	1021.1392	28950.35	28078.5
853.7908	1023.1299	28842.2	27970.65
853.9359	1025.12	28696.25	27823.5
854.081	1027.1093	28582.65	27712.85
854.2261	1029.0979	28532.1	27664.65
854.3712	1031.0859	28412.05	27542.25
854.5163	1033.0731	28375.55	27504.85
854.6613	1035.0596	28280.65	27411.4
854.8064	1037.0454	28140.85	27268.25
854.9515	1039.0304	28093.65	27222.05
855.0965	1041.0148	27936.05	27062.25
855.2416	1042.9985	27826.95	26951.4
855.3867	1044.9814	27827.95	26955
855.5317	1046.9636	27666.7	26791.3
855.6768	1048.9452	27571.65	26701.6
855.8219	1050.926	27548.15	26675.05
855.9669	1052.9061	27493.75	26619.05
856.112	1054.8855	27415.85	26543.75
856.257	1056.8642	27401.95	26527.65
856.4021	1058.8421	27377.2	26498.4
856.5471	1060.8194	27204.95	26332.7
856.6921	1062.7959	27154	26280.35
856.8372	1064.7717	27104.95	26230
856.9822	1066.7469	27060.15	26184.15
857.1272	1068.7213	27016.1	26138.45
857.2723	1070.695	26961.15	26088.65
857.4173	1072.6679	26835	25961.35
857.5623	1074.6402	26836.05	25961.95
857.7073	1076.6117	26830.05	25950.4
857.8523	1078.5826	26757.15	25881.3
857.9973	1080.5527	26662.45	25784.45
858.1423	1082.5221	26536.1	25660.45
858.2873	1084.4908	26488.7	25612.85
858.4323	1086.4587	26439.15	25564.7
858.5773	1088.426	26356.7	25482
858.7223	1090.3925	26283.6	25406.2
858.8673	1092.3584	26269.3	25393.4
859.0123	1094.3235	26139.6	25264.65
859.1573	1096.2879	26060.9	25185.45
859.3022	1098.2515	26005.3	25129.9
859.4472	1100.2145	26029.2	25155.05
859.5922	1102.1767	25934.15	25055.5
859.7371	1104.1382	25927.6	25050.4
859.8821	1106.099	25872.75	24996.65
860.027	1108.0591	25843.7	24968.75
860.172	1110.0185	25826.35	24949.75
860.3169	1111.9771	25805.75	24932.9
860.4619	1113.9351	25742.85	24866.85
860.6068	1115.8923	25702.35	24825.3
860.7517	1117.8488	25633.85	24755.25
860.8967	1119.8045	25569.65	24692.05
861.0416	1121.7596	25461.15	24583.55
861.1865	1123.7139	25264.75	24387.7
861.3314	1125.6675	25208.7	24329.7
861.4763	1127.6204	25210.35	24334.65
861.6212	1129.5726	25149.25	24270.75
861.7661	1131.524	25102.85	24227.5
861.911	1133.4748	25072.7	24197.15
862.0559	1135.4248	24922.2	24045.55
862.2008	1137.3741	24810.65	23932.5
862.3457	1139.3226	24741.7	23863.7
862.4905	1141.2705	24723.85	23845.8
862.6354	1143.2176	24588.45	23704.65
862.7803	1145.164	24569.25	23691.95
862.9251	1147.1097	24549.95	23671.75
863.07	1149.0546	24483.25	23604.45
863.2148	1150.9989	24432.8	23556.6
863.3597	1152.9424	24437.35	23559.7
863.5045	1154.8852	24341.25	23464.8
863.6493	1156.8272	24327.5	23451.35
863.7942	1158.7686	24336.5	23452.15
863.939	1160.7092	24188.8	23308.15
864.0838	1162.6491	24097.85	23216.85
864.2286	1164.5883	24046.95	23168.95
864.3734	1166.5267	24060.6	23180.3
864.5182	1168.4644	24095	23217.1
864.663	1170.4014	24017.2	23134.05
864.8078	1172.3377	24090.55	23213.7
864.9526	1174.2732	24025.25	23147.85
865.0974	1176.2081	24090.7	23212.85
865.2421	1178.1421	24176.2	23294.4
865.3869	1180.0755	24134.75	23254.95
865.5317	1182.0082	24109.2	23230.65
865.6764	1183.9401	24098.85	23219.7
865.8212	1185.8713	23956.85	23077.75
865.9659	1187.8017	23821.35	22944.85
866.1106	1189.7315	23736.35	22860.45
866.2554	1191.6605	23477.3	22599.75
866.4001	1193.5888	23352.35	22476.35
866.5448	1195.5163	23328.35	22451.6
866.6895	1197.4432	23280.3	22401.6
866.8342	1199.3693	23164.85	22289.5
866.9789	1201.2947	23033.35	22151.75
867.1236	1203.2193	22955.2	22076.65
867.2683	1205.1432	22973.05	22094.25
867.413	1207.0664	22854.25	21975.6
867.5576	1208.9889	22786.85	21903.85
867.7023	1210.9106	22718.05	21839.8
867.847	1212.8316	22621.05	21743.65
867.9916	1214.7519	22623.75	21734.3
868.1363	1216.6715	22527.95	21649.2
868.2809	1218.5903	22475.25	21596.9
868.4255	1220.5084	22442.75	21563.4
868.5701	1222.4257	22450.6	21571.6
868.7148	1224.3424	22286.35	21409.2
868.8594	1226.2583	22271.95	21387.25
869.004	1228.1735	22272.8	21393.7
869.1486	1230.0879	22155.15	21274.65
869.2932	1232.0016	22133.5	21253.85
869.4377	1233.9146	22096.7	21213.7
869.5823	1235.8269	22035.8	21157.5
869.7269	1237.7384	22054.4	21173.7
869.8715	1239.6492	21953.2	21073.65
870.016	1241.5592	21958.65	21079.1
870.1606	1243.4686	21903.65	21024.6
870.3051	1245.3772	21952.95	21072
870.4496	1247.285	21918.8	21038.1
870.5941	1249.1922	21918.1	21039.75
870.7387	1251.0986	21964.75	21083.75
870.8832	1253.0042	21945.7	21064.55
871.0277	1254.9092	21937.05	21056.2
871.1722	1256.8134	21991.1	21110.75
871.3167	1258.7169	22038.7	21157.4
871.4611	1260.6196	22019.6	21140.2
871.6056	1262.5216	22055.1	21173.6
871.7501	1264.4229	21984.55	21105.2
871.8945	1266.3234	21975.6	21096.3
872.039	1268.2232	21897.55	21016.2
872.1834	1270.1223	21762.5	20881.9
872.3278	1272.0207	21697	20816.5
872.4723	1273.9183	21663.6	20775.1
872.6167	1275.8151	21586.7	20705.35
872.7611	1277.7113	21601.7	20722
872.9055	1279.6067	21612.95	20734.4
873.0499	1281.5014	21678.55	20794.45
873.1943	1283.3953	21780.4	20898.5
873.3386	1285.2885	21953.05	21073.05
873.483	1287.181	22067.25	21186
873.6274	1289.0727	22117	21235.45
873.7717	1290.9637	22028.45	21148.3
873.9161	1292.854	21935.4	21056.35
874.0604	1294.7435	21784.9	20905.6
874.2047	1296.6323	21636.9	20754.05
874.349	1298.5204	21518.85	20635
874.4933	1300.4077	21459	20578.15
874.6376	1302.2943	21369.4	20488.65
874.7819	1304.1802	21325.1	20444.9
874.9262	1306.0653	21254.95	20369.95
875.0705	1307.9497	21203.35	20322.6
875.2147	1309.8333	21171.9	20290.25
875.359	1311.7162	21165.8	20284.6
875.5032	1313.5984	21103.95	20221.1
875.6475	1315.4798	20989.8	20106.25
875.7917	1317.3605	20965.1	20078.4
875.9359	1319.2405	20983.05	20098.95
876.0801	1321.1197	20946.75	20064.2
876.2243	1322.9982	20854.95	19970.4
876.3685	1324.876	20855.2	19973.85
876.5127	1326.753	20719.2	19834
876.6569	1328.6293	20624.85	19742.4
876.801	1330.5048	20560.7	19676.45
876.9452	1332.3796	20424.6	19545.65
877.0893	1334.2537	20362.65	19458.1
877.2335	1336.127	20288.5	19406.95
877.3776	1337.9996	20249.75	19366.15
877.5217	1339.8714	20179.6	19300.35
877.6658	1341.7426	20127.65	19205.1
877.8099	1343.6129	20072.25	19191
877.954	1345.4826	19986.1	19104.45
878.0981	1347.3515	20019.45	19132.8
878.2422	1349.2196	19964.4	19080.45
878.3862	1351.087	19954.1	19072.35
878.5303	1352.9537	19867.6	18984.8
878.6743	1354.8197	19856	18973.4
878.8184	1356.6849	19866.7	18985.6
878.9624	1358.5493	19810.55	18931.15
879.1064	1360.4131	19824.4	18942.25
879.2504	1362.276	19783	18899.95
879.3944	1364.1383	19777	18896.55
879.5384	1365.9998	19723.4	18835.55
879.6823	1367.8606	19680.7	18799
879.8263	1369.7206	19654.65	18771.9
879.9702	1371.5799	19593.8	18710.45
880.1142	1373.4384	19524.55	18643.9
880.2581	1375.2962	19504.75	18620.2
880.402	1377.1533	19382.55	18502.1
880.5459	1379.0096	19270.7	18388.6
880.6898	1380.8652	19191.7	18309.8
880.8337	1382.7201	19137.3	18255.2
880.9776	1384.5742	19014.7	18133.75
881.1215	1386.4275	18919.25	18033.15
881.2653	1388.2802	18840.15	17960.65
881.4092	1390.132	18773.5	17891.7
881.553	1391.9832	18761.2	17876
881.6968	1393.8336	18618.25	17735.45
881.8406	1395.6832	18613.45	17730.2
881.9844	1397.5322	18560.3	17676
882.1282	1399.3803	18498.3	17610.85
882.272	1401.2278	18397.15	17514.1
882.4158	1403.0745	18376.55	17493.15
882.5595	1404.9204	18260.8	17380.45
882.7033	1406.7656	18238.4	17355.75
882.847	1408.6101	18143.65	17260.05
882.9908	1410.4538	18076.2	17193.5
883.1345	1412.2968	18050.3	17165.8
883.2782	1414.139	17965.4	17081.45
883.4219	1415.9805	17970.95	17088.05
883.5656	1417.8213	17872.9	16969.05
883.7092	1419.6613	17808.7	16928.75
883.8529	1421.5006	17827.6	16943.9
883.9965	1423.3391	17796.35	16912.65
884.1402	1425.1769	17745.25	16860.55
884.2838	1427.0139	17768.3	16885
884.4274	1428.8502	17822.65	16939.45
884.571	1430.6858	17868.7	16985.45
884.7146	1432.5206	17771.65	16888.45
884.8582	1434.3547	17791.7	16909.7
885.0018	1436.188	17684.35	16802.85
885.1453	1438.0206	17673.3	16790.05
885.2889	1439.8524	17599.2	16714.3
885.4324	1441.6835	17641.95	16759.4
885.5759	1443.5139	17557.7	16669.85
885.7194	1445.3435	17524.4	16641.05
885.8629	1447.1724	17494.4	16611.65
886.0064	1449.0005	17498.05	16616.35
886.1499	1450.8279	17445.8	16561.2
886.2933	1452.6545	17430.4	16546.45
886.4368	1454.4804	17410.65	16528.75
886.5802	1456.3056	17382.65	16493.85
886.7237	1458.13	17318.5	16434.8
886.8671	1459.9536	17316.25	16433.25
887.0105	1461.7766	17249.75	16363.55
887.1539	1463.5987	17151.25	16267
887.2972	1465.4202	17080.2	16196.9
887.4406	1467.2409	16989.45	16105.35
887.584	1469.0608	16992.35	16110.05
887.7273	1470.88	16911.3	16025.3
887.8706	1472.6984	16873.65	15989.55
888.0139	1474.5161	16769.25	15884.4
888.1572	1476.3331	16747.65	15865.35
888.3005	1478.1493	16714	15828.95
888.4438	1479.9648	16685	15800.65
888.5871	1481.7795	16688.85	15804.35
888.7303	1483.5935	16692.3	15807.5
888.8736	1485.4067	16606.8	15723.1
889.0168	1487.2192	16584.4	15702.9
889.16	1489.031	16570	15682.5
889.3032	1490.842	16523.25	15640.6
889.4464	1492.6522	16487.75	15604.9
889.5896	1494.4618	16460.7	15576.3
889.7327	1496.2705	16419.2	15536.95
889.8759	1498.0785	16368.6	15485.4
890.019	1499.8858	16325.55	15441.35
890.1622	1501.6924	16282.65	15398.55
890.3053	1503.4981	16274.3	15391.55
890.4484	1505.3032	16216.45	15331.35
890.5914	1507.1075	16165.35	15282.05
890.7345	1508.911	16139.15	15255.15
890.8776	1510.7138	16115.8	15230.4
891.0206	1512.5159	16050.8	15167.85
891.1637	1514.3172	15979.55	15096.8
891.3067	1516.1178	15935.15	15054.2
891.4497	1517.9176	15929.5	15043.2
891.5927	1519.7166	15850	14968.85
891.7357	1521.515	15797.05	14907.85
891.8786	1523.3126	15747.25	14862.7
892.0216	1525.1094	15723.7	14840.45
892.1645	1526.9055	15646.3	14763.7
892.3074	1528.7008	15615.8	14732
892.4503	1530.4954	15508.6	14623.65
892.5932	1532.2893	15451.4	14570.35
892.7361	1534.0824	15385.5	14497.5
892.879	1535.8747	15375.1	14490.75
893.0218	1537.6663	15320.65	14437.7
893.1647	1539.4572	15285	14399.1
893.3075	1541.2473	15232.85	14349.35
893.4503	1543.0367	15149.4	14266.05
893.5931	1544.8253	15098.6	14210.3
893.7359	1546.6132	15080.45	14194.2
893.8787	1548.4003	14987.15	14092.95
894.0214	1550.1867	14969.65	14077.85
894.1642	1551.9723	14939.45	14053.65
894.3069	1553.7572	14926.1	14042.4
894.4496	1555.5414	14905.35	14022.2
894.5923	1557.3247	14829.5	13945.65
894.735	1559.1074	14831.05	13949.9
894.8777	1560.8893	14812.6	13931.6
895.0204	1562.6705	14771.8	13891.1
895.163	1564.4509	14763.1	13881.55
895.3056	1566.2305	14721.2	13838.65
895.4482	1568.0094	14746.15	13866.25
895.5908	1569.7876	14693.05	13811.7
895.7334	1571.565	14660.05	13775.25
895.876	1573.3417	14629.7	13745.95
896.0186	1575.1176	14595.5	13713.25
896.1611	1576.8928	14550.55	13668
896.3036	1578.6672	14523.1	13641.95
896.4461	1580.4409	14505.4	13625.1
896.5886	1582.2138	14444.65	13561.45
896.7311	1583.986	14440.25	13556.95
896.8736	1585.7575	14443.65	13562.25
897.0161	1587.5282	14410.8	13529.15
897.1585	1589.2981	14446.4	13566.2
897.3009	1591.0673	14384.7	13503.4
897.4433	1592.8358	14375.45	13495.85
897.5857	1594.6035	14300.45	13414.8
897.7281	1596.3704	14220.25	13337.05
897.8705	1598.1366	14187.15	13304.65
898.0128	1599.9021	14129.45	13246.3
898.1551	1601.6668	13996.3	13113.75
898.2975	1603.4308	13954.8	13070.05
898.4398	1605.194	13916.55	13028.9
898.5821	1606.9564	13873.85	12991.75
898.7243	1608.7182	13895.9	13012.35
898.8666	1610.4791	13899.7	13018.15
899.0088	1612.2394	13937.65	13056.1
899.1511	1613.9988	13977.75	13097.2
899.2933	1615.7576	14017.9	13135.15
899.4355	1617.5156	14039.5	13150.5
899.5776	1619.2728	14026.7	13144.8
899.7198	1621.0293	13917.85	13035.85
899.862	1622.785	13797.6	12913.4
900.0041	1624.54	13614.5	12728.6
900.1462	1626.2942	13483.05	12600.75
900.2883	1628.0477	13330.85	12445.25
900.4304	1629.8005	13222.7	12336.3
900.5725	1631.5525	13132	12251
900.7145	1633.3037	13044	12160.5
900.8566	1635.0542	12990.9	12109.55
900.9986	1636.804	12909.55	12028.4
901.1406	1638.553	12940.45	11969.2
901.2826	1640.3013	12787.1	11906.9
901.4245	1642.0488	12712	11827.85
901.5665	1643.7955	12690.75	11809.95
901.7085	1645.5416	12627.7	11747.45
901.8504	1647.2868	12599.65	11717.6
901.9923	1649.0313	12510	11628.8
902.1342	1650.7751	12497.25	11611.1
902.2761	1652.5181	12469.9	11587.6
902.4179	1654.2604	12427.6	11544.6
902.5598	1656.0019	12377.75	11497.1
902.7016	1657.7427	12319.8	11436.85
902.8434	1659.4828	12313.6	11432
902.9852	1661.222	12329.4	11445.9
903.127	1662.9606	12308.45	11429.5
903.2687	1664.6984	12292.25	11409.15
903.4105	1666.4354	12303.2	11419.15
903.5522	1668.1717	12261	11376.3
903.6939	1669.9072	12159.85	11274.95
903.8356	1671.642	12068.2	11183.25
903.9773	1673.3761	12014.45	11133.25
904.119	1675.1094	11979.05	11096.45
904.2606	1676.8419	11905.8	11025.05
904.4022	1678.5737	11821.2	10937.45
904.5439	1680.3048	11785.8	10904
904.6855	1682.0351	11684.15	10802.85
904.827	1683.7646	11638.35	10752.7
904.9686	1685.4934	11616.2	10735.4
905.1101	1687.2215	11563.75	10680.1
905.2517	1688.9488	11484.3	10601.4
905.3932	1690.6754	11424.9	10541.65
905.5347	1692.4012	11403	10519.45
905.6761	1694.1263	11359.55	10477.65
905.8176	1695.8506	11340.55	10458.25
905.9591	1697.5742	11282.55	10401.9
906.1005	1699.297	11238	10355.75
906.2419	1701.0191	11191.75	10310.25
906.3833	1702.7404	11113.65	10233.55
906.5246	1704.461	11068.8	10186
906.666	1706.1808	11038.7	10155.4
906.8073	1707.8999	11018.9	10136.7
906.9487	1709.6182	10997.8	10115.7
907.09	1711.3358	10951.15	10072.45
907.2313	1713.0527	10926.55	10045.5
907.3725	1714.7688	10873.1	9985.25
907.5138	1716.4841	10815.95	9933.2
907.655	1718.1987	10818.45	9930.65
907.7962	1719.9126	10783.5	9903.25
907.9374	1721.6257	10742.2	9858.85
908.0786	1723.338	10738.65	9854.35
908.2198	1725.0496	10672.9	9789.65
908.3609	1726.7605	10677.55	9794.65
908.502	1728.4706	10632.1	9748.8
908.6431	1730.18	10595.9	9709.9
908.7842	1731.8886	10561.2	9679.7
908.9253	1733.5964	10573.45	9672.65
909.0664	1735.3036	10530.05	9646.55
909.2074	1737.0099	10517.65	9635.15
909.3484	1738.7156	10484.3	9602.7
909.4894	1740.4204	10463.1	9575.3
909.6304	1742.1246	10436.85	9552.55
909.7714	1743.8279	10400.9	9518.65
909.9123	1745.5306	10400.75	9517.7
910.0532	1747.2325	10392.2	9510.9
910.1941	1748.9336	10363.45	9483.25
910.335	1750.634	10314.6	9430.25
910.4759	1752.3336	10275.1	9391.45
910.6168	1754.0325	10276.6	9396.6
910.7576	1755.7307	10243.35	9362.65
910.8984	1757.4281	10275.7	9394.2
911.0392	1759.1247	10247.8	9358.1
911.18	1760.8206	10227.5	9340.95
911.3208	1762.5158	10208.3	9324.5
911.4615	1764.2102	10184.85	9304.4
911.6022	1765.9039	10138.75	9257.05
911.7429	1767.5968	10117.45	9235.8
911.8836	1769.289	10092.15	9210.6
912.0243	1770.9804	10081.9	9199.6
912.1649	1772.6711	10068.1	9185.65
912.3056	1774.361	10031.7	9148.6
912.4462	1776.0502	10038.65	9156.7
912.5868	1777.7386	9998.7	9114
912.7274	1779.4263	9960.25	9077.1
912.8679	1781.1132	9963.05	9083.75
913.0084	1782.7994	9922.05	9039.55
913.149	1784.4849	9894.9	9014.35
913.2895	1786.1696	9886.6	8987
913.4299	1787.8535	9850.3	8968.4
913.5704	1789.5367	9826.8	8943.6
913.7108	1791.2192	9816.85	8933.25
913.8513	1792.9009	9766.65	8866.8
913.9917	1794.5818	9729.85	8847.2
914.132	1796.2621	9732.9	8851.8
914.2724	1797.9415	9690.55	8808.2
914.4128	1799.6202	9669.95	8785
914.5531	1801.2982	9640.45	8759.25
914.6934	1802.9755	9645.5	8762.5
914.8337	1804.6519	9629.2	8745.9
914.9739	1806.3277	9555.7	8675.5
915.1142	1808.0027	9551.25	8671.6
915.2544	1809.6769	9545.3	8663.6
915.3946	1811.3504	9515.8	8634.3
915.5348	1813.0231	9484.05	8602.35
915.675	1814.6951	9470.25	8588.5
915.8151	1816.3664	9457.6	8573
915.9553	1818.0369	9427.15	8543.45
916.0954	1819.7067	9399.8	8517.15
916.2355	1821.3757	9392.7	8506.55
916.3755	1823.044	9350.95	8468.2
916.5156	1824.7115	9344.6	8460.3
916.6556	1826.3783	9305.75	8424.75
916.7956	1828.0443	9277.75	8397.8
916.9356	1829.7096	9275.4	8390.3
917.0756	1831.3741	9278.55	8392.5
917.2155	1833.0379	9239.8	8357
917.3555	1834.701	9232.05	8348.95
917.4954	1836.3633	9189.1	8307.6
917.6353	1838.0248	9178.65	8293.2
917.7751	1839.6856	9130.6	8248.5
917.915	1841.3457	9151.05	8268.95
918.0548	1843.005	9111.85	8231.1
918.1946	1844.6636	9108.75	8227.9
918.3344	1846.3214	9059.85	8176.8
918.4742	1847.9785	9037.2	8156.35
918.6139	1849.6349	9030.45	8145.5
918.7537	1851.2904	9025.1	8134.05
918.8934	1852.9453	9010.95	8128.4
919.0331	1854.5994	8963.7	8080.8
919.1727	1856.2528	8970.75	8084.1
919.3124	1857.9054	8921.4	8041.05
919.452	1859.5572	8918.35	8037.1
919.5916	1861.2083	8920.6	8037.75
919.7312	1862.8587	8926.15	8044.3
919.8708	1864.5084	8864.75	7980.4
920.0103	1866.1572	8848.25	7966.3
920.1498	1867.8054	8819.7	7936.7
920.2893	1869.4528	8784.55	7903.4
920.4288	1871.0994	8765.8	7881.7
920.5683	1872.7453	8740.65	7859.5
920.7077	1874.3905	8736.8	7849.05
920.8471	1876.0349	8691.4	7808
920.9865	1877.6786	8722.2	7836.7
921.1259	1879.3215	8699.3	7817.15
921.2653	1880.9637	8686.75	7801.9
921.4046	1882.6051	8656.95	7777.15
921.5439	1884.2458	8644.2	7757.7
921.6832	1885.8858	8622.5	7740.1
921.8225	1887.525	8610.9	7728.65
921.9617	1889.1634	8580.35	7697.6
922.101	1890.8011	8543.8	7662.25
922.2402	1892.4381	8515.6	7632.2
922.3794	1894.0743	8507.85	7627
922.5185	1895.7098	8527.75	7643.85
922.6577	1897.3446	8477.8	7594.75
922.7968	1898.9786	8452.9	7565.65
922.9359	1900.6118	8427.95	7546.05
923.075	1902.2443	8398.55	7513.45
923.214	1903.8761	8380.75	7498.7
923.3531	1905.5071	8356.2	7472.9
923.4921	1907.1374	8331.95	7450.05
923.6311	1908.7669	8347.05	7462.85
923.77	1910.3957	8324.75	7441.85
923.909	1912.0237	8275.55	7394
924.0479	1913.651	8271.95	7387.75
924.1868	1915.2776	8236.5	7355.25
924.3257	1916.9034	8194.95	7314.2
924.4646	1918.5285	8150.7	7268.9
924.6034	1920.1528	8135.5	7252.6
924.7422	1921.7764	8120.5	7237.45
924.881	1923.3992	8100.6	7220.8
925.0198	1925.0213	8036.25	7153.3
925.1586	1926.6427	8016.1	7134.5
925.2973	1928.2633	8171	7083.95
925.436	1929.8832	8019.4	7133.65
925.5747	1931.5023	7956.55	7075.8
925.7134	1933.1207	7935.35	7054.3
925.852	1934.7383	7923.95	7040.1
925.9906	1936.3552	7884.05	7002.4
926.1292	1937.9714	7870.45	6987.7
926.2678	1939.5868	7843.6	6960.8
926.4064	1941.2015	7817.8	6935.1
926.5449	1942.8154	7787.45	6905.15
926.6834	1944.4286	7752.5	6869.75
926.8219	1946.041	7756.2	6849.9
926.9604	1947.6528	7715.8	6828.7
927.0988	1949.2637	7698.9	6819.45
927.2372	1950.8739	7665.2	6781.9
927.3756	1952.4834	7651.9	6772.25
927.514	1954.0921	7633.4	6752.65
927.6523	1955.7001	7621.2	6736
927.7907	1957.3074	7606.1	6724.55
927.929	1958.9139	7569.8	6688.25
928.0673	1960.5197	7549.5	6667.8
928.2055	1962.1247	7511.15	6629.6
928.3438	1963.729	7501.05	6620.25
928.482	1965.3325	7490.95	6587.5
928.6202	1966.9353	7452.3	6570.9
928.7584	1968.5374	7453.85	6571
928.8965	1970.1387	7429.1	6548.8
929.0346	1971.7393	7398.65	6516.65
929.1727	1973.3392	7368.05	6487
929.3108	1974.9383	7347.05	6465.85
929.4489	1976.5366	7311.35	6430.05
929.5869	1978.1342	7302.3	6418.8
929.7249	1979.7311	7294.6	6412.65
929.8629	1981.3273	7276.9	6395.5
930.0009	1982.9227	7257.1	6373.25
930.1388	1984.5173	7229.75	6348
930.2767	1986.1112	7210.15	6329.4
930.4146	1987.7044	7194	6314.9
930.5525	1989.2968	7192.05	6310.4
930.6904	1990.8885	7178.6	6292.4
930.8282	1992.4795	7169.35	6287.5
930.966	1994.0697	7137.85	6256.6
931.1038	1995.6592	7136.9	6256.15
931.2415	1997.2479	7092.85	6210.75
931.3793	1998.8359	7076.95	6194.35
931.517	2000.4232	7042.7	6162.9
931.6547	2002.0097	7052.2	6173.55
931.7923	2003.5955	7003.7	6122.05
931.93	2005.1805	7006.15	6123.15
932.0676	2006.7648	7010.85	6129.2
932.2052	2008.3484	6973.55	6093.1
932.3427	2009.9312	6987.45	6104.35
932.4803	2011.5133	6938.85	6058
932.6178	2013.0946	6922.8	6042.95
932.7553	2014.6752	6917.8	6038.35
932.8928	2016.2551	6895.6	6014.7
933.0302	2017.8342	6866.6	5985.35
933.1676	2019.4126	6855.3	5976.7
933.305	2020.9902	6825.5	5946.05
933.4424	2022.5672	6831.65	5948.6
933.5798	2024.1433	6843.5	5958.35
933.7171	2025.7188	6796.45	5919.4
933.8544	2027.2935	6775.75	5894.8
933.9917	2028.8674	6755.25	5874.05
934.129	2030.4406	6743.1	5864.35
934.2662	2032.0131	6720.6	5840.4
934.4034	2033.5849	6689.05	5804.75
934.5406	2035.1559	6681.25	5801.5
934.6778	2036.7261	6689.2	5809.35
934.8149	2038.2957	6662	5782.2
934.952	2039.8645	6638.85	5759.3
935.0891	2041.4325	6675.15	5792.6
935.2262	2042.9998	6638.35	5758.4
935.3632	2044.5664	6618.2	5735.3
935.5002	2046.1323	6616.8	5736.35
935.6372	2047.6974	6588.55	5705.65
935.7742	2049.2617	6579.3	5699.6
935.9111	2050.8254	6597.3	5693.1
936.048	2052.3883	6575.2	5694.35
936.1849	2053.9504	6526.95	5643.3
936.3218	2055.5118	6525.1	5641.7
936.4586	2057.0725	6497.55	5611.2
936.5955	2058.6325	6488.3	5604.55
936.7323	2060.1917	6485.6	5602.95
936.869	2061.7502	6474.9	5591.3
937.0058	2063.3079	6446.05	5565.7
937.1425	2064.8649	6439.4	5553.6
937.2792	2066.4212	6417.35	5538.05
937.4159	2067.9767	6424.1	5544.5
937.5525	2069.5315	6393.1	5513.4
937.6891	2071.0856	6378.6	5497.55
937.8257	2072.6389	6348.65	5465.65
937.9623	2074.1915	6328	5450.55
938.0989	2075.7433	6318.4	5436.6
938.2354	2077.2945	6290.25	5412.15
938.3719	2078.8448	6279.1	5398.3
938.5084	2080.3945	6254.35	5375.75
938.6448	2081.9434	6268.75	5389.1
938.7812	2083.4916	6236.15	5355
938.9176	2085.039	6240.35	5355.65
939.054	2086.5857	6222.9	5338.25
939.1903	2088.1317	6210.25	5327.5
939.3267	2089.677	6210.15	5330.15
939.463	2091.2215	6198.85	5319.7
939.5992	2092.7652	6175.55	5293.55
939.7355	2094.3083	6153.7	5271.75
939.8717	2095.8506	6156.85	5278.2
940.0079	2097.3921	6158.95	5280.95
940.1441	2098.933	6139.6	5259.55
940.2802	2100.4731	6127.25	5246.6
940.4163	2102.0124	6151.55	5253.1
940.5524	2103.5511	6122	5242.05
940.6885	2105.089	6106.3	5223.65
940.8245	2106.6261	6084.55	5204.9
940.9606	2108.1626	6097.35	5215.2
941.0965	2109.6983	6094.4	5184.35
941.2325	2111.2332	6057.85	5177.25
941.3684	2112.7675	6064.7	5182.25
941.5044	2114.301	6023	5141.25
941.6403	2115.8337	6029.2	5150.95
941.7761	2117.3657	6018.2	5138.15
941.912	2118.897	6009.7	5130.1
942.0478	2120.4276	5991.15	5105.35
942.1835	2121.9575	5971.5	5091.9
942.3193	2123.4866	5962.05	5078.8
942.455	2125.0149	5964.2	5078.95
942.5907	2126.5426	5939.3	5058.9
942.7264	2128.0695	5917.9	5034.7
942.8621	2129.5956	5911.25	5032.1
942.9977	2131.1211	5917.4	5034.05
943.1333	2132.6458	5892.35	5011.45
943.2689	2134.1698	5878.25	4997.6
943.4044	2135.693	5873.25	4990
943.54	2137.2155	5876.35	4993.35
943.6755	2138.7373	5840.8	4960
943.8109	2140.2584	5832.25	4950.95
943.9464	2141.7787	5813.65	4929.75
944.0818	2143.2983	5789.15	4911.85
944.2172	2144.8171	5769	4890.25
944.3526	2146.3353	5763.2	4881.3
944.4879	2147.8527	5741.2	4861.85
944.6232	2149.3693	5735.1	4854.7
944.7585	2150.8853	5713.45	4831.95
944.8938	2152.4005	5691.25	4809.45
945.029	2153.9149	5693.3	4812.85
945.1642	2155.4287	5685.2	4803.7
945.2994	2156.9417	5668.6	4785.9
945.4346	2158.454	5644	4759.95
945.5697	2159.9655	5625.75	4744.55
945.7048	2161.4764	5623.75	4744.25
945.8399	2162.9865	5616.9	4736.75
945.9749	2164.4958	5596.55	4715.85
946.1099	2166.0045	5585.1	4700.75
946.2449	2167.5124	5573.05	4692.3
946.3799	2169.0195	5567.75	4687.55
946.5148	2170.526	5575.55	4694.15
946.6498	2172.0317	5548.5	4668.6
946.7846	2173.5367	5541	4658.45
946.9195	2175.0409	5528.9	4647.45
947.0543	2176.5445	5509.9	4630.8
947.1891	2178.0473	5507.25	4627.65
947.3239	2179.5494	5484.85	4600.75
947.4587	2181.0507	5473.65	4592.25
947.5934	2182.5513	5456.1	4575.9
947.7281	2184.0512	5451.85	4572.05
947.8628	2185.5504	5440.9	4558.7
947.9974	2187.0488	5405.95	4524.75
948.132	2188.5465	5387.85	4506.5
948.2666	2190.0435	5374.95	4491.75
948.4012	2191.5397	5342.05	4463.15
948.5357	2193.0353	5344.1	4463.4
948.6702	2194.5301	5345.65	4463.55
948.8047	2196.0241	5312.5	4432.3
948.9392	2197.5175	5296.6	4414.5
949.0736	2199.0101	5302.2	4418.85
949.208	2200.502	5268.75	4390.5
949.3424	2201.9931	5270.1	4389.6
949.4767	2203.4835	5236.35	4355.8
949.611	2204.9733	5230.3	4344.2
949.7453	2206.4622	5216.05	4337.5
949.8796	2207.9505	5191.55	4306.8
950.0138	2209.438	5184.3	4303.85
950.148	2210.9248	5163.95	4283.75
950.2822	2212.4109	5161.5	4283.35
950.4164	2213.8962	5131.35	4248.4
950.5505	2215.3809	5127.2	4246.35
950.6846	2216.8648	5118.45	4238.75
950.8186	2218.3479	5093.5	4210.7
950.9527	2219.8304	5082.75	4199.85
951.0867	2221.3121	5062.5	4179.55
951.2207	2222.7931	5057.8	4176.55
951.3546	2224.2733	5035.75	4154.05
951.4886	2225.7529	5021.3	4138.85
951.6225	2227.2317	4997.7	4114.5
951.7563	2228.7098	5006.05	4126.5
951.8902	2230.1872	4989.35	4110.95
952.024	2231.6638	4986	4106.45
952.1578	2233.1397	4968.15	4082.05
952.2916	2234.6149	4950	4070.45
952.4253	2236.0894	4933.25	4051
952.559	2237.5632	4940.95	4057.7
952.6927	2239.0362	4911.9	4031.2
952.8263	2240.5085	4892.2	4011
952.9599	2241.9801	4894.55	4013.7
953.0935	2243.4509	4877.3	3997.65
953.2271	2244.921	4861.15	3979.45
953.3606	2246.3904	4835.4	3953.9
953.4941	2247.8591	4814.6	3935.25
953.6276	2249.3271	4812.15	3929.95
953.7611	2250.7943	4792.1	3909.05
953.8945	2252.2608	4775	3893.3
954.0279	2253.7266	4779.45	3899.35
954.1612	2255.1917	4761.55	3880.5
954.2946	2256.656	4744.3	3863.3
954.4279	2258.1197	4728.15	3848.2
954.5612	2259.5826	4725.4	3845.85
954.6944	2261.0447	4718.95	3836
954.8276	2262.5062	4693.2	3811.9
954.9608	2263.9669	4693.8	3811.6
955.094	2265.4269	4700.75	3820.25
955.2271	2266.8862	4664.5	3782.85
955.3602	2268.3448	4660.9	3781.6
955.4933	2269.8026	4649.4	3770.55
955.6264	2271.2598	4641.05	3759.85
955.7594	2272.7162	4633	3754.9
955.8924	2274.1719	4623.2	3743.75
956.0253	2275.6268	4609.6	3727.7
956.1583	2277.0811	4600.6	3719.4
956.2912	2278.5346	4598.45	3718.95
956.4241	2279.9874	4570.15	3690.05
956.5569	2281.4395	4562.05	3683.6
956.6897	2282.8908	4560.4	3674.1
956.8225	2284.3414	4556.35	3675.55
956.9553	2285.7914	4518.6	3640
957.088	2287.2406	4513.9	3629.2
957.2207	2288.689	4508.35	3626.65
957.3534	2290.1368	4509.8	3626.95
957.486	2291.5838	4487	3605.25
957.6186	2293.0302	4474.8	3595.35
957.7512	2294.4758	4461	3581.35
957.8838	2295.9206	4451.45	3571.45
958.0163	2297.3648	4425.3	3544.7
958.1488	2298.8082	4442.55	3561
958.2813	2300.251	4407.15	3527.7
958.4137	2301.693	4395.6	3510.05
958.5461	2303.1343	4405.7	3525.25
958.6785	2304.5748	4393.65	3510.9
958.8108	2306.0147	4362.4	3481.35
958.9432	2307.4538	4364.85	3484.1
959.0754	2308.8922	4358.9	3479.05
959.2077	2310.3299	4341.1	3462.45
959.3399	2311.7669	4321.05	3438.25
959.4721	2313.2031	4328.3	3446.75
959.6043	2314.6387	4285.8	3404.45
959.7365	2316.0735	4285.95	3403.3
959.8686	2317.5076	4291.85	3411.5
960.0006	2318.941	4268.15	3389.05
960.1327	2320.3737	4260.85	3380.2
960.2647	2321.8056	4243.15	3362.9
960.3967	2323.2369	4247.6	3363.5
960.5287	2324.6674	4242.6	3359.4
960.6606	2326.0972	4232.2	3348.85
960.7925	2327.5263	4208.8	3327.75
960.9244	2328.9547	4205.25	3323.35
961.0562	2330.3823	4202.15	3320.25
961.1881	2331.8092	4177.2	3293.4
961.3198	2333.2355	4163.6	3281.5
961.4516	2334.661	4152.6	3270.85
961.5833	2336.0858	4154	3271.35
961.715	2337.5098	4139.5	3257.25
961.8467	2338.9332	4126.6	3246.8
961.9783	2340.3558	4121.45	3237.95
962.1099	2341.7778	4102.05	3222.75
962.2415	2343.199	4101.75	3219.9
962.373	2344.6195	4068.9	3189.4
962.5045	2346.0393	4077.55	3197.95
962.636	2347.4583	4071.45	3191.95
962.7675	2348.8767	4055.75	3173.25
962.8989	2350.2943	4043.8	3161.55
963.0303	2351.7113	4050.05	3167.9
963.1617	2353.1275	4034.45	3152.75
963.293	2354.543	4023.2	3134.3
963.4243	2355.9578	4022.65	3142.5
963.5556	2357.3718	3997.45	3117.1
963.6868	2358.7852	3995.3	3110.1
963.818	2360.1978	3959.1	3076.3
963.9492	2361.6098	3961.25	3083.3
964.0803	2363.021	3943.35	3058.45
964.2114	2364.4315	3935.6	3054.1
964.3425	2365.8413	3931.7	3045.85
964.4736	2367.2504	3929.75	3050.1
964.6046	2368.6587	3891.75	3010.5
964.7356	2370.0664	3880.05	2998.55
964.8666	2371.4733	3868.6	2987.2
964.9975	2372.8795	3855.35	2975.7
965.1284	2374.285	3855.95	2973.45
965.2593	2375.6899	3837.1	2959.25
965.3901	2377.0939	3840	2956.15
965.5209	2378.4973	3814.45	2934.2
965.6517	2379.9	3816.85	2935.4
965.7825	2381.3019	3802.5	2921.85
965.9132	2382.7032	3792.85	2911.1
966.0439	2384.1037	3787.6	2907.1
966.1745	2385.5035	3770.3	2889.45
966.3051	2386.9027	3752.7	2874.45
966.4357	2388.3011	3754.7	2871.15
966.5663	2389.6987	3741.1	2861.95
966.6968	2391.0957	3735.1	2853.55
966.8273	2392.492	3711.2	2829.75
966.9578	2393.8876	3690.5	2810.15
967.0882	2395.2824	3687.65	2806.6
967.2186	2396.6765	3678.8	2799.6
967.349	2398.07	3664.65	2783.4
967.4793	2399.4627	3666.75	2785.2
967.6097	2400.8547	3657.2	2775.75
967.7399	2402.246	3643.35	2756.7
967.8702	2403.6366	3634.2	2754.85
968.0004	2405.0265	3611.8	2728.3
968.1306	2406.4156	3597.7	2712.6
968.2607	2407.8041	3589.05	2705.35
968.3909	2409.1918	3584.85	2700.65
968.521	2410.5789	3562.05	2680.85
968.651	2411.9652	3564.75	2679
968.781	2413.3508	3553.85	2673.05
968.911	2414.7358	3530.4	2647.65
969.041	2416.12	3513.65	2631.8
969.1709	2417.5035	3510.9	2629.1
969.3008	2418.8863	3490.9	2608.65
969.4307	2420.2684	3496.6	2614.9
969.5606	2421.6497	3471	2587.75
969.6904	2423.0304	3453.85	2572.45
969.8201	2424.4104	3460.4	2580.05
969.9499	2425.7896	3445	2563.35
970.0796	2427.1682	3427.35	2545.7
970.2093	2428.546	3423.75	2542.15
970.3389	2429.9232	3414.65	2531.9
970.4685	2431.2996	3409.2	2528.75
970.5981	2432.6753	3406.25	2522.5
970.7277	2434.0503	3410.35	2527.05
970.8572	2435.4246	3388.35	2508.2
970.9867	2436.7982	3382.75	2498.5
971.1161	2438.1711	3368.95	2488.05
971.2456	2439.5433	3375.75	2493.55
971.375	2440.9148	3363	2476.7
971.5043	2442.2856	3353.75	2473.55
971.6336	2443.6557	3335.25	2451.05
971.7629	2445.025	3335.75	2455.9
971.8922	2446.3937	3313.3	2431.3
972.0214	2447.7617	3295.3	2412.15
972.1506	2449.1289	3301.15	2420.7
972.2798	2450.4955	3291.4	2406.2
972.4089	2451.8613	3286.35	2406.35
972.538	2453.2265	3284.6	2403.1
972.6671	2454.5909	3274.1	2393.65
972.7961	2455.9546	3261.55	2377.9
972.9251	2457.3177	3257.4	2375.6
973.0541	2458.68	3242.3	2358.65
973.1831	2460.0416	3233.55	2352.7
973.312	2461.4025	3232.45	2350.15
973.4408	2462.7627	3233.25	2339.8
973.5697	2464.1222	3214.3	2335.45
973.6985	2465.4811	3208.15	2326.9
973.8273	2466.8392	3197.05	2314.8
973.956	2468.1966	3194.8	2311.25
974.0847	2469.5533	3183.8	2299.4
974.2134	2470.9093	3183.45	2303.75
974.3421	2472.2645	3177.55	2296
974.4707	2473.6191	3166.5	2283.45
974.5993	2474.973	3149.35	2269.45
974.7278	2476.3262	3152.75	2270.4
974.8563	2477.6787	3134.75	2254.95
974.9848	2479.0305	3120.7	2240
975.1132	2480.3816	3123.7	2241.2
975.2417	2481.7319	3106	2222.45
975.37	2483.0816	3097.6	2213.6
975.4984	2484.4306	3095.95	2213.95
975.6267	2485.7789	3080.8	2199.6
975.755	2487.1264	3061.35	2179.05
975.8833	2488.4733	3055.6	2175
976.0115	2489.8195	3048.8	2161.05
976.1397	2491.165	3045.6	2162.2
976.2678	2492.5097	3036.15	2152.45
976.3959	2493.8538	3027.85	2147.05
976.524	2495.1972	3016.95	2135.7
976.6521	2496.5398	3001.8	2120.4
976.7801	2497.8818	3003.2	2118.85
976.9081	2499.2231	3011.95	2130.95
977.036	2500.5637	2981.6	2099.45
977.164	2501.9035	2972.4	2088.6
977.2918	2503.2427	2965.05	2081.45
977.4197	2504.5812	2967.6	2085.65
977.5475	2505.919	2947.35	2063.85
977.6753	2507.256	2938.9	2059.85
977.8031	2508.5924	2934.1	2051.55
977.9308	2509.9281	2929.1	2042.8
978.0585	2511.2631	2927.65	2046.05
978.1861	2512.5974	2914.95	2032.3
978.3137	2513.9309	2903.2	2020.45
978.4413	2515.2638	2920.3	2010.55
978.5689	2516.596	2889.75	2010.4
978.6964	2517.9275	2884.25	2002.9
978.8239	2519.2583	2876.95	1995.45
978.9513	2520.5884	2870.25	1987.85
979.0788	2521.9178	2863.9	1981.85
979.2062	2523.2465	2856.6	1976.95
979.3335	2524.5745	2836.9	1953.95
979.4608	2525.9018	2821.05	1938.75
979.5881	2527.2284	2825.95	1946.2
979.7154	2528.5543	2819.4	1939.1
979.8426	2529.8796	2814.85	1933.15
979.9698	2531.2041	2814.6	1932.1
980.0969	2532.5279	2810.8	1929.85
980.224	2533.851	2798	1918.2
980.3511	2535.1735	2794.35	1914.8
980.4781	2536.4952	2786.75	1905.4
980.6052	2537.8163	2786.65	1906.2
980.7321	2539.1366	2775.45	1894.45
980.8591	2540.4562	2766.65	1884.55
980.986	2541.7752	2770.5	1891.6
981.1129	2543.0935	2757.4	1875.3
981.2397	2544.411	2761.3	1876.8
981.3665	2545.7279	2750.25	1870.35
981.4933	2547.0441	2746.75	1865.25
981.62	2548.3596	2738.6	1855
981.7467	2549.6744	2731.75	1848.85
981.8734	2550.9885	2734.15	1846.15
982.0001	2552.3019	2725.05	1844.6
982.1267	2553.6146	2710.15	1826.5
982.2532	2554.9266	2700.1	1819.55
982.3798	2556.2379	2704.05	1821.05
982.5063	2557.5485	2697.8	1819.45
982.6327	2558.8585	2700.75	1812
982.7592	2560.1677	2706.25	1822.3
982.8856	2561.4762	2683.7	1802.5
983.0119	2562.7841	2679.85	1795.45
983.1383	2564.0913	2671.05	1791.65
983.2646	2565.3977	2669.65	1787.4
983.3908	2566.7035	2655.6	1773.7
983.517	2568.0086	2669.65	1786
983.6432	2569.313	2660.2	1778.95
983.7694	2570.6167	2660.35	1774.7
983.8955	2571.9197	2638.35	1758.2
984.0216	2573.222	2648.2	1761.6
984.1476	2574.5236	2650.1	1768.1
984.2737	2575.8246	2626.8	1743.15
984.3996	2577.1248	2626.8	1742.95
984.5256	2578.4244	2618.4	1736.85
984.6515	2579.7232	2602.3	1721.35
984.7774	2581.0214	2632.65	1724.6
984.9032	2582.3189	2605.15	1723.7
985.029	2583.6157	2609.95	1722.2
985.1548	2584.9118	2596.1	1716
985.2806	2586.2072	2585.75	1703.3
985.4063	2587.5019	2590.2	1710.4
985.5319	2588.7959	2581.8	1698.6
985.6576	2590.0893	2574.55	1690.4
985.7832	2591.3819	2578.15	1697.7
985.9087	2592.6739	2571.15	1688.75
986.0343	2593.9652	2550.85	1666.95
986.1597	2595.2557	2545.05	1664.7
986.2852	2596.5456	2540.65	1658.25
986.4106	2597.8348	2519.4	1639.3
986.536	2599.1234	2514.1	1634.7
986.6614	2600.4112	2519.95	1638.1
986.7867	2601.6983	2510.65	1625.95
986.912	2602.9848	2500.3	1617.95
987.0372	2604.2705	2505.9	1618
987.1624	2605.5556	2495.35	1613.55
987.2876	2606.84	2477.75	1595.75
987.4128	2608.1237	2472.1	1588.25
987.5379	2609.4067	2468.25	1585.85
987.6629	2610.689	2474.05	1586.15
987.788	2611.9707	2455.25	1570.55
987.913	2613.2516	2445.9	1561.55
988.0379	2614.5319	2447.9	1566.55
988.1629	2615.8115	2429.2	1547.3
988.2878	2617.0903	2432.1	1549.7
988.4126	2618.3685	2422	1539.75
988.5375	2619.6461	2413.5	1532.7
988.6622	2620.9229	2411.25	1528.4
988.787	2622.199	2399.85	1517.15
988.9117	2623.4745	2398.3	1515.3
989.0364	2624.7493	2378.9	1497.95
989.161	2626.0234	2376.85	1498.4
989.2857	2627.2968	2379.8	1498.2
989.4102	2628.5695	2369.35	1486.25
989.5348	2629.8415	2363.75	1482.55
989.6593	2631.1128	2360.8	1477.4
989.7837	2632.3835	2353.05	1472.15
989.9082	2633.6535	2336.75	1456.3
990.0326	2634.9228	2329.55	1448.55
990.1569	2636.1914	2327.05	1446.8
990.2812	2637.4593	2335.75	1448.65
990.4055	2638.7265	2318.15	1437.75
990.5298	2639.9931	2304.7	1423.85
990.654	2641.259	2307.7	1423.65
990.7782	2642.5242	2304.15	1422.55
990.9023	2643.7887	2299.1	1416.75
991.0264	2645.0525	2295.65	1414.85
991.1505	2646.3156	2286.45	1403.7
991.2745	2647.5781	2282.8	1402.35
991.3985	2648.8398	2283.5	1403.5
991.5225	2650.1009	2273.6	1381.85
991.6464	2651.3613	2268.45	1388.35
991.7703	2652.6211	2252.6	1371.5
991.8942	2653.8801	2248.7	1367.8
992.018	2655.1385	2254.95	1372.4
992.1418	2656.3961	2244.65	1364.1
992.2655	2657.6531	2241.15	1360.6
992.3892	2658.9094	2238.05	1355.3
992.5129	2660.1651	2233.85	1353.05
992.6366	2661.42	2232.75	1352
992.7602	2662.6743	2225.5	1342.95
992.8837	2663.9279	2218.3	1338.4
993.0073	2665.1808	2215.55	1333.45
993.1307	2666.433	2214.9	1330.75
993.2542	2667.6846	2208.85	1329.15
993.3776	2668.9354	2204.55	1319.5
993.501	2670.1856	2204.15	1321.75
993.6244	2671.4351	2194.45	1314.2
993.7477	2672.6839	2190.4	1307.85
993.8709	2673.9321	2188.9	1309.65
993.9942	2675.1795	2182	1300.2
994.1174	2676.4263	2175.4	1293.15
994.2405	2677.6724	2165.65	1283.85
994.3637	2678.9179	2160.15	1277.75
994.4868	2680.1626	2165.1	1285.1
994.6098	2681.4067	2149	1266.85
994.7328	2682.6501	2143.45	1263.75
994.8558	2683.8928	2137.35	1256.1
994.9788	2685.1348	2143.25	1263.1
995.1017	2686.3761	2135.95	1256.1
995.2245	2687.6168	2123.4	1242.5
995.3474	2688.8568	2124.6	1242.4
995.4702	2690.0961	2107.85	1227.15
995.5929	2691.3348	2114.55	1231.15
995.7156	2692.5727	2105.55	1223.8
995.8383	2693.81	2102.85	1221.75
995.961	2695.0466	2104.2	1225.3
996.0836	2696.2826	2090.9	1209.7
996.2062	2697.5178	2092.9	1207.4
996.3287	2698.7524	2090	1208.8
996.4512	2699.9863	2085.6	1202.55
996.5737	2701.2195	2067.2	1184
996.6961	2702.452	2068.1	1186.7
996.8185	2703.6839	2063.95	1181.95
996.9408	2704.9151	2061.25	1182.4
997.0631	2706.1456	2053.05	1170.1
997.1854	2707.3755	2045.35	1165.4
997.3077	2708.6046	2049.3	1167.35
997.4299	2709.8331	2045.85	1162.45
997.552	2711.0609	2036.85	1154.8
997.6742	2712.2881	2035.4	1155.65
997.7963	2713.5145	2036	1153.65
997.9183	2714.7403	2031.5	1149.9
998.0403	2715.9654	2018.8	1136.4
998.1623	2717.1899	2025.85	1131.65
998.2842	2718.4136	2008.85	1129.2
998.4062	2719.6367	2006.1	1123
998.528	2720.8591	2005.9	1117.2
998.6498	2722.0809	2006.9	1126.05
998.7716	2723.3019	1997.3	1115.65
998.8934	2724.5223	1987.95	1104.8
999.0151	2725.7421	1984.05	1102.6
999.1368	2726.9611	1979.2	1096.2
999.2584	2728.1795	1975.85	1090.75
999.38	2729.3972	1965.3	1085
999.5016	2730.6142	1968.25	1074.15
999.6231	2731.8306	1965	1082.2
999.7446	2733.0462	1953.85	1070.55
999.8661	2734.2612	1954.6	1067.55
999.9875	2735.4756	1934.65	1052.7
1000.1089	2736.6892	1928.95	1048.25
1000.2302	2737.9022	1922.25	1041.8
1000.3515	2739.1145	1926.8	1045.65
1000.4728	2740.3262	1923.4	1034.85
1000.594	2741.5372	1917	1038.6
1000.7152	2742.7475	1913.85	1031.75
1000.8363	2743.9571	1909.4	1026.2
1000.9575	2745.1661	1904.6	1019.35
1001.0785	2746.3744	1896.5	1013.6
1001.1996	2747.582	1892.6	1011.3
1001.3206	2748.7889	1886	1003.45
1001.4415	2749.9952	1881.85	1000.35
1001.5625	2751.2008	1879	997.25
1001.6833	2752.4057	1872.7	989.7
1001.8042	2753.61	1867.2	984.6
1001.925	2754.8136	1866.25	984.9
1002.0458	2756.0165	1864.05	983.2
1002.1665	2757.2188	1858.1	976.65
1002.2872	2758.4204	1848.35	968.15
1002.4078	2759.6213	1852.85	968.15
1002.5285	2760.8215	1849.2	965.05
1002.649	2762.0211	1845.4	961.8
1002.7696	2763.22	1838.55	954.3
1002.8901	2764.4182	1840.7	958.9
1003.0106	2765.6158	1824.6	944.2
1003.131	2766.8127	1829.5	948
1003.2514	2768.009	1815.6	934.25
1003.3717	2769.2045	1815.1	932.2
1003.492	2770.3994	1816.2	935.55
1003.6123	2771.5936	1802	919
1003.7325	2772.7872	1801.55	920.7
1003.8527	2773.9801	1808.25	924.3
1003.9729	2775.1723	1809.45	910.4
1004.093	2776.3639	1790	908.1
1004.2131	2777.5548	1788.5	906.1
1004.3331	2778.745	1787.3	902.8
1004.4531	2779.9346	1785.75	905.1
1004.5731	2781.1235	1780.85	899.15
1004.693	2782.3117	1768.4	888.35
1004.8129	2783.4992	1768.3	887.2
1004.9328	2784.6861	1772.8	893.15
1005.0526	2785.8723	1763.5	880.75
1005.1723	2787.0579	1758.75	876
1005.2921	2788.2428	1757.85	878.25
1005.4118	2789.427	1743.05	863.95
1005.5314	2790.6106	1748.1	866.6
1005.651	2791.7935	1745.4	864.65
1005.7706	2792.9757	1741.3	860.45
1005.8902	2794.1573	1740.65	858.75
1006.0097	2795.3382	1736.5	857.2
1006.1291	2796.5184	1725.35	845.45
1006.2485	2797.698	1729.65	846.8
1006.3679	2798.8769	1718.8	836.4
1006.4873	2800.0551	1713.25	832.3
1006.6066	2801.2327	1706.1	823.25
1006.7258	2802.4096	1712.95	832.85
1006.8451	2803.5859	1712	830.85
1006.9642	2804.7615	1705.15	823.35
1007.0834	2805.9364	1700.9	821.85
1007.2025	2807.1106	1687.7	808.1
1007.3216	2808.2842	1698.6	817
1007.4406	2809.4572	1692.2	811.3
1007.5596	2810.6294	1693.5	812.5
1007.6785	2811.801	1690.8	812.65
1007.7975	2812.972	1678.2	797.5
1007.9163	2814.1423	1686.55	804.45
1008.0352	2815.3119	1683.05	801.55
1008.154	2816.4808	1690.35	809.8
1008.2727	2817.6491	1682.85	802.25
1008.3914	2818.8167	1684.85	805.35
1008.5101	2819.9837	1697.7	812.25
1008.6288	2821.15	1684.15	805.1
1008.7474	2822.3157	1693.8	814.2
1008.8659	2823.4807	1685	803.85
1008.9844	2824.645	1696.1	814
1009.1029	2825.8086	1709.4	826.95
1009.2214	2826.9716	1701.2	822.95
1009.3398	2828.134	1713.35	832.15
1009.4581	2829.2957	1716.7	836.6
1009.5764	2830.4567	1715.65	835.9
1009.6947	2831.617	1720.05	839.3
1009.813	2832.7767	1716.65	836.75
1009.9312	2833.9358	1724	843.95
1010.0493	2835.0941	1710.55	828.5
1010.1675	2836.2519	1716.15	834.7
1010.2855	2837.4089	1708.95	828.25
1010.4036	2838.5653	1695.75	814
1010.5216	2839.7211	1698.15	820.1
1010.6396	2840.8761	1686.4	803.1
1010.7575	2842.0306	1685.95	809.15
1010.8754	2843.1843	1684.55	803.5
1010.9932	2844.3374	1691.8	811.9
1011.111	2845.4899	1673.75	791.25
1011.2288	2846.6417	1685.7	806
1011.3465	2847.7928	1679.7	800.4
1011.4642	2848.9433	1678.4	797
1011.5818	2850.0931	1681.15	801.7
1011.6995	2851.2422	1677.05	794.4
1011.817	2852.3907	1670.35	788.8
1011.9345	2853.5385	1679.55	797.7
1012.052	2854.6857	1685.45	794.5
1012.1695	2855.8323	1666.7	785.95
1012.2869	2856.9781	1678.7	799.3
1012.4042	2858.1233	1670.55	790.2
1012.5216	2859.2679	1666.9	787.3
1012.6389	2860.4118	1664.65	783.15
1012.7561	2861.555	1681.85	796.4
1012.8733	2862.6976	1669.95	789.45
1012.9905	2863.8395	1670.25	789.45
1013.1076	2864.9808	1676.05	795.85
1013.2247	2866.1214	1666.35	789.05
1013.3417	2867.2614	1660.45	780.3
1013.4587	2868.4007	1668.1	786.95
1013.5757	2869.5393	1661.1	778.45
1013.6926	2870.6773	1668.25	785.3
1013.8095	2871.8146	1669.75	785.4
1013.9263	2872.9513	1662.45	779.5
1014.0431	2874.0874	1658.25	778.1
1014.1599	2875.2227	1663.5	781.8
1014.2766	2876.3574	1656.5	776
1014.3933	2877.4915	1650.85	770.75
1014.51	2878.6249	1654.4	773.8
1014.6266	2879.7577	1652.6	771.6
1014.7431	2880.8898	1667.85	776.4
1014.8596	2882.0212	1650.05	770.2
1014.9761	2883.152	1656.55	776.5
1015.0925	2884.2821	1645.6	766.7
1015.2089	2885.4116	1641.9	762.4
1015.3253	2886.5405	1648.6	767.85
1015.4416	2887.6686	1647.15	764.4
1015.5579	2888.7962	1637.4	759.05
1015.6741	2889.923	1635.55	754.1
1015.7903	2891.0493	1629	749.1
1015.9065	2892.1748	1629.75	748.4
1016.0226	2893.2997	1623.25	742.9
1016.1387	2894.424	1626.75	745.7
1016.2547	2895.5476	1621.6	741.7
1016.3707	2896.6706	1621.65	742.9
1016.4866	2897.7929	1618.8	738.6
1016.6025	2898.9145	1614.95	731.45
1016.7184	2900.0355	1611.35	729.75
1016.8342	2901.1559	1616.1	736.65
1016.95	2902.2756	1618.4	738.15
1017.0658	2903.3946	1602.7	723.45
1017.1815	2904.513	1603.85	720
1017.2971	2905.6308	1589.15	709.35
1017.4127	2906.7479	1593.2	711.45
1017.5283	2907.8643	1591.1	710.55
1017.6439	2908.9801	1591	709.75
1017.7594	2910.0953	1588.55	708.6
1017.8748	2911.2098	1585.45	702.3
1017.9902	2912.3236	1584.85	698.15
1018.1056	2913.4368	1573.8	690.05
1018.2209	2914.5494	1586.55	705.4
1018.3362	2915.6613	1584.95	698.9
1018.4515	2916.7725	1570.95	687.35
1018.5667	2917.8831	1561.6	680.45
1018.6819	2918.9931	1559.8	677.35
1018.797	2920.1024	1551.35	668.8
1018.9121	2921.211	1553.3	673.6
1019.0271	2922.319	1544.2	663.4
1019.1421	2923.4264	1535.95	655.45
1019.2571	2924.5331	1536.8	657.9
1019.372	2925.6391	1542.05	661.15
1019.4869	2926.7445	1528.8	649.1
1019.6017	2927.8493	1528.95	648.75
1019.7165	2928.9534	1532.15	650.25
1019.8313	2930.0569	1534.1	652.85
1019.946	2931.1597	1538.35	656.3
1020.0606	2932.2619	1532.95	652.9
1020.1753	2933.3634	1529.2	648.35
1020.2899	2934.4643	1532.3	644.35
1020.4044	2935.5645	1532.1	646.45
1020.5189	2936.6641	1534.3	649.5
1020.6334	2937.763	1537.1	657.75
1020.7478	2938.8613	1525.8	643.95
1020.8622	2939.959	1527.4	640.35
1020.9765	2941.056	1513.8	635.45
1021.0908	2942.1523	1509.4	626.25
1021.2051	2943.248	1501.45	620.35
1021.3193	2944.3431	1490.15	610
1021.4334	2945.4375	1477.95	596.8
1021.5476	2946.5313	1463.7	585
1021.6617	2947.6244	1459.75	579.3
1021.7757	2948.7169	1448.55	567.9
1021.8897	2949.8087	1437.25	557.7
1022.0037	2950.8999	1437.85	555.75
1022.1176	2951.9904	1431.85	553.85
1022.2315	2953.0803	1421.1	539.15
1022.3453	2954.1696	1415.7	534.7
1022.4591	2955.2582	1404.35	524.55
1022.5728	2956.3462	1406.7	525.35
1022.6865	2957.4335	1403.7	522.7
1022.8002	2958.5202	1398.75	515.9
1022.9138	2959.6062	1397.4	516.9
1023.0274	2960.6916	1390.1	510.95
1023.141	2961.7764	1386.4	505.55
1023.2545	2962.8605	1390.8	508.3
1023.3679	2963.9439	1381.45	503.8
1023.4813	2965.0267	1387.2	506.05
1023.5947	2966.1089	1405.55	502.6
1023.708	2967.1905	1378.5	497.65
1023.8213	2968.2714	1374.9	495.65
1023.9346	2969.3516	1375.05	493.65
1024.0478	2970.4312	1383.15	495.9
1024.1609	2971.5102	1368.55	489.15
1024.274	2972.5885	1362.3	481.85
1024.3871	2973.6662	1369.9	484.05
1024.5002	2974.7432	1364.05	486.45
1024.6132	2975.8196	1365.15	484.05
1024.7261	2976.8954	1351.8	471.35
1024.839	2977.9705	1356.1	474.35
1024.9519	2979.045	1354.3	475.3
1025.0647	2980.1188	1349.4	470.25
1025.1775	2981.192	1346.25	467.35
1025.2902	2982.2645	1346.15	464.1
1025.4029	2983.3364	1348.45	467.7
1025.5156	2984.4077	1341.15	462.05
1025.6282	2985.4783	1339.25	454.05
1025.7407	2986.5483	1328.1	448.5
1025.8532	2987.6177	1327.55	447.95
1025.9657	2988.6864	1328.45	446.8
1026.0782	2989.7545	1327.7	445.25
1026.1906	2990.8219	1315.35	437.15
1026.3029	2991.8887	1317.15	432.45
1026.4152	2992.9548	1314.45	434.5
1026.5275	2994.0204	1300.6	422.65
1026.6397	2995.0852	1304.85	426.4
1026.7519	2996.1495	1291.9	412.45
1026.864	2997.2131	1293.1	413.1
1026.9761	2998.276	1286.85	408.55
1027.0882	2999.3383	1287.75	407.7
1027.2002	3000.4	1283.5	402.6
1027.3122	3001.4611	1275.1	396.5
1027.4241	3002.5215	1278.4	398.75
1027.536	3003.5812	1273.9	393.05
1027.6478	3004.6404	1274.2	394.3
1027.7596	3005.6989	1269.35	387.75
1027.8714	3006.7567	1263.5	386.75
1027.9831	3007.8139	1280.4	378
1028.0947	3008.8705	1254.45	374.95
1028.2064	3009.9264	1265	381.05
1028.3179	3010.9818	1259.75	379.05
1028.4295	3012.0364	1253.4	373.25
1028.541	3013.0905	1247.05	365.6
1028.6524	3014.1439	1253.25	373.55
1028.7638	3015.1966	1253.25	374.7
1028.8752	3016.2487	1251.15	372.6
1028.9865	3017.3002	1252.15	364.35
1029.0978	3018.3511	1241.55	361.4
1029.209	3019.4013	1243.55	362
1029.3202	3020.4509	1241.85	364.4
1029.4314	3021.4998	1244.5	362
1029.5425	3022.5481	1244.1	364.2
1029.6535	3023.5958	1233.55	353.5
1029.7645	3024.6428	1239.9	355.65
1029.8755	3025.6892	1230.3	351.5
1029.9864	3026.735	1232	352.2
1030.0973	3027.7802	1228	348.7
1030.2082	3028.8247	1226.7	347.2
1030.319	3029.8685	1227.75	345.65
1030.4297	3030.9118	1229.15	348.75
1030.5404	3031.9544	1218.95	338.6
1030.6511	3032.9963	1224.55	344.3
1030.7617	3034.0376	1219	339.65
1030.8723	3035.0783	1220.2	338.05
1030.9829	3036.1184	1222.65	340
1031.0934	3037.1578	1214.6	335.35
1031.2038	3038.1966	1210.85	330.6
1031.3142	3039.2348	1210.75	332.9
1031.4246	3040.2723	1217.85	327
1031.5349	3041.3092	1216.35	338.1
1031.6452	3042.3455	1209.75	329.05
1031.7554	3043.3811	1207.8	327.2
1031.8656	3044.4161	1211.35	332.15
1031.9758	3045.4505	1205.1	325.6
1032.0859	3046.4842	1206.2	325.9
1032.1959	3047.5173	1204.2	324.35
1032.3059	3048.5498	1205.15	323.4
1032.4159	3049.5816	1202.75	322.6
1032.5258	3050.6128	1203.8	321.8
1032.6357	3051.6434	1200.3	318
1032.7455	3052.6734	1199.8	317.9
1032.8553	3053.7027	1190.45	310.45
1032.9651	3054.7314	1197.45	318.9
1033.0748	3055.7594	1198.5	319.25
1033.1845	3056.7868	1196.85	317.3
1033.2941	3057.8136	1193.15	313
1033.4037	3058.8398	1185.95	305.85
1033.5132	3059.8653	1192.5	310.9
1033.6227	3060.8902	1188.9	308.8
1033.7321	3061.9145	1186.7	307.8
1033.8415	3062.9381	1182.75	302.3
1033.9509	3063.9612	1203.05	308
1034.0602	3064.9835	1186.4	304.9
1034.1694	3066.0053	1185	302.2
1034.2787	3067.0264	1178.8	299.35
1034.3878	3068.0469	1176.6	294.5
1034.497	3069.0668	1181.25	297.4
1034.6061	3070.086	1173.55	294.25
1034.7151	3071.1046	1180.15	300.8
1034.8241	3072.1226	1173.7	291.95
1034.9331	3073.1399	1175.55	294.6
1035.042	3074.1567	1170.85	291.8
1035.1508	3075.1727	1170.1	286.5
1035.2597	3076.1882	1169.3	289.65
1035.3684	3077.203	1167.1	286.45
1035.4772	3078.2173	1167.45	287.65
1035.5859	3079.2308	1174.2	292.05
1035.6945	3080.2438	1165.3	285
1035.8031	3081.2561	1159.7	281.45
1035.9117	3082.2678	1163.75	284.2
1036.0202	3083.2789	1157.85	277.75
1036.1286	3084.2893	1156.8	276.45
1036.2371	3085.2991	1154.95	275.85
1036.3454	3086.3083	1154.85	270.9
1036.4538	3087.3169	1152.3	271.45
1036.562	3088.3248	1153.85	272.7
1036.6703	3089.3321	1153.4	272.55
1036.7785	3090.3388	1143.5	264
1036.8866	3091.3449	1149.65	268.65
1036.9948	3092.3503	1147.65	264.1
1037.1028	3093.3551	1146.05	267.65
1037.2108	3094.3593	1138.35	259.9
1037.3188	3095.3629	1137.7	259.2
1037.4267	3096.3658	1147.6	266.65
1037.5346	3097.3681	1134.3	254.85
1037.6425	3098.3698	1138.95	258.1
1037.7503	3099.3708	1141.8	255.8
1037.858	3100.3713	1135.5	257.3
1037.9657	3101.3711	1140.6	259.5
1038.0734	3102.3702	1264.05	246.2
1038.181	3103.3688	1137.95	255.1
1038.2886	3104.3667	1126.8	250.2
1038.3961	3105.364	1124.8	244.25
1038.5036	3106.3607	1122.85	243.35
1038.611	3107.3568	1126.2	246.3
1038.7184	3108.3522	1115.8	239.4
1038.8257	3109.347	1120.45	239.5
1038.933	3110.3412	1124.85	239.75
1039.0403	3111.3348	1119.3	239.3
1039.1475	3112.3277	1115.35	235
1039.2547	3113.32	1113.8	235.7
1039.3618	3114.3117	1117.3	236.1
1039.4689	3115.3028	1114.25	235.65
1039.5759	3116.2932	1115.75	233.8
1039.6829	3117.2831	1113.2	227.15
1039.7898	3118.2723	1107.4	227.95
1039.8967	3119.2608	1102.8	222.45
1040.0035	3120.2488	1105.45	225.15
1040.1103	3121.2361	1107.9	227.15
1040.2171	3122.2229	1102.4	221.3
1040.3238	3123.209	1100.3	220.05
1040.4305	3124.1944	1101.05	221.35
1040.5371	3125.1793	1101	219.9
1040.6437	3126.1635	1100.05	220.45
1040.7502	3127.1471	1100.55	220.55
1040.8567	3128.1301	1097.8	218.2
1040.9631	3129.1125	1095.45	215.95
1041.0695	3130.0942	1093.8	214.25
1041.1759	3131.0753	1103.25	214.5
1041.2822	3132.0558	1092.95	210.9
1041.3884	3133.0357	1087.4	204.3
1041.4946	3134.015	1095.75	215.95
1041.6008	3134.9936	1090.4	206.75
1041.7069	3135.9716	1113.75	212.15
1041.813	3136.949	1087.9	207.45
1041.919	3137.9258	1091.4	205.3
1042.025	3138.902	1092.1	205.2
1042.1309	3139.8775	1080.95	202.4
1042.2368	3140.8524	1081	201.3
1042.3427	3141.8267	1081.7	199.55
1042.4485	3142.8004	1078.05	197.4
1042.5542	3143.7735	1085.1	198.05
1042.6599	3144.7459	1081.4	199.5
1042.7656	3145.7178	1085.7	204.75
1042.8712	3146.689	1080.95	201.55
1042.9768	3147.6596	1073.45	191.8
1043.0823	3148.6295	1082.6	202.9
1043.1878	3149.5989	1076.1	196.75
1043.2932	3150.5676	1074.6	196.5
1043.3986	3151.5357	1073.9	195.95
1043.5039	3152.5032	1071.55	193
1043.6092	3153.4701	1071.85	193.25
1043.7145	3154.4364	1075.1	191.85
1043.8197	3155.402	1063.55	186.5
1043.9248	3156.367	1069.8	188.55
1044.03	3157.3315	1107.3	191
1044.135	3158.2952	1066.7	190
1044.24	3159.2584	1068.6	187.8
1044.345	3160.221	1063.5	183.75
1044.4499	3161.1829	1064.15	183.7
1044.5548	3162.1442	1060	179.85
1044.6596	3163.105	1060.5	180.35
1044.7644	3164.065	1056.35	175.35
1044.8692	3165.0245	1059.7	178.6
1044.9739	3165.9834	1060.85	181.9
1045.0785	3166.9416	1059.6	181.15
1045.1831	3167.8993	1059.45	178.9
1045.2877	3168.8563	1057.85	177.75
1045.3922	3169.8127	1051.85	171.8
1045.4966	3170.7684	1053.4	173.75
1045.6011	3171.7236	1053.1	169.7
1045.7054	3172.6782	1052.1	172.1
1045.8098	3173.6321	1050.8	170.9
1045.914	3174.5854	1054.55	171.35
1046.0183	3175.5381	1047.6	169.15
1046.1224	3176.4902	1048.35	170.15
1046.2266	3177.4417	1044.4	165.9
1046.3307	3178.3926	1045.95	167.3
1046.4347	3179.3428	1043.9	166.8
1046.5387	3180.2924	1043.7	163.85
1046.6427	3181.2415	1042.2	162.4
1046.7466	3182.1899	1039.3	158.85
1046.8504	3183.1377	1040.8	159.6
1046.9542	3184.0848	1043.05	159.3
1047.058	3185.0314	1039.45	159.95
1047.1617	3185.9773	1039.1	155.8
1047.2654	3186.9227	1037.9	158.6
1047.369	3187.8674	1037.2	155.75
1047.4726	3188.8115	1042.3	158.35
1047.5761	3189.755	1034.4	153.65
1047.6796	3190.6979	1034.4	154.9
1047.783	3191.6402	1029.25	150.05
1047.8864	3192.5818	1033.45	153.5
1047.9898	3193.5229	1032.25	146.05
1048.0931	3194.4633	1035.15	156.2
1048.1963	3195.4031	1028.25	150.45
1048.2995	3196.3423	1029.6	150.75
1048.4027	3197.2809	1027.05	146.05
1048.5058	3198.2189	1029.55	148.75
1048.6089	3199.1563	1034.4	147.9
1048.7119	3200.0931	1026.95	149.05
1048.8148	3201.0292	1024.9	145.35
1048.9178	3201.9648	1026.3	146.95
1049.0206	3202.8997	1027.75	146.05
1049.1235	3203.834	1023.7	144.15
1049.2262	3204.7677	1021.1	142.7
1049.329	3205.7008	1022.25	141.6
1049.4317	3206.6333	1019.05	140.6
1049.5343	3207.5652	1021.05	138.95
1049.6369	3208.4964	1021.9	143.8
1049.7394	3209.4271	1020.6	139.5
1049.8419	3210.3571	1015.15	137.45
1049.9444	3211.2865	1021.55	141.75
1050.0468	3212.2154	1018.6	137.7
1050.1491	3213.1436	1018.4	136.6
1050.2514	3214.0712	1020.9	134.55
1050.3537	3214.9982	1012.2	133.5
1050.4559	3215.9246	1017.7	137.8
1050.5581	3216.8503	1017.2	137.85
1050.6602	3217.7755	1012.3	132.45
1050.7623	3218.7001	1011.35	130.25
1050.8643	3219.624	1015.3	136.7
1050.9663	3220.5473	1012.6	131.4
1051.0682	3221.4701	1007.45	127.2
1051.1701	3222.3922	1009.8	128.75
1051.2719	3223.3137	1010.65	130.75
1051.3737	3224.2346	1006.25	128.15
1051.4754	3225.1549	1006.85	128
1051.5771	3226.0746	1007.85	129.15
1051.6788	3226.9937	1004.15	124.2
1051.7804	3227.9121	1004.7	125.55
1051.8819	3228.83	1004.65	126.15
1051.9834	3229.7473	1008	128.55
1052.0849	3230.6639	1001.05	121.2
1052.1863	3231.5799	1005.15	128.4
1052.2876	3232.4954	1001.65	119.65
1052.3889	3233.4102	998	118.15
1052.4902	3234.3244	999.8	119.15
1052.5914	3235.238	998.15	117.75
1052.6926	3236.151	1023.5	118.85
1052.7937	3237.0634	997.1	119.5
1052.8948	3237.9752	996.7	117.9
1052.9958	3238.8864	997.95	116.5
1053.0968	3239.797	994.75	113.6
1053.1977	3240.7069	995.9	116.15
1053.2986	3241.6163	998.4	117.25
1053.3994	3242.5251	993.15	113.9
1053.5002	3243.4332	994.05	115.25
1053.6009	3244.3408	995	112.45
1053.7016	3245.2477	991.45	111.4
1053.8022	3246.154	993.5	113.25
1053.9028	3247.0598	992.1	111.5
1054.0034	3247.9649	992.15	113.55
1054.1039	3248.8694	989.15	108.35
1054.2043	3249.7733	991.9	112.1
1054.3047	3250.6766	991.75	113.25
1054.4051	3251.5793	987.8	105.4
1054.5054	3252.4814	983.45	105.45
1054.6056	3253.3829	988.15	106.15
1054.7058	3254.2838	986.15	106.45
1054.806	3255.1841	982.5	102.4
1054.9061	3256.0838	980.8	100.65
1055.0061	3256.9829	981.4	103.5
1055.1062	3257.8814	982.45	100.4
1055.2061	3258.7792	981	99.3
1055.306	3259.6765	976.65	96.95
1055.4059	3260.5731	981.35	102.85
1055.5057	3261.4692	975.05	94.95
1055.6055	3262.3647	978.7	97.55
1055.7052	3263.2595	976.65	97.85
1055.8049	3264.1538	976.55	95.8
1055.9045	3265.0474	972.6	91.65
1056.0041	3265.9404	971.6	93.55
1056.1036	3266.8329	966.8	85.9
1056.2031	3267.7247	978	89.3
1056.3025	3268.616	963.4	85.75
1056.4019	3269.5066	961.65	78.8
1056.5013	3270.3966	958.6	77.85
1056.6005	3271.286	957.05	76.95
