Software Version:	3.9.2.0
Unit SN:	10000200
Spectrometer SN:	6960
Date:	3/6/2024 10:48:44 AM
Data Line Index:	25
Spectral Points:	2048
Integration time (ms):	125
Averages:	20
Delay (ms):	30
Sequence Number:	1
Processing:	dark subtract
Laser Power (mW):	305
Laser Current (mA):	822
Laser Diode Temp (C):	25
Laser Case Temp (C):	27.4
System Temp (C):	27.3
Spectrometer Temp (C):	24.7
CCD Temp (C):	0.005
Secondary Temp (C):	20.01
Heatsink Temp (C):	23.073
CCDPCB Temp (C):	36.774
SecondaryPCB Temp (C):	33.895

Wavelength	RamanShift	Raw Counts	Dark Subtracted
787.061	30.1047	1155.55	743.85
787.2016	32.3739	1198.1	789.2
787.3422	34.6426	1236.1	825.2
787.4828	36.9109	1285.75	873.6
787.6235	39.1787	1355.7	939.35
787.7642	41.4461	1416.65	994.7
787.9049	43.7131	1489.05	1061.45
788.0456	45.9796	1554.45	1125.5
788.1863	48.2456	1628.55	1195.6
788.3271	50.5112	1701.4	1263
788.4679	52.7764	1772.1	1332.5
788.6087	55.0411	1851.3	1407.4
788.7496	57.3054	1937.3	1487.7
788.8904	59.5692	2042.55	1591.15
789.0313	61.8326	2135.3	1678.75
789.1722	64.0955	2257.25	1799.25
789.3132	66.3579	2401.2	1937.1
789.4541	68.6199	2570.2	2105.35
789.5951	70.8815	2806.5	2338.6
789.7361	73.1426	3354.3	2879.95
789.8771	75.4032	4719.4	4241.35
790.0181	77.6634	8178.2	7694.35
790.1592	79.9231	17473.05	16985.2
790.3003	82.1824	57429.65	56931.1
790.4414	84.4412	65535	65020.1
790.5825	86.6995	65535	64996.45
790.7237	88.9574	65535	64976.8
790.8648	91.2148	65535	64960.15
791.006	93.4717	65535	64948.5
791.1472	95.7282	65535	64941.55
791.2885	97.9842	65535	64940.5
791.4297	100.2398	65535	64939
791.571	102.4949	65535	64936.1
791.7123	104.7495	65535	64929.9
791.8536	107.0036	65535	64927.9
791.9949	109.2573	65535	64933.9
792.1363	111.5105	65535	64931.4
792.2777	113.7632	65535	64924.3
792.4191	116.0154	65535	64918.75
792.5605	118.2672	65535	64925.85
792.7019	120.5185	65535	64922.85
792.8434	122.7693	65535	64923.4
792.9849	125.0197	65535	64919.65
793.1264	127.2696	65535	64913.95
793.2679	129.519	65535	64913.5
793.4094	131.7679	65535	64909.5
793.551	134.0163	65535	64908.1
793.6926	136.2642	65535	64895.95
793.8342	138.5117	65535	64890.75
793.9758	140.7587	65535	64894.75
794.1175	143.0052	65535	64898.05
794.2591	145.2512	65535	64892.55
794.4008	147.4967	65535	64893.5
794.5425	149.7417	65535	64891.05
794.6842	151.9863	65535	64886.5
794.826	154.2304	65535	64882.45
794.9677	156.4739	65535	64874.2
795.1095	158.717	65535	64880.95
795.2513	160.9596	65535	64871.6
795.3931	163.2017	65535	64870.85
795.535	165.4433	65535	64867.4
795.6768	167.6844	65535	64866.6
795.8187	169.925	65535	64862.25
795.9606	172.1651	65535	64859.15
796.1025	174.4047	65535	64854.5
796.2445	176.6439	65535	64857.4
796.3864	178.8825	65535	64851.7
796.5284	181.1206	65535	64850.6
796.6704	183.3582	65535	64846.95
796.8124	185.5954	65535	64843.2
796.9544	187.832	65535	64840.35
797.0965	190.0681	65535	64842.45
797.2386	192.3037	65535	64834.25
797.3806	194.5388	65535	64830.15
797.5228	196.7734	65535	64829.55
797.6649	199.0075	65535	64828.15
797.807	201.2411	65535	64823.4
797.9492	203.4742	65535	64822.1
798.0914	205.7068	65535	64823.2
798.2336	207.9389	65535	64819.4
798.3758	210.1704	65535	64813.85
798.518	212.4015	65535	64816.7
798.6603	214.632	65535	64823.75
798.8025	216.862	65535	64832.8
798.9448	219.0915	65535	64837.85
799.0871	221.3205	65535	64834.95
799.2294	223.549	65535	64840.55
799.3718	225.777	65535	64837.85
799.5141	228.0044	65535	64837.15
799.6565	230.2314	65535	64836.8
799.7989	232.4578	65535	64835.45
799.9413	234.6837	65535	64824.6
800.0837	236.909	65535	64822.6
800.2262	239.1339	65535	64802.8
800.3687	241.3582	65535	64814.6
800.5111	243.582	65535	64780.55
800.6536	245.8053	65535	64797.2
800.7961	248.0281	65535	64800
800.9387	250.2503	65535	64795.5
801.0812	252.472	65535	64791.35
801.2238	254.6932	65535	64790.65
801.3664	256.9139	65535	64788.55
801.509	259.134	65535	64785.65
801.6516	261.3536	65535	64786.4
801.7942	263.5727	65535	64785.95
801.9369	265.7912	65535	64786.95
802.0795	268.0092	65535	64786
802.2222	270.2267	65535	64781.4
802.3649	272.4436	65535	64784.6
802.5076	274.6601	65535	64777
802.6504	276.8759	65535	64776.65
802.7931	279.0913	65535	64777.55
802.9359	281.3061	65535	64778.2
803.0787	283.5204	65535	64775.35
803.2215	285.7341	65535	64769.7
803.3643	287.9473	65535	64756.75
803.5071	290.16	65535	64762.9
803.6499	292.3721	65535	64769.35
803.7928	294.5837	65535	64768.95
803.9357	296.7947	65535	64766.8
804.0786	299.0052	65535	64769
804.2215	301.2152	65535	64766.6
804.3644	303.4246	65535	64773.3
804.5074	305.6334	65535	64770.3
804.6503	307.8418	65535	64762.85
804.7933	310.0495	65535	64765.65
804.9363	312.2568	65535	64763.9
805.0793	314.4635	65535	64760.9
805.2223	316.6696	65535	64758.55
805.3653	318.8752	65535	64753.5
805.5084	321.0802	65535	64759.85
805.6514	323.2847	65535	64753.8
805.7945	325.4887	65535	64756.1
805.9376	327.692	65535	64756.4
806.0807	329.8949	65535	64753.7
806.2238	332.0972	65535	64755.15
806.367	334.2989	65535	64746.45
806.5101	336.5001	65535	64748.9
806.6533	338.7007	65535	64749.95
806.7965	340.9008	65535	64744.7
806.9397	343.1003	65535	64747.85
807.0829	345.2992	65535	64745.1
807.2261	347.4976	65535	64743.2
807.3693	349.6955	65535	64738.4
807.5126	351.8927	65535	64739.35
807.6559	354.0895	65535	64728.7
807.7991	356.2856	65535	64738.15
807.9424	358.4812	65535	64739.85
808.0857	360.6763	65535	64734.9
808.2291	362.8707	65535	64736.25
808.3724	365.0646	65535	64731.15
808.5158	367.258	65535	64733.5
808.6591	369.4508	65535	64728.7
808.8025	371.643	65535	64729.05
808.9459	373.8346	65535	64723.9
809.0893	376.0257	65535	64721.3
809.2327	378.2162	65535	64723.5
809.3762	380.4062	65535	64719.45
809.5196	382.5956	65535	64716.7
809.6631	384.7844	65535	64719.4
809.8066	386.9726	65535	64719.95
809.9501	389.1603	65535	64722.55
810.0936	391.3474	65535	64681.05
810.2371	393.5339	65535	64722.3
810.3806	395.7199	65535	64728.3
810.5241	397.9052	65535	64728.25
810.6677	400.09	65535	64725.5
810.8113	402.2743	65535	64728.9
810.9548	404.4579	65535	64726
811.0984	406.641	65535	64727.4
811.2421	408.8235	65535	64725.4
811.3857	411.0054	65535	64723.55
811.5293	413.1868	65535	64720.65
811.673	415.3675	65535	64716.6
811.8166	417.5477	65535	64716.5
811.9603	419.7273	65535	64717.5
812.104	421.9064	65535	64711.75
812.2477	424.0848	65535	64714
812.3914	426.2627	65535	64709.55
812.5351	428.4399	65535	64711.85
812.6788	430.6166	65535	64707.15
812.8226	432.7928	65535	64702
812.9663	434.9683	65535	64704.95
813.1101	437.1432	65535	64700.3
813.2539	439.3176	65535	64702.5
813.3977	441.4914	65535	64703.85
813.5415	443.6645	65535	64702.95
813.6853	445.8371	65535	64703.35
813.8291	448.0091	65535	64703.55
813.973	450.1806	65535	64704.85
814.1168	452.3514	65535	64697.65
814.2607	454.5216	65535	64690.55
814.4046	456.6913	65535	64697.8
814.5485	458.8603	65535	64696.1
814.6924	461.0288	65535	64700.65
814.8363	463.1967	65535	64697.45
814.9802	465.3639	65535	64697.1
815.1241	467.5306	65535	64698.4
815.2681	469.6967	65535	64695.15
815.412	471.8622	65535	64698.5
815.556	474.0271	65535	64697.1
815.7	476.1914	65535	64693.85
815.844	478.3551	65535	64699.2
815.988	480.5182	65535	64691.35
816.132	482.6807	65535	64694.7
816.276	484.8426	65535	64697.1
816.4201	487.0039	65535	64696
816.5641	489.1647	65535	64692.5
816.7082	491.3248	65535	64691.35
816.8522	493.4843	65535	64692.9
816.9963	495.6432	65535	64691.9
817.1404	497.8015	65535	64689.45
817.2845	499.9592	65535	64688.8
817.4286	502.1163	65535	64687.1
817.5727	504.2728	65535	64690.95
817.7168	506.4287	65535	64688.25
817.861	508.5839	65535	64689.7
818.0051	510.7386	65535	64689.35
818.1493	512.8927	65535	64682.55
818.2935	515.0461	65535	64684.1
818.4377	517.199	65535	64687.2
818.5818	519.3512	65535	64685.35
818.726	521.5029	65535	64679.6
818.8703	523.6539	65535	64681.8
819.0145	525.8043	65535	64681.75
819.1587	527.9541	65535	64680.95
819.303	530.1033	65535	64682.6
819.4472	532.2519	65535	64681.05
819.5915	534.3999	65535	64678.15
819.7357	536.5472	65535	64682.25
819.88	538.694	65535	64681.8
820.0243	540.8401	65535	64678.8
820.1686	542.9856	65535	64678.55
820.3129	545.1305	65535	64676.35
820.4572	547.2748	65535	64675.25
820.6016	549.4185	65535	64676.05
820.7459	551.5615	65535	64676.25
820.8902	553.704	65535	64675.8
821.0346	555.8458	65535	64678.5
821.1789	557.987	65535	64677.45
821.3233	560.1276	65535	64674.1
821.4677	562.2675	65535	64677.15
821.6121	564.4069	65535	64677.75
821.7565	566.5456	65535	64676.65
821.9009	568.6837	65535	64676.05
822.0453	570.8212	65535	64680.1
822.1897	572.958	65535	64675.45
822.3342	575.0942	65535	64677.7
822.4786	577.2299	65535	64675.65
822.6231	579.3648	65535	64676.25
822.7675	581.4992	65535	64680.3
822.912	583.6329	65535	64678
823.0565	585.766	65535	64676.95
823.201	587.8985	65535	64674.9
823.3454	590.0304	65535	64652.55
823.4899	592.1616	65535	64671.7
823.6345	594.2922	65535	64670.6
823.779	596.4222	65535	64667.55
823.9235	598.5515	65535	64667.2
824.068	600.6802	65535	64671.2
824.2126	602.8083	65535	64669.9
824.3571	604.9358	65535	64669.8
824.5017	607.0626	65535	64667.9
824.6462	609.1888	65535	64667.05
824.7908	611.3144	65535	64668.3
824.9354	613.4393	65535	64665.65
825.08	615.5636	65535	64665.85
825.2246	617.6873	65535	64667.1
825.3692	619.8103	65535	64665.35
825.5138	621.9327	65535	64665.15
825.6584	624.0544	65535	64668.3
825.803	626.1756	65535	64665.35
825.9477	628.2961	65535	64666.85
826.0923	630.4159	65535	64666.1
826.237	632.5351	65535	64663.9
826.3816	634.6537	65535	64664.9
826.5263	636.7716	65535	64663.5
826.6709	638.8889	65535	64665.55
826.8156	641.0056	65535	64663
826.9603	643.1216	65535	64661.25
827.105	645.237	65535	64661.95
827.2497	647.3518	65535	64662.1
827.3944	649.4659	65535	64663.75
827.5391	651.5793	65535	64665.3
827.6838	653.6922	65535	64661.4
827.8285	655.8043	65535	64665.3
827.9733	657.9159	65535	64662.85
828.118	660.0268	65535	64660.3
828.2627	662.137	65535	64661.1
828.4075	664.2466	65535	64656.75
828.5522	666.3556	65535	64660.45
828.697	668.4639	65535	64657.7
828.8418	670.5716	65535	64659.95
828.9865	672.6786	65535	64657.95
829.1313	674.785	65535	64656.6
829.2761	676.8907	65535	64658.3
829.4209	678.9958	65535	64659.95
829.5657	681.1002	65535	64655.45
829.7105	683.204	65535	64657.5
829.8553	685.3072	65535	64657.55
830.0001	687.4097	65535	64657.7
830.1449	689.5115	65535	64656.1
830.2898	691.6127	65535	64656.15
830.4346	693.7132	65535	64654.75
830.5794	695.8131	65535	64640.6
830.7243	697.9123	65535	64656
830.8691	700.0109	65535	64655.1
831.014	702.1089	65535	64654.9
831.1588	704.2061	65535	64654.1
831.3037	706.3028	65535	64653.05
831.4486	708.3987	65535	64654.6
831.5935	710.4941	65535	64655.2
831.7383	712.5887	65535	64653.3
831.8832	714.6827	65535	64651.65
832.0281	716.7761	65535	64654.55
832.173	718.8688	65535	64652.75
832.3179	720.9608	65535	64648.15
832.4628	723.0522	65535	64649
832.6077	725.1429	65535	64651.9
832.7527	727.233	65535	64651.3
832.8976	729.3224	65535	64651.25
833.0425	731.4112	65535	64650.75
833.1874	733.4993	65535	64650.9
833.3324	735.5867	65535	64651.65
833.4773	737.6735	65535	64648.15
833.6222	739.7596	65535	64652.2
833.7672	741.845	65535	64649.95
833.9122	743.9298	65535	64649.5
834.0571	746.014	65535	64649.3
834.2021	748.0974	65535	64649
834.347	750.1802	65535	64648.8
834.492	752.2624	65535	64650.15
834.637	754.3439	65535	64648.45
834.782	756.4247	65535	64638.25
834.9269	758.5048	65535	64650.15
835.0719	760.5843	65535	64649.4
835.2169	762.6631	65535	64646.45
835.3619	764.7413	65535	64648.9
835.5069	766.8188	65535	64646.2
835.6519	768.8956	65535	64645.8
835.7969	770.9718	65535	64648.1
835.9419	773.0473	65535	64645.2
836.0869	775.1221	65535	64646.95
836.232	777.1962	65535	64647.75
836.377	779.2697	65535	64646
836.522	781.3426	65535	64627.8
836.667	783.4147	65535	64643.8
836.8121	785.4862	65535	64647.9
836.9571	787.557	65535	64647.3
837.1021	789.6271	65535	64642.1
837.2472	791.6966	65535	64645.5
837.3922	793.7654	65535	64646.65
837.5373	795.8335	65535	64645.45
837.6823	797.901	65535	64646.2
837.8274	799.9678	65535	64643.95
837.9724	802.0339	65535	64645.8
838.1175	804.0993	65535	64638.05
838.2626	806.1641	65535	64644.1
838.4076	808.2282	65535	64648.2
838.5527	810.2916	65535	64646.9
838.6978	812.3544	65535	64648.85
838.8428	814.4164	65535	64644.25
838.9879	816.4778	65535	64646.65
839.133	818.5385	65535	64644.25
839.2781	820.5986	65535	64643.25
839.4232	822.658	65535	64643.8
839.5682	824.7166	65535	64644.65
839.7133	826.7747	65535	64642.4
839.8584	828.832	65535	64642.5
840.0035	830.8886	65535	64641.9
840.1486	832.9446	65535	64644.3
840.2937	834.9999	65535	64644
840.4388	837.0545	65535	64639.6
840.5839	839.1085	65535	64641.75
840.729	841.1618	65535	64641.7
840.8741	843.2143	65535	64644.35
841.0192	845.2662	65535	64643.65
841.1643	847.3175	65535	64643.35
841.3095	849.368	65535	64643.55
841.4546	851.4179	65535	64644.8
841.5997	853.467	65535	64641.4
841.7448	855.5155	65535	64644.25
841.8899	857.5633	65535	64644.05
842.0351	859.6105	65535	64643.25
842.1802	861.6569	65535	64645.5
842.3253	863.7027	65535	64641.1
842.4704	865.7478	65535	64643.35
842.6156	867.7922	65535	64644.85
842.7607	869.8359	65535	64641.3
842.9058	871.8789	65535	64641.05
843.0509	873.9212	65535	64610.5
843.1961	875.9629	65535	64639.55
843.3412	878.0039	65535	64640.45
843.4863	880.0441	65535	64638.2
843.6315	882.0837	65535	64643.1
843.7766	884.1226	65535	64639.65
843.9218	886.1609	65535	64640.75
844.0669	888.1984	65535	64642.85
844.212	890.2352	65535	64641.9
844.3572	892.2714	65535	64638.3
844.5023	894.3069	65535	64640.55
844.6475	896.3416	65535	64641.45
844.7926	898.3757	65535	64640.3
844.9377	900.4091	65535	64639.05
845.0829	902.4418	65535	64634.6
845.228	904.4739	65535	64635.2
845.3732	906.5052	65535	64643.35
845.5183	908.5358	65535	64639.9
845.6635	910.5658	65535	64636.65
845.8086	912.595	65535	64638.85
845.9538	914.6236	65535	64641.8
846.0989	916.6515	65535	64639.95
846.2441	918.6786	65535	64638.2
846.3892	920.7051	65535	64639.9
846.5344	922.7309	65535	64640.75
846.6795	924.756	65535	64637.65
846.8246	926.7804	65535	64639.15
846.9698	928.8041	65535	64634.1
847.1149	930.8272	65535	64640.3
847.2601	932.8495	65535	64636.5
847.4052	934.8711	65535	64639.1
847.5504	936.892	65535	64638.65
847.6955	938.9123	65535	64638.55
847.8407	940.9318	65535	64639
847.9858	942.9506	65535	64638.15
848.131	944.9688	65535	64637.25
848.2761	946.9862	65535	64639.95
848.4213	949.003	65535	64639.2
848.5664	951.019	65535	64637.25
848.7115	953.0344	65535	64637.2
848.8567	955.0491	65535	64637.6
849.0018	957.063	65535	64636.4
849.147	959.0763	65535	64639.95
849.2921	961.0888	65535	64637.65
849.4373	963.1007	65535	64637.8
849.5824	965.1119	65535	64638.25
849.7275	967.1223	65535	64639.05
849.8727	969.1321	65535	64642.35
850.0178	971.1412	65535	64639
850.1629	973.1495	65535	64639.45
850.3081	975.1572	65535	64605.85
850.4532	977.1641	65535	64637.4
850.5983	979.1704	65535	64636.5
850.7435	981.1759	65535	64635.05
850.8886	983.1808	65535	64636.45
851.0337	985.1849	65535	64625.2
851.1788	987.1884	65535	64634.9
851.324	989.1911	65535	64636.65
851.4691	991.1932	65535	64633.35
851.6142	993.1945	65535	64636.6
851.7593	995.1951	65535	64636.85
851.9045	997.1951	65535	64633.9
852.0496	999.1943	65535	64639.75
852.1947	1001.1928	65535	64636.05
852.3398	1003.1906	65535	64640.2
852.4849	1005.1877	65535	64637
852.63	1007.1841	65535	64637.85
852.7751	1009.1798	65535	64636
852.9202	1011.1748	65535	64637.9
853.0653	1013.1691	65535	64635.1
853.2104	1015.1627	65535	64636.05
853.3555	1017.1556	65535	64639.9
853.5006	1019.1477	65535	64637.15
853.6457	1021.1392	65535	64641.4
853.7908	1023.1299	65535	64639.65
853.9359	1025.12	65535	64636.25
854.081	1027.1093	65535	64638.75
854.2261	1029.0979	65535	64642
854.3712	1031.0859	65535	64640.8
854.5163	1033.0731	65535	64637.75
854.6613	1035.0596	65535	64638.15
854.8064	1037.0454	65535	64638.95
854.9515	1039.0304	65535	64637.5
855.0965	1041.0148	65535	64636.75
855.2416	1042.9985	65535	64636.2
855.3867	1044.9814	65535	64639.5
855.5317	1046.9636	65535	64633.9
855.6768	1048.9452	65535	64637.5
855.8219	1050.926	65535	64634.95
855.9669	1052.9061	65535	64638.25
856.112	1054.8855	65535	64635.55
856.257	1056.8642	65535	64636.3
856.4021	1058.8421	65535	64632.8
856.5471	1060.8194	65535	64635.9
856.6921	1062.7959	65535	64637.3
856.8372	1064.7717	65535	64633.1
856.9822	1066.7469	65535	64634.85
857.1272	1068.7213	65535	64633.5
857.2723	1070.695	65535	64635.3
857.4173	1072.6679	65535	64636.15
857.5623	1074.6402	65535	64637.8
857.7073	1076.6117	65535	64630.55
857.8523	1078.5826	65535	64637.9
857.9973	1080.5527	65535	64635.5
858.1423	1082.5221	65535	64634.8
858.2873	1084.4908	65535	64638.05
858.4323	1086.4587	65535	64637.35
858.5773	1088.426	65535	64638.05
858.7223	1090.3925	65535	64630.2
858.8673	1092.3584	65535	64638.5
859.0123	1094.3235	65535	64637.75
859.1573	1096.2879	65535	64635.3
859.3022	1098.2515	65535	64637.45
859.4472	1100.2145	65535	64638.2
859.5922	1102.1767	65535	64634.7
859.7371	1104.1382	65535	64635.4
859.8821	1106.099	65535	64634.4
860.027	1108.0591	65535	64636.1
860.172	1110.0185	65535	64635.5
860.3169	1111.9771	65535	64636.2
860.4619	1113.9351	65535	64638.6
860.6068	1115.8923	65535	64633.75
860.7517	1117.8488	65535	64632.8
860.8967	1119.8045	65535	64635.35
861.0416	1121.7596	65535	64635.6
861.1865	1123.7139	65535	64637.2
861.3314	1125.6675	65535	64633.95
861.4763	1127.6204	65535	64638.7
861.6212	1129.5726	65535	64633
861.7661	1131.524	65535	64636.15
861.911	1133.4748	65535	64634.2
862.0559	1135.4248	65535	64635.4
862.2008	1137.3741	65535	64635.85
862.3457	1139.3226	65535	64634.25
862.4905	1141.2705	65535	64636.4
862.6354	1143.2176	65535	64630.5
862.7803	1145.164	65535	64633.35
862.9251	1147.1097	65535	64634.9
863.07	1149.0546	65535	64632.7
863.2148	1150.9989	65535	64637.05
863.3597	1152.9424	65535	64634.3
863.5045	1154.8852	65535	64634.2
863.6493	1156.8272	65535	64636.8
863.7942	1158.7686	65535	64626.85
863.939	1160.7092	65535	64636.3
864.0838	1162.6491	65535	64633.9
864.2286	1164.5883	65535	64636.9
864.3734	1166.5267	65535	64634
864.5182	1168.4644	65535	64635.75
864.663	1170.4014	65535	64631.2
864.8078	1172.3377	65535	64636.4
864.9526	1174.2732	65535	64633.95
865.0974	1176.2081	65535	64637.35
865.2421	1178.1421	65535	64634.8
865.3869	1180.0755	65535	64637.15
865.5317	1182.0082	65535	64635.1
865.6764	1183.9401	65535	64633.05
865.8212	1185.8713	65535	64638.6
865.9659	1187.8017	65535	64636.15
866.1106	1189.7315	65535	64640.05
866.2554	1191.6605	65535	64607.3
866.4001	1193.5888	65535	64635.15
866.5448	1195.5163	65535	64635.2
866.6895	1197.4432	65535	64634.2
866.8342	1199.3693	65535	64638.4
866.9789	1201.2947	65535	64635
867.1236	1203.2193	65535	64633.1
867.2683	1205.1432	65535	64636
867.413	1207.0664	65535	64636.45
867.5576	1208.9889	65535	64633.3
867.7023	1210.9106	65535	64636.8
867.847	1212.8316	65535	64636.85
867.9916	1214.7519	65535	64627.1
868.1363	1216.6715	65535	64636.3
868.2809	1218.5903	65535	64637.65
868.4255	1220.5084	65535	64633.95
868.5701	1222.4257	65535	64636.85
868.7148	1224.3424	65535	64636.2
868.8594	1226.2583	65535	64631.4
869.004	1228.1735	65535	64634.05
869.1486	1230.0879	65535	64632.9
869.2932	1232.0016	65535	64638.05
869.4377	1233.9146	65535	64634.45
869.5823	1235.8269	65535	64636.55
869.7269	1237.7384	65535	64637.35
869.8715	1239.6492	65535	64638.5
870.016	1241.5592	65535	64633.45
870.1606	1243.4686	65535	64636.55
870.3051	1245.3772	65535	64636.35
870.4496	1247.285	65535	64636.15
870.5941	1249.1922	65535	64634.05
870.7387	1251.0986	65535	64634.95
870.8832	1253.0042	65535	64636.35
871.0277	1254.9092	65535	64634.85
871.1722	1256.8134	65535	64637.25
871.3167	1258.7169	65535	64634.4
871.4611	1260.6196	65535	64638.85
871.6056	1262.5216	65535	64633.6
871.7501	1264.4229	65535	64637.5
871.8945	1266.3234	65535	64634.1
872.039	1268.2232	65535	64634.15
872.1834	1270.1223	65535	64634.4
872.3278	1272.0207	65535	64634.05
872.4723	1273.9183	65535	64627.9
872.6167	1275.8151	65535	64636.15
872.7611	1277.7113	65535	64636.1
872.9055	1279.6067	65535	64636.3
873.0499	1281.5014	65535	64634.75
873.1943	1283.3953	65535	64634.05
873.3386	1285.2885	65535	64636.35
873.483	1287.181	65535	64635.25
873.6274	1289.0727	65535	64636.35
873.7717	1290.9637	65535	64636
873.9161	1292.854	65535	64635.55
874.0604	1294.7435	65535	64634.55
874.2047	1296.6323	65535	64636.5
874.349	1298.5204	65535	64630.25
874.4933	1300.4077	65535	64633.15
874.6376	1302.2943	65535	64635.65
874.7819	1304.1802	65535	64635.6
874.9262	1306.0653	65535	64632.1
875.0705	1307.9497	65535	64637.2
875.2147	1309.8333	65535	64636
875.359	1311.7162	65535	64637.1
875.5032	1313.5984	65535	64631.7
875.6475	1315.4798	65535	64625.5
875.7917	1317.3605	65535	64618.8
875.9359	1319.2405	65535	64633.05
876.0801	1321.1197	65535	64633.75
876.2243	1322.9982	65535	64633.25
876.3685	1324.876	65535	64636.3
876.5127	1326.753	65535	64633.9
876.6569	1328.6293	65535	64631.85
876.801	1330.5048	65535	64634.35
876.9452	1332.3796	65535	64637.95
877.0893	1334.2537	65535	64609.1
877.2335	1336.127	65535	64633.7
877.3776	1337.9996	65535	64637.35
877.5217	1339.8714	65535	64635.25
877.6658	1341.7426	65535	64589.05
877.8099	1343.6129	65535	64632.9
877.954	1345.4826	65535	64635.6
878.0981	1347.3515	65535	64631.85
878.2422	1349.2196	65535	64636.15
878.3862	1351.087	65535	64637.5
878.5303	1352.9537	65535	64635
878.6743	1354.8197	65535	64634.3
878.8184	1356.6849	65535	64632.6
878.9624	1358.5493	65535	64633.2
879.1064	1360.4131	65535	64635.4
879.2504	1362.276	65535	64636.5
879.3944	1364.1383	65535	64636.35
879.5384	1365.9998	65535	64629.15
879.6823	1367.8606	65535	64631.8
879.8263	1369.7206	65535	64635.65
879.9702	1371.5799	65535	64634.4
880.1142	1373.4384	65535	64633.55
880.2581	1375.2962	65535	64634.75
880.402	1377.1533	65535	64633.45
880.5459	1379.0096	65535	64633.8
880.6898	1380.8652	65535	64636.6
880.8337	1382.7201	65535	64637.2
880.9776	1384.5742	65535	64636.3
881.1215	1386.4275	65535	64635.75
881.2653	1388.2802	65535	64638.05
881.4092	1390.132	65535	64638.6
881.553	1391.9832	65535	64633.85
881.6968	1393.8336	65535	64634.1
881.8406	1395.6832	65535	64632.75
881.9844	1397.5322	65535	64634.2
882.1282	1399.3803	65535	64631.55
882.272	1401.2278	65535	64634.45
882.4158	1403.0745	65535	64637.3
882.5595	1404.9204	65535	64638.6
882.7033	1406.7656	65535	64635.85
882.847	1408.6101	65535	64634.1
882.9908	1410.4538	65535	64636.25
883.1345	1412.2968	65535	64636
883.2782	1414.139	65535	64636.15
883.4219	1415.9805	65535	64636.25
883.5656	1417.8213	65535	64628.5
883.7092	1419.6613	65535	64635
883.8529	1421.5006	65535	64635.1
883.9965	1423.3391	65535	64634.1
884.1402	1425.1769	65535	64633.2
884.2838	1427.0139	65535	64637.15
884.4274	1428.8502	65535	64633.95
884.571	1430.6858	65535	64637.75
884.7146	1432.5206	65535	64635.9
884.8582	1434.3547	65535	64636.65
885.0018	1436.188	65535	64633.45
885.1453	1438.0206	65535	64637.35
885.2889	1439.8524	65535	64637.5
885.4324	1441.6835	65535	64635.55
885.5759	1443.5139	65535	64633.4
885.7194	1445.3435	65535	64634.85
885.8629	1447.1724	65535	64637.6
886.0064	1449.0005	65535	64637.05
886.1499	1450.8279	65535	64635.3
886.2933	1452.6545	65535	64633.95
886.4368	1454.4804	65535	64638.2
886.5802	1456.3056	65535	64627.9
886.7237	1458.13	65535	64638.4
886.8671	1459.9536	65535	64636.7
887.0105	1461.7766	65535	64636.2
887.1539	1463.5987	65535	64636.2
887.2972	1465.4202	65535	64637.1
887.4406	1467.2409	65535	64634.65
887.584	1469.0608	65535	64638.65
887.7273	1470.88	65535	64634.85
887.8706	1472.6984	65535	64635.85
888.0139	1474.5161	65535	64633.5
888.1572	1476.3331	65535	64637.95
888.3005	1478.1493	65535	64633.7
888.4438	1479.9648	65535	64637.15
888.5871	1481.7795	65535	64635.15
888.7303	1483.5935	65535	64634.9
888.8736	1485.4067	65535	64636.95
889.0168	1487.2192	65535	64636.05
889.16	1489.031	65535	64633.25
889.3032	1490.842	65535	64636.5
889.4464	1492.6522	65535	64634.9
889.5896	1494.4618	65535	64635.85
889.7327	1496.2705	65535	64636.65
889.8759	1498.0785	65535	64635.6
890.019	1499.8858	65535	64634.45
890.1622	1501.6924	65535	64636.95
890.3053	1503.4981	65535	64635.35
890.4484	1505.3032	65535	64636.65
890.5914	1507.1075	65535	64637.6
890.7345	1508.911	65535	64633.7
890.8776	1510.7138	65535	64634.3
891.0206	1512.5159	65535	64635.6
891.1637	1514.3172	65535	64635.5
891.3067	1516.1178	65535	64639.6
891.4497	1517.9176	65535	64634
891.5927	1519.7166	65535	64637.65
891.7357	1521.515	65535	64630.25
891.8786	1523.3126	65535	64634
892.0216	1525.1094	65535	64633.85
892.1645	1526.9055	65535	64635.3
892.3074	1528.7008	65535	64638.2
892.4503	1530.4954	65535	64631.7
892.5932	1532.2893	65535	64639.2
892.7361	1534.0824	65535	64632.95
892.879	1535.8747	65535	64638.8
893.0218	1537.6663	65535	64638.65
893.1647	1539.4572	65535	64637.1
893.3075	1541.2473	65535	64636.2
893.4503	1543.0367	65535	64636.9
893.5931	1544.8253	65535	64633.95
893.7359	1546.6132	65535	64634.55
893.8787	1548.4003	65535	64626.7
894.0214	1550.1867	65535	64628.65
894.1642	1551.9723	65535	64631.75
894.3069	1553.7572	65535	64636.65
894.4496	1555.5414	65535	64635.6
894.5923	1557.3247	65535	64638.15
894.735	1559.1074	65535	64639.4
894.8777	1560.8893	65535	64635.6
895.0204	1562.6705	65535	64636.9
895.163	1564.4509	65535	64637.1
895.3056	1566.2305	65535	64637.6
895.4482	1568.0094	65535	64639.9
895.5908	1569.7876	65535	64638.55
895.7334	1571.565	65535	64637.3
895.876	1573.3417	65535	64635.15
896.0186	1575.1176	65535	64637.85
896.1611	1576.8928	65535	64638.9
896.3036	1578.6672	65535	64641.15
896.4461	1580.4409	65535	64639.5
896.5886	1582.2138	65535	64635.25
896.7311	1583.986	65535	64638.25
896.8736	1585.7575	65535	64638.9
897.0161	1587.5282	65535	64640.35
897.1585	1589.2981	65535	64642.3
897.3009	1591.0673	65535	64640.35
897.4433	1592.8358	65530.6	64636.25
897.5857	1594.6035	65535	64639.85
897.7281	1596.3704	65535	64639.5
897.8705	1598.1366	65529	64633.45
898.0128	1599.9021	65518.7	64622.95
898.1551	1601.6668	65533.35	64634.05
898.2975	1603.4308	65526.55	64630.7
898.4398	1605.194	65525.45	64626.75
898.5821	1606.9564	65455	64561.55
898.7243	1608.7182	65509.45	64610.7
898.8666	1610.4791	65472.55	64577.55
899.0088	1612.2394	65513.6	64620.95
899.1511	1613.9988	65419.6	64525.7
899.2933	1615.7576	65516.3	64623.25
899.4355	1617.5156	65514.35	64612.05
899.5776	1619.2728	65533.65	64638.7
899.7198	1621.0293	65474.4	64582.6
899.862	1622.785	65480	64581.5
900.0041	1624.54	65509.3	64611.9
900.1462	1626.2942	65381.9	64484.45
900.2883	1628.0477	65087.1	64189.25
900.4304	1629.8005	64449.9	63551.25
900.5725	1631.5525	65117.45	64221.5
900.7145	1633.3037	64121.3	63225.7
900.8566	1635.0542	63960.2	63067.85
900.9986	1636.804	64561.85	63666.7
901.1406	1638.553	63265.05	62289.05
901.2826	1640.3013	63709.6	62815.45
901.4245	1642.0488	62926.9	62031.1
901.5665	1643.7955	63546.45	62654
901.7085	1645.5416	62984	62087.85
901.8504	1647.2868	62362.35	61468.65
901.9923	1649.0313	63313.55	62419.85
902.1342	1650.7751	62750.55	61853.2
902.2761	1652.5181	62325.8	61432.15
902.4179	1654.2604	62449.65	61553.95
902.5598	1656.0019	62832.05	61938.65
902.7016	1657.7427	62583.65	61688.6
902.8434	1659.4828	63302.1	62406.1
902.9852	1661.222	62613	61718.95
903.127	1662.9606	63379.2	62484.35
903.2687	1664.6984	62288.5	61393.8
903.4105	1666.4354	62618.05	61720.8
903.5522	1668.1717	61321.8	60425.45
903.6939	1669.9072	60380.7	59483.9
903.8356	1671.642	60204.65	59305.85
903.9773	1673.3761	59920.6	59025.55
904.119	1675.1094	59678.15	58784.95
904.2606	1676.8419	58915.55	58020.9
904.4022	1678.5737	58928.75	58036.25
904.5439	1680.3048	58550.85	57656
904.6855	1682.0351	58230.35	57337
904.827	1683.7646	57928.7	57031.15
904.9686	1685.4934	58049.6	57156.25
905.1101	1687.2215	56846.55	55952.2
905.2517	1688.9488	57604.4	56711.3
905.3932	1690.6754	55970.5	55076.8
905.5347	1692.4012	56718.1	55824.15
905.6761	1694.1263	56604.85	55709.7
905.8176	1695.8506	56079.55	55184.6
905.9591	1697.5742	56015.95	55122.7
906.1005	1699.297	55728.1	54834.85
906.2419	1701.0191	55654.95	54762.8
906.3833	1702.7404	55051.6	54157.85
906.5246	1704.461	54774.3	53880.35
906.666	1706.1808	54731.45	53836.1
906.8073	1707.8999	54567	53672.5
906.9487	1709.6182	54302.6	53409.2
907.09	1711.3358	54215.65	53322.25
907.2313	1713.0527	53974.35	53081.8
907.3725	1714.7688	53900.25	53001.9
907.5138	1716.4841	53237.45	52341.15
907.655	1718.1987	53424.95	52528.1
907.7962	1719.9126	53116.55	52225.35
907.9374	1721.6257	53040.75	52145.6
908.0786	1723.338	53084.65	52191.1
908.2198	1725.0496	52331.35	51435.35
908.3609	1726.7605	52264.3	51369.95
908.502	1728.4706	52101.75	51207.9
908.6431	1730.18	51939	51042
908.7842	1731.8886	51791.3	50896.35
908.9253	1733.5964	51597.95	50685.3
909.0664	1735.3036	51662	50765.9
909.2074	1737.0099	51434.1	50541.25
909.3484	1738.7156	51106.6	50213.4
909.4894	1740.4204	50914	50019.1
909.6304	1742.1246	50869.35	49974
909.7714	1743.8279	50651.85	49758.4
909.9123	1745.5306	50617.7	49725
910.0532	1747.2325	50208.7	49316.6
910.1941	1748.9336	50124.9	49231.75
910.335	1750.634	49896.5	49003.15
910.4759	1752.3336	49916.7	49022.55
910.6168	1754.0325	49667.9	48776.3
910.7576	1755.7307	49613.3	48719.6
910.8984	1757.4281	49454.4	48562.35
911.0392	1759.1247	49462.55	48558.95
911.18	1760.8206	49123.05	48223.25
911.3208	1762.5158	49139.95	48245.15
911.4615	1764.2102	48893.95	48001.55
911.6022	1765.9039	48713.45	47821.6
911.7429	1767.5968	48607.85	47713.7
911.8836	1769.289	48425	47531.3
912.0243	1770.9804	48314.2	47419.95
912.1649	1772.6711	48224.55	47330.3
912.3056	1774.361	48064	47169.85
912.4462	1776.0502	47942.9	47049.35
912.5868	1777.7386	47774.7	46878.9
912.7274	1779.4263	47638.55	46745.3
912.8679	1781.1132	47583.5	46692
913.0084	1782.7994	47331.9	46438.35
913.149	1784.4849	47214.5	46321.6
913.2895	1786.1696	46972.45	46072
913.4299	1787.8535	46834.15	45942.55
913.5704	1789.5367	46746.9	45854.3
913.7108	1791.2192	46653.35	45761.5
913.8513	1792.9009	46460.85	45537.7
913.9917	1794.5818	46342.15	45449.45
914.132	1796.2621	46233.4	45343.4
914.2724	1797.9415	46090.7	45199
914.4128	1799.6202	45905.9	45013.1
914.5531	1801.2982	45825.25	44930.45
914.6934	1802.9755	45689.4	44795.2
914.8337	1804.6519	45600.05	44706.7
914.9739	1806.3277	45340.55	44446.6
915.1142	1808.0027	45144.5	44251.9
915.2544	1809.6769	45080.75	44186.7
915.3946	1811.3504	44927.45	44032.85
915.5348	1813.0231	44883.85	43990.5
915.675	1814.6951	44769.6	43877.4
915.8151	1816.3664	44732.8	43839.15
915.9553	1818.0369	44604.15	43712
916.0954	1819.7067	44376.3	43483.95
916.2355	1821.3757	44349.15	43455.65
916.3755	1823.044	44195.5	43302.25
916.5156	1824.7115	44063.4	43168.5
916.6556	1826.3783	43866.55	42974.95
916.7956	1828.0443	43669.65	42778.7
916.9356	1829.7096	43588.7	42695.05
917.0756	1831.3741	43563.9	42668.25
917.2155	1833.0379	43411.95	42520.35
917.3555	1834.701	43255.85	42359.85
917.4954	1836.3633	43134.15	42240.7
917.6353	1838.0248	43033.2	42137.65
917.7751	1839.6856	42903.8	42009.9
917.915	1841.3457	42832.9	41942.85
918.0548	1843.005	42744.65	41855.45
918.1946	1844.6636	42671.3	41779
918.3344	1846.3214	42515.35	41622.8
918.4742	1847.9785	42471.35	41579.45
918.6139	1849.6349	42238.2	41344.85
918.7537	1851.2904	42181.75	41279.6
918.8934	1852.9453	42047.65	41153.45
919.0331	1854.5994	41840.4	40944.65
919.1727	1856.2528	41934.45	41035.65
919.3124	1857.9054	41763.5	40872.9
919.452	1859.5572	41639.7	40748.45
919.5916	1861.2083	41558.2	40664
919.7312	1862.8587	41492.6	40597.4
919.8708	1864.5084	41343.75	40450.45
920.0103	1866.1572	41246.55	40353.35
920.1498	1867.8054	41011.75	40118.8
920.2893	1869.4528	40958.15	40065.5
920.4288	1871.0994	40814.95	39921.4
920.5683	1872.7453	40719.25	39823.8
920.7077	1874.3905	40615.8	39719.05
920.8471	1876.0349	40436.35	39540.7
920.9865	1877.6786	40453.75	39559.95
921.1259	1879.3215	40419	39524.95
921.2653	1880.9637	40266.75	39373.6
921.4046	1882.6051	40166.2	39273.55
921.5439	1884.2458	40002.35	39108.7
921.6832	1885.8858	39843.35	38950.35
921.8225	1887.525	39793.95	38898
921.9617	1889.1634	39546.35	38652.9
922.101	1890.8011	39394.05	38499.2
922.2402	1892.4381	39347.6	38456.7
922.3794	1894.0743	39276	38383.2
922.5185	1895.7098	39143.9	38253.95
922.6577	1897.3446	39006.65	38112.55
922.7968	1898.9786	38842.85	37945.95
922.9359	1900.6118	38785.3	37893.65
923.075	1902.2443	38610.1	37716.5
923.214	1903.8761	38479.6	37589
923.3531	1905.5071	38270.75	37376.7
923.4921	1907.1374	38140.05	37246.7
923.6311	1908.7669	38050.85	37159
923.77	1910.3957	37950	37057.75
923.909	1912.0237	37733.85	36840.85
924.0479	1913.651	37651.05	36758
924.1868	1915.2776	37499.8	36606.6
924.3257	1916.9034	37332.2	36442.5
924.4646	1918.5285	37177	36287
924.6034	1920.1528	37002.65	36109.3
924.7422	1921.7764	36974.3	36082.4
924.881	1923.3992	36826.95	35935.65
925.0198	1925.0213	36526.95	35634.55
925.1586	1926.6427	36483.3	35592.6
925.2973	1928.2633	36428.75	35420.1
925.436	1929.8832	36276.9	35382.65
925.5747	1931.5023	36081	35188.85
925.7134	1933.1207	35985.2	35094.15
925.852	1934.7383	35896.45	35003.45
925.9906	1936.3552	35742.35	34852
926.1292	1937.9714	35610.3	34718.8
926.2678	1939.5868	35416.6	34521.45
926.4064	1941.2015	35218.1	34324.55
926.5449	1942.8154	35153.25	34261.15
926.6834	1944.4286	34906.15	34014.15
926.8219	1946.041	34828.75	33917.45
926.9604	1947.6528	34598.75	33701.85
927.0988	1949.2637	34548.4	33656.3
927.2372	1950.8739	34383.3	33491.65
927.3756	1952.4834	34366.95	33474.8
927.514	1954.0921	34304.6	33411.5
927.6523	1955.7001	34071.15	33172.15
927.7907	1957.3074	33989.1	33097.6
927.929	1958.9139	33823.4	32933.05
928.0673	1960.5197	33735.35	32841.65
928.2055	1962.1247	33554.2	32663.65
928.3438	1963.729	33410.95	32520.7
928.482	1965.3325	33252.65	32336.9
928.6202	1966.9353	33133	32240.05
928.7584	1968.5374	33012.85	32121.1
928.8965	1970.1387	32910.65	32018.35
929.0346	1971.7393	32798.45	31903.45
929.1727	1973.3392	32661.25	31769.65
929.3108	1974.9383	32508.75	31617.6
929.4489	1976.5366	32360.3	31467.8
929.5869	1978.1342	32320.7	31428.95
929.7249	1979.7311	32297.55	31404.6
929.8629	1981.3273	32101.4	31208.75
930.0009	1982.9227	31979	31085.2
930.1388	1984.5173	31857.65	30965.6
930.2767	1986.1112	31688.3	30798.85
930.4146	1987.7044	31644	30754.45
930.5525	1989.2968	31523.7	30632.55
930.6904	1990.8885	31461.45	30566.15
930.8282	1992.4795	31351.9	30459.7
930.966	1994.0697	31257.55	30365.6
931.1038	1995.6592	31115.15	30223.5
931.2415	1997.2479	30978.35	30086.55
931.3793	1998.8359	30909.85	30019.4
931.517	2000.4232	30744.05	29853.9
931.6547	2002.0097	30620.25	29730.9
931.7923	2003.5955	30503.5	29611.2
931.93	2005.1805	30429.3	29538.3
932.0676	2006.7648	30371.9	29481.2
932.2052	2008.3484	30286.3	29393.65
932.3427	2009.9312	30265.05	29371.7
932.4803	2011.5133	30064.25	29175.2
932.6178	2013.0946	29988.2	29097.55
932.7553	2014.6752	29926.25	29036
932.8928	2016.2551	29802.35	28910.3
933.0302	2017.8342	29688.85	28797.1
933.1676	2019.4126	29547.8	28657.05
933.305	2020.9902	29378.6	28490.4
933.4424	2022.5672	29368.8	28478
933.5798	2024.1433	29281.2	28383.85
933.7171	2025.7188	29164.9	28274.8
933.8544	2027.2935	29062.05	28171.85
933.9917	2028.8674	28947.85	28055.45
934.129	2030.4406	28827	27935.45
934.2662	2032.0131	28692.65	27802.2
934.4034	2033.5849	28607.55	27710.8
934.5406	2035.1559	28505.6	27616.6
934.6778	2036.7261	28490.95	27601
934.8149	2038.2957	28403.4	27515
934.952	2039.8645	28285.1	27394.6
935.0891	2041.4325	28297.5	27403.95
935.2262	2042.9998	28159	27268.4
935.3632	2044.5664	28062.75	27170
935.5002	2046.1323	27957.5	27065.6
935.6372	2047.6974	27863.2	26970.85
935.7742	2049.2617	27788.55	26896.9
935.9111	2050.8254	27777.95	26862.8
936.048	2052.3883	27763.8	26868.75
936.1849	2053.9504	27616.6	26723.85
936.3218	2055.5118	27462.7	26568.9
936.4586	2057.0725	27329.05	26432.2
936.5955	2058.6325	27269.8	26377.8
936.7323	2060.1917	27158.4	26264.25
936.869	2061.7502	27080.25	26184.85
937.0058	2063.3079	26970.1	26077.1
937.1425	2064.8649	26901.95	26006.75
937.2792	2066.4212	26862.9	25969.4
937.4159	2067.9767	26759.15	25867.2
937.5525	2069.5315	26608.75	25718.05
937.6891	2071.0856	26466.6	25575.85
937.8257	2072.6389	26406.05	25514.4
937.9623	2074.1915	26284.15	25393.9
938.0989	2075.7433	26112.85	25218.9
938.2354	2077.2945	26073.75	25181.05
938.3719	2078.8448	25988	25097.75
938.5084	2080.3945	25889.55	24998.95
938.6448	2081.9434	25891.8	25000.45
938.7812	2083.4916	25735.3	24840.85
938.9176	2085.039	25631.25	24738.4
939.054	2086.5857	25583	24690.1
939.1903	2088.1317	25553.85	24662.3
939.3267	2089.677	25457.4	24565.4
939.463	2091.2215	25362.9	24471.55
939.5992	2092.7652	25285.25	24392.15
939.7355	2094.3083	25201.75	24308.9
939.8717	2095.8506	25132.1	24240.8
940.0079	2097.3921	25088.55	24197.2
940.1441	2098.933	24991.7	24099
940.2802	2100.4731	24911.15	24020.35
940.4163	2102.0124	24904.2	24006.85
940.5524	2103.5511	24813.45	23922.5
940.6885	2105.089	24735.35	23844.9
940.8245	2106.6261	24666.1	23774.35
940.9606	2108.1626	24600.05	23708.15
941.0965	2109.6983	24547.15	23623.2
941.2325	2111.2332	24426.85	23532.1
941.3684	2112.7675	24367.4	23476.55
941.5044	2114.301	24279.05	23386.2
941.6403	2115.8337	24229.85	23338.3
941.7761	2117.3657	24157.9	23268.35
941.912	2118.897	24083.1	23190.85
942.0478	2120.4276	24002.6	23104.5
942.1835	2121.9575	23880.45	22984.85
942.3193	2123.4866	23893.5	22988.4
942.455	2125.0149	23832.25	22937.15
942.5907	2126.5426	23637.7	22746.6
942.7264	2128.0695	23600.55	22706.2
942.8621	2129.5956	23526.35	22638.9
942.9977	2131.1211	23463.1	22568.7
943.1333	2132.6458	23458	22567.7
943.2689	2134.1698	23323.75	22430.35
943.4044	2135.693	23275.65	22381.55
943.54	2137.2155	23216.6	22321.95
943.6755	2138.7373	23169.5	22277.6
943.8109	2140.2584	23067.05	22175.2
943.9464	2141.7787	22973.8	22075.7
944.0818	2143.2983	22881.05	21991.2
944.2172	2144.8171	22734.7	21846.75
944.3526	2146.3353	22694.25	21801.7
944.4879	2147.8527	22565.5	21673.3
944.6232	2149.3693	22585.55	21692.2
944.7585	2150.8853	22496.2	21603
944.8938	2152.4005	22364.95	21473.35
945.029	2153.9149	22337.3	21445.6
945.1642	2155.4287	22206.8	21316.1
945.2994	2156.9417	22223.6	21330.1
945.4346	2158.454	22124.5	21230
945.5697	2159.9655	22079.6	21189.05
945.7048	2161.4764	22029.9	21135.65
945.8399	2162.9865	21965.85	21075.3
945.9749	2164.4958	21904.95	21013.1
946.1099	2166.0045	21801.75	20906.1
946.2449	2167.5124	21778.25	20886.75
946.3799	2169.0195	21704.05	20811.05
946.5148	2170.526	21645.2	20753.7
946.6498	2172.0317	21589.5	20695.4
946.7846	2173.5367	21485.75	20593.65
946.9195	2175.0409	21458.75	20568.5
947.0543	2176.5445	21404.2	20512.2
947.1891	2178.0473	21322	20431
947.3239	2179.5494	21165.8	20269.8
947.4587	2181.0507	21102.45	20210.75
947.5934	2182.5513	21053.05	20159.95
947.7281	2184.0512	20987.2	20096.2
947.8628	2185.5504	20913.5	20022.05
947.9974	2187.0488	20792.55	19901.7
948.132	2188.5465	20716	19825.8
948.2666	2190.0435	20697.9	19806.1
948.4012	2191.5397	20588.05	19695.8
948.5357	2193.0353	20544.25	19653.55
948.6702	2194.5301	20427.75	19535.75
948.8047	2196.0241	20359.7	19467.85
948.9392	2197.5175	20297.85	19406.15
949.0736	2199.0101	20183.55	19286.65
949.208	2200.502	20103.15	19210.8
949.3424	2201.9931	19982.15	19089.85
949.4767	2203.4835	19915.4	19021.4
949.611	2204.9733	19880.7	18983.1
949.7453	2206.4622	19853.3	18962.75
949.8796	2207.9505	19772.35	18878.15
950.0138	2209.438	19668.1	18778.15
950.148	2210.9248	19592.25	18698.6
950.2822	2212.4109	19539.35	18648.85
950.4164	2213.8962	19474.5	18581.55
950.5505	2215.3809	19409.25	18514.9
950.6846	2216.8648	19358.45	18464.6
950.8186	2218.3479	19280.5	18383.05
950.9527	2219.8304	19194.35	18300.65
951.0867	2221.3121	19108.35	18215.25
951.2207	2222.7931	19041.85	18151.15
951.3546	2224.2733	18973.75	18083
951.4886	2225.7529	18886.9	17993.5
951.6225	2227.2317	18858.5	17965.45
951.7563	2228.7098	18811.9	17921.25
951.8902	2230.1872	18730.45	17837.4
952.024	2231.6638	18681.7	17789.15
952.1578	2233.1397	18574.55	17678.75
952.2916	2234.6149	18510.55	17618.3
952.4253	2236.0894	18449.7	17558.1
952.559	2237.5632	18397.85	17497.15
952.6927	2239.0362	18343.3	17453.4
952.8263	2240.5085	18259.95	17367.4
952.9599	2241.9801	18176.65	17283.95
953.0935	2243.4509	18110.3	17219.75
953.2271	2244.921	18045.1	17153.7
953.3606	2246.3904	17977.95	17083.75
953.4941	2247.8591	17941.9	17048.9
953.6276	2249.3271	17889.4	16997.1
953.7611	2250.7943	17789.2	16896.95
953.8945	2252.2608	17739.9	16849.8
954.0279	2253.7266	17705.05	16812.8
954.1612	2255.1917	17662.95	16769.55
954.2946	2256.656	17562.15	16667.7
954.4279	2258.1197	17481.3	16590.25
954.5612	2259.5826	17439.5	16545.45
954.6944	2261.0447	17410.3	16516.25
954.8276	2262.5062	17307.35	16413.3
954.9608	2263.9669	17311.6	16417.3
955.094	2265.4269	17265.25	16374.1
955.2271	2266.8862	17184.45	16293
955.3602	2268.3448	17134.65	16239.85
955.4933	2269.8026	17074.75	16184.2
955.6264	2271.2598	17047.45	16154.5
955.7594	2272.7162	16955	16062.65
955.8924	2274.1719	16904.7	16011.05
956.0253	2275.6268	16852.15	15960.05
956.1583	2277.0811	16826.8	15933.6
956.2912	2278.5346	16786.7	15895.55
956.4241	2279.9874	16728.6	15835.05
956.5569	2281.4395	16720.85	15831.35
956.6897	2282.8908	16617.8	15722.05
956.8225	2284.3414	16603.85	15708.95
956.9553	2285.7914	16532.85	15642.55
957.088	2287.2406	16478	15584.6
957.2207	2288.689	16430.25	15537.85
957.3534	2290.1368	16360.5	15467.6
957.486	2291.5838	16275.9	15382.15
957.6186	2293.0302	16233.9	15341.2
957.7512	2294.4758	16169	15275.15
957.8838	2295.9206	16108.6	15215.75
958.0163	2297.3648	16073.85	15182.05
958.1488	2298.8082	16013.7	15124.3
958.2813	2300.251	15974.2	15082.95
958.4137	2301.693	15914.55	15020.05
958.5461	2303.1343	15878.8	14985.35
958.6785	2304.5748	15855.1	14962
958.8108	2306.0147	15794.4	14902.45
958.9432	2307.4538	15731.3	14834.7
959.0754	2308.8922	15689.65	14798.3
959.2077	2310.3299	15608.75	14717.45
959.3399	2311.7669	15547.25	14655.25
959.4721	2313.2031	15504.95	14614.65
959.6043	2314.6387	15440.95	14549.45
959.7365	2316.0735	15375.75	14483.55
959.8686	2317.5076	15342.45	14448.95
960.0006	2318.941	15299.5	14407.35
960.1327	2320.3737	15244.35	14351.95
960.2647	2321.8056	15213.45	14318.5
960.3967	2323.2369	15167.15	14274.95
960.5287	2324.6674	15081.8	14187.95
960.6606	2326.0972	15052.6	14159.6
960.7925	2327.5263	14970.5	14078.9
960.9244	2328.9547	14934.85	14043.75
961.0562	2330.3823	14870.6	13977.95
961.1881	2331.8092	14866.45	13972.9
961.3198	2333.2355	14811.35	13919.4
961.4516	2334.661	14813.7	13919.9
961.5833	2336.0858	14759.35	13865.6
961.715	2337.5098	14685.55	13796.1
961.8467	2338.9332	14653.35	13761.05
961.9783	2340.3558	14580.15	13686.85
962.1099	2341.7778	14528.3	13636.85
962.2415	2343.199	14460.1	13565.6
962.373	2344.6195	14420.35	13529.7
962.5045	2346.0393	14405.15	13513.15
962.636	2347.4583	14361.35	13468.4
962.7675	2348.8767	14312.8	13419.2
962.8989	2350.2943	14271.5	13379.75
963.0303	2351.7113	14245.3	13351.35
963.1617	2353.1275	14154.95	13262.9
963.293	2354.543	14149.65	13250.2
963.4243	2355.9578	14094.6	13200.8
963.5556	2357.3718	13978.35	13085.4
963.6868	2358.7852	13910.95	13015.7
963.818	2360.1978	13868.3	12975.2
963.9492	2361.6098	13847.45	12955.75
964.0803	2363.021	13806.85	12910.4
964.2114	2364.4315	13746.05	12853.7
964.3425	2365.8413	13689.6	12796.6
964.4736	2367.2504	13662.6	12769.3
964.6046	2368.6587	13582.3	12691.9
964.7356	2370.0664	13512.6	12621.25
964.8666	2371.4733	13480.75	12588.75
964.9975	2372.8795	13439.9	12549.3
965.1284	2374.285	13362.85	12471.3
965.2593	2375.6899	13295.3	12405.45
965.3901	2377.0939	13245.1	12354.85
965.5209	2378.4973	13184.9	12295.15
965.6517	2379.9	13149.55	12257.65
965.7825	2381.3019	13102.45	12211.55
965.9132	2382.7032	13043.85	12152.6
966.0439	2384.1037	13038.1	12148.05
966.1745	2385.5035	12946.7	12056.65
966.3051	2386.9027	12914.75	12026.3
966.4357	2388.3011	12893.1	11996.3
966.5663	2389.6987	12834	11943.55
966.6968	2391.0957	12761.3	11869.6
966.8273	2392.492	12717.25	11826.35
966.9578	2393.8876	12670.35	11777.75
967.0882	2395.2824	12615.85	11725.1
967.2186	2396.6765	12555.5	11665.3
967.349	2398.07	12488.2	11597.2
967.4793	2399.4627	12475.6	11583
967.6097	2400.8547	12419.4	11526.55
967.7399	2402.246	12396.55	11498.55
967.8702	2403.6366	12295.25	11404.2
968.0004	2405.0265	12214.7	11324.2
968.1306	2406.4156	12211.25	11315.5
968.2607	2407.8041	12168.45	11275.75
968.3909	2409.1918	12129.35	11234.35
968.521	2410.5789	12068.05	11177.1
968.651	2411.9652	12017.35	11124.05
968.781	2413.3508	11977.5	11084.95
968.911	2414.7358	11912	11021
969.041	2416.12	11892.3	11001.1
969.1709	2417.5035	11845.45	10953.95
969.3008	2418.8863	11795	10903.95
969.4307	2420.2684	11748.15	10855.15
969.5606	2421.6497	11679.95	10788.4
969.6904	2423.0304	11641.4	10750.3
969.8201	2424.4104	11647.85	10756.35
969.9499	2425.7896	11593.65	10700.05
970.0796	2427.1682	11550.9	10659.95
970.2093	2428.546	11518.1	10625.8
970.3389	2429.9232	11494.7	10600.95
970.4685	2431.2996	11425.4	10534.5
970.5981	2432.6753	11423.8	10533.65
970.7277	2434.0503	11395.05	10504.1
970.8572	2435.4246	11309.55	10418.15
970.9867	2436.7982	11284.75	10390.3
971.1161	2438.1711	11251.95	10362.2
971.2456	2439.5433	11217.1	10324.65
971.375	2440.9148	11160.55	10269.45
971.5043	2442.2856	11126.65	10234.5
971.6336	2443.6557	11079.85	10189.1
971.7629	2445.025	11041.75	10150.7
971.8922	2446.3937	11003.5	10112.55
972.0214	2447.7617	10965.35	10074.4
972.1506	2449.1289	10946.35	10054.85
972.2798	2450.4955	10920.95	10027
972.4089	2451.8613	10881.55	9990.85
972.538	2453.2265	10862.55	9970.7
972.6671	2454.5909	10821	9928.7
972.7961	2455.9546	10783.35	9890.5
972.9251	2457.3177	10727.9	9836.6
973.0541	2458.68	10688.85	9795.55
973.1831	2460.0416	10670.3	9779.1
973.312	2461.4025	10666.1	9773.7
973.4408	2462.7627	10613.25	9708.5
973.5697	2464.1222	10615.3	9724.35
973.6985	2465.4811	10561.1	9668.7
973.8273	2466.8392	10521.85	9630.3
973.956	2468.1966	10486.05	9592
974.0847	2469.5533	10483.75	9589.1
974.2134	2470.9093	10465.1	9574.95
974.3421	2472.2645	10408.6	9515.75
974.4707	2473.6191	10386.6	9497.05
974.5993	2474.973	10337	9444.8
974.7278	2476.3262	10299.55	9405.8
974.8563	2477.6787	10236.35	9345.15
974.9848	2479.0305	10195.9	9305.1
975.1132	2480.3816	10169.25	9277.3
975.2417	2481.7319	10145.4	9252.7
975.37	2483.0816	10105.2	9211.85
975.4984	2484.4306	10051	9158.65
975.6267	2485.7789	10022.2	9131.8
975.755	2487.1264	9950.7	9058.95
975.8833	2488.4733	9929.65	9039
976.0115	2489.8195	9898	8992.25
976.1397	2491.165	9857.35	8962.8
976.2678	2492.5097	9819.9	8925.85
976.3959	2493.8538	9778.45	8887.05
976.524	2495.1972	9735.25	8843.25
976.6521	2496.5398	9694.25	8801.3
976.7801	2497.8818	9666.6	8771.8
976.9081	2499.2231	9633.9	8743.45
977.036	2500.5637	9607.9	8712.9
977.164	2501.9035	9541.5	8648.85
977.2918	2503.2427	9511.6	8617.55
977.4197	2504.5812	9514.25	8623.05
977.5475	2505.919	9480.85	8585.35
977.6753	2507.256	9453.8	8562.8
977.8031	2508.5924	9429.2	8537.7
977.9308	2509.9281	9352.3	8455.05
978.0585	2511.2631	9334	8444.5
978.1861	2512.5974	9309.2	8417.65
978.3137	2513.9309	9247.9	8355.6
978.4413	2515.2638	9248	8323.15
978.5689	2516.596	9227.65	8336.55
978.6964	2517.9275	9157.55	8266.9
978.8239	2519.2583	9141.3	8249.05
978.9513	2520.5884	9085.65	8192.35
979.0788	2521.9178	9070.45	8177.1
979.2062	2523.2465	9037.8	8147.5
979.3335	2524.5745	8958.95	8068.65
979.4608	2525.9018	8923.4	8031.25
979.5881	2527.2284	8907.9	8016.55
979.7154	2528.5543	8913.65	8023.45
979.8426	2529.8796	8876.65	7984.15
979.9698	2531.2041	8865.85	7972.75
980.0969	2532.5279	8848.05	7957.6
980.224	2533.851	8823.25	7931.15
980.3511	2535.1735	8783.25	7891.8
980.4781	2536.4952	8777.35	7884.6
980.6052	2537.8163	8739.1	7846.35
980.7321	2539.1366	8720.7	7827.75
980.8591	2540.4562	8697.05	7804.65
980.986	2541.7752	8686.45	7795.55
981.1129	2543.0935	8661.05	7769
981.2397	2544.411	8646.6	7752.7
981.3665	2545.7279	8612.4	7720.7
981.4933	2547.0441	8597.05	7705.3
981.62	2548.3596	8596.5	7703.85
981.7467	2549.6744	8547.1	7656.8
981.8734	2550.9885	8492.05	7599.3
982.0001	2552.3019	8471.25	7580.05
982.1267	2553.6146	8463.5	7570.35
982.2532	2554.9266	8421.35	7529
982.3798	2556.2379	8378.65	7483.3
982.5063	2557.5485	8396.55	7504.6
982.6327	2558.8585	8376.5	7475.85
982.7592	2560.1677	8339.75	7444
982.8856	2561.4762	8326.75	7435.25
983.0119	2562.7841	8308.85	7414.35
983.1383	2564.0913	8287.55	7398.25
983.2646	2565.3977	8277.35	7385.55
983.3908	2566.7035	8235.05	7341.55
983.517	2568.0086	8250.65	7358.25
983.6432	2569.313	8225.85	7333.85
983.7694	2570.6167	8204.3	7308.8
983.8955	2571.9197	8177.6	7285.85
984.0216	2573.222	8164.75	7269.5
984.1476	2574.5236	8123.8	7232.35
984.2737	2575.8246	8115.1	7221.05
984.3996	2577.1248	8087.7	7191.8
984.5256	2578.4244	8063.9	7171.3
984.6515	2579.7232	8053.1	7163.3
984.7774	2581.0214	8061.3	7141.9
984.9032	2582.3189	8029.35	7138.35
985.029	2583.6157	8010.65	7114.55
985.1548	2584.9118	7999.4	7105.75
985.2806	2586.2072	7958.6	7066.2
985.4063	2587.5019	7933.4	7042.3
985.5319	2588.7959	7913.95	7021.55
985.6576	2590.0893	7902.5	7009.5
985.7832	2591.3819	7887	6996.5
985.9087	2592.6739	7860.95	6968.55
986.0343	2593.9652	7812.2	6917.05
986.1597	2595.2557	7815.9	6924.5
986.2852	2596.5456	7766.25	6871.9
986.4106	2597.8348	7751.35	6859.8
986.536	2599.1234	7708.05	6815.75
986.6614	2600.4112	7672.05	6781.4
986.7867	2601.6983	7656.95	6760.95
986.912	2602.9848	7614.3	6722.45
987.0372	2604.2705	7598.45	6697.4
987.1624	2605.5556	7589.1	6695.25
987.2876	2606.84	7559.6	6667.95
987.4128	2608.1237	7544.85	6653.45
987.5379	2609.4067	7487.85	6597.7
987.6629	2610.689	7478.65	6579.6
987.788	2611.9707	7461.05	6567.05
987.913	2613.2516	7427.2	6531.7
988.0379	2614.5319	7360.8	6468.5
988.1629	2615.8115	7354.1	6460
988.2878	2617.0903	7340.8	6447.4
988.4126	2618.3685	7307.35	6417.3
988.5375	2619.6461	7276.4	6384.45
988.6622	2620.9229	7249.8	6359.15
988.787	2622.199	7230.4	6337.35
988.9117	2623.4745	7220.15	6327.2
989.0364	2624.7493	7185.4	6294.5
989.161	2626.0234	7154.7	6263.45
989.2857	2627.2968	7147.5	6255.9
989.4102	2628.5695	7121.9	6229.9
989.5348	2629.8415	7068.25	6174.65
989.6593	2631.1128	7050.45	6159
989.7837	2632.3835	7039.3	6149.75
989.9082	2633.6535	6982.45	6090.7
990.0326	2634.9228	6975.25	6086.8
990.1569	2636.1914	6960.6	6069.55
990.2812	2637.4593	6941.2	6043.2
990.4055	2638.7265	6887.3	5993.5
990.5298	2639.9931	6889.25	5995.95
990.654	2641.259	6874.9	5981.45
990.7782	2642.5242	6855.4	5964.45
990.9023	2643.7887	6799.5	5908.1
991.0264	2645.0525	6795.85	5903.7
991.1505	2646.3156	6768.6	5876.7
991.2745	2647.5781	6744.35	5852.05
991.3985	2648.8398	6744.75	5853.4
991.5225	2650.1009	6719.4	5816.5
991.6464	2651.3613	6688.1	5797.5
991.7703	2652.6211	6678.25	5786.8
991.8942	2653.8801	6676	5784.15
992.018	2655.1385	6640.25	5746.3
992.1418	2656.3961	6617	5725.7
992.2655	2657.6531	6600	5706.95
992.3892	2658.9094	6559.55	5668.1
992.5129	2660.1651	6558.4	5667.9
992.6366	2661.42	6543.2	5651.6
992.7602	2662.6743	6541.5	5647.05
992.8837	2663.9279	6493.95	5603.35
993.0073	2665.1808	6504.6	5612.35
993.1307	2666.433	6480.05	5587.2
993.2542	2667.6846	6455.5	5564.1
993.3776	2668.9354	6442.05	5547.45
993.501	2670.1856	6409.35	5514.7
993.6244	2671.4351	6406.85	5515.15
993.7477	2672.6839	6411.5	5518.75
993.8709	2673.9321	6379.25	5487.45
993.9942	2675.1795	6352.6	5460.3
994.1174	2676.4263	6320.05	5429.85
994.2405	2677.6724	6321.3	5432.05
994.3637	2678.9179	6294.8	5400.7
994.4868	2680.1626	6280.95	5390.2
994.6098	2681.4067	6270.4	5378.75
994.7328	2682.6501	6256.8	5365.25
994.8558	2683.8928	6222.6	5330.8
994.9788	2685.1348	6206	5313.5
995.1017	2686.3761	6162.85	5270.75
995.2245	2687.6168	6138.9	5248.7
995.3474	2688.8568	6142.55	5250.25
995.4702	2690.0961	6115.1	5224.8
995.5929	2691.3348	6086.75	5196.8
995.7156	2692.5727	6065.8	5174
995.8383	2693.81	6060.8	5167.25
995.961	2695.0466	6049.95	5158.45
996.0836	2696.2826	6006.55	5112.85
996.2062	2697.5178	6004.5	5110.8
996.3287	2698.7524	5985.85	5092.95
996.4512	2699.9863	5971.1	5077.2
996.5737	2701.2195	5945.55	5054.95
996.6961	2702.452	5952.15	5059.15
996.8185	2703.6839	5925.55	5032
996.9408	2704.9151	5926.6	5036.05
997.0631	2706.1456	5876.05	4985
997.1854	2707.3755	5861.9	4968.95
997.3077	2708.6046	5856.2	4960.6
997.4299	2709.8331	5846.8	4952.35
997.552	2711.0609	5822.65	4930.1
997.6742	2712.2881	5821.05	4930.2
997.7963	2713.5145	5820.95	4925.95
997.9183	2714.7403	5797.5	4905.75
998.0403	2715.9654	5769.8	4876.9
998.1623	2717.1899	5798.45	4892.4
998.2842	2718.4136	5780.2	4888.85
998.4062	2719.6367	5760.25	4868.05
998.528	2720.8591	5751.1	4853.05
998.6498	2722.0809	5733.2	4841.05
998.7716	2723.3019	5715.8	4820.4
998.8934	2724.5223	5717.45	4823.55
999.0151	2725.7421	5709.05	4817.45
999.1368	2726.9611	5698.3	4804.55
999.2584	2728.1795	5676.6	4779.7
999.38	2729.3972	5637.9	4746.45
999.5016	2730.6142	5626.05	4725.7
999.6231	2731.8306	5574.7	4680.05
999.7446	2733.0462	5561.75	4668.7
999.8661	2734.2612	5529.4	4633
999.9875	2735.4756	5486.4	4595.05
1000.1089	2736.6892	5456.8	4565.6
1000.2302	2737.9022	5407.65	4518.8
1000.3515	2739.1145	5371.4	4479.1
1000.4728	2740.3262	5376.55	4475.9
1000.594	2741.5372	5316.5	4424.45
1000.7152	2742.7475	5302.65	4409.4
1000.8363	2743.9571	5271.1	4376.55
1000.9575	2745.1661	5228.7	4332.65
1001.0785	2746.3744	5220.65	4328
1001.1996	2747.582	5198.45	4307.4
1001.3206	2748.7889	5193	4301
1001.4415	2749.9952	5160.2	4267.65
1001.5625	2751.2008	5162.7	4270.25
1001.6833	2752.4057	5138.3	4242.3
1001.8042	2753.61	5113.65	4220.35
1001.925	2754.8136	5085.65	4190.15
1002.0458	2756.0165	5084.5	4193.45
1002.1665	2757.2188	5053.75	4162.85
1002.2872	2758.4204	5036.4	4144.35
1002.4078	2759.6213	5007.55	4113.7
1002.5285	2760.8215	5023.95	4126.8
1002.649	2762.0211	4991.85	4096.9
1002.7696	2763.22	4980.6	4086
1002.8901	2764.4182	4946.05	4053.65
1003.0106	2765.6158	4943.45	4053.25
1003.131	2766.8127	4923.9	4032.5
1003.2514	2768.009	4906.05	4015.95
1003.3717	2769.2045	4897.25	4004.15
1003.492	2770.3994	4892.4	3998.8
1003.6123	2771.5936	4857.8	3962.25
1003.7325	2772.7872	4839.05	3947.8
1003.8527	2773.9801	4823.95	3931.45
1003.9729	2775.1723	4833.65	3927
1004.093	2776.3639	4797.6	3904.55
1004.2131	2777.5548	4770.95	3877.55
1004.3331	2778.745	4769.05	3874.85
1004.4531	2779.9346	4760.4	3866.25
1004.5731	2781.1235	4746.5	3855.1
1004.693	2782.3117	4744.15	3852.75
1004.8129	2783.4992	4721	3828.2
1004.9328	2784.6861	4711.65	3819.15
1005.0526	2785.8723	4706.05	3812.15
1005.1723	2787.0579	4680.3	3787.9
1005.2921	2788.2428	4683.15	3791.3
1005.4118	2789.427	4683.65	3792.2
1005.5314	2790.6106	4679.8	3788.9
1005.651	2791.7935	4669.5	3778.2
1005.7706	2792.9757	4655.5	3765.55
1005.8902	2794.1573	4652.1	3756.5
1006.0097	2795.3382	4659.2	3768.25
1006.1291	2796.5184	4653	3762.95
1006.2485	2797.698	4657.35	3762.05
1006.3679	2798.8769	4664.3	3772.3
1006.4873	2800.0551	4639.3	3745.5
1006.6066	2801.2327	4661.5	3765.65
1006.7258	2802.4096	4667.35	3777.3
1006.8451	2803.5859	4673.15	3781.25
1006.9642	2804.7615	4671.75	3779.7
1007.0834	2805.9364	4692.3	3802.1
1007.2025	2807.1106	4690.8	3800.45
1007.3216	2808.2842	4715	3822.55
1007.4406	2809.4572	4729.2	3836.55
1007.5596	2810.6294	4765.5	3872.1
1007.6785	2811.801	4781.1	3890.5
1007.7975	2812.972	4822.1	3930.15
1007.9163	2814.1423	4844.8	3952.75
1008.0352	2815.3119	4881.8	3990.75
1008.154	2816.4808	4918.45	4026.4
1008.2727	2817.6491	4955.5	4062.6
1008.3914	2818.8167	4996	4103.15
1008.5101	2819.9837	5026.55	4130.45
1008.6288	2821.15	5067.05	4175.4
1008.7474	2822.3157	5093.15	4203.4
1008.8659	2823.4807	5141.7	4252.9
1008.9844	2824.645	5178.45	4285.4
1009.1029	2825.8086	5189.5	4298.6
1009.2214	2826.9716	5217.95	4328.8
1009.3398	2828.134	5273.25	4382.6
1009.4581	2829.2957	5291.7	4399.3
1009.5764	2830.4567	5296.85	4406.35
1009.6947	2831.617	5310.5	4419.4
1009.813	2832.7767	5324.75	4435.85
1009.9312	2833.9358	5316.65	4426.1
1010.0493	2835.0941	5300.3	4405.8
1010.1675	2836.2519	5277.1	4387.45
1010.2855	2837.4089	5247.15	4356.45
1010.4036	2838.5653	5228.05	4336.05
1010.5216	2839.7211	5241.85	4349.95
1010.6396	2840.8761	5240.55	4348.8
1010.7575	2842.0306	5262.1	4370.9
1010.8754	2843.1843	5271.35	4380.15
1010.9932	2844.3374	5321.85	4429.75
1011.111	2845.4899	5362.1	4468.3
1011.2288	2846.6417	5423.65	4532.1
1011.3465	2847.7928	5509.7	4617.8
1011.4642	2848.9433	5574.2	4683.55
1011.5818	2850.0931	5652.05	4759.75
1011.6995	2851.2422	5719.6	4825.2
1011.817	2852.3907	5780.9	4889.75
1011.9345	2853.5385	5832.2	4938.3
1012.052	2854.6857	5878.15	4960.75
1012.1695	2855.8323	5919.55	5030.5
1012.2869	2856.9781	5950.3	5059.05
1012.4042	2858.1233	5977.4	5085.85
1012.5216	2859.2679	6030.7	5140.15
1012.6389	2860.4118	6065.05	5173.5
1012.7561	2861.555	6090.25	5192.15
1012.8733	2862.6976	6121.1	5225.95
1012.9905	2863.8395	6140.6	5249.85
1013.1076	2864.9808	6144	5254.1
1013.2247	2866.1214	6157.9	5267.85
1013.3417	2867.2614	6160.7	5268.35
1013.4587	2868.4007	6133.8	5239
1013.5757	2869.5393	6158	5264.35
1013.6926	2870.6773	6150.05	5256.75
1013.8095	2871.8146	6162.85	5267.65
1013.9263	2872.9513	6144.8	5251.3
1014.0431	2874.0874	6123.45	5233.9
1014.1599	2875.2227	6089.55	5199.75
1014.2766	2876.3574	6076.85	5184.5
1014.3933	2877.4915	6029.35	5136.85
1014.51	2878.6249	6012.65	5122.05
1014.6266	2879.7577	5974.05	5080.55
1014.7431	2880.8898	5956.75	5053.95
1014.8596	2882.0212	5916.7	5026.5
1014.9761	2883.152	5897.85	5006.3
1015.0925	2884.2821	5847.9	4959.25
1015.2089	2885.4116	5835.15	4944.1
1015.3253	2886.5405	5827.05	4937.1
1015.4416	2887.6686	5843.95	4948
1015.5579	2888.7962	5827.3	4936.4
1015.6741	2889.923	5812.85	4921.75
1015.7903	2891.0493	5816.4	4925.85
1015.9065	2892.1748	5817.95	4927.8
1016.0226	2893.2997	5827.25	4936.4
1016.1387	2894.424	5829.4	4938.9
1016.2547	2895.5476	5828.65	4938.3
1016.3707	2896.6706	5836.95	4946.25
1016.4866	2897.7929	5864.95	4974
1016.6025	2898.9145	5886.95	4995.7
1016.7184	2900.0355	5890.15	4996
1016.8342	2901.1559	5923.65	5031.3
1016.95	2902.2756	5952.05	5060.6
1017.0658	2903.3946	5954.6	5063.3
1017.1815	2904.513	5985.1	5090.7
1017.2971	2905.6308	6014.55	5124.25
1017.4127	2906.7479	6028.05	5137
1017.5283	2907.8643	6034.95	5141.4
1017.6439	2908.9801	6046.45	5155.5
1017.7594	2910.0953	6037.75	5147.15
1017.8748	2911.2098	6031.25	5134.35
1017.9902	2912.3236	6037.5	5136.65
1018.1056	2913.4368	5985.85	5092
1018.2209	2914.5494	5962.45	5071.25
1018.3362	2915.6613	5924.6	5027.9
1018.4515	2916.7725	5898.7	5006
1018.5667	2917.8831	5848.55	4957.95
1018.6819	2918.9931	5818.55	4927.6
1018.797	2920.1024	5773.35	4881.25
1018.9121	2921.211	5770.05	4879.1
1019.0271	2922.319	5730	4838.1
1019.1421	2923.4264	5700.45	4809.05
1019.2571	2924.5331	5667.55	4776.1
1019.372	2925.6391	5652.9	4760.55
1019.4869	2926.7445	5636.15	4744.7
1019.6017	2927.8493	5625.8	4733.75
1019.7165	2928.9534	5603.2	4711.7
1019.8313	2930.0569	5594.75	4699.7
1019.946	2931.1597	5577.15	4683.35
1020.0606	2932.2619	5554.95	4662.7
1020.1753	2933.3634	5545.75	4654.45
1020.2899	2934.4643	5530	4631.95
1020.4044	2935.5645	5499.25	4603
1020.5189	2936.6641	5433.8	4538.25
1020.6334	2937.763	5401.6	4511.4
1020.7478	2938.8613	5354.2	4461.75
1020.8622	2939.959	5272.25	4376.1
1020.9765	2941.056	5184.7	4295.3
1021.0908	2942.1523	5100.95	4207.6
1021.2051	2943.248	4999.55	4108.3
1021.3193	2944.3431	4896.65	4006.8
1021.4334	2945.4375	4795	3903.1
1021.5476	2946.5313	4685.35	3794.9
1021.6617	2947.6244	4571.2	3679.7
1021.7757	2948.7169	4452.25	3559.1
1021.8897	2949.8087	4360.3	3467.1
1022.0037	2950.8999	4254.05	3362.35
1022.1176	2951.9904	4161.95	3270.05
1022.2315	2953.0803	4083.6	3193.1
1022.3453	2954.1696	4009	3118.95
1022.4591	2955.2582	3943.65	3051.9
1022.5728	2956.3462	3900.6	3010.45
1022.6865	2957.4335	3838.7	2945.8
1022.8002	2958.5202	3801.35	2909.15
1022.9138	2959.6062	3779.7	2890.25
1023.0274	2960.6916	3744.35	2853.05
1023.141	2961.7764	3709.75	2819.15
1023.2545	2962.8605	3684.4	2794.85
1023.3679	2963.9439	3669.3	2780.4
1023.4813	2965.0267	3653.3	2759.65
1023.5947	2966.1089	3660.7	2747
1023.708	2967.1905	3621.35	2728.35
1023.8213	2968.2714	3602.35	2713.3
1023.9346	2969.3516	3590.8	2702.2
1024.0478	2970.4312	3597.9	2702.05
1024.1609	2971.5102	3577.25	2686.6
1024.274	2972.5885	3574	2683.1
1024.3871	2973.6662	3574.3	2677.85
1024.5002	2974.7432	3564.15	2672.9
1024.6132	2975.8196	3546.55	2654.2
1024.7261	2976.8954	3519.15	2629.35
1024.839	2977.9705	3496.5	2607.15
1024.9519	2979.045	3464.6	2573.65
1025.0647	2980.1188	3458.8	2567.85
1025.1775	2981.192	3428.45	2538.8
1025.2902	2982.2645	3412	2519.8
1025.4029	2983.3364	3383.95	2494.05
1025.5156	2984.4077	3335.55	2443.3
1025.6282	2985.4783	3297.7	2400.9
1025.7407	2986.5483	3260.65	2372.15
1025.8532	2987.6177	3236.95	2345.15
1025.9657	2988.6864	3195.5	2306.6
1026.0782	2989.7545	3150.3	2258.65
1026.1906	2990.8219	3113.55	2222.5
1026.3029	2991.8887	3082.5	2190
1026.4152	2992.9548	3032.65	2141.15
1026.5275	2994.0204	3006.25	2115.6
1026.6397	2995.0852	2956.25	2066.05
1026.7519	2996.1495	2929.65	2038.2
1026.864	2997.2131	2904.85	2015.85
1026.9761	2998.276	2885.85	1995.95
1027.0882	2999.3383	2854.7	1963.8
1027.2002	3000.4	2836.95	1944.65
1027.3122	3001.4611	2807.05	1915.75
1027.4241	3002.5215	2793.25	1902.4
1027.536	3003.5812	2768.9	1876.4
1027.6478	3004.6404	2762.45	1871.5
1027.7596	3005.6989	2736.7	1845.2
1027.8714	3006.7567	2723.2	1833.9
1027.9831	3007.8139	2728.2	1815.25
1028.0947	3008.8705	2696.05	1805.4
1028.2064	3009.9264	2691.25	1795.45
1028.3179	3010.9818	2691.5	1801.7
1028.4295	3012.0364	2681.7	1791.3
1028.541	3013.0905	2665.8	1774.95
1028.6524	3014.1439	2652.15	1761.05
1028.7638	3015.1966	2655.7	1767.3
1028.8752	3016.2487	2648.4	1758.9
1028.9865	3017.3002	2643.05	1745.8
1029.0978	3018.3511	2629.65	1740.95
1029.209	3019.4013	2628.5	1738.15
1029.3202	3020.4509	2628.05	1738.6
1029.4314	3021.4998	2616.9	1726.15
1029.5425	3022.5481	2608.3	1717.3
1029.6535	3023.5958	2607.05	1712.8
1029.7645	3024.6428	2604.65	1711.9
1029.8755	3025.6892	2594.1	1703.55
1029.9864	3026.735	2586.2	1696.7
1030.0973	3027.7802	2590.6	1701.3
1030.2082	3028.8247	2584.2	1694.75
1030.319	3029.8685	2584.5	1693.9
1030.4297	3030.9118	2576.6	1686.2
1030.5404	3031.9544	2575.45	1684.9
1030.6511	3032.9963	2567	1676.4
1030.7617	3034.0376	2568.4	1678
1030.8723	3035.0783	2580.3	1687.15
1030.9829	3036.1184	2585.2	1689.9
1031.0934	3037.1578	2572.15	1682.15
1031.2038	3038.1966	2579.9	1687.9
1031.3142	3039.2348	2553.35	1662.95
1031.4246	3040.2723	2561.9	1663.7
1031.5349	3041.3092	2562.1	1673.25
1031.6452	3042.3455	2537.35	1647.5
1031.7554	3043.3811	2527.7	1636.95
1031.8656	3044.4161	2528.95	1637.3
1031.9758	3045.4505	2505.65	1615.95
1032.0859	3046.4842	2514.05	1620.7
1032.1959	3047.5173	2492.1	1601.5
1032.3059	3048.5498	2473.15	1583.2
1032.4159	3049.5816	2468.2	1577.95
1032.5258	3050.6128	2456.05	1565.7
1032.6357	3051.6434	2449.95	1559.2
1032.7455	3052.6734	2449.85	1557.8
1032.8553	3053.7027	2426.55	1536.5
1032.9651	3054.7314	2416.8	1524.75
1033.0748	3055.7594	2403.05	1513.8
1033.1845	3056.7868	2402.4	1511.55
1033.2941	3057.8136	2376.55	1485.4
1033.4037	3058.8398	2370.5	1481.55
1033.5132	3059.8653	2375.25	1484.7
1033.6227	3060.8902	2356.55	1466.4
1033.7321	3061.9145	2345.8	1455.5
1033.8415	3062.9381	2335.75	1445.8
1033.9509	3063.9612	2343.7	1438.25
1034.0602	3064.9835	2318.3	1426.1
1034.1694	3066.0053	2300.4	1408.05
1034.2787	3067.0264	2288.35	1396.9
1034.3878	3068.0469	2292.65	1400.75
1034.497	3069.0668	2273.45	1379.4
1034.6061	3070.086	2258.05	1366.85
1034.7151	3071.1046	2252.55	1363.45
1034.8241	3072.1226	2237.95	1346.3
1034.9331	3073.1399	2221.85	1331.5
1035.042	3074.1567	2208.25	1318.35
1035.1508	3075.1727	2197.85	1305.15
1035.2597	3076.1882	2178.3	1289.45
1035.3684	3077.203	2162.05	1271.1
1035.4772	3078.2173	2153.1	1261.15
1035.5859	3079.2308	2153.15	1257.65
1035.6945	3080.2438	2128.1	1234.15
1035.8031	3081.2561	2113.35	1222.15
1035.9117	3082.2678	2107.85	1218.35
1036.0202	3083.2789	2112.15	1222.85
1036.1286	3084.2893	2094.85	1205.5
1036.2371	3085.2991	2079.3	1189
1036.3454	3086.3083	2084.8	1189.05
1036.4538	3087.3169	2067.05	1175
1036.562	3088.3248	2067.55	1173.95
1036.6703	3089.3321	2046	1153.85
1036.7785	3090.3388	2031.65	1141.55
1036.8866	3091.3449	2027.75	1136.6
1036.9948	3092.3503	2029.1	1137.6
1037.1028	3093.3551	2008.8	1120.2
1037.2108	3094.3593	1997.45	1109.05
1037.3188	3095.3629	2003.75	1114.1
1037.4267	3096.3658	1988.75	1098.65
1037.5346	3097.3681	1979.9	1089.7
1037.6425	3098.3698	1978.9	1087.05
1037.7503	3099.3708	1977.8	1080.4
1037.858	3100.3713	1960.05	1069.65
1037.9657	3101.3711	1955.8	1062.15
1038.0734	3102.3702	2060.9	1052
1038.181	3103.3688	1950.7	1059
1038.2886	3104.3667	1926.9	1036.35
1038.3961	3105.364	1931.2	1041.5
1038.5036	3106.3607	1920.9	1029.45
1038.611	3107.3568	1912.5	1020.6
1038.7184	3108.3522	1908.9	1017.95
1038.8257	3109.347	1896.8	1004.75
1038.933	3110.3412	1903.4	1009.05
1039.0403	3111.3348	1891.15	998
1039.1475	3112.3277	1877.1	987.4
1039.2547	3113.32	1870.85	981.3
1039.3618	3114.3117	1874.45	983.65
1039.4689	3115.3028	1869.05	981.2
1039.5759	3116.2932	1856.85	963.1
1039.6829	3117.2831	1861.6	966.45
1039.7898	3118.2723	1850	959.65
1039.8967	3119.2608	1852.9	963.95
1040.0035	3120.2488	1838.8	949.55
1040.1103	3121.2361	1830.65	939.95
1040.2171	3122.2229	1824.15	936.1
1040.3238	3123.209	1820.35	929.7
1040.4305	3124.1944	1816.6	925.45
1040.5371	3125.1793	1809.35	917.65
1040.6437	3126.1635	1801.65	910.25
1040.7502	3127.1471	1794.65	905.65
1040.8567	3128.1301	1793.15	902.7
1040.9631	3129.1125	1791.7	902.95
1041.0695	3130.0942	1791.75	901.05
1041.1759	3131.0753	1796.85	898.35
1041.2822	3132.0558	1781.8	888.1
1041.3884	3133.0357	1777.45	887.1
1041.4946	3134.015	1761.5	869.6
1041.6008	3134.9936	1761.95	869.35
1041.7069	3135.9716	1782.1	874
1041.813	3136.949	1759.85	867.4
1041.919	3137.9258	1756.7	862.15
1042.025	3138.902	1756.65	860.65
1042.1309	3139.8775	1743	852.45
1042.2368	3140.8524	1740.35	848.95
1042.3427	3141.8267	1739.15	849
1042.4485	3142.8004	1737.55	846.1
1042.5542	3143.7735	1740.1	841.95
1042.6599	3144.7459	1730.65	839.1
1042.7656	3145.7178	1712.45	822.15
1042.8712	3146.689	1718.5	830.55
1042.9768	3147.6596	1717.6	826.45
1043.0823	3148.6295	1706.5	815.35
1043.1878	3149.5989	1701.55	812.8
1043.2932	3150.5676	1687.5	796.75
1043.3986	3151.5357	1691.55	803.5
1043.5039	3152.5032	1688.85	800.1
1043.6092	3153.4701	1674.1	783.8
1043.7145	3154.4364	1674.3	782.15
1043.8197	3155.402	1680.3	792.55
1043.9248	3156.367	1666.25	775.15
1044.03	3157.3315	1705.85	772.5
1044.135	3158.2952	1656.2	764.3
1044.24	3159.2584	1659.1	770.25
1044.345	3160.221	1654	762.9
1044.4499	3161.1829	1638.7	748.7
1044.5548	3162.1442	1642.7	753.95
1044.6596	3163.105	1636.65	745.95
1044.7644	3164.065	1633.6	743.65
1044.8692	3165.0245	1628	735.9
1044.9739	3165.9834	1622.3	733.15
1045.0785	3166.9416	1613	724.15
1045.1831	3167.8993	1611.75	720.4
1045.2877	3168.8563	1609.7	717.65
1045.3922	3169.8127	1602.55	712.85
1045.4966	3170.7684	1606.8	717.45
1045.6011	3171.7236	1593.15	700.9
1045.7054	3172.6782	1597.95	707.3
1045.8098	3173.6321	1587.8	696.3
1045.914	3174.5854	1586.95	693.5
1046.0183	3175.5381	1582.65	693.8
1046.1224	3176.4902	1581.5	691.55
1046.2266	3177.4417	1577.05	688.05
1046.3307	3178.3926	1570.6	682.3
1046.4347	3179.3428	1571.5	681.6
1046.5387	3180.2924	1556.35	668.4
1046.6427	3181.2415	1560.15	670.9
1046.7466	3182.1899	1558.25	667.4
1046.8504	3183.1377	1556.8	667.05
1046.9542	3184.0848	1555.2	660.65
1047.058	3185.0314	1540.75	649.6
1047.1617	3185.9773	1539	648.35
1047.2654	3186.9227	1542.9	653.7
1047.369	3187.8674	1542.5	652.75
1047.4726	3188.8115	1537.8	643.45
1047.5761	3189.755	1523.3	633.85
1047.6796	3190.6979	1530.2	640.1
1047.783	3191.6402	1520.95	632.05
1047.8864	3192.5818	1520.7	631.95
1047.9898	3193.5229	1534.55	631.4
1048.0931	3194.4633	1513.65	622.75
1048.1963	3195.4031	1514	623.95
1048.2995	3196.3423	1506.2	616.7
1048.4027	3197.2809	1500.65	611
1048.5058	3198.2189	1494.85	605.5
1048.6089	3199.1563	1500.45	605.15
1048.7119	3200.0931	1492.8	603.6
1048.8148	3201.0292	1489.25	600
1048.9178	3201.9648	1484.8	595.45
1049.0206	3202.8997	1481.25	589.1
1049.1235	3203.834	1480.5	591.2
1049.2262	3204.7677	1480.2	590.45
1049.329	3205.7008	1477.4	585.35
1049.4317	3206.6333	1477	589.3
1049.5343	3207.5652	1475.05	581.65
1049.6369	3208.4964	1473.85	582.15
1049.7394	3209.4271	1466.9	578.5
1049.8419	3210.3571	1466.2	575.5
1049.9444	3211.2865	1456.9	565.05
1050.0468	3212.2154	1466.4	575.35
1050.1491	3213.1436	1462.7	570.5
1050.2514	3214.0712	1460.9	564.45
1050.3537	3214.9982	1447.85	560.2
1050.4559	3215.9246	1439.85	551.55
1050.5581	3216.8503	1443.15	554.15
1050.6602	3217.7755	1438.1	547.3
1050.7623	3218.7001	1434.5	543.95
1050.8643	3219.624	1436.95	544.05
1050.9663	3220.5473	1430.8	542.15
1051.0682	3221.4701	1426.4	535.3
1051.1701	3222.3922	1425.6	534.3
1051.2719	3223.3137	1426.9	539.2
1051.3737	3224.2346	1420.4	531.85
1051.4754	3225.1549	1418.7	531.05
1051.5771	3226.0746	1418.25	526.05
1051.6788	3226.9937	1413.4	523.05
1051.7804	3227.9121	1410	521.5
1051.8819	3228.83	1406.75	514.8
1051.9834	3229.7473	1402.65	511.7
1052.0849	3230.6639	1397.6	507.95
1052.1863	3231.5799	1395.4	505.75
1052.2876	3232.4954	1386.6	497.25
1052.3889	3233.4102	1391.55	504.25
1052.4902	3234.3244	1389.5	500.05
1052.5914	3235.238	1388.3	500.9
1052.6926	3236.151	1403.45	491.85
1052.7937	3237.0634	1377.8	489.6
1052.8948	3237.9752	1377.35	487.7
1052.9958	3238.8864	1375.85	484.5
1053.0968	3239.797	1370.6	481.6
1053.1977	3240.7069	1369.95	479.1
1053.2986	3241.6163	1366.85	475.4
1053.3994	3242.5251	1363.3	473.1
1053.5002	3243.4332	1356.25	468.5
1053.6009	3244.3408	1353.05	464.75
1053.7016	3245.2477	1353.1	462.45
1053.8022	3246.154	1346.85	456.7
1053.9028	3247.0598	1348.3	457.8
1054.0034	3247.9649	1347.85	457.05
1054.1039	3248.8694	1339.55	450.2
1054.2043	3249.7733	1334.65	445.25
1054.3047	3250.6766	1333.4	445.7
1054.4051	3251.5793	1332.5	443.65
1054.5054	3252.4814	1327.65	439.05
1054.6056	3253.3829	1328.1	440.1
1054.7058	3254.2838	1324.8	433.55
1054.806	3255.1841	1322.15	431
1054.9061	3256.0838	1321.75	432.9
1055.0061	3256.9829	1314.35	424.65
1055.1062	3257.8814	1310.95	421.25
1055.2061	3258.7792	1312	419.8
1055.306	3259.6765	1304.5	413.7
1055.4059	3260.5731	1298.3	408.85
1055.5057	3261.4692	1300	410.3
1055.6055	3262.3647	1290.6	399.35
1055.7052	3263.2595	1277.25	387.35
1055.8049	3264.1538	1278.5	388.85
1055.9045	3265.0474	1275.85	387.25
1056.0041	3265.9404	1268.35	378.45
1056.1036	3266.8329	1253.8	363.6
1056.2031	3267.7247	1265.85	367.85
1056.3025	3268.616	1247.9	360.45
1056.4019	3269.5066	1238.8	348.7
1056.5013	3270.3966	1228.2	336.5
1056.6005	3271.286	1216	328.25
