Software Version:	3.9.2.0
Unit SN:	10000200
Spectrometer SN:	6960
Date:	3/6/2024 10:36:09 AM
Data Line Index:	25
Spectral Points:	2048
Integration time (ms):	125
Averages:	20
Delay (ms):	30
Sequence Number:	1
Processing:	dark subtract
Laser Power (mW):	305
Laser Current (mA):	824
Laser Diode Temp (C):	25.1
Laser Case Temp (C):	26.6
System Temp (C):	26.4
Spectrometer Temp (C):	23.7
CCD Temp (C):	-0.009
Secondary Temp (C):	20.013
Heatsink Temp (C):	22.065
CCDPCB Temp (C):	36.262
SecondaryPCB Temp (C):	31.071

Wavelength	RamanShift	Raw Counts	Dark Subtracted
787.061	30.1047	1160.95	747.65
787.2016	32.3739	1189.45	777.8
787.3422	34.6426	1235.7	822.7
787.4828	36.9109	1281.8	867
787.6235	39.1787	1345.55	928.75
787.7642	41.4461	1411.15	988.25
787.9049	43.7131	1477.9	1051.1
788.0456	45.9796	1538.2	1109.15
788.1863	48.2456	1603.6	1170.95
788.3271	50.5112	1689.8	1252.3
788.4679	52.7764	1751.1	1311
788.6087	55.0411	1835.55	1392.05
788.7496	57.3054	1935.9	1486.4
788.8904	59.5692	2020.85	1569.8
789.0313	61.8326	2123	1669.35
789.1722	64.0955	2233.85	1775.95
789.3132	66.3579	2347.1	1884.25
789.4541	68.6199	2521.45	2054.5
789.5951	70.8815	2779.45	2309.15
789.7361	73.1426	3338.55	2865
789.8771	75.4032	4722.55	4243.15
790.0181	77.6634	8254.9	7771.75
790.1592	79.9231	17812.1	17323.6
790.3003	82.1824	57912.55	57410.05
790.4414	84.4412	65535	65012.2
790.5825	86.6995	65535	64984.2
790.7237	88.9574	65535	64959.9
790.8648	91.2148	65535	64939.55
791.006	93.4717	65535	64928.05
791.1472	95.7282	65535	64918.85
791.2885	97.9842	65535	64916.4
791.4297	100.2398	65535	64914.75
791.571	102.4949	65535	64908.7
791.7123	104.7495	65535	64907.3
791.8536	107.0036	65535	64908.1
791.9949	109.2573	65535	64912.1
792.1363	111.5105	65535	64908.3
792.2777	113.7632	65535	64905.4
792.4191	116.0154	65535	64889.7
792.5605	118.2672	65535	64900.7
792.7019	120.5185	65535	64896.1
792.8434	122.7693	65535	64894.25
792.9849	125.0197	65535	64891.8
793.1264	127.2696	65535	64887.75
793.2679	129.519	65535	64884.15
793.4094	131.7679	65535	64879.65
793.551	134.0163	65535	64879.8
793.6926	136.2642	65535	64874.4
793.8342	138.5117	65535	64864.35
793.9758	140.7587	65535	64872.1
794.1175	143.0052	65535	64870.3
794.2591	145.2512	65535	64868.35
794.4008	147.4967	65535	64869.7
794.5425	149.7417	65535	64867.15
794.6842	151.9863	65535	64860.2
794.826	154.2304	65535	64858
794.9677	156.4739	65535	64848.35
795.1095	158.717	65535	64855.35
795.2513	160.9596	65535	64847.1
795.3931	163.2017	65535	64845.9
795.535	165.4433	65535	64842.3
795.6768	167.6844	65535	64840.25
795.8187	169.925	65535	64838.5
795.9606	172.1651	65535	64840.3
796.1025	174.4047	65535	64834
796.2445	176.6439	65535	64830.1
796.3864	178.8825	65535	64831.1
796.5284	181.1206	65535	64824.95
796.6704	183.3582	65535	64821.8
796.8124	185.5954	65535	64820
796.9544	187.832	65535	64819.2
797.0965	190.0681	65535	64810.8
797.2386	192.3037	65535	64809.2
797.3806	194.5388	65535	64805.15
797.5228	196.7734	65535	64806.1
797.6649	199.0075	65535	64802.55
797.807	201.2411	65535	64802.4
797.9492	203.4742	65535	64799.9
798.0914	205.7068	65535	64798.3
798.2336	207.9389	65535	64793.75
798.3758	210.1704	65535	64797.6
798.518	212.4015	65535	64794.55
798.6603	214.632	65535	64802.35
798.8025	216.862	65535	64816.35
798.9448	219.0915	65535	64816.95
799.0871	221.3205	65535	64811.9
799.2294	223.549	65535	64816
799.3718	225.777	65535	64817.8
799.5141	228.0044	65535	64811.7
799.6565	230.2314	65535	64813.6
799.7989	232.4578	65535	64810.5
799.9413	234.6837	65535	64800.8
800.0837	236.909	65535	64800.4
800.2262	239.1339	65535	64775.45
800.3687	241.3582	65535	64788.45
800.5111	243.582	65535	64760
800.6536	245.8053	65535	64769.1
800.7961	248.0281	65535	64773.85
800.9387	250.2503	65535	64770.95
801.0812	252.472	65535	64769.4
801.2238	254.6932	65535	64768.75
801.3664	256.9139	65535	64767.8
801.509	259.134	65535	64766.35
801.6516	261.3536	65535	64765.75
801.7942	263.5727	65535	64760.05
801.9369	265.7912	65535	64765.55
802.0795	268.0092	65535	64762.9
802.2222	270.2267	65535	64759.6
802.3649	272.4436	65535	64761.85
802.5076	274.6601	65535	64752.5
802.6504	276.8759	65535	64758.3
802.7931	279.0913	65535	64752.75
802.9359	281.3061	65535	64756.55
803.0787	283.5204	65535	64753.1
803.2215	285.7341	65535	64748.35
803.3643	287.9473	65535	64736.5
803.5071	290.16	65535	64741.95
803.6499	292.3721	65535	64750.65
803.7928	294.5837	65535	64746.3
803.9357	296.7947	65535	64744.4
804.0786	299.0052	65535	64746.45
804.2215	301.2152	65535	64746.65
804.3644	303.4246	65535	64754.35
804.5074	305.6334	65535	64750.35
804.6503	307.8418	65535	64739.7
804.7933	310.0495	65535	64740.45
804.9363	312.2568	65535	64745.1
805.0793	314.4635	65535	64741.65
805.2223	316.6696	65535	64738.5
805.3653	318.8752	65535	64731.45
805.5084	321.0802	65535	64740.25
805.6514	323.2847	65535	64734.75
805.7945	325.4887	65535	64735.35
805.9376	327.692	65535	64735.45
806.0807	329.8949	65535	64736.45
806.2238	332.0972	65535	64730.55
806.367	334.2989	65535	64729.45
806.5101	336.5001	65535	64729.8
806.6533	338.7007	65535	64729.7
806.7965	340.9008	65535	64727.45
806.9397	343.1003	65535	64726.45
807.0829	345.2992	65535	64722.05
807.2261	347.4976	65535	64726.15
807.3693	349.6955	65535	64719.25
807.5126	351.8927	65535	64718.6
807.6559	354.0895	65535	64704.95
807.7991	356.2856	65535	64720.5
807.9424	358.4812	65535	64720.2
808.0857	360.6763	65535	64716.4
808.2291	362.8707	65535	64712.35
808.3724	365.0646	65535	64709.7
808.5158	367.258	65535	64709.95
808.6591	369.4508	65535	64705.6
808.8025	371.643	65535	64706.7
808.9459	373.8346	65535	64703.45
809.0893	376.0257	65535	64701.25
809.2327	378.2162	65535	64699.95
809.3762	380.4062	65535	64697.45
809.5196	382.5956	65535	64698.25
809.6631	384.7844	65535	64703.65
809.8066	386.9726	65535	64705.55
809.9501	389.1603	65535	64706.35
810.0936	391.3474	65535	64668.85
810.2371	393.5339	65535	64709.2
810.3806	395.7199	65535	64708.3
810.5241	397.9052	65535	64712.15
810.6677	400.09	65535	64707.9
810.8113	402.2743	65535	64711.65
810.9548	404.4579	65535	64711.3
811.0984	406.641	65535	64706.6
811.2421	408.8235	65535	64706.3
811.3857	411.0054	65535	64703.4
811.5293	413.1868	65535	64701.6
811.673	415.3675	65535	64697.3
811.8166	417.5477	65535	64696.75
811.9603	419.7273	65535	64691.9
812.104	421.9064	65535	64687.4
812.2477	424.0848	65535	64693.3
812.3914	426.2627	65535	64691.3
812.5351	428.4399	65535	64690.85
812.6788	430.6166	65535	64688.35
812.8226	432.7928	65535	64687.65
812.9663	434.9683	65535	64682.8
813.1101	437.1432	65535	64684.35
813.2539	439.3176	65535	64688.1
813.3977	441.4914	65535	64685.95
813.5415	443.6645	65535	64686.4
813.6853	445.8371	65535	64684.95
813.8291	448.0091	65535	64685.1
813.973	450.1806	65535	64686.1
814.1168	452.3514	65535	64687.4
814.2607	454.5216	65535	64673.95
814.4046	456.6913	65535	64679.7
814.5485	458.8603	65535	64681.75
814.6924	461.0288	65535	64682.7
814.8363	463.1967	65535	64682.15
814.9802	465.3639	65535	64680.3
815.1241	467.5306	65535	64680.85
815.2681	469.6967	65535	64680.8
815.412	471.8622	65535	64680.85
815.556	474.0271	65535	64682.75
815.7	476.1914	65535	64674.75
815.844	478.3551	65535	64682.3
815.988	480.5182	65535	64680.15
816.132	482.6807	65535	64680.25
816.276	484.8426	65535	64679.6
816.4201	487.0039	65535	64679.65
816.5641	489.1647	65535	64677.65
816.7082	491.3248	65535	64678.9
816.8522	493.4843	65535	64678.2
816.9963	495.6432	65535	64677.25
817.1404	497.8015	65535	64670.1
817.2845	499.9592	65535	64674.75
817.4286	502.1163	65535	64673.1
817.5727	504.2728	65535	64672.25
817.7168	506.4287	65535	64674.7
817.861	508.5839	65535	64674.65
818.0051	510.7386	65535	64673.35
818.1493	512.8927	65535	64670.65
818.2935	515.0461	65535	64668.85
818.4377	517.199	65535	64668.5
818.5818	519.3512	65535	64672.8
818.726	521.5029	65535	64664.05
818.8703	523.6539	65535	64666.45
819.0145	525.8043	65535	64665.6
819.1587	527.9541	65535	64668.5
819.303	530.1033	65535	64664.85
819.4472	532.2519	65535	64667.3
819.5915	534.3999	65535	64661.45
819.7357	536.5472	65535	64667.9
819.88	538.694	65535	64667.75
820.0243	540.8401	65535	64662.75
820.1686	542.9856	65535	64659.45
820.3129	545.1305	65535	64658.2
820.4572	547.2748	65535	64657.3
820.6016	549.4185	65535	64657.65
820.7459	551.5615	65535	64658.4
820.8902	553.704	65535	64658.3
821.0346	555.8458	65535	64662.15
821.1789	557.987	65535	64659.3
821.3233	560.1276	65535	64661.4
821.4677	562.2675	65535	64661.45
821.6121	564.4069	65535	64660.75
821.7565	566.5456	65535	64661.95
821.9009	568.6837	65535	64661.1
822.0453	570.8212	65535	64659.5
822.1897	572.958	65535	64658
822.3342	575.0942	65535	64663.7
822.4786	577.2299	65535	64663.4
822.6231	579.3648	65535	64662.1
822.7675	581.4992	65535	64664.85
822.912	583.6329	65535	64667.05
823.0565	585.766	65535	64663.05
823.201	587.8985	65535	64664.35
823.3454	590.0304	65535	64639.05
823.4899	592.1616	65535	64658.7
823.6345	594.2922	65535	64656.25
823.779	596.4222	65535	64655.1
823.9235	598.5515	65535	64654.6
824.068	600.6802	65535	64655.55
824.2126	602.8083	65535	64657.3
824.3571	604.9358	65535	64657.95
824.5017	607.0626	65535	64654.4
824.6462	609.1888	65535	64652.85
824.7908	611.3144	65535	64651.55
824.9354	613.4393	65535	64655.1
825.08	615.5636	65535	64653.95
825.2246	617.6873	65535	64655.9
825.3692	619.8103	65535	64652.75
825.5138	621.9327	65535	64651.85
825.6584	624.0544	65535	64654.95
825.803	626.1756	65535	64653.5
825.9477	628.2961	65535	64651.9
826.0923	630.4159	65535	64648.5
826.237	632.5351	65535	64650.2
826.3816	634.6537	65535	64651
826.5263	636.7716	65535	64648.05
826.6709	638.8889	65535	64648.75
826.8156	641.0056	65535	64646.9
826.9603	643.1216	65535	64648.5
827.105	645.237	65535	64646.05
827.2497	647.3518	65535	64650.8
827.3944	649.4659	65535	64650.4
827.5391	651.5793	65535	64648.45
827.6838	653.6922	65535	64650.45
827.8285	655.8043	65535	64649.7
827.9733	657.9159	65535	64649.55
828.118	660.0268	65535	64647.85
828.2627	662.137	65535	64646.65
828.4075	664.2466	65535	64645.55
828.5522	666.3556	65535	64647.35
828.697	668.4639	65535	64644.4
828.8418	670.5716	65535	64650.95
828.9865	672.6786	65535	64641.9
829.1313	674.785	65535	64645.2
829.2761	676.8907	65535	64645.35
829.4209	678.9958	65535	64647.45
829.5657	681.1002	65535	64646.9
829.7105	683.204	65535	64640.8
829.8553	685.3072	65535	64639.65
830.0001	687.4097	65535	64644.55
830.1449	689.5115	65535	64641.2
830.2898	691.6127	65535	64646.2
830.4346	693.7132	65535	64646.1
830.5794	695.8131	65535	64637.65
830.7243	697.9123	65535	64641.9
830.8691	700.0109	65535	64642.05
831.014	702.1089	65535	64644.6
831.1588	704.2061	65535	64638.9
831.3037	706.3028	65535	64640.8
831.4486	708.3987	65535	64642.4
831.5935	710.4941	65535	64644.65
831.7383	712.5887	65535	64644.4
831.8832	714.6827	65535	64640.15
832.0281	716.7761	65535	64642.95
832.173	718.8688	65535	64639.6
832.3179	720.9608	65535	64635.4
832.4628	723.0522	65535	64635.75
832.6077	725.1429	65535	64638.05
832.7527	727.233	65535	64637.65
832.8976	729.3224	65535	64640.35
833.0425	731.4112	65535	64637.8
833.1874	733.4993	65535	64635.75
833.3324	735.5867	65535	64640.35
833.4773	737.6735	65535	64636.4
833.6222	739.7596	65535	64636.6
833.7672	741.845	65535	64639.05
833.9122	743.9298	65535	64639.15
834.0571	746.014	65535	64638.25
834.2021	748.0974	65535	64634.9
834.347	750.1802	65535	64637
834.492	752.2624	65535	64634.15
834.637	754.3439	65535	64637.05
834.782	756.4247	65535	64629.65
834.9269	758.5048	65535	64637.05
835.0719	760.5843	65535	64635.8
835.2169	762.6631	65535	64636.25
835.3619	764.7413	65535	64637.7
835.5069	766.8188	65535	64633.1
835.6519	768.8956	65535	64633.1
835.7969	770.9718	65535	64637.75
835.9419	773.0473	65535	64637.55
836.0869	775.1221	65535	64637.45
836.232	777.1962	65535	64637.5
836.377	779.2697	65535	64638.25
836.522	781.3426	65535	64618.05
836.667	783.4147	65535	64631.3
836.8121	785.4862	65535	64636.5
836.9571	787.557	65535	64634.4
837.1021	789.6271	65535	64633.5
837.2472	791.6966	65535	64633.85
837.3922	793.7654	65535	64636.6
837.5373	795.8335	65535	64637.45
837.6823	797.901	65535	64633.5
837.8274	799.9678	65535	64634.65
837.9724	802.0339	65535	64635.45
838.1175	804.0993	65535	64625.55
838.2626	806.1641	65535	64635.15
838.4076	808.2282	65535	64637
838.5527	810.2916	65535	64632.45
838.6978	812.3544	65535	64636.7
838.8428	814.4164	65535	64634.95
838.9879	816.4778	65535	64631.65
839.133	818.5385	65535	64631.7
839.2781	820.5986	65535	64633.15
839.4232	822.658	65535	64630.85
839.5682	824.7166	65535	64636.9
839.7133	826.7747	65535	64631.35
839.8584	828.832	65535	64633.2
840.0035	830.8886	65535	64631
840.1486	832.9446	65535	64633.05
840.2937	834.9999	65535	64634
840.4388	837.0545	65535	64629.1
840.5839	839.1085	65535	64630.25
840.729	841.1618	65535	64627.25
840.8741	843.2143	65535	64631.6
841.0192	845.2662	65535	64635
841.1643	847.3175	65535	64634.1
841.3095	849.368	65535	64631.25
841.4546	851.4179	65535	64633.65
841.5997	853.467	65535	64634.4
841.7448	855.5155	65535	64633.45
841.8899	857.5633	65535	64632.75
842.0351	859.6105	65535	64630.2
842.1802	861.6569	65535	64632.5
842.3253	863.7027	65535	64632.6
842.4704	865.7478	65535	64631.1
842.6156	867.7922	65535	64629.55
842.7607	869.8359	65535	64632.8
842.9058	871.8789	65535	64629.65
843.0509	873.9212	65535	64598.15
843.1961	875.9629	65535	64632.55
843.3412	878.0039	65535	64631.05
843.4863	880.0441	65535	64630.35
843.6315	882.0837	65535	64632.7
843.7766	884.1226	65535	64628.4
843.9218	886.1609	65535	64635.2
844.0669	888.1984	65535	64631.8
844.212	890.2352	65535	64631.05
844.3572	892.2714	65535	64627.3
844.5023	894.3069	65535	64630.2
844.6475	896.3416	65535	64630.4
844.7926	898.3757	65535	64629.85
844.9377	900.4091	65535	64631.4
845.0829	902.4418	65535	64624.1
845.228	904.4739	65535	64625.55
845.3732	906.5052	65535	64630.3
845.5183	908.5358	65535	64630.2
845.6635	910.5658	65535	64629.5
845.8086	912.595	65535	64629.5
845.9538	914.6236	65535	64631.25
846.0989	916.6515	65535	64629.25
846.2441	918.6786	65535	64626.4
846.3892	920.7051	65535	64630.1
846.5344	922.7309	65535	64630.7
846.6795	924.756	65535	64626.7
846.8246	926.7804	65535	64629.95
846.9698	928.8041	65535	64628.6
847.1149	930.8272	65535	64629.35
847.2601	932.8495	65535	64627.25
847.4052	934.8711	65535	64628.4
847.5504	936.892	65535	64629.45
847.6955	938.9123	65535	64627.15
847.8407	940.9318	65535	64628.05
847.9858	942.9506	65535	64627.7
848.131	944.9688	65535	64630.4
848.2761	946.9862	65535	64629.7
848.4213	949.003	65535	64628.1
848.5664	951.019	65535	64631.7
848.7115	953.0344	65535	64627.85
848.8567	955.0491	65535	64625
849.0018	957.063	65535	64628.85
849.147	959.0763	65535	64630.95
849.2921	961.0888	65535	64623.7
849.4373	963.1007	65535	64630.9
849.5824	965.1119	65535	64630.4
849.7275	967.1223	65535	64632.45
849.8727	969.1321	65535	64635.3
850.0178	971.1412	65535	64633.6
850.1629	973.1495	65535	64631
850.3081	975.1572	65535	64596.85
850.4532	977.1641	65535	64629.8
850.5983	979.1704	65535	64627.9
850.7435	981.1759	65535	64623.85
850.8886	983.1808	65535	64628.1
851.0337	985.1849	65535	64620.2
851.1788	987.1884	65535	64625.6
851.324	989.1911	65535	64628.7
851.4691	991.1932	65535	64629.2
851.6142	993.1945	65535	64630.85
851.7593	995.1951	65535	64629.8
851.9045	997.1951	65535	64623.85
852.0496	999.1943	65535	64628.85
852.1947	1001.1928	65535	64626.1
852.3398	1003.1906	65535	64627.25
852.4849	1005.1877	65535	64626
852.63	1007.1841	65535	64630.35
852.7751	1009.1798	65535	64628.75
852.9202	1011.1748	65535	64627.85
853.0653	1013.1691	65535	64629.2
853.2104	1015.1627	65535	64630.3
853.3555	1017.1556	65535	64627.15
853.5006	1019.1477	65535	64627.9
853.6457	1021.1392	65535	64631.75
853.7908	1023.1299	65535	64633.1
853.9359	1025.12	65535	64629.25
854.081	1027.1093	65535	64633.95
854.2261	1029.0979	65535	64635.45
854.3712	1031.0859	65535	64633.55
854.5163	1033.0731	65535	64633.45
854.6613	1035.0596	65535	64632.55
854.8064	1037.0454	65535	64630
854.9515	1039.0304	65535	64630.5
855.0965	1041.0148	65535	64630.25
855.2416	1042.9985	65535	64628.8
855.3867	1044.9814	65535	64631.4
855.5317	1046.9636	65535	64625.8
855.6768	1048.9452	65535	64630.4
855.8219	1050.926	65535	64632.95
855.9669	1052.9061	65535	64632.5
856.112	1054.8855	65535	64631.25
856.257	1056.8642	65535	64630
856.4021	1058.8421	65535	64624.65
856.5471	1060.8194	65535	64626.6
856.6921	1062.7959	65535	64629.1
856.8372	1064.7717	65535	64628.8
856.9822	1066.7469	65535	64630.05
857.1272	1068.7213	65535	64624.65
857.2723	1070.695	65535	64626.6
857.4173	1072.6679	65535	64629.15
857.5623	1074.6402	65535	64628.3
857.7073	1076.6117	65535	64625.4
857.8523	1078.5826	65535	64629.65
857.9973	1080.5527	65535	64626.5
858.1423	1082.5221	65535	64629.05
858.2873	1084.4908	65535	64626.7
858.4323	1086.4587	65535	64628.8
858.5773	1088.426	65535	64628.9
858.7223	1090.3925	65535	64625.05
858.8673	1092.3584	65535	64630.55
859.0123	1094.3235	65535	64631.3
859.1573	1096.2879	65535	64629.55
859.3022	1098.2515	65535	64628.65
859.4472	1100.2145	65535	64627.85
859.5922	1102.1767	65535	64625.85
859.7371	1104.1382	65535	64628.9
859.8821	1106.099	65535	64626.4
860.027	1108.0591	65535	64630.5
860.172	1110.0185	65535	64626.6
860.3169	1111.9771	65535	64631.15
860.4619	1113.9351	65535	64630.25
860.6068	1115.8923	65535	64627.15
860.7517	1117.8488	65535	64628.05
860.8967	1119.8045	65535	64629.05
861.0416	1121.7596	65535	64628.3
861.1865	1123.7139	65535	64630.85
861.3314	1125.6675	65535	64629.95
861.4763	1127.6204	65535	64628.05
861.6212	1129.5726	65535	64628.1
861.7661	1131.524	65535	64632.95
861.911	1133.4748	65535	64629.6
862.0559	1135.4248	65535	64626.55
862.2008	1137.3741	65535	64629
862.3457	1139.3226	65535	64628.8
862.4905	1141.2705	65535	64629.35
862.6354	1143.2176	65535	64622.7
862.7803	1145.164	65535	64629.25
862.9251	1147.1097	65535	64630.35
863.07	1149.0546	65535	64628.8
863.2148	1150.9989	65535	64628.95
863.3597	1152.9424	65535	64628.55
863.5045	1154.8852	65535	64628.95
863.6493	1156.8272	65535	64630.7
863.7942	1158.7686	65535	64622.7
863.939	1160.7092	65535	64628.15
864.0838	1162.6491	65535	64628.1
864.2286	1164.5883	65535	64630.1
864.3734	1166.5267	65535	64629.85
864.5182	1168.4644	65535	64631.45
864.663	1170.4014	65535	64625.35
864.8078	1172.3377	65535	64631.4
864.9526	1174.2732	65535	64632.4
865.0974	1176.2081	65535	64632.05
865.2421	1178.1421	65535	64627.05
865.3869	1180.0755	65535	64629.05
865.5317	1182.0082	65535	64629.65
865.6764	1183.9401	65535	64633.3
865.8212	1185.8713	65535	64632.25
865.9659	1187.8017	65535	64630.6
866.1106	1189.7315	65535	64634.15
866.2554	1191.6605	65535	64608.7
866.4001	1193.5888	65535	64630.95
866.5448	1195.5163	65535	64629.85
866.6895	1197.4432	65535	64629.65
866.8342	1199.3693	65535	64630.55
866.9789	1201.2947	65535	64629.7
867.1236	1203.2193	65535	64629.15
867.2683	1205.1432	65535	64628.8
867.413	1207.0664	65535	64632.3
867.5576	1208.9889	65535	64628.2
867.7023	1210.9106	65535	64630.15
867.847	1212.8316	65535	64631.6
867.9916	1214.7519	65535	64622.1
868.1363	1216.6715	65535	64629.35
868.2809	1218.5903	65535	64633
868.4255	1220.5084	65535	64632.65
868.5701	1222.4257	65535	64631.9
868.7148	1224.3424	65535	64632.5
868.8594	1226.2583	65535	64629.75
869.004	1228.1735	65535	64629.95
869.1486	1230.0879	65535	64629.1
869.2932	1232.0016	65535	64631.65
869.4377	1233.9146	65535	64629.4
869.5823	1235.8269	65535	64632.75
869.7269	1237.7384	65535	64631.3
869.8715	1239.6492	65535	64631.55
870.016	1241.5592	65535	64628.55
870.1606	1243.4686	65535	64630.1
870.3051	1245.3772	65535	64630.85
870.4496	1247.285	65535	64630.75
870.5941	1249.1922	65535	64629.75
870.7387	1251.0986	65535	64631.15
870.8832	1253.0042	65535	64630.35
871.0277	1254.9092	65535	64633.8
871.1722	1256.8134	65535	64632.45
871.3167	1258.7169	65535	64630.15
871.4611	1260.6196	65535	64632.05
871.6056	1262.5216	65535	64630.15
871.7501	1264.4229	65535	64631.75
871.8945	1266.3234	65535	64631.45
872.039	1268.2232	65535	64631.35
872.1834	1270.1223	65535	64628.8
872.3278	1272.0207	65535	64627.4
872.4723	1273.9183	65535	64621.8
872.6167	1275.8151	65535	64631.55
872.7611	1277.7113	65535	64630.85
872.9055	1279.6067	65535	64632.4
873.0499	1281.5014	65535	64627.6
873.1943	1283.3953	65535	64628.25
873.3386	1285.2885	65535	64633.5
873.483	1287.181	65535	64629.25
873.6274	1289.0727	65535	64632.9
873.7717	1290.9637	65535	64630.2
873.9161	1292.854	65535	64631.75
874.0604	1294.7435	65535	64628.75
874.2047	1296.6323	65535	64630.85
874.349	1298.5204	65535	64628.5
874.4933	1300.4077	65535	64629.6
874.6376	1302.2943	65535	64633
874.7819	1304.1802	65535	64634.25
874.9262	1306.0653	65535	64630.2
875.0705	1307.9497	65535	64632.3
875.2147	1309.8333	65535	64632.55
875.359	1311.7162	65535	64632.45
875.5032	1313.5984	65535	64628.65
875.6475	1315.4798	65535	64615.5
875.7917	1317.3605	65535	64615.1
875.9359	1319.2405	65535	64629.85
876.0801	1321.1197	65535	64630.2
876.2243	1322.9982	65535	64628.65
876.3685	1324.876	65535	64629.75
876.5127	1326.753	65535	64628.55
876.6569	1328.6293	65535	64629.9
876.801	1330.5048	65535	64628.15
876.9452	1332.3796	65535	64632.45
877.0893	1334.2537	65535	64605.2
877.2335	1336.127	65535	64631.7
877.3776	1337.9996	65535	64631.45
877.5217	1339.8714	65535	64631.8
877.6658	1341.7426	65535	64583.85
877.8099	1343.6129	65535	64632.2
877.954	1345.4826	65535	64632.5
878.0981	1347.3515	65535	64628.3
878.2422	1349.2196	65535	64629
878.3862	1351.087	65535	64630.55
878.5303	1352.9537	65535	64628.65
878.6743	1354.8197	65535	64632.55
878.8184	1356.6849	65535	64631.8
878.9624	1358.5493	65535	64631.95
879.1064	1360.4131	65535	64632.25
879.2504	1362.276	65535	64632.45
879.3944	1364.1383	65535	64630.95
879.5384	1365.9998	65535	64628
879.6823	1367.8606	65535	64629.1
879.8263	1369.7206	65535	64631.9
879.9702	1371.5799	65535	64630.45
880.1142	1373.4384	65535	64629.7
880.2581	1375.2962	65535	64630.2
880.402	1377.1533	65535	64631.4
880.5459	1379.0096	65535	64631.35
880.6898	1380.8652	65535	64633.95
880.8337	1382.7201	65535	64632.2
880.9776	1384.5742	65535	64630.65
881.1215	1386.4275	65535	64627.4
881.2653	1388.2802	65535	64632.85
881.4092	1390.132	65535	64632.55
881.553	1391.9832	65535	64631.05
881.6968	1393.8336	65535	64630.45
881.8406	1395.6832	65535	64631.7
881.9844	1397.5322	65535	64632
882.1282	1399.3803	65535	64625.4
882.272	1401.2278	65535	64632.45
882.4158	1403.0745	65535	64631.6
882.5595	1404.9204	65535	64631.8
882.7033	1406.7656	65535	64632.3
882.847	1408.6101	65535	64629.25
882.9908	1410.4538	65535	64632.05
883.1345	1412.2968	65535	64630.15
883.2782	1414.139	65535	64630.65
883.4219	1415.9805	65535	64633.05
883.5656	1417.8213	65535	64625
883.7092	1419.6613	65535	64631.3
883.8529	1421.5006	65535	64630.3
883.9965	1423.3391	65535	64631.25
884.1402	1425.1769	65535	64629.6
884.2838	1427.0139	65535	64632.8
884.4274	1428.8502	65535	64630.2
884.571	1430.6858	65535	64633.15
884.7146	1432.5206	65535	64629.65
884.8582	1434.3547	65535	64632.4
885.0018	1436.188	65535	64632.4
885.1453	1438.0206	65535	64630.95
885.2889	1439.8524	65535	64631.25
885.4324	1441.6835	65535	64630.75
885.5759	1443.5139	65535	64630.65
885.7194	1445.3435	65535	64634.65
885.8629	1447.1724	65535	64634.8
886.0064	1449.0005	65535	64633.3
886.1499	1450.8279	65535	64631.85
886.2933	1452.6545	65535	64632.15
886.4368	1454.4804	65535	64635.25
886.5802	1456.3056	65535	64624.05
886.7237	1458.13	65535	64634.25
886.8671	1459.9536	65535	64631.8
887.0105	1461.7766	65535	64630.5
887.1539	1463.5987	65535	64631.6
887.2972	1465.4202	65535	64634.4
887.4406	1467.2409	65535	64633.25
887.584	1469.0608	65535	64631.8
887.7273	1470.88	65535	64632.4
887.8706	1472.6984	65535	64633.1
888.0139	1474.5161	65535	64630.45
888.1572	1476.3331	65535	64634.05
888.3005	1478.1493	65535	64631.3
888.4438	1479.9648	65535	64632.1
888.5871	1481.7795	65535	64632.95
888.7303	1483.5935	65535	64632.8
888.8736	1485.4067	65535	64631.55
889.0168	1487.2192	65535	64631.75
889.16	1489.031	65535	64628.85
889.3032	1490.842	65535	64633.6
889.4464	1492.6522	65535	64633.2
889.5896	1494.4618	65535	64633.7
889.7327	1496.2705	65535	64634.8
889.8759	1498.0785	65535	64630.8
890.019	1499.8858	65535	64632.65
890.1622	1501.6924	65535	64633.45
890.3053	1503.4981	65535	64632.2
890.4484	1505.3032	65535	64632.05
890.5914	1507.1075	65535	64634.3
890.7345	1508.911	65535	64634.45
890.8776	1510.7138	65535	64631.5
891.0206	1512.5159	65535	64632.35
891.1637	1514.3172	65535	64630.75
891.3067	1516.1178	65535	64634.25
891.4497	1517.9176	65535	64632.15
891.5927	1519.7166	65535	64634.75
891.7357	1521.515	65535	64626.5
891.8786	1523.3126	65535	64632.7
892.0216	1525.1094	65535	64632.1
892.1645	1526.9055	65535	64636.15
892.3074	1528.7008	65535	64634.5
892.4503	1530.4954	65535	64626.65
892.5932	1532.2893	65535	64634.95
892.7361	1534.0824	65535	64627.95
892.879	1535.8747	65535	64632.95
893.0218	1537.6663	65535	64634.8
893.1647	1539.4572	65535	64633.15
893.3075	1541.2473	65535	64632.1
893.4503	1543.0367	65535	64632.9
893.5931	1544.8253	65535	64629.25
893.7359	1546.6132	65535	64633.15
893.8787	1548.4003	65535	64624.7
894.0214	1550.1867	65535	64624
894.1642	1551.9723	65535	64630.65
894.3069	1553.7572	65535	64634.65
894.4496	1555.5414	65535	64633.55
894.5923	1557.3247	65535	64633.8
894.735	1559.1074	65535	64637.25
894.8777	1560.8893	65535	64635.4
895.0204	1562.6705	65535	64635.85
895.163	1564.4509	65535	64637.15
895.3056	1566.2305	65535	64637.15
895.4482	1568.0094	65535	64637.1
895.5908	1569.7876	65535	64637.4
895.7334	1571.565	65535	64633.8
895.876	1573.3417	65535	64633.9
896.0186	1575.1176	65535	64636.4
896.1611	1576.8928	65535	64636.9
896.3036	1578.6672	65535	64639.35
896.4461	1580.4409	65535	64637.35
896.5886	1582.2138	65535	64634.8
896.7311	1583.986	65535	64635.95
896.8736	1585.7575	65535	64639.6
897.0161	1587.5282	65535	64638.45
897.1585	1589.2981	65535	64638
897.3009	1591.0673	65535	64636.65
897.4433	1592.8358	65535	64636.4
897.5857	1594.6035	65535	64634.8
897.7281	1596.3704	65535	64636.15
897.8705	1598.1366	65535	64637.7
898.0128	1599.9021	65535	64637.85
898.1551	1601.6668	65535	64634.85
898.2975	1603.4308	65535	64634.35
898.4398	1605.194	65535	64632.7
898.5821	1606.9564	65535	64637.05
898.7243	1608.7182	65535	64635.55
898.8666	1610.4791	65535	64639.55
899.0088	1612.2394	65535	64641.5
899.1511	1613.9988	65535	64638.45
899.2933	1615.7576	65535	64636.55
899.4355	1617.5156	65535	64632.95
899.5776	1619.2728	65535	64637.8
899.7198	1621.0293	65535	64636.7
899.862	1622.785	65535	64634.5
900.0041	1624.54	65535	64635.75
900.1462	1626.2942	65535	64639.2
900.2883	1628.0477	65535	64634.55
900.4304	1629.8005	65535	64634.75
900.5725	1631.5525	65535	64639.55
900.7145	1633.3037	65535	64635.9
900.8566	1635.0542	65535	64639.9
900.9986	1636.804	65535	64637.8
901.1406	1638.553	65535	64547
901.2826	1640.3013	65535	64637.95
901.4245	1642.0488	65535	64638.15
901.5665	1643.7955	65535	64642.15
901.7085	1645.5416	65535	64640.25
901.8504	1647.2868	65535	64638.45
901.9923	1649.0313	65535	64638.5
902.1342	1650.7751	65535	64635.9
902.2761	1652.5181	65535	64638.7
902.4179	1654.2604	65535	64638.15
902.5598	1656.0019	65535	64640.8
902.7016	1657.7427	65535	64637.9
902.8434	1659.4828	65535	64639.85
902.9852	1661.222	65535	64639.2
903.127	1662.9606	65535	64639.45
903.2687	1664.6984	65535	64638.65
903.4105	1666.4354	65535	64638.7
903.5522	1668.1717	65535	64637.75
903.6939	1669.9072	65534.9	64638.8
903.8356	1671.642	65535	64638.1
903.9773	1673.3761	65534.55	64638.8
904.119	1675.1094	65531.2	64635.8
904.2606	1676.8419	65514.75	64618.05
904.4022	1678.5737	65526.95	64631.25
904.5439	1680.3048	65516.75	64621.25
904.6855	1682.0351	65507.55	64611.15
904.827	1683.7646	65488.7	64587.9
904.9686	1685.4934	65515.35	64620.2
905.1101	1687.2215	65420.5	64524.2
905.2517	1688.9488	65497.7	64603.45
905.3932	1690.6754	65299.5	64406.5
905.5347	1692.4012	65433.15	64537.55
905.6761	1694.1263	65445.6	64550.4
905.8176	1695.8506	65333.65	64435.95
905.9591	1697.5742	65373.95	64479.5
906.1005	1699.297	65346.05	64450.9
906.2419	1701.0191	65367.15	64474.55
906.3833	1702.7404	65128	64234.7
906.5246	1704.461	64977.35	64079.45
906.666	1706.1808	65270.65	64371.9
906.8073	1707.8999	65123.55	64229.1
906.9487	1709.6182	65067.6	64174.4
907.09	1711.3358	65008	64114.15
907.2313	1713.0527	64947.15	64053.05
907.3725	1714.7688	64995.6	64093.8
907.5138	1716.4841	64403.45	63506.05
907.655	1718.1987	64644.95	63746.2
907.7962	1719.9126	64453.75	63563.35
907.9374	1721.6257	64660.8	63762.7
908.0786	1723.338	64671.25	63774.4
908.2198	1725.0496	63709.15	62815.9
908.3609	1726.7605	63864.2	62969.25
908.502	1728.4706	63432.55	62538.75
908.6431	1730.18	64008.9	63113.65
908.7842	1731.8886	63388.15	62493.7
908.9253	1733.5964	63093.85	62178.6
909.0664	1735.3036	63774.8	62876.2
909.2074	1737.0099	63201.75	62308.1
909.3484	1738.7156	62715.2	61822.15
909.4894	1740.4204	62567.65	61672.25
909.6304	1742.1246	62819.05	61922.9
909.7714	1743.8279	62979.4	62086.2
909.9123	1745.5306	62801.8	61908.45
910.0532	1747.2325	61224.65	60329.3
910.1941	1748.9336	61255.7	60362.95
910.335	1750.634	61696.25	60798.75
910.4759	1752.3336	62167.75	61272.45
910.6168	1754.0325	61044.75	60151.95
910.7576	1755.7307	62082.6	61189.35
910.8984	1757.4281	60660.7	59768
911.0392	1759.1247	61691	60789
911.18	1760.8206	60248.85	59348.75
911.3208	1762.5158	60337.1	59440.1
911.4615	1764.2102	60714.3	59821.4
911.6022	1765.9039	60384.5	59490.65
911.7429	1767.5968	60149.65	59256.75
911.8836	1769.289	59966.75	59072.25
912.0243	1770.9804	60105.95	59210.45
912.1649	1772.6711	59829.5	58934.95
912.3056	1774.361	59578.8	58683.1
912.4462	1776.0502	59618.95	58725.15
912.5868	1777.7386	58727.95	57831.3
912.7274	1779.4263	59104.75	58211.05
912.8679	1781.1132	59106.2	58211.35
913.0084	1782.7994	58830.3	57936.05
913.149	1784.4849	58961.3	58068.55
913.2895	1786.1696	57832.5	56933.65
913.4299	1787.8535	58402.45	57510.6
913.5704	1789.5367	58514.35	57622.25
913.7108	1791.2192	57890.5	56998.45
913.8513	1792.9009	57519.65	56595.85
913.9917	1794.5818	57908.7	57011.65
914.132	1796.2621	57384.9	56493.8
914.2724	1797.9415	57349.3	56454.7
914.4128	1799.6202	57293.95	56401.3
914.5531	1801.2982	57369.95	56476.15
914.6934	1802.9755	56719.6	55825.8
914.8337	1804.6519	56596.05	55701.35
914.9739	1806.3277	57232	56338.3
915.1142	1808.0027	55954.45	55061.4
915.2544	1809.6769	56303.8	55409.9
915.3946	1811.3504	56429.75	55536.4
915.5348	1813.0231	55532.35	54637
915.675	1814.6951	56017.8	55125.45
915.8151	1816.3664	55653.35	54757.7
915.9553	1818.0369	55632.9	54738.55
916.0954	1819.7067	55371.9	54477
916.2355	1821.3757	55865	54968.65
916.3755	1823.044	55054.85	54162.9
916.5156	1824.7115	54797.25	53903.8
916.6556	1826.3783	54889.85	53997.65
916.7956	1828.0443	54744.8	53854.1
916.9356	1829.7096	54481.8	53587
917.0756	1831.3741	54214.25	53317.4
917.2155	1833.0379	54284.4	53391.65
917.3555	1834.701	54213.85	53319.9
917.4954	1836.3633	53845.15	52951.9
917.6353	1838.0248	53972.5	53078.55
917.7751	1839.6856	53818.65	52926.45
917.915	1841.3457	53463.6	52572.6
918.0548	1843.005	53747.85	52855.8
918.1946	1844.6636	53488.9	52595.55
918.3344	1846.3214	53105.3	52212.3
918.4742	1847.9785	53154.55	52261.6
918.6139	1849.6349	53022.45	52127.6
918.7537	1851.2904	53100.55	52198.65
918.8934	1852.9453	52622.55	51728.55
919.0331	1854.5994	52621.55	51728.05
919.1727	1856.2528	52733.55	51835.65
919.3124	1857.9054	52372.2	51478.65
919.452	1859.5572	52295.05	51403.35
919.5916	1861.2083	52235.4	51339.45
919.7312	1862.8587	52522	51628.6
919.8708	1864.5084	51783.8	50887.9
920.0103	1866.1572	51892.4	50999.9
920.1498	1867.8054	51420.95	50528.15
920.2893	1869.4528	51671	50776.65
920.4288	1871.0994	51237	50344.05
920.5683	1872.7453	51204	50310.85
920.7077	1874.3905	51199.8	50298.75
920.8471	1876.0349	50867	49973.3
920.9865	1877.6786	50964.15	50071.45
921.1259	1879.3215	50826.15	49933.65
921.2653	1880.9637	50763.1	49868.45
921.4046	1882.6051	50524.95	49632.45
921.5439	1884.2458	50390.4	49496.25
921.6832	1885.8858	50128.85	49236.4
921.8225	1887.525	50118.85	49226.6
921.9617	1889.1634	49888.6	48995.1
922.101	1890.8011	49752	48859.8
922.2402	1892.4381	49461.05	48568.4
922.3794	1894.0743	49632.75	48741.95
922.5185	1895.7098	49426.7	48533.7
922.6577	1897.3446	49180.05	48284.85
922.7968	1898.9786	49207.05	48309.1
922.9359	1900.6118	49016.2	48124.05
923.075	1902.2443	48705.55	47810.25
923.214	1903.8761	48745	47851.2
923.3531	1905.5071	48417.75	47523.8
923.4921	1907.1374	48201.3	47308.2
923.6311	1908.7669	48139.8	47245.7
923.77	1910.3957	48134.2	47241.75
923.909	1912.0237	47719.5	46825.65
924.0479	1913.651	47583.6	46689.25
924.1868	1915.2776	47467.85	46574.9
924.3257	1916.9034	47337.9	46447.25
924.4646	1918.5285	47078.8	46188.6
924.6034	1920.1528	46870.4	45975
924.7422	1921.7764	46839.7	45947.95
924.881	1923.3992	46608.65	45715.3
925.0198	1925.0213	46337.9	45446.15
925.1586	1926.6427	46128.2	45236.3
925.2973	1928.2633	46151.75	45151.35
925.436	1929.8832	45956.15	45061
925.5747	1931.5023	45672.15	44781.6
925.7134	1933.1207	45567.6	44675.35
925.852	1934.7383	45546.3	44652.9
925.9906	1936.3552	45357.65	44464
926.1292	1937.9714	45226.15	44334.75
926.2678	1939.5868	45032.9	44137.35
926.4064	1941.2015	44718.7	43825.1
926.5449	1942.8154	44615	43722.65
926.6834	1944.4286	44392.85	43499.85
926.8219	1946.041	44224.95	43313.4
926.9604	1947.6528	43982.2	43084.05
927.0988	1949.2637	43974.2	43083
927.2372	1950.8739	43774.45	42882.35
927.3756	1952.4834	43713.1	42818.8
927.514	1954.0921	43626.3	42734.2
927.6523	1955.7001	43397.7	42500.6
927.7907	1957.3074	43274	42381.6
927.929	1958.9139	43064.3	42172.7
928.0673	1960.5197	43011.2	42117.35
928.2055	1962.1247	42762.15	41870.55
928.3438	1963.729	42509.15	41618.6
928.482	1965.3325	42398.2	41482.5
928.6202	1966.9353	42266.3	41374.75
928.7584	1968.5374	42128.55	41236.05
928.8965	1970.1387	41951.15	41058.25
929.0346	1971.7393	41834.4	40942.45
929.1727	1973.3392	41660.25	40768
929.3108	1974.9383	41553.3	40661.75
929.4489	1976.5366	41311.2	40421.15
929.5869	1978.1342	41264.75	40372
929.7249	1979.7311	41122.55	40230.35
929.8629	1981.3273	41041.6	40148.35
930.0009	1982.9227	40911.35	40019.75
930.1388	1984.5173	40761.9	39869.25
930.2767	1986.1112	40565.85	39675.25
930.4146	1987.7044	40514.4	39624.75
930.5525	1989.2968	40272.25	39379.5
930.6904	1990.8885	40212.9	39316.85
930.8282	1992.4795	40061.5	39168.9
930.966	1994.0697	39957.1	39063.95
931.1038	1995.6592	39806.55	38916.1
931.2415	1997.2479	39627.9	38736.3
931.3793	1998.8359	39553.5	38663.25
931.517	2000.4232	39340.95	38452.95
931.6547	2002.0097	39224.15	38335.6
931.7923	2003.5955	38990.05	38096.4
931.93	2005.1805	39041.95	38148.25
932.0676	2006.7648	38891.8	37999.95
932.2052	2008.3484	38762.2	37869.5
932.3427	2009.9312	38752.7	37860.5
932.4803	2011.5133	38568.65	37678.95
932.6178	2013.0946	38439.35	37548.35
932.7553	2014.6752	38327	37439.7
932.8928	2016.2551	38240.8	37350.1
933.0302	2017.8342	38066.25	37175.05
933.1676	2019.4126	37912.05	37021.6
933.305	2020.9902	37742.45	36853.4
933.4424	2022.5672	37680.75	36789.3
933.5798	2024.1433	37597.8	36703.45
933.7171	2025.7188	37445.3	36555.5
933.8544	2027.2935	37303.75	36412.7
933.9917	2028.8674	37133.05	36242.45
934.129	2030.4406	37055.9	36166.35
934.2662	2032.0131	36865.4	35973.85
934.4034	2033.5849	36776.5	35877.25
934.5406	2035.1559	36693.8	35802.1
934.6778	2036.7261	36660.9	35770.75
934.8149	2038.2957	36492.6	35601.4
934.952	2039.8645	36377.9	35486.15
935.0891	2041.4325	36423	35528.05
935.2262	2042.9998	36245.9	35356.3
935.3632	2044.5664	36153.8	35261.3
935.5002	2046.1323	35993.55	35104.1
935.6372	2047.6974	35904.85	35014.65
935.7742	2049.2617	35773.2	34882
935.9111	2050.8254	35759.45	34848.3
936.048	2052.3883	35739	34847.35
936.1849	2053.9504	35553.8	34662.25
936.3218	2055.5118	35396.95	34506.55
936.4586	2057.0725	35264.55	34370.05
936.5955	2058.6325	35205.8	34316.8
936.7323	2060.1917	35051.7	34161.7
936.869	2061.7502	34946.5	34053.9
937.0058	2063.3079	34854.05	33964.2
937.1425	2064.8649	34704.9	33813.15
937.2792	2066.4212	34611.05	33719.85
937.4159	2067.9767	34516.75	33625
937.5525	2069.5315	34381.7	33488.65
937.6891	2071.0856	34181.05	33290.5
937.8257	2072.6389	34069.1	33177.35
937.9623	2074.1915	33908.5	33019.95
938.0989	2075.7433	33730.95	32838.2
938.2354	2077.2945	33704.05	32814.85
938.3719	2078.8448	33554	32663.25
938.5084	2080.3945	33458.9	32567.65
938.6448	2081.9434	33374.4	32482.45
938.7812	2083.4916	33246.6	32355.1
938.9176	2085.039	33126.95	32233.1
939.054	2086.5857	33058.45	32167.2
939.1903	2088.1317	32922.5	32029.9
939.3267	2089.677	32883.25	31993.9
939.463	2091.2215	32809.65	31917.5
939.5992	2092.7652	32652	31759.85
939.7355	2094.3083	32563.1	31671.3
939.8717	2095.8506	32510.05	31620.3
940.0079	2097.3921	32517.75	31626.35
940.1441	2098.933	32363.45	31473.05
940.2802	2100.4731	32265.3	31372.05
940.4163	2102.0124	32209.8	31309.95
940.5524	2103.5511	32135.25	31242.2
940.6885	2105.089	32031.25	31140.85
940.8245	2106.6261	31985.6	31094.25
940.9606	2108.1626	31876.8	30985.45
941.0965	2109.6983	31803.75	30883.95
941.2325	2111.2332	31636.3	30744.8
941.3684	2112.7675	31559.1	30666.75
941.5044	2114.301	31507	30614
941.6403	2115.8337	31457.65	30566.1
941.7761	2117.3657	31337.7	30445.7
941.912	2118.897	31240.65	30349.35
942.0478	2120.4276	31092.7	30193.75
942.1835	2121.9575	30975.4	30084.45
942.3193	2123.4866	30985.85	30082.7
942.455	2125.0149	30866.35	29973.15
942.5907	2126.5426	30659.4	29768
942.7264	2128.0695	30620.5	29725.8
942.8621	2129.5956	30525.6	29634.8
942.9977	2131.1211	30470.2	29575.4
943.1333	2132.6458	30394.2	29503.05
943.2689	2134.1698	30331.65	29441.2
943.4044	2135.693	30205.3	29309.8
943.54	2137.2155	30150.2	29256.2
943.6755	2138.7373	30069.4	29178.2
943.8109	2140.2584	29946.6	29057.5
943.9464	2141.7787	29848.1	28951.25
944.0818	2143.2983	29726.7	28837.7
944.2172	2144.8171	29583.6	28693.55
944.3526	2146.3353	29522.15	28630.65
944.4879	2147.8527	29351.95	28460.95
944.6232	2149.3693	29392.1	28499.25
944.7585	2150.8853	29219.3	28329.35
944.8938	2152.4005	29043.35	28150.5
945.029	2153.9149	29026.9	28135.75
945.1642	2155.4287	28918.7	28029.7
945.2994	2156.9417	28855.8	27963.9
945.4346	2158.454	28779.7	27886.5
945.5697	2159.9655	28659.45	27767.85
945.7048	2161.4764	28646.9	27755.3
945.8399	2162.9865	28562.4	27671.7
945.9749	2164.4958	28466.4	27574.55
946.1099	2166.0045	28344.1	27449.65
946.2449	2167.5124	28322.3	27432.95
946.3799	2169.0195	28217.15	27323.55
946.5148	2170.526	28190.6	27298.05
946.6498	2172.0317	28104.25	27212.9
946.7846	2173.5367	28008.4	27115.8
946.9195	2175.0409	27945.75	27054.95
947.0543	2176.5445	27916.45	27027.25
947.1891	2178.0473	27742.1	26852.2
947.3239	2179.5494	27640.4	26744.25
947.4587	2181.0507	27520.1	26627.4
947.5934	2182.5513	27443.6	26552
947.7281	2184.0512	27443.9	26553.15
947.8628	2185.5504	27343.8	26452.3
947.9974	2187.0488	27111.2	26221.35
948.132	2188.5465	27040.3	26149.9
948.2666	2190.0435	26993.25	26101.4
948.4012	2191.5397	26880.85	25991.5
948.5357	2193.0353	26770.55	25878.5
948.6702	2194.5301	26620.4	25727.1
948.8047	2196.0241	26536.55	25644.15
948.9392	2197.5175	26494.65	25603.55
949.0736	2199.0101	26385.25	25490.05
949.208	2200.502	26235.45	25345.05
949.3424	2201.9931	26105.1	25217.35
949.4767	2203.4835	26017.6	25126.45
949.611	2204.9733	26007	25110.35
949.7453	2206.4622	25911.1	25020.15
949.8796	2207.9505	25801.25	24905.95
950.0138	2209.438	25640.95	24751.7
950.148	2210.9248	25582.4	24688.6
950.2822	2212.4109	25507.1	24616.4
950.4164	2213.8962	25421.35	24527.85
950.5505	2215.3809	25366.9	24474.3
950.6846	2216.8648	25281.55	24389
950.8186	2218.3479	25188.8	24292.75
950.9527	2219.8304	25064.55	24170.45
951.0867	2221.3121	24989.6	24096.7
951.2207	2222.7931	24909.05	24018.9
951.3546	2224.2733	24839.75	23947.85
951.4886	2225.7529	24722.6	23831.05
951.6225	2227.2317	24650.4	23757.8
951.7563	2228.7098	24613.9	23723
951.8902	2230.1872	24485.8	23595.9
952.024	2231.6638	24451.35	23560.6
952.1578	2233.1397	24304.25	23405.8
952.2916	2234.6149	24255.5	23362.9
952.4253	2236.0894	24165.55	23274.7
952.559	2237.5632	24084.6	23191.1
952.6927	2239.0362	23960.95	23067.75
952.8263	2240.5085	23914.65	23022.95
952.9599	2241.9801	23833.7	22941.1
953.0935	2243.4509	23757.95	22868.2
953.2271	2244.921	23711.3	22820.25
953.3606	2246.3904	23590.25	22695.8
953.4941	2247.8591	23546.5	22655.25
953.6276	2249.3271	23482.05	22592.2
953.7611	2250.7943	23333.55	22442.45
953.8945	2252.2608	23261.15	22369.65
954.0279	2253.7266	23206.35	22316.2
954.1612	2255.1917	23166.8	22275.15
954.2946	2256.656	22986.8	22095.9
954.4279	2258.1197	22916.45	22027.75
954.5612	2259.5826	22866.8	21973.6
954.6944	2261.0447	22858.5	21965.25
954.8276	2262.5062	22759.05	21865.9
954.9608	2263.9669	22692.75	21799.3
955.094	2265.4269	22675.4	21783.7
955.2271	2266.8862	22573.1	21683.85
955.3602	2268.3448	22533.9	21641.95
955.4933	2269.8026	22453.45	21562.85
955.6264	2271.2598	22344.7	21454.5
955.7594	2272.7162	22290.7	21402.75
955.8924	2274.1719	22243.6	21350.5
956.0253	2275.6268	22142.45	21251.9
956.1583	2277.0811	22107.6	21214.95
956.2912	2278.5346	22044.25	21154.95
956.4241	2279.9874	21980.15	21088.9
956.5569	2281.4395	21984.9	21094.25
956.6897	2282.8908	21824	20928.9
956.8225	2284.3414	21803.95	20909.35
956.9553	2285.7914	21707.75	20815.75
957.088	2287.2406	21626.3	20735.3
957.2207	2288.689	21582	20691.9
957.3534	2290.1368	21543.25	20650.95
957.486	2291.5838	21429.35	20533.6
957.6186	2293.0302	21393.6	20503.5
957.7512	2294.4758	21284.15	20392.7
957.8838	2295.9206	21189.3	20293.65
958.0163	2297.3648	21120.4	20229.7
958.1488	2298.8082	21091.85	20198.4
958.2813	2300.251	21009.05	20117
958.4137	2301.693	20930.8	20035.8
958.5461	2303.1343	20937.5	20043.5
958.6785	2304.5748	20797.2	19904.4
958.8108	2306.0147	20766.05	19874.15
958.9432	2307.4538	20694.55	19800.55
959.0754	2308.8922	20622.85	19732.7
959.2077	2310.3299	20583.35	19693.3
959.3399	2311.7669	20489	19597.2
959.4721	2313.2031	20439.75	19546.45
959.6043	2314.6387	20324.6	19433.25
959.7365	2316.0735	20232.7	19340.65
959.8686	2317.5076	20216.25	19324.7
960.0006	2318.941	20133.4	19243.6
960.1327	2320.3737	20079.15	19186.75
960.2647	2321.8056	20037	19142.4
960.3967	2323.2369	19944.4	19051.95
960.5287	2324.6674	19893.45	18999.55
960.6606	2326.0972	19799.55	18906.95
960.7925	2327.5263	19716.15	18824.95
960.9244	2328.9547	19676.25	18784.5
961.0562	2330.3823	19635.2	18743.65
961.1881	2331.8092	19600.9	18704.75
961.3198	2333.2355	19497.85	18605.05
961.4516	2334.661	19502.2	18610.65
961.5833	2336.0858	19408.85	18514.65
961.715	2337.5098	19366.1	18472.1
961.8467	2338.9332	19326.5	18435.5
961.9783	2340.3558	19228	18333.8
962.1099	2341.7778	19178.1	18287.1
962.2415	2343.199	19071.5	18178
962.373	2344.6195	19040.05	18149.25
962.5045	2346.0393	19001.65	18110.55
962.636	2347.4583	18968.85	18075.95
962.7675	2348.8767	18864.35	17972.9
962.8989	2350.2943	18852.55	17960.6
963.0303	2351.7113	18763.25	17870.25
963.1617	2353.1275	18709.45	17818.9
963.293	2354.543	18647.95	17748.35
963.4243	2355.9578	18603.75	17711.4
963.5556	2357.3718	18461.9	17571.35
963.6868	2358.7852	18398.45	17503.5
963.818	2360.1978	18329.1	17434.55
963.9492	2361.6098	18309.05	17418.15
964.0803	2363.021	18219.6	17324.95
964.2114	2364.4315	18185.45	17293.95
964.3425	2365.8413	18103.65	17210.3
964.4736	2367.2504	18026.8	17135.9
964.6046	2368.6587	17919.25	17029.15
964.7356	2370.0664	17828.8	16939.1
964.8666	2371.4733	17774.9	16882.05
964.9975	2372.8795	17786.6	16895.15
965.1284	2374.285	17676.95	16786.2
965.2593	2375.6899	17577.4	16688.35
965.3901	2377.0939	17509.35	16620.2
965.5209	2378.4973	17441.05	16550.7
965.6517	2379.9	17370.55	16478.9
965.7825	2381.3019	17309.15	16418.6
965.9132	2382.7032	17278.6	16389.95
966.0439	2384.1037	17255.85	16368.15
966.1745	2385.5035	17126.5	16234.8
966.3051	2386.9027	17091.85	16200.85
966.4357	2388.3011	17049.5	16156.2
966.5663	2389.6987	16999.6	16109.5
966.6968	2391.0957	16927.95	16038.75
966.8273	2392.492	16854.85	15963.6
966.9578	2393.8876	16754	15863.15
967.0882	2395.2824	16659.5	15769.75
967.2186	2396.6765	16616.8	15727.75
967.349	2398.07	16531	15641.4
967.4793	2399.4627	16500.95	15609.35
967.6097	2400.8547	16440.5	15551.05
967.7399	2402.246	16377.4	15481.15
967.8702	2403.6366	16296.85	15405.15
968.0004	2405.0265	16227.95	15337.8
968.1306	2406.4156	16188.15	15296.8
968.2607	2407.8041	16106.4	15212.1
968.3909	2409.1918	16046.85	15154.95
968.521	2410.5789	15964.05	15071.5
968.651	2411.9652	15944	15049.65
968.781	2413.3508	15862.7	14971.15
968.911	2414.7358	15801.95	14912.15
969.041	2416.12	15736.6	14847.3
969.1709	2417.5035	15711.85	14822.8
969.3008	2418.8863	15640.55	14748.2
969.4307	2420.2684	15611.25	14720.4
969.5606	2421.6497	15534.35	14644.4
969.6904	2423.0304	15435.25	14545.3
969.8201	2424.4104	15377.75	14487.35
969.9499	2425.7896	15305.5	14411.45
970.0796	2427.1682	15292	14401.6
970.2093	2428.546	15233.75	14341.95
970.3389	2429.9232	15198.25	14306.75
970.4685	2431.2996	15167.15	14277.7
970.5981	2432.6753	15108	14218.4
970.7277	2434.0503	15077.4	14189.15
970.8572	2435.4246	15014.95	14124.8
970.9867	2436.7982	14955.2	14063.05
971.1161	2438.1711	14912.6	14023
971.2456	2439.5433	14837.1	13944.65
971.375	2440.9148	14795.25	13901.05
971.5043	2442.2856	14718.15	13828.95
971.6336	2443.6557	14676.05	13783.35
971.7629	2445.025	14608.45	13717.2
971.8922	2446.3937	14613.8	13723.4
972.0214	2447.7617	14551.15	13657.45
972.1506	2449.1289	14544.7	13654.8
972.2798	2450.4955	14470.45	13577.3
972.4089	2451.8613	14416.4	13528.85
972.538	2453.2265	14360.25	13469.55
972.6671	2454.5909	14298.9	13406.65
972.7961	2455.9546	14311.4	13420.8
972.9251	2457.3177	14213.4	13325.85
973.0541	2458.68	14180.05	13287.7
973.1831	2460.0416	14157.35	13267.45
973.312	2461.4025	14164.5	13273.85
973.4408	2462.7627	14103	13200.1
973.5697	2464.1222	14065.35	13175.3
973.6985	2465.4811	13988.35	13097.05
973.8273	2466.8392	13978.55	13087.05
973.956	2468.1966	13903.1	13011.1
974.0847	2469.5533	13889.65	12996.25
974.2134	2470.9093	13871.05	12980.45
974.3421	2472.2645	13809.85	12918.25
974.4707	2473.6191	13761.1	12870.9
974.5993	2474.973	13687.35	12797.1
974.7278	2476.3262	13630.35	12738.65
974.8563	2477.6787	13600.15	12711.15
974.9848	2479.0305	13518.4	12628.6
975.1132	2480.3816	13479.55	12585.5
975.2417	2481.7319	13434.85	12542.65
975.37	2483.0816	13388.7	12494.8
975.4984	2484.4306	13348.25	12458.4
975.6267	2485.7789	13283.05	12392.6
975.755	2487.1264	13193.3	12301.9
975.8833	2488.4733	13143.55	12254.45
976.0115	2489.8195	13133.15	12226.6
976.1397	2491.165	13047.7	12151.55
976.2678	2492.5097	13025.25	12132.55
976.3959	2493.8538	12964.25	12073.2
976.524	2495.1972	12890.45	12000.75
976.6521	2496.5398	12862.4	11970
976.7801	2497.8818	12825.95	11931.4
976.9081	2499.2231	12783.9	11894.4
977.036	2500.5637	12725.3	11832.05
977.164	2501.9035	12658.65	11766
977.2918	2503.2427	12651.25	11756.55
977.4197	2504.5812	12598.1	11706.1
977.5475	2505.919	12567.15	11672.65
977.6753	2507.256	12553.35	11660.6
977.8031	2508.5924	12459.5	11569.3
977.9308	2509.9281	12435.7	11540.75
978.0585	2511.2631	12381.6	11491.85
978.1861	2512.5974	12348.4	11459.4
978.3137	2513.9309	12318.3	11427.5
978.4413	2515.2638	12270.4	11352.65
978.5689	2516.596	12226.6	11334.4
978.6964	2517.9275	12156.95	11262.8
978.8239	2519.2583	12126.6	11234.7
978.9513	2520.5884	12087	11193.4
979.0788	2521.9178	12041.05	11150.3
979.2062	2523.2465	11970.7	11080.7
979.3335	2524.5745	11900.25	11011.1
979.4608	2525.9018	11874.35	10984.55
979.5881	2527.2284	11848.8	10958.75
979.7154	2528.5543	11815.15	10924.3
979.8426	2529.8796	11811.35	10918.25
979.9698	2531.2041	11758.75	10868.95
980.0969	2532.5279	11724.7	10836.05
980.224	2533.851	11710.5	10819.3
980.3511	2535.1735	11650.35	10759.85
980.4781	2536.4952	11651.35	10761.35
980.6052	2537.8163	11590.35	10698.25
980.7321	2539.1366	11562.55	10674.1
980.8591	2540.4562	11529.25	10637.8
980.986	2541.7752	11515.2	10625.5
981.1129	2543.0935	11492.4	10600.05
981.2397	2544.411	11465.1	10571.35
981.3665	2545.7279	11411.65	10522.35
981.4933	2547.0441	11444.55	10553.05
981.62	2548.3596	11395.1	10502.5
981.7467	2549.6744	11351.1	10460.1
981.8734	2550.9885	11325.3	10425.55
982.0001	2552.3019	11276.5	10386.2
982.1267	2553.6146	11254.9	10364.8
982.2532	2554.9266	11205.3	10316.65
982.3798	2556.2379	11161.5	10269.35
982.5063	2557.5485	11138.2	10247.55
982.6327	2558.8585	11135.15	10236.25
982.7592	2560.1677	11097.3	10200.4
982.8856	2561.4762	11087.25	10195.7
983.0119	2562.7841	11059.3	10167.2
983.1383	2564.0913	10989.4	10099.8
983.2646	2565.3977	10999	10110.95
983.3908	2566.7035	10953.8	10062.25
983.517	2568.0086	10915.55	10022.75
983.6432	2569.313	10926.6	10033.8
983.7694	2570.6167	10870.7	9977.15
983.8955	2571.9197	10830.1	9939.4
984.0216	2573.222	10820.2	9926.7
984.1476	2574.5236	10798.8	9906.7
984.2737	2575.8246	10772	9878.9
984.3996	2577.1248	10729.95	9836.7
984.5256	2578.4244	10691.6	9801.15
984.6515	2579.7232	10726.7	9836.05
984.7774	2581.0214	10729.4	9813.05
984.9032	2582.3189	10657.45	9766.6
985.029	2583.6157	10630.75	9732.3
985.1548	2584.9118	10615.5	9723.6
985.2806	2586.2072	10565.75	9674.7
985.4063	2587.5019	10534.2	9644.3
985.5319	2588.7959	10503.6	9612.8
985.6576	2590.0893	10514.45	9621.75
985.7832	2591.3819	10468.85	9579.45
985.9087	2592.6739	10423.15	9534.45
986.0343	2593.9652	10398.5	9506.35
986.1597	2595.2557	10339.95	9450.55
986.2852	2596.5456	10301.55	9407.95
986.4106	2597.8348	10273.55	9384.45
986.536	2599.1234	10217	9326.4
986.6614	2600.4112	10188.45	9296.8
986.7867	2601.6983	10188.85	9295.35
986.912	2602.9848	10113.8	9221.55
987.0372	2604.2705	10069.5	9171.1
987.1624	2605.5556	10059.2	9168.65
987.2876	2606.84	10020.05	9129.8
987.4128	2608.1237	9974.8	9084.05
987.5379	2609.4067	9933.7	9043.6
987.6629	2610.689	9949.4	9051
987.788	2611.9707	9894.5	9000.35
987.913	2613.2516	9835.85	8941.2
988.0379	2614.5319	9793.85	8904.3
988.1629	2615.8115	9766	8872.25
988.2878	2617.0903	9729.75	8836.15
988.4126	2618.3685	9658.6	8765.35
988.5375	2619.6461	9648.85	8756.9
988.6622	2620.9229	9601.45	8711.1
988.787	2622.199	9580.2	8687.7
988.9117	2623.4745	9572.55	8680.1
989.0364	2624.7493	9536	8645.6
989.161	2626.0234	9483.3	8595.2
989.2857	2627.2968	9460.3	8571.9
989.4102	2628.5695	9422.45	8529.25
989.5348	2629.8415	9376	8485.8
989.6593	2631.1128	9333.75	8444.3
989.7837	2632.3835	9304.7	8412.9
989.9082	2633.6535	9239.15	8348.1
990.0326	2634.9228	9233.7	8343.25
990.1569	2636.1914	9197.05	8305.65
990.2812	2637.4593	9179.8	8286.8
990.4055	2638.7265	9147.1	8254.95
990.5298	2639.9931	9122.85	8231.75
990.654	2641.259	9100.45	8208.4
990.7782	2642.5242	9054.05	8163.4
990.9023	2643.7887	9003.45	8112.5
991.0264	2645.0525	8999.55	8109.55
991.1505	2646.3156	8960.85	8068.85
991.2745	2647.5781	8910.65	8021.9
991.3985	2648.8398	8909.1	8019
991.5225	2650.1009	8875.95	7975.65
991.6464	2651.3613	8817.5	7925.4
991.7703	2652.6211	8815.15	7924.5
991.8942	2653.8801	8775.15	7885.4
992.018	2655.1385	8776.8	7884.55
992.1418	2656.3961	8722.3	7832.1
992.2655	2657.6531	8727.35	7837.85
992.3892	2658.9094	8696.15	7805.3
992.5129	2660.1651	8663.4	7772.95
992.6366	2661.42	8651.15	7760.65
992.7602	2662.6743	8633.15	7740.2
992.8837	2663.9279	8618.5	7727.65
993.0073	2665.1808	8583.85	7691.7
993.1307	2666.433	8565.5	7673.25
993.2542	2667.6846	8521.2	7631.25
993.3776	2668.9354	8517.05	7624.8
993.501	2670.1856	8486.8	7594.25
993.6244	2671.4351	8473.1	7584.45
993.7477	2672.6839	8443.5	7553.2
993.8709	2673.9321	8412.9	7520.6
993.9942	2675.1795	8385.45	7494.95
994.1174	2676.4263	8364.75	7473.75
994.2405	2677.6724	8331.3	7439.55
994.3637	2678.9179	8322.85	7431.65
994.4868	2680.1626	8295.4	7404.5
994.6098	2681.4067	8246.3	7356.15
994.7328	2682.6501	8225.8	7335.65
994.8558	2683.8928	8205.95	7314.9
994.9788	2685.1348	8173.25	7283.85
995.1017	2686.3761	8151.95	7263.4
995.2245	2687.6168	8122.95	7231.9
995.3474	2688.8568	8094.4	7204.35
995.4702	2690.0961	8085.9	7196.05
995.5929	2691.3348	8045	7153.45
995.7156	2692.5727	8032.9	7141.6
995.8383	2693.81	7983.25	7092.25
995.961	2695.0466	7972.6	7081.65
996.0836	2696.2826	7952.4	7061.45
996.2062	2697.5178	7917.3	7025.75
996.3287	2698.7524	7886.95	6996.5
996.4512	2699.9863	7867.3	6975.45
996.5737	2701.2195	7849.8	6958.35
996.6961	2702.452	7822.9	6931.55
996.8185	2703.6839	7807.8	6915.2
996.9408	2704.9151	7764.65	6875.05
997.0631	2706.1456	7768.05	6876.35
997.1854	2707.3755	7722.65	6832.95
997.3077	2708.6046	7714.3	6821.4
997.4299	2709.8331	7690.9	6798.95
997.552	2711.0609	7661.4	6770.5
997.6742	2712.2881	7660.4	6770.8
997.7963	2713.5145	7640.65	6747.05
997.9183	2714.7403	7580.55	6690.9
998.0403	2715.9654	7578.15	6685.45
998.1623	2717.1899	7575.95	6670.1
998.2842	2718.4136	7571.55	6680.95
998.4062	2719.6367	7534.65	6644.55
998.528	2720.8591	7528.55	6630.05
998.6498	2722.0809	7488	6597.4
998.7716	2723.3019	7450.55	6556.45
998.8934	2724.5223	7459.8	6565.5
999.0151	2725.7421	7433.4	6539.5
999.1368	2726.9611	7421.9	6527.85
999.2584	2728.1795	7414.55	6518.35
999.38	2729.3972	7357.45	6466.55
999.5016	2730.6142	7325.1	6422
999.6231	2731.8306	7273.05	6382.45
999.7446	2733.0462	7228.1	6335.45
999.8661	2734.2612	7201.7	6305.85
999.9875	2735.4756	7162.15	6269.95
1000.1089	2736.6892	7133.05	6242.5
1000.2302	2737.9022	7083.8	6195.3
1000.3515	2739.1145	7037.25	6147.1
1000.4728	2740.3262	7015.9	6117.45
1000.594	2741.5372	6975.05	6084
1000.7152	2742.7475	6923.7	6032.25
1000.8363	2743.9571	6932.25	6042.3
1000.9575	2745.1661	6871.95	5976.3
1001.0785	2746.3744	6860.4	5968.7
1001.1996	2747.582	6832.3	5942.7
1001.3206	2748.7889	6794.75	5905.65
1001.4415	2749.9952	6774.5	5882.85
1001.5625	2751.2008	6729.9	5838.1
1001.6833	2752.4057	6726.15	5833.3
1001.8042	2753.61	6682.7	5792.2
1001.925	2754.8136	6678.05	5786
1002.0458	2756.0165	6653.7	5763.3
1002.1665	2757.2188	6630.7	5739.95
1002.2872	2758.4204	6601.9	5711
1002.4078	2759.6213	6573.2	5682.7
1002.5285	2760.8215	6568.05	5672.25
1002.649	2762.0211	6554	5659.95
1002.7696	2763.22	6529.25	5634.7
1002.8901	2764.4182	6495.05	5603.7
1003.0106	2765.6158	6482.1	5590
1003.131	2766.8127	6466.65	5576.45
1003.2514	2768.009	6443.25	5552.45
1003.3717	2769.2045	6406.3	5516.3
1003.492	2770.3994	6390.05	5498
1003.6123	2771.5936	6385.3	5494.45
1003.7325	2772.7872	6357.55	5468.15
1003.8527	2773.9801	6328.15	5436
1003.9729	2775.1723	6311.85	5404.5
1004.093	2776.3639	6281.7	5391.4
1004.2131	2777.5548	6267.4	5375.3
1004.3331	2778.745	6219.15	5327.85
1004.4531	2779.9346	6210.35	5320.45
1004.5731	2781.1235	6206.8	5314.2
1004.693	2782.3117	6198.45	5310.8
1004.8129	2783.4992	6184.3	5295
1004.9328	2784.6861	6163.7	5271.8
1005.0526	2785.8723	6139.2	5245.65
1005.1723	2787.0579	6116.3	5223.2
1005.2921	2788.2428	6102.45	5210.85
1005.4118	2789.427	6093.35	5203.55
1005.5314	2790.6106	6094.45	5204.2
1005.651	2791.7935	6076.25	5183.75
1005.7706	2792.9757	6062.8	5175.05
1005.8902	2794.1573	6061.7	5170.15
1006.0097	2795.3382	6024.25	5134
1006.1291	2796.5184	6016.2	5127.7
1006.2485	2797.698	6014	5122.8
1006.3679	2798.8769	6006.05	5114.75
1006.4873	2800.0551	6015.6	5124.1
1006.6066	2801.2327	6016.2	5122.95
1006.7258	2802.4096	6007.5	5118
1006.8451	2803.5859	5975.35	5083.6
1006.9642	2804.7615	5991.7	5100.15
1007.0834	2805.9364	5997	5106.8
1007.2025	2807.1106	6026	5136.8
1007.3216	2808.2842	6032.1	5141.35
1007.4406	2809.4572	6033.9	5143.35
1007.5596	2810.6294	6050.55	5160.55
1007.6785	2811.801	6049	5158
1007.7975	2812.972	6076.75	5187.35
1007.9163	2814.1423	6113.8	5223.45
1008.0352	2815.3119	6164.85	5274.05
1008.154	2816.4808	6175.3	5284.8
1008.2727	2817.6491	6211.15	5319.2
1008.3914	2818.8167	6257.75	5366
1008.5101	2819.9837	6270.65	5374.4
1008.6288	2821.15	6308	5417.5
1008.7474	2822.3157	6317.55	5427.95
1008.8659	2823.4807	6355.35	5464.85
1008.9844	2824.645	6402.55	5511.6
1009.1029	2825.8086	6420.1	5531.35
1009.2214	2826.9716	6447.7	5558.8
1009.3398	2828.134	6474.45	5584.35
1009.4581	2829.2957	6496.1	5605.95
1009.5764	2830.4567	6504.25	5616
1009.6947	2831.617	6517.45	5627.85
1009.813	2832.7767	6544.95	5655
1009.9312	2833.9358	6508.9	5621.5
1010.0493	2835.0941	6494	5602
1010.1675	2836.2519	6464.7	5574.05
1010.2855	2837.4089	6443.5	5549.9
1010.4036	2838.5653	6425.45	5534.45
1010.5216	2839.7211	6426.85	5537.95
1010.6396	2840.8761	6418.8	5527.3
1010.7575	2842.0306	6413.95	5524.6
1010.8754	2843.1843	6443.9	5553.85
1010.9932	2844.3374	6473.8	5586.25
1011.111	2845.4899	6506.4	5615.5
1011.2288	2846.6417	6567.05	5676.85
1011.3465	2847.7928	6625.45	5736.55
1011.4642	2848.9433	6686.15	5797.15
1011.5818	2850.0931	6750.95	5862.05
1011.6995	2851.2422	6824.8	5931.3
1011.817	2852.3907	6885.1	5994.3
1011.9345	2853.5385	6919.85	6027.8
1012.052	2854.6857	7000.25	6083.45
1012.1695	2855.8323	7007.65	6119.35
1012.2869	2856.9781	7031.55	6140.75
1012.4042	2858.1233	7087.7	6199.15
1012.5216	2859.2679	7093.25	6203.4
1012.6389	2860.4118	7130.85	6241.85
1012.7561	2861.555	7152.95	6258.4
1012.8733	2862.6976	7176.95	6285.15
1012.9905	2863.8395	7181.2	6291.35
1013.1076	2864.9808	7182.5	6293.1
1013.2247	2866.1214	7186.6	6298.45
1013.3417	2867.2614	7174.55	6284
1013.4587	2868.4007	7179.05	6289.45
1013.5757	2869.5393	7156.75	6264.3
1013.6926	2870.6773	7169.35	6276.55
1013.8095	2871.8146	7187.35	6291.65
1013.9263	2872.9513	7151.4	6257.1
1014.0431	2874.0874	7148.5	6257.6
1014.1599	2875.2227	7110.2	6222
1014.2766	2876.3574	7047.35	6158.5
1014.3933	2877.4915	7024.3	6135.25
1014.51	2878.6249	6992.25	6104.45
1014.6266	2879.7577	6938.05	6047.45
1014.7431	2880.8898	6919.75	6018.65
1014.8596	2882.0212	6881.35	5989.15
1014.9761	2883.152	6850.7	5960.55
1015.0925	2884.2821	6845.35	5956.4
1015.2089	2885.4116	6797.05	5909.3
1015.3253	2886.5405	6780.15	5890.85
1015.4416	2887.6686	6798.8	5906.75
1015.5579	2888.7962	6763.1	5872.3
1015.6741	2889.923	6754.4	5863.9
1015.7903	2891.0493	6756.25	5866.8
1015.9065	2892.1748	6722.95	5833.05
1016.0226	2893.2997	6733.7	5842.7
1016.1387	2894.424	6731.3	5842.25
1016.2547	2895.5476	6750.25	5860.85
1016.3707	2896.6706	6741	5851.6
1016.4866	2897.7929	6754	5865.7
1016.6025	2898.9145	6787.65	5899.95
1016.7184	2900.0355	6791.25	5901
1016.8342	2901.1559	6817.65	5926.15
1016.95	2902.2756	6839.2	5949.95
1017.0658	2903.3946	6838.75	5947.65
1017.1815	2904.513	6837	5944.4
1017.2971	2905.6308	6855.55	5965.3
1017.4127	2906.7479	6844.65	5955.5
1017.5283	2907.8643	6884.3	5996.1
1017.6439	2908.9801	6874.8	5984.05
1017.7594	2910.0953	6861.85	5972.35
1017.8748	2911.2098	6843.4	5950.35
1017.9902	2912.3236	6829.1	5930.6
1018.1056	2913.4368	6792.9	5900.3
1018.2209	2914.5494	6773.35	5882.45
1018.3362	2915.6613	6744.4	5847.9
1018.4515	2916.7725	6683.25	5791.55
1018.5667	2917.8831	6648.1	5758.6
1018.6819	2918.9931	6608.65	5716.35
1018.797	2920.1024	6574.05	5681.85
1018.9121	2921.211	6539.1	5648
1019.0271	2922.319	6529.1	5638.55
1019.1421	2923.4264	6498.85	5609.8
1019.2571	2924.5331	6473.75	5585.35
1019.372	2925.6391	6441.8	5551.75
1019.4869	2926.7445	6416	5526.6
1019.6017	2927.8493	6391.4	5503.4
1019.7165	2928.9534	6370.65	5481.15
1019.8313	2930.0569	6368.65	5476.5
1019.946	2931.1597	6345.15	5454
1020.0606	2932.2619	6344.25	5453.5
1020.1753	2933.3634	6347.65	5458.6
1020.2899	2934.4643	6305.9	5408.35
1020.4044	2935.5645	6275.3	5379.35
1020.5189	2936.6641	6209.1	5315
1020.6334	2937.763	6172.4	5284.75
1020.7478	2938.8613	6105.95	5215.95
1020.8622	2939.959	6030.65	5134
1020.9765	2941.056	5949.95	5062.1
1021.0908	2942.1523	5876.35	4985.05
1021.2051	2943.248	5775	4882.85
1021.3193	2944.3431	5672.25	4782.8
1021.4334	2945.4375	5549.9	4659.75
1021.5476	2946.5313	5446.95	4558.4
1021.6617	2947.6244	5338.3	4448.45
1021.7757	2948.7169	5194.85	4304.6
1021.8897	2949.8087	5109.2	4219.05
1022.0037	2950.8999	5014.65	4122.8
1022.1176	2951.9904	4918.75	4030.25
1022.2315	2953.0803	4834	3943.95
1022.3453	2954.1696	4765.2	3875.95
1022.4591	2955.2582	4708.55	3819.65
1022.5728	2956.3462	4636.5	3747.45
1022.6865	2957.4335	4583.5	3694.5
1022.8002	2958.5202	4547.05	3653.7
1022.9138	2959.6062	4504.1	3613.65
1023.0274	2960.6916	4460.95	3571.2
1023.141	2961.7764	4442.45	3551.4
1023.2545	2962.8605	4422.9	3532.1
1023.3679	2963.9439	4395.95	3507.25
1023.4813	2965.0267	4375.05	3482.25
1023.5947	2966.1089	4373.55	3460.95
1023.708	2967.1905	4313.75	3424.6
1023.8213	2968.2714	4317.05	3429.1
1023.9346	2969.3516	4298.35	3409.55
1024.0478	2970.4312	4304.5	3409.8
1024.1609	2971.5102	4279.05	3388.6
1024.274	2972.5885	4268.6	3380.05
1024.3871	2973.6662	4261.55	3367.3
1024.5002	2974.7432	4247.55	3358.05
1024.6132	2975.8196	4228.35	3338.4
1024.7261	2976.8954	4221.2	3332.25
1024.839	2977.9705	4183.95	3295.5
1024.9519	2979.045	4170.8	3281.65
1025.0647	2980.1188	4137.85	3250.15
1025.1775	2981.192	4107.45	3219.8
1025.2902	2982.2645	4058.95	3169.65
1025.4029	2983.3364	4036.5	3146.65
1025.5156	2984.4077	3992.25	3103.9
1025.6282	2985.4783	3978.1	3082.85
1025.7407	2986.5483	3919.2	3028.05
1025.8532	2987.6177	3887.05	2997.8
1025.9657	2988.6864	3840.2	2950.7
1026.0782	2989.7545	3806.95	2918.1
1026.1906	2990.8219	3759.05	2869.9
1026.3029	2991.8887	3730.6	2838.15
1026.4152	2992.9548	3698.85	2808.85
1026.5275	2994.0204	3649.85	2760.8
1026.6397	2995.0852	3616.45	2727.7
1026.7519	2996.1495	3576.6	2686.05
1026.864	2997.2131	3539.15	2648.05
1026.9761	2998.276	3502.55	2613.85
1027.0882	2999.3383	3489.85	2599.35
1027.2002	3000.4	3457.4	2568.6
1027.3122	3001.4611	3441.75	2551.7
1027.4241	3002.5215	3428.45	2540.05
1027.536	3003.5812	3389.3	2500
1027.6478	3004.6404	3374.3	2486.35
1027.7596	3005.6989	3354.25	2463.2
1027.8714	3006.7567	3341.5	2451
1027.9831	3007.8139	3342.1	2432.55
1028.0947	3008.8705	3308.45	2419.25
1028.2064	3009.9264	3308.05	2416.35
1028.3179	3010.9818	3280.85	2391.65
1028.4295	3012.0364	3284.9	2396.15
1028.541	3013.0905	3261.9	2371.95
1028.6524	3014.1439	3268.35	2378.9
1028.7638	3015.1966	3244	2356
1028.8752	3016.2487	3228.75	2338
1028.9865	3017.3002	3230.4	2337.05
1029.0978	3018.3511	3205.45	2316.65
1029.209	3019.4013	3218.95	2329
1029.3202	3020.4509	3206.85	2318.6
1029.4314	3021.4998	3194.55	2305.35
1029.5425	3022.5481	3190.65	2302.7
1029.6535	3023.5958	3184.25	2294.75
1029.7645	3024.6428	3173.55	2282.35
1029.8755	3025.6892	3170.5	2281.7
1029.9864	3026.735	3167	2276.1
1030.0973	3027.7802	3153.35	2263.8
1030.2082	3028.8247	3139.8	2251.3
1030.319	3029.8685	3128.9	2239.8
1030.4297	3030.9118	3137.6	2247.2
1030.5404	3031.9544	3114.65	2227.4
1030.6511	3032.9963	3113.35	2224.55
1030.7617	3034.0376	3131.35	2240.55
1030.8723	3035.0783	3117.3	2225.45
1030.9829	3036.1184	3118.5	2228.85
1031.0934	3037.1578	3111.25	2222
1031.2038	3038.1966	3096.75	2207.05
1031.3142	3039.2348	3090.1	2202.65
1031.4246	3040.2723	3091.9	2192.65
1031.5349	3041.3092	3071.75	2185.6
1031.6452	3042.3455	3071.6	2182.75
1031.7554	3043.3811	3048.05	2159.2
1031.8656	3044.4161	3046.05	2155.1
1031.9758	3045.4505	3034.95	2145.35
1032.0859	3046.4842	3028.15	2138.1
1032.1959	3047.5173	3000	2110.75
1032.3059	3048.5498	2990.85	2101
1032.4159	3049.5816	2981.7	2091.6
1032.5258	3050.6128	2974.05	2084.75
1032.6357	3051.6434	2954.8	2063.7
1032.7455	3052.6734	2952.9	2061.95
1032.8553	3053.7027	2940.45	2053.75
1032.9651	3054.7314	2924.05	2035.9
1033.0748	3055.7594	2904.85	2015.3
1033.1845	3056.7868	2893.5	2004.3
1033.2941	3057.8136	2877.65	1988.95
1033.4037	3058.8398	2876.25	1987.4
1033.5132	3059.8653	2855.6	1965.4
1033.6227	3060.8902	2845.75	1957.5
1033.7321	3061.9145	2838.45	1948
1033.8415	3062.9381	2818.05	1929
1033.9509	3063.9612	2826.4	1922.05
1034.0602	3064.9835	2801.25	1909
1034.1694	3066.0053	2784.65	1894.8
1034.2787	3067.0264	2775.7	1888.95
1034.3878	3068.0469	2761.45	1871.8
1034.497	3069.0668	2755.45	1864.3
1034.6061	3070.086	2734.1	1845.35
1034.7151	3071.1046	2721.85	1829.45
1034.8241	3072.1226	2719.2	1830
1034.9331	3073.1399	2677.45	1788.55
1035.042	3074.1567	2676.65	1787.85
1035.1508	3075.1727	2649.6	1759.7
1035.2597	3076.1882	2641.45	1753.2
1035.3684	3077.203	2626.1	1736.65
1035.4772	3078.2173	2628	1738.75
1035.5859	3079.2308	2603.75	1711.1
1035.6945	3080.2438	2596.2	1704.85
1035.8031	3081.2561	2570.75	1679.85
1035.9117	3082.2678	2562.3	1673.95
1036.0202	3083.2789	2547	1656.15
1036.1286	3084.2893	2543.05	1655.15
1036.2371	3085.2991	2530.05	1641
1036.3454	3086.3083	2528.45	1634.4
1036.4538	3087.3169	2504.4	1614.05
1036.562	3088.3248	2497.35	1604.3
1036.6703	3089.3321	2500.9	1610.9
1036.7785	3090.3388	2480.25	1593.35
1036.8866	3091.3449	2470.2	1581.3
1036.9948	3092.3503	2459	1568.65
1037.1028	3093.3551	2448.75	1560.65
1037.2108	3094.3593	2440.6	1552.15
1037.3188	3095.3629	2435.5	1546.9
1037.4267	3096.3658	2414.25	1523.05
1037.5346	3097.3681	2416.85	1528.95
1037.6425	3098.3698	2403.6	1513.85
1037.7503	3099.3708	2397.5	1500.45
1037.858	3100.3713	2378.3	1490.45
1037.9657	3101.3711	2371.1	1481.3
1038.0734	3102.3702	2483.85	1456.9
1038.181	3103.3688	2362.6	1471.3
1038.2886	3104.3667	2343.75	1455.4
1038.3961	3105.364	2340.3	1452.15
1038.5036	3106.3607	2330.9	1439.95
1038.611	3107.3568	2315.95	1425.7
1038.7184	3108.3522	2307.8	1419.15
1038.8257	3109.347	2309.4	1418.75
1038.933	3110.3412	2299.95	1408.25
1039.0403	3111.3348	2283	1392
1039.1475	3112.3277	2265.55	1376.65
1039.2547	3113.32	2261.85	1373.55
1039.3618	3114.3117	2267.7	1380.05
1039.4689	3115.3028	2263.15	1374.45
1039.5759	3116.2932	2230.9	1338.85
1039.6829	3117.2831	2243.55	1348.55
1039.7898	3118.2723	2235.65	1347.5
1039.8967	3119.2608	2221.05	1330.9
1040.0035	3120.2488	2212.9	1322.95
1040.1103	3121.2361	2213.45	1324.8
1040.2171	3122.2229	2199.1	1309.85
1040.3238	3123.209	2201.65	1313.2
1040.4305	3124.1944	2191.65	1303.4
1040.5371	3125.1793	2186.95	1297.4
1040.6437	3126.1635	2170.1	1281.55
1040.7502	3127.1471	2158.6	1269.1
1040.8567	3128.1301	2164.4	1273.65
1040.9631	3129.1125	2157.35	1268.25
1041.0695	3130.0942	2145.8	1256.6
1041.1759	3131.0753	2148.55	1252.15
1041.2822	3132.0558	2132.3	1240.7
1041.3884	3133.0357	2123.55	1234.05
1041.4946	3134.015	2130.45	1240.7
1041.6008	3134.9936	2121.25	1230.4
1041.7069	3135.9716	2130.25	1219.65
1041.813	3136.949	2105.65	1216.45
1041.919	3137.9258	2103.6	1208.25
1042.025	3138.902	2102.1	1207.75
1042.1309	3139.8775	2090.35	1203.95
1042.2368	3140.8524	2092.35	1205.2
1042.3427	3141.8267	2091.2	1199
1042.4485	3142.8004	2078.35	1190.35
1042.5542	3143.7735	2076.8	1182
1042.6599	3144.7459	2073.75	1181.6
1042.7656	3145.7178	2059.15	1169
1042.8712	3146.689	2045.15	1157.45
1042.9768	3147.6596	2046.1	1154.75
1043.0823	3148.6295	2034.95	1146.1
1043.1878	3149.5989	2030.4	1142.65
1043.2932	3150.5676	2020.75	1132.4
1043.3986	3151.5357	2013.9	1127.15
1043.5039	3152.5032	2010.1	1121.4
1043.6092	3153.4701	2013.6	1123.15
1043.7145	3154.4364	2003.9	1113
1043.8197	3155.402	2003.6	1116.2
1043.9248	3156.367	1999.35	1108.35
1044.03	3157.3315	2018.7	1085.4
1044.135	3158.2952	1969.55	1081.05
1044.24	3159.2584	1957.7	1071.55
1044.345	3160.221	1956.85	1066.85
1044.4499	3161.1829	1955.5	1066.05
1044.5548	3162.1442	1947.75	1059.95
1044.6596	3163.105	1935.85	1048.2
1044.7644	3164.065	1927.45	1039.25
1044.8692	3165.0245	1934.65	1043.7
1044.9739	3165.9834	1926.15	1037.65
1045.0785	3166.9416	1920.7	1031.25
1045.1831	3167.8993	1917.4	1028.5
1045.2877	3168.8563	1915	1027.45
1045.3922	3169.8127	1907.75	1020.6
1045.4966	3170.7684	1899.8	1010.7
1045.6011	3171.7236	1888.05	996.45
1045.7054	3172.6782	1890.9	1000.8
1045.8098	3173.6321	1882	990.2
1045.914	3174.5854	1884.8	992.4
1046.0183	3175.5381	1864.2	974.65
1046.1224	3176.4902	1857.1	968.95
1046.2266	3177.4417	1858.15	968.1
1046.3307	3178.3926	1848.05	960.8
1046.4347	3179.3428	1860.65	972
1046.5387	3180.2924	1843	953.2
1046.6427	3181.2415	1830.1	943
1046.7466	3182.1899	1840.35	951.35
1046.8504	3183.1377	1823.55	933.3
1046.9542	3184.0848	1824.05	932.65
1047.058	3185.0314	1813.95	925.35
1047.1617	3185.9773	1812.45	924.4
1047.2654	3186.9227	1803.55	913.25
1047.369	3187.8674	1795.4	906
1047.4726	3188.8115	1807.5	916.25
1047.5761	3189.755	1797.05	907.8
1047.6796	3190.6979	1787.95	898.75
1047.783	3191.6402	1785.25	896.5
1047.8864	3192.5818	1775.1	886.55
1047.9898	3193.5229	1794.15	883.05
1048.0931	3194.4633	1769.25	879.75
1048.1963	3195.4031	1766.8	879
1048.2995	3196.3423	1752.95	864.55
1048.4027	3197.2809	1752.35	864.4
1048.5058	3198.2189	1757	866.95
1048.6089	3199.1563	1755.45	859.1
1048.7119	3200.0931	1738.65	849.25
1048.8148	3201.0292	1729.1	842.1
1048.9178	3201.9648	1740.7	851.9
1049.0206	3202.8997	1725.75	836.3
1049.1235	3203.834	1720.25	829.5
1049.2262	3204.7677	1707.9	821.05
1049.329	3205.7008	1712.85	821.55
1049.4317	3206.6333	1709.75	821.2
1049.5343	3207.5652	1722.5	832.9
1049.6369	3208.4964	1700.8	811.35
1049.7394	3209.4271	1700.15	812.7
1049.8419	3210.3571	1696.8	809.1
1049.9444	3211.2865	1692.8	804.3
1050.0468	3212.2154	1692.8	802
1050.1491	3213.1436	1685.65	794.25
1050.2514	3214.0712	1687.95	793
1050.3537	3214.9982	1678.55	788.95
1050.4559	3215.9246	1665.6	776.6
1050.5581	3216.8503	1672	785.2
1050.6602	3217.7755	1663	775.7
1050.7623	3218.7001	1662.05	773.6
1050.8643	3219.624	1657.2	770.4
1050.9663	3220.5473	1644.75	754.85
1051.0682	3221.4701	1650.7	761.35
1051.1701	3222.3922	1643.65	752.55
1051.2719	3223.3137	1645.15	756.2
1051.3737	3224.2346	1634.45	747.1
1051.4754	3225.1549	1630.05	741.7
1051.5771	3226.0746	1628.4	740.55
1051.6788	3226.9937	1629.3	740.3
1051.7804	3227.9121	1618.8	732.2
1051.8819	3228.83	1612.1	725.3
1051.9834	3229.7473	1620.65	730.95
1052.0849	3230.6639	1611.95	724.05
1052.1863	3231.5799	1610.35	721.45
1052.2876	3232.4954	1599.35	708.5
1052.3889	3233.4102	1594.4	705.8
1052.4902	3234.3244	1591.1	701.6
1052.5914	3235.238	1594.7	706.95
1052.6926	3236.151	1608.15	695.95
1052.7937	3237.0634	1586.75	697.45
1052.8948	3237.9752	1575.4	686.7
1052.9958	3238.8864	1571.75	682.9
1053.0968	3239.797	1569.8	681.25
1053.1977	3240.7069	1565	674.9
1053.2986	3241.6163	1557.7	667.55
1053.3994	3242.5251	1559.15	672.45
1053.5002	3243.4332	1554.9	666.6
1053.6009	3244.3408	1546.1	656.5
1053.7016	3245.2477	1542.55	654.3
1053.8022	3246.154	1541.15	650.35
1053.9028	3247.0598	1537.65	650.05
1054.0034	3247.9649	1529.85	642.45
1054.1039	3248.8694	1531.35	643.85
1054.2043	3249.7733	1523.15	633.4
1054.3047	3250.6766	1516.95	628.3
1054.4051	3251.5793	1520.75	631.75
1054.5054	3252.4814	1511.6	623.25
1054.6056	3253.3829	1508.4	620.1
1054.7058	3254.2838	1506.2	617.2
1054.806	3255.1841	1500.8	612.25
1054.9061	3256.0838	1496.25	608
1055.0061	3256.9829	1489.1	603.85
1055.1062	3257.8814	1486.95	596.3
1055.2061	3258.7792	1480.6	590.85
1055.306	3259.6765	1470.9	580.75
1055.4059	3260.5731	1459.6	572.9
1055.5057	3261.4692	1461.85	571.9
1055.6055	3262.3647	1454.9	564.85
1055.7052	3263.2595	1449.85	562.55
1055.8049	3264.1538	1439.7	552
1055.9045	3265.0474	1426.8	537.8
1056.0041	3265.9404	1422.85	536.55
1056.1036	3266.8329	1404.75	516.3
1056.2031	3267.7247	1415.85	517.15
1056.3025	3268.616	1382.35	493.45
1056.4019	3269.5066	1376.9	488
1056.5013	3270.3966	1373.75	482.8
1056.6005	3271.286	1354.7	467.6
