Software Version:	3.9.2.0
Unit SN:	10000200
Spectrometer SN:	6960
Date:	3/6/2024 10:31:42 AM
Data Line Index:	25
Spectral Points:	2048
Integration time (ms):	125
Averages:	20
Delay (ms):	30
Sequence Number:	1
Processing:	dark subtract
Laser Power (mW):	300
Laser Current (mA):	825
Laser Diode Temp (C):	25.1
Laser Case Temp (C):	26.3
System Temp (C):	26.1
Spectrometer Temp (C):	23.5
CCD Temp (C):	0
Secondary Temp (C):	20.008
Heatsink Temp (C):	21.569
CCDPCB Temp (C):	36.207
SecondaryPCB Temp (C):	29.148

Wavelength	RamanShift	Raw Counts	Dark Subtracted
787.061	30.1047	1146.35	733
787.2016	32.3739	1179.4	768.55
787.3422	34.6426	1219.4	807.35
787.4828	36.9109	1267.7	854.05
787.6235	39.1787	1324.9	908.25
787.7642	41.4461	1388.05	967.15
787.9049	43.7131	1454.5	1030.15
788.0456	45.9796	1509.75	1082.05
788.1863	48.2456	1593.8	1162.6
788.3271	50.5112	1657.95	1221.7
788.4679	52.7764	1723.6	1284.75
788.6087	55.0411	1810.45	1368.15
788.7496	57.3054	1891.05	1442.7
788.8904	59.5692	1973.3	1523
789.0313	61.8326	2073.65	1618.85
789.1722	64.0955	2192.5	1736.4
789.3132	66.3579	2323.7	1862.75
789.4541	68.6199	2474.55	2009.7
789.5951	70.8815	2730.8	2263.3
789.7361	73.1426	3287.65	2814.75
789.8771	75.4032	4640.4	4161.9
790.0181	77.6634	8156.75	7673.15
790.1592	79.9231	17668.5	17179.15
790.3003	82.1824	56896.15	56397.05
790.4414	84.4412	65535	65015.55
790.5825	86.6995	65535	64987
790.7237	88.9574	65535	64961.3
790.8648	91.2148	65535	64945.4
791.006	93.4717	65535	64933.2
791.1472	95.7282	65535	64925
791.2885	97.9842	65535	64921.45
791.4297	100.2398	65535	64917.55
791.571	102.4949	65535	64917.1
791.7123	104.7495	65535	64908.95
791.8536	107.0036	65535	64910.05
791.9949	109.2573	65535	64913.25
792.1363	111.5105	65535	64910.8
792.2777	113.7632	65535	64910.4
792.4191	116.0154	65535	64900.5
792.5605	118.2672	65535	64906.3
792.7019	120.5185	65535	64900.65
792.8434	122.7693	65535	64902.9
792.9849	125.0197	65535	64897.4
793.1264	127.2696	65535	64891.35
793.2679	129.519	65535	64892
793.4094	131.7679	65535	64889
793.551	134.0163	65535	64885.5
793.6926	136.2642	65535	64879.85
793.8342	138.5117	65535	64872.9
793.9758	140.7587	65535	64875.95
794.1175	143.0052	65535	64875.75
794.2591	145.2512	65535	64873.7
794.4008	147.4967	65535	64875.4
794.5425	149.7417	65535	64868.8
794.6842	151.9863	65535	64869.2
794.826	154.2304	65535	64862.45
794.9677	156.4739	65535	64856.05
795.1095	158.717	65535	64859.2
795.2513	160.9596	65535	64852.6
795.3931	163.2017	65535	64854.65
795.535	165.4433	65535	64853.8
795.6768	167.6844	65535	64848
795.8187	169.925	65535	64842.95
795.9606	172.1651	65535	64843.05
796.1025	174.4047	65535	64838.7
796.2445	176.6439	65535	64836.4
796.3864	178.8825	65535	64833.4
796.5284	181.1206	65535	64830.25
796.6704	183.3582	65535	64824.9
796.8124	185.5954	65535	64827.8
796.9544	187.832	65535	64821.25
797.0965	190.0681	65535	64820.4
797.2386	192.3037	65535	64815.65
797.3806	194.5388	65535	64814.65
797.5228	196.7734	65535	64810.6
797.6649	199.0075	65535	64806.65
797.807	201.2411	65535	64808.15
797.9492	203.4742	65535	64803.85
798.0914	205.7068	65535	64804.7
798.2336	207.9389	65535	64796.95
798.3758	210.1704	65535	64799.9
798.518	212.4015	65535	64804.35
798.6603	214.632	65535	64814.35
798.8025	216.862	65535	64822.1
798.9448	219.0915	65535	64821.85
799.0871	221.3205	65535	64815.55
799.2294	223.549	65535	64821.9
799.3718	225.777	65535	64824.8
799.5141	228.0044	65535	64816.95
799.6565	230.2314	65535	64816.2
799.7989	232.4578	65535	64812
799.9413	234.6837	65535	64804
800.0837	236.909	65535	64802.35
800.2262	239.1339	65535	64777.4
800.3687	241.3582	65535	64795.2
800.5111	243.582	65535	64763.7
800.6536	245.8053	65535	64777.5
800.7961	248.0281	65535	64783.2
800.9387	250.2503	65535	64778.75
801.0812	252.472	65535	64774.15
801.2238	254.6932	65535	64774.05
801.3664	256.9139	65535	64774.75
801.509	259.134	65535	64769.7
801.6516	261.3536	65535	64769.9
801.7942	263.5727	65535	64770.6
801.9369	265.7912	65535	64771.6
802.0795	268.0092	65535	64764.55
802.2222	270.2267	65535	64768.1
802.3649	272.4436	65535	64771
802.5076	274.6601	65535	64758.15
802.6504	276.8759	65535	64758.65
802.7931	279.0913	65535	64763.5
802.9359	281.3061	65535	64760.55
803.0787	283.5204	65535	64756.7
803.2215	285.7341	65535	64752.75
803.3643	287.9473	65535	64741.4
803.5071	290.16	65535	64749
803.6499	292.3721	65535	64758.25
803.7928	294.5837	65535	64753.35
803.9357	296.7947	65535	64752.3
804.0786	299.0052	65535	64755.8
804.2215	301.2152	65535	64753.2
804.3644	303.4246	65535	64753.4
804.5074	305.6334	65535	64753.4
804.6503	307.8418	65535	64751.85
804.7933	310.0495	65535	64745.65
804.9363	312.2568	65535	64750.45
805.0793	314.4635	65535	64746.75
805.2223	316.6696	65535	64741.9
805.3653	318.8752	65535	64734.9
805.5084	321.0802	65535	64744.65
805.6514	323.2847	65535	64741.65
805.7945	325.4887	65535	64743.55
805.9376	327.692	65535	64744.3
806.0807	329.8949	65535	64741.3
806.2238	332.0972	65535	64738.8
806.367	334.2989	65535	64734
806.5101	336.5001	65535	64732.55
806.6533	338.7007	65535	64736.95
806.7965	340.9008	65535	64730.85
806.9397	343.1003	65535	64730.35
807.0829	345.2992	65535	64727.95
807.2261	347.4976	65535	64730.05
807.3693	349.6955	65535	64725.65
807.5126	351.8927	65535	64727.45
807.6559	354.0895	65535	64709.9
807.7991	356.2856	65535	64719.25
807.9424	358.4812	65535	64723.65
808.0857	360.6763	65535	64718.9
808.2291	362.8707	65535	64717.9
808.3724	365.0646	65535	64714.8
808.5158	367.258	65535	64714.5
808.6591	369.4508	65535	64711.4
808.8025	371.643	65535	64710.35
808.9459	373.8346	65535	64712
809.0893	376.0257	65535	64707.1
809.2327	378.2162	65535	64705.75
809.3762	380.4062	65535	64704.9
809.5196	382.5956	65535	64704.5
809.6631	384.7844	65535	64712
809.8066	386.9726	65535	64706.2
809.9501	389.1603	65535	64712.25
810.0936	391.3474	65535	64673.55
810.2371	393.5339	65535	64712.75
810.3806	395.7199	65535	64718.5
810.5241	397.9052	65535	64715.45
810.6677	400.09	65535	64711.55
810.8113	402.2743	65535	64712.7
810.9548	404.4579	65535	64713.75
811.0984	406.641	65535	64711.85
811.2421	408.8235	65535	64708.35
811.3857	411.0054	65535	64708.6
811.5293	413.1868	65535	64707.9
811.673	415.3675	65535	64701.85
811.8166	417.5477	65535	64704.1
811.9603	419.7273	65535	64702.35
812.104	421.9064	65535	64692.25
812.2477	424.0848	65535	64696.05
812.3914	426.2627	65535	64696.15
812.5351	428.4399	65535	64695.05
812.6788	430.6166	65535	64692.65
812.8226	432.7928	65535	64690.65
812.9663	434.9683	65535	64688.15
813.1101	437.1432	65535	64688.95
813.2539	439.3176	65535	64688.9
813.3977	441.4914	65535	64691.2
813.5415	443.6645	65535	64688.4
813.6853	445.8371	65535	64691.4
813.8291	448.0091	65535	64692.15
813.973	450.1806	65535	64689.4
814.1168	452.3514	65535	64687.85
814.2607	454.5216	65535	64677.3
814.4046	456.6913	65535	64688.05
814.5485	458.8603	65535	64687.9
814.6924	461.0288	65535	64687.35
814.8363	463.1967	65535	64689.55
814.9802	465.3639	65535	64686.3
815.1241	467.5306	65535	64687.25
815.2681	469.6967	65535	64688.1
815.412	471.8622	65535	64686.85
815.556	474.0271	65535	64685.3
815.7	476.1914	65535	64681.3
815.844	478.3551	65535	64682.55
815.988	480.5182	65535	64679.4
816.132	482.6807	65535	64682.75
816.276	484.8426	65535	64683.55
816.4201	487.0039	65535	64685.25
816.5641	489.1647	65535	64681
816.7082	491.3248	65535	64681.6
816.8522	493.4843	65535	64680.95
816.9963	495.6432	65535	64681.3
817.1404	497.8015	65535	64675.4
817.2845	499.9592	65535	64677.65
817.4286	502.1163	65535	64676.7
817.5727	504.2728	65535	64676.5
817.7168	506.4287	65535	64681
817.861	508.5839	65535	64680
818.0051	510.7386	65535	64675.25
818.1493	512.8927	65535	64674.3
818.2935	515.0461	65535	64675.45
818.4377	517.199	65535	64676.55
818.5818	519.3512	65535	64674.7
818.726	521.5029	65535	64669.65
818.8703	523.6539	65535	64671.85
819.0145	525.8043	65535	64669.55
819.1587	527.9541	65535	64670.05
819.303	530.1033	65535	64669.85
819.4472	532.2519	65535	64673.3
819.5915	534.3999	65535	64669.95
819.7357	536.5472	65535	64667.4
819.88	538.694	65535	64670.65
820.0243	540.8401	65535	64667.15
820.1686	542.9856	65535	64666.25
820.3129	545.1305	65535	64664.7
820.4572	547.2748	65535	64665.5
820.6016	549.4185	65535	64662.45
820.7459	551.5615	65535	64665.1
820.8902	553.704	65535	64662.65
821.0346	555.8458	65535	64665
821.1789	557.987	65535	64665.85
821.3233	560.1276	65535	64665.05
821.4677	562.2675	65535	64666.6
821.6121	564.4069	65535	64662.75
821.7565	566.5456	65535	64666.9
821.9009	568.6837	65535	64663.6
822.0453	570.8212	65535	64666.35
822.1897	572.958	65535	64660.9
822.3342	575.0942	65535	64666.8
822.4786	577.2299	65535	64665.05
822.6231	579.3648	65535	64668.4
822.7675	581.4992	65535	64669.1
822.912	583.6329	65535	64666.55
823.0565	585.766	65535	64668.65
823.201	587.8985	65535	64666.85
823.3454	590.0304	65535	64639.95
823.4899	592.1616	65535	64663.2
823.6345	594.2922	65535	64661.75
823.779	596.4222	65535	64659.75
823.9235	598.5515	65535	64659.15
824.068	600.6802	65535	64658.7
824.2126	602.8083	65535	64658
824.3571	604.9358	65535	64657.15
824.5017	607.0626	65535	64659.5
824.6462	609.1888	65535	64659.05
824.7908	611.3144	65535	64655.25
824.9354	613.4393	65535	64656.5
825.08	615.5636	65535	64657.1
825.2246	617.6873	65535	64657
825.3692	619.8103	65535	64657.15
825.5138	621.9327	65535	64654.25
825.6584	624.0544	65535	64655.15
825.803	626.1756	65535	64654.35
825.9477	628.2961	65535	64656.6
826.0923	630.4159	65535	64655.75
826.237	632.5351	65535	64654.65
826.3816	634.6537	65535	64654.85
826.5263	636.7716	65535	64653.75
826.6709	638.8889	65535	64653.5
826.8156	641.0056	65535	64653.5
826.9603	643.1216	65535	64650.75
827.105	645.237	65535	64653.4
827.2497	647.3518	65535	64654.35
827.3944	649.4659	65535	64655.25
827.5391	651.5793	65535	64653.8
827.6838	653.6922	65535	64652.25
827.8285	655.8043	65535	64654.05
827.9733	657.9159	65535	64649.5
828.118	660.0268	65535	64650.5
828.2627	662.137	65535	64652.55
828.4075	664.2466	65535	64646.95
828.5522	666.3556	65535	64651.45
828.697	668.4639	65535	64646.95
828.8418	670.5716	65535	64652.85
828.9865	672.6786	65535	64648.15
829.1313	674.785	65535	64644.6
829.2761	676.8907	65535	64650
829.4209	678.9958	65535	64651.55
829.5657	681.1002	65535	64647.15
829.7105	683.204	65535	64647.25
829.8553	685.3072	65535	64646.95
830.0001	687.4097	65535	64646
830.1449	689.5115	65535	64644.75
830.2898	691.6127	65535	64647.15
830.4346	693.7132	65535	64647
830.5794	695.8131	65535	64640.95
830.7243	697.9123	65535	64645.7
830.8691	700.0109	65535	64647.7
831.014	702.1089	65535	64643
831.1588	704.2061	65535	64648.4
831.3037	706.3028	65535	64642.75
831.4486	708.3987	65535	64646.55
831.5935	710.4941	65535	64644.25
831.7383	712.5887	65535	64644.35
831.8832	714.6827	65535	64640.5
832.0281	716.7761	65535	64641.7
832.173	718.8688	65535	64640.6
832.3179	720.9608	65535	64640.5
832.4628	723.0522	65535	64640.1
832.6077	725.1429	65535	64642.7
832.7527	727.233	65535	64643.1
832.8976	729.3224	65535	64641.8
833.0425	731.4112	65535	64644.55
833.1874	733.4993	65535	64640.25
833.3324	735.5867	65535	64639.35
833.4773	737.6735	65535	64639.75
833.6222	739.7596	65535	64640.15
833.7672	741.845	65535	64642.75
833.9122	743.9298	65535	64639.55
834.0571	746.014	65535	64641.3
834.2021	748.0974	65535	64636.55
834.347	750.1802	65535	64639.85
834.492	752.2624	65535	64638.6
834.637	754.3439	65535	64639.25
834.782	756.4247	65535	64630.9
834.9269	758.5048	65535	64643.1
835.0719	760.5843	65535	64639.1
835.2169	762.6631	65535	64640.05
835.3619	764.7413	65535	64640.8
835.5069	766.8188	65535	64637.1
835.6519	768.8956	65535	64639.05
835.7969	770.9718	65535	64638.35
835.9419	773.0473	65535	64639.5
836.0869	775.1221	65535	64641.15
836.232	777.1962	65535	64635.7
836.377	779.2697	65535	64640.3
836.522	781.3426	65535	64621.4
836.667	783.4147	65535	64639.1
836.8121	785.4862	65535	64641.65
836.9571	787.557	65535	64638.6
837.1021	789.6271	65535	64638.25
837.2472	791.6966	65535	64637.7
837.3922	793.7654	65535	64637.1
837.5373	795.8335	65535	64637
837.6823	797.901	65535	64637.05
837.8274	799.9678	65535	64639.1
837.9724	802.0339	65535	64638.85
838.1175	804.0993	65535	64628.1
838.2626	806.1641	65535	64635.85
838.4076	808.2282	65535	64637.2
838.5527	810.2916	65535	64634.55
838.6978	812.3544	65535	64637.2
838.8428	814.4164	65535	64638
838.9879	816.4778	65535	64636.95
839.133	818.5385	65535	64636.5
839.2781	820.5986	65535	64638.9
839.4232	822.658	65535	64634.45
839.5682	824.7166	65535	64636.7
839.7133	826.7747	65535	64637.35
839.8584	828.832	65535	64636.75
840.0035	830.8886	65535	64633.7
840.1486	832.9446	65535	64635.75
840.2937	834.9999	65535	64637.25
840.4388	837.0545	65535	64634.95
840.5839	839.1085	65535	64634.85
840.729	841.1618	65535	64633.1
840.8741	843.2143	65535	64635.95
841.0192	845.2662	65535	64635.3
841.1643	847.3175	65535	64636.55
841.3095	849.368	65535	64635.45
841.4546	851.4179	65535	64636.45
841.5997	853.467	65535	64636.45
841.7448	855.5155	65535	64637
841.8899	857.5633	65535	64634.5
842.0351	859.6105	65535	64636.45
842.1802	861.6569	65535	64633.1
842.3253	863.7027	65535	64632.1
842.4704	865.7478	65535	64634.35
842.6156	867.7922	65535	64633.1
842.7607	869.8359	65535	64630.55
842.9058	871.8789	65535	64635.1
843.0509	873.9212	65535	64602.8
843.1961	875.9629	65535	64635.75
843.3412	878.0039	65535	64631.95
843.4863	880.0441	65535	64633.85
843.6315	882.0837	65535	64634.35
843.7766	884.1226	65535	64633.6
843.9218	886.1609	65535	64635.75
844.0669	888.1984	65535	64635.55
844.212	890.2352	65535	64637.35
844.3572	892.2714	65535	64629.3
844.5023	894.3069	65535	64631.65
844.6475	896.3416	65535	64631.75
844.7926	898.3757	65535	64633.45
844.9377	900.4091	65535	64634
845.0829	902.4418	65535	64626.75
845.228	904.4739	65535	64633
845.3732	906.5052	65535	64630.85
845.5183	908.5358	65535	64633.05
845.6635	910.5658	65535	64631.75
845.8086	912.595	65535	64632.6
845.9538	914.6236	65535	64633.6
846.0989	916.6515	65535	64634.7
846.2441	918.6786	65535	64633.55
846.3892	920.7051	65535	64631
846.5344	922.7309	65535	64631.2
846.6795	924.756	65535	64631.85
846.8246	926.7804	65535	64629.65
846.9698	928.8041	65535	64629
847.1149	930.8272	65535	64631.95
847.2601	932.8495	65535	64632.2
847.4052	934.8711	65535	64633.2
847.5504	936.892	65535	64632.7
847.6955	938.9123	65535	64631.65
847.8407	940.9318	65535	64633.05
847.9858	942.9506	65535	64630.25
848.131	944.9688	65535	64631.15
848.2761	946.9862	65535	64630.9
848.4213	949.003	65535	64632
848.5664	951.019	65535	64633.3
848.7115	953.0344	65535	64633.3
848.8567	955.0491	65535	64632.5
849.0018	957.063	65535	64631.75
849.147	959.0763	65535	64632.3
849.2921	961.0888	65535	64630.95
849.4373	963.1007	65535	64632.7
849.5824	965.1119	65535	64634.9
849.7275	967.1223	65535	64635.15
849.8727	969.1321	65535	64633.85
850.0178	971.1412	65535	64633.05
850.1629	973.1495	65535	64632.7
850.3081	975.1572	65535	64602.25
850.4532	977.1641	65535	64630.45
850.5983	979.1704	65535	64629.15
850.7435	981.1759	65535	64628.6
850.8886	983.1808	65535	64630.2
851.0337	985.1849	65535	64622.5
851.1788	987.1884	65535	64629.2
851.324	989.1911	65535	64626.55
851.4691	991.1932	65535	64631.7
851.6142	993.1945	65535	64630.35
851.7593	995.1951	65535	64631.1
851.9045	997.1951	65535	64626.3
852.0496	999.1943	65535	64630.55
852.1947	1001.1928	65535	64629.85
852.3398	1003.1906	65535	64631.1
852.4849	1005.1877	65535	64633.1
852.63	1007.1841	65535	64630.6
852.7751	1009.1798	65535	64631.8
852.9202	1011.1748	65535	64634.75
853.0653	1013.1691	65535	64626.4
853.2104	1015.1627	65535	64631.4
853.3555	1017.1556	65535	64631.45
853.5006	1019.1477	65535	64632.4
853.6457	1021.1392	65535	64635.5
853.7908	1023.1299	65535	64633.8
853.9359	1025.12	65535	64633.45
854.081	1027.1093	65535	64635.8
854.2261	1029.0979	65535	64637.7
854.3712	1031.0859	65535	64637.6
854.5163	1033.0731	65535	64632.15
854.6613	1035.0596	65535	64635
854.8064	1037.0454	65535	64631.95
854.9515	1039.0304	65535	64632
855.0965	1041.0148	65535	64630.65
855.2416	1042.9985	65535	64629.2
855.3867	1044.9814	65535	64635.4
855.5317	1046.9636	65535	64629.2
855.6768	1048.9452	65535	64632.55
855.8219	1050.926	65535	64633.15
855.9669	1052.9061	65535	64633.7
856.112	1054.8855	65535	64633.65
856.257	1056.8642	65535	64634.45
856.4021	1058.8421	65535	64627.7
856.5471	1060.8194	65535	64631
856.6921	1062.7959	65535	64631.1
856.8372	1064.7717	65535	64628.3
856.9822	1066.7469	65535	64630.65
857.1272	1068.7213	65535	64628.6
857.2723	1070.695	65535	64632.8
857.4173	1072.6679	65535	64629.8
857.5623	1074.6402	65535	64631.75
857.7073	1076.6117	65535	64624.6
857.8523	1078.5826	65535	64632.85
857.9973	1080.5527	65535	64630.25
858.1423	1082.5221	65535	64629.9
858.2873	1084.4908	65535	64629.4
858.4323	1086.4587	65535	64631.6
858.5773	1088.426	65535	64630.95
858.7223	1090.3925	65535	64627.6
858.8673	1092.3584	65535	64634.25
859.0123	1094.3235	65535	64635.35
859.1573	1096.2879	65535	64632.5
859.3022	1098.2515	65535	64630.6
859.4472	1100.2145	65535	64632.75
859.5922	1102.1767	65535	64630.85
859.7371	1104.1382	65535	64633.4
859.8821	1106.099	65535	64629.6
860.027	1108.0591	65535	64631.35
860.172	1110.0185	65535	64630.6
860.3169	1111.9771	65535	64631.6
860.4619	1113.9351	65535	64632.2
860.6068	1115.8923	65535	64632.9
860.7517	1117.8488	65535	64630.55
860.8967	1119.8045	65535	64631.95
861.0416	1121.7596	65535	64631.9
861.1865	1123.7139	65535	64632.85
861.3314	1125.6675	65535	64633.4
861.4763	1127.6204	65535	64632.6
861.6212	1129.5726	65535	64630.1
861.7661	1131.524	65535	64632.95
861.911	1133.4748	65535	64630.15
862.0559	1135.4248	65535	64628.5
862.2008	1137.3741	65535	64631.9
862.3457	1139.3226	65535	64629.7
862.4905	1141.2705	65535	64632.5
862.6354	1143.2176	65535	64625.35
862.7803	1145.164	65535	64631.8
862.9251	1147.1097	65535	64632.75
863.07	1149.0546	65535	64630.6
863.2148	1150.9989	65535	64631.6
863.3597	1152.9424	65535	64630.85
863.5045	1154.8852	65535	64630.4
863.6493	1156.8272	65535	64634.05
863.7942	1158.7686	65535	64625.95
863.939	1160.7092	65535	64631.15
864.0838	1162.6491	65535	64630.35
864.2286	1164.5883	65535	64634.4
864.3734	1166.5267	65535	64633.8
864.5182	1168.4644	65535	64631.5
864.663	1170.4014	65535	64629.2
864.8078	1172.3377	65535	64634.8
864.9526	1174.2732	65535	64632.25
865.0974	1176.2081	65535	64631.7
865.2421	1178.1421	65535	64629.5
865.3869	1180.0755	65535	64632.35
865.5317	1182.0082	65535	64631.75
865.6764	1183.9401	65535	64631.05
865.8212	1185.8713	65535	64635.4
865.9659	1187.8017	65535	64632.6
866.1106	1189.7315	65535	64638
866.2554	1191.6605	65535	64606.95
866.4001	1193.5888	65535	64634.25
866.5448	1195.5163	65535	64633.65
866.6895	1197.4432	65535	64628.3
866.8342	1199.3693	65535	64634.9
866.9789	1201.2947	65535	64625.45
867.1236	1203.2193	65535	64633.85
867.2683	1205.1432	65535	64633.15
867.413	1207.0664	65535	64632.5
867.5576	1208.9889	65535	64631.05
867.7023	1210.9106	65535	64633.05
867.847	1212.8316	65535	64631.85
867.9916	1214.7519	65535	64622.45
868.1363	1216.6715	65535	64632.5
868.2809	1218.5903	65535	64632.55
868.4255	1220.5084	65535	64631.2
868.5701	1222.4257	65535	64633.75
868.7148	1224.3424	65535	64632.5
868.8594	1226.2583	65535	64630.2
869.004	1228.1735	65535	64632.4
869.1486	1230.0879	65535	64632.8
869.2932	1232.0016	65535	64631.65
869.4377	1233.9146	65535	64630.4
869.5823	1235.8269	65535	64633.85
869.7269	1237.7384	65535	64634.55
869.8715	1239.6492	65535	64634.55
870.016	1241.5592	65535	64633.25
870.1606	1243.4686	65535	64633.95
870.3051	1245.3772	65535	64631.65
870.4496	1247.285	65535	64631.7
870.5941	1249.1922	65535	64632.8
870.7387	1251.0986	65535	64633.3
870.8832	1253.0042	65535	64631.9
871.0277	1254.9092	65535	64632
871.1722	1256.8134	65535	64633.95
871.3167	1258.7169	65535	64634.05
871.4611	1260.6196	65535	64632.85
871.6056	1262.5216	65535	64631.4
871.7501	1264.4229	65535	64633.65
871.8945	1266.3234	65535	64633.15
872.039	1268.2232	65535	64628.95
872.1834	1270.1223	65535	64630.9
872.3278	1272.0207	65535	64633.3
872.4723	1273.9183	65535	64631.05
872.6167	1275.8151	65535	64633.45
872.7611	1277.7113	65535	64633.4
872.9055	1279.6067	65535	64633
873.0499	1281.5014	65535	64631.5
873.1943	1283.3953	65535	64628.35
873.3386	1285.2885	65535	64633.85
873.483	1287.181	65535	64635.65
873.6274	1289.0727	65535	64635.7
873.7717	1290.9637	65535	64634.05
873.9161	1292.854	65535	64633.9
874.0604	1294.7435	65535	64636.05
874.2047	1296.6323	65535	64634.2
874.349	1298.5204	65535	64630.7
874.4933	1300.4077	65535	64632
874.6376	1302.2943	65535	64631.75
874.7819	1304.1802	65535	64634.65
874.9262	1306.0653	65535	64632.95
875.0705	1307.9497	65535	64632.6
875.2147	1309.8333	65535	64634.9
875.359	1311.7162	65535	64634.75
875.5032	1313.5984	65535	64630.5
875.6475	1315.4798	65535	64632.6
875.7917	1317.3605	65535	64618.2
875.9359	1319.2405	65535	64632.35
876.0801	1321.1197	65535	64628.3
876.2243	1322.9982	65535	64626.45
876.3685	1324.876	65535	64634.55
876.5127	1326.753	65535	64634.7
876.6569	1328.6293	65535	64633
876.801	1330.5048	65535	64630.1
876.9452	1332.3796	65535	64633.25
877.0893	1334.2537	65535	64608.25
877.2335	1336.127	65535	64631.1
877.3776	1337.9996	65535	64632.3
877.5217	1339.8714	65535	64632.35
877.6658	1341.7426	65535	64588.2
877.8099	1343.6129	65535	64634
877.954	1345.4826	65535	64632.45
878.0981	1347.3515	65535	64629.8
878.2422	1349.2196	65535	64632.05
878.3862	1351.087	65535	64633.3
878.5303	1352.9537	65535	64633
878.6743	1354.8197	65535	64632
878.8184	1356.6849	65535	64632.1
878.9624	1358.5493	65535	64631.5
879.1064	1360.4131	65535	64631.45
879.2504	1362.276	65535	64635
879.3944	1364.1383	65535	64633.85
879.5384	1365.9998	65535	64627.85
879.6823	1367.8606	65535	64633.4
879.8263	1369.7206	65535	64633.9
879.9702	1371.5799	65535	64631.1
880.1142	1373.4384	65535	64631.95
880.2581	1375.2962	65535	64632.6
880.402	1377.1533	65535	64633.35
880.5459	1379.0096	65535	64633.15
880.6898	1380.8652	65535	64637
880.8337	1382.7201	65535	64634.35
880.9776	1384.5742	65535	64632.85
881.1215	1386.4275	65535	64632.85
881.2653	1388.2802	65535	64633.5
881.4092	1390.132	65535	64632.9
881.553	1391.9832	65535	64631.9
881.6968	1393.8336	65535	64633.5
881.8406	1395.6832	65535	64634.3
881.9844	1397.5322	65535	64633.75
882.1282	1399.3803	65535	64629.05
882.272	1401.2278	65535	64629.05
882.4158	1403.0745	65535	64634.05
882.5595	1404.9204	65535	64634.45
882.7033	1406.7656	65535	64634.1
882.847	1408.6101	65535	64631.95
882.9908	1410.4538	65535	64633.1
883.1345	1412.2968	65535	64633.2
883.2782	1414.139	65535	64633.45
883.4219	1415.9805	65535	64634.35
883.5656	1417.8213	65535	64629.05
883.7092	1419.6613	65535	64634.6
883.8529	1421.5006	65535	64631.85
883.9965	1423.3391	65535	64633.2
884.1402	1425.1769	65535	64632.45
884.2838	1427.0139	65535	64633.5
884.4274	1428.8502	65535	64633.1
884.571	1430.6858	65535	64632.25
884.7146	1432.5206	65535	64635.05
884.8582	1434.3547	65535	64633.2
885.0018	1436.188	65535	64634.3
885.1453	1438.0206	65535	64634.05
885.2889	1439.8524	65535	64631.25
885.4324	1441.6835	65535	64631.2
885.5759	1443.5139	65535	64630.25
885.7194	1445.3435	65535	64632.3
885.8629	1447.1724	65535	64635
886.0064	1449.0005	65535	64634.55
886.1499	1450.8279	65535	64633.7
886.2933	1452.6545	65535	64633.9
886.4368	1454.4804	65535	64635.5
886.5802	1456.3056	65535	64628.75
886.7237	1458.13	65535	64633.65
886.8671	1459.9536	65535	64634.4
887.0105	1461.7766	65535	64633.95
887.1539	1463.5987	65535	64634
887.2972	1465.4202	65535	64635.45
887.4406	1467.2409	65535	64634.25
887.584	1469.0608	65535	64634.55
887.7273	1470.88	65535	64633.85
887.8706	1472.6984	65535	64634.75
888.0139	1474.5161	65535	64632.05
888.1572	1476.3331	65535	64635.5
888.3005	1478.1493	65535	64635.6
888.4438	1479.9648	65535	64632.65
888.5871	1481.7795	65535	64636.6
888.7303	1483.5935	65535	64633.95
888.8736	1485.4067	65535	64633.9
889.0168	1487.2192	65535	64633.4
889.16	1489.031	65535	64632.75
889.3032	1490.842	65535	64633.5
889.4464	1492.6522	65535	64635.8
889.5896	1494.4618	65535	64632.25
889.7327	1496.2705	65535	64632.65
889.8759	1498.0785	65535	64635.3
890.019	1499.8858	65535	64634.35
890.1622	1501.6924	65535	64635
890.3053	1503.4981	65535	64635.05
890.4484	1505.3032	65535	64636.1
890.5914	1507.1075	65535	64634.8
890.7345	1508.911	65535	64637.15
890.8776	1510.7138	65535	64635.05
891.0206	1512.5159	65535	64633.15
891.1637	1514.3172	65535	64635.5
891.3067	1516.1178	65535	64638.15
891.4497	1517.9176	65535	64632.35
891.5927	1519.7166	65535	64636.25
891.7357	1521.515	65535	64628.75
891.8786	1523.3126	65535	64633.5
892.0216	1525.1094	65535	64635.05
892.1645	1526.9055	65535	64635.9
892.3074	1528.7008	65535	64637.65
892.4503	1530.4954	65535	64631
892.5932	1532.2893	65535	64637.7
892.7361	1534.0824	65535	64631.75
892.879	1535.8747	65535	64633.8
893.0218	1537.6663	65535	64636.3
893.1647	1539.4572	65535	64634.5
893.3075	1541.2473	65535	64634.8
893.4503	1543.0367	65535	64638.3
893.5931	1544.8253	65535	64631.8
893.7359	1546.6132	65535	64634.2
893.8787	1548.4003	65535	64628.3
894.0214	1550.1867	65535	64626.85
894.1642	1551.9723	65535	64633.5
894.3069	1553.7572	65535	64635.5
894.4496	1555.5414	65535	64637.95
894.5923	1557.3247	65535	64637.95
894.735	1559.1074	65535	64636.95
894.8777	1560.8893	65535	64637.55
895.0204	1562.6705	65535	64636.6
895.163	1564.4509	65535	64638.15
895.3056	1566.2305	65535	64638.25
895.4482	1568.0094	65535	64637.35
895.5908	1569.7876	65535	64638.7
895.7334	1571.565	65535	64638
895.876	1573.3417	65535	64639
896.0186	1575.1176	65535	64637.45
896.1611	1576.8928	65535	64638.05
896.3036	1578.6672	65535	64639.05
896.4461	1580.4409	65535	64638.4
896.5886	1582.2138	65535	64635.65
896.7311	1583.986	65535	64639.6
896.8736	1585.7575	65535	64638.3
897.0161	1587.5282	65535	64639.9
897.1585	1589.2981	65535	64640.55
897.3009	1591.0673	65535	64639.3
897.4433	1592.8358	65535	64641.3
897.5857	1594.6035	65535	64636.25
897.7281	1596.3704	65535	64639.55
897.8705	1598.1366	65535	64638.15
898.0128	1599.9021	65535	64638.75
898.1551	1601.6668	65535	64639.25
898.2975	1603.4308	65535	64635.85
898.4398	1605.194	65535	64633.95
898.5821	1606.9564	65535	64640.55
898.7243	1608.7182	65535	64636.65
898.8666	1610.4791	65535	64641.4
899.0088	1612.2394	65535	64642.55
899.1511	1613.9988	65535	64639.8
899.2933	1615.7576	65535	64641.65
899.4355	1617.5156	65535	64635.3
899.5776	1619.2728	65535	64638.9
899.7198	1621.0293	65535	64639.55
899.862	1622.785	65535	64636.2
900.0041	1624.54	65535	64639.1
900.1462	1626.2942	65535	64639.35
900.2883	1628.0477	65535	64639
900.4304	1629.8005	65535	64637.25
900.5725	1631.5525	65535	64639.45
900.7145	1633.3037	65535	64640.4
900.8566	1635.0542	65535	64641.25
900.9986	1636.804	65535	64640.85
901.1406	1638.553	65533.9	64552.7
901.2826	1640.3013	65535	64640.1
901.4245	1642.0488	65534.3	64639.85
901.5665	1643.7955	65535	64642.6
901.7085	1645.5416	65535	64641.6
901.8504	1647.2868	65523.3	64629.7
901.9923	1649.0313	65535	64641.25
902.1342	1650.7751	65530.25	64632.05
902.2761	1652.5181	65524	64630.25
902.4179	1654.2604	65527.35	64634.8
902.5598	1656.0019	65526.4	64635.15
902.7016	1657.7427	65523.45	64629.65
902.8434	1659.4828	65533.4	64638.55
902.9852	1661.222	65521.05	64627.2
903.127	1662.9606	65535	64641.4
903.2687	1664.6984	65517.3	64624.3
903.4105	1666.4354	65525.6	64629.6
903.5522	1668.1717	65499.7	64604.65
903.6939	1669.9072	65438	64544.25
903.8356	1671.642	65445.45	64546.5
903.9773	1673.3761	65431.65	64539.65
904.119	1675.1094	65432.7	64539.4
904.2606	1676.8419	65377.85	64485.05
904.4022	1678.5737	65394.85	64501.35
904.5439	1680.3048	65372.15	64478.6
904.6855	1682.0351	65355.7	64461.65
904.827	1683.7646	65334.05	64435.45
904.9686	1685.4934	65355.5	64463.45
905.1101	1687.2215	65267.95	64373.5
905.2517	1688.9488	65340.35	64445.1
905.3932	1690.6754	65174.65	64280.9
905.5347	1692.4012	65258.15	64362.45
905.6761	1694.1263	65290.2	64398.4
905.8176	1695.8506	65218.95	64324.75
905.9591	1697.5742	65223.05	64331.75
906.1005	1699.297	65214.75	64322.35
906.2419	1701.0191	65242.25	64347.05
906.3833	1702.7404	65112.95	64218.75
906.5246	1704.461	65071.25	64177.95
906.666	1706.1808	65159.25	64264.45
906.8073	1707.8999	65120.35	64228.35
906.9487	1709.6182	65088.9	64196.45
907.09	1711.3358	65068	64177.6
907.2313	1713.0527	65066.65	64177.1
907.3725	1714.7688	65072.55	64172.65
907.5138	1716.4841	64932.55	64038.9
907.655	1718.1987	64977.35	64081.25
907.7962	1719.9126	64961.4	64070.05
907.9374	1721.6257	64973.1	64078.15
908.0786	1723.338	64981.25	64088.45
908.2198	1725.0496	64808.45	63914.3
908.3609	1726.7605	64846.8	63952
908.502	1728.4706	64776.45	63883.3
908.6431	1730.18	64861.75	63968.7
908.7842	1731.8886	64759.55	63866.35
908.9253	1733.5964	64698.65	63800.7
909.0664	1735.3036	64832.35	63935.55
909.2074	1737.0099	64729.95	63837.7
909.3484	1738.7156	64634.5	63745.5
909.4894	1740.4204	64598.75	63704.35
909.6304	1742.1246	64664.3	63770.55
909.7714	1743.8279	64687.05	63794.5
909.9123	1745.5306	64643.3	63751.35
910.0532	1747.2325	64162.95	63271.05
910.1941	1748.9336	64190.4	63300
910.335	1750.634	64394.55	63499.5
910.4759	1752.3336	64487.75	63596.3
910.6168	1754.0325	64125.9	63232.65
910.7576	1755.7307	64464.35	63572.8
910.8984	1757.4281	64002.05	63111.05
911.0392	1759.1247	64360.8	63461.4
911.18	1760.8206	63760.8	62863.05
911.3208	1762.5158	63845	62948.15
911.4615	1764.2102	64002.7	63111.35
911.6022	1765.9039	63874	62981.9
911.7429	1767.5968	63729.85	62839
911.8836	1769.289	63661.6	62768.95
912.0243	1770.9804	63814	62922.3
912.1649	1772.6711	63661.3	62768.65
912.3056	1774.361	63510.85	62617.3
912.4462	1776.0502	63518.65	62625.55
912.5868	1777.7386	62946.55	62049.1
912.7274	1779.4263	63319.85	62426.35
912.8679	1781.1132	63308.2	62416.05
913.0084	1782.7994	63192.4	62299.55
913.149	1784.4849	63204	62313.5
913.2895	1786.1696	62425.45	61526.45
913.4299	1787.8535	62922.15	62031.7
913.5704	1789.5367	63029.5	62138.85
913.7108	1791.2192	62539.15	61649.05
913.8513	1792.9009	62182.35	61260.25
913.9917	1794.5818	62669.4	61775.6
914.132	1796.2621	62165.55	61275.2
914.2724	1797.9415	62241.55	61348.95
914.4128	1799.6202	62162.4	61270.8
914.5531	1801.2982	62121.9	61230.05
914.6934	1802.9755	61559.1	60666
914.8337	1804.6519	61306.85	60415.35
914.9739	1806.3277	62212.75	61322.35
915.1142	1808.0027	60858.95	59967.85
915.2544	1809.6769	61393.2	60500.95
915.3946	1811.3504	61438.05	60546.3
915.5348	1813.0231	60424.95	59532.9
915.675	1814.6951	61076.3	60185.15
915.8151	1816.3664	60648	59756.6
915.9553	1818.0369	60671.35	59779.55
916.0954	1819.7067	60380.15	59487.65
916.2355	1821.3757	61010.9	60115.95
916.3755	1823.044	60139.75	59248.95
916.5156	1824.7115	59639.05	58745.25
916.6556	1826.3783	59929.05	59038.5
916.7956	1828.0443	60029.35	59139.3
916.9356	1829.7096	59681.6	58788.7
917.0756	1831.3741	58957.5	58063.55
917.2155	1833.0379	59349.7	58458.6
917.3555	1834.701	59313.3	58419.85
917.4954	1836.3633	58727.85	57837.6
917.6353	1838.0248	59036.25	58143.3
917.7751	1839.6856	58859.75	57968.55
917.915	1841.3457	58288.95	57398.1
918.0548	1843.005	58943.6	58052.9
918.1946	1844.6636	58563.35	57672.7
918.3344	1846.3214	57714.4	56821.4
918.4742	1847.9785	57910.65	57020.35
918.6139	1849.6349	57834.85	56941.8
918.7537	1851.2904	58457.85	57556.7
918.8934	1852.9453	57458.15	56565.75
919.0331	1854.5994	57743.75	56851.4
919.1727	1856.2528	57714.1	56818.45
919.3124	1857.9054	57209.1	56316.55
919.452	1859.5572	56973.45	56083.7
919.5916	1861.2083	57156.4	56264.1
919.7312	1862.8587	57734.15	56842.4
919.8708	1864.5084	56309.3	55417.9
920.0103	1866.1572	56877.3	55984.5
920.1498	1867.8054	56168.2	55274.15
920.2893	1869.4528	56591.45	55701.45
920.4288	1871.0994	55955.1	55062.75
920.5683	1872.7453	56000.5	55108.15
920.7077	1874.3905	56171.75	55272.8
920.8471	1876.0349	55602	54711.55
920.9865	1877.6786	55989.95	55098.05
921.1259	1879.3215	55486.6	54595.8
921.2653	1880.9637	55958.8	55067.15
921.4046	1882.6051	55461.7	54572.15
921.5439	1884.2458	55124.95	54230.45
921.6832	1885.8858	54819.15	53928.15
921.8225	1887.525	55043.3	54150.9
921.9617	1889.1634	54853.2	53962.65
922.101	1890.8011	54560.45	53668.3
922.2402	1892.4381	53970.1	53078.1
922.3794	1894.0743	54537.75	53646.85
922.5185	1895.7098	54145.6	53255.6
922.6577	1897.3446	53787.1	52893.8
922.7968	1898.9786	53952.3	53057.9
922.9359	1900.6118	53651.35	52761.2
923.075	1902.2443	53293.5	52400.1
923.214	1903.8761	53570.5	52680.05
923.3531	1905.5071	53180	52290.3
923.4921	1907.1374	52581.35	51689.55
923.6311	1908.7669	52806.95	51914.1
923.77	1910.3957	53041.2	52152.1
923.909	1912.0237	52360.3	51469.85
924.0479	1913.651	52194.8	51303.3
924.1868	1915.2776	52090	51199.8
924.3257	1916.9034	51965.9	51074.7
924.4646	1918.5285	51687.55	50797.9
924.6034	1920.1528	51611	50719.9
924.7422	1921.7764	51486.9	50596.05
924.881	1923.3992	51329.6	50440.2
925.0198	1925.0213	50965.5	50073.75
925.1586	1926.6427	50563.05	49673
925.2973	1928.2633	50706.7	49736.1
925.436	1929.8832	50461.65	49567.65
925.5747	1931.5023	50277.5	49388.05
925.7134	1933.1207	49991.4	49099.55
925.852	1934.7383	50132.35	49240.55
925.9906	1936.3552	49811.8	48921.85
926.1292	1937.9714	49649.7	48760.5
926.2678	1939.5868	49545.8	48652.35
926.4064	1941.2015	49159.1	48266.4
926.5449	1942.8154	48920.9	48031.1
926.6834	1944.4286	48832.2	47941.3
926.8219	1946.041	48702.8	47794.2
926.9604	1947.6528	48439.1	47544.55
927.0988	1949.2637	48294.4	47402.35
927.2372	1950.8739	48125.1	47233.35
927.3756	1952.4834	48122.05	47232.15
927.514	1954.0921	48001.5	47110.65
927.6523	1955.7001	47726.25	46832.8
927.7907	1957.3074	47672.95	46783.5
927.929	1958.9139	47346.1	46456
928.0673	1960.5197	47307.45	46416.65
928.2055	1962.1247	47051.65	46162.75
928.3438	1963.729	46808.55	45920.3
928.482	1965.3325	46652.4	45738.25
928.6202	1966.9353	46610.55	45721.65
928.7584	1968.5374	46375.6	45485
928.8965	1970.1387	46211.7	45320.9
929.0346	1971.7393	46087.65	45198.4
929.1727	1973.3392	45897.55	45008.05
929.3108	1974.9383	45669.7	44779.1
929.4489	1976.5366	45486.6	44596.05
929.5869	1978.1342	45457.25	44567.7
929.7249	1979.7311	45320.4	44429.7
929.8629	1981.3273	45188.4	44296.85
930.0009	1982.9227	44959.8	44069.25
930.1388	1984.5173	44856.7	43968.7
930.2767	1986.1112	44657.3	43768.75
930.4146	1987.7044	44628.7	43739.95
930.5525	1989.2968	44337.5	43447.7
930.6904	1990.8885	44249.7	43357.5
930.8282	1992.4795	44217.45	43325.75
930.966	1994.0697	44020.25	43130.75
931.1038	1995.6592	43898.75	43009.25
931.2415	1997.2479	43760.15	42869.25
931.3793	1998.8359	43586.55	42697.85
931.517	2000.4232	43425.8	42538
931.6547	2002.0097	43287.55	42398.5
931.7923	2003.5955	43052	42162.75
931.93	2005.1805	43015.2	42124.5
932.0676	2006.7648	42931.45	42042.65
932.2052	2008.3484	42759.7	41868.85
932.3427	2009.9312	42752.75	41862.05
932.4803	2011.5133	42541.15	41652.7
932.6178	2013.0946	42403.45	41515
932.7553	2014.6752	42312.5	41426.1
932.8928	2016.2551	42207.4	41317.2
933.0302	2017.8342	41976.9	41089.35
933.1676	2019.4126	41779.4	40889.9
933.305	2020.9902	41655.8	40767.35
933.4424	2022.5672	41649.55	40759.55
933.5798	2024.1433	41488.5	40592.45
933.7171	2025.7188	41310.65	40422.5
933.8544	2027.2935	41206.8	40317.5
933.9917	2028.8674	41079.25	40193.3
934.129	2030.4406	40941.45	40052.95
934.2662	2032.0131	40707.95	39820.25
934.4034	2033.5849	40596.65	39702.15
934.5406	2035.1559	40533.3	39645.15
934.6778	2036.7261	40441.85	39553.5
934.8149	2038.2957	40315.55	39426.65
934.952	2039.8645	40250.8	39361.75
935.0891	2041.4325	40223.95	39334.15
935.2262	2042.9998	40046.5	39157.9
935.3632	2044.5664	39915.45	39026.6
935.5002	2046.1323	39809.75	38920.35
935.6372	2047.6974	39692.95	38804.1
935.7742	2049.2617	39532.95	38644.25
935.9111	2050.8254	39521.55	38628.9
936.048	2052.3883	39475.35	38584.75
936.1849	2053.9504	39280.4	38390.9
936.3218	2055.5118	39180.4	38291
936.4586	2057.0725	38935.55	38042.5
936.5955	2058.6325	38866.3	37979.15
936.7323	2060.1917	38690.65	37800.8
936.869	2061.7502	38620.1	37728.3
937.0058	2063.3079	38492.1	37603.75
937.1425	2064.8649	38363.3	37472.5
937.2792	2066.4212	38235.1	37343.65
937.4159	2067.9767	38089.55	37199.65
937.5525	2069.5315	37917.25	37028.55
937.6891	2071.0856	37760.7	36869.9
937.8257	2072.6389	37641	36749.75
937.9623	2074.1915	37461	36573.8
938.0989	2075.7433	37280.6	36391.45
938.2354	2077.2945	37265.5	36378.5
938.3719	2078.8448	37030.55	36142.3
938.5084	2080.3945	36991.4	36103.85
938.6448	2081.9434	36936.15	36047.7
938.7812	2083.4916	36853.25	35963.65
938.9176	2085.039	36636.85	35745.3
939.054	2086.5857	36616.5	35725.15
939.1903	2088.1317	36522	35633.65
939.3267	2089.677	36453.3	35563.75
939.463	2091.2215	36255.4	35368
939.5992	2092.7652	36196.35	35307.15
939.7355	2094.3083	36119.75	35230.8
939.8717	2095.8506	36036.6	35149.15
940.0079	2097.3921	35997.75	35109.45
940.1441	2098.933	35821.85	34932.3
940.2802	2100.4731	35674.05	34785.2
940.4163	2102.0124	35682.05	34785.6
940.5524	2103.5511	35570.05	34681.35
940.6885	2105.089	35519.15	34628.85
940.8245	2106.6261	35385.9	34497.45
940.9606	2108.1626	35283.45	34393.2
941.0965	2109.6983	35227.05	34312.3
941.2325	2111.2332	35099.9	34207.55
941.3684	2112.7675	34945.3	34056.1
941.5044	2114.301	34824.3	33932.7
941.6403	2115.8337	34854.95	33965.8
941.7761	2117.3657	34725.15	33835.25
941.912	2118.897	34625.25	33734.65
942.0478	2120.4276	34529	33633.95
942.1835	2121.9575	34338	33449.35
942.3193	2123.4866	34308.2	33404.95
942.455	2125.0149	34192	33299.4
942.5907	2126.5426	33984.15	33095.9
942.7264	2128.0695	33949.05	33056.05
942.8621	2129.5956	33867.1	32979.5
942.9977	2131.1211	33791.75	32897.65
943.1333	2132.6458	33656.85	32768.1
943.2689	2134.1698	33604.15	32714.9
943.4044	2135.693	33524.45	32629.15
943.54	2137.2155	33456.15	32563.4
943.6755	2138.7373	33321.65	32432
943.8109	2140.2584	33185.1	32298.5
943.9464	2141.7787	33099.9	32206.3
944.0818	2143.2983	32971.9	32084.55
944.2172	2144.8171	32747.15	31859.8
944.3526	2146.3353	32668.5	31779.1
944.4879	2147.8527	32613.1	31725.75
944.6232	2149.3693	32551.45	31660.75
944.7585	2150.8853	32392.55	31501.4
944.8938	2152.4005	32283.35	31394.4
945.029	2153.9149	32179.05	31288.5
945.1642	2155.4287	32144.05	31255.8
945.2994	2156.9417	32054.7	31164.9
945.4346	2158.454	31961.55	31069.15
945.5697	2159.9655	31810.2	30920.55
945.7048	2161.4764	31796.25	30904.35
945.8399	2162.9865	31680.65	30790.25
945.9749	2164.4958	31589.35	30699
946.1099	2166.0045	31463.2	30571.55
946.2449	2167.5124	31450.85	30563.75
946.3799	2169.0195	31302.1	30411.95
946.5148	2170.526	31307.55	30419.05
946.6498	2172.0317	31155.6	30266.1
946.7846	2173.5367	31060.85	30170.95
946.9195	2175.0409	30997.95	30110.8
947.0543	2176.5445	30936.6	30048.2
947.1891	2178.0473	30823.75	29933.95
947.3239	2179.5494	30634.6	29742.45
947.4587	2181.0507	30582.5	29693.5
947.5934	2182.5513	30492.35	29601.95
947.7281	2184.0512	30445.9	29557.7
947.8628	2185.5504	30288.95	29400.45
947.9974	2187.0488	30148.55	29259.8
948.132	2188.5465	30029.45	29141.3
948.2666	2190.0435	29901.65	29012.2
948.4012	2191.5397	29816.3	28927.95
948.5357	2193.0353	29713.05	28823.75
948.6702	2194.5301	29546.8	28656.35
948.8047	2196.0241	29481.1	28591.15
948.9392	2197.5175	29430.65	28541.15
949.0736	2199.0101	29275.45	28383.9
949.208	2200.502	29154.5	28265.7
949.3424	2201.9931	29070.4	28181.15
949.4767	2203.4835	28955.85	28066.45
949.611	2204.9733	28878.9	27984.1
949.7453	2206.4622	28759.15	27870.45
949.8796	2207.9505	28623.3	27731.45
950.0138	2209.438	28481.9	27593.9
950.148	2210.9248	28427	27539.1
950.2822	2212.4109	28373.5	27482.95
950.4164	2213.8962	28179.2	27287.05
950.5505	2215.3809	28189.65	27298.3
950.6846	2216.8648	28093.35	27202.4
950.8186	2218.3479	28007.1	27113.1
950.9527	2219.8304	27870.05	26976.7
951.0867	2221.3121	27794.5	26904.2
951.2207	2222.7931	27690.15	26800.4
951.3546	2224.2733	27571.35	26682.85
951.4886	2225.7529	27500	26608.85
951.6225	2227.2317	27410.45	26517.65
951.7563	2228.7098	27364.95	26474.1
951.8902	2230.1872	27214.7	26325.45
952.024	2231.6638	27168.2	26280.35
952.1578	2233.1397	27023.95	26129
952.2916	2234.6149	26992.2	26102.75
952.4253	2236.0894	26872.45	25982
952.559	2237.5632	26837	25945.8
952.6927	2239.0362	26715.75	25826.2
952.8263	2240.5085	26605.2	25715.5
952.9599	2241.9801	26463.3	25572.75
953.0935	2243.4509	26423.25	25534.4
953.2271	2244.921	26318.4	25429.9
953.3606	2246.3904	26218.05	25325.9
953.4941	2247.8591	26117.35	25227.15
953.6276	2249.3271	26069.3	25180.65
953.7611	2250.7943	25980.05	25089.9
953.8945	2252.2608	25867.45	24977.85
954.0279	2253.7266	25812.1	24923.8
954.1612	2255.1917	25738.5	24849.15
954.2946	2256.656	25608.35	24717.8
954.4279	2258.1197	25529.55	24640.75
954.5612	2259.5826	25466.45	24575.85
954.6944	2261.0447	25412.55	24522.3
954.8276	2262.5062	25307.85	24415.4
954.9608	2263.9669	25270.3	24376.85
955.094	2265.4269	25227.55	24337.45
955.2271	2266.8862	25118.25	24228.95
955.3602	2268.3448	25078.55	24190.1
955.4933	2269.8026	25011.6	24121.75
955.6264	2271.2598	24904.3	24016.5
955.7594	2272.7162	24810.5	23921.75
955.8924	2274.1719	24749.7	23860.85
956.0253	2275.6268	24655.8	23766.95
956.1583	2277.0811	24614.35	23726
956.2912	2278.5346	24558.65	23669
956.4241	2279.9874	24466.5	23578.7
956.5569	2281.4395	24439.65	23551.65
956.6897	2282.8908	24323.65	23430.3
956.8225	2284.3414	24275	23383.95
956.9553	2285.7914	24200.35	23311.45
957.088	2287.2406	24061.9	23169.55
957.2207	2288.689	24044.85	23154.25
957.3534	2290.1368	23953.75	23060.9
957.486	2291.5838	23876.15	22983.6
957.6186	2293.0302	23801.95	22910
957.7512	2294.4758	23652.1	22762.85
957.8838	2295.9206	23578.4	22687.55
958.0163	2297.3648	23517.2	22627.15
958.1488	2298.8082	23488	22597.55
958.2813	2300.251	23382.85	22494.95
958.4137	2301.693	23312.3	22421.2
958.5461	2303.1343	23320.5	22430.35
958.6785	2304.5748	23216.05	22328.3
958.8108	2306.0147	23097.2	22208
958.9432	2307.4538	23062.25	22172.05
959.0754	2308.8922	22977.9	22090.4
959.2077	2310.3299	22890.35	22001.5
959.3399	2311.7669	22791.8	21903.5
959.4721	2313.2031	22709.7	21820.3
959.6043	2314.6387	22658.6	21770.25
959.7365	2316.0735	22580.8	21691.25
959.8686	2317.5076	22527.35	21637.1
960.0006	2318.941	22450.6	21558.95
960.1327	2320.3737	22406.4	21516.75
960.2647	2321.8056	22308	21416.55
960.3967	2323.2369	22257.3	21366.85
960.5287	2324.6674	22193.55	21302.25
960.6606	2326.0972	22078.55	21186.45
960.7925	2327.5263	21987.3	21098.55
960.9244	2328.9547	21900.35	21012.4
961.0562	2330.3823	21880.35	20991.75
961.1881	2331.8092	21875.65	20980.8
961.3198	2333.2355	21739.5	20847.95
961.4516	2334.661	21690.6	20799.7
961.5833	2336.0858	21661.3	20771.15
961.715	2337.5098	21573.3	20682.45
961.8467	2338.9332	21544.3	20656.95
961.9783	2340.3558	21453.15	20559.9
962.1099	2341.7778	21381.4	20492.4
962.2415	2343.199	21290.85	20399.65
962.373	2344.6195	21201.25	20314
962.5045	2346.0393	21129.95	20241.75
962.636	2347.4583	21129.9	20238.15
962.7675	2348.8767	21003	20112.25
962.8989	2350.2943	20981.55	20090
963.0303	2351.7113	20949.2	20058.55
963.1617	2353.1275	20863.5	19974
963.293	2354.543	20786.55	19890.3
963.4243	2355.9578	20754.25	19865.4
963.5556	2357.3718	20570.25	19681.5
963.6868	2358.7852	20531.3	19640.8
963.818	2360.1978	20433.5	19542.9
963.9492	2361.6098	20381	19490.6
964.0803	2363.021	20342.65	19451.1
964.2114	2364.4315	20271.6	19383.4
964.3425	2365.8413	20185.9	19296.9
964.4736	2367.2504	20149.15	19261.85
964.6046	2368.6587	20030.45	19143.85
964.7356	2370.0664	19957	19066.8
964.8666	2371.4733	19923.65	19035.4
964.9975	2372.8795	19829.3	18939.8
965.1284	2374.285	19717.15	18827.45
965.2593	2375.6899	19603.6	18714.2
965.3901	2377.0939	19542.05	18653.65
965.5209	2378.4973	19454.6	18567.55
965.6517	2379.9	19413.7	18523.95
965.7825	2381.3019	19356.9	18467.4
965.9132	2382.7032	19271.7	18383.85
966.0439	2384.1037	19244.95	18360
966.1745	2385.5035	19144.05	18256
966.3051	2386.9027	19086	18199.45
966.4357	2388.3011	19060.8	18168.7
966.5663	2389.6987	18993.2	18104.6
966.6968	2391.0957	18903.55	18015.85
966.8273	2392.492	18811.95	17923.65
966.9578	2393.8876	18720.85	17832.3
967.0882	2395.2824	18673.85	17785.3
967.2186	2396.6765	18560.75	17673.7
967.349	2398.07	18496	17609.3
967.4793	2399.4627	18478.7	17591.2
967.6097	2400.8547	18392.9	17505.35
967.7399	2402.246	18333.25	17438.5
967.8702	2403.6366	18210.9	17320.7
968.0004	2405.0265	18123.85	17236.05
968.1306	2406.4156	18086.6	17194.1
968.2607	2407.8041	17989	17097.9
968.3909	2409.1918	17916.45	17024.6
968.521	2410.5789	17848.3	16959.55
968.651	2411.9652	17778.55	16887.05
968.781	2413.3508	17737.75	16849.7
968.911	2414.7358	17653.55	16764.5
969.041	2416.12	17598.95	16710.35
969.1709	2417.5035	17562.5	16673.45
969.3008	2418.8863	17449.8	16559.2
969.4307	2420.2684	17414.05	16526.3
969.5606	2421.6497	17355.05	16467.8
969.6904	2423.0304	17221.15	16332.75
969.8201	2424.4104	17201.6	16312.75
969.9499	2425.7896	17116.15	16226.4
970.0796	2427.1682	17090.75	16202.2
970.2093	2428.546	17042.2	16153.75
970.3389	2429.9232	17014.55	16124.95
970.4685	2431.2996	16966.15	16076.35
970.5981	2432.6753	16905.85	16016.85
970.7277	2434.0503	16840.55	15951.4
970.8572	2435.4246	16769.05	15881.25
970.9867	2436.7982	16691.25	15798.2
971.1161	2438.1711	16664.75	15776.75
971.2456	2439.5433	16611.9	15721.4
971.375	2440.9148	16561.15	15665.75
971.5043	2442.2856	16486.1	15599.15
971.6336	2443.6557	16442.45	15553.15
971.7629	2445.025	16369.3	15479.75
971.8922	2446.3937	16313.65	15424.4
972.0214	2447.7617	16252	15362.05
972.1506	2449.1289	16233.6	15345.3
972.2798	2450.4955	16185.3	15292.2
972.4089	2451.8613	16154	15267.65
972.538	2453.2265	16071.7	15185.55
972.6671	2454.5909	16013.25	15123.6
972.7961	2455.9546	16007.45	15118.3
972.9251	2457.3177	15895.3	15006
973.0541	2458.68	15899.85	15007.4
973.1831	2460.0416	15867.8	14979.85
973.312	2461.4025	15841.1	14952.05
973.4408	2462.7627	15763.45	14863.35
973.5697	2464.1222	15716.7	14828.5
973.6985	2465.4811	15660.25	14770.05
973.8273	2466.8392	15562.6	14671.9
973.956	2468.1966	15543	14650.1
974.0847	2469.5533	15533	14641.75
974.2134	2470.9093	15480.9	14592.95
974.3421	2472.2645	15435.15	14545.25
974.4707	2473.6191	15401.4	14514.4
974.5993	2474.973	15298.8	14410.05
974.7278	2476.3262	15235.4	14342.8
974.8563	2477.6787	15215.55	14326.65
974.9848	2479.0305	15084.9	14193.95
975.1132	2480.3816	15038.35	14149.15
975.2417	2481.7319	15013.95	14125.3
975.37	2483.0816	14960.4	14071.85
975.4984	2484.4306	14903.85	14013.9
975.6267	2485.7789	14854.5	13968.1
975.755	2487.1264	14766.1	13875.7
975.8833	2488.4733	14709.05	13821.4
976.0115	2489.8195	14659.4	13753.25
976.1397	2491.165	14589.5	13697.15
976.2678	2492.5097	14546.85	13654.7
976.3959	2493.8538	14504.8	13617.95
976.524	2495.1972	14412.1	13525.2
976.6521	2496.5398	14374.3	13484.65
976.7801	2497.8818	14336.5	13447.1
976.9081	2499.2231	14271.15	13382.55
977.036	2500.5637	14201.95	13310.8
977.164	2501.9035	14168.5	13278.15
977.2918	2503.2427	14153.75	13262.5
977.4197	2504.5812	14065.6	13175.15
977.5475	2505.919	14017.25	13127.2
977.6753	2507.256	14000.7	13111.35
977.8031	2508.5924	13926.25	13037.1
977.9308	2509.9281	13912.25	13018.6
978.0585	2511.2631	13869.05	12981.85
978.1861	2512.5974	13805.95	12916.3
978.3137	2513.9309	13747.4	12857.1
978.4413	2515.2638	13752.4	12837.2
978.5689	2516.596	13660.4	12773.2
978.6964	2517.9275	13614.55	12724.3
978.8239	2519.2583	13556.5	12667.15
978.9513	2520.5884	13503.55	12615.1
979.0788	2521.9178	13460.65	12571.45
979.2062	2523.2465	13388.15	12498.45
979.3335	2524.5745	13309.35	12419.8
979.4608	2525.9018	13295.95	12407.2
979.5881	2527.2284	13279.3	12392.6
979.7154	2528.5543	13221.8	12335
979.8426	2529.8796	13199.3	12311.3
979.9698	2531.2041	13133.15	12246.7
980.0969	2532.5279	13129.95	12242.15
980.224	2533.851	13087.55	12198.15
980.3511	2535.1735	13027.3	12138.7
980.4781	2536.4952	13004.05	12115.3
980.6052	2537.8163	12976.95	12088.35
980.7321	2539.1366	12948.35	12059.9
980.8591	2540.4562	12898.1	12008.6
980.986	2541.7752	12892.05	12005.45
981.1129	2543.0935	12823.3	11932.1
981.2397	2544.411	12819.1	11930.65
981.3665	2545.7279	12779.1	11890.75
981.4933	2547.0441	12783.9	11895.15
981.62	2548.3596	12723.75	11832.7
981.7467	2549.6744	12674.5	11785.5
981.8734	2550.9885	12646.4	11750.15
982.0001	2552.3019	12601.8	11715.15
982.1267	2553.6146	12594.25	11705.7
982.2532	2554.9266	12556.3	11666.75
982.3798	2556.2379	12484.5	11594.35
982.5063	2557.5485	12473.2	11586.05
982.6327	2558.8585	12442.95	11547.25
982.7592	2560.1677	12401	11505.85
982.8856	2561.4762	12388.5	11499.75
983.0119	2562.7841	12362.2	11471.6
983.1383	2564.0913	12348.4	11460.95
983.2646	2565.3977	12313.85	11425.65
983.3908	2566.7035	12271	11381.65
983.517	2568.0086	12252.8	11360.15
983.6432	2569.313	12213.7	11323.95
983.7694	2570.6167	12191.6	11299
983.8955	2571.9197	12156	11266.95
984.0216	2573.222	12116.8	11225.8
984.1476	2574.5236	12104.05	11214.85
984.2737	2575.8246	12039.05	11146.35
984.3996	2577.1248	12022.35	11130.6
984.5256	2578.4244	12012.3	11123.95
984.6515	2579.7232	11977.85	11091.1
984.7774	2581.0214	11977.85	11065.05
984.9032	2582.3189	11943.1	11054.65
985.029	2583.6157	11885.6	10994
985.1548	2584.9118	11862	10973.4
985.2806	2586.2072	11797.55	10908.4
985.4063	2587.5019	11795.8	10907.55
985.5319	2588.7959	11754.8	10865.1
985.6576	2590.0893	11737.55	10848.1
985.7832	2591.3819	11719.9	10831
985.9087	2592.6739	11675.7	10787.35
986.0343	2593.9652	11636.6	10747.75
986.1597	2595.2557	11574	10687
986.2852	2596.5456	11534.2	10642.4
986.4106	2597.8348	11471.4	10583.8
986.536	2599.1234	11427.75	10540.65
986.6614	2600.4112	11415.3	10527.4
986.7867	2601.6983	11358.55	10467.15
986.912	2602.9848	11344.3	10455.05
987.0372	2604.2705	11275.9	10381.1
987.1624	2605.5556	11249.45	10360.8
987.2876	2606.84	11192.75	10302
987.4128	2608.1237	11148.05	10257.95
987.5379	2609.4067	11106.3	10219.05
987.6629	2610.689	11094.2	10196.65
987.788	2611.9707	11049.45	10156.4
987.913	2613.2516	11005.65	10114
988.0379	2614.5319	10940.95	10052.6
988.1629	2615.8115	10897.8	10008.2
988.2878	2617.0903	10881.75	9991.2
988.4126	2618.3685	10821.05	9932.9
988.5375	2619.6461	10794.65	9905.3
988.6622	2620.9229	10742.9	9855.65
988.787	2622.199	10711.4	9820.9
988.9117	2623.4745	10685.4	9796.7
989.0364	2624.7493	10649	9759.65
989.161	2626.0234	10593.9	9707.05
989.2857	2627.2968	10563.95	9673.95
989.4102	2628.5695	10532.85	9641.75
989.5348	2629.8415	10456.05	9568.65
989.6593	2631.1128	10433.5	9543.4
989.7837	2632.3835	10394.2	9506
989.9082	2633.6535	10338.05	9448.3
990.0326	2634.9228	10314.25	9426.55
990.1569	2636.1914	10274.85	9389.1
990.2812	2637.4593	10281.8	9390.7
990.4055	2638.7265	10220	9330.4
990.5298	2639.9931	10174.2	9285.2
990.654	2641.259	10155.4	9268.55
990.7782	2642.5242	10127.3	9239
990.9023	2643.7887	10062.85	9173.05
991.0264	2645.0525	10058.25	9169.2
991.1505	2646.3156	10022.05	9132.45
991.2745	2647.5781	9988.8	9099.05
991.3985	2648.8398	9940.2	9052.7
991.5225	2650.1009	9911.15	9012.1
991.6464	2651.3613	9881.6	8993.9
991.7703	2652.6211	9850.7	8963.35
991.8942	2653.8801	9831.55	8941.55
992.018	2655.1385	9805.05	8914.45
992.1418	2656.3961	9753.65	8862.3
992.2655	2657.6531	9742.45	8854
992.3892	2658.9094	9711.4	8823.8
992.5129	2660.1651	9692.65	8806.7
992.6366	2661.42	9661.55	8773.45
992.7602	2662.6743	9629.1	8737.35
992.8837	2663.9279	9608.9	8719.35
993.0073	2665.1808	9570.45	8680.2
993.1307	2666.433	9547.25	8656.5
993.2542	2667.6846	9510.95	8624.7
993.3776	2668.9354	9489.85	8598.25
993.501	2670.1856	9474.5	8585.85
993.6244	2671.4351	9432.55	8544.55
993.7477	2672.6839	9421.95	8530.9
993.8709	2673.9321	9399.95	8511.1
993.9942	2675.1795	9338.85	8450
994.1174	2676.4263	9332	8442.8
994.2405	2677.6724	9276	8388.4
994.3637	2678.9179	9275.45	8383.35
994.4868	2680.1626	9239.1	8350.6
994.6098	2681.4067	9224.5	8336.3
994.7328	2682.6501	9197.15	8307.9
994.8558	2683.8928	9162.6	8274.1
994.9788	2685.1348	9090.85	8202.15
995.1017	2686.3761	9087.2	8199.1
995.2245	2687.6168	9050.25	8162.45
995.3474	2688.8568	9027	8137.25
995.4702	2690.0961	8977.1	8088.8
995.5929	2691.3348	8949.65	8061.55
995.7156	2692.5727	8918.65	8030.45
995.8383	2693.81	8901.75	8014
995.961	2695.0466	8861.85	7974.25
996.0836	2696.2826	8852.35	7962.15
996.2062	2697.5178	8839.15	7947.8
996.3287	2698.7524	8808.95	7920.05
996.4512	2699.9863	8768	7877
996.5737	2701.2195	8758.6	7872.85
996.6961	2702.452	8705.95	7817.1
996.8185	2703.6839	8683.65	7794.6
996.9408	2704.9151	8687.65	7799.45
997.0631	2706.1456	8629.9	7740.9
997.1854	2707.3755	8613.1	7722.85
997.3077	2708.6046	8584.45	7693.3
997.4299	2709.8331	8555.05	7666.95
997.552	2711.0609	8542.15	7653.85
997.6742	2712.2881	8509.8	7621.5
997.7963	2713.5145	8497.75	7607.3
997.9183	2714.7403	8492.25	7603.25
998.0403	2715.9654	8446.3	7556.15
998.1623	2717.1899	8431.9	7526.75
998.2842	2718.4136	8423.65	7536.3
998.4062	2719.6367	8404.2	7516.5
998.528	2720.8591	8381.1	7485.8
998.6498	2722.0809	8339.2	7451.05
998.7716	2723.3019	8312.7	7418.85
998.8934	2724.5223	8301.5	7411.6
999.0151	2725.7421	8264.9	7373.5
999.1368	2726.9611	8256.25	7365
999.2584	2728.1795	8207	7315
999.38	2729.3972	8189.5	7300.4
999.5016	2730.6142	8157.05	7255.8
999.6231	2731.8306	8093.2	7200.45
999.7446	2733.0462	8048.65	7158.4
999.8661	2734.2612	8009.3	7116.35
999.9875	2735.4756	7943.45	7054.55
1000.1089	2736.6892	7909.05	7020.9
1000.2302	2737.9022	7875.2	6988.2
1000.3515	2739.1145	7831.2	6940.6
1000.4728	2740.3262	7792.95	6898.25
1000.594	2741.5372	7746.05	6858.2
1000.7152	2742.7475	7732.05	6844
1000.8363	2743.9571	7706.5	6814.15
1000.9575	2745.1661	7665.65	6771.4
1001.0785	2746.3744	7615.85	6726.95
1001.1996	2747.582	7600.75	6713.3
1001.3206	2748.7889	7580.55	6691.3
1001.4415	2749.9952	7543.7	6657.3
1001.5625	2751.2008	7522.8	6635.2
1001.6833	2752.4057	7503.4	6613.65
1001.8042	2753.61	7477.45	6587.95
1001.925	2754.8136	7450.9	6560.25
1002.0458	2756.0165	7436.55	6548.15
1002.1665	2757.2188	7394.05	6506.45
1002.2872	2758.4204	7351.95	6464.75
1002.4078	2759.6213	7326.15	6434.25
1002.5285	2760.8215	7305	6412.45
1002.649	2762.0211	7295.35	6403.8
1002.7696	2763.22	7265.85	6374.4
1002.8901	2764.4182	7222.35	6332.85
1003.0106	2765.6158	7208.1	6320.65
1003.131	2766.8127	7196.3	6309.3
1003.2514	2768.009	7167.85	6280.5
1003.3717	2769.2045	7150	6262.4
1003.492	2770.3994	7117.3	6226
1003.6123	2771.5936	7096.85	6208.3
1003.7325	2772.7872	7063.95	6176.55
1003.8527	2773.9801	7033.55	6143.65
1003.9729	2775.1723	7025.6	6122.45
1004.093	2776.3639	6991.2	6105.15
1004.2131	2777.5548	6950.05	6060.05
1004.3331	2778.745	6942.3	6053.5
1004.4531	2779.9346	6939.15	6050.9
1004.5731	2781.1235	6893.65	6004.45
1004.693	2782.3117	6875.35	5987.55
1004.8129	2783.4992	6849.95	5960.1
1004.9328	2784.6861	6834.45	5946.2
1005.0526	2785.8723	6821.2	5931.6
1005.1723	2787.0579	6785.4	5896.95
1005.2921	2788.2428	6774.15	5885.9
1005.4118	2789.427	6762.7	5876.45
1005.5314	2790.6106	6738.95	5850.5
1005.651	2791.7935	6723.25	5834.05
1005.7706	2792.9757	6711.5	5823
1005.8902	2794.1573	6709.85	5819.8
1006.0097	2795.3382	6694.2	5805.9
1006.1291	2796.5184	6659	5772.7
1006.2485	2797.698	6688.1	5797.55
1006.3679	2798.8769	6667.95	5778.95
1006.4873	2800.0551	6647.45	5760.15
1006.6066	2801.2327	6651.45	5759.2
1006.7258	2802.4096	6623.2	5735.3
1006.8451	2803.5859	6618.6	5730.3
1006.9642	2804.7615	6614.7	5722.85
1007.0834	2805.9364	6612.85	5725.5
1007.2025	2807.1106	6617.25	5730.1
1007.3216	2808.2842	6632.9	5742.15
1007.4406	2809.4572	6625.75	5736.8
1007.5596	2810.6294	6651.65	5760.6
1007.6785	2811.801	6687	5800.85
1007.7975	2812.972	6675.25	5788.75
1007.9163	2814.1423	6691.35	5804.45
1008.0352	2815.3119	6738.55	5852.5
1008.154	2816.4808	6765.8	5877.85
1008.2727	2817.6491	6776.1	5886.85
1008.3914	2818.8167	6814.85	5928.25
1008.5101	2819.9837	6846.2	5953.6
1008.6288	2821.15	6871.45	5981.45
1008.7474	2822.3157	6872.45	5984.85
1008.8659	2823.4807	6921.65	6030.8
1008.9844	2824.645	6940.3	6051
1009.1029	2825.8086	6980.45	6093.7
1009.2214	2826.9716	7004.05	6116.65
1009.3398	2828.134	7053.1	6165.85
1009.4581	2829.2957	7052.95	6165.3
1009.5764	2830.4567	7072.25	6184.85
1009.6947	2831.617	7063.95	6174.5
1009.813	2832.7767	7056.45	6167.1
1009.9312	2833.9358	7044.5	6157.7
1010.0493	2835.0941	7034.15	6144.75
1010.1675	2836.2519	7022.4	6135.05
1010.2855	2837.4089	6995.3	6107.3
1010.4036	2838.5653	6956.05	6069.3
1010.5216	2839.7211	6956.8	6069.7
1010.6396	2840.8761	6937.95	6047.9
1010.7575	2842.0306	6952.85	6067.55
1010.8754	2843.1843	6971.2	6084.55
1010.9932	2844.3374	7012.6	6124.15
1011.111	2845.4899	7035.9	6145.4
1011.2288	2846.6417	7087.95	6199.35
1011.3465	2847.7928	7155.6	6269.2
1011.4642	2848.9433	7175.05	6287.5
1011.5818	2850.0931	7263.3	6378.75
1011.6995	2851.2422	7303.7	6412.45
1011.817	2852.3907	7360.7	6472.7
1011.9345	2853.5385	7401.25	6513.25
1012.052	2854.6857	7467.25	6551.6
1012.1695	2855.8323	7466.45	6580.4
1012.2869	2856.9781	7499.7	6611.8
1012.4042	2858.1233	7530.4	6643.35
1012.5216	2859.2679	7551.95	6663.85
1012.6389	2860.4118	7559.2	6671.3
1012.7561	2861.555	7591.5	6699.7
1012.8733	2862.6976	7595.55	6705.65
1012.9905	2863.8395	7620.65	6732.35
1013.1076	2864.9808	7626.2	6741.4
1013.2247	2866.1214	7613.9	6726.65
1013.3417	2867.2614	7631	6742.45
1013.4587	2868.4007	7617.25	6725.4
1013.5757	2869.5393	7603.75	6712.65
1013.6926	2870.6773	7614.65	6723.3
1013.8095	2871.8146	7592.2	6701.95
1013.9263	2872.9513	7606.35	6717.55
1014.0431	2874.0874	7572.15	6684.8
1014.1599	2875.2227	7532.2	6644.7
1014.2766	2876.3574	7489.45	6601.15
1014.3933	2877.4915	7446	6558.9
1014.51	2878.6249	7419.8	6531.95
1014.6266	2879.7577	7363.15	6472.2
1014.7431	2880.8898	7316.3	6418.7
1014.8596	2882.0212	7278.8	6393.6
1014.9761	2883.152	7264.25	6375.55
1015.0925	2884.2821	7225.5	6338.1
1015.2089	2885.4116	7195.55	6307.55
1015.3253	2886.5405	7191.85	6302.3
1015.4416	2887.6686	7185.3	6296.25
1015.5579	2888.7962	7165.25	6277.75
1015.6741	2889.923	7164.45	6277.85
1015.7903	2891.0493	7150	6266.2
1015.9065	2892.1748	7151.55	6262.85
1016.0226	2893.2997	7133.6	6244.4
1016.1387	2894.424	7123.6	6237.35
1016.2547	2895.5476	7123.4	6235
1016.3707	2896.6706	7137.6	6252
1016.4866	2897.7929	7123.95	6235.8
1016.6025	2898.9145	7152.3	6265.25
1016.7184	2900.0355	7150	6261.3
1016.8342	2901.1559	7163.45	6275.7
1016.95	2902.2756	7178.5	6291.2
1017.0658	2903.3946	7182.3	6295
1017.1815	2904.513	7206.1	6316.6
1017.2971	2905.6308	7205.1	6316.8
1017.4127	2906.7479	7208.5	6320.9
1017.5283	2907.8643	7230.15	6342.45
1017.6439	2908.9801	7213.35	6323.75
1017.7594	2910.0953	7187.6	6300.25
1017.8748	2911.2098	7195.15	6303.2
1017.9902	2912.3236	7166.4	6271.1
1018.1056	2913.4368	7147.85	6255.95
1018.2209	2914.5494	7097.05	6208.6
1018.3362	2915.6613	7066.7	6173.6
1018.4515	2916.7725	7038.35	6149.1
1018.5667	2917.8831	6985.75	6097.4
1018.6819	2918.9931	6951.35	6061.3
1018.797	2920.1024	6894.15	6003.9
1018.9121	2921.211	6875.05	5986.5
1019.0271	2922.319	6847	5959.15
1019.1421	2923.4264	6822.5	5936.1
1019.2571	2924.5331	6792.55	5906.7
1019.372	2925.6391	6772.8	5884.85
1019.4869	2926.7445	6725.2	5840.25
1019.6017	2927.8493	6727.15	5839.35
1019.7165	2928.9534	6690	5801.25
1019.8313	2930.0569	6682.4	5791.3
1019.946	2931.1597	6671.45	5783.2
1020.0606	2932.2619	6650.15	5761.2
1020.1753	2933.3634	6638.6	5751.5
1020.2899	2934.4643	6625.1	5729.25
1020.4044	2935.5645	6580.55	5687.2
1020.5189	2936.6641	6557.9	5665.35
1020.6334	2937.763	6490.7	5605.2
1020.7478	2938.8613	6449.8	5562.8
1020.8622	2939.959	6390.35	5497.95
1020.9765	2941.056	6300.85	5412.75
1021.0908	2942.1523	6206.75	5317.45
1021.2051	2943.248	6087.7	5201.4
1021.3193	2944.3431	5997.5	5109.65
1021.4334	2945.4375	5891.75	5003
1021.5476	2946.5313	5786.2	4900.5
1021.6617	2947.6244	5682.35	4794.55
1021.7757	2948.7169	5566.15	4679
1021.8897	2949.8087	5456.6	4570.35
1022.0037	2950.8999	5367.3	4478.8
1022.1176	2951.9904	5266.25	4379.25
1022.2315	2953.0803	5168.35	4279.2
1022.3453	2954.1696	5097.35	4209.85
1022.4591	2955.2582	5052.95	4165.5
1022.5728	2956.3462	4990.6	4104.65
1022.6865	2957.4335	4938.3	4049.1
1022.8002	2958.5202	4874.2	3983.95
1022.9138	2959.6062	4845.25	3956.25
1023.0274	2960.6916	4814	3927.65
1023.141	2961.7764	4771.7	3883.15
1023.2545	2962.8605	4747.85	3860.8
1023.3679	2963.9439	4730.4	3845.55
1023.4813	2965.0267	4708.1	3817.95
1023.5947	2966.1089	4702.85	3792.4
1023.708	2967.1905	4646.45	3760.45
1023.8213	2968.2714	4647.55	3760.95
1023.9346	2969.3516	4630	3742.75
1024.0478	2970.4312	4624	3730.05
1024.1609	2971.5102	4607.3	3718.45
1024.274	2972.5885	4590.05	3702.65
1024.3871	2973.6662	4579.1	3686.15
1024.5002	2974.7432	4558.95	3672.3
1024.6132	2975.8196	4542.2	3654.4
1024.7261	2976.8954	4516.65	3629.45
1024.839	2977.9705	4491.1	3604.85
1024.9519	2979.045	4464.95	3574.95
1025.0647	2980.1188	4441.65	3554.25
1025.1775	2981.192	4419.45	3531.95
1025.2902	2982.2645	4400.35	3512.65
1025.4029	2983.3364	4352.85	3465.1
1025.5156	2984.4077	4312.45	3426.35
1025.6282	2985.4783	4283.6	3389
1025.7407	2986.5483	4232.95	3345.8
1025.8532	2987.6177	4188.75	3301.25
1025.9657	2988.6864	4139.9	3251.5
1026.0782	2989.7545	4118.15	3230.8
1026.1906	2990.8219	4070.25	3182.85
1026.3029	2991.8887	4020.7	3131.65
1026.4152	2992.9548	3987.7	3101.15
1026.5275	2994.0204	3963.1	3077.55
1026.6397	2995.0852	3934.05	3047.1
1026.7519	2996.1495	3880.1	2991.45
1026.864	2997.2131	3839.3	2951.1
1026.9761	2998.276	3824.9	2939.3
1027.0882	2999.3383	3790	2902.95
1027.2002	3000.4	3751.3	2863.8
1027.3122	3001.4611	3744.25	2857.05
1027.4241	3002.5215	3716.4	2827.9
1027.536	3003.5812	3675.5	2787.45
1027.6478	3004.6404	3663.95	2776.5
1027.7596	3005.6989	3642	2752.85
1027.8714	3006.7567	3627.55	2742.3
1027.9831	3007.8139	3632.55	2723.95
1028.0947	3008.8705	3600.9	2713.4
1028.2064	3009.9264	3576.6	2685.7
1028.3179	3010.9818	3573.2	2685.65
1028.4295	3012.0364	3551.4	2662.6
1028.541	3013.0905	3550.7	2663.6
1028.6524	3014.1439	3528.45	2641.8
1028.7638	3015.1966	3528	2639.15
1028.8752	3016.2487	3520.15	2633.05
1028.9865	3017.3002	3515.7	2621.7
1029.0978	3018.3511	3511.75	2624.4
1029.209	3019.4013	3487	2600
1029.3202	3020.4509	3481.25	2595
1029.4314	3021.4998	3459	2570.35
1029.5425	3022.5481	3477.8	2592.9
1029.6535	3023.5958	3448.7	2559.95
1029.7645	3024.6428	3450.85	2560.85
1029.8755	3025.6892	3430.65	2545.3
1029.9864	3026.735	3424.6	2536
1030.0973	3027.7802	3412.25	2524
1030.2082	3028.8247	3398.25	2511.4
1030.319	3029.8685	3391.65	2504.75
1030.4297	3030.9118	3370.05	2482.55
1030.5404	3031.9544	3379.8	2494
1030.6511	3032.9963	3372.7	2485.4
1030.7617	3034.0376	3357.25	2470.35
1030.8723	3035.0783	3355.75	2464.55
1030.9829	3036.1184	3360.75	2471.7
1031.0934	3037.1578	3363.55	2476.6
1031.2038	3038.1966	3359.55	2473.1
1031.3142	3039.2348	3337.5	2451.45
1031.4246	3040.2723	3334.85	2440.15
1031.5349	3041.3092	3314.5	2429.4
1031.6452	3042.3455	3302.85	2415.3
1031.7554	3043.3811	3292.65	2405.3
1031.8656	3044.4161	3286.15	2400.55
1031.9758	3045.4505	3272.25	2386.15
1032.0859	3046.4842	3256	2366.15
1032.1959	3047.5173	3232.3	2346.2
1032.3059	3048.5498	3248.2	2361.9
1032.4159	3049.5816	3220.65	2332.45
1032.5258	3050.6128	3204.3	2315.2
1032.6357	3051.6434	3187.75	2298.75
1032.7455	3052.6734	3180.75	2291.85
1032.8553	3053.7027	3164.5	2278.05
1032.9651	3054.7314	3153.3	2268.7
1033.0748	3055.7594	3134.75	2247.7
1033.1845	3056.7868	3132.7	2246.25
1033.2941	3057.8136	3117.15	2230.45
1033.4037	3058.8398	3101.45	2214.5
1033.5132	3059.8653	3078.75	2193.8
1033.6227	3060.8902	3078.4	2191.75
1033.7321	3061.9145	3062.45	2177.2
1033.8415	3062.9381	3046.75	2157.6
1033.9509	3063.9612	3048.1	2145.6
1034.0602	3064.9835	3030.75	2143.1
1034.1694	3066.0053	3009.7	2120.65
1034.2787	3067.0264	2999.9	2115.25
1034.3878	3068.0469	2989.6	2101.7
1034.497	3069.0668	2988.4	2099.15
1034.6061	3070.086	2960.2	2074.2
1034.7151	3071.1046	2941.85	2055.15
1034.8241	3072.1226	2928.65	2041.5
1034.9331	3073.1399	2920	2031.95
1035.042	3074.1567	2895.05	2008.05
1035.1508	3075.1727	2878.65	1989.55
1035.2597	3076.1882	2868.95	1981.2
1035.3684	3077.203	2853.55	1968.05
1035.4772	3078.2173	2836.1	1946.4
1035.5859	3079.2308	2825.25	1934.5
1035.6945	3080.2438	2810.45	1922.05
1035.8031	3081.2561	2803.25	1916.3
1035.9117	3082.2678	2786.9	1900.4
1036.0202	3083.2789	2784.35	1895.1
1036.1286	3084.2893	2781.2	1894.5
1036.2371	3085.2991	2743.9	1856
1036.3454	3086.3083	2733.35	1841.45
1036.4538	3087.3169	2732.95	1844.5
1036.562	3088.3248	2728.05	1839.6
1036.6703	3089.3321	2705.6	1815.55
1036.7785	3090.3388	2690.35	1805.05
1036.8866	3091.3449	2678.85	1793.05
1036.9948	3092.3503	2668.05	1776.7
1037.1028	3093.3551	2661.6	1776.35
1037.2108	3094.3593	2644.1	1758.1
1037.3188	3095.3629	2638.3	1752.65
1037.4267	3096.3658	2637.15	1748.7
1037.5346	3097.3681	2623.6	1736.15
1037.6425	3098.3698	2610.25	1722.8
1037.7503	3099.3708	2607.95	1711.45
1037.858	3100.3713	2579.1	1692.1
1037.9657	3101.3711	2594.2	1707.45
1038.0734	3102.3702	2696	1667.65
1038.181	3103.3688	2562.15	1671.75
1038.2886	3104.3667	2539	1651.75
1038.3961	3105.364	2530.35	1645.6
1038.5036	3106.3607	2519.9	1630.85
1038.611	3107.3568	2518.6	1630.1
1038.7184	3108.3522	2509.75	1623.75
1038.8257	3109.347	2495.5	1608.4
1038.933	3110.3412	2497.3	1606
1039.0403	3111.3348	2484.2	1597.15
1039.1475	3112.3277	2475.05	1588.35
1039.2547	3113.32	2452.7	1566.55
1039.3618	3114.3117	2440.75	1553.8
1039.4689	3115.3028	2440.8	1554.2
1039.5759	3116.2932	2424.95	1534.1
1039.6829	3117.2831	2426.6	1533.45
1039.7898	3118.2723	2419.5	1533.1
1039.8967	3119.2608	2412.15	1526.1
1040.0035	3120.2488	2391.75	1504.7
1040.1103	3121.2361	2391.2	1504
1040.2171	3122.2229	2381.7	1495.3
1040.3238	3123.209	2371.5	1484.4
1040.4305	3124.1944	2360.95	1475.25
1040.5371	3125.1793	2355.9	1467.15
1040.6437	3126.1635	2346.15	1458.65
1040.7502	3127.1471	2335.2	1446.4
1040.8567	3128.1301	2338.55	1453.3
1040.9631	3129.1125	2324.15	1438.55
1041.0695	3130.0942	2326.7	1441.55
1041.1759	3131.0753	2330.1	1435.45
1041.2822	3132.0558	2314.9	1425.95
1041.3884	3133.0357	2302.25	1413.75
1041.4946	3134.015	2292.8	1404.45
1041.6008	3134.9936	2289.1	1401.25
1041.7069	3135.9716	2299.85	1391.4
1041.813	3136.949	2282.55	1395.65
1041.919	3137.9258	2277	1385.3
1042.025	3138.902	2265.1	1374.4
1042.1309	3139.8775	2264.45	1378.1
1042.2368	3140.8524	2254.55	1367.7
1042.3427	3141.8267	2240.95	1352.45
1042.4485	3142.8004	2232.75	1346.65
1042.5542	3143.7735	2238.5	1345.95
1042.6599	3144.7459	2232.95	1343.8
1042.7656	3145.7178	2230.25	1342.8
1042.8712	3146.689	2221.8	1336.65
1042.9768	3147.6596	2206.6	1318.65
1043.0823	3148.6295	2201.65	1315.9
1043.1878	3149.5989	2190	1303.25
1043.2932	3150.5676	2182.85	1299.5
1043.3986	3151.5357	2180.45	1294.6
1043.5039	3152.5032	2166.35	1281.45
1043.6092	3153.4701	2154.65	1267.2
1043.7145	3154.4364	2153.4	1262.8
1043.8197	3155.402	2149	1260.6
1043.9248	3156.367	2137.9	1249.55
1044.03	3157.3315	2178.65	1249.35
1044.135	3158.2952	2132.95	1247.4
1044.24	3159.2584	2117.2	1231.6
1044.345	3160.221	2116.05	1227.9
1044.4499	3161.1829	2102.05	1215.4
1044.5548	3162.1442	2101.05	1213.65
1044.6596	3163.105	2089.95	1202.55
1044.7644	3164.065	2082.15	1194.65
1044.8692	3165.0245	2075.85	1186
1044.9739	3165.9834	2064.3	1177.9
1045.0785	3166.9416	2056.5	1170.7
1045.1831	3167.8993	2054.95	1167.45
1045.2877	3168.8563	2042.25	1153.35
1045.3922	3169.8127	2045.45	1160.8
1045.4966	3170.7684	2040.95	1152.2
1045.6011	3171.7236	2043.75	1154.85
1045.7054	3172.6782	2035.45	1147.5
1045.8098	3173.6321	2025.45	1137.55
1045.914	3174.5854	2017.15	1125.75
1046.0183	3175.5381	2012.2	1123.6
1046.1224	3176.4902	2008.45	1122.85
1046.2266	3177.4417	1987.6	1101.9
1046.3307	3178.3926	1990.4	1106.65
1046.4347	3179.3428	1973.75	1086.9
1046.5387	3180.2924	1971.2	1083.4
1046.6427	3181.2415	1966.45	1078.15
1046.7466	3182.1899	1968.85	1081.55
1046.8504	3183.1377	1961.9	1074.8
1046.9542	3184.0848	1956.8	1067.6
1047.058	3185.0314	1948.25	1060.65
1047.1617	3185.9773	1932.65	1045.3
1047.2654	3186.9227	1928.2	1041
1047.369	3187.8674	1930.55	1045.65
1047.4726	3188.8115	1932.7	1043.05
1047.5761	3189.755	1916.75	1028.9
1047.6796	3190.6979	1912.05	1024.7
1047.783	3191.6402	1909.2	1022
1047.8864	3192.5818	1908.9	1020.4
1047.9898	3193.5229	1929.15	1018.5
1048.0931	3194.4633	1901.25	1014.35
1048.1963	3195.4031	1886.95	1002.05
1048.2995	3196.3423	1881.45	996.85
1048.4027	3197.2809	1874.3	987.35
1048.5058	3198.2189	1883.75	998.7
1048.6089	3199.1563	1865.95	970.7
1048.7119	3200.0931	1861.5	975.95
1048.8148	3201.0292	1853.75	969.2
1048.9178	3201.9648	1836.05	948.65
1049.0206	3202.8997	1849.55	959.45
1049.1235	3203.834	1832.05	943.3
1049.2262	3204.7677	1838.5	951.75
1049.329	3205.7008	1832.9	946.6
1049.4317	3206.6333	1825.9	939.5
1049.5343	3207.5652	1820.15	933.25
1049.6369	3208.4964	1830.45	943.5
1049.7394	3209.4271	1817.3	932.6
1049.8419	3210.3571	1807.85	920.8
1049.9444	3211.2865	1800.25	914.15
1050.0468	3212.2154	1796.05	909.2
1050.1491	3213.1436	1791.2	902.55
1050.2514	3214.0712	1795.8	902.75
1050.3537	3214.9982	1785.15	900.45
1050.4559	3215.9246	1778.75	891.8
1050.5581	3216.8503	1775.55	890.05
1050.6602	3217.7755	1770	883.65
1050.7623	3218.7001	1760.45	873.55
1050.8643	3219.624	1774.8	887.15
1050.9663	3220.5473	1753.95	866.85
1051.0682	3221.4701	1746.6	860.25
1051.1701	3222.3922	1756.4	867.25
1051.2719	3223.3137	1746.2	859.75
1051.3737	3224.2346	1737.5	850.1
1051.4754	3225.1549	1734.45	849.35
1051.5771	3226.0746	1732.65	847.25
1051.6788	3226.9937	1723.7	837.65
1051.7804	3227.9121	1721	835.65
1051.8819	3228.83	1719.9	832.8
1051.9834	3229.7473	1711.05	822.65
1052.0849	3230.6639	1704.8	817.2
1052.1863	3231.5799	1698.4	811.9
1052.2876	3232.4954	1699.1	813.25
1052.3889	3233.4102	1690.05	802.2
1052.4902	3234.3244	1693.15	806.4
1052.5914	3235.238	1690.95	804.55
1052.6926	3236.151	1703.05	790.55
1052.7937	3237.0634	1673	788.8
1052.8948	3237.9752	1673.15	787.3
1052.9958	3238.8864	1669.15	781.65
1053.0968	3239.797	1665.25	779.1
1053.1977	3240.7069	1658.05	772.5
1053.2986	3241.6163	1642.95	755.35
1053.3994	3242.5251	1651.6	765.7
1053.5002	3243.4332	1646.9	761.8
1053.6009	3244.3408	1646.15	759.7
1053.7016	3245.2477	1632.05	746.2
1053.8022	3246.154	1628.85	741.15
1053.9028	3247.0598	1626.35	739.4
1054.0034	3247.9649	1613.7	728.2
1054.1039	3248.8694	1614.5	729.25
1054.2043	3249.7733	1615.95	729.25
1054.3047	3250.6766	1614.5	729
1054.4051	3251.5793	1592.85	705.3
1054.5054	3252.4814	1591.4	707.4
1054.6056	3253.3829	1593	705.1
1054.7058	3254.2838	1592.9	705.75
1054.806	3255.1841	1586.1	699.2
1054.9061	3256.0838	1578.9	692.3
1055.0061	3256.9829	1577.25	690.15
1055.1062	3257.8814	1575.9	686.7
1055.2061	3258.7792	1560.5	673.05
1055.306	3259.6765	1553.95	664.7
1055.4059	3260.5731	1543.7	656.5
1055.5057	3261.4692	1550.55	662.45
1055.6055	3262.3647	1530.5	643
1055.7052	3263.2595	1526	640
1055.8049	3264.1538	1523.7	636.05
1055.9045	3265.0474	1507.7	620.55
1056.0041	3265.9404	1492.15	605.45
1056.1036	3266.8329	1481.15	595.35
1056.2031	3267.7247	1481.55	586
1056.3025	3268.616	1469.3	582.05
1056.4019	3269.5066	1441.55	556.15
1056.5013	3270.3966	1434.9	546.6
1056.6005	3271.286	1416.15	531.05
