Software Version:	3.9.2.0
Unit SN:	10000200
Spectrometer SN:	6960
Date:	3/6/2024 11:06:37 AM
Data Line Index:	25
Spectral Points:	2048
Integration time (ms):	125
Averages:	20
Delay (ms):	30
Sequence Number:	1
Processing:	dark subtract
Laser Power (mW):	300
Laser Current (mA):	821
Laser Diode Temp (C):	25.1
Laser Case Temp (C):	28.5
System Temp (C):	28.3
Spectrometer Temp (C):	25.8
CCD Temp (C):	0.004
Secondary Temp (C):	20.003
Heatsink Temp (C):	23.994
CCDPCB Temp (C):	37.274
SecondaryPCB Temp (C):	35.129

Wavelength	RamanShift	Raw Counts	Dark Subtracted
787.061	30.1047	1052.35	638.85
787.2016	32.3739	1072.75	661.55
787.3422	34.6426	1120.35	706.95
787.4828	36.9109	1162.25	748.15
787.6235	39.1787	1213.25	796.4
787.7642	41.4461	1266.25	844.45
787.9049	43.7131	1327.7	900.1
788.0456	45.9796	1390.5	960.6
788.1863	48.2456	1454.25	1020.8
788.3271	50.5112	1503.1	1064.25
788.4679	52.7764	1571.95	1132.65
788.6087	55.0411	1652.8	1209.15
788.7496	57.3054	1723.55	1272.15
788.8904	59.5692	1811.6	1358.25
789.0313	61.8326	1902.95	1445.95
789.1722	64.0955	1999.35	1538.75
789.3132	66.3579	2115.6	1652.6
789.4541	68.6199	2253.5	1785.65
789.5951	70.8815	2463.25	1991.95
789.7361	73.1426	2928.45	2454.7
789.8771	75.4032	4064.8	3584.45
790.0181	77.6634	7000.75	6517.05
790.1592	79.9231	14438.3	13948.6
790.3003	82.1824	45699.25	45198.5
790.4414	84.4412	65535	65015.8
790.5825	86.6995	65535	64997.6
790.7237	88.9574	65535	64975.2
790.8648	91.2148	65535	64959.75
791.006	93.4717	65535	64951
791.1472	95.7282	65535	64944.5
791.2885	97.9842	65535	64939.65
791.4297	100.2398	65535	64936.85
791.571	102.4949	65535	64933.25
791.7123	104.7495	65535	64931.65
791.8536	107.0036	65535	64930.5
791.9949	109.2573	65535	64929.75
792.1363	111.5105	65535	64930.8
792.2777	113.7632	65535	64928.3
792.4191	116.0154	65535	64914.7
792.5605	118.2672	65535	64925.4
792.7019	120.5185	65535	64924.3
792.8434	122.7693	65535	64922.75
792.9849	125.0197	65535	64915.9
793.1264	127.2696	65535	64917.2
793.2679	129.519	65535	64909.85
793.4094	131.7679	65535	64904.7
793.551	134.0163	65535	64902.95
793.6926	136.2642	65535	64898
793.8342	138.5117	65535	64889
793.9758	140.7587	65535	64897.6
794.1175	143.0052	65535	64893.2
794.2591	145.2512	65535	64891.8
794.4008	147.4967	65535	64893.2
794.5425	149.7417	65535	64888.75
794.6842	151.9863	65535	64886.8
794.826	154.2304	65535	64881.55
794.9677	156.4739	65535	64873.25
795.1095	158.717	65535	64875.2
795.2513	160.9596	65535	64871.3
795.3931	163.2017	65535	64872
795.535	165.4433	65535	64868.5
795.6768	167.6844	65535	64864.4
795.8187	169.925	65535	64863.4
795.9606	172.1651	65535	64859.7
796.1025	174.4047	65535	64857.55
796.2445	176.6439	65535	64855.9
796.3864	178.8825	65535	64850.8
796.5284	181.1206	65535	64846.25
796.6704	183.3582	65535	64841.8
796.8124	185.5954	65535	64843.35
796.9544	187.832	65535	64840.35
797.0965	190.0681	65535	64838.25
797.2386	192.3037	65535	64833.85
797.3806	194.5388	65535	64829.8
797.5228	196.7734	65535	64828.2
797.6649	199.0075	65535	64824.05
797.807	201.2411	65535	64821.35
797.9492	203.4742	65535	64823.85
798.0914	205.7068	65535	64822.2
798.2336	207.9389	65535	64819.05
798.3758	210.1704	65535	64815.5
798.518	212.4015	65535	64815.35
798.6603	214.632	65535	64822.2
798.8025	216.862	65535	64827.45
798.9448	219.0915	65535	64833.95
799.0871	221.3205	65535	64832.8
799.2294	223.549	65535	64834.9
799.3718	225.777	65535	64836.8
799.5141	228.0044	65535	64834.45
799.6565	230.2314	65535	64839.3
799.7989	232.4578	65535	64833.35
799.9413	234.6837	65535	64827.7
800.0837	236.909	65535	64823.85
800.2262	239.1339	65535	64799.25
800.3687	241.3582	65535	64814.3
800.5111	243.582	65535	64786.15
800.6536	245.8053	65535	64794.65
800.7961	248.0281	65535	64801.8
800.9387	250.2503	65535	64795.85
801.0812	252.472	65535	64790.45
801.2238	254.6932	65535	64788.25
801.3664	256.9139	65535	64790.15
801.509	259.134	65535	64784.8
801.6516	261.3536	65535	64787.25
801.7942	263.5727	65535	64786.3
801.9369	265.7912	65535	64786.65
802.0795	268.0092	65535	64785.8
802.2222	270.2267	65535	64783.75
802.3649	272.4436	65535	64782.7
802.5076	274.6601	65535	64773.5
802.6504	276.8759	65535	64779.3
802.7931	279.0913	65535	64776.8
802.9359	281.3061	65535	64775.2
803.0787	283.5204	65535	64774.95
803.2215	285.7341	65535	64769.25
803.3643	287.9473	65535	64754.5
803.5071	290.16	65535	64764.3
803.6499	292.3721	65535	64773.55
803.7928	294.5837	65535	64767.2
803.9357	296.7947	65535	64769.55
804.0786	299.0052	65535	64767.75
804.2215	301.2152	65535	64764.9
804.3644	303.4246	65535	64768.95
804.5074	305.6334	65535	64766.4
804.6503	307.8418	65535	64763.35
804.7933	310.0495	65535	64761.95
804.9363	312.2568	65535	64765.8
805.0793	314.4635	65535	64765.45
805.2223	316.6696	65535	64760.85
805.3653	318.8752	65535	64750.1
805.5084	321.0802	65535	64760.05
805.6514	323.2847	65535	64757.95
805.7945	325.4887	65535	64756.2
805.9376	327.692	65535	64755.25
806.0807	329.8949	65535	64753.05
806.2238	332.0972	65535	64750.65
806.367	334.2989	65535	64747.7
806.5101	336.5001	65535	64749.6
806.6533	338.7007	65535	64749.25
806.7965	340.9008	65535	64747.55
806.9397	343.1003	65535	64744.9
807.0829	345.2992	65535	64744.2
807.2261	347.4976	65535	64743.4
807.3693	349.6955	65535	64742.25
807.5126	351.8927	65535	64737.25
807.6559	354.0895	65535	64728.9
807.7991	356.2856	65535	64737.5
807.9424	358.4812	65535	64740.55
808.0857	360.6763	65535	64732.9
808.2291	362.8707	65535	64736.05
808.3724	365.0646	65535	64733.25
808.5158	367.258	65535	64730.05
808.6591	369.4508	65535	64722.75
808.8025	371.643	65535	64727.25
808.9459	373.8346	65535	64726.1
809.0893	376.0257	65535	64721.75
809.2327	378.2162	65535	64721.1
809.3762	380.4062	65535	64717.3
809.5196	382.5956	65535	64718.25
809.6631	384.7844	65535	64720.15
809.8066	386.9726	65535	64718.75
809.9501	389.1603	65535	64718.05
810.0936	391.3474	65535	64687.45
810.2371	393.5339	65535	64722.8
810.3806	395.7199	65535	64727
810.5241	397.9052	65535	64726.65
810.6677	400.09	65535	64727.9
810.8113	402.2743	65535	64727.7
810.9548	404.4579	65535	64729.4
811.0984	406.641	65535	64729.75
811.2421	408.8235	65535	64729.25
811.3857	411.0054	65535	64723.2
811.5293	413.1868	65535	64722.1
811.673	415.3675	65535	64722.9
811.8166	417.5477	65535	64719.9
811.9603	419.7273	65535	64718.1
812.104	421.9064	65535	64709
812.2477	424.0848	65535	64712.85
812.3914	426.2627	65535	64711.95
812.5351	428.4399	65535	64708.6
812.6788	430.6166	65535	64705.7
812.8226	432.7928	65535	64705.6
812.9663	434.9683	65535	64708.7
813.1101	437.1432	65535	64702.65
813.2539	439.3176	65535	64701.9
813.3977	441.4914	65535	64703.1
813.5415	443.6645	65535	64702.8
813.6853	445.8371	65535	64702.3
813.8291	448.0091	65535	64703.4
813.973	450.1806	65535	64703.4
814.1168	452.3514	65535	64704.3
814.2607	454.5216	65535	64693.2
814.4046	456.6913	65535	64698.15
814.5485	458.8603	65535	64703.05
814.6924	461.0288	65535	64699.6
814.8363	463.1967	65535	64694.35
814.9802	465.3639	65535	64698
815.1241	467.5306	65535	64696.15
815.2681	469.6967	65535	64698.35
815.412	471.8622	65535	64697.95
815.556	474.0271	65535	64697
815.7	476.1914	65535	64693.15
815.844	478.3551	65535	64695.75
815.988	480.5182	65535	64699.15
816.132	482.6807	65535	64695.05
816.276	484.8426	65535	64698.1
816.4201	487.0039	65535	64694.2
816.5641	489.1647	65535	64693.3
816.7082	491.3248	65535	64693.85
816.8522	493.4843	65535	64693.3
816.9963	495.6432	65535	64692.9
817.1404	497.8015	65535	64691.7
817.2845	499.9592	65535	64691.1
817.4286	502.1163	65535	64693
817.5727	504.2728	65535	64686.45
817.7168	506.4287	65535	64690
817.861	508.5839	65535	64690.35
818.0051	510.7386	65535	64689.15
818.1493	512.8927	65535	64687.3
818.2935	515.0461	65535	64688
818.4377	517.199	65535	64687.7
818.5818	519.3512	65535	64689.05
818.726	521.5029	65535	64683.85
818.8703	523.6539	65535	64685.65
819.0145	525.8043	65535	64684.75
819.1587	527.9541	65535	64679.7
819.303	530.1033	65535	64682.55
819.4472	532.2519	65535	64682.05
819.5915	534.3999	65535	64677.55
819.7357	536.5472	65535	64677.5
819.88	538.694	65535	64681.05
820.0243	540.8401	65535	64679.5
820.1686	542.9856	65535	64680.6
820.3129	545.1305	65535	64678.5
820.4572	547.2748	65535	64678.8
820.6016	549.4185	65535	64674.7
820.7459	551.5615	65535	64680.75
820.8902	553.704	65535	64678.9
821.0346	555.8458	65535	64679.3
821.1789	557.987	65535	64678.35
821.3233	560.1276	65535	64677.15
821.4677	562.2675	65535	64679.95
821.6121	564.4069	65535	64680.05
821.7565	566.5456	65535	64677.65
821.9009	568.6837	65535	64676.9
822.0453	570.8212	65535	64676.85
822.1897	572.958	65535	64674.65
822.3342	575.0942	65535	64678
822.4786	577.2299	65535	64674.85
822.6231	579.3648	65535	64675.3
822.7675	581.4992	65535	64676.5
822.912	583.6329	65535	64680.3
823.0565	585.766	65535	64677.75
823.201	587.8985	65535	64674.4
823.3454	590.0304	65535	64660.4
823.4899	592.1616	65535	64671.55
823.6345	594.2922	65535	64674.2
823.779	596.4222	65535	64669.85
823.9235	598.5515	65535	64671.8
824.068	600.6802	65535	64670
824.2126	602.8083	65535	64668.8
824.3571	604.9358	65535	64669.45
824.5017	607.0626	65535	64670.1
824.6462	609.1888	65535	64669
824.7908	611.3144	65535	64667
824.9354	613.4393	65535	64669.75
825.08	615.5636	65535	64666.7
825.2246	617.6873	65535	64667.1
825.3692	619.8103	65535	64667.9
825.5138	621.9327	65535	64667.45
825.6584	624.0544	65535	64667.5
825.803	626.1756	65535	64667
825.9477	628.2961	65535	64667.2
826.0923	630.4159	65535	64667.35
826.237	632.5351	65535	64668
826.3816	634.6537	65535	64667.15
826.5263	636.7716	65535	64664.25
826.6709	638.8889	65535	64663.75
826.8156	641.0056	65535	64664.95
826.9603	643.1216	65535	64664.15
827.105	645.237	65535	64664.7
827.2497	647.3518	65535	64665.3
827.3944	649.4659	65535	64665.25
827.5391	651.5793	65535	64665.8
827.6838	653.6922	65535	64663.1
827.8285	655.8043	65535	64663.7
827.9733	657.9159	65535	64661.95
828.118	660.0268	65535	64662.7
828.2627	662.137	65535	64659.55
828.4075	664.2466	65535	64660.75
828.5522	666.3556	65535	64660.7
828.697	668.4639	65535	64658.15
828.8418	670.5716	65535	64663.55
828.9865	672.6786	65535	64660.4
829.1313	674.785	65535	64658.1
829.2761	676.8907	65535	64659.05
829.4209	678.9958	65535	64659.7
829.5657	681.1002	65535	64660.75
829.7105	683.204	65535	64656.85
829.8553	685.3072	65535	64658.4
830.0001	687.4097	65535	64657.1
830.1449	689.5115	65535	64655.3
830.2898	691.6127	65535	64655.9
830.4346	693.7132	65535	64657.3
830.5794	695.8131	65535	64648.75
830.7243	697.9123	65535	64657.9
830.8691	700.0109	65535	64655.9
831.014	702.1089	65535	64656.35
831.1588	704.2061	65535	64656.15
831.3037	706.3028	65535	64652.75
831.4486	708.3987	65535	64653.95
831.5935	710.4941	65535	64656.9
831.7383	712.5887	65535	64656.55
831.8832	714.6827	65535	64649.6
832.0281	716.7761	65535	64653
832.173	718.8688	65535	64654.85
832.3179	720.9608	65535	64653.55
832.4628	723.0522	65535	64649.45
832.6077	725.1429	65535	64655.15
832.7527	727.233	65535	64652.85
832.8976	729.3224	65535	64651.55
833.0425	731.4112	65535	64651.35
833.1874	733.4993	65535	64651.1
833.3324	735.5867	65535	64653.9
833.4773	737.6735	65535	64648.3
833.6222	739.7596	65535	64649.9
833.7672	741.845	65535	64650.6
833.9122	743.9298	65535	64647.45
834.0571	746.014	65535	64653.4
834.2021	748.0974	65535	64648.9
834.347	750.1802	65535	64652.95
834.492	752.2624	65535	64649.8
834.637	754.3439	65535	64648.65
834.782	756.4247	65535	64643.05
834.9269	758.5048	65535	64651.25
835.0719	760.5843	65535	64650.15
835.2169	762.6631	65535	64649.6
835.3619	764.7413	65535	64650.3
835.5069	766.8188	65535	64649.9
835.6519	768.8956	65535	64644.2
835.7969	770.9718	65535	64648.95
835.9419	773.0473	65535	64650.35
836.0869	775.1221	65535	64649.75
836.232	777.1962	65535	64647.85
836.377	779.2697	65535	64647.25
836.522	781.3426	65535	64627.65
836.667	783.4147	65535	64646.7
836.8121	785.4862	65535	64650.45
836.9571	787.557	65535	64648.45
837.1021	789.6271	65535	64647.9
837.2472	791.6966	65535	64647.15
837.3922	793.7654	65535	64645.35
837.5373	795.8335	65535	64651.9
837.6823	797.901	65535	64648.45
837.8274	799.9678	65535	64644
837.9724	802.0339	65535	64647.15
838.1175	804.0993	65535	64640.45
838.2626	806.1641	65535	64647.5
838.4076	808.2282	65535	64646.4
838.5527	810.2916	65535	64643.8
838.6978	812.3544	65535	64646.3
838.8428	814.4164	65535	64647.45
838.9879	816.4778	65535	64647.9
839.133	818.5385	65535	64648.05
839.2781	820.5986	65535	64646
839.4232	822.658	65535	64645.85
839.5682	824.7166	65535	64644.85
839.7133	826.7747	65535	64647.2
839.8584	828.832	65535	64649.1
840.0035	830.8886	65535	64644.7
840.1486	832.9446	65535	64644.75
840.2937	834.9999	65535	64646.1
840.4388	837.0545	65535	64641.6
840.5839	839.1085	65535	64645.5
840.729	841.1618	65535	64642.3
840.8741	843.2143	65535	64646.55
841.0192	845.2662	65535	64647.9
841.1643	847.3175	65535	64647.25
841.3095	849.368	65535	64646.2
841.4546	851.4179	65535	64642.85
841.5997	853.467	65535	64642.9
841.7448	855.5155	65535	64645.1
841.8899	857.5633	65535	64645
842.0351	859.6105	65535	64646.35
842.1802	861.6569	65535	64643.9
842.3253	863.7027	65535	64643.2
842.4704	865.7478	65535	64643.45
842.6156	867.7922	65535	64642.35
842.7607	869.8359	65535	64642.45
842.9058	871.8789	65535	64642.3
843.0509	873.9212	65535	64611.85
843.1961	875.9629	65535	64641.4
843.3412	878.0039	65535	64641.9
843.4863	880.0441	65535	64645.35
843.6315	882.0837	65535	64642.65
843.7766	884.1226	65535	64642.3
843.9218	886.1609	65535	64642.4
844.0669	888.1984	65535	64641.9
844.212	890.2352	65535	64647.2
844.3572	892.2714	65535	64635.2
844.5023	894.3069	65535	64644.6
844.6475	896.3416	65535	64641.2
844.7926	898.3757	65535	64643
844.9377	900.4091	65535	64641.25
845.0829	902.4418	65535	64634.65
845.228	904.4739	65535	64638.5
845.3732	906.5052	65535	64640.2
845.5183	908.5358	65535	64643.5
845.6635	910.5658	65535	64641.95
845.8086	912.595	65535	64639.3
845.9538	914.6236	65535	64640.9
846.0989	916.6515	65535	64642.1
846.2441	918.6786	65535	64639.7
846.3892	920.7051	65535	64640.2
846.5344	922.7309	65535	64643.05
846.6795	924.756	65535	64643
846.8246	926.7804	65535	64639.85
846.9698	928.8041	65535	64640.25
847.1149	930.8272	65535	64639.3
847.2601	932.8495	65535	64640.4
847.4052	934.8711	65535	64638.25
847.5504	936.892	65535	64639.65
847.6955	938.9123	65535	64638.9
847.8407	940.9318	65535	64640.85
847.9858	942.9506	65535	64640.25
848.131	944.9688	65535	64640.85
848.2761	946.9862	65535	64640.6
848.4213	949.003	65535	64639.8
848.5664	951.019	65535	64641
848.7115	953.0344	65535	64640.1
848.8567	955.0491	65535	64637.9
849.0018	957.063	65535	64640.25
849.147	959.0763	65535	64641.5
849.2921	961.0888	65535	64638.45
849.4373	963.1007	65535	64640.9
849.5824	965.1119	65535	64640.95
849.7275	967.1223	65535	64642.95
849.8727	969.1321	65535	64642.05
850.0178	971.1412	65535	64640.7
850.1629	973.1495	65535	64638.65
850.3081	975.1572	65535	64606.2
850.4532	977.1641	65535	64640.8
850.5983	979.1704	65535	64637.2
850.7435	981.1759	65535	64637.1
850.8886	983.1808	65535	64639.25
851.0337	985.1849	65535	64628.9
851.1788	987.1884	65535	64637.45
851.324	989.1911	65535	64635.6
851.4691	991.1932	65535	64637.35
851.6142	993.1945	65535	64641.65
851.7593	995.1951	65535	64639.55
851.9045	997.1951	65535	64632.55
852.0496	999.1943	65535	64640.35
852.1947	1001.1928	65535	64639.5
852.3398	1003.1906	65535	64639.9
852.4849	1005.1877	65535	64638.65
852.63	1007.1841	65535	64636.95
852.7751	1009.1798	65535	64638.9
852.9202	1011.1748	65535	64640.35
853.0653	1013.1691	65535	64637.95
853.2104	1015.1627	65535	64639.85
853.3555	1017.1556	65535	64638.1
853.5006	1019.1477	65535	64636.7
853.6457	1021.1392	65535	64642.15
853.7908	1023.1299	65535	64640.85
853.9359	1025.12	65535	64639.15
854.081	1027.1093	65535	64643.05
854.2261	1029.0979	65535	64642.6
854.3712	1031.0859	65535	64640.45
854.5163	1033.0731	65535	64641.25
854.6613	1035.0596	65535	64640.25
854.8064	1037.0454	65535	64640.75
854.9515	1039.0304	65535	64640.6
855.0965	1041.0148	65535	64640.8
855.2416	1042.9985	65535	64637.7
855.3867	1044.9814	65535	64640.4
855.5317	1046.9636	65535	64637.05
855.6768	1048.9452	65535	64638.1
855.8219	1050.926	65535	64640.85
855.9669	1052.9061	65535	64642.1
856.112	1054.8855	65535	64637.7
856.257	1056.8642	65535	64639.3
856.4021	1058.8421	65535	64632.55
856.5471	1060.8194	65535	64638.5
856.6921	1062.7959	65535	64639.55
856.8372	1064.7717	65535	64636.85
856.9822	1066.7469	65535	64640.35
857.1272	1068.7213	65535	64636.95
857.2723	1070.695	65535	64640.25
857.4173	1072.6679	65535	64640.05
857.5623	1074.6402	65535	64636.4
857.7073	1076.6117	65535	64631.8
857.8523	1078.5826	65535	64638.55
857.9973	1080.5527	65535	64637.8
858.1423	1082.5221	65535	64637.3
858.2873	1084.4908	65535	64640.1
858.4323	1086.4587	65535	64636.5
858.5773	1088.426	65535	64635.95
858.7223	1090.3925	65535	64636.45
858.8673	1092.3584	65535	64637.25
859.0123	1094.3235	65535	64640.05
859.1573	1096.2879	65535	64636.75
859.3022	1098.2515	65535	64638
859.4472	1100.2145	65535	64637.65
859.5922	1102.1767	65535	64636.9
859.7371	1104.1382	65535	64639.45
859.8821	1106.099	65535	64635.85
860.027	1108.0591	65535	64636.75
860.172	1110.0185	65535	64639.4
860.3169	1111.9771	65535	64639.15
860.4619	1113.9351	65535	64637.4
860.6068	1115.8923	65535	64635.5
860.7517	1117.8488	65535	64635.95
860.8967	1119.8045	65535	64638.25
861.0416	1121.7596	65535	64637.4
861.1865	1123.7139	65535	64639.05
861.3314	1125.6675	65535	64638.85
861.4763	1127.6204	65535	64638.55
861.6212	1129.5726	65535	64635.15
861.7661	1131.524	65535	64639.3
861.911	1133.4748	65535	64635.5
862.0559	1135.4248	65535	64635.25
862.2008	1137.3741	65535	64637.55
862.3457	1139.3226	65535	64635.7
862.4905	1141.2705	65535	64638.7
862.6354	1143.2176	65535	64631.6
862.7803	1145.164	65535	64634.95
862.9251	1147.1097	65535	64638.5
863.07	1149.0546	65535	64636.3
863.2148	1150.9989	65535	64638.2
863.3597	1152.9424	65535	64635.25
863.5045	1154.8852	65535	64638.55
863.6493	1156.8272	65535	64637.2
863.7942	1158.7686	65535	64628.6
863.939	1160.7092	65535	64633.65
864.0838	1162.6491	65535	64635.1
864.2286	1164.5883	65535	64636.5
864.3734	1166.5267	65535	64637.95
864.5182	1168.4644	65535	64636
864.663	1170.4014	65535	64632.35
864.8078	1172.3377	65535	64637.6
864.9526	1174.2732	65535	64639.7
865.0974	1176.2081	65535	64638.85
865.2421	1178.1421	65535	64634
865.3869	1180.0755	65535	64638.25
865.5317	1182.0082	65535	64635.9
865.6764	1183.9401	65535	64637.35
865.8212	1185.8713	65535	64637.8
865.9659	1187.8017	65535	64638.05
866.1106	1189.7315	65535	64639.1
866.2554	1191.6605	65535	64611.3
866.4001	1193.5888	65535	64638.35
866.5448	1195.5163	65535	64640.6
866.6895	1197.4432	65535	64633.85
866.8342	1199.3693	65535	64638.65
866.9789	1201.2947	65535	64635.25
867.1236	1203.2193	65535	64638.3
867.2683	1205.1432	65535	64637.05
867.413	1207.0664	65535	64636.15
867.5576	1208.9889	65535	64634.55
867.7023	1210.9106	65535	64637.6
867.847	1212.8316	65535	64639.85
867.9916	1214.7519	65535	64629.95
868.1363	1216.6715	65535	64638.8
868.2809	1218.5903	65535	64637.9
868.4255	1220.5084	65535	64636.5
868.5701	1222.4257	65535	64635.75
868.7148	1224.3424	65535	64639.25
868.8594	1226.2583	65535	64631.05
869.004	1228.1735	65535	64637.45
869.1486	1230.0879	65535	64639.55
869.2932	1232.0016	65535	64637.55
869.4377	1233.9146	65535	64637.45
869.5823	1235.8269	65535	64635.9
869.7269	1237.7384	65535	64639.9
869.8715	1239.6492	65535	64640.3
870.016	1241.5592	65535	64637.45
870.1606	1243.4686	65535	64637
870.3051	1245.3772	65535	64639.2
870.4496	1247.285	65535	64636.6
870.5941	1249.1922	65535	64637.9
870.7387	1251.0986	65535	64639.35
870.8832	1253.0042	65535	64637.7
871.0277	1254.9092	65535	64636.95
871.1722	1256.8134	65535	64638
871.3167	1258.7169	65535	64636.1
871.4611	1260.6196	65535	64637.75
871.6056	1262.5216	65535	64636.1
871.7501	1264.4229	65535	64638.85
871.8945	1266.3234	65535	64637.05
872.039	1268.2232	65535	64637.5
872.1834	1270.1223	65535	64636.15
872.3278	1272.0207	65535	64637.25
872.4723	1273.9183	65535	64631.4
872.6167	1275.8151	65535	64637.15
872.7611	1277.7113	65535	64635
872.9055	1279.6067	65535	64637.35
873.0499	1281.5014	65535	64635.6
873.1943	1283.3953	65535	64634.8
873.3386	1285.2885	65535	64638.8
873.483	1287.181	65535	64637.1
873.6274	1289.0727	65535	64639.3
873.7717	1290.9637	65535	64635.4
873.9161	1292.854	65535	64635.6
874.0604	1294.7435	65535	64636.15
874.2047	1296.6323	65535	64639.5
874.349	1298.5204	65535	64634.8
874.4933	1300.4077	65535	64634.65
874.6376	1302.2943	65535	64638.8
874.7819	1304.1802	65535	64638
874.9262	1306.0653	65535	64635.3
875.0705	1307.9497	65535	64638
875.2147	1309.8333	65535	64636.5
875.359	1311.7162	65535	64636.85
875.5032	1313.5984	65535	64635.6
875.6475	1315.4798	65535	64625.2
875.7917	1317.3605	65535	64621.35
875.9359	1319.2405	65535	64635.5
876.0801	1321.1197	65535	64637.15
876.2243	1322.9982	65535	64634.45
876.3685	1324.876	65535	64637.2
876.5127	1326.753	65535	64637.4
876.6569	1328.6293	65535	64634.45
876.801	1330.5048	65535	64633.8
876.9452	1332.3796	65535	64638.55
877.0893	1334.2537	65535	64613.8
877.2335	1336.127	65535	64637.5
877.3776	1337.9996	65535	64637.15
877.5217	1339.8714	65535	64638.35
877.6658	1341.7426	65535	64595.65
877.8099	1343.6129	65535	64634.8
877.954	1345.4826	65535	64634.95
878.0981	1347.3515	65535	64633.9
878.2422	1349.2196	65535	64636.5
878.3862	1351.087	65535	64636.85
878.5303	1352.9537	65535	64635.8
878.6743	1354.8197	65535	64637.5
878.8184	1356.6849	65535	64637.45
878.9624	1358.5493	65535	64638.05
879.1064	1360.4131	65535	64638.6
879.2504	1362.276	65535	64638.7
879.3944	1364.1383	65535	64637.7
879.5384	1365.9998	65535	64631.4
879.6823	1367.8606	65535	64635.05
879.8263	1369.7206	65535	64635.95
879.9702	1371.5799	65535	64633.45
880.1142	1373.4384	65535	64640
880.2581	1375.2962	65535	64634.65
880.402	1377.1533	65535	64637.25
880.5459	1379.0096	65535	64637.55
880.6898	1380.8652	65535	64638.75
880.8337	1382.7201	65535	64638.55
880.9776	1384.5742	65535	64636.8
881.1215	1386.4275	65535	64633.6
881.2653	1388.2802	65535	64638.7
881.4092	1390.132	65535	64638.05
881.553	1391.9832	65535	64636.4
881.6968	1393.8336	65535	64636
881.8406	1395.6832	65535	64634.35
881.9844	1397.5322	65535	64637.15
882.1282	1399.3803	65535	64631.7
882.272	1401.2278	65535	64635.8
882.4158	1403.0745	65535	64636.9
882.5595	1404.9204	65535	64638.5
882.7033	1406.7656	65535	64636.9
882.847	1408.6101	65535	64637.5
882.9908	1410.4538	65535	64636.8
883.1345	1412.2968	65535	64635.9
883.2782	1414.139	65535	64639.45
883.4219	1415.9805	65535	64635.35
883.5656	1417.8213	65535	64629.3
883.7092	1419.6613	65535	64637.1
883.8529	1421.5006	65535	64635.1
883.9965	1423.3391	65535	64637
884.1402	1425.1769	65535	64637.55
884.2838	1427.0139	65535	64637.6
884.4274	1428.8502	65535	64635.9
884.571	1430.6858	65535	64637.5
884.7146	1432.5206	65535	64637.3
884.8582	1434.3547	65535	64638.45
885.0018	1436.188	65535	64634.8
885.1453	1438.0206	65535	64636.4
885.2889	1439.8524	65535	64638.05
885.4324	1441.6835	65535	64637
885.5759	1443.5139	65535	64635.2
885.7194	1445.3435	65535	64636.2
885.8629	1447.1724	65535	64637.4
886.0064	1449.0005	65535	64638.25
886.1499	1450.8279	65535	64635.25
886.2933	1452.6545	65535	64638
886.4368	1454.4804	65535	64639.5
886.5802	1456.3056	65535	64631.9
886.7237	1458.13	65535	64638.3
886.8671	1459.9536	65535	64638.1
887.0105	1461.7766	65535	64637.7
887.1539	1463.5987	65535	64635.85
887.2972	1465.4202	65535	64638.6
887.4406	1467.2409	65535	64637.15
887.584	1469.0608	65535	64637.95
887.7273	1470.88	65535	64635.6
887.8706	1472.6984	65535	64638.3
888.0139	1474.5161	65535	64633.25
888.1572	1476.3331	65535	64639.95
888.3005	1478.1493	65535	64638
888.4438	1479.9648	65535	64637.65
888.5871	1481.7795	65535	64638.1
888.7303	1483.5935	65535	64639.25
888.8736	1485.4067	65530.35	64631.9
889.0168	1487.2192	65535	64636.9
889.16	1489.031	65524.25	64623.2
889.3032	1490.842	65531	64634
889.4464	1492.6522	65533.95	64637.7
889.5896	1494.4618	65528.1	64629.05
889.7327	1496.2705	65527.25	64629.55
889.8759	1498.0785	65477	64580
890.019	1499.8858	65522.05	64623.15
890.1622	1501.6924	65532.4	64638.35
890.3053	1503.4981	65511.5	64612.95
890.4484	1505.3032	65518.85	64623.15
890.5914	1507.1075	65469.25	64573.75
890.7345	1508.911	65474.2	64577.6
890.8776	1510.7138	65462.7	64566.4
891.0206	1512.5159	65482.75	64583.9
891.1637	1514.3172	65303.35	64406.8
891.3067	1516.1178	65378.85	64480.8
891.4497	1517.9176	65448.4	64548.35
891.5927	1519.7166	65360.05	64463.05
891.7357	1521.515	65306.75	64404.95
891.8786	1523.3126	65032.6	64134.35
892.0216	1525.1094	65318.65	64421.2
892.1645	1526.9055	65165.7	64269.3
892.3074	1528.7008	65200	64304.5
892.4503	1530.4954	64793.95	63890.7
892.5932	1532.2893	65186.75	64291.45
892.7361	1534.0824	64716.8	63818.8
892.879	1535.8747	64323.4	63424.3
893.0218	1537.6663	65186.9	64286.85
893.1647	1539.4572	63551.3	62654.1
893.3075	1541.2473	64272.45	63373.85
893.4503	1543.0367	64062.65	63166.4
893.5931	1544.8253	63883.65	62982
893.7359	1546.6132	64084.05	63183.45
893.8787	1548.4003	63521.3	62615.45
894.0214	1550.1867	63350.8	62444.5
894.1642	1551.9723	63182.65	62282.8
894.3069	1553.7572	63318.9	62422
894.4496	1555.5414	63602.9	62706.05
894.5923	1557.3247	61865.05	60968.25
894.735	1559.1074	63204.15	62307.6
894.8777	1560.8893	62500.45	61603.95
895.0204	1562.6705	62853.75	61957.9
895.163	1564.4509	61825.2	60930.95
895.3056	1566.2305	62218.85	61323.95
895.4482	1568.0094	62951.2	62058
895.5908	1569.7876	62361.1	61466.75
895.7334	1571.565	61701.3	60804.5
895.876	1573.3417	62106.95	61212.75
896.0186	1575.1176	61878.5	60985.25
896.1611	1576.8928	61532.85	60638.05
896.3036	1578.6672	60973.9	60081.55
896.4461	1580.4409	61137.25	60242.65
896.5886	1582.2138	60443.45	59545.45
896.7311	1583.986	60620.2	59724.35
896.8736	1585.7575	59918.35	59024.7
897.0161	1587.5282	59923.45	59028.65
897.1585	1589.2981	60002.3	59107.5
897.3009	1591.0673	59361.95	58469.65
897.4433	1592.8358	58979.6	58087
897.5857	1594.6035	59373.5	58477.75
897.7281	1596.3704	59337.5	58444
897.8705	1598.1366	58583.1	57689.05
898.0128	1599.9021	58140.45	57245.55
898.1551	1601.6668	58630	57733.5
898.2975	1603.4308	58300.7	57404.8
898.4398	1605.194	58594.75	57695.5
898.5821	1606.9564	57507.3	56613.95
898.7243	1608.7182	58048.95	57152.05
898.8666	1610.4791	57603.4	56709.65
899.0088	1612.2394	57948.85	57056.45
899.1511	1613.9988	57574.25	56680.35
899.2933	1615.7576	58079.35	57186.1
899.4355	1617.5156	57999.55	57101.35
899.5776	1619.2728	58785.5	57892.5
899.7198	1621.0293	57829.2	56935.45
899.862	1622.785	57760.9	56862.5
900.0041	1624.54	58007.7	57113.55
900.1462	1626.2942	57514.35	56619.6
900.2883	1628.0477	56515.2	55617.5
900.4304	1629.8005	56033.6	55136.9
900.5725	1631.5525	56313.25	55418.9
900.7145	1633.3037	55461.2	54567.85
900.8566	1635.0542	55374.4	54480.5
900.9986	1636.804	55374.05	54479.85
901.1406	1638.553	54853.15	53846.35
901.2826	1640.3013	54732.25	53837.35
901.4245	1642.0488	54244.25	53350.5
901.5665	1643.7955	54384.7	53492.45
901.7085	1645.5416	54139.9	53245.55
901.8504	1647.2868	53880.6	52988.85
901.9923	1649.0313	54150.2	53257.4
902.1342	1650.7751	53964.6	53068.45
902.2761	1652.5181	53715.85	52823.35
902.4179	1654.2604	53794.6	52899.85
902.5598	1656.0019	54254.05	53362.5
902.7016	1657.7427	54195.85	53300.8
902.8434	1659.4828	54554.6	53662.05
902.9852	1661.222	54487.15	53591.7
903.127	1662.9606	54526.25	53631.75
903.2687	1664.6984	54114.55	53223.4
903.4105	1666.4354	53908.75	53013.65
903.5522	1668.1717	53048.15	52154.6
903.6939	1669.9072	52398.2	51506.5
903.8356	1671.642	52049.35	51154.75
903.9773	1673.3761	51695.85	50802.95
904.119	1675.1094	51311.05	50418.8
904.2606	1676.8419	50911.1	50018.25
904.4022	1678.5737	50579.9	49686.25
904.5439	1680.3048	50251.1	49357.75
904.6855	1682.0351	49961.45	49069.25
904.827	1683.7646	49720.75	48824.35
904.9686	1685.4934	49667.15	48774.65
905.1101	1687.2215	49159.8	48266.85
905.2517	1688.9488	49159.45	48266.55
905.3932	1690.6754	48668.55	47777.75
905.5347	1692.4012	48655.45	47764.05
905.6761	1694.1263	48532.15	47640.05
905.8176	1695.8506	48314.3	47421.5
905.9591	1697.5742	48085.2	47191.85
906.1005	1699.297	47882.1	46989.85
906.2419	1701.0191	47648.55	46757.15
906.3833	1702.7404	47414.25	46521.95
906.5246	1704.461	47141.2	46247.5
906.666	1706.1808	47014	46118.05
906.8073	1707.8999	46865.4	45972.15
906.9487	1709.6182	46723.95	45830.4
907.09	1711.3358	46542.7	45653.05
907.2313	1713.0527	46380.15	45490.85
907.3725	1714.7688	46253.45	45356.6
907.5138	1716.4841	45992.5	45096.1
907.655	1718.1987	45918.5	45020.35
907.7962	1719.9126	45703.15	44812.95
907.9374	1721.6257	45545.45	44651.85
908.0786	1723.338	45446.45	44553.65
908.2198	1725.0496	45133.6	44240.5
908.3609	1726.7605	45073.75	44179.95
908.502	1728.4706	44960.95	44066.45
908.6431	1730.18	44611.8	43716.55
908.7842	1731.8886	44526.75	43634.55
908.9253	1733.5964	44402.1	43489.7
909.0664	1735.3036	44259.3	43363.65
909.2074	1737.0099	44128	43236.4
909.3484	1738.7156	43995.4	43104.6
909.4894	1740.4204	43730.9	42837.05
909.6304	1742.1246	43699.75	42804.95
909.7714	1743.8279	43578.75	42686.35
909.9123	1745.5306	43428.5	42534.2
910.0532	1747.2325	43275.95	42383.45
910.1941	1748.9336	43097	42204.95
910.335	1750.634	42942.9	42050.85
910.4759	1752.3336	42894.1	42003.05
910.6168	1754.0325	42756.6	41865.95
910.7576	1755.7307	42602	41710.6
910.8984	1757.4281	42596.7	41703.95
911.0392	1759.1247	42479.7	41577.15
911.18	1760.8206	42350.2	41454.65
911.3208	1762.5158	42246.65	41349.2
911.4615	1764.2102	42048.45	41159.05
911.6022	1765.9039	41847.05	40955.45
911.7429	1767.5968	41785.85	40895.3
911.8836	1769.289	41695.75	40804.25
912.0243	1770.9804	41545	40651.8
912.1649	1772.6711	41473.75	40580.65
912.3056	1774.361	41319.45	40426.45
912.4462	1776.0502	41271.35	40380.35
912.5868	1777.7386	41170.9	40276.1
912.7274	1779.4263	41032.95	40139.55
912.8679	1781.1132	40939.9	40049.8
913.0084	1782.7994	40753.4	39860.8
913.149	1784.4849	40653.5	39761.05
913.2895	1786.1696	40554.35	39655.2
913.4299	1787.8535	40416.8	39523.45
913.5704	1789.5367	40244.65	39352.5
913.7108	1791.2192	40226.35	39335.55
913.8513	1792.9009	40043.7	39122.75
913.9917	1794.5818	39949.1	39058.15
914.132	1796.2621	39851.75	38960.9
914.2724	1797.9415	39695.55	38804.45
914.4128	1799.6202	39575.9	38683.9
914.5531	1801.2982	39481.4	38588.05
914.6934	1802.9755	39394.4	38500
914.8337	1804.6519	39334.05	38442.9
914.9739	1806.3277	39058.15	38165.35
915.1142	1808.0027	38937.9	38047.15
915.2544	1809.6769	38847.05	37954.6
915.3946	1811.3504	38741.1	37848.3
915.5348	1813.0231	38641.65	37750.85
915.675	1814.6951	38589.95	37699.3
915.8151	1816.3664	38559.5	37666.85
915.9553	1818.0369	38412.5	37520.15
916.0954	1819.7067	38255.65	37364.65
916.2355	1821.3757	38157.05	37263.9
916.3755	1823.044	38109.05	37217.35
916.5156	1824.7115	38018.8	37125.9
916.6556	1826.3783	37796	36905.9
916.7956	1828.0443	37729.85	36839.5
916.9356	1829.7096	37624.8	36732
917.0756	1831.3741	37537.8	36642.7
917.2155	1833.0379	37469	36576.1
917.3555	1834.701	37282.65	36390.2
917.4954	1836.3633	37214.05	36321.65
917.6353	1838.0248	37097.45	36201.8
917.7751	1839.6856	37012.25	36119.8
917.915	1841.3457	36984.6	36095.9
918.0548	1843.005	36869.35	35979.3
918.1946	1844.6636	36747.65	35857.55
918.3344	1846.3214	36583.45	35690.4
918.4742	1847.9785	36570.9	35679.2
918.6139	1849.6349	36431.2	35535
918.7537	1851.2904	36347.35	35445.95
918.8934	1852.9453	36239.8	35348.3
919.0331	1854.5994	36112.2	35218.8
919.1727	1856.2528	36093.2	35196.25
919.3124	1857.9054	35988.05	35097.25
919.452	1859.5572	35948.75	35058.65
919.5916	1861.2083	35829.7	34939.2
919.7312	1862.8587	35824.25	34932.8
919.8708	1864.5084	35708.9	34815.85
920.0103	1866.1572	35542.3	34649.85
920.1498	1867.8054	35414.1	34520.8
920.2893	1869.4528	35345.3	34455.05
920.4288	1871.0994	35197.9	34305
920.5683	1872.7453	35137.75	34244.7
920.7077	1874.3905	35005.55	34106.85
920.8471	1876.0349	34893.95	34001.9
920.9865	1877.6786	34887.9	33996.1
921.1259	1879.3215	34814.55	33924.65
921.2653	1880.9637	34775.9	33880.8
921.4046	1882.6051	34635.15	33742
921.5439	1884.2458	34518.05	33624.8
921.6832	1885.8858	34421.6	33529.65
921.8225	1887.525	34373.05	33480.45
921.9617	1889.1634	34163.8	33271.45
922.101	1890.8011	34027.75	33136.35
922.2402	1892.4381	33929.65	33037.05
922.3794	1894.0743	33944.25	33052.8
922.5185	1895.7098	33843.5	32952.1
922.6577	1897.3446	33714.05	32823.3
922.7968	1898.9786	33635.3	32739.35
922.9359	1900.6118	33544.05	32653.65
923.075	1902.2443	33332.25	32438.05
923.214	1903.8761	33262.05	32371.95
923.3531	1905.5071	33055.2	32164.35
923.4921	1907.1374	32977.95	32087.35
923.6311	1908.7669	32944.15	32053.7
923.77	1910.3957	32821.05	31928.65
923.909	1912.0237	32657.8	31764.45
924.0479	1913.651	32578.25	31685.6
924.1868	1915.2776	32502.5	31611.9
924.3257	1916.9034	32334.65	31444.95
924.4646	1918.5285	32212.5	31320.75
924.6034	1920.1528	32064.4	31175.6
924.7422	1921.7764	31990.2	31099.4
924.881	1923.3992	31876.1	30986
925.0198	1925.0213	31645.8	30753
925.1586	1926.6427	31551	30661.9
925.2973	1928.2633	31556.75	30559.7
925.436	1929.8832	31378.6	30486.25
925.5747	1931.5023	31152.05	30262.15
925.7134	1933.1207	31074.55	30181.7
925.852	1934.7383	31035.8	30145.75
925.9906	1936.3552	30966.65	30077.5
926.1292	1937.9714	30855.8	29964.65
926.2678	1939.5868	30639.65	29746.75
926.4064	1941.2015	30466.2	29572.55
926.5449	1942.8154	30396.75	29504.5
926.6834	1944.4286	30256.1	29363.35
926.8219	1946.041	30139.3	29228.7
926.9604	1947.6528	29915.45	29019.65
927.0988	1949.2637	29894.45	29004.15
927.2372	1950.8739	29779.4	28887.85
927.3756	1952.4834	29722.5	28832.4
927.514	1954.0921	29643.4	28752.45
927.6523	1955.7001	29547.1	28652.25
927.7907	1957.3074	29407.75	28517.65
927.929	1958.9139	29283.55	28393.55
928.0673	1960.5197	29239.45	28347.55
928.2055	1962.1247	29057.6	28166.2
928.3438	1963.729	28916.85	28028.05
928.482	1965.3325	28825	27910.2
928.6202	1966.9353	28691.45	27800
928.7584	1968.5374	28594.95	27703.1
928.8965	1970.1387	28494.45	27603.55
929.0346	1971.7393	28353.2	27460.3
929.1727	1973.3392	28276.75	27386.55
929.3108	1974.9383	28141.35	27250.1
929.4489	1976.5366	28010.15	27120.45
929.5869	1978.1342	27999.2	27108.35
929.7249	1979.7311	27897.1	27004.65
929.8629	1981.3273	27829.6	26936.9
930.0009	1982.9227	27712.55	26818.55
930.1388	1984.5173	27570.75	26680.5
930.2767	1986.1112	27464.15	26573.45
930.4146	1987.7044	27446.5	26557.65
930.5525	1989.2968	27293.3	26401.2
930.6904	1990.8885	27258.8	26364.45
930.8282	1992.4795	27192.35	26299.5
930.966	1994.0697	27068.7	26177.35
931.1038	1995.6592	26968.2	26079.7
931.2415	1997.2479	26869.65	25979.15
931.3793	1998.8359	26808.45	25916.2
931.517	2000.4232	26652	25762.45
931.6547	2002.0097	26560.6	25669.35
931.7923	2003.5955	26416.6	25524.9
931.93	2005.1805	26415.2	25523.1
932.0676	2006.7648	26333.1	25443.65
932.2052	2008.3484	26241.95	25350.5
932.3427	2009.9312	26227.85	25337
932.4803	2011.5133	26089.4	25198.35
932.6178	2013.0946	26029.75	25138.4
932.7553	2014.6752	25917.15	25028.2
932.8928	2016.2551	25834.65	24941.5
933.0302	2017.8342	25761.5	24869.65
933.1676	2019.4126	25670.75	24780.45
933.305	2020.9902	25551.1	24661.85
933.4424	2022.5672	25486.1	24594.9
933.5798	2024.1433	25438	24542.7
933.7171	2025.7188	25336.35	24448.35
933.8544	2027.2935	25258.55	24369.4
933.9917	2028.8674	25113.85	24224.7
934.129	2030.4406	25045.2	24155.8
934.2662	2032.0131	24973.6	24083.8
934.4034	2033.5849	24849.75	23952.9
934.5406	2035.1559	24797.55	23906.3
934.6778	2036.7261	24750.15	23858.65
934.8149	2038.2957	24671.05	23780.15
934.952	2039.8645	24630.75	23740.6
935.0891	2041.4325	24590.05	23697.2
935.2262	2042.9998	24467.3	23578
935.3632	2044.5664	24411.15	23519.75
935.5002	2046.1323	24353.35	23462.7
935.6372	2047.6974	24205.95	23314.1
935.7742	2049.2617	24170	23279.65
935.9111	2050.8254	24156	23243.55
936.048	2052.3883	24097.15	23206.4
936.1849	2053.9504	23994.25	23105.1
936.3218	2055.5118	23913.6	23022.8
936.4586	2057.0725	23781	22887
936.5955	2058.6325	23729.2	22837.6
936.7323	2060.1917	23622.75	22732.2
936.869	2061.7502	23581.9	22689.4
937.0058	2063.3079	23508.3	22618.65
937.1425	2064.8649	23413.25	22519
937.2792	2066.4212	23367.45	22475.2
937.4159	2067.9767	23265.15	22374.7
937.5525	2069.5315	23149.1	22260.4
937.6891	2071.0856	23025.2	22134.8
937.8257	2072.6389	22945.8	22054.05
937.9623	2074.1915	22824.9	21936.5
938.0989	2075.7433	22733.35	21841.1
938.2354	2077.2945	22688.25	21799.95
938.3719	2078.8448	22629.5	21739.65
938.5084	2080.3945	22504.55	21614.6
938.6448	2081.9434	22465.3	21573.3
938.7812	2083.4916	22417	21524.25
938.9176	2085.039	22297.95	21405.85
939.054	2086.5857	22253.75	21361.15
939.1903	2088.1317	22205.4	21315.45
939.3267	2089.677	22128	21237.8
939.463	2091.2215	22077.65	21188
939.5992	2092.7652	22020.35	21129.2
939.7355	2094.3083	21957.35	21065.45
939.8717	2095.8506	21891.3	21002.45
940.0079	2097.3921	21861.3	20972.55
940.1441	2098.933	21775.65	20885.6
940.2802	2100.4731	21706.65	20816.95
940.4163	2102.0124	21683.75	20786.25
940.5524	2103.5511	21607.3	20717.3
940.6885	2105.089	21541	20649.5
940.8245	2106.6261	21494.9	20604.15
940.9606	2108.1626	21453.85	20563.8
941.0965	2109.6983	21398.3	20479.8
941.2325	2111.2332	21316	20424.5
941.3684	2112.7675	21224.15	20332.25
941.5044	2114.301	21172.05	20278
941.6403	2115.8337	21122.7	20230.25
941.7761	2117.3657	21046.15	20155.05
941.912	2118.897	21015.65	20125.25
942.0478	2120.4276	20907.35	20010.25
942.1835	2121.9575	20829.1	19937.9
942.3193	2123.4866	20826.9	19921.35
942.455	2125.0149	20722.3	19828.6
942.5907	2126.5426	20633.25	19742.8
942.7264	2128.0695	20596.95	19703
942.8621	2129.5956	20539.1	19649
942.9977	2131.1211	20480.35	19585.45
943.1333	2132.6458	20418.05	19527.65
943.2689	2134.1698	20355.25	19463.4
943.4044	2135.693	20321.35	19428.35
943.54	2137.2155	20231.95	19338.85
943.6755	2138.7373	20163	19272.2
943.8109	2140.2584	20106.25	19216.7
943.9464	2141.7787	20031.9	19136.25
944.0818	2143.2983	19933.8	19044.55
944.2172	2144.8171	19858.1	18966.75
944.3526	2146.3353	19778.55	18883.4
944.4879	2147.8527	19694.3	18804.95
944.6232	2149.3693	19674.3	18785.35
944.7585	2150.8853	19622.25	18730.55
944.8938	2152.4005	19514.2	18621.85
945.029	2153.9149	19465.75	18575.15
945.1642	2155.4287	19399.75	18511.3
945.2994	2156.9417	19351.7	18461.15
945.4346	2158.454	19287.15	18394.05
945.5697	2159.9655	19243	18352.4
945.7048	2161.4764	19274.25	18381.4
945.8399	2162.9865	19162.05	18271.15
945.9749	2164.4958	19086.7	18194.35
946.1099	2166.0045	19043.45	18150.65
946.2449	2167.5124	19011.45	18120.8
946.3799	2169.0195	18982.9	18092.4
946.5148	2170.526	18899.4	18007.5
946.6498	2172.0317	18861.2	17970.95
946.7846	2173.5367	18757.9	17868.2
946.9195	2175.0409	18712.95	17822.05
947.0543	2176.5445	18709.2	17819.1
947.1891	2178.0473	18582.3	17692.55
947.3239	2179.5494	18506.25	17610.55
947.4587	2181.0507	18426.05	17534.2
947.5934	2182.5513	18402	17508.85
947.7281	2184.0512	18336.05	17441.75
947.8628	2185.5504	18274.9	17383.8
947.9974	2187.0488	18163.2	17273.65
948.132	2188.5465	18146.75	17256.3
948.2666	2190.0435	18092.05	17200.35
948.4012	2191.5397	18014.75	17123.1
948.5357	2193.0353	17942.1	17051.75
948.6702	2194.5301	17869.8	16976.35
948.8047	2196.0241	17788.1	16896
948.9392	2197.5175	17749.05	16857.15
949.0736	2199.0101	17639.5	16743.45
949.208	2200.502	17557.7	16668.3
949.3424	2201.9931	17544.2	16651.75
949.4767	2203.4835	17437.25	16544.25
949.611	2204.9733	17385.35	16489.8
949.7453	2206.4622	17350.8	16459.45
949.8796	2207.9505	17251.25	16359.35
950.0138	2209.438	17149.25	16260.2
950.148	2210.9248	17097.05	16207.5
950.2822	2212.4109	17051.9	16160.6
950.4164	2213.8962	17001.55	16108
950.5505	2215.3809	16969.3	16076.3
950.6846	2216.8648	16935.5	16044.8
950.8186	2218.3479	16841.75	15946.8
950.9527	2219.8304	16792.4	15899.6
951.0867	2221.3121	16767.7	15873.55
951.2207	2222.7931	16692.4	15801.4
951.3546	2224.2733	16618.3	15727.1
951.4886	2225.7529	16528.1	15635.7
951.6225	2227.2317	16497.9	15604.5
951.7563	2228.7098	16492.5	15601.8
951.8902	2230.1872	16379.9	15489.85
952.024	2231.6638	16358.15	15467.85
952.1578	2233.1397	16247.35	15350.6
952.2916	2234.6149	16226.7	15337.15
952.4253	2236.0894	16175.95	15284.65
952.559	2237.5632	16144.7	15246
952.6927	2239.0362	16066	15176.5
952.8263	2240.5085	16025.9	15135.25
952.9599	2241.9801	15937.75	15045.45
953.0935	2243.4509	15893.2	15002.65
953.2271	2244.921	15827.25	14936
953.3606	2246.3904	15768.95	14876.45
953.4941	2247.8591	15755.05	14863.15
953.6276	2249.3271	15691.5	14798.9
953.7611	2250.7943	15603.1	14714.25
953.8945	2252.2608	15560.8	14668.85
954.0279	2253.7266	15498.85	14608.75
954.1612	2255.1917	15476.6	14584.55
954.2946	2256.656	15397.95	14507.3
954.4279	2258.1197	15355.25	14465.15
954.5612	2259.5826	15336.4	14441.55
954.6944	2261.0447	15305.15	14412.8
954.8276	2262.5062	15200.5	14307.55
954.9608	2263.9669	15188.75	14296.3
955.094	2265.4269	15152.35	14260.75
955.2271	2266.8862	15127.55	14235.8
955.3602	2268.3448	15075.85	14184.45
955.4933	2269.8026	15024.75	14132.25
955.6264	2271.2598	14971.55	14081.9
955.7594	2272.7162	14903.45	14011.05
955.8924	2274.1719	14865.9	13974.05
956.0253	2275.6268	14785.3	13893.65
956.1583	2277.0811	14779.75	13888.8
956.2912	2278.5346	14748.5	13858.2
956.4241	2279.9874	14676.85	13785.5
956.5569	2281.4395	14652.55	13760.2
956.6897	2282.8908	14583.8	13686.3
956.8225	2284.3414	14555.55	13662.5
956.9553	2285.7914	14485.8	13594.9
957.088	2287.2406	14407.9	13516.35
957.2207	2288.689	14390.25	13498.55
957.3534	2290.1368	14366.75	13475.5
957.486	2291.5838	14352.9	13457.3
957.6186	2293.0302	14259.15	13367.85
957.7512	2294.4758	14172.55	13281.2
957.8838	2295.9206	14163.95	13268.35
958.0163	2297.3648	14103	13212.45
958.1488	2298.8082	14084.65	13193.4
958.2813	2300.251	14039	13146.2
958.4137	2301.693	13985.35	13090.65
958.5461	2303.1343	13968.75	13076.65
958.6785	2304.5748	13888	12997.35
958.8108	2306.0147	13837.15	12945.35
958.9432	2307.4538	13829.25	12935.6
959.0754	2308.8922	13768.3	12878.75
959.2077	2310.3299	13719.6	12826.7
959.3399	2311.7669	13692.8	12802.55
959.4721	2313.2031	13643.55	12751.85
959.6043	2314.6387	13565.1	12674.05
959.7365	2316.0735	13522.55	12633.1
959.8686	2317.5076	13493.7	12601.4
960.0006	2318.941	13479.05	12589.45
960.1327	2320.3737	13429.1	12537.75
960.2647	2321.8056	13393.35	12500
960.3967	2323.2369	13340.35	12447.8
960.5287	2324.6674	13282.65	12387.8
960.6606	2326.0972	13232.55	12339.35
960.7925	2327.5263	13192.3	12302.6
960.9244	2328.9547	13149.15	12256.7
961.0562	2330.3823	13117.15	12225.3
961.1881	2331.8092	13106.6	12211.65
961.3198	2333.2355	13040.35	12150.55
961.4516	2334.661	13015.55	12122.65
961.5833	2336.0858	12983.15	12088.6
961.715	2337.5098	12919.9	12029.5
961.8467	2338.9332	12898.25	12006.65
961.9783	2340.3558	12852.6	11957.85
962.1099	2341.7778	12793.65	11901.2
962.2415	2343.199	12745.8	11852.2
962.373	2344.6195	12712.75	11823.9
962.5045	2346.0393	12683.8	11792.65
962.636	2347.4583	12657.45	11767
962.7675	2348.8767	12573.2	11680.9
962.8989	2350.2943	12564.7	11670.7
963.0303	2351.7113	12544.05	11652.65
963.1617	2353.1275	12477	11585.05
963.293	2354.543	12477.45	11563
963.4243	2355.9578	12397.2	11503.85
963.5556	2357.3718	12329.85	11439.25
963.6868	2358.7852	12257.5	11362.15
963.818	2360.1978	12247.05	11354.65
963.9492	2361.6098	12203.6	11312.6
964.0803	2363.021	12170.55	11274.2
964.2114	2364.4315	12113.55	11221.65
964.3425	2365.8413	12073.35	11181.35
964.4736	2367.2504	11997.15	11106
964.6046	2368.6587	11951.35	11061.75
964.7356	2370.0664	11934.1	11045.05
964.8666	2371.4733	11882.65	10993.8
964.9975	2372.8795	11837.9	10948.55
965.1284	2374.285	11789.7	10897.35
965.2593	2375.6899	11747.5	10857.5
965.3901	2377.0939	11679.8	10788.75
965.5209	2378.4973	11640	10749.6
965.6517	2379.9	11614.4	10724.55
965.7825	2381.3019	11538.35	10648.05
965.9132	2382.7032	11500.6	10611.6
966.0439	2384.1037	11478.6	10589.85
966.1745	2385.5035	11444.05	10553.25
966.3051	2386.9027	11387.55	10497.15
966.4357	2388.3011	11367.55	10474.2
966.5663	2389.6987	11334.6	10444.85
966.6968	2391.0957	11319.15	10430.35
966.8273	2392.492	11216.15	10327.8
966.9578	2393.8876	11154	10263.1
967.0882	2395.2824	11128.25	10236.4
967.2186	2396.6765	11051.05	10161.05
967.349	2398.07	11020.75	10130.5
967.4793	2399.4627	11027.4	10136.75
967.6097	2400.8547	10982.45	10091.75
967.7399	2402.246	10948	10052.6
967.8702	2403.6366	10855.55	9964.5
968.0004	2405.0265	10834.05	9945.1
968.1306	2406.4156	10771.1	9876.35
968.2607	2407.8041	10742.95	9849.55
968.3909	2409.1918	10720.15	9827.2
968.521	2410.5789	10684.95	9793.1
968.651	2411.9652	10644.25	9753.8
968.781	2413.3508	10592.85	9700.25
968.911	2414.7358	10519.1	9626.4
969.041	2416.12	10493.9	9605.45
969.1709	2417.5035	10465.7	9575.35
969.3008	2418.8863	10424.5	9533.65
969.4307	2420.2684	10421.85	9529.35
969.5606	2421.6497	10360.3	9468.4
969.6904	2423.0304	10288.7	9401.25
969.8201	2424.4104	10265.9	9375.6
969.9499	2425.7896	10232.25	9338.55
970.0796	2427.1682	10199.15	9308.45
970.2093	2428.546	10174.05	9282.8
970.3389	2429.9232	10139.85	9247
970.4685	2431.2996	10130.85	9240.6
970.5981	2432.6753	10093.5	9204.7
970.7277	2434.0503	10071.3	9182.4
970.8572	2435.4246	9976.75	9088.15
970.9867	2436.7982	9978.05	9085.3
971.1161	2438.1711	9953.35	9062.95
971.2456	2439.5433	9940.35	9050.5
971.375	2440.9148	9882.05	8990.3
971.5043	2442.2856	9828.05	8938
971.6336	2443.6557	9807.5	8917.05
971.7629	2445.025	9773.25	8881.7
971.8922	2446.3937	9757.35	8865.9
972.0214	2447.7617	9725.05	8833
972.1506	2449.1289	9690.8	8800.1
972.2798	2450.4955	9649.8	8754.7
972.4089	2451.8613	9622.45	8732.6
972.538	2453.2265	9609.4	8719.65
972.6671	2454.5909	9573.3	8681.3
972.7961	2455.9546	9554.9	8664.15
972.9251	2457.3177	9527.75	8637.85
973.0541	2458.68	9469.8	8577.55
973.1831	2460.0416	9466.85	8576.25
973.312	2461.4025	9465.6	8573.9
973.4408	2462.7627	9441	8538.15
973.5697	2464.1222	9379.85	8488
973.6985	2465.4811	9349.15	8456.3
973.8273	2466.8392	9338.75	8447.4
973.956	2468.1966	9306.45	8414.6
974.0847	2469.5533	9284.9	8391.25
974.2134	2470.9093	9249.8	8359.35
974.3421	2472.2645	9264.9	8372.8
974.4707	2473.6191	9213.05	8324.3
974.5993	2474.973	9150.8	8258.2
974.7278	2476.3262	9129.9	8237.2
974.8563	2477.6787	9096.8	8206.15
974.9848	2479.0305	9039.05	8148.8
975.1132	2480.3816	9014.35	8124.5
975.2417	2481.7319	8980.15	8091.3
975.37	2483.0816	8956.65	8062.85
975.4984	2484.4306	8925.1	8033.75
975.6267	2485.7789	8902.9	8014.6
975.755	2487.1264	8825.05	7931.75
975.8833	2488.4733	8816.75	7925.25
976.0115	2489.8195	8778.1	7880.25
976.1397	2491.165	8743.8	7848.5
976.2678	2492.5097	8708	7816.5
976.3959	2493.8538	8689.4	7798.15
976.524	2495.1972	8652.45	7761.2
976.6521	2496.5398	8608.25	7716.2
976.7801	2497.8818	8591.2	7699.9
976.9081	2499.2231	8541.75	7651.2
977.036	2500.5637	8535.65	7642.85
977.164	2501.9035	8478.95	7586.15
977.2918	2503.2427	8468.05	7574.4
977.4197	2504.5812	8427.5	7537.3
977.5475	2505.919	8402.55	7508.95
977.6753	2507.256	8382.5	7491.1
977.8031	2508.5924	8367.9	7475.35
977.9308	2509.9281	8336.8	7442.6
978.0585	2511.2631	8305.75	7414.75
978.1861	2512.5974	8275.65	7386.4
978.3137	2513.9309	8258.65	7366.3
978.4413	2515.2638	8252.9	7326.9
978.5689	2516.596	8202.4	7311.75
978.6964	2517.9275	8177.1	7285.65
978.8239	2519.2583	8127.45	7236.85
978.9513	2520.5884	8099.5	7206.45
979.0788	2521.9178	8062.95	7171.05
979.2062	2523.2465	8008.6	7118.75
979.3335	2524.5745	7984.25	7094.35
979.4608	2525.9018	7960.7	7068.7
979.5881	2527.2284	7952.6	7060.75
979.7154	2528.5543	7930	7040.95
979.8426	2529.8796	7905.3	7014.8
979.9698	2531.2041	7914.95	7025.75
980.0969	2532.5279	7880.95	6989.55
980.224	2533.851	7848.6	6958.2
980.3511	2535.1735	7815.95	6925.9
980.4781	2536.4952	7822.45	6932.1
980.6052	2537.8163	7788.85	6897.85
980.7321	2539.1366	7761.9	6871.2
980.8591	2540.4562	7721.1	6829.25
980.986	2541.7752	7727.7	6837.1
981.1129	2543.0935	7687.7	6796.45
981.2397	2544.411	7700.05	6807.1
981.3665	2545.7279	7669.8	6780.9
981.4933	2547.0441	7678.6	6788.7
981.62	2548.3596	7647.1	6752.8
981.7467	2549.6744	7622.1	6731.55
981.8734	2550.9885	7592.75	6699.5
982.0001	2552.3019	7539.65	6647.75
982.1267	2553.6146	7535.25	6644.75
982.2532	2554.9266	7514.65	6623.2
982.3798	2556.2379	7493.4	6599.8
982.5063	2557.5485	7470.1	6578.75
982.6327	2558.8585	7471.25	6574.45
982.7592	2560.1677	7441.55	6546.75
982.8856	2561.4762	7435.3	6544.7
983.0119	2562.7841	7433.45	6541.2
983.1383	2564.0913	7396.75	6506.55
983.2646	2565.3977	7375.55	6485.35
983.3908	2566.7035	7334.25	6444.6
983.517	2568.0086	7340.95	6448.2
983.6432	2569.313	7340.9	6450.15
983.7694	2570.6167	7298.25	6404.6
983.8955	2571.9197	7295.85	6405.7
984.0216	2573.222	7282.75	6390.05
984.1476	2574.5236	7256.9	6367.05
984.2737	2575.8246	7225.15	6331.05
984.3996	2577.1248	7215.9	6320.5
984.5256	2578.4244	7202.9	6312.25
984.6515	2579.7232	7193.15	6300.55
984.7774	2581.0214	7214.45	6296.75
984.9032	2582.3189	7148.65	6256.55
985.029	2583.6157	7136.4	6242.35
985.1548	2584.9118	7124.9	6233.5
985.2806	2586.2072	7122.7	6233.95
985.4063	2587.5019	7101.85	6211.9
985.5319	2588.7959	7071.8	6180.4
985.6576	2590.0893	7066.45	6174.55
985.7832	2591.3819	7024.5	6134.8
985.9087	2592.6739	7002.25	6113
986.0343	2593.9652	6997.25	6105.3
986.1597	2595.2557	6957.5	6067
986.2852	2596.5456	6961.95	6067.85
986.4106	2597.8348	6921.75	6032.15
986.536	2599.1234	6896.6	6007.1
986.6614	2600.4112	6882.9	5992
986.7867	2601.6983	6842	5948.2
986.912	2602.9848	6834.9	5944.6
987.0372	2604.2705	6799.55	5903.05
987.1624	2605.5556	6792.5	5901.05
987.2876	2606.84	6780.2	5888.05
987.4128	2608.1237	6738.7	5847.75
987.5379	2609.4067	6711	5818.7
987.6629	2610.689	6694	5794
987.788	2611.9707	6657.75	5765.5
987.913	2613.2516	6654.05	5757.9
988.0379	2614.5319	6616.85	5728.1
988.1629	2615.8115	6579.95	5687.6
988.2878	2617.0903	6552.25	5660.2
988.4126	2618.3685	6533.8	5643.95
988.5375	2619.6461	6514.6	5623.2
988.6622	2620.9229	6494.4	5602.3
988.787	2622.199	6476.7	5583
988.9117	2623.4745	6468.45	5578.2
989.0364	2624.7493	6437.9	5547.95
989.161	2626.0234	6436.65	5546.3
989.2857	2627.2968	6410.55	5520.15
989.4102	2628.5695	6387	5494.05
989.5348	2629.8415	6342.8	5452.2
989.6593	2631.1128	6314.6	5421.2
989.7837	2632.3835	6314.4	5421.85
989.9082	2633.6535	6272.45	5380.55
990.0326	2634.9228	6252.6	5362.15
990.1569	2636.1914	6249.1	5357.6
990.2812	2637.4593	6241.65	5345.05
990.4055	2638.7265	6206.4	5314.4
990.5298	2639.9931	6175.35	5285.3
990.654	2641.259	6160.75	5267.85
990.7782	2642.5242	6141.35	5249.8
990.9023	2643.7887	6127	5236.2
991.0264	2645.0525	6094.55	5202.95
991.1505	2646.3156	6080.55	5189.25
991.2745	2647.5781	6059.8	5169.5
991.3985	2648.8398	6032.55	5141.3
991.5225	2650.1009	6037.1	5139
991.6464	2651.3613	6006.75	5115.6
991.7703	2652.6211	6004.05	5113.35
991.8942	2653.8801	5966.9	5076.05
992.018	2655.1385	5956.3	5063
992.1418	2656.3961	5923.5	5032.85
992.2655	2657.6531	5937.15	5047.9
992.3892	2658.9094	5899.05	5008.7
992.5129	2660.1651	5888.4	4996.7
992.6366	2661.42	5886.1	4993.4
992.7602	2662.6743	5857.9	4964.55
992.8837	2663.9279	5850.55	4959.6
993.0073	2665.1808	5831.45	4939.95
993.1307	2666.433	5818.1	4926.1
993.2542	2667.6846	5815.2	4923.85
993.3776	2668.9354	5783.15	4889
993.501	2670.1856	5771.25	4879.85
993.6244	2671.4351	5766.5	4876.15
993.7477	2672.6839	5748.15	4856
993.8709	2673.9321	5725.1	4833.75
993.9942	2675.1795	5743.1	4853.85
994.1174	2676.4263	5717.25	4824.1
994.2405	2677.6724	5689.3	4798.1
994.3637	2678.9179	5667.5	4774.5
994.4868	2680.1626	5663.05	4772.75
994.6098	2681.4067	5662	4771.7
994.7328	2682.6501	5633.95	4744.05
994.8558	2683.8928	5610	4719.2
994.9788	2685.1348	5606.6	4716.8
995.1017	2686.3761	5571.35	4681.2
995.2245	2687.6168	5548.75	4658.65
995.3474	2688.8568	5544.5	4653.45
995.4702	2690.0961	5499.25	4607.65
995.5929	2691.3348	5490.05	4599.15
995.7156	2692.5727	5485.55	4593.85
995.8383	2693.81	5462.5	4573.65
995.961	2695.0466	5436.2	4546.1
996.0836	2696.2826	5406.65	4513.7
996.2062	2697.5178	5416.3	4522.7
996.3287	2698.7524	5396.65	4506.15
996.4512	2699.9863	5384.85	4490.35
996.5737	2701.2195	5373.15	4482.7
996.6961	2702.452	5372.1	4480.7
996.8185	2703.6839	5346.65	4455.2
996.9408	2704.9151	5317.6	4427.45
997.0631	2706.1456	5319.35	4427.3
997.1854	2707.3755	5296.15	4406.25
997.3077	2708.6046	5294.35	4402.5
997.4299	2709.8331	5277.4	4386.65
997.552	2711.0609	5255.95	4363.65
997.6742	2712.2881	5257.1	4366.7
997.7963	2713.5145	5253.1	4359.4
997.9183	2714.7403	5236.8	4346.05
998.0403	2715.9654	5226.7	4336.95
998.1623	2717.1899	5251.85	4346.4
998.2842	2718.4136	5224.35	4334
998.4062	2719.6367	5229.05	4337.55
998.528	2720.8591	5214.2	4316.45
998.6498	2722.0809	5193.75	4303.95
998.7716	2723.3019	5186.35	4291.55
998.8934	2724.5223	5197.25	4305.15
999.0151	2725.7421	5173.85	4283.6
999.1368	2726.9611	5174.4	4281.15
999.2584	2728.1795	5151.95	4257.1
999.38	2729.3972	5124.55	4232.45
999.5016	2730.6142	5108.8	4210.4
999.6231	2731.8306	5060.3	4169.9
999.7446	2733.0462	5030.95	4138.65
999.8661	2734.2612	5021.2	4126.4
999.9875	2735.4756	4986.5	4094.25
1000.1089	2736.6892	4931.7	4039.65
1000.2302	2737.9022	4896.2	4007.45
1000.3515	2739.1145	4875.85	3984.15
1000.4728	2740.3262	4851.75	3951.95
1000.594	2741.5372	4815.25	3925.45
1000.7152	2742.7475	4789.4	3895.3
1000.8363	2743.9571	4789.35	3897.4
1000.9575	2745.1661	4754.05	3857.95
1001.0785	2746.3744	4750.6	3860.45
1001.1996	2747.582	4721.25	3829.6
1001.3206	2748.7889	4701.1	3808.1
1001.4415	2749.9952	4691.2	3800.8
1001.5625	2751.2008	4666.35	3774.7
1001.6833	2752.4057	4647.9	3754.35
1001.8042	2753.61	4632.05	3739.65
1001.925	2754.8136	4620.7	3727.35
1002.0458	2756.0165	4586.25	3696.1
1002.1665	2757.2188	4558.8	3670.2
1002.2872	2758.4204	4572.5	3680.7
1002.4078	2759.6213	4554.85	3663.4
1002.5285	2760.8215	4545.7	3649.4
1002.649	2762.0211	4545.2	3653.3
1002.7696	2763.22	4521	3624.6
1002.8901	2764.4182	4514.3	3621.6
1003.0106	2765.6158	4496.05	3605.35
1003.131	2766.8127	4477.9	3586.05
1003.2514	2768.009	4464.5	3573.2
1003.3717	2769.2045	4447.3	3555.2
1003.492	2770.3994	4436.7	3542.55
1003.6123	2771.5936	4421	3530.85
1003.7325	2772.7872	4383.55	3493.25
1003.8527	2773.9801	4368.45	3478.1
1003.9729	2775.1723	4378.5	3469.85
1004.093	2776.3639	4355.65	3463.8
1004.2131	2777.5548	4350.1	3454.45
1004.3331	2778.745	4331.1	3439.1
1004.4531	2779.9346	4318.9	3430.25
1004.5731	2781.1235	4327.7	3436.45
1004.693	2782.3117	4297.05	3407.3
1004.8129	2783.4992	4281.9	3391
1004.9328	2784.6861	4285.55	3393.45
1005.0526	2785.8723	4285.1	3395.3
1005.1723	2787.0579	4273.5	3382
1005.2921	2788.2428	4263.8	3372.65
1005.4118	2789.427	4239.25	3348.6
1005.5314	2790.6106	4242.8	3351.35
1005.651	2791.7935	4249.05	3356.8
1005.7706	2792.9757	4249.95	3358.65
1005.8902	2794.1573	4247.5	3353.85
1006.0097	2795.3382	4254.75	3366.9
1006.1291	2796.5184	4257.25	3369.45
1006.2485	2797.698	4252.3	3361.05
1006.3679	2798.8769	4272.2	3381.9
1006.4873	2800.0551	4266.75	3374.6
1006.6066	2801.2327	4266.1	3374.35
1006.7258	2802.4096	4277.25	3385.7
1006.8451	2803.5859	4294.35	3401.35
1006.9642	2804.7615	4301.25	3409.95
1007.0834	2805.9364	4315.55	3424.7
1007.2025	2807.1106	4329.1	3439.45
1007.3216	2808.2842	4355.3	3463.1
1007.4406	2809.4572	4373.2	3482.3
1007.5596	2810.6294	4378.1	3486.75
1007.6785	2811.801	4410.9	3520.8
1007.7975	2812.972	4434.2	3544.35
1007.9163	2814.1423	4468.65	3577.8
1008.0352	2815.3119	4503.45	3612.25
1008.154	2816.4808	4559.6	3670.85
1008.2727	2817.6491	4590.15	3699.5
1008.3914	2818.8167	4611.35	3721.75
1008.5101	2819.9837	4663.9	3767.55
1008.6288	2821.15	4701.1	3809.75
1008.7474	2822.3157	4741.7	3852.2
1008.8659	2823.4807	4762.85	3871.6
1008.9844	2824.645	4805.6	3914.1
1009.1029	2825.8086	4846.1	3956.25
1009.2214	2826.9716	4873.75	3982
1009.3398	2828.134	4897.5	4008.7
1009.4581	2829.2957	4935.75	4044.5
1009.5764	2830.4567	4958.8	4068.3
1009.6947	2831.617	4966.05	4073.6
1009.813	2832.7767	4968.7	4079.15
1009.9312	2833.9358	4964.8	4076.3
1010.0493	2835.0941	4958.95	4066.45
1010.1675	2836.2519	4939.5	4048.4
1010.2855	2837.4089	4914.45	4024.35
1010.4036	2838.5653	4889.6	3999.95
1010.5216	2839.7211	4874.85	3985.75
1010.6396	2840.8761	4877.15	3983.85
1010.7575	2842.0306	4890.35	4000.15
1010.8754	2843.1843	4937.05	4046.2
1010.9932	2844.3374	4967.45	4078.25
1011.111	2845.4899	5025.95	4136.55
1011.2288	2846.6417	5088.6	4198.8
1011.3465	2847.7928	5154.15	4265.2
1011.4642	2848.9433	5233.35	4342.75
1011.5818	2850.0931	5309.6	4418.45
1011.6995	2851.2422	5387.95	4497.2
1011.817	2852.3907	5425.15	4533.85
1011.9345	2853.5385	5511	4617.45
1012.052	2854.6857	5578.2	4661.85
1012.1695	2855.8323	5572.95	4682.4
1012.2869	2856.9781	5623.3	4734
1012.4042	2858.1233	5648.4	4758.75
1012.5216	2859.2679	5707	4814.4
1012.6389	2860.4118	5725.7	4835.45
1012.7561	2861.555	5758.1	4863.3
1012.8733	2862.6976	5789.65	4897.7
1012.9905	2863.8395	5804.95	4913.9
1013.1076	2864.9808	5807.15	4917.15
1013.2247	2866.1214	5831.65	4942.65
1013.3417	2867.2614	5843.15	4952.3
1013.4587	2868.4007	5834.35	4941.6
1013.5757	2869.5393	5826.85	4934.3
1013.6926	2870.6773	5811.05	4918.35
1013.8095	2871.8146	5821.35	4927.4
1013.9263	2872.9513	5826.7	4931.3
1014.0431	2874.0874	5815.65	4923.1
1014.1599	2875.2227	5809.95	4919.1
1014.2766	2876.3574	5772.9	4882.25
1014.3933	2877.4915	5731.85	4842.15
1014.51	2878.6249	5705.15	4815.85
1014.6266	2879.7577	5654.95	4763.4
1014.7431	2880.8898	5670.9	4768.5
1014.8596	2882.0212	5631.75	4743.3
1014.9761	2883.152	5585.2	4694.4
1015.0925	2884.2821	5559.6	4668.85
1015.2089	2885.4116	5545.9	4656.35
1015.3253	2886.5405	5527.2	4637
1015.4416	2887.6686	5559.15	4664.85
1015.5579	2888.7962	5552.3	4663.75
1015.6741	2889.923	5538.2	4650.4
1015.7903	2891.0493	5545.65	4656.05
1015.9065	2892.1748	5536.25	4647.45
1016.0226	2893.2997	5531.65	4639.45
1016.1387	2894.424	5534.5	4645.4
1016.2547	2895.5476	5540.65	4650.1
1016.3707	2896.6706	5584	4693.2
1016.4866	2897.7929	5589.7	4697.4
1016.6025	2898.9145	5601.65	4709.05
1016.7184	2900.0355	5640.15	4750.1
1016.8342	2901.1559	5663.9	4772.6
1016.95	2902.2756	5694.65	4803.3
1017.0658	2903.3946	5719.25	4828.25
1017.1815	2904.513	5725.8	4831.95
1017.2971	2905.6308	5743.7	4853.7
1017.4127	2906.7479	5743.7	4852.4
1017.5283	2907.8643	5780.8	4889.25
1017.6439	2908.9801	5779	4889.85
1017.7594	2910.0953	5774.2	4883.55
1017.8748	2911.2098	5779.65	4886.15
1017.9902	2912.3236	5749.7	4850.45
1018.1056	2913.4368	5727.1	4832
1018.2209	2914.5494	5705.9	4815.75
1018.3362	2915.6613	5688.6	4795.1
1018.4515	2916.7725	5632.85	4740.8
1018.5667	2917.8831	5602.4	4710.45
1018.6819	2918.9931	5566.3	4670.5
1018.797	2920.1024	5538.2	4648
1018.9121	2921.211	5516.25	4627.1
1019.0271	2922.319	5482.15	4590.6
1019.1421	2923.4264	5447.05	4555.75
1019.2571	2924.5331	5428.1	4538.95
1019.372	2925.6391	5416.65	4527.4
1019.4869	2926.7445	5399.65	4510.95
1019.6017	2927.8493	5360.7	4468.9
1019.7165	2928.9534	5376.8	4485.2
1019.8313	2930.0569	5360.55	4465.25
1019.946	2931.1597	5348.25	4457.8
1020.0606	2932.2619	5310.9	4420.75
1020.1753	2933.3634	5304.5	4413.65
1020.2899	2934.4643	5307.5	4410.4
1020.4044	2935.5645	5270	4372.85
1020.5189	2936.6641	5213.55	4318.35
1020.6334	2937.763	5164.55	4274.95
1020.7478	2938.8613	5123	4231.5
1020.8622	2939.959	5045.25	4150.15
1020.9765	2941.056	4969.65	4080.25
1021.0908	2942.1523	4883.7	3993.55
1021.2051	2943.248	4782.1	3889.95
1021.3193	2944.3431	4677.35	3787.2
1021.4334	2945.4375	4553.3	3661.2
1021.5476	2946.5313	4448.15	3558.55
1021.6617	2947.6244	4341.1	3451.15
1021.7757	2948.7169	4244.8	3352.8
1021.8897	2949.8087	4143.05	3253.7
1022.0037	2950.8999	4033.95	3142.6
1022.1176	2951.9904	3956.45	3068.35
1022.2315	2953.0803	3847.5	2958.45
1022.3453	2954.1696	3787.35	2897.4
1022.4591	2955.2582	3732.3	2840.45
1022.5728	2956.3462	3682.2	2791.9
1022.6865	2957.4335	3636	2745.65
1022.8002	2958.5202	3593.5	2699.15
1022.9138	2959.6062	3556.9	2666.1
1023.0274	2960.6916	3519.55	2628.05
1023.141	2961.7764	3498.15	2606.95
1023.2545	2962.8605	3473.6	2582.55
1023.3679	2963.9439	3464.6	2575.35
1023.4813	2965.0267	3441.7	2549.95
1023.5947	2966.1089	3461.4	2545.85
1023.708	2967.1905	3420.05	2529
1023.8213	2968.2714	3403.25	2513.8
1023.9346	2969.3516	3391.3	2500.9
1024.0478	2970.4312	3391.75	2495.1
1024.1609	2971.5102	3380.3	2489
1024.274	2972.5885	3386.75	2497.7
1024.3871	2973.6662	3380.2	2484.75
1024.5002	2974.7432	3364.2	2476.1
1024.6132	2975.8196	3344.55	2455.65
1024.7261	2976.8954	3326.5	2437.2
1024.839	2977.9705	3309	2419
1024.9519	2979.045	3290.15	2400.1
1025.0647	2980.1188	3271.7	2381.2
1025.1775	2981.192	3236.95	2348.9
1025.2902	2982.2645	3212.8	2320.85
1025.4029	2983.3364	3181.4	2291.05
1025.5156	2984.4077	3142.45	2253.05
1025.6282	2985.4783	3128.2	2231.8
1025.7407	2986.5483	3075.45	2184.95
1025.8532	2987.6177	3055.15	2165.1
1025.9657	2988.6864	2997.25	2108.1
1026.0782	2989.7545	2966.9	2075.8
1026.1906	2990.8219	2928.25	2037.6
1026.3029	2991.8887	2881.9	1988.3
1026.4152	2992.9548	2851.2	1959.3
1026.5275	2994.0204	2815.35	1926.95
1026.6397	2995.0852	2788.4	1898.8
1026.7519	2996.1495	2751	1860.15
1026.864	2997.2131	2714.6	1823.75
1026.9761	2998.276	2696.7	1809.9
1027.0882	2999.3383	2672.45	1781.6
1027.2002	3000.4	2641.05	1750.75
1027.3122	3001.4611	2633.45	1742.2
1027.4241	3002.5215	2611.25	1720.6
1027.536	3003.5812	2595.9	1706.6
1027.6478	3004.6404	2577.3	1685.9
1027.7596	3005.6989	2565.15	1673.1
1027.8714	3006.7567	2558.15	1668
1027.9831	3007.8139	2557.6	1643.2
1028.0947	3008.8705	2530.65	1639.7
1028.2064	3009.9264	2525.5	1620.5
1028.3179	3010.9818	2517.6	1627.65
1028.4295	3012.0364	2507.4	1618.65
1028.541	3013.0905	2487.5	1598.85
1028.6524	3014.1439	2487.85	1596.85
1028.7638	3015.1966	2481.45	1591.85
1028.8752	3016.2487	2466.3	1576.9
1028.9865	3017.3002	2479.25	1581.65
1029.0978	3018.3511	2465.45	1575.7
1029.209	3019.4013	2449.3	1558.75
1029.3202	3020.4509	2458.7	1569.25
1029.4314	3021.4998	2451.15	1562.55
1029.5425	3022.5481	2442.25	1554.35
1029.6535	3023.5958	2442.5	1551.95
1029.7645	3024.6428	2433	1541.6
1029.8755	3025.6892	2435.8	1545.2
1029.9864	3026.735	2448.2	1558.45
1030.0973	3027.7802	2435.7	1544.5
1030.2082	3028.8247	2428.75	1535.75
1030.319	3029.8685	2421.7	1530.75
1030.4297	3030.9118	2427.5	1537.05
1030.5404	3031.9544	2421.55	1530.95
1030.6511	3032.9963	2422.1	1532.55
1030.7617	3034.0376	2428.65	1538.75
1030.8723	3035.0783	2423.85	1530.8
1030.9829	3036.1184	2422.1	1529.5
1031.0934	3037.1578	2417.25	1526.95
1031.2038	3038.1966	2412.05	1519.85
1031.3142	3039.2348	2412.85	1524.15
1031.4246	3040.2723	2415.65	1517.05
1031.5349	3041.3092	2395.7	1506.1
1031.6452	3042.3455	2391.65	1501.8
1031.7554	3043.3811	2387.35	1497.3
1031.8656	3044.4161	2373.55	1482.25
1031.9758	3045.4505	2365	1476.45
1032.0859	3046.4842	2358.45	1467.1
1032.1959	3047.5173	2342.65	1455.45
1032.3059	3048.5498	2334.7	1446.15
1032.4159	3049.5816	2318.95	1428.5
1032.5258	3050.6128	2314.75	1424.95
1032.6357	3051.6434	2313.35	1418.9
1032.7455	3052.6734	2304.35	1411.5
1032.8553	3053.7027	2289.25	1399.3
1032.9651	3054.7314	2273.9	1383.05
1033.0748	3055.7594	2272.45	1383.95
1033.1845	3056.7868	2261.35	1372.25
1033.2941	3057.8136	2254.7	1365.1
1033.4037	3058.8398	2234.3	1347.05
1033.5132	3059.8653	2231.05	1339.2
1033.6227	3060.8902	2214.35	1324.05
1033.7321	3061.9145	2196.6	1304.8
1033.8415	3062.9381	2193.2	1305
1033.9509	3063.9612	2187.95	1281.55
1034.0602	3064.9835	2171.15	1281.4
1034.1694	3066.0053	2175.85	1284.65
1034.2787	3067.0264	2156.2	1266.9
1034.3878	3068.0469	2151.95	1262.35
1034.497	3069.0668	2140	1249.05
1034.6061	3070.086	2134.2	1245.9
1034.7151	3071.1046	2119	1227.7
1034.8241	3072.1226	2105.4	1214.7
1034.9331	3073.1399	2096.5	1207.65
1035.042	3074.1567	2090.15	1201.05
1035.1508	3075.1727	2054.05	1161.45
1035.2597	3076.1882	2050.85	1163.45
1035.3684	3077.203	2033.5	1144.7
1035.4772	3078.2173	2028.5	1139.65
1035.5859	3079.2308	2015.35	1123.45
1035.6945	3080.2438	2014.85	1124.7
1035.8031	3081.2561	1990.3	1098.35
1035.9117	3082.2678	1993.15	1104.9
1036.0202	3083.2789	1972.2	1082.15
1036.1286	3084.2893	1955.2	1067.1
1036.2371	3085.2991	1948.5	1059.5
1036.3454	3086.3083	1952.3	1057.4
1036.4538	3087.3169	1927.7	1036.8
1036.562	3088.3248	1926.75	1036.35
1036.6703	3089.3321	1917.4	1026.45
1036.7785	3090.3388	1903.7	1016.1
1036.8866	3091.3449	1901.1	1010.65
1036.9948	3092.3503	1904.4	1013.1
1037.1028	3093.3551	1895.15	1004.4
1037.2108	3094.3593	1881.6	992.5
1037.3188	3095.3629	1879.35	989.25
1037.4267	3096.3658	1870.35	979.05
1037.5346	3097.3681	1866.25	975.05
1037.6425	3098.3698	1854.35	963.55
1037.7503	3099.3708	1852.05	956.15
1037.858	3100.3713	1837.45	947.1
1037.9657	3101.3711	1830.25	939.4
1038.0734	3102.3702	1937.25	928.65
1038.181	3103.3688	1828.05	936.1
1038.2886	3104.3667	1822.15	932.95
1038.3961	3105.364	1809.45	920.4
1038.5036	3106.3607	1810.1	919.35
1038.611	3107.3568	1792.95	902.45
1038.7184	3108.3522	1798.95	909.1
1038.8257	3109.347	1790.4	898.65
1038.933	3110.3412	1805.2	912.2
1039.0403	3111.3348	1775.6	884.2
1039.1475	3112.3277	1759.7	872.75
1039.2547	3113.32	1765.75	876.65
1039.3618	3114.3117	1755.4	864.8
1039.4689	3115.3028	1763.8	875.35
1039.5759	3116.2932	1754.1	861.25
1039.6829	3117.2831	1745.8	849.9
1039.7898	3118.2723	1737.1	846.85
1039.8967	3119.2608	1736.45	846.9
1040.0035	3120.2488	1728.7	838.65
1040.1103	3121.2361	1723.2	833.25
1040.2171	3122.2229	1719.2	829.05
1040.3238	3123.209	1717.3	826.7
1040.4305	3124.1944	1716.1	827.85
1040.5371	3125.1793	1707.5	815.85
1040.6437	3126.1635	1707.6	818.4
1040.7502	3127.1471	1696.5	806.1
1040.8567	3128.1301	1689.85	800.25
1040.9631	3129.1125	1689.2	801.3
1041.0695	3130.0942	1689.8	801.2
1041.1759	3131.0753	1685	788.25
1041.2822	3132.0558	1687	794.4
1041.3884	3133.0357	1664.75	773.45
1041.4946	3134.015	1663	771.1
1041.6008	3134.9936	1670.25	780.35
1041.7069	3135.9716	1681.65	769.3
1041.813	3136.949	1659.2	769
1041.919	3137.9258	1658.7	763.65
1042.025	3138.902	1660.35	764.4
1042.1309	3139.8775	1655.8	766.9
1042.2368	3140.8524	1644.3	756.1
1042.3427	3141.8267	1640.65	750.65
1042.4485	3142.8004	1642.2	753.95
1042.5542	3143.7735	1636.45	741.45
1042.6599	3144.7459	1631.15	737.55
1042.7656	3145.7178	1629.8	738.75
1042.8712	3146.689	1627.2	739.1
1042.9768	3147.6596	1622.1	729.7
1043.0823	3148.6295	1611.75	723.55
1043.1878	3149.5989	1611	720.7
1043.2932	3150.5676	1599.35	710.3
1043.3986	3151.5357	1601.85	713.8
1043.5039	3152.5032	1588.4	699.85
1043.6092	3153.4701	1585.5	696.2
1043.7145	3154.4364	1592.55	700.95
1043.8197	3155.402	1584.15	694.05
1043.9248	3156.367	1579.8	689.45
1044.03	3157.3315	1615.1	685.55
1044.135	3158.2952	1572.85	683.65
1044.24	3159.2584	1570.8	680.45
1044.345	3160.221	1559.55	669.4
1044.4499	3161.1829	1560	669.05
1044.5548	3162.1442	1555.1	664.05
1044.6596	3163.105	1550.9	661.85
1044.7644	3164.065	1548.5	658.4
1044.8692	3165.0245	1537.85	644.9
1044.9739	3165.9834	1542.45	656.7
1045.0785	3166.9416	1539.15	649.2
1045.1831	3167.8993	1534	645.75
1045.2877	3168.8563	1530.15	639.75
1045.3922	3169.8127	1524.8	634.4
1045.4966	3170.7684	1525.15	635.8
1045.6011	3171.7236	1520.9	630.95
1045.7054	3172.6782	1515.9	628.05
1045.8098	3173.6321	1509.3	619.35
1045.914	3174.5854	1513.1	617.85
1046.0183	3175.5381	1516.7	626
1046.1224	3176.4902	1501.95	611.85
1046.2266	3177.4417	1498.35	611.4
1046.3307	3178.3926	1490.55	602.6
1046.4347	3179.3428	1485.95	596.3
1046.5387	3180.2924	1479.9	590.75
1046.6427	3181.2415	1484.2	594.5
1046.7466	3182.1899	1470.1	578.75
1046.8504	3183.1377	1477.8	589.75
1046.9542	3184.0848	1474.05	583.05
1047.058	3185.0314	1471.05	582.55
1047.1617	3185.9773	1464.75	575.1
1047.2654	3186.9227	1468.95	579.8
1047.369	3187.8674	1463.25	574.35
1047.4726	3188.8115	1461.65	567.05
1047.5761	3189.755	1454	565.6
1047.6796	3190.6979	1453.45	566.15
1047.783	3191.6402	1446.15	557.1
1047.8864	3192.5818	1445	557.15
1047.9898	3193.5229	1472.3	559.55
1048.0931	3194.4633	1443.2	551.35
1048.1963	3195.4031	1436	545.55
1048.2995	3196.3423	1435.85	545.75
1048.4027	3197.2809	1436.8	548.6
1048.5058	3198.2189	1431.6	541.25
1048.6089	3199.1563	1441.4	537.05
1048.7119	3200.0931	1428.05	538.95
1048.8148	3201.0292	1416	527.4
1048.9178	3201.9648	1417.9	530.75
1049.0206	3202.8997	1428.2	536.55
1049.1235	3203.834	1419.2	528.35
1049.2262	3204.7677	1412.35	521.75
1049.329	3205.7008	1406.35	514.45
1049.4317	3206.6333	1407.25	518.3
1049.5343	3207.5652	1407.05	514.9
1049.6369	3208.4964	1400.65	509.8
1049.7394	3209.4271	1398.25	510.95
1049.8419	3210.3571	1393.85	504.3
1049.9444	3211.2865	1401.8	512.25
1050.0468	3212.2154	1397.25	507.3
1050.1491	3213.1436	1392.8	501.4
1050.2514	3214.0712	1394.1	498.1
1050.3537	3214.9982	1384.65	495.2
1050.4559	3215.9246	1381.6	492.6
1050.5581	3216.8503	1377.4	487.85
1050.6602	3217.7755	1376.75	486.95
1050.7623	3218.7001	1369.05	478.8
1050.8643	3219.624	1369.25	480.1
1050.9663	3220.5473	1373.9	482.55
1051.0682	3221.4701	1355.25	464.75
1051.1701	3222.3922	1359.4	467.45
1051.2719	3223.3137	1363.25	474.9
1051.3737	3224.2346	1361.05	472.35
1051.4754	3225.1549	1358.65	469.4
1051.5771	3226.0746	1354.4	467.25
1051.6788	3226.9937	1351.15	460.6
1051.7804	3227.9121	1350.7	462.9
1051.8819	3228.83	1346.65	456.3
1051.9834	3229.7473	1350.25	461.85
1052.0849	3230.6639	1341.4	451.3
1052.1863	3231.5799	1340.3	452.9
1052.2876	3232.4954	1339.55	449.9
1052.3889	3233.4102	1330.6	440.35
1052.4902	3234.3244	1333.9	443.05
1052.5914	3235.238	1333.6	446.05
1052.6926	3236.151	1350.4	437.25
1052.7937	3237.0634	1325.75	437.15
1052.8948	3237.9752	1320.7	433.1
1052.9958	3238.8864	1315.6	426.25
1053.0968	3239.797	1321.75	432.6
1053.1977	3240.7069	1318.65	428.6
1053.2986	3241.6163	1315.7	423.85
1053.3994	3242.5251	1310.85	423.25
1053.5002	3243.4332	1310.3	421.4
1053.6009	3244.3408	1302.7	413.4
1053.7016	3245.2477	1302.25	413.8
1053.8022	3246.154	1298.9	407.45
1053.9028	3247.0598	1290.6	401.25
1054.0034	3247.9649	1290.85	399
1054.1039	3248.8694	1285.8	396.4
1054.2043	3249.7733	1290.55	403.8
1054.3047	3250.6766	1283.3	393.15
1054.4051	3251.5793	1284.65	395.6
1054.5054	3252.4814	1279.85	392.15
1054.6056	3253.3829	1274.4	386.25
1054.7058	3254.2838	1270.25	380.55
1054.806	3255.1841	1275.75	387.85
1054.9061	3256.0838	1270.95	381.05
1055.0061	3256.9829	1265.55	377.1
1055.1062	3257.8814	1259.75	370.3
1055.2061	3258.7792	1258.75	369.15
1055.306	3259.6765	1256.75	364.8
1055.4059	3260.5731	1251.3	363.5
1055.5057	3261.4692	1249.7	361.4
1055.6055	3262.3647	1248.2	359
1055.7052	3263.2595	1245.4	355.65
1055.8049	3264.1538	1231.25	342.2
1055.9045	3265.0474	1236.8	347.5
1056.0041	3265.9404	1225.35	335.8
1056.1036	3266.8329	1220.2	331.65
1056.2031	3267.7247	1218.9	321.1
1056.3025	3268.616	1202.2	314.35
1056.4019	3269.5066	1191.05	302.95
1056.5013	3270.3966	1186.95	296
1056.6005	3271.286	1178.25	289.05
