Software Version:	3.9.2.0
Unit SN:	10000200
Spectrometer SN:	6960
Date:	3/6/2024 9:51:33 AM
Data Line Index:	25
Spectral Points:	2048
Integration time (ms):	125
Averages:	20
Delay (ms):	30
Sequence Number:	1
Processing:	dark subtract
Laser Power (mW):	305
Laser Current (mA):	824
Laser Diode Temp (C):	25.1
Laser Case Temp (C):	24.3
System Temp (C):	24.2
Spectrometer Temp (C):	21.7
CCD Temp (C):	-0.006
Secondary Temp (C):	20.01
Heatsink Temp (C):	18.42
CCDPCB Temp (C):	30.716
SecondaryPCB Temp (C):	26.158

Wavelength	RamanShift	Raw Counts	Dark Subtracted
787.061	30.1047	444.65	37.8
787.2016	32.3739	443	37.9
787.3422	34.6426	448	41.05
787.4828	36.9109	452.85	43.15
787.6235	39.1787	459.25	46
787.7642	41.4461	467.5	50.75
787.9049	43.7131	473.65	53.65
788.0456	45.9796	477.65	52.85
788.1863	48.2456	485.5	59.25
788.3271	50.5112	490.15	60.55
788.4679	52.7764	498.2	63.8
788.6087	55.0411	507.55	70.8
788.7496	57.3054	515.15	71.6
788.8904	59.5692	521.95	76.8
789.0313	61.8326	530.45	83.1
789.1722	64.0955	539.15	89.8
789.3132	66.3579	547.45	94.4
789.4541	68.6199	563.65	106.25
789.5951	70.8815	588.25	125.5
789.7361	73.1426	630.4	163.05
789.8771	75.4032	736.35	265.9
790.0181	77.6634	988.75	514.35
790.1592	79.9231	1611.7	1135.7
790.3003	82.1824	2886.45	2402.15
790.4414	84.4412	5155.55	4654.9
790.5825	86.6995	8214.1	7699.55
790.7237	88.9574	11260.55	10732.25
790.8648	91.2148	13514.15	12976.15
791.006	93.4717	14768.85	14224.7
791.1472	95.7282	15319.95	14773.15
791.2885	97.9842	15607.7	15056.9
791.4297	100.2398	15718.75	15166.1
791.571	102.4949	15750.25	15194.25
791.7123	104.7495	15765.45	15205.5
791.8536	107.0036	15745.65	15182.1
791.9949	109.2573	15735.3	15176.5
792.1363	111.5105	15729.75	15171.2
792.2777	113.7632	15678.1	15116.5
792.4191	116.0154	15730.65	15155.2
792.5605	118.2672	15763.5	15194.4
792.7019	120.5185	15780.25	15209.1
792.8434	122.7693	15794.25	15220.8
792.9849	125.0197	15808.35	15229.15
793.1264	127.2696	15832.2	15252.35
793.2679	129.519	15893.75	15306.9
793.4094	131.7679	15911.45	15324.65
793.551	134.0163	15915.05	15328.05
793.6926	136.2642	15936.7	15342.8
793.8342	138.5117	15975.7	15379.15
793.9758	140.7587	15982.5	15385.8
794.1175	143.0052	15995.5	15395.35
794.2591	145.2512	15976.85	15378.2
794.4008	147.4967	15944.8	15343.75
794.5425	149.7417	15950.3	15344.7
794.6842	151.9863	15924.6	15316.7
794.826	154.2304	15954.05	15342.4
794.9677	156.4739	15916	15296.7
795.1095	158.717	15926.05	15306.7
795.2513	160.9596	15939.3	15317.55
795.3931	163.2017	15960.35	15335.85
795.535	165.4433	15978.3	15350.85
795.6768	167.6844	15954.15	15322.05
795.8187	169.925	15966.7	15336.45
795.9606	172.1651	15907.2	15273.15
796.1025	174.4047	15935.85	15295.8
796.2445	176.6439	15906.5	15266.55
796.3864	178.8825	15907	15264.75
796.5284	181.1206	15958.7	15312.6
796.6704	183.3582	15965.1	15314.35
796.8124	185.5954	15988.8	15335
796.9544	187.832	16005.2	15348.25
797.0965	190.0681	16033.55	15373.35
797.2386	192.3037	16049.25	15386.5
797.3806	194.5388	16045.9	15380.8
797.5228	196.7734	16104.85	15438.75
797.6649	199.0075	16128.95	15459.05
797.807	201.2411	16222.85	15552.7
797.9492	203.4742	16224	15550.4
798.0914	205.7068	16284.9	15605.5
798.2336	207.9389	16313	15634.1
798.3758	210.1704	16348.55	15674.95
798.518	212.4015	16316.95	15654.15
798.6603	214.632	16336.15	15679.95
798.8025	216.862	16361.3	15707.65
798.9448	219.0915	16349.95	15691
799.0871	221.3205	16407.75	15749.7
799.2294	223.549	16450.8	15793.65
799.3718	225.777	16491.45	15834.95
799.5141	228.0044	16525	15862.2
799.6565	230.2314	16526.9	15859.2
799.7989	232.4578	16516.2	15845.45
799.9413	234.6837	16508.5	15828.55
800.0837	236.909	16555	15876.2
800.2262	239.1339	16578.95	15876.15
800.3687	241.3582	16611.6	15922.9
800.5111	243.582	16607.2	15887.7
800.6536	245.8053	16624.65	15918.2
800.7961	248.0281	16613.9	15911.85
800.9387	250.2503	16611.2	15904.4
801.0812	252.472	16649.15	15942.15
801.2238	254.6932	16673.55	15967.05
801.3664	256.9139	16649.05	15941.9
801.509	259.134	16653.75	15941.1
801.6516	261.3536	16684.75	15971.15
801.7942	263.5727	16727.85	16017.2
801.9369	265.7912	16703.85	15992.25
802.0795	268.0092	16748.75	16035.6
802.2222	270.2267	16749.2	16036.35
802.3649	272.4436	16788.45	16075.2
802.5076	274.6601	16812.05	16087.65
802.6504	276.8759	16803.6	16083
802.7931	279.0913	16803.25	16080.15
802.9359	281.3061	16815	16091.25
803.0787	283.5204	16872.5	16145.5
803.2215	285.7341	16867.35	16137.75
803.3643	287.9473	16903.85	16162.2
803.5071	290.16	16906	16173.75
803.6499	292.3721	16866.95	16141.95
803.7928	294.5837	16841.8	16115.6
803.9357	296.7947	16830.75	16102.45
804.0786	299.0052	16820.15	16088.25
804.2215	301.2152	16774.85	16041.5
804.3644	303.4246	16824.55	16093.6
804.5074	305.6334	16806.7	16075.9
804.6503	307.8418	16792.05	16057.9
804.7933	310.0495	16776.85	16040.6
804.9363	312.2568	16730.55	15992.95
805.0793	314.4635	16666.8	15928.7
805.2223	316.6696	16641.45	15898.4
805.3653	318.8752	16599.2	15850.15
805.5084	321.0802	16575.5	15834
805.6514	323.2847	16564.55	15821.85
805.7945	325.4887	16555.5	15814.1
805.9376	327.692	16526.35	15780.3
806.0807	329.8949	16576.5	15828
806.2238	332.0972	16587.35	15839.25
806.367	334.2989	16631.25	15878.75
806.5101	336.5001	16579.55	15828.7
806.6533	338.7007	16578.45	15824.35
806.7965	340.9008	16609.95	15852.95
806.9397	343.1003	16554.6	15794.35
807.0829	345.2992	16550.6	15790.95
807.2261	347.4976	16484.6	15726.45
807.3693	349.6955	16507.2	15742.2
807.5126	351.8927	16514.55	15751.05
807.6559	354.0895	16471.65	15698.15
807.7991	356.2856	16498.2	15731.75
807.9424	358.4812	16459	15693.8
808.0857	360.6763	16487.2	15720.3
808.2291	362.8707	16435.95	15666.8
808.3724	365.0646	16501	15725.4
808.5158	367.258	16432.55	15658.25
808.6591	369.4508	16430.3	15653.3
808.8025	371.643	16431.35	15653.9
808.9459	373.8346	16407.1	15626.6
809.0893	376.0257	16375.5	15591.5
809.2327	378.2162	16371.05	15588.35
809.3762	380.4062	16392.65	15609.6
809.5196	382.5956	16348.95	15567.95
809.6631	384.7844	16322.4	15543.85
809.8066	386.9726	16267.6	15489.95
809.9501	389.1603	16252.6	15478.95
810.0936	391.3474	16255.6	15449.3
810.2371	393.5339	16229.15	15451.55
810.3806	395.7199	16143.95	15370.75
810.5241	397.9052	16163.45	15391.6
810.6677	400.09	16158.3	15384.7
810.8113	402.2743	16159.25	15381.55
810.9548	404.4579	16172.05	15395.2
811.0984	406.641	16230.85	15452.1
811.2421	408.8235	16226.8	15446.4
811.3857	411.0054	16248.9	15465.95
811.5293	413.1868	16348.65	15562.15
811.673	415.3675	16413.6	15622.1
811.8166	417.5477	16379.75	15588.35
811.9603	419.7273	16297.7	15502.65
812.104	421.9064	16206.5	15403.6
812.2477	424.0848	16132.45	15334.35
812.3914	426.2627	16056.5	15259.55
812.5351	428.4399	16024.25	15226.6
812.6788	430.6166	15960.6	15160.05
812.8226	432.7928	15893.95	15091.35
812.9663	434.9683	15869.75	15068.95
813.1101	437.1432	15819.95	15014
813.2539	439.3176	15778.8	14977.85
813.3977	441.4914	15676.85	14879.5
813.5415	443.6645	15675.65	14873.75
813.6853	445.8371	15646.9	14843.5
813.8291	448.0091	15583.5	14781.25
813.973	450.1806	15578.9	14775.4
814.1168	452.3514	15522.1	14713.9
814.2607	454.5216	15523.85	14711.05
814.4046	456.6913	15438.65	14627.75
814.5485	458.8603	15423.9	14616.2
814.6924	461.0288	15424.1	14620.6
814.8363	463.1967	15392.4	14589.45
814.9802	465.3639	15437.4	14630.75
815.1241	467.5306	15373.25	14567.45
815.2681	469.6967	15355.5	14551.75
815.412	471.8622	15276	14470.3
815.556	474.0271	15298	14489.05
815.7	476.1914	15311.05	14499.5
815.844	478.3551	15273.95	14464.8
815.988	480.5182	15298.7	14491.35
816.132	482.6807	15288.85	14479.05
816.276	484.8426	15312.6	14505.75
816.4201	487.0039	15365.85	14555.75
816.5641	489.1647	15357.55	14546.9
816.7082	491.3248	15408.15	14596.45
816.8522	493.4843	15369	14557.3
816.9963	495.6432	15334.15	14520.35
817.1404	497.8015	15286.5	14467.4
817.2845	499.9592	15275.75	14459.25
817.4286	502.1163	15251.35	14432.35
817.5727	504.2728	15192.75	14372.6
817.7168	506.4287	15217.15	14403.15
817.861	508.5839	15164.25	14349.6
818.0051	510.7386	15149.85	14331.45
818.1493	512.8927	15169.4	14349.4
818.2935	515.0461	15154.45	14332.95
818.4377	517.199	15166.3	14345.1
818.5818	519.3512	15168.75	14345.35
818.726	521.5029	15190.5	14362.95
818.8703	523.6539	15171.3	14348.1
819.0145	525.8043	15170.85	14344.6
819.1587	527.9541	15133.4	14310.85
819.303	530.1033	15107.05	14280.6
819.4472	532.2519	15052.95	14225.5
819.5915	534.3999	15027.65	14199.9
819.7357	536.5472	15011.15	14183.95
819.88	538.694	15009.65	14184.85
820.0243	540.8401	15041.75	14214.4
820.1686	542.9856	15040.3	14210.3
820.3129	545.1305	15007.5	14173.45
820.4572	547.2748	15012.85	14174.8
820.6016	549.4185	15005.2	14169.25
820.7459	551.5615	14996	14163.95
820.8902	553.704	14962.6	14125.6
821.0346	555.8458	14964.45	14130.65
821.1789	557.987	14984.55	14152.75
821.3233	560.1276	14963.9	14130.3
821.4677	562.2675	14990.5	14160.1
821.6121	564.4069	14990.95	14158.75
821.7565	566.5456	14986	14152.2
821.9009	568.6837	14991.15	14156.3
822.0453	570.8212	14898.4	14064.7
822.1897	572.958	14843.05	14007.4
822.3342	575.0942	14812.35	13980.25
822.4786	577.2299	14795.2	13961.2
822.6231	579.3648	14682.95	13853.6
822.7675	581.4992	14596.65	13766.3
822.912	583.6329	14566.85	13737.95
823.0565	585.766	14541.55	13713.9
823.201	587.8985	14574.9	13743.8
823.3454	590.0304	14561.25	13713.35
823.4899	592.1616	14526.75	13687.55
823.6345	594.2922	14459.65	13618.65
823.779	596.4222	14455.8	13612.35
823.9235	598.5515	14389.1	13545.25
824.068	600.6802	14366.1	13522.25
824.2126	602.8083	14260.85	13421.1
824.3571	604.9358	14267.15	13425.8
824.5017	607.0626	14235.35	13392.6
824.6462	609.1888	14226.9	13381
824.7908	611.3144	14181.65	13335.15
824.9354	613.4393	14190.5	13343.1
825.08	615.5636	14186.65	13340.3
825.2246	617.6873	14221.9	13375.55
825.3692	619.8103	14240.8	13392.85
825.5138	621.9327	14206.5	13361
825.6584	624.0544	14179.6	13335.15
825.803	626.1756	14139.1	13295.35
825.9477	628.2961	14091.15	13246.65
826.0923	630.4159	14054.65	13204.15
826.237	632.5351	14079.6	13230.7
826.3816	634.6537	14016.15	13166.2
826.5263	636.7716	14018.2	13164.95
826.6709	638.8889	14043.05	13191.2
826.8156	641.0056	14023.4	13171.9
826.9603	643.1216	14017.4	13165.05
827.105	645.237	14042.2	13187.75
827.2497	647.3518	13962.85	13114.15
827.3944	649.4659	13956.35	13108.55
827.5391	651.5793	13944.45	13097.1
827.6838	653.6922	13914.65	13065.65
827.8285	655.8043	13898.3	13051.05
827.9733	657.9159	13866.15	13015.3
828.118	660.0268	13810.25	12957
828.2627	662.137	13801.95	12946.9
828.4075	664.2466	13820.7	12962.65
828.5522	666.3556	13814.6	12959.2
828.697	668.4639	13754.1	12896.75
828.8418	670.5716	13752.15	12901.9
828.9865	672.6786	13716.5	12860.05
829.1313	674.785	13705.95	12848.45
829.2761	676.8907	13646.2	12789
829.4209	678.9958	13689.05	12836.15
829.5657	681.1002	13644.75	12786.7
829.7105	683.204	13608.6	12746
829.8553	685.3072	13584.9	12725.05
830.0001	687.4097	13572.25	12716.8
830.1449	689.5115	13581.4	12721.25
830.2898	691.6127	13559.7	12700.85
830.4346	693.7132	13516.1	12659.45
830.5794	695.8131	13547.2	12674.1
830.7243	697.9123	13557.25	12694.75
830.8691	700.0109	13543.75	12682.35
831.014	702.1089	13504.6	12646.65
831.1588	704.2061	13488.25	12627.2
831.3037	706.3028	13468.7	12606.55
831.4486	708.3987	13479.55	12616.2
831.5935	710.4941	13448	12585.8
831.7383	712.5887	13465.2	12603.9
831.8832	714.6827	13447	12581.5
832.0281	716.7761	13435.75	12574.4
832.173	718.8688	13437.1	12576.25
832.3179	720.9608	13391.8	12523.3
832.4628	723.0522	13394.55	12523.75
832.6077	725.1429	13364	12500.25
832.7527	727.233	13356.15	12490.75
832.8976	729.3224	13385.7	12519.1
833.0425	731.4112	13365.35	12500.2
833.1874	733.4993	13360.75	12490.9
833.3324	735.5867	13324.05	12456.75
833.4773	737.6735	13305.4	12437.05
833.6222	739.7596	13256.05	12388.75
833.7672	741.845	13204.75	12334.95
833.9122	743.9298	13197.8	12326.15
834.0571	746.014	13177	12309.85
834.2021	748.0974	13175.65	12304.1
834.347	750.1802	13159.05	12290.8
834.492	752.2624	13110.65	12240.7
834.637	754.3439	13049.1	12178.1
834.782	756.4247	13011.9	12135.45
834.9269	758.5048	12958.35	12088.7
835.0719	760.5843	12939	12066.6
835.2169	762.6631	12911.4	12043.3
835.3619	764.7413	12905.35	12035.1
835.5069	766.8188	12943.55	12070.8
835.6519	768.8956	12868.45	11996
835.7969	770.9718	12929.8	12058.5
835.9419	773.0473	12885.95	12014.95
836.0869	775.1221	12901.4	12030.25
836.232	777.1962	12794.9	11925
836.377	779.2697	12830.05	11957.45
836.522	781.3426	12846.45	11952.65
836.667	783.4147	12815.15	11943.3
836.8121	785.4862	12789.05	11917.2
836.9571	787.557	12738	11863.8
837.1021	789.6271	12698.4	11826.05
837.2472	791.6966	12638.55	11766.3
837.3922	793.7654	12566.6	11691.15
837.5373	795.8335	12516.85	11645.85
837.6823	797.901	12496.55	11624.85
837.8274	799.9678	12455.8	11577.3
837.9724	802.0339	12459.5	11584
838.1175	804.0993	12427.6	11543.6
838.2626	806.1641	12387.7	11513.45
838.4076	808.2282	12364.5	11488.5
838.5527	810.2916	12351.25	11473.8
838.6978	812.3544	12320.75	11449.15
838.8428	814.4164	12269.6	11397.6
838.9879	816.4778	12297.75	11420
839.133	818.5385	12264.5	11388.4
839.2781	820.5986	12279.8	11402.9
839.4232	822.658	12300.5	11421.15
839.5682	824.7166	12295.75	11421.85
839.7133	826.7747	12321.2	11444.1
839.8584	828.832	12333.65	11456.05
840.0035	830.8886	12289.25	11408.4
840.1486	832.9446	12312.65	11434
840.2937	834.9999	12249.6	11373.4
840.4388	837.0545	12240.05	11358.45
840.5839	839.1085	12187.35	11311.1
840.729	841.1618	12145	11263.6
840.8741	843.2143	12079.75	11204.5
841.0192	845.2662	12041.5	11161.9
841.1643	847.3175	12026	11145.9
841.3095	849.368	11981.7	11106.15
841.4546	851.4179	11989.6	11110.55
841.5997	853.467	11893.8	11017.35
841.7448	855.5155	11917.85	11037.55
841.8899	857.5633	11868.65	10988.75
842.0351	859.6105	11872.85	10992.75
842.1802	861.6569	11826.3	10944.8
842.3253	863.7027	11821.9	10939.95
842.4704	865.7478	11855	10974.25
842.6156	867.7922	11818.9	10938.45
842.7607	869.8359	11773.6	10892.15
842.9058	871.8789	11765.85	10884.75
843.0509	873.9212	11771.4	10857.8
843.1961	875.9629	11722.55	10841.45
843.3412	878.0039	11715.65	10833.7
843.4863	880.0441	11708.1	10830.15
843.6315	882.0837	11718.95	10836.15
843.7766	884.1226	11708.95	10826.45
843.9218	886.1609	11720.9	10841.9
844.0669	888.1984	11736.85	10855.95
844.212	890.2352	11752.65	10870.15
844.3572	892.2714	11719.75	10834.5
844.5023	894.3069	11732.4	10847.45
844.6475	896.3416	11675.8	10793.1
844.7926	898.3757	11625.4	10740.1
844.9377	900.4091	11629.6	10744.5
845.0829	902.4418	11613.8	10726.05
845.228	904.4739	11562.35	10673.15
845.3732	906.5052	11568.15	10683.2
845.5183	908.5358	11542.15	10658.15
845.6635	910.5658	11510.05	10625.75
845.8086	912.595	11471.85	10589.15
845.9538	914.6236	11431.55	10547.1
846.0989	916.6515	11395.55	10512.45
846.2441	918.6786	11365.1	10479.6
846.3892	920.7051	11390.3	10505.05
846.5344	922.7309	11383.75	10497.75
846.6795	924.756	11347.05	10460.85
846.8246	926.7804	11333.2	10445.35
846.9698	928.8041	11251.3	10363.3
847.1149	930.8272	11274.4	10389.75
847.2601	932.8495	11224.3	10338.25
847.4052	934.8711	11211.55	10324.5
847.5504	936.892	11165.75	10278.05
847.6955	938.9123	11155.35	10268.95
847.8407	940.9318	11149.65	10261.65
847.9858	942.9506	11079.65	10190.65
848.131	944.9688	11054.9	10166.8
848.2761	946.9862	11040.8	10152.7
848.4213	949.003	10988.3	10101.15
848.5664	951.019	10940.85	10051.15
848.7115	953.0344	10926	10038.5
848.8567	955.0491	10884.7	9998.5
849.0018	957.063	10886.3	9997.2
849.147	959.0763	10893.55	10008.3
849.2921	961.0888	10834.05	9946.55
849.4373	963.1007	10837.15	9950.35
849.5824	965.1119	10826.1	9939.15
849.7275	967.1223	10801.35	9916.3
849.8727	969.1321	10798.2	9916.45
850.0178	971.1412	10779.25	9892.95
850.1629	973.1495	10767.35	9881.5
850.3081	975.1572	10758.75	9825.15
850.4532	977.1641	10748.5	9860.45
850.5983	979.1704	10680.8	9791.55
850.7435	981.1759	10659.8	9766.95
850.8886	983.1808	10662.15	9772.65
851.0337	985.1849	10650.8	9752.55
851.1788	987.1884	10593.2	9703.85
851.324	989.1911	10583.3	9693.3
851.4691	991.1932	10587.1	9695.6
851.6142	993.1945	10527.8	9639.75
851.7593	995.1951	10466.65	9578
851.9045	997.1951	10472.5	9578.7
852.0496	999.1943	10424.05	9535.9
852.1947	1001.1928	10379.65	9490.45
852.3398	1003.1906	10342.3	9453.4
852.4849	1005.1877	10357.8	9467.9
852.63	1007.1841	10306.75	9415.2
852.7751	1009.1798	10284.2	9393.1
852.9202	1011.1748	10244.9	9356.7
853.0653	1013.1691	10200.75	9310.45
853.2104	1015.1627	10167.2	9279.75
853.3555	1017.1556	10087.25	9198.1
853.5006	1019.1477	10037.15	9145.3
853.6457	1021.1392	10035.05	9148.15
853.7908	1023.1299	9987.75	9100.8
853.9359	1025.12	9976.85	9091.5
854.081	1027.1093	9903	9021
854.2261	1029.0979	9892.4	9009.5
854.3712	1031.0859	9869.95	8985.2
854.5163	1033.0731	9831.8	8942.85
854.6613	1035.0596	9800.8	8912.3
854.8064	1037.0454	9738.7	8850.05
854.9515	1039.0304	9746.75	8859.25
855.0965	1041.0148	9701.3	8809
855.2416	1042.9985	9676	8784.6
855.3867	1044.9814	9658.15	8768
855.5317	1046.9636	9610.5	8718.45
855.6768	1048.9452	9568.75	8681.4
855.8219	1050.926	9579.95	8691
855.9669	1052.9061	9543	8653.05
856.112	1054.8855	9523.85	8631.75
856.257	1056.8642	9500.55	8609.7
856.4021	1058.8421	9505.75	8613
856.5471	1060.8194	9481.8	8589.65
856.6921	1062.7959	9446.25	8556.55
856.8372	1064.7717	9443.85	8552.8
856.9822	1066.7469	9422.15	8530.55
857.1272	1068.7213	9416.3	8523.2
857.2723	1070.695	9388.4	8498.95
857.4173	1072.6679	9351.9	8458
857.5623	1074.6402	9346.4	8454.6
857.7073	1076.6117	9343.4	8446.65
857.8523	1078.5826	9338.65	8446.95
857.9973	1080.5527	9282.05	8389.4
858.1423	1082.5221	9246.05	8354.15
858.2873	1084.4908	9218.05	8328.85
858.4323	1086.4587	9202.25	8310.8
858.5773	1088.426	9185.2	8289.25
858.7223	1090.3925	9171.6	8275.9
858.8673	1092.3584	9141.7	8250.25
859.0123	1094.3235	9122.4	8230.75
859.1573	1096.2879	9110.7	8219.7
859.3022	1098.2515	9101.35	8209.4
859.4472	1100.2145	9090.7	8199.9
859.5922	1102.1767	9070.95	8177.2
859.7371	1104.1382	9067.85	8175.15
859.8821	1106.099	9081.75	8187.45
860.027	1108.0591	9064.1	8170.8
860.172	1110.0185	9074	8180.35
860.3169	1111.9771	9087.2	8196.3
860.4619	1113.9351	9075.2	8183.05
860.6068	1115.8923	9048.1	8154.95
860.7517	1117.8488	9048.1	8156.05
860.8967	1119.8045	8996.7	8104.8
861.0416	1121.7596	8937.45	8047.65
861.1865	1123.7139	8882.15	7992
861.3314	1125.6675	8845.5	7954.3
861.4763	1127.6204	8840.6	7948.9
861.6212	1129.5726	8819.6	7922.95
861.7661	1131.524	8799.05	7906.8
861.911	1133.4748	8768.65	7875.75
862.0559	1135.4248	8717.6	7823.6
862.2008	1137.3741	8701.4	7808.1
862.3457	1139.3226	8626.65	7733.1
862.4905	1141.2705	8657.8	7765.45
862.6354	1143.2176	8626.05	7729.25
862.7803	1145.164	8616.6	7723.85
862.9251	1147.1097	8601.45	7709.35
863.07	1149.0546	8579.3	7684.95
863.2148	1150.9989	8569.5	7676.05
863.3597	1152.9424	8551.15	7657.2
863.5045	1154.8852	8525.4	7633.45
863.6493	1156.8272	8533.95	7642.2
863.7942	1158.7686	8530	7628.4
863.939	1160.7092	8475.7	7580.9
864.0838	1162.6491	8440.9	7544.7
864.2286	1164.5883	8454.45	7560.95
864.3734	1166.5267	8456.95	7561.35
864.5182	1168.4644	8433.4	7541.1
864.663	1170.4014	8421.8	7524.15
864.8078	1172.3377	8431.3	7539.5
864.9526	1174.2732	8457.65	7565.5
865.0974	1176.2081	8488.7	7595.7
865.2421	1178.1421	8523.4	7626.75
865.3869	1180.0755	8571.1	7678.95
865.5317	1182.0082	8542.9	7649
865.6764	1183.9401	8530.2	7637.8
865.8212	1185.8713	8467.35	7574.95
865.9659	1187.8017	8394.75	7504.35
866.1106	1189.7315	8353.05	7467.1
866.2554	1191.6605	8295.4	7405.35
866.4001	1193.5888	8207.95	7321.6
866.5448	1195.5163	8188.85	7297.7
866.6895	1197.4432	8167.05	7278.05
866.8342	1199.3693	8129	7235.8
866.9789	1201.2947	8080.95	7180.55
867.1236	1203.2193	8069.1	7173.05
867.2683	1205.1432	8084.9	7191.65
867.413	1207.0664	8024.95	7131.7
867.5576	1208.9889	8030.9	7135.85
867.7023	1210.9106	7979.8	7087.05
867.847	1212.8316	7935.05	7043.9
867.9916	1214.7519	7928.7	7027.65
868.1363	1216.6715	7906.05	7014
868.2809	1218.5903	7883.5	6991.7
868.4255	1220.5084	7904.8	7010.2
868.5701	1222.4257	7898.95	7006.4
868.7148	1224.3424	7855.1	6964.85
868.8594	1226.2583	7877.6	6983.65
869.004	1228.1735	7864.35	6971.55
869.1486	1230.0879	7832	6938.45
869.2932	1232.0016	7831.95	6939.2
869.4377	1233.9146	7828.7	6933.3
869.5823	1235.8269	7812.6	6920.15
869.7269	1237.7384	7825.3	6932.9
869.8715	1239.6492	7800.3	6906.35
870.016	1241.5592	7819.5	6926.3
870.1606	1243.4686	7814.7	6919.45
870.3051	1245.3772	7823.4	6932
870.4496	1247.285	7835.4	6941.5
870.5941	1249.1922	7857	6963.8
870.7387	1251.0986	7889	6996.9
870.8832	1253.0042	7883.9	6991.55
871.0277	1254.9092	7899.05	7005.2
871.1722	1256.8134	7923.6	7032.1
871.3167	1258.7169	7960.7	7065.45
871.4611	1260.6196	7934.2	7039.65
871.6056	1262.5216	7960	7065.05
871.7501	1264.4229	7900.2	7007.75
871.8945	1266.3234	7916.7	7024.45
872.039	1268.2232	7882.05	6988.1
872.1834	1270.1223	7842.2	6949.25
872.3278	1272.0207	7821	6927.5
872.4723	1273.9183	7772.75	6872.2
872.6167	1275.8151	7775.95	6883.3
872.7611	1277.7113	7774.85	6881.85
872.9055	1279.6067	7803	6909.65
873.0499	1281.5014	7849.85	6952.6
873.1943	1283.3953	7909.65	7013.8
873.3386	1285.2885	7996.5	7103.5
873.483	1287.181	8041.65	7148.6
873.6274	1289.0727	8071	7179.3
873.7717	1290.9637	8041.95	7148.45
873.9161	1292.854	8038.35	7146.65
874.0604	1294.7435	7932.95	7038.15
874.2047	1296.6323	7888.95	6994.25
874.349	1298.5204	7854.6	6956.2
874.4933	1300.4077	7811.2	6915.65
874.6376	1302.2943	7753.9	6860.05
874.7819	1304.1802	7741.45	6846.6
874.9262	1306.0653	7715.15	6817.85
875.0705	1307.9497	7706.3	6812.65
875.2147	1309.8333	7645	6750.15
875.359	1311.7162	7630.1	6736.65
875.5032	1313.5984	7621.55	6723.85
875.6475	1315.4798	7586.45	6689.95
875.7917	1317.3605	7587	6676.05
875.9359	1319.2405	7554.6	6659.1
876.0801	1321.1197	7550.5	6652.75
876.2243	1322.9982	7505.4	6607.3
876.3685	1324.876	7451.15	6557.25
876.5127	1326.753	7411.05	6516.1
876.6569	1328.6293	7357.15	6460.7
876.801	1330.5048	7354.6	6459.55
876.9452	1332.3796	7255.25	6362.1
877.0893	1334.2537	7256.2	6335.85
877.2335	1336.127	7220.2	6326.9
877.3776	1337.9996	7183.2	6290.25
877.5217	1339.8714	7182.3	6286.55
877.6658	1341.7426	7182.55	6244.85
877.8099	1343.6129	7133.85	6238.25
877.954	1345.4826	7119.7	6225.05
878.0981	1347.3515	7100.45	6204.1
878.2422	1349.2196	7098.1	6202.25
878.3862	1351.087	7078	6182.3
878.5303	1352.9537	7062.65	6165.75
878.6743	1354.8197	7076.75	6181.15
878.8184	1356.6849	7079.05	6184.9
878.9624	1358.5493	7060.05	6163.55
879.1064	1360.4131	7067.85	6174.8
879.2504	1362.276	7051.15	6157.45
879.3944	1364.1383	7068.05	6172
879.5384	1365.9998	7064.7	6165.8
879.6823	1367.8606	7055.7	6158
879.8263	1369.7206	7016	6118.5
879.9702	1371.5799	6984.3	6086.05
880.1142	1373.4384	6973.7	6079.5
880.2581	1375.2962	6956	6059.75
880.402	1377.1533	6894.55	6001.7
880.5459	1379.0096	6861.4	5967.85
880.6898	1380.8652	6831.4	5937.55
880.8337	1382.7201	6813.2	5918.55
880.9776	1384.5742	6747.95	5853.5
881.1215	1386.4275	6717.75	5822.6
881.2653	1388.2802	6679.95	5784.35
881.4092	1390.132	6682.2	5786.9
881.553	1391.9832	6658.5	5759.55
881.6968	1393.8336	6613.8	5718.6
881.8406	1395.6832	6595.6	5700.35
881.9844	1397.5322	6589.85	5696.05
882.1282	1399.3803	6557.35	5658.75
882.272	1401.2278	6529.7	5634.65
882.4158	1403.0745	6511.2	5616.1
882.5595	1404.9204	6465.95	5572.55
882.7033	1406.7656	6452.15	5557.35
882.847	1408.6101	6444.45	5549.1
882.9908	1410.4538	6420.05	5525.45
883.1345	1412.2968	6398.9	5504.65
883.2782	1414.139	6370.1	5476.05
883.4219	1415.9805	6380.45	5487.6
883.5656	1417.8213	6344.9	5444.9
883.7092	1419.6613	6326.25	5433.85
883.8529	1421.5006	6343.65	5447.15
883.9965	1423.3391	6352.95	5456.5
884.1402	1425.1769	6348.55	5452.45
884.2838	1427.0139	6375.35	5479.15
884.4274	1428.8502	6396.45	5499.45
884.571	1430.6858	6408.8	5512.7
884.7146	1432.5206	6400.7	5507
884.8582	1434.3547	6387.2	5491.4
885.0018	1436.188	6381.55	5487.3
885.1453	1438.0206	6365.8	5469.7
885.2889	1439.8524	6347.5	5453.85
885.4324	1441.6835	6357.55	5462.2
885.5759	1443.5139	6319	5422.65
885.7194	1445.3435	6295.3	5401.8
885.8629	1447.1724	6323.25	5429.55
886.0064	1449.0005	6297.5	5402.35
886.1499	1450.8279	6275.2	5381
886.2933	1452.6545	6266.65	5372.1
886.4368	1454.4804	6283.3	5392.1
886.5802	1456.3056	6255.5	5355.7
886.7237	1458.13	6227.5	5336.25
886.8671	1459.9536	6208.85	5316
887.0105	1461.7766	6191.6	5295.75
887.1539	1463.5987	6160.55	5266.05
887.2972	1465.4202	6121.3	5227
887.4406	1467.2409	6093.05	5198.95
887.584	1469.0608	6073.8	5179.7
887.7273	1470.88	6048.1	5154.25
887.8706	1472.6984	6031.3	5138.9
888.0139	1474.5161	5997.25	5101.55
888.1572	1476.3331	5997.7	5104.8
888.3005	1478.1493	5979.45	5084.35
888.4438	1479.9648	5947	5053.65
888.5871	1481.7795	5945.8	5051.35
888.7303	1483.5935	5953.8	5058.9
888.8736	1485.4067	5921.45	5024.45
889.0168	1487.2192	5936.45	5041.7
889.16	1489.031	5908.75	5013.35
889.3032	1490.842	5889.5	4995.8
889.4464	1492.6522	5867.75	4973.85
889.5896	1494.4618	5873.2	4978.2
889.7327	1496.2705	5855.35	4961.65
889.8759	1498.0785	5847.1	4952.2
890.019	1499.8858	5822.45	4928.3
890.1622	1501.6924	5799.25	4906.2
890.3053	1503.4981	5792.95	4899
890.4484	1505.3032	5790	4896.75
890.5914	1507.1075	5770.45	4876.25
890.7345	1508.911	5768.95	4874.85
890.8776	1510.7138	5748.75	4854.7
891.0206	1512.5159	5702.6	4807.85
891.1637	1514.3172	5693.45	4800.7
891.3067	1516.1178	5683.15	4790.55
891.4497	1517.9176	5682.55	4788.1
891.5927	1519.7166	5644.7	4752.3
891.7357	1521.515	5630.2	4730.4
891.8786	1523.3126	5621.65	4729.35
892.0216	1525.1094	5600.4	4706.3
892.1645	1526.9055	5571.2	4678.7
892.3074	1528.7008	5567.45	4676.1
892.4503	1530.4954	5519.5	4628.05
892.5932	1532.2893	5500.15	4610
892.7361	1534.0824	5480.6	4585.95
892.879	1535.8747	5480.6	4590.55
893.0218	1537.6663	5459.7	4569
893.1647	1539.4572	5439.9	4545.4
893.3075	1541.2473	5436.55	4541.9
893.4503	1543.0367	5411.55	4520.85
893.5931	1544.8253	5404.5	4508.65
893.7359	1546.6132	5389.35	4495.1
893.8787	1548.4003	5376.95	4475.1
894.0214	1550.1867	5370.75	4471.5
894.1642	1551.9723	5325.7	4430.25
894.3069	1553.7572	5345.65	4450.85
894.4496	1555.5414	5328.5	4439.4
894.5923	1557.3247	5336.7	4447.3
894.735	1559.1074	5327.45	4437.9
894.8777	1560.8893	5329.9	4439.4
895.0204	1562.6705	5325.85	4436.4
895.163	1564.4509	5340	4451.35
895.3056	1566.2305	5302.3	4414.45
895.4482	1568.0094	5300.7	4412.3
895.5908	1569.7876	5296.35	4407.25
895.7334	1571.565	5291.65	4402.4
895.876	1573.3417	5278.8	4388.4
896.0186	1575.1176	5254.85	4365.2
896.1611	1576.8928	5251.25	4361.15
896.3036	1578.6672	5242.65	4356.4
896.4461	1580.4409	5229.95	4343.85
896.5886	1582.2138	5226.9	4337.7
896.7311	1583.986	5225.2	4336.8
896.8736	1585.7575	5247.5	4358.15
897.0161	1587.5282	5258.7	4372.3
897.1585	1589.2981	5248.7	4364.8
897.3009	1591.0673	5240.15	4352.05
897.4433	1592.8358	5241.5	4355.75
897.5857	1594.6035	5219.3	4329.15
897.7281	1596.3704	5189.55	4300.65
897.8705	1598.1366	5171.05	4282.15
898.0128	1599.9021	5153.75	4266.2
898.1551	1601.6668	5114.2	4223.05
898.2975	1603.4308	5095.45	4205.85
898.4398	1605.194	5071	4177.95
898.5821	1606.9564	5076.95	4191.75
898.7243	1608.7182	5102.7	4215.5
898.8666	1610.4791	5114	4231.7
899.0088	1612.2394	5147.2	4263.75
899.1511	1613.9988	5167.25	4282.1
899.2933	1615.7576	5209.5	4323.6
899.4355	1617.5156	5232.7	4338.95
899.5776	1619.2728	5195.6	4308.3
899.7198	1621.0293	5137.2	4247.85
899.862	1622.785	5068.95	4177.75
900.0041	1624.54	4979.95	4090.55
900.1462	1626.2942	4929.5	4043.3
900.2883	1628.0477	4850.1	3962.6
900.4304	1629.8005	4783.25	3893.3
900.5725	1631.5525	4747.3	3861.1
900.7145	1633.3037	4708.6	3822.65
900.8566	1635.0542	4687.1	3800.9
900.9986	1636.804	4647.5	3761.95
901.1406	1638.553	4697.6	3728.05
901.2826	1640.3013	4617.15	3729.8
901.4245	1642.0488	4554.05	3666.1
901.5665	1643.7955	4542.25	3656.2
901.7085	1645.5416	4536.8	3654.05
901.8504	1647.2868	4522.7	3637.9
901.9923	1649.0313	4506.4	3620.15
902.1342	1650.7751	4500.35	3612.55
902.2761	1652.5181	4496.65	3611.4
902.4179	1654.2604	4457.4	3571.2
902.5598	1656.0019	4456.5	3571.5
902.7016	1657.7427	4455.9	3569.25
902.8434	1659.4828	4441.7	3557.1
902.9852	1661.222	4445.25	3558.25
903.127	1662.9606	4450.15	3562.65
903.2687	1664.6984	4455.2	3568.5
903.4105	1666.4354	4461.15	3572.05
903.5522	1668.1717	4407.5	3520.55
903.6939	1669.9072	4389.1	3502.75
903.8356	1671.642	4352.8	3463
903.9773	1673.3761	4327.95	3441.6
904.119	1675.1094	4302.4	3415.3
904.2606	1676.8419	4268.2	3382.3
904.4022	1678.5737	4244.25	3357.05
904.5439	1680.3048	4231.4	3343.1
904.6855	1682.0351	4206.15	3317.75
904.827	1683.7646	4176.2	3284.55
904.9686	1685.4934	4167.55	3280.15
905.1101	1687.2215	4151.45	3264.15
905.2517	1688.9488	4123.25	3236.25
905.3932	1690.6754	4119.3	3233.2
905.5347	1692.4012	4109.15	3221.75
905.6761	1694.1263	4089.3	3201.3
905.8176	1695.8506	4082.9	3194.85
905.9591	1697.5742	4047.3	3160.2
906.1005	1699.297	4039.65	3153.95
906.2419	1701.0191	4023.35	3137.5
906.3833	1702.7404	4013.6	3128.1
906.5246	1704.461	3999.25	3111.4
906.666	1706.1808	3976.55	3086.85
906.8073	1707.8999	3974.65	3089.15
906.9487	1709.6182	3957.05	3070.75
907.09	1711.3358	3953.2	3070.05
907.2313	1713.0527	3938	3055.2
907.3725	1714.7688	3921.35	3031.75
907.5138	1716.4841	3913.55	3028.7
907.655	1718.1987	3902.25	3011.95
907.7962	1719.9126	3887.8	3006.9
907.9374	1721.6257	3878.3	2990.75
908.0786	1723.338	3877.4	2989.2
908.2198	1725.0496	3861.45	2974.55
908.3609	1726.7605	3856.25	2970.5
908.502	1728.4706	3851	2966.05
908.6431	1730.18	3839.65	2952.85
908.7842	1731.8886	3831.75	2948.75
908.9253	1733.5964	3828.85	2939.7
909.0664	1735.3036	3823.6	2937.05
909.2074	1737.0099	3812.85	2928.05
909.3484	1738.7156	3813.5	2930.4
909.4894	1740.4204	3820.8	2933.1
909.6304	1742.1246	3799.65	2912.85
909.7714	1743.8279	3791.8	2907.3
909.9123	1745.5306	3784.25	2897.4
910.0532	1747.2325	3770.5	2886.85
910.1941	1748.9336	3759.25	2874
910.335	1750.634	3759.45	2873
910.4759	1752.3336	3749	2864.35
910.6168	1754.0325	3758.35	2875.55
910.7576	1755.7307	3745.75	2862.05
910.8984	1757.4281	3746.35	2859.25
911.0392	1759.1247	3748.5	2856.55
911.18	1760.8206	3733.25	2840.6
911.3208	1762.5158	3738.9	2848.4
911.4615	1764.2102	3708.05	2824.15
911.6022	1765.9039	3707.9	2824.6
911.7429	1767.5968	3717.95	2834.05
911.8836	1769.289	3709.3	2824.35
912.0243	1770.9804	3686.5	2798.7
912.1649	1772.6711	3680.3	2792.4
912.3056	1774.361	3678.65	2792.45
912.4462	1776.0502	3672.6	2788
912.5868	1777.7386	3663.4	2773.65
912.7274	1779.4263	3675.2	2792.45
912.8679	1781.1132	3656.55	2775.7
913.0084	1782.7994	3645	2760.25
913.149	1784.4849	3642.6	2760.3
913.2895	1786.1696	3654.85	2753.25
913.4299	1787.8535	3640.25	2757.8
913.5704	1789.5367	3609.05	2724.45
913.7108	1791.2192	3616.05	2730.7
913.8513	1792.9009	3622.6	2709.3
913.9917	1794.5818	3607.45	2723.15
914.132	1796.2621	3592.1	2707.45
914.2724	1797.9415	3571.3	2687.65
914.4128	1799.6202	3565.1	2678.15
914.5531	1801.2982	3561.35	2676.05
914.6934	1802.9755	3559.5	2672.3
914.8337	1804.6519	3561	2675.1
914.9739	1806.3277	3538.8	2653.7
915.1142	1808.0027	3540.65	2655.8
915.2544	1809.6769	3518.1	2636.6
915.3946	1811.3504	3496.1	2610.2
915.5348	1813.0231	3500.7	2616.4
915.675	1814.6951	3508.8	2626.65
915.8151	1816.3664	3509.25	2621.4
915.9553	1818.0369	3513.05	2627.6
916.0954	1819.7067	3483.35	2599.8
916.2355	1821.3757	3494.35	2608.9
916.3755	1823.044	3482.75	2598.65
916.5156	1824.7115	3460.6	2574.65
916.6556	1826.3783	3456.8	2573.85
916.7956	1828.0443	3435	2551.4
916.9356	1829.7096	3467.35	2578.55
917.0756	1831.3741	3448.6	2562.3
917.2155	1833.0379	3437.7	2554.15
917.3555	1834.701	3433.2	2548.7
917.4954	1836.3633	3430.6	2547.5
917.6353	1838.0248	3421.65	2536.7
917.7751	1839.6856	3419.05	2535.5
917.915	1841.3457	3409.6	2526.85
918.0548	1843.005	3399.3	2514.95
918.1946	1844.6636	3406.15	2521.9
918.3344	1846.3214	3383.3	2497.7
918.4742	1847.9785	3380.15	2495.2
918.6139	1849.6349	3379.2	2493.45
918.7537	1851.2904	3385.9	2493.7
918.8934	1852.9453	3361.7	2475.6
919.0331	1854.5994	3356.8	2469.85
919.1727	1856.2528	3365.1	2475.35
919.3124	1857.9054	3356	2470.15
919.452	1859.5572	3342.45	2457.4
919.5916	1861.2083	3335.4	2452.2
919.7312	1862.8587	3338.4	2452.8
919.8708	1864.5084	3328	2444
920.0103	1866.1572	3329.6	2443.2
920.1498	1867.8054	3313.25	2427.9
920.2893	1869.4528	3316.75	2432.55
920.4288	1871.0994	3304.15	2416.9
920.5683	1872.7453	3307.9	2421.8
920.7077	1874.3905	3299.7	2406.95
920.8471	1876.0349	3283.15	2398.45
920.9865	1877.6786	3287.95	2401.2
921.1259	1879.3215	3263.75	2378.85
921.2653	1880.9637	3273.8	2386.9
921.4046	1882.6051	3268.05	2383.55
921.5439	1884.2458	3267.6	2381
921.6832	1885.8858	3256.85	2371.8
921.8225	1887.525	3242.15	2357.55
921.9617	1889.1634	3235.65	2348.55
922.101	1890.8011	3224.35	2341.35
922.2402	1892.4381	3226.2	2340.35
922.3794	1894.0743	3227.25	2342.3
922.5185	1895.7098	3204.55	2316.6
922.6577	1897.3446	3209.9	2323.2
922.7968	1898.9786	3211.35	2323.15
922.9359	1900.6118	3209.9	2324.85
923.075	1902.2443	3188.75	2300.8
923.214	1903.8761	3193.85	2308.05
923.3531	1905.5071	3178.85	2291
923.4921	1907.1374	3166.45	2281.55
923.6311	1908.7669	3170.3	2285
923.77	1910.3957	3162.2	2278.05
923.909	1912.0237	3152.25	2269.15
924.0479	1913.651	3155.2	2269.45
924.1868	1915.2776	3126.4	2244.7
924.3257	1916.9034	3127.4	2244.8
924.4646	1918.5285	3118.9	2234.7
924.6034	1920.1528	3112.5	2225.8
924.7422	1921.7764	3100.45	2218.05
924.881	1923.3992	3089.5	2205.45
925.0198	1925.0213	3077.9	2194.1
925.1586	1926.6427	3073.05	2189.5
925.2973	1928.2633	3288.1	2157
925.436	1929.8832	3105.8	2216.55
925.5747	1931.5023	3053.9	2170.65
925.7134	1933.1207	3050.15	2165.6
925.852	1934.7383	3051.8	2168.65
925.9906	1936.3552	3060.1	2173.8
926.1292	1937.9714	3031.4	2147.5
926.2678	1939.5868	3032.05	2144.05
926.4064	1941.2015	3017.85	2130.2
926.5449	1942.8154	3015.6	2129.65
926.6834	1944.4286	3004	2118.3
926.8219	1946.041	3014.55	2108.75
926.9604	1947.6528	2990.6	2101.2
927.0988	1949.2637	2986.05	2100.75
927.2372	1950.8739	2984.15	2099.15
927.3756	1952.4834	2976.75	2092.85
927.514	1954.0921	2977.6	2093.35
927.6523	1955.7001	2978	2088.1
927.7907	1957.3074	2966.2	2083.15
927.929	1958.9139	2958.3	2076.05
928.0673	1960.5197	2950.3	2065.95
928.2055	1962.1247	2936.35	2052
928.3438	1963.729	2934.95	2051.35
928.482	1965.3325	2942.45	2034.3
928.6202	1966.9353	2908.55	2026.9
928.7584	1968.5374	2898.4	2015.9
928.8965	1970.1387	2908.3	2026.9
929.0346	1971.7393	2914.2	2029.95
929.1727	1973.3392	2890.15	2007.05
929.3108	1974.9383	2892.45	2012.1
929.4489	1976.5366	2882.95	2001.15
929.5869	1978.1342	2881.95	1997.35
929.7249	1979.7311	2865.85	1982.9
929.8629	1981.3273	2867.2	1982.8
930.0009	1982.9227	2862.9	1977
930.1388	1984.5173	2848.15	1966.35
930.2767	1986.1112	2861.1	1978.6
930.4146	1987.7044	2837.55	1956
930.5525	1989.2968	2836.15	1953.9
930.6904	1990.8885	2845.5	1958.25
930.8282	1992.4795	2849.15	1965.95
930.966	1994.0697	2833.8	1952.85
931.1038	1995.6592	2829.85	1948.2
931.2415	1997.2479	2820.25	1935.6
931.3793	1998.8359	2820.3	1938.95
931.517	2000.4232	2812.2	1933.45
931.6547	2002.0097	2811.6	1930.5
931.7923	2003.5955	2797.15	1916.15
931.93	2005.1805	2794.9	1913.4
932.0676	2006.7648	2791.35	1909.7
932.2052	2008.3484	2773.3	1891.5
932.3427	2009.9312	2801.5	1919.65
932.4803	2011.5133	2769.85	1890.25
932.6178	2013.0946	2774.3	1893.95
932.7553	2014.6752	2771.2	1891.55
932.8928	2016.2551	2774.35	1894.2
933.0302	2017.8342	2752.6	1871.35
933.1676	2019.4126	2757.1	1876.7
933.305	2020.9902	2748.6	1869.8
933.4424	2022.5672	2746.15	1864.7
933.5798	2024.1433	2749.45	1864.8
933.7171	2025.7188	2735.7	1857.95
933.8544	2027.2935	2727.55	1846.15
933.9917	2028.8674	2714.85	1834.55
934.129	2030.4406	2720.5	1840.45
934.2662	2032.0131	2712.5	1835.4
934.4034	2033.5849	2717.3	1829.85
934.5406	2035.1559	2709.45	1829.5
934.6778	2036.7261	2711.15	1830.8
934.8149	2038.2957	2695.6	1814.2
934.952	2039.8645	2704.6	1822.05
935.0891	2041.4325	2697.8	1812.65
935.2262	2042.9998	2700.4	1821.6
935.3632	2044.5664	2681.9	1799.7
935.5002	2046.1323	2686.85	1806.25
935.6372	2047.6974	2691.15	1810.1
935.7742	2049.2617	2674.2	1794.15
935.9111	2050.8254	2695.9	1810.95
936.048	2052.3883	2689.5	1808.2
936.1849	2053.9504	2673.1	1790.35
936.3218	2055.5118	2679.85	1797.7
936.4586	2057.0725	2663.75	1779.05
936.5955	2058.6325	2656.75	1776.9
936.7323	2060.1917	2662.2	1782.9
936.869	2061.7502	2655.7	1772
937.0058	2063.3079	2653.25	1773.5
937.1425	2064.8649	2648.2	1763.4
937.2792	2066.4212	2654.8	1773.85
937.4159	2067.9767	2639.15	1759.3
937.5525	2069.5315	2625.15	1743.5
937.6891	2071.0856	2634.4	1753.6
937.8257	2072.6389	2624	1741.45
937.9623	2074.1915	2622.1	1743.1
938.0989	2075.7433	2608.2	1727.9
938.2354	2077.2945	2601.85	1722.9
938.3719	2078.8448	2596.3	1713.65
938.5084	2080.3945	2599.65	1717.8
938.6448	2081.9434	2603.55	1722.35
938.7812	2083.4916	2598.8	1717.8
938.9176	2085.039	2592.75	1709.15
939.054	2086.5857	2587.1	1701.85
939.1903	2088.1317	2593.05	1708.9
939.3267	2089.677	2580	1696.05
939.463	2091.2215	2577.7	1694.55
939.5992	2092.7652	2583.25	1698.55
939.7355	2094.3083	2571.7	1688.4
939.8717	2095.8506	2568.95	1687.25
940.0079	2097.3921	2577.3	1696.3
940.1441	2098.933	2564.15	1684.1
940.2802	2100.4731	2566.2	1687.55
940.4163	2102.0124	2577.25	1677.15
940.5524	2103.5511	2561.5	1678.45
940.6885	2105.089	2560.25	1677.85
940.8245	2106.6261	2548.3	1666.55
940.9606	2108.1626	2556.8	1674.55
941.0965	2109.6983	2583.65	1673.1
941.2325	2111.2332	2553.85	1673.1
941.3684	2112.7675	2539.4	1657.25
941.5044	2114.301	2523.55	1638.6
941.6403	2115.8337	2548.7	1663.8
941.7761	2117.3657	2532.35	1650.65
941.912	2118.897	2534.1	1651.25
942.0478	2120.4276	2528.55	1639.05
942.1835	2121.9575	2515.1	1633.25
942.3193	2123.4866	2535	1639.6
942.455	2125.0149	2522.15	1637.75
942.5907	2126.5426	2519.55	1639.7
942.7264	2128.0695	2502.5	1617.65
942.8621	2129.5956	2509.95	1631.65
942.9977	2131.1211	2506.55	1620.75
943.1333	2132.6458	2508.25	1628.95
943.2689	2134.1698	2497.95	1616.45
943.4044	2135.693	2485.15	1598.65
943.54	2137.2155	2486.45	1603.2
943.6755	2138.7373	2486.9	1605.55
943.8109	2140.2584	2491.55	1609.4
943.9464	2141.7787	2483.7	1598.3
944.0818	2143.2983	2471.8	1592.9
944.2172	2144.8171	2475.4	1597.55
944.3526	2146.3353	2469.75	1588.7
944.4879	2147.8527	2459.2	1579.75
944.6232	2149.3693	2445.5	1564.75
944.7585	2150.8853	2453.05	1568.9
944.8938	2152.4005	2442.05	1561
945.029	2153.9149	2443.45	1561.35
945.1642	2155.4287	2430.75	1546.45
945.2994	2156.9417	2430.65	1549.2
945.4346	2158.454	2437.65	1553.6
945.5697	2159.9655	2435	1555.9
945.7048	2161.4764	2430.15	1550.65
945.8399	2162.9865	2415	1533.95
945.9749	2164.4958	2423.7	1542.45
946.1099	2166.0045	2418.55	1533.25
946.2449	2167.5124	2412.45	1532.5
946.3799	2169.0195	2415.15	1534.7
946.5148	2170.526	2396.95	1512.5
946.6498	2172.0317	2401.45	1518.25
946.7846	2173.5367	2399.35	1516.55
946.9195	2175.0409	2390.4	1508.7
947.0543	2176.5445	2399.45	1518.15
947.1891	2178.0473	2388.35	1506.05
947.3239	2179.5494	2389.55	1504.4
947.4587	2181.0507	2386	1504.15
947.5934	2182.5513	2374.95	1491.8
947.7281	2184.0512	2373.3	1492.3
947.8628	2185.5504	2371.35	1488.35
947.9974	2187.0488	2375.95	1496.8
948.132	2188.5465	2363.2	1482.8
948.2666	2190.0435	2338.35	1454.75
948.4012	2191.5397	2348.95	1468.2
948.5357	2193.0353	2336.5	1453.6
948.6702	2194.5301	2346.3	1465
948.8047	2196.0241	2337.15	1454.55
948.9392	2197.5175	2334.4	1453.55
949.0736	2199.0101	2322.05	1435.2
949.208	2200.502	2317.4	1438.3
949.3424	2201.9931	2312.55	1431
949.4767	2203.4835	2312.75	1430.2
949.611	2204.9733	2311.35	1424.45
949.7453	2206.4622	2308.25	1430.15
949.8796	2207.9505	2303.75	1419.15
950.0138	2209.438	2292.45	1413.35
950.148	2210.9248	2291.05	1408.75
950.2822	2212.4109	2287.95	1406.4
950.4164	2213.8962	2287.35	1403.15
950.5505	2215.3809	2282.45	1399.6
950.6846	2216.8648	2276.05	1392.2
950.8186	2218.3479	2280.2	1392.35
950.9527	2219.8304	2259.6	1373.6
951.0867	2221.3121	2267.65	1382.85
951.2207	2222.7931	2263.45	1381.2
951.3546	2224.2733	2252.95	1368.15
951.4886	2225.7529	2247.95	1365.65
951.6225	2227.2317	2244.6	1360.75
951.7563	2228.7098	2248.3	1368.35
951.8902	2230.1872	2240.05	1359.75
952.024	2231.6638	2224.95	1344.9
952.1578	2233.1397	2229.2	1342.9
952.2916	2234.6149	2222.25	1341.5
952.4253	2236.0894	2223.35	1340.25
952.559	2237.5632	2228.6	1337.8
952.6927	2239.0362	2210.5	1328.6
952.8263	2240.5085	2218.7	1338.3
952.9599	2241.9801	2204.4	1321.85
953.0935	2243.4509	2194.25	1312.6
953.2271	2244.921	2198.7	1315.9
953.3606	2246.3904	2193.2	1309.05
953.4941	2247.8591	2187.55	1307.7
953.6276	2249.3271	2192.85	1309.5
953.7611	2250.7943	2170.25	1286.7
953.8945	2252.2608	2166.2	1283.7
954.0279	2253.7266	2161.5	1280.85
954.1612	2255.1917	2165.35	1282.6
954.2946	2256.656	2169.1	1287.05
954.4279	2258.1197	2162.35	1282.6
954.5612	2259.5826	2151.55	1268.9
954.6944	2261.0447	2156.45	1272
954.8276	2262.5062	2144.2	1262.6
954.9608	2263.9669	2152.75	1267.45
955.094	2265.4269	2140.2	1257.85
955.2271	2266.8862	2138.1	1255.35
955.3602	2268.3448	2132	1247.95
955.4933	2269.8026	2131.4	1251.25
955.6264	2271.2598	2135.1	1253.65
955.7594	2272.7162	2122.9	1240.35
955.8924	2274.1719	2121.85	1241.1
956.0253	2275.6268	2125.1	1241.5
956.1583	2277.0811	2110	1228.9
956.2912	2278.5346	2119.85	1238.55
956.4241	2279.9874	2107.65	1225.1
956.5569	2281.4395	2102.6	1221.2
956.6897	2282.8908	2107.2	1221.45
956.8225	2284.3414	2097.95	1216.2
956.9553	2285.7914	2094.85	1214.05
957.088	2287.2406	2097.1	1215.5
957.2207	2288.689	2089	1206.25
957.3534	2290.1368	2076.9	1191.3
957.486	2291.5838	2088	1202.85
957.6186	2293.0302	2069.65	1184.4
957.7512	2294.4758	2070.15	1187.95
957.8838	2295.9206	2074.95	1190.95
958.0163	2297.3648	2069.1	1186.45
958.1488	2298.8082	2060.15	1178.15
958.2813	2300.251	2057.3	1175.1
958.4137	2301.693	2063.9	1177.55
958.5461	2303.1343	2047	1164.05
958.6785	2304.5748	2057	1176.05
958.8108	2306.0147	2035.6	1151.95
958.9432	2307.4538	2047.95	1164.05
959.0754	2308.8922	2027.1	1145.45
959.2077	2310.3299	2033.45	1152.95
959.3399	2311.7669	2042.35	1164.45
959.4721	2313.2031	2026	1144.35
959.6043	2314.6387	2022.2	1140.1
959.7365	2316.0735	2026.65	1144.3
959.8686	2317.5076	2018.35	1137.65
960.0006	2318.941	2016.55	1132.9
960.1327	2320.3737	2006.35	1122.9
960.2647	2321.8056	2005.2	1121.6
960.3967	2323.2369	2007.35	1124.6
960.5287	2324.6674	2003.1	1117.6
960.6606	2326.0972	2003.05	1119.8
960.7925	2327.5263	1993.95	1110.6
960.9244	2328.9547	2001.55	1120.45
961.0562	2330.3823	1993.45	1109.65
961.1881	2331.8092	1987.75	1102.2
961.3198	2333.2355	1982.55	1098.8
961.4516	2334.661	1981.25	1098.55
961.5833	2336.0858	1975.8	1091.5
961.715	2337.5098	1972.2	1088.3
961.8467	2338.9332	1970.9	1088
961.9783	2340.3558	1962	1075.35
962.1099	2341.7778	1951.6	1069.1
962.2415	2343.199	1953.45	1070.4
962.373	2344.6195	1947.7	1066.2
962.5045	2346.0393	1945.15	1064.05
962.636	2347.4583	1940.75	1056.55
962.7675	2348.8767	1939.5	1055.45
962.8989	2350.2943	1936.25	1054.1
963.0303	2351.7113	1944	1058.4
963.1617	2353.1275	1933.15	1049.85
963.293	2354.543	1941.15	1048.75
963.4243	2355.9578	1926.2	1041.2
963.5556	2357.3718	1921.1	1038.85
963.6868	2358.7852	1916.4	1031.4
963.818	2360.1978	1906.75	1023
963.9492	2361.6098	1919.95	1038.9
964.0803	2363.021	1903.35	1014.9
964.2114	2364.4315	1900.85	1019.55
964.3425	2365.8413	1887.3	1002.15
964.4736	2367.2504	1882.6	1001.2
964.6046	2368.6587	1886.95	1003.65
964.7356	2370.0664	1886.5	1005.2
964.8666	2371.4733	1879.55	997.8
964.9975	2372.8795	1875.35	991.6
965.1284	2374.285	1875.1	991.7
965.2593	2375.6899	1864.65	982.75
965.3901	2377.0939	1857.25	973.5
965.5209	2378.4973	1858.05	975.95
965.6517	2379.9	1844.55	963.05
965.7825	2381.3019	1846.2	963.9
965.9132	2382.7032	1843.5	962.05
966.0439	2384.1037	1844.25	963
966.1745	2385.5035	1839	956.25
966.3051	2386.9027	1831.3	950.4
966.4357	2388.3011	1829.25	942.95
966.5663	2389.6987	1822.95	939.25
966.6968	2391.0957	1823.9	941.25
966.8273	2392.492	1817.6	937.2
966.9578	2393.8876	1806.4	922.75
967.0882	2395.2824	1810.25	926.6
967.2186	2396.6765	1797.7	914.7
967.349	2398.07	1799.9	916.4
967.4793	2399.4627	1804.5	917.6
967.6097	2400.8547	1796.85	914.1
967.7399	2402.246	1799.45	910.25
967.8702	2403.6366	1791	906.1
968.0004	2405.0265	1783.45	898.6
968.1306	2406.4156	1783	892.65
968.2607	2407.8041	1776.25	891.6
968.3909	2409.1918	1769.25	882.45
968.521	2410.5789	1763.65	880.5
968.651	2411.9652	1761.45	874.55
968.781	2413.3508	1758.85	875.1
968.911	2414.7358	1754.1	868.75
969.041	2416.12	1751.15	867.65
969.1709	2417.5035	1742.1	860.05
969.3008	2418.8863	1747.05	862.3
969.4307	2420.2684	1748.2	864.95
969.5606	2421.6497	1741.6	855.2
969.6904	2423.0304	1736.85	854.05
969.8201	2424.4104	1732.2	846.2
969.9499	2425.7896	1734.8	848.35
970.0796	2427.1682	1728.15	844.2
970.2093	2428.546	1726.1	843.55
970.3389	2429.9232	1726.95	842.25
970.4685	2431.2996	1717.95	833.5
970.5981	2432.6753	1716.55	833.5
970.7277	2434.0503	1717.35	833.55
970.8572	2435.4246	1708.75	826.1
970.9867	2436.7982	1704.4	818.6
971.1161	2438.1711	1710.6	828.5
971.2456	2439.5433	1697	813.4
971.375	2440.9148	1703.8	816.85
971.5043	2442.2856	1697.15	813
971.6336	2443.6557	1701.35	816
971.7629	2445.025	1687.95	804.7
971.8922	2446.3937	1694.15	808.85
972.0214	2447.7617	1690.5	804.8
972.1506	2449.1289	1689.4	806.95
972.2798	2450.4955	1684.8	798.9
972.4089	2451.8613	1683.3	802.85
972.538	2453.2265	1676.7	793.9
972.6671	2454.5909	1668.8	784.65
972.7961	2455.9546	1675.2	792.15
972.9251	2457.3177	1670.65	787.1
973.0541	2458.68	1671	786.45
973.1831	2460.0416	1666.05	781.8
973.312	2461.4025	1671.75	785.35
973.4408	2462.7627	1668.45	774.7
973.5697	2464.1222	1659.65	777.8
973.6985	2465.4811	1660.8	776.9
973.8273	2466.8392	1652.65	769.95
973.956	2468.1966	1656.5	771.35
974.0847	2469.5533	1651.5	766
974.2134	2470.9093	1650.5	765.85
974.3421	2472.2645	1650.35	762.7
974.4707	2473.6191	1645.25	761.1
974.5993	2474.973	1636.8	750.45
974.7278	2476.3262	1640.75	756.7
974.8563	2477.6787	1634.65	750.8
974.9848	2479.0305	1622.2	738.95
975.1132	2480.3816	1633.85	749.25
975.2417	2481.7319	1625.55	741.15
975.37	2483.0816	1623.65	739.3
975.4984	2484.4306	1619.95	734.9
975.6267	2485.7789	1611.9	729
975.755	2487.1264	1614.9	731.1
975.8833	2488.4733	1601.6	719.4
976.0115	2489.8195	1611	721.1
976.1397	2491.165	1606.75	719.85
976.2678	2492.5097	1604.35	719.55
976.3959	2493.8538	1598.9	715.25
976.524	2495.1972	1593.2	709.5
976.6521	2496.5398	1585.6	699.9
976.7801	2497.8818	1588.75	705.35
976.9081	2499.2231	1591.75	708.35
977.036	2500.5637	1585.7	700.4
977.164	2501.9035	1581.7	694.55
977.2918	2503.2427	1594.65	706.35
977.4197	2504.5812	1580.2	695.95
977.5475	2505.919	1587.85	701.55
977.6753	2507.256	1577.45	694.8
977.8031	2508.5924	1575.5	692.15
977.9308	2509.9281	1575.2	686.7
978.0585	2511.2631	1570.6	687.95
978.1861	2512.5974	1564.65	682.2
978.3137	2513.9309	1567.95	686.6
978.4413	2515.2638	1586.35	670.85
978.5689	2516.596	1552.85	669.25
978.6964	2517.9275	1557.95	672.7
978.8239	2519.2583	1555.25	668.1
978.9513	2520.5884	1547.8	664
979.0788	2521.9178	1552.45	669.35
979.2062	2523.2465	1536.95	655.4
979.3335	2524.5745	1533.6	651.15
979.4608	2525.9018	1532	648.2
979.5881	2527.2284	1535.05	653.3
979.7154	2528.5543	1525.75	642.65
979.8426	2529.8796	1530.9	647.4
979.9698	2531.2041	1524.2	641.4
980.0969	2532.5279	1533.8	650.85
980.224	2533.851	1530.15	645.75
980.3511	2535.1735	1521.8	638.45
980.4781	2536.4952	1521.1	635.55
980.6052	2537.8163	1521.65	638.7
980.7321	2539.1366	1519.5	634.75
980.8591	2540.4562	1512.2	626.75
980.986	2541.7752	1509.3	625.85
981.1129	2543.0935	1515.25	631.2
981.2397	2544.411	1516.4	632.4
981.3665	2545.7279	1505.6	621.5
981.4933	2547.0441	1509.75	625.45
981.62	2548.3596	1512.45	628.4
981.7467	2549.6744	1501.35	618.15
981.8734	2550.9885	1501.95	609.9
982.0001	2552.3019	1490.2	606.5
982.1267	2553.6146	1496.4	610.2
982.2532	2554.9266	1494.55	611.6
982.3798	2556.2379	1487.9	603.1
982.5063	2557.5485	1494.8	612.55
982.6327	2558.8585	1498.4	609.5
982.7592	2560.1677	1494.4	606.05
982.8856	2561.4762	1487.85	605.2
983.0119	2562.7841	1490.3	601.95
983.1383	2564.0913	1481	598.95
983.2646	2565.3977	1483.35	600.5
983.3908	2566.7035	1481.4	597.35
983.517	2568.0086	1485.4	602.25
983.6432	2569.313	1482.8	597.6
983.7694	2570.6167	1476.95	590.15
983.8955	2571.9197	1471.9	590.6
984.0216	2573.222	1471.55	583.95
984.1476	2574.5236	1471.8	588.8
984.2737	2575.8246	1476.55	590.95
984.3996	2577.1248	1473.9	587.75
984.5256	2578.4244	1466.85	582.95
984.6515	2579.7232	1460.95	577.25
984.7774	2581.0214	1488.55	578.55
984.9032	2582.3189	1464.8	581.25
985.029	2583.6157	1471.6	581.9
985.1548	2584.9118	1456.45	572.6
985.2806	2586.2072	1453.9	570.6
985.4063	2587.5019	1449.05	566.35
985.5319	2588.7959	1448.1	562.45
985.6576	2590.0893	1459.75	573.8
985.7832	2591.3819	1451.45	568.1
985.9087	2592.6739	1447.3	564.65
986.0343	2593.9652	1437.1	553.55
986.1597	2595.2557	1449.85	566.4
986.2852	2596.5456	1445.5	559.85
986.4106	2597.8348	1442.05	559.45
986.536	2599.1234	1435.55	555.05
986.6614	2600.4112	1430	546.85
986.7867	2601.6983	1437.85	551.3
986.912	2602.9848	1422.25	539.35
987.0372	2604.2705	1427.3	538.95
987.1624	2605.5556	1431.25	546.15
987.2876	2606.84	1420.2	538.4
987.4128	2608.1237	1424.45	539.85
987.5379	2609.4067	1414.7	533.85
987.6629	2610.689	1418.9	527.3
987.788	2611.9707	1419.75	532.25
987.913	2613.2516	1414.25	527.5
988.0379	2614.5319	1408.1	526.7
988.1629	2615.8115	1404.4	520.3
988.2878	2617.0903	1397.75	513.35
988.4126	2618.3685	1395.7	510.55
988.5375	2619.6461	1400.75	514.95
988.6622	2620.9229	1392.65	510.05
988.787	2622.199	1399.45	513
988.9117	2623.4745	1398.7	515.5
989.0364	2624.7493	1395.15	513.25
989.161	2626.0234	1383.95	502.5
989.2857	2627.2968	1383.9	500.65
989.4102	2628.5695	1378.55	493.6
989.5348	2629.8415	1371.55	488.4
989.6593	2631.1128	1375	491.5
989.7837	2632.3835	1374.25	492.65
989.9082	2633.6535	1374.25	491.5
990.0326	2634.9228	1365.05	481.25
990.1569	2636.1914	1368.65	486.45
990.2812	2637.4593	1365.8	478.25
990.4055	2638.7265	1366.7	483.55
990.5298	2639.9931	1366.4	484.6
990.654	2641.259	1359.65	474.6
990.7782	2642.5242	1352.7	468.4
990.9023	2643.7887	1357.05	472.8
991.0264	2645.0525	1356.95	473.85
991.1505	2646.3156	1353.2	468.05
991.2745	2647.5781	1349.15	466.85
991.3985	2648.8398	1347.95	466.25
991.5225	2650.1009	1357.4	464.35
991.6464	2651.3613	1345.8	464.8
991.7703	2652.6211	1345.3	462.6
991.8942	2653.8801	1339.6	459.2
992.018	2655.1385	1339.05	453.9
992.1418	2656.3961	1342.75	458.45
992.2655	2657.6531	1340.1	457.05
992.3892	2658.9094	1337.7	455.55
992.5129	2660.1651	1333.5	450.65
992.6366	2661.42	1331.3	449.65
992.7602	2662.6743	1337.4	452.3
992.8837	2663.9279	1336.4	452.9
993.0073	2665.1808	1329.75	446.05
993.1307	2666.433	1332.5	448.4
993.2542	2667.6846	1327.2	445
993.3776	2668.9354	1324.35	437.05
993.501	2670.1856	1322.85	438.9
993.6244	2671.4351	1317.85	434.5
993.7477	2672.6839	1315.2	431.35
993.8709	2673.9321	1318.85	436.2
993.9942	2675.1795	1320.55	438.25
994.1174	2676.4263	1317.7	437.2
994.2405	2677.6724	1315.45	431.65
994.3637	2678.9179	1312.5	428
994.4868	2680.1626	1312.95	432.35
994.6098	2681.4067	1312.4	428.55
994.7328	2682.6501	1310.05	427.1
994.8558	2683.8928	1308.95	426.3
994.9788	2685.1348	1304.85	420.65
995.1017	2686.3761	1301.6	419.75
995.2245	2687.6168	1300.7	418.75
995.3474	2688.8568	1294.55	412.65
995.4702	2690.0961	1291.25	409.5
995.5929	2691.3348	1288.7	406.4
995.7156	2692.5727	1291.8	408.7
995.8383	2693.81	1293.9	410.75
995.961	2695.0466	1286.25	404.6
996.0836	2696.2826	1288.6	404.25
996.2062	2697.5178	1290.1	404.25
996.3287	2698.7524	1287.1	407.65
996.4512	2699.9863	1289.55	404.7
996.5737	2701.2195	1281.45	399.9
996.6961	2702.452	1280.1	395.05
996.8185	2703.6839	1274.7	392.05
996.9408	2704.9151	1279.1	397.9
997.0631	2706.1456	1279.5	394.7
997.1854	2707.3755	1270	386.25
997.3077	2708.6046	1278.1	394.4
997.4299	2709.8331	1274.35	391.95
997.552	2711.0609	1268.35	386.65
997.6742	2712.2881	1267.35	385.7
997.7963	2713.5145	1273.45	389.2
997.9183	2714.7403	1271.2	390.45
998.0403	2715.9654	1264.55	380
998.1623	2717.1899	1280.55	383.95
998.2842	2718.4136	1264.55	381.8
998.4062	2719.6367	1269	387.8
998.528	2720.8591	1271.7	382.25
998.6498	2722.0809	1264.15	381.85
998.7716	2723.3019	1262.9	375.3
998.8934	2724.5223	1260.75	379.75
999.0151	2725.7421	1257.55	373
999.1368	2726.9611	1253.5	368.5
999.2584	2728.1795	1259.95	373.9
999.38	2729.3972	1249.3	367.75
999.5016	2730.6142	1254.2	359.9
999.6231	2731.8306	1251.9	368.65
999.7446	2733.0462	1240.45	356.1
999.8661	2734.2612	1246.25	359.55
999.9875	2735.4756	1239	354.65
1000.1089	2736.6892	1238.7	355.2
1000.2302	2737.9022	1234.3	354.7
1000.3515	2739.1145	1232.9	351.4
1000.4728	2740.3262	1240	350.3
1000.594	2741.5372	1235.75	354
1000.7152	2742.7475	1225	342.85
1000.8363	2743.9571	1229.2	346.25
1000.9575	2745.1661	1231.85	345
1001.0785	2746.3744	1224.25	340.6
1001.1996	2747.582	1222.6	341.2
1001.3206	2748.7889	1218.65	334.55
1001.4415	2749.9952	1217.95	336.1
1001.5625	2751.2008	1211.35	328.15
1001.6833	2752.4057	1215.35	330.95
1001.8042	2753.61	1220.45	335.7
1001.925	2754.8136	1212.4	329.7
1002.0458	2756.0165	1215.75	334.25
1002.1665	2757.2188	1205.65	325.15
1002.2872	2758.4204	1206.3	325.15
1002.4078	2759.6213	1210.2	326.9
1002.5285	2760.8215	1207.8	321.1
1002.649	2762.0211	1210.15	326.55
1002.7696	2763.22	1205.3	320.65
1002.8901	2764.4182	1206.1	323.1
1003.0106	2765.6158	1199.05	316.75
1003.131	2766.8127	1200.65	317.3
1003.2514	2768.009	1200.4	320.6
1003.3717	2769.2045	1202.35	318.35
1003.492	2770.3994	1201.05	318.2
1003.6123	2771.5936	1192.2	309.9
1003.7325	2772.7872	1193.05	311.95
1003.8527	2773.9801	1193.4	309.65
1003.9729	2775.1723	1208.35	310.1
1004.093	2776.3639	1183.1	302.35
1004.2131	2777.5548	1184.7	300.45
1004.3331	2778.745	1184.7	298.9
1004.4531	2779.9346	1184	304.7
1004.5731	2781.1235	1182.8	299.35
1004.693	2782.3117	1181.9	300.65
1004.8129	2783.4992	1180.85	299.85
1004.9328	2784.6861	1180.1	295.65
1005.0526	2785.8723	1182.1	298.75
1005.1723	2787.0579	1180.05	297.4
1005.2921	2788.2428	1174.25	292.3
1005.4118	2789.427	1171.95	290.9
1005.5314	2790.6106	1168.9	285.9
1005.651	2791.7935	1171.8	291.15
1005.7706	2792.9757	1165.85	285.95
1005.8902	2794.1573	1170.55	287.1
1006.0097	2795.3382	1166.9	283.7
1006.1291	2796.5184	1161.6	281.5
1006.2485	2797.698	1166.55	283.6
1006.3679	2798.8769	1162.85	280.55
1006.4873	2800.0551	1166.15	282.9
1006.6066	2801.2327	1167.8	285.3
1006.7258	2802.4096	1169.2	289.05
1006.8451	2803.5859	1161.85	278.7
1006.9642	2804.7615	1164.3	281.5
1007.0834	2805.9364	1156.05	274.85
1007.2025	2807.1106	1158.7	278.5
1007.3216	2808.2842	1159.95	277.4
1007.4406	2809.4572	1157.1	277.45
1007.5596	2810.6294	1158.3	274.75
1007.6785	2811.801	1157.95	278.45
1007.7975	2812.972	1156.3	275.05
1007.9163	2814.1423	1159.05	278.7
1008.0352	2815.3119	1160.65	276.9
1008.154	2816.4808	1156.95	276.75
1008.2727	2817.6491	1155.55	273.95
1008.3914	2818.8167	1157.9	279.45
1008.5101	2819.9837	1170.7	285.35
1008.6288	2821.15	1157.75	275.85
1008.7474	2822.3157	1161.35	281
1008.8659	2823.4807	1160.95	280.25
1008.9844	2824.645	1172.5	291.7
1009.1029	2825.8086	1170.45	289.25
1009.2214	2826.9716	1176.95	296.1
1009.3398	2828.134	1177.65	297.6
1009.4581	2829.2957	1181.5	300.5
1009.5764	2830.4567	1183.7	306.2
1009.6947	2831.617	1184.9	302.75
1009.813	2832.7767	1190.7	308.8
1009.9312	2833.9358	1182.9	302.75
1010.0493	2835.0941	1182.75	298.4
1010.1675	2836.2519	1179.25	298.7
1010.2855	2837.4089	1182.05	300.6
1010.4036	2838.5653	1174.5	294.65
1010.5216	2839.7211	1174.8	292.65
1010.6396	2840.8761	1174.45	293.3
1010.7575	2842.0306	1164.4	285.6
1010.8754	2843.1843	1171.7	289.85
1010.9932	2844.3374	1166.25	285.3
1011.111	2845.4899	1178.05	294.7
1011.2288	2846.6417	1170.5	288.1
1011.3465	2847.7928	1172.2	291.3
1011.4642	2848.9433	1171.6	289.95
1011.5818	2850.0931	1171.55	290.95
1011.6995	2851.2422	1173.5	291.75
1011.817	2852.3907	1169.7	288
1011.9345	2853.5385	1169.65	286.8
1012.052	2854.6857	1182.6	292.3
1012.1695	2855.8323	1172.75	291.65
1012.2869	2856.9781	1177.15	294.4
1012.4042	2858.1233	1178.65	299.25
1012.5216	2859.2679	1176.4	296.7
1012.6389	2860.4118	1178.85	296.85
1012.7561	2861.555	1180.15	295.45
1012.8733	2862.6976	1174.8	290.9
1012.9905	2863.8395	1177.35	297.75
1013.1076	2864.9808	1174.15	293.3
1013.2247	2866.1214	1173.85	293.35
1013.3417	2867.2614	1178.9	296.55
1013.4587	2868.4007	1172.9	291.55
1013.5757	2869.5393	1176.7	294.45
1013.6926	2870.6773	1175.5	290.45
1013.8095	2871.8146	1174.25	288.25
1013.9263	2872.9513	1176.45	293.4
1014.0431	2874.0874	1174.5	292.5
1014.1599	2875.2227	1178.55	295.4
1014.2766	2876.3574	1174.65	294.9
1014.3933	2877.4915	1168.65	287.8
1014.51	2878.6249	1173.5	292.5
1014.6266	2879.7577	1175.65	295.2
1014.7431	2880.8898	1180.55	289.5
1014.8596	2882.0212	1172.4	293.3
1014.9761	2883.152	1176.85	295.3
1015.0925	2884.2821	1175.95	294.15
1015.2089	2885.4116	1171.3	292.35
1015.3253	2886.5405	1175.55	293
1015.4416	2887.6686	1178.3	293.15
1015.5579	2888.7962	1170.5	291.55
1015.6741	2889.923	1171.75	289.85
1015.7903	2891.0493	1169.75	291.95
1015.9065	2892.1748	1170.4	287.7
1016.0226	2893.2997	1172.05	291.3
1016.1387	2894.424	1165.15	285.05
1016.2547	2895.5476	1172.95	292.65
1016.3707	2896.6706	1165.35	285.8
1016.4866	2897.7929	1164.9	282.5
1016.6025	2898.9145	1165.85	284.75
1016.7184	2900.0355	1173.45	292.8
1016.8342	2901.1559	1168.7	287.15
1016.95	2902.2756	1164.9	284.1
1017.0658	2903.3946	1162.75	281.65
1017.1815	2904.513	1165.35	280.35
1017.2971	2905.6308	1159.35	279.25
1017.4127	2906.7479	1161.55	278.3
1017.5283	2907.8643	1158	277.2
1017.6439	2908.9801	1155.6	275.05
1017.7594	2910.0953	1160.25	279.5
1017.8748	2911.2098	1160.4	276.05
1017.9902	2912.3236	1161.65	272.75
1018.1056	2913.4368	1161.7	278.8
1018.2209	2914.5494	1152	272.25
1018.3362	2915.6613	1155.55	269.85
1018.4515	2916.7725	1150.2	266.65
1018.5667	2917.8831	1150.9	268.6
1018.6819	2918.9931	1149.2	267.55
1018.797	2920.1024	1149.75	268.15
1018.9121	2921.211	1143.55	260
1019.0271	2922.319	1142.35	263.65
1019.1421	2923.4264	1137.15	258.3
1019.2571	2924.5331	1137.6	258.1
1019.372	2925.6391	1135.5	255.35
1019.4869	2926.7445	1132.4	254.45
1019.6017	2927.8493	1136.95	256.6
1019.7165	2928.9534	1134.2	254.45
1019.8313	2930.0569	1135.9	250.65
1019.946	2931.1597	1133.25	251.25
1020.0606	2932.2619	1139.35	257.85
1020.1753	2933.3634	1141.65	262.1
1020.2899	2934.4643	1143.45	254.1
1020.4044	2935.5645	1136.85	251.1
1020.5189	2936.6641	1144	260.2
1020.6334	2937.763	1135.55	256.95
1020.7478	2938.8613	1134.05	252.65
1020.8622	2939.959	1137.15	250.95
1020.9765	2941.056	1129.25	248.7
1021.0908	2942.1523	1124.1	243
1021.2051	2943.248	1116.6	233.6
1021.3193	2944.3431	1112.65	232.4
1021.4334	2945.4375	1106.25	223.9
1021.5476	2946.5313	1105.25	226.6
1021.6617	2947.6244	1097.8	216.45
1021.7757	2948.7169	1097.35	217.65
1021.8897	2949.8087	1090.25	209.8
1022.0037	2950.8999	1088.6	207.45
1022.1176	2951.9904	1086.55	207.6
1022.2315	2953.0803	1080.2	200.35
1022.3453	2954.1696	1080.85	199.2
1022.4591	2955.2582	1072.75	193.75
1022.5728	2956.3462	1072.7	192.35
1022.6865	2957.4335	1072.4	192.9
1022.8002	2958.5202	1075.4	194.65
1022.9138	2959.6062	1070.7	189.65
1023.0274	2960.6916	1066.55	185.3
1023.141	2961.7764	1064.9	183.3
1023.2545	2962.8605	1068.1	185.8
1023.3679	2963.9439	1065.1	186.5
1023.4813	2965.0267	1061.6	179.85
1023.5947	2966.1089	1090.25	186.65
1023.708	2967.1905	1063.05	183.6
1023.8213	2968.2714	1062	182.75
1023.9346	2969.3516	1064.25	185.1
1024.0478	2970.4312	1066.45	178.35
1024.1609	2971.5102	1059.1	177.65
1024.274	2972.5885	1062.3	180.65
1024.3871	2973.6662	1063.6	177.65
1024.5002	2974.7432	1055	176.65
1024.6132	2975.8196	1057.9	175.85
1024.7261	2976.8954	1057.4	176.95
1024.839	2977.9705	1053.4	175.2
1024.9519	2979.045	1058.5	177.55
1025.0647	2980.1188	1049.95	171.05
1025.1775	2981.192	1052.15	172.65
1025.2902	2982.2645	1051.9	171.2
1025.4029	2983.3364	1049.75	171.3
1025.5156	2984.4077	1048.5	167.8
1025.6282	2985.4783	1048.7	163.6
1025.7407	2986.5483	1043.8	164.3
1025.8532	2987.6177	1045.3	164.3
1025.9657	2988.6864	1038.35	157.7
1026.0782	2989.7545	1041.25	158.55
1026.1906	2990.8219	1034.95	156.9
1026.3029	2991.8887	1039.7	157
1026.4152	2992.9548	1038.25	159.2
1026.5275	2994.0204	1030.45	151.55
1026.6397	2995.0852	1028.65	149.75
1026.7519	2996.1495	1026.9	144.8
1026.864	2997.2131	1026.95	147.65
1026.9761	2998.276	1021.55	140.65
1027.0882	2999.3383	1023.2	144.1
1027.2002	3000.4	1022.95	142.8
1027.3122	3001.4611	1018.8	137.45
1027.4241	3002.5215	1017.95	135.55
1027.536	3003.5812	1017.35	136.55
1027.6478	3004.6404	1016.35	138.1
1027.7596	3005.6989	1018.8	137.05
1027.8714	3006.7567	1014.55	132.95
1027.9831	3007.8139	1040.35	136.05
1028.0947	3008.8705	1009.95	127.75
1028.2064	3009.9264	1013.1	130.45
1028.3179	3010.9818	1009.35	129.45
1028.4295	3012.0364	1011.4	127.8
1028.541	3013.0905	1006.7	126.1
1028.6524	3014.1439	1009.25	129.8
1028.7638	3015.1966	1009.05	129.9
1028.8752	3016.2487	1006.8	125.1
1028.9865	3017.3002	1013.3	127.3
1029.0978	3018.3511	1004.35	125.65
1029.209	3019.4013	1005.6	126.1
1029.3202	3020.4509	1003.15	122.75
1029.4314	3021.4998	1004.45	125.3
1029.5425	3022.5481	1001.8	121.4
1029.6535	3023.5958	1006.15	128.25
1029.7645	3024.6428	1002.4	121
1029.8755	3025.6892	1004.65	124.7
1029.9864	3026.735	1000.1	121.4
1030.0973	3027.7802	1000.7	120.05
1030.2082	3028.8247	999	119.7
1030.319	3029.8685	1000	118.85
1030.4297	3030.9118	998.3	116.8
1030.5404	3031.9544	1000.85	121.35
1030.6511	3032.9963	997.35	115.95
1030.7617	3034.0376	995.55	116.4
1030.8723	3035.0783	1000.7	120.1
1030.9829	3036.1184	999.95	117.7
1031.0934	3037.1578	996.45	118
1031.2038	3038.1966	995.45	112.8
1031.3142	3039.2348	994.35	114.85
1031.4246	3040.2723	1001.9	112.8
1031.5349	3041.3092	992.35	113.5
1031.6452	3042.3455	992.1	113.3
1031.7554	3043.3811	993.4	113.8
1031.8656	3044.4161	995.6	114.35
1031.9758	3045.4505	993.9	114.3
1032.0859	3046.4842	991.25	111.35
1032.1959	3047.5173	992.55	114.6
1032.3059	3048.5498	991.7	112.8
1032.4159	3049.5816	992.8	111.25
1032.5258	3050.6128	986.95	106.5
1032.6357	3051.6434	993.05	110.15
1032.7455	3052.6734	991.3	112.4
1032.8553	3053.7027	991.75	111.4
1032.9651	3054.7314	990.95	112.25
1033.0748	3055.7594	988	108.35
1033.1845	3056.7868	987.7	106.9
1033.2941	3057.8136	990	111.75
1033.4037	3058.8398	987.15	107.7
1033.5132	3059.8653	988	107.9
1033.6227	3060.8902	988.75	107.25
1033.7321	3061.9145	988.3	109.45
1033.8415	3062.9381	986.1	108.2
1033.9509	3063.9612	998.95	101.9
1034.0602	3064.9835	986.6	107.55
1034.1694	3066.0053	987.6	107.75
1034.2787	3067.0264	984.15	104.25
1034.3878	3068.0469	983.5	102.65
1034.497	3069.0668	987.7	105.25
1034.6061	3070.086	982.15	103.3
1034.7151	3071.1046	983.05	103
1034.8241	3072.1226	986.6	103.55
1034.9331	3073.1399	984.25	103.6
1035.042	3074.1567	985	104.85
1035.1508	3075.1727	982.15	101.15
1035.2597	3076.1882	981.45	102
1035.3684	3077.203	981.05	100.9
1035.4772	3078.2173	982.2	100.45
1035.5859	3079.2308	981.6	100.5
1035.6945	3080.2438	979.6	97.8
1035.8031	3081.2561	976.65	98.25
1035.9117	3082.2678	974.1	95.55
1036.0202	3083.2789	974.1	94.4
1036.1286	3084.2893	975.5	96
1036.2371	3085.2991	971.9	92.8
1036.3454	3086.3083	974.7	91.5
1036.4538	3087.3169	972.15	90.55
1036.562	3088.3248	976.2	93.55
1036.6703	3089.3321	975.3	92.1
1036.7785	3090.3388	976	98.85
1036.8866	3091.3449	971.25	90.85
1036.9948	3092.3503	974.55	93.15
1037.1028	3093.3551	967.4	89.95
1037.2108	3094.3593	966.35	89.3
1037.3188	3095.3629	966.8	86.8
1037.4267	3096.3658	970.65	90.45
1037.5346	3097.3681	966.95	86.35
1037.6425	3098.3698	969.95	88.3
1037.7503	3099.3708	973.05	87.4
1037.858	3100.3713	967.2	88.05
1037.9657	3101.3711	968.4	88.85
1038.0734	3102.3702	1102.2	83
1038.181	3103.3688	971.3	90.1
1038.2886	3104.3667	964.95	87.55
1038.3961	3105.364	961.65	82.05
1038.5036	3106.3607	962.3	81.9
1038.611	3107.3568	965.4	84.15
1038.7184	3108.3522	962.2	83.95
1038.8257	3109.347	962.6	83.15
1038.933	3110.3412	963.9	80.75
1039.0403	3111.3348	960.05	80.3
1039.1475	3112.3277	960.35	81.6
1039.2547	3113.32	962.2	85.25
1039.3618	3114.3117	958.65	77.3
1039.4689	3115.3028	958.45	79.15
1039.5759	3116.2932	962.4	82
1039.6829	3117.2831	962.4	77.25
1039.7898	3118.2723	956.6	77.65
1039.8967	3119.2608	961.7	82.15
1040.0035	3120.2488	957.95	75.6
1040.1103	3121.2361	955.15	74.25
1040.2171	3122.2229	955.55	77.3
1040.3238	3123.209	955.45	74.8
1040.4305	3124.1944	954.95	77.45
1040.5371	3125.1793	957.65	77.8
1040.6437	3126.1635	950.9	73.25
1040.7502	3127.1471	954.95	76.55
1040.8567	3128.1301	951.45	71.8
1040.9631	3129.1125	951.8	71.3
1041.0695	3130.0942	955.5	74.3
1041.1759	3131.0753	960.65	70.6
1041.2822	3132.0558	956.85	73.85
1041.3884	3133.0357	953.3	73.3
1041.4946	3134.015	952.4	72
1041.6008	3134.9936	950.95	68.75
1041.7069	3135.9716	969.9	69.55
1041.813	3136.949	951.95	74.45
1041.919	3137.9258	955.35	72.6
1042.025	3138.902	955.3	68.95
1042.1309	3139.8775	947.55	68.2
1042.2368	3140.8524	949.05	68.8
1042.3427	3141.8267	950.65	69.3
1042.4485	3142.8004	950.6	70.8
1042.5542	3143.7735	954.3	69.75
1042.6599	3144.7459	953.75	70.5
1042.7656	3145.7178	946.05	65.85
1042.8712	3146.689	949.05	69.95
1042.9768	3147.6596	949.1	68.45
1043.0823	3148.6295	947.7	68.7
1043.1878	3149.5989	948.65	66.95
1043.2932	3150.5676	943.75	64.2
1043.3986	3151.5357	943.85	67.35
1043.5039	3152.5032	944.85	66.95
1043.6092	3153.4701	944.7	64.85
1043.7145	3154.4364	946.25	63.3
1043.8197	3155.402	942.65	63.6
1043.9248	3156.367	944.65	62.15
1044.03	3157.3315	980.15	61.65
1044.135	3158.2952	944.85	65.55
1044.24	3159.2584	939	60
1044.345	3160.221	943.85	61.85
1044.4499	3161.1829	941.55	61.95
1044.5548	3162.1442	939.65	57.55
1044.6596	3163.105	940.05	59.6
1044.7644	3164.065	943.75	63.8
1044.8692	3165.0245	942.7	59.45
1044.9739	3165.9834	939.65	59.25
1045.0785	3166.9416	942	62.05
1045.1831	3167.8993	940	60
1045.2877	3168.8563	938.85	59.25
1045.3922	3169.8127	935.5	55.55
1045.4966	3170.7684	940.85	60.6
1045.6011	3171.7236	939	59.35
1045.7054	3172.6782	938.15	58.65
1045.8098	3173.6321	937.7	56.35
1045.914	3174.5854	940.2	56.3
1046.0183	3175.5381	934.75	53.65
1046.1224	3176.4902	937.4	56.4
1046.2266	3177.4417	936.1	55.4
1046.3307	3178.3926	936.65	56.5
1046.4347	3179.3428	935.1	58.55
1046.5387	3180.2924	936.5	57.45
1046.6427	3181.2415	937.55	57.65
1046.7466	3182.1899	940.05	60.3
1046.8504	3183.1377	933.7	52.65
1046.9542	3184.0848	938.5	56.85
1047.058	3185.0314	934.85	55.3
1047.1617	3185.9773	932.05	51.15
1047.2654	3186.9227	934.65	56.1
1047.369	3187.8674	932.7	51.75
1047.4726	3188.8115	936.65	50.9
1047.5761	3189.755	932.05	53.35
1047.6796	3190.6979	931.9	52.65
1047.783	3191.6402	928.7	50.4
1047.8864	3192.5818	931	51.95
1047.9898	3193.5229	948.75	51.6
1048.0931	3194.4633	930.15	52.3
1048.1963	3195.4031	929.65	49.35
1048.2995	3196.3423	931.85	51.25
1048.4027	3197.2809	930.1	50.15
1048.5058	3198.2189	930.45	49.6
1048.6089	3199.1563	948.55	53.55
1048.7119	3200.0931	928.3	50.35
1048.8148	3201.0292	927.7	50.35
1048.9178	3201.9648	929.25	50.3
1049.0206	3202.8997	930.4	47.9
1049.1235	3203.834	928.25	48.65
1049.2262	3204.7677	926.55	46.8
1049.329	3205.7008	931.4	50.45
1049.4317	3206.6333	927.9	50.7
1049.5343	3207.5652	928.4	47.45
1049.6369	3208.4964	928.7	50.1
1049.7394	3209.4271	927.55	50.2
1049.8419	3210.3571	927.2	46.9
1049.9444	3211.2865	929.15	48.65
1050.0468	3212.2154	927.7	48.25
1050.1491	3213.1436	927.5	43.5
1050.2514	3214.0712	931.2	45.55
1050.3537	3214.9982	922.75	43.7
1050.4559	3215.9246	924	44.95
1050.5581	3216.8503	923.6	44.65
1050.6602	3217.7755	921.4	40.7
1050.7623	3218.7001	926.45	46.55
1050.8643	3219.624	928.65	51.1
1050.9663	3220.5473	925.2	47.55
1051.0682	3221.4701	926.5	45.7
1051.1701	3222.3922	927.6	45.65
1051.2719	3223.3137	923.45	43.5
1051.3737	3224.2346	923.3	43.5
1051.4754	3225.1549	921.6	42.35
1051.5771	3226.0746	923.5	43.95
1051.6788	3226.9937	923.45	45
1051.7804	3227.9121	921.55	42.7
1051.8819	3228.83	921.4	45.55
1051.9834	3229.7473	921.45	44.15
1052.0849	3230.6639	921.7	40.8
1052.1863	3231.5799	921.8	41.6
1052.2876	3232.4954	924.1	43.6
1052.3889	3233.4102	919.05	41.2
1052.4902	3234.3244	919.9	38.5
1052.5914	3235.238	920.6	40.55
1052.6926	3236.151	943.3	39.85
1052.7937	3237.0634	920.3	42.25
1052.8948	3237.9752	919.35	39.85
1052.9958	3238.8864	921.65	43.6
1053.0968	3239.797	920.65	41.55
1053.1977	3240.7069	919.05	40.1
1053.2986	3241.6163	919.35	39.15
1053.3994	3242.5251	916.9	38
1053.5002	3243.4332	915.95	36.9
1053.6009	3244.3408	918.9	38.05
1053.7016	3245.2477	917.95	38.45
1053.8022	3246.154	920.35	41.2
1053.9028	3247.0598	918.2	37.4
1054.0034	3247.9649	916.65	36.45
1054.1039	3248.8694	918.25	39.85
1054.2043	3249.7733	917.65	38.1
1054.3047	3250.6766	917.95	38.75
1054.4051	3251.5793	916.1	36.8
1054.5054	3252.4814	913.85	35.75
1054.6056	3253.3829	914.65	36.1
1054.7058	3254.2838	915.7	35.85
1054.806	3255.1841	915.9	38.05
1054.9061	3256.0838	916.3	37.25
1055.0061	3256.9829	915.05	37.25
1055.1062	3257.8814	916.65	34.8
1055.2061	3258.7792	915.95	34.75
1055.306	3259.6765	915.5	33.6
1055.4059	3260.5731	911.25	31.2
1055.5057	3261.4692	912.6	33.3
1055.6055	3262.3647	914	34.9
1055.7052	3263.2595	910.95	30.55
1055.8049	3264.1538	912.55	33.85
1055.9045	3265.0474	910.65	30.7
1056.0041	3265.9404	911.9	32.65
1056.1036	3266.8329	910.1	32.2
1056.2031	3267.7247	918.9	28.3
1056.3025	3268.616	905.8	29.55
1056.4019	3269.5066	906.9	26.75
1056.5013	3270.3966	912.35	33.25
1056.6005	3271.286	905.1	26.8
