Software Version:	3.9.2.0
Unit SN:	10000200
Spectrometer SN:	6960
Date:	3/6/2024 10:59:16 AM
Data Line Index:	25
Spectral Points:	2048
Integration time (ms):	125
Averages:	20
Delay (ms):	30
Sequence Number:	1
Processing:	dark subtract
Laser Power (mW):	300
Laser Current (mA):	822
Laser Diode Temp (C):	25.1
Laser Case Temp (C):	28.1
System Temp (C):	27.9
Spectrometer Temp (C):	25.4
CCD Temp (C):	-0.006
Secondary Temp (C):	20.003
Heatsink Temp (C):	23.661
CCDPCB Temp (C):	37.241
SecondaryPCB Temp (C):	34.573

Wavelength	RamanShift	Raw Counts	Dark Subtracted
787.061	30.1047	1084.2	670.25
787.2016	32.3739	1107.05	693.3
787.3422	34.6426	1157.7	745.05
787.4828	36.9109	1210.3	795.4
787.6235	39.1787	1259.15	841.05
787.7642	41.4461	1320.45	896.15
787.9049	43.7131	1386	956.85
788.0456	45.9796	1441.4	1011.15
788.1863	48.2456	1504.85	1071.35
788.3271	50.5112	1572.7	1135.15
788.4679	52.7764	1632.75	1193.85
788.6087	55.0411	1708.8	1265.05
788.7496	57.3054	1787.8	1338.8
788.8904	59.5692	1876.95	1425
789.0313	61.8326	1979.55	1523.35
789.1722	64.0955	2081.3	1621.75
789.3132	66.3579	2199.05	1733.5
789.4541	68.6199	2339.85	1873.7
789.5951	70.8815	2579.6	2109.2
789.7361	73.1426	3066.95	2591.35
789.8771	75.4032	4273.05	3792.75
790.0181	77.6634	7373.4	6888.25
790.1592	79.9231	15308.4	14819.05
790.3003	82.1824	49539.05	49039.25
790.4414	84.4412	65535	65020.1
790.5825	86.6995	65535	64996.55
790.7237	88.9574	65535	64971.95
790.8648	91.2148	65535	64957.7
791.006	93.4717	65535	64945
791.1472	95.7282	65535	64941.45
791.2885	97.9842	65535	64938.1
791.4297	100.2398	65535	64937.05
791.571	102.4949	65535	64934.55
791.7123	104.7495	65535	64927.95
791.8536	107.0036	65535	64925.4
791.9949	109.2573	65535	64930.3
792.1363	111.5105	65535	64927.55
792.2777	113.7632	65535	64923.45
792.4191	116.0154	65535	64917.8
792.5605	118.2672	65535	64919.9
792.7019	120.5185	65535	64918.95
792.8434	122.7693	65535	64916.55
792.9849	125.0197	65535	64915.7
793.1264	127.2696	65535	64911.7
793.2679	129.519	65535	64907.05
793.4094	131.7679	65535	64906.7
793.551	134.0163	65535	64901.8
793.6926	136.2642	65535	64896.4
793.8342	138.5117	65535	64889.6
793.9758	140.7587	65535	64894.2
794.1175	143.0052	65535	64892.95
794.2591	145.2512	65535	64891.8
794.4008	147.4967	65535	64892.45
794.5425	149.7417	65535	64890.65
794.6842	151.9863	65535	64886.8
794.826	154.2304	65535	64882
794.9677	156.4739	65535	64872.95
795.1095	158.717	65535	64874.25
795.2513	160.9596	65535	64872.8
795.3931	163.2017	65535	64866.45
795.535	165.4433	65535	64867.95
795.6768	167.6844	65535	64861
795.8187	169.925	65535	64862.75
795.9606	172.1651	65535	64856.7
796.1025	174.4047	65535	64853.45
796.2445	176.6439	65535	64855.2
796.3864	178.8825	65535	64851.95
796.5284	181.1206	65535	64845.25
796.6704	183.3582	65535	64844.8
796.8124	185.5954	65535	64840.8
796.9544	187.832	65535	64840.85
797.0965	190.0681	65535	64835.75
797.2386	192.3037	65535	64835.55
797.3806	194.5388	65535	64830.25
797.5228	196.7734	65535	64827
797.6649	199.0075	65535	64823
797.807	201.2411	65535	64821.55
797.9492	203.4742	65535	64821.05
798.0914	205.7068	65535	64822.6
798.2336	207.9389	65535	64820.7
798.3758	210.1704	65535	64817.1
798.518	212.4015	65535	64813.3
798.6603	214.632	65535	64819.8
798.8025	216.862	65535	64830.2
798.9448	219.0915	65535	64835.5
799.0871	221.3205	65535	64834.25
799.2294	223.549	65535	64834.75
799.3718	225.777	65535	64837.05
799.5141	228.0044	65535	64832.1
799.6565	230.2314	65535	64836.3
799.7989	232.4578	65535	64832
799.9413	234.6837	65535	64823.65
800.0837	236.909	65535	64822.8
800.2262	239.1339	65535	64800.55
800.3687	241.3582	65535	64810.45
800.5111	243.582	65535	64779.2
800.6536	245.8053	65535	64792.3
800.7961	248.0281	65535	64796.7
800.9387	250.2503	65535	64793.05
801.0812	252.472	65535	64789.45
801.2238	254.6932	65535	64786.55
801.3664	256.9139	65535	64785.15
801.509	259.134	65535	64786.3
801.6516	261.3536	65535	64786.85
801.7942	263.5727	65535	64784.55
801.9369	265.7912	65535	64783.45
802.0795	268.0092	65535	64788.1
802.2222	270.2267	65535	64778.6
802.3649	272.4436	65535	64782.15
802.5076	274.6601	65535	64778.55
802.6504	276.8759	65535	64779.4
802.7931	279.0913	65535	64774.55
802.9359	281.3061	65535	64774.15
803.0787	283.5204	65535	64773.85
803.2215	285.7341	65535	64770.9
803.3643	287.9473	65535	64760.35
803.5071	290.16	65535	64757.45
803.6499	292.3721	65535	64767.9
803.7928	294.5837	65535	64768.2
803.9357	296.7947	65535	64768.2
804.0786	299.0052	65535	64767.9
804.2215	301.2152	65535	64765.1
804.3644	303.4246	65535	64770.35
804.5074	305.6334	65535	64768
804.6503	307.8418	65535	64764.05
804.7933	310.0495	65535	64764.45
804.9363	312.2568	65535	64764.5
805.0793	314.4635	65535	64758.6
805.2223	316.6696	65535	64756.15
805.3653	318.8752	65535	64753.75
805.5084	321.0802	65535	64757
805.6514	323.2847	65535	64754.95
805.7945	325.4887	65535	64758.3
805.9376	327.692	65535	64753.65
806.0807	329.8949	65535	64755.5
806.2238	332.0972	65535	64752.75
806.367	334.2989	65535	64750.05
806.5101	336.5001	65535	64749.4
806.6533	338.7007	65535	64749.1
806.7965	340.9008	65535	64746.8
806.9397	343.1003	65535	64744.7
807.0829	345.2992	65535	64742.2
807.2261	347.4976	65535	64742.1
807.3693	349.6955	65535	64736.65
807.5126	351.8927	65535	64739.4
807.6559	354.0895	65535	64728.8
807.7991	356.2856	65535	64737.9
807.9424	358.4812	65535	64737.25
808.0857	360.6763	65535	64738.15
808.2291	362.8707	65535	64736.75
808.3724	365.0646	65535	64729.5
808.5158	367.258	65535	64728.95
808.6591	369.4508	65535	64722.25
808.8025	371.643	65535	64728.5
808.9459	373.8346	65535	64724
809.0893	376.0257	65535	64721.8
809.2327	378.2162	65535	64721.7
809.3762	380.4062	65535	64716.5
809.5196	382.5956	65535	64714.15
809.6631	384.7844	65535	64717.85
809.8066	386.9726	65535	64716.25
809.9501	389.1603	65535	64717.55
810.0936	391.3474	65535	64681.9
810.2371	393.5339	65535	64721.65
810.3806	395.7199	65535	64726.1
810.5241	397.9052	65535	64727.3
810.6677	400.09	65535	64727.6
810.8113	402.2743	65535	64724.7
810.9548	404.4579	65535	64726.1
811.0984	406.641	65535	64726.1
811.2421	408.8235	65535	64724.6
811.3857	411.0054	65535	64721.15
811.5293	413.1868	65535	64721.3
811.673	415.3675	65535	64717.55
811.8166	417.5477	65535	64718.65
811.9603	419.7273	65535	64715.55
812.104	421.9064	65535	64706.4
812.2477	424.0848	65535	64710.1
812.3914	426.2627	65535	64710
812.5351	428.4399	65535	64705.45
812.6788	430.6166	65535	64702.95
812.8226	432.7928	65535	64703.05
812.9663	434.9683	65535	64706.25
813.1101	437.1432	65535	64703.45
813.2539	439.3176	65535	64705.5
813.3977	441.4914	65535	64704.9
813.5415	443.6645	65535	64701.6
813.6853	445.8371	65535	64702.9
813.8291	448.0091	65535	64700.45
813.973	450.1806	65535	64701.75
814.1168	452.3514	65535	64699.45
814.2607	454.5216	65535	64694.75
814.4046	456.6913	65535	64696.6
814.5485	458.8603	65535	64696
814.6924	461.0288	65535	64698.6
814.8363	463.1967	65535	64696.75
814.9802	465.3639	65535	64697.05
815.1241	467.5306	65535	64695.75
815.2681	469.6967	65535	64698.2
815.412	471.8622	65535	64697.05
815.556	474.0271	65535	64698.6
815.7	476.1914	65535	64690.35
815.844	478.3551	65535	64695.6
815.988	480.5182	65535	64695.2
816.132	482.6807	65535	64694.95
816.276	484.8426	65535	64696.75
816.4201	487.0039	65535	64695.4
816.5641	489.1647	65535	64692.7
816.7082	491.3248	65535	64694.15
816.8522	493.4843	65535	64692.5
816.9963	495.6432	65535	64693.3
817.1404	497.8015	65535	64687.05
817.2845	499.9592	65535	64690.4
817.4286	502.1163	65535	64688.75
817.5727	504.2728	65535	64687.3
817.7168	506.4287	65535	64691.7
817.861	508.5839	65535	64689.15
818.0051	510.7386	65535	64686.8
818.1493	512.8927	65535	64682.35
818.2935	515.0461	65535	64685.25
818.4377	517.199	65535	64686.35
818.5818	519.3512	65535	64684.8
818.726	521.5029	65535	64679
818.8703	523.6539	65535	64685.55
819.0145	525.8043	65535	64680.85
819.1587	527.9541	65535	64682.55
819.303	530.1033	65535	64681.6
819.4472	532.2519	65535	64682.65
819.5915	534.3999	65535	64675.3
819.7357	536.5472	65535	64681.25
819.88	538.694	65535	64678.7
820.0243	540.8401	65535	64679.25
820.1686	542.9856	65535	64678.1
820.3129	545.1305	65535	64674.25
820.4572	547.2748	65535	64671.5
820.6016	549.4185	65535	64672.2
820.7459	551.5615	65535	64675.1
820.8902	553.704	65535	64675.2
821.0346	555.8458	65535	64679.45
821.1789	557.987	65535	64675.95
821.3233	560.1276	65535	64674.35
821.4677	562.2675	65535	64677.25
821.6121	564.4069	65535	64676.5
821.7565	566.5456	65535	64677.1
821.9009	568.6837	65535	64677.5
822.0453	570.8212	65535	64678.55
822.1897	572.958	65535	64672.45
822.3342	575.0942	65535	64679.05
822.4786	577.2299	65535	64676.7
822.6231	579.3648	65535	64679.9
822.7675	581.4992	65535	64677.1
822.912	583.6329	65535	64677.8
823.0565	585.766	65535	64675.7
823.201	587.8985	65535	64677.45
823.3454	590.0304	65535	64649.55
823.4899	592.1616	65535	64670.75
823.6345	594.2922	65535	64672.75
823.779	596.4222	65535	64672.25
823.9235	598.5515	65535	64668.95
824.068	600.6802	65535	64668.65
824.2126	602.8083	65535	64668.4
824.3571	604.9358	65535	64670.4
824.5017	607.0626	65535	64668.85
824.6462	609.1888	65535	64669.45
824.7908	611.3144	65535	64665.4
824.9354	613.4393	65535	64670.55
825.08	615.5636	65535	64667.4
825.2246	617.6873	65535	64665.85
825.3692	619.8103	65535	64665.95
825.5138	621.9327	65535	64663.4
825.6584	624.0544	65535	64670.25
825.803	626.1756	65535	64666.1
825.9477	628.2961	65535	64666
826.0923	630.4159	65535	64665.95
826.237	632.5351	65535	64666.95
826.3816	634.6537	65535	64666.85
826.5263	636.7716	65535	64661
826.6709	638.8889	65535	64662.1
826.8156	641.0056	65535	64659.1
826.9603	643.1216	65535	64664.5
827.105	645.237	65535	64662.55
827.2497	647.3518	65535	64660.65
827.3944	649.4659	65535	64665.15
827.5391	651.5793	65535	64665.65
827.6838	653.6922	65535	64664.4
827.8285	655.8043	65535	64660.7
827.9733	657.9159	65535	64661.75
828.118	660.0268	65535	64660.1
828.2627	662.137	65535	64660.75
828.4075	664.2466	65535	64658.8
828.5522	666.3556	65535	64659.75
828.697	668.4639	65535	64657.5
828.8418	670.5716	65535	64659.7
828.9865	672.6786	65535	64658.5
829.1313	674.785	65535	64654.85
829.2761	676.8907	65535	64660.9
829.4209	678.9958	65535	64661.8
829.5657	681.1002	65535	64654.95
829.7105	683.204	65535	64656.05
829.8553	685.3072	65535	64656.6
830.0001	687.4097	65535	64655.5
830.1449	689.5115	65535	64651.9
830.2898	691.6127	65535	64656.9
830.4346	693.7132	65535	64654.9
830.5794	695.8131	65535	64647.65
830.7243	697.9123	65535	64653.45
830.8691	700.0109	65535	64654.55
831.014	702.1089	65535	64657.95
831.1588	704.2061	65535	64658.05
831.3037	706.3028	65535	64653.45
831.4486	708.3987	65535	64653.05
831.5935	710.4941	65535	64656.2
831.7383	712.5887	65535	64655.95
831.8832	714.6827	65535	64649.05
832.0281	716.7761	65535	64652.65
832.173	718.8688	65535	64652.45
832.3179	720.9608	65535	64650.5
832.4628	723.0522	65535	64645.3
832.6077	725.1429	65535	64651.5
832.7527	727.233	65535	64654.5
832.8976	729.3224	65535	64649.35
833.0425	731.4112	65535	64652
833.1874	733.4993	65535	64649.35
833.3324	735.5867	65535	64651.25
833.4773	737.6735	65535	64649.55
833.6222	739.7596	65535	64647.6
833.7672	741.845	65535	64651
833.9122	743.9298	65535	64651.95
834.0571	746.014	65535	64654.7
834.2021	748.0974	65535	64647.1
834.347	750.1802	65535	64650.75
834.492	752.2624	65535	64650.1
834.637	754.3439	65535	64645.5
834.782	756.4247	65535	64641.4
834.9269	758.5048	65535	64648.5
835.0719	760.5843	65535	64644.85
835.2169	762.6631	65535	64648.6
835.3619	764.7413	65535	64651.9
835.5069	766.8188	65535	64649.65
835.6519	768.8956	65535	64646.1
835.7969	770.9718	65535	64648.9
835.9419	773.0473	65535	64650.6
836.0869	775.1221	65535	64649.9
836.232	777.1962	65535	64647
836.377	779.2697	65535	64647.05
836.522	781.3426	65535	64630.1
836.667	783.4147	65535	64645.55
836.8121	785.4862	65535	64647.8
836.9571	787.557	65535	64650.25
837.1021	789.6271	65535	64649.45
837.2472	791.6966	65535	64646.5
837.3922	793.7654	65535	64645.65
837.5373	795.8335	65535	64647.85
837.6823	797.901	65535	64648.05
837.8274	799.9678	65535	64643.7
837.9724	802.0339	65535	64646.2
838.1175	804.0993	65535	64635.35
838.2626	806.1641	65535	64645.15
838.4076	808.2282	65535	64646.7
838.5527	810.2916	65535	64642.85
838.6978	812.3544	65535	64647.55
838.8428	814.4164	65535	64649.1
838.9879	816.4778	65535	64643.05
839.133	818.5385	65535	64645.4
839.2781	820.5986	65535	64645.95
839.4232	822.658	65535	64646.65
839.5682	824.7166	65535	64645.05
839.7133	826.7747	65535	64646.05
839.8584	828.832	65535	64645.7
840.0035	830.8886	65535	64642.35
840.1486	832.9446	65535	64643.65
840.2937	834.9999	65535	64647.6
840.4388	837.0545	65535	64640.25
840.5839	839.1085	65535	64645.75
840.729	841.1618	65535	64640.95
840.8741	843.2143	65535	64642.25
841.0192	845.2662	65535	64643.05
841.1643	847.3175	65535	64643.7
841.3095	849.368	65535	64643.3
841.4546	851.4179	65535	64643.5
841.5997	853.467	65535	64642.95
841.7448	855.5155	65535	64643.95
841.8899	857.5633	65535	64643.5
842.0351	859.6105	65535	64644.6
842.1802	861.6569	65535	64644.15
842.3253	863.7027	65535	64640.85
842.4704	865.7478	65535	64644.3
842.6156	867.7922	65535	64643.25
842.7607	869.8359	65535	64641.45
842.9058	871.8789	65535	64644.25
843.0509	873.9212	65535	64609.2
843.1961	875.9629	65535	64639.5
843.3412	878.0039	65535	64640.25
843.4863	880.0441	65535	64642.75
843.6315	882.0837	65535	64643.25
843.7766	884.1226	65535	64642.5
843.9218	886.1609	65535	64642.5
844.0669	888.1984	65535	64644.25
844.212	890.2352	65535	64640.45
844.3572	892.2714	65535	64636.8
844.5023	894.3069	65535	64637.85
844.6475	896.3416	65535	64640.55
844.7926	898.3757	65535	64640.1
844.9377	900.4091	65535	64641.15
845.0829	902.4418	65535	64637.15
845.228	904.4739	65535	64638
845.3732	906.5052	65535	64639.05
845.5183	908.5358	65535	64642.2
845.6635	910.5658	65535	64637.75
845.8086	912.595	65535	64639.95
845.9538	914.6236	65535	64641.35
846.0989	916.6515	65535	64641.25
846.2441	918.6786	65535	64638.55
846.3892	920.7051	65535	64639.75
846.5344	922.7309	65535	64639
846.6795	924.756	65535	64637.65
846.8246	926.7804	65535	64638.95
846.9698	928.8041	65535	64635.15
847.1149	930.8272	65535	64638.6
847.2601	932.8495	65535	64639.35
847.4052	934.8711	65535	64638.3
847.5504	936.892	65535	64638.65
847.6955	938.9123	65535	64639.7
847.8407	940.9318	65535	64638
847.9858	942.9506	65535	64639.6
848.131	944.9688	65535	64638.6
848.2761	946.9862	65535	64639.25
848.4213	949.003	65535	64637.7
848.5664	951.019	65535	64638.05
848.7115	953.0344	65535	64638.4
848.8567	955.0491	65535	64638
849.0018	957.063	65535	64637.95
849.147	959.0763	65535	64640.7
849.2921	961.0888	65535	64635.9
849.4373	963.1007	65535	64640.05
849.5824	965.1119	65535	64640.7
849.7275	967.1223	65535	64639.75
849.8727	969.1321	65535	64642.65
850.0178	971.1412	65535	64641.1
850.1629	973.1495	65535	64641.2
850.3081	975.1572	65535	64607.05
850.4532	977.1641	65535	64638.4
850.5983	979.1704	65535	64638.05
850.7435	981.1759	65535	64636.05
850.8886	983.1808	65535	64635.45
851.0337	985.1849	65535	64625.9
851.1788	987.1884	65535	64636.95
851.324	989.1911	65535	64634.45
851.4691	991.1932	65535	64636.55
851.6142	993.1945	65535	64639.6
851.7593	995.1951	65535	64638.95
851.9045	997.1951	65535	64630.75
852.0496	999.1943	65535	64637.5
852.1947	1001.1928	65535	64637.65
852.3398	1003.1906	65535	64637.45
852.4849	1005.1877	65535	64638.65
852.63	1007.1841	65535	64637.65
852.7751	1009.1798	65535	64639.25
852.9202	1011.1748	65535	64637.55
853.0653	1013.1691	65535	64637.75
853.2104	1015.1627	65535	64636.55
853.3555	1017.1556	65535	64639.95
853.5006	1019.1477	65535	64634.45
853.6457	1021.1392	65535	64637.8
853.7908	1023.1299	65535	64637.25
853.9359	1025.12	65535	64638.65
854.081	1027.1093	65535	64639.8
854.2261	1029.0979	65535	64641.5
854.3712	1031.0859	65535	64640.45
854.5163	1033.0731	65535	64639.55
854.6613	1035.0596	65535	64638
854.8064	1037.0454	65535	64639.3
854.9515	1039.0304	65535	64638.7
855.0965	1041.0148	65535	64635.75
855.2416	1042.9985	65535	64635.6
855.3867	1044.9814	65535	64639.85
855.5317	1046.9636	65535	64635.6
855.6768	1048.9452	65535	64638.1
855.8219	1050.926	65535	64640.55
855.9669	1052.9061	65535	64639.2
856.112	1054.8855	65535	64637.35
856.257	1056.8642	65535	64637.7
856.4021	1058.8421	65535	64632.5
856.5471	1060.8194	65535	64636
856.6921	1062.7959	65535	64637.1
856.8372	1064.7717	65535	64638
856.9822	1066.7469	65535	64636.45
857.1272	1068.7213	65535	64632.75
857.2723	1070.695	65535	64638
857.4173	1072.6679	65535	64639.95
857.5623	1074.6402	65535	64636.85
857.7073	1076.6117	65535	64631.3
857.8523	1078.5826	65535	64635.2
857.9973	1080.5527	65535	64633.2
858.1423	1082.5221	65535	64634.35
858.2873	1084.4908	65535	64635.85
858.4323	1086.4587	65535	64636.35
858.5773	1088.426	65535	64636.1
858.7223	1090.3925	65535	64631.35
858.8673	1092.3584	65535	64637
859.0123	1094.3235	65535	64637.9
859.1573	1096.2879	65535	64637.5
859.3022	1098.2515	65535	64635.1
859.4472	1100.2145	65535	64637.35
859.5922	1102.1767	65535	64635.75
859.7371	1104.1382	65535	64636.9
859.8821	1106.099	65535	64635.35
860.027	1108.0591	65535	64637.85
860.172	1110.0185	65535	64637.3
860.3169	1111.9771	65535	64638.5
860.4619	1113.9351	65535	64637.35
860.6068	1115.8923	65535	64637.35
860.7517	1117.8488	65535	64635.9
860.8967	1119.8045	65535	64640.15
861.0416	1121.7596	65535	64638.25
861.1865	1123.7139	65535	64638.8
861.3314	1125.6675	65535	64635.7
861.4763	1127.6204	65535	64637.3
861.6212	1129.5726	65535	64632.05
861.7661	1131.524	65535	64636.9
861.911	1133.4748	65535	64635.35
862.0559	1135.4248	65535	64636.2
862.2008	1137.3741	65535	64636.95
862.3457	1139.3226	65535	64634.85
862.4905	1141.2705	65535	64638.55
862.6354	1143.2176	65535	64632.4
862.7803	1145.164	65535	64634.85
862.9251	1147.1097	65535	64635.65
863.07	1149.0546	65535	64636.25
863.2148	1150.9989	65535	64635.75
863.3597	1152.9424	65535	64635.3
863.5045	1154.8852	65535	64635.05
863.6493	1156.8272	65535	64634.2
863.7942	1158.7686	65535	64629.85
863.939	1160.7092	65535	64639.55
864.0838	1162.6491	65535	64634.35
864.2286	1164.5883	65535	64639.25
864.3734	1166.5267	65535	64636.25
864.5182	1168.4644	65535	64638
864.663	1170.4014	65535	64632.05
864.8078	1172.3377	65535	64635.45
864.9526	1174.2732	65535	64635.85
865.0974	1176.2081	65535	64637.95
865.2421	1178.1421	65535	64634.05
865.3869	1180.0755	65535	64637.25
865.5317	1182.0082	65535	64635.35
865.6764	1183.9401	65535	64635.2
865.8212	1185.8713	65535	64636.75
865.9659	1187.8017	65535	64639
866.1106	1189.7315	65535	64639.5
866.2554	1191.6605	65535	64609.1
866.4001	1193.5888	65535	64636.35
866.5448	1195.5163	65535	64637.2
866.6895	1197.4432	65535	64636
866.8342	1199.3693	65535	64635.35
866.9789	1201.2947	65535	64632.6
867.1236	1203.2193	65535	64636.15
867.2683	1205.1432	65535	64636.55
867.413	1207.0664	65535	64637.2
867.5576	1208.9889	65535	64633.4
867.7023	1210.9106	65535	64636.25
867.847	1212.8316	65535	64637.45
867.9916	1214.7519	65535	64627.7
868.1363	1216.6715	65535	64637.25
868.2809	1218.5903	65535	64636.55
868.4255	1220.5084	65535	64636.55
868.5701	1222.4257	65535	64637.1
868.7148	1224.3424	65535	64638
868.8594	1226.2583	65535	64632.05
869.004	1228.1735	65535	64634.7
869.1486	1230.0879	65535	64636.05
869.2932	1232.0016	65535	64638.6
869.4377	1233.9146	65535	64636.95
869.5823	1235.8269	65535	64635
869.7269	1237.7384	65535	64637.6
869.8715	1239.6492	65535	64637.2
870.016	1241.5592	65535	64633.75
870.1606	1243.4686	65535	64636.75
870.3051	1245.3772	65535	64636.05
870.4496	1247.285	65535	64636.15
870.5941	1249.1922	65535	64637
870.7387	1251.0986	65535	64635.9
870.8832	1253.0042	65535	64634.8
871.0277	1254.9092	65535	64634.6
871.1722	1256.8134	65535	64638.8
871.3167	1258.7169	65535	64634.85
871.4611	1260.6196	65535	64637.2
871.6056	1262.5216	65535	64634.3
871.7501	1264.4229	65535	64639.15
871.8945	1266.3234	65535	64637.05
872.039	1268.2232	65535	64635.3
872.1834	1270.1223	65535	64633.2
872.3278	1272.0207	65535	64635.9
872.4723	1273.9183	65535	64630.9
872.6167	1275.8151	65535	64637.55
872.7611	1277.7113	65535	64638.9
872.9055	1279.6067	65535	64636.75
873.0499	1281.5014	65535	64635.8
873.1943	1283.3953	65535	64634.4
873.3386	1285.2885	65535	64634.5
873.483	1287.181	65535	64633.75
873.6274	1289.0727	65535	64638.6
873.7717	1290.9637	65535	64636.45
873.9161	1292.854	65535	64636
874.0604	1294.7435	65535	64636.6
874.2047	1296.6323	65535	64637.2
874.349	1298.5204	65535	64633.95
874.4933	1300.4077	65535	64636.8
874.6376	1302.2943	65535	64637.45
874.7819	1304.1802	65535	64638.25
874.9262	1306.0653	65535	64634.35
875.0705	1307.9497	65535	64634.6
875.2147	1309.8333	65535	64636.5
875.359	1311.7162	65535	64637.3
875.5032	1313.5984	65535	64632.5
875.6475	1315.4798	65535	64625.05
875.7917	1317.3605	65535	64620
875.9359	1319.2405	65535	64635.1
876.0801	1321.1197	65535	64635
876.2243	1322.9982	65535	64632.05
876.3685	1324.876	65535	64637.5
876.5127	1326.753	65535	64636.6
876.6569	1328.6293	65535	64636.7
876.801	1330.5048	65535	64633.25
876.9452	1332.3796	65535	64636.2
877.0893	1334.2537	65535	64611.6
877.2335	1336.127	65535	64636
877.3776	1337.9996	65535	64634.55
877.5217	1339.8714	65535	64636.65
877.6658	1341.7426	65535	64590.9
877.8099	1343.6129	65535	64635.65
877.954	1345.4826	65535	64636.35
878.0981	1347.3515	65535	64635.15
878.2422	1349.2196	65535	64636.05
878.3862	1351.087	65535	64636.05
878.5303	1352.9537	65535	64635.05
878.6743	1354.8197	65535	64635.6
878.8184	1356.6849	65535	64637.05
878.9624	1358.5493	65535	64635.35
879.1064	1360.4131	65535	64637.6
879.2504	1362.276	65535	64635.45
879.3944	1364.1383	65535	64636.35
879.5384	1365.9998	65535	64631.65
879.6823	1367.8606	65535	64633.15
879.8263	1369.7206	65535	64635.6
879.9702	1371.5799	65535	64633.95
880.1142	1373.4384	65535	64635.9
880.2581	1375.2962	65535	64634.35
880.402	1377.1533	65535	64637.75
880.5459	1379.0096	65535	64636.9
880.6898	1380.8652	65535	64637.9
880.8337	1382.7201	65535	64635.35
880.9776	1384.5742	65535	64634.6
881.1215	1386.4275	65535	64636.35
881.2653	1388.2802	65535	64638.15
881.4092	1390.132	65535	64637.25
881.553	1391.9832	65535	64635.05
881.6968	1393.8336	65535	64634.35
881.8406	1395.6832	65535	64635.8
881.9844	1397.5322	65535	64635.95
882.1282	1399.3803	65535	64633.9
882.272	1401.2278	65535	64637.15
882.4158	1403.0745	65535	64637.9
882.5595	1404.9204	65535	64636.95
882.7033	1406.7656	65535	64637.3
882.847	1408.6101	65535	64637.05
882.9908	1410.4538	65535	64636.55
883.1345	1412.2968	65535	64636.35
883.2782	1414.139	65535	64636.8
883.4219	1415.9805	65535	64637.45
883.5656	1417.8213	65535	64627.55
883.7092	1419.6613	65535	64636.05
883.8529	1421.5006	65535	64637
883.9965	1423.3391	65535	64637.3
884.1402	1425.1769	65535	64635
884.2838	1427.0139	65535	64634.6
884.4274	1428.8502	65535	64635.85
884.571	1430.6858	65535	64636.75
884.7146	1432.5206	65535	64636.4
884.8582	1434.3547	65535	64635.05
885.0018	1436.188	65535	64634.55
885.1453	1438.0206	65535	64632.8
885.2889	1439.8524	65535	64635.1
885.4324	1441.6835	65535	64634.85
885.5759	1443.5139	65535	64632.25
885.7194	1445.3435	65535	64636.05
885.8629	1447.1724	65535	64636.15
886.0064	1449.0005	65535	64638.5
886.1499	1450.8279	65535	64635.1
886.2933	1452.6545	65535	64634.75
886.4368	1454.4804	65535	64638
886.5802	1456.3056	65535	64629.45
886.7237	1458.13	65535	64637.8
886.8671	1459.9536	65535	64636.6
887.0105	1461.7766	65535	64637.35
887.1539	1463.5987	65535	64637
887.2972	1465.4202	65535	64636.15
887.4406	1467.2409	65535	64636.7
887.584	1469.0608	65535	64636.85
887.7273	1470.88	65535	64634.1
887.8706	1472.6984	65535	64636.5
888.0139	1474.5161	65535	64634.5
888.1572	1476.3331	65535	64637.05
888.3005	1478.1493	65535	64635.25
888.4438	1479.9648	65535	64637.65
888.5871	1481.7795	65535	64635.3
888.7303	1483.5935	65535	64636.95
888.8736	1485.4067	65535	64634.8
889.0168	1487.2192	65535	64636.5
889.16	1489.031	65535	64634.05
889.3032	1490.842	65535	64637.4
889.4464	1492.6522	65535	64637.9
889.5896	1494.4618	65535	64634.6
889.7327	1496.2705	65535	64636.5
889.8759	1498.0785	65535	64634
890.019	1499.8858	65535	64638.35
890.1622	1501.6924	65535	64637.9
890.3053	1503.4981	65535	64635.9
890.4484	1505.3032	65535	64639
890.5914	1507.1075	65535	64637.15
890.7345	1508.911	65535	64637.65
890.8776	1510.7138	65535	64637.3
891.0206	1512.5159	65535	64634.9
891.1637	1514.3172	65526.9	64629.3
891.3067	1516.1178	65532.5	64633.75
891.4497	1517.9176	65535	64634.25
891.5927	1519.7166	65533.6	64636.75
891.7357	1521.515	65526.7	64622.7
891.8786	1523.3126	65500	64600.05
892.0216	1525.1094	65527.2	64628.55
892.1645	1526.9055	65514.95	64617.9
892.3074	1528.7008	65518	64620.7
892.4503	1530.4954	65460.55	64556.15
892.5932	1532.2893	65521.55	64625
892.7361	1534.0824	65468	64564.05
892.879	1535.8747	65377.65	64479.15
893.0218	1537.6663	65517.25	64620
893.1647	1539.4572	65175.4	64274.7
893.3075	1541.2473	65352.4	64455.35
893.4503	1543.0367	65319.8	64423.05
893.5931	1544.8253	65262.2	64360.9
893.7359	1546.6132	65314.1	64415.25
893.8787	1548.4003	65195.5	64289
894.0214	1550.1867	65116.35	64211.05
894.1642	1551.9723	65024.6	64122.05
894.3069	1553.7572	65074.05	64176.3
894.4496	1555.5414	65198.7	64301.45
894.5923	1557.3247	64214.6	63320.55
894.735	1559.1074	65095.55	64200
894.8777	1560.8893	64762.95	63867.45
895.0204	1562.6705	64923.55	64025.85
895.163	1564.4509	64260.8	63365.6
895.3056	1566.2305	64558.5	63663.75
895.4482	1568.0094	64943.25	64048.95
895.5908	1569.7876	64623	63726.55
895.7334	1571.565	64199.7	63301.95
895.876	1573.3417	64484.4	63588.1
896.0186	1575.1176	64355.25	63460.55
896.1611	1576.8928	64114.1	63218.4
896.3036	1578.6672	63621.15	62726.3
896.4461	1580.4409	63964.3	63070.5
896.5886	1582.2138	63157.2	62258.55
896.7311	1583.986	63338.65	62443.05
896.8736	1585.7575	62582.15	61686.75
897.0161	1587.5282	62720.7	61826.2
897.1585	1589.2981	62774.35	61878.65
897.3009	1591.0673	62053.65	61158.75
897.4433	1592.8358	61582	60688.8
897.5857	1594.6035	62039.3	61142.1
897.7281	1596.3704	62149.45	61253.95
897.8705	1598.1366	61125.45	60230.35
898.0128	1599.9021	60602.6	59709.3
898.1551	1601.6668	61349.15	60452.1
898.2975	1603.4308	60920.05	60023.55
898.4398	1605.194	61097.3	60196.45
898.5821	1606.9564	59960.85	59067.05
898.7243	1608.7182	60553.7	59653.7
898.8666	1610.4791	60007.25	59113.6
899.0088	1612.2394	60486.85	59594.6
899.1511	1613.9988	59942.4	59048.25
899.2933	1615.7576	60655.7	59761.7
899.4355	1617.5156	60591.65	59689.75
899.5776	1619.2728	61369.7	60474.35
899.7198	1621.0293	60155.65	59260.45
899.862	1622.785	60222.05	59324.2
900.0041	1624.54	60640.05	59742.8
900.1462	1626.2942	59952.5	59056.45
900.2883	1628.0477	58858.5	57963
900.4304	1629.8005	58292.2	57393.75
900.5725	1631.5525	58728.2	57832.25
900.7145	1633.3037	57738.75	56843.15
900.8566	1635.0542	57682.15	56788.15
900.9986	1636.804	57820.65	56927.25
901.1406	1638.553	57045.8	56043.35
901.2826	1640.3013	57234.35	56338.6
901.4245	1642.0488	56592.9	55696.85
901.5665	1643.7955	56868.45	55974.55
901.7085	1645.5416	56442.65	55549.55
901.8504	1647.2868	56197.25	55303.3
901.9923	1649.0313	56667.6	55772.8
902.1342	1650.7751	56317.8	55421.3
902.2761	1652.5181	56045.1	55149.8
902.4179	1654.2604	56108.9	55214.9
902.5598	1656.0019	56627.55	55734.05
902.7016	1657.7427	56419.7	55527
902.8434	1659.4828	56868.9	55974.45
902.9852	1661.222	56689.35	55795.8
903.127	1662.9606	56872.75	55977.45
903.2687	1664.6984	56374.9	55479.75
903.4105	1666.4354	56172.15	55277.75
903.5522	1668.1717	55261.5	54368.05
903.6939	1669.9072	54598.9	53704.65
903.8356	1671.642	54225.35	53329.15
903.9773	1673.3761	53858.05	52965.25
904.119	1675.1094	53531.15	52639.9
904.2606	1676.8419	53143.7	52250.45
904.4022	1678.5737	52821.45	51926.8
904.5439	1680.3048	52515.35	51620.7
904.6855	1682.0351	52234.85	51341.85
904.827	1683.7646	51888.95	50992.25
904.9686	1685.4934	51854.65	50962.2
905.1101	1687.2215	51309	50413.25
905.2517	1688.9488	51353.4	50461.05
905.3932	1690.6754	50606.3	49711.55
905.5347	1692.4012	50741.7	49848.85
905.6761	1694.1263	50635.5	49741.9
905.8176	1695.8506	50421.55	49527.15
905.9591	1697.5742	50179.75	49287.1
906.1005	1699.297	49958.7	49065.5
906.2419	1701.0191	49745	48853.2
906.3833	1702.7404	49467.05	48575.15
906.5246	1704.461	49160.35	48263.95
906.666	1706.1808	48999.1	48104.05
906.8073	1707.8999	48826.85	47932.2
906.9487	1709.6182	48681.7	47787.9
907.09	1711.3358	48604.85	47711.4
907.2313	1713.0527	48344.05	47450.75
907.3725	1714.7688	48207.85	47309.4
907.5138	1716.4841	47882.55	46986.8
907.655	1718.1987	47899.1	46999.4
907.7962	1719.9126	47699.45	46807.85
907.9374	1721.6257	47444.3	46548.8
908.0786	1723.338	47406.6	46512.35
908.2198	1725.0496	47040.3	46146
908.3609	1726.7605	47003.95	46109.95
908.502	1728.4706	46794.25	45900.15
908.6431	1730.18	46520.05	45626
908.7842	1731.8886	46404.55	45511.35
908.9253	1733.5964	46268.95	45354
909.0664	1735.3036	46154.9	45258.4
909.2074	1737.0099	46039.65	45145.85
909.3484	1738.7156	45880.85	44989.8
909.4894	1740.4204	45599.7	44705.1
909.6304	1742.1246	45592.05	44696.75
909.7714	1743.8279	45460.8	44569.05
909.9123	1745.5306	45348.15	44451.8
910.0532	1747.2325	45154.8	44260.15
910.1941	1748.9336	44956.1	44063.45
910.335	1750.634	44807.15	43913.5
910.4759	1752.3336	44699.65	43806.9
910.6168	1754.0325	44501.7	43612.05
910.7576	1755.7307	44482.65	43591.2
910.8984	1757.4281	44360.4	43468.25
911.0392	1759.1247	44301.95	43399.35
911.18	1760.8206	44160.1	43262.35
911.3208	1762.5158	44058.95	43162.25
911.4615	1764.2102	43782.65	42890.8
911.6022	1765.9039	43650.1	42759.4
911.7429	1767.5968	43558.2	42666
911.8836	1769.289	43463.55	42570
912.0243	1770.9804	43313.9	42417.9
912.1649	1772.6711	43309.95	42417.15
912.3056	1774.361	43074.8	42181.5
912.4462	1776.0502	43002.85	42110.85
912.5868	1777.7386	42824.4	41930.5
912.7274	1779.4263	42659.45	41767.5
912.8679	1781.1132	42648.7	41757.25
913.0084	1782.7994	42457.1	41561.65
913.149	1784.4849	42356	41464
913.2895	1786.1696	42182.6	41284.7
913.4299	1787.8535	42089.65	41195.5
913.5704	1789.5367	41932.3	41039.65
913.7108	1791.2192	41876.95	40986.2
913.8513	1792.9009	41669.7	40747.95
913.9917	1794.5818	41540.7	40644.95
914.132	1796.2621	41403.15	40513.7
914.2724	1797.9415	41341.5	40448.75
914.4128	1799.6202	41203.05	40310.85
914.5531	1801.2982	41112.9	40219.95
914.6934	1802.9755	41005.3	40111.85
914.8337	1804.6519	40954.6	40059.8
914.9739	1806.3277	40672.85	39781.2
915.1142	1808.0027	40575.3	39681.9
915.2544	1809.6769	40479.25	39588.7
915.3946	1811.3504	40292.2	39398.3
915.5348	1813.0231	40232.15	39338.1
915.675	1814.6951	40152.3	39259.95
915.8151	1816.3664	40195.45	39302.15
915.9553	1818.0369	39969.5	39077.2
916.0954	1819.7067	39859.35	38966.8
916.2355	1821.3757	39736.2	38841.6
916.3755	1823.044	39663.25	38770.8
916.5156	1824.7115	39558.75	38665.2
916.6556	1826.3783	39314.65	38422.35
916.7956	1828.0443	39266.4	38375.75
916.9356	1829.7096	39131.75	38239.2
917.0756	1831.3741	39086	38187.85
917.2155	1833.0379	38935.1	38043.4
917.3555	1834.701	38804.05	37911.3
917.4954	1836.3633	38781.6	37886.8
917.6353	1838.0248	38556.15	37662.55
917.7751	1839.6856	38518.45	37627.35
917.915	1841.3457	38497.55	37607.05
918.0548	1843.005	38365.2	37472.9
918.1946	1844.6636	38228.2	37337.85
918.3344	1846.3214	38113.55	37222.2
918.4742	1847.9785	38045.85	37156.05
918.6139	1849.6349	37897.15	37005.25
918.7537	1851.2904	37905.05	37001.8
918.8934	1852.9453	37775.05	36881.05
919.0331	1854.5994	37626.75	36731.55
919.1727	1856.2528	37615.05	36715
919.3124	1857.9054	37457.8	36565.7
919.452	1859.5572	37423.35	36532.75
919.5916	1861.2083	37300.7	36407.95
919.7312	1862.8587	37272.45	36378.95
919.8708	1864.5084	37126.8	36234.45
920.0103	1866.1572	36995.55	36105.2
920.1498	1867.8054	36842.85	35952.15
920.2893	1869.4528	36755.55	35862.95
920.4288	1871.0994	36609.1	35716.75
920.5683	1872.7453	36579.9	35686.7
920.7077	1874.3905	36393.4	35492.25
920.8471	1876.0349	36344.05	35451.45
920.9865	1877.6786	36302	35409
921.1259	1879.3215	36218.25	35328.45
921.2653	1880.9637	36089	35198.8
921.4046	1882.6051	36058.85	35167.05
921.5439	1884.2458	35948.15	35055.15
921.6832	1885.8858	35772.55	34880.25
921.8225	1887.525	35752.65	34858.75
921.9617	1889.1634	35569.8	34678
922.101	1890.8011	35372	34479.9
922.2402	1892.4381	35317.4	34423.8
922.3794	1894.0743	35298.65	34406.7
922.5185	1895.7098	35151.2	34258.8
922.6577	1897.3446	35032.7	34140.05
922.7968	1898.9786	34929.9	34032.75
922.9359	1900.6118	34875.8	33983.8
923.075	1902.2443	34683.45	33788.95
923.214	1903.8761	34584.65	33691.5
923.3531	1905.5071	34393.2	33499.9
923.4921	1907.1374	34254.55	33363.55
923.6311	1908.7669	34186.85	33296.55
923.77	1910.3957	34122.55	33230.65
923.909	1912.0237	33939.85	33046.3
924.0479	1913.651	33874.05	32980.7
924.1868	1915.2776	33812.6	32921.05
924.3257	1916.9034	33608.05	32717.8
924.4646	1918.5285	33443.85	32552.7
924.6034	1920.1528	33247.55	32354.45
924.7422	1921.7764	33268.2	32376.9
924.881	1923.3992	33099.8	32209.6
925.0198	1925.0213	32856.15	31964.2
925.1586	1926.6427	32741.3	31850.45
925.2973	1928.2633	32735.1	31737.8
925.436	1929.8832	32545	31652.8
925.5747	1931.5023	32398.9	31507.1
925.7134	1933.1207	32326.6	31434.4
925.852	1934.7383	32243.55	31349.1
925.9906	1936.3552	32123.55	31231.9
926.1292	1937.9714	32053.3	31161.4
926.2678	1939.5868	31849.8	30957.2
926.4064	1941.2015	31680.75	30786.8
926.5449	1942.8154	31577.1	30686.55
926.6834	1944.4286	31360.65	30469.6
926.8219	1946.041	31284.25	30375.05
926.9604	1947.6528	31135.15	30239.4
927.0988	1949.2637	31081.95	30189
927.2372	1950.8739	30918.45	30025.9
927.3756	1952.4834	30848.75	29956.25
927.514	1954.0921	30810.6	29916.5
927.6523	1955.7001	30670.9	29774.95
927.7907	1957.3074	30530.8	29640.8
927.929	1958.9139	30432.55	29541.05
928.0673	1960.5197	30269.5	29372.95
928.2055	1962.1247	30144.45	29253.65
928.3438	1963.729	30002.5	29112.1
928.482	1965.3325	29915.25	29002.7
928.6202	1966.9353	29781.75	28890.75
928.7584	1968.5374	29685.3	28793.4
928.8965	1970.1387	29610.8	28717.8
929.0346	1971.7393	29476.5	28583.35
929.1727	1973.3392	29395.55	28503.5
929.3108	1974.9383	29229.1	28338.4
929.4489	1976.5366	29151.75	28259.35
929.5869	1978.1342	29091.05	28200.3
929.7249	1979.7311	29060.95	28168
929.8629	1981.3273	28899.25	28006.85
930.0009	1982.9227	28809.4	27916.5
930.1388	1984.5173	28677.9	27788.2
930.2767	1986.1112	28511.95	27622.35
930.4146	1987.7044	28439.75	27549.45
930.5525	1989.2968	28344.2	27450.7
930.6904	1990.8885	28312.25	27418.05
930.8282	1992.4795	28236.25	27344.7
930.966	1994.0697	28110.3	27218.3
931.1038	1995.6592	27981.4	27089.8
931.2415	1997.2479	27878.7	26988.95
931.3793	1998.8359	27819.1	26929.35
931.517	2000.4232	27679.75	26789.5
931.6547	2002.0097	27603.55	26713.45
931.7923	2003.5955	27447.3	26555.25
931.93	2005.1805	27429.3	26536.4
932.0676	2006.7648	27327.6	26437.95
932.2052	2008.3484	27233.4	26341.8
932.3427	2009.9312	27262.2	26368.5
932.4803	2011.5133	27084.55	26195.1
932.6178	2013.0946	27042.1	26151.9
932.7553	2014.6752	26908.4	26018.1
932.8928	2016.2551	26829.6	25936.9
933.0302	2017.8342	26708.3	25818
933.1676	2019.4126	26664.85	25774.25
933.305	2020.9902	26489.9	25599.95
933.4424	2022.5672	26437.85	25545.15
933.5798	2024.1433	26374.8	25478.7
933.7171	2025.7188	26262.95	25375.55
933.8544	2027.2935	26184.3	25293.25
933.9917	2028.8674	26087.8	25198.05
934.129	2030.4406	26021.95	25132.9
934.2662	2032.0131	25881.65	24990.75
934.4034	2033.5849	25759.1	24860.15
934.5406	2035.1559	25694.35	24802.55
934.6778	2036.7261	25663.8	24771.15
934.8149	2038.2957	25577.75	24688.2
934.952	2039.8645	25500.45	24609.7
935.0891	2041.4325	25479.15	24584.75
935.2262	2042.9998	25365.65	24475.3
935.3632	2044.5664	25271	24378.9
935.5002	2046.1323	25221.6	24330.05
935.6372	2047.6974	25122	24231.65
935.7742	2049.2617	25025.05	24135.9
935.9111	2050.8254	25028.5	24115.55
936.048	2052.3883	24990.25	24096.95
936.1849	2053.9504	24845.95	23956.05
936.3218	2055.5118	24767	23876.2
936.4586	2057.0725	24642.7	23749.55
936.5955	2058.6325	24587.75	23697.15
936.7323	2060.1917	24495.7	23605.35
936.869	2061.7502	24466.35	23572.2
937.0058	2063.3079	24336.15	23445.6
937.1425	2064.8649	24235.8	23341.95
937.2792	2066.4212	24206.15	23313.85
937.4159	2067.9767	24136.95	23247.5
937.5525	2069.5315	24031.7	23139.8
937.6891	2071.0856	23898.9	23007.85
937.8257	2072.6389	23777.05	22883.95
937.9623	2074.1915	23644	22755.45
938.0989	2075.7433	23562.65	22669.1
938.2354	2077.2945	23515.55	22625.9
938.3719	2078.8448	23423.45	22530.6
938.5084	2080.3945	23350.45	22458.35
938.6448	2081.9434	23282.6	22391.45
938.7812	2083.4916	23223.45	22331
938.9176	2085.039	23109.4	22217.65
939.054	2086.5857	23028.05	22135.9
939.1903	2088.1317	22976.35	22084.75
939.3267	2089.677	22913.9	22023.3
939.463	2091.2215	22860	21969.15
939.5992	2092.7652	22816.85	21924.75
939.7355	2094.3083	22727.8	21834.95
939.8717	2095.8506	22662.9	21773.75
940.0079	2097.3921	22670.35	21780.45
940.1441	2098.933	22541.45	21650.9
940.2802	2100.4731	22481.4	21588.9
940.4163	2102.0124	22459.45	21560.6
940.5524	2103.5511	22355.65	21464.8
940.6885	2105.089	22345.8	21454.85
940.8245	2106.6261	22270.85	21379.55
940.9606	2108.1626	22161.85	21270.2
941.0965	2109.6983	22138.05	21219.75
941.2325	2111.2332	22038.9	21146.85
941.3684	2112.7675	21987.5	21095.4
941.5044	2114.301	21890.5	20997.55
941.6403	2115.8337	21886.8	20993.45
941.7761	2117.3657	21790.6	20899.55
941.912	2118.897	21737.85	20846.9
942.0478	2120.4276	21688.1	20790.4
942.1835	2121.9575	21558.9	20667.05
942.3193	2123.4866	21545	20640.4
942.455	2125.0149	21460.9	20566.95
942.5907	2126.5426	21330.55	20438.7
942.7264	2128.0695	21303.45	20408.85
942.8621	2129.5956	21279.55	20389
942.9977	2131.1211	21215.3	20318.65
943.1333	2132.6458	21133.4	20241.55
943.2689	2134.1698	21091.15	20199.4
943.4044	2135.693	21001.5	20105.1
943.54	2137.2155	20982.1	20087.45
943.6755	2138.7373	20911.5	20018.5
943.8109	2140.2584	20818.75	19927.65
943.9464	2141.7787	20751.6	19857.05
944.0818	2143.2983	20637	19746.95
944.2172	2144.8171	20544.9	19655.35
944.3526	2146.3353	20504.65	19610
944.4879	2147.8527	20400.5	19510.6
944.6232	2149.3693	20387.85	19496.25
944.7585	2150.8853	20292.25	19399.55
944.8938	2152.4005	20188.65	19298.6
945.029	2153.9149	20170.3	19276.5
945.1642	2155.4287	20069.8	19179.75
945.2994	2156.9417	20046.55	19153.7
945.4346	2158.454	19980.85	19088.6
945.5697	2159.9655	19912.35	19021
945.7048	2161.4764	19851.6	18959.9
945.8399	2162.9865	19785.7	18893.6
945.9749	2164.4958	19758.35	18865.05
946.1099	2166.0045	19614.5	18719.45
946.2449	2167.5124	19642.35	18751.3
946.3799	2169.0195	19616.5	18725.75
946.5148	2170.526	19532.95	18640.5
946.6498	2172.0317	19457.7	18567.5
946.7846	2173.5367	19449.55	18555.35
946.9195	2175.0409	19364.4	18474.85
947.0543	2176.5445	19338.55	18447.15
947.1891	2178.0473	19267.9	18376.95
947.3239	2179.5494	19157.45	18262.7
947.4587	2181.0507	19092.75	18199.5
947.5934	2182.5513	19045.55	18154.4
947.7281	2184.0512	18991.05	18099.45
947.8628	2185.5504	18939.1	18050
947.9974	2187.0488	18811.65	17920.95
948.132	2188.5465	18761.6	17870.95
948.2666	2190.0435	18639.1	17748.4
948.4012	2191.5397	18613.1	17722.1
948.5357	2193.0353	18549.1	17657.6
948.6702	2194.5301	18462.95	17570.65
948.8047	2196.0241	18370.5	17478.7
948.9392	2197.5175	18351.85	17460.85
949.0736	2199.0101	18249.35	17353.45
949.208	2200.502	18147.5	17257.45
949.3424	2201.9931	18068.4	17178.25
949.4767	2203.4835	18025.15	17131.3
949.611	2204.9733	17966.55	17068.8
949.7453	2206.4622	17944	17052.25
949.8796	2207.9505	17864.3	16969.45
950.0138	2209.438	17775.1	16884.6
950.148	2210.9248	17706.75	16813.8
950.2822	2212.4109	17664.95	16773.35
950.4164	2213.8962	17581.45	16686.95
950.5505	2215.3809	17531.55	16639.3
950.6846	2216.8648	17487.7	16597
950.8186	2218.3479	17414.35	16518.6
950.9527	2219.8304	17375.35	16482.9
951.0867	2221.3121	17341.85	16448.8
951.2207	2222.7931	17210.3	16318.05
951.3546	2224.2733	17182.95	16290.4
951.4886	2225.7529	17102.2	16210.95
951.6225	2227.2317	17056.95	16161.8
951.7563	2228.7098	16997.5	16105.95
951.8902	2230.1872	16922	16032.2
952.024	2231.6638	16891.95	16000.9
952.1578	2233.1397	16820.25	15924.1
952.2916	2234.6149	16767.15	15876.6
952.4253	2236.0894	16701.65	15809
952.559	2237.5632	16684.2	15781.25
952.6927	2239.0362	16603.6	15711.85
952.8263	2240.5085	16526.95	15634.85
952.9599	2241.9801	16453.8	15560.9
953.0935	2243.4509	16422.35	15530.6
953.2271	2244.921	16384.35	15491.25
953.3606	2246.3904	16269.35	15374.15
953.4941	2247.8591	16217.35	15325.05
953.6276	2249.3271	16205	15313.9
953.7611	2250.7943	16154.1	15261.55
953.8945	2252.2608	16068.15	15177.2
954.0279	2253.7266	16022.1	15131.85
954.1612	2255.1917	16002	15111.15
954.2946	2256.656	15896.9	15004.45
954.4279	2258.1197	15802.75	14911.8
954.5612	2259.5826	15776	14882.15
954.6944	2261.0447	15767.75	14872.65
954.8276	2262.5062	15678.7	14783.25
954.9608	2263.9669	15659.5	14764.9
955.094	2265.4269	15633.75	14742.6
955.2271	2266.8862	15549.6	14656.15
955.3602	2268.3448	15528.65	14636.65
955.4933	2269.8026	15494.2	14603.3
955.6264	2271.2598	15454.55	14562.45
955.7594	2272.7162	15355.95	14466.15
955.8924	2274.1719	15323.55	14431.4
956.0253	2275.6268	15260.25	14367.9
956.1583	2277.0811	15231.6	14337.5
956.2912	2278.5346	15194.9	14302.85
956.4241	2279.9874	15164.2	14271.1
956.5569	2281.4395	15112.7	14222.75
956.6897	2282.8908	15054.15	14158.05
956.8225	2284.3414	15016.3	14124.15
956.9553	2285.7914	14933.15	14041.8
957.088	2287.2406	14896.4	14003.75
957.2207	2288.689	14867.5	13975.4
957.3534	2290.1368	14817.7	13924.2
957.486	2291.5838	14754.5	13857.9
957.6186	2293.0302	14700.95	13808.1
957.7512	2294.4758	14647.8	13757.65
957.8838	2295.9206	14585.7	13692.45
958.0163	2297.3648	14545.2	13654.3
958.1488	2298.8082	14531.85	13640.15
958.2813	2300.251	14485.6	13593.9
958.4137	2301.693	14406	13510.65
958.5461	2303.1343	14411.9	13519.65
958.6785	2304.5748	14338.55	13447.7
958.8108	2306.0147	14303.4	13410.9
958.9432	2307.4538	14259.25	13367.15
959.0754	2308.8922	14223.05	13333.6
959.2077	2310.3299	14157.7	13267.15
959.3399	2311.7669	14102.2	13211
959.4721	2313.2031	14040.3	13150
959.6043	2314.6387	14001.85	13107.7
959.7365	2316.0735	13943.8	13051.5
959.8686	2317.5076	13940.6	13047.6
960.0006	2318.941	13876.2	12985.25
960.1327	2320.3737	13831.25	12939.3
960.2647	2321.8056	13781.8	12887.5
960.3967	2323.2369	13730.75	12837.6
960.5287	2324.6674	13720.25	12826.9
960.6606	2326.0972	13658.6	12765.7
960.7925	2327.5263	13598.2	12704.3
960.9244	2328.9547	13540.1	12647.45
961.0562	2330.3823	13501.65	12609.1
961.1881	2331.8092	13491.9	12596.3
961.3198	2333.2355	13408.75	12514.7
961.4516	2334.661	13394.35	12501.8
961.5833	2336.0858	13379.75	12486.6
961.715	2337.5098	13339.75	12446.65
961.8467	2338.9332	13292.35	12399.2
961.9783	2340.3558	13225.9	12331.75
962.1099	2341.7778	13180.6	12284.95
962.2415	2343.199	13109	12214.45
962.373	2344.6195	13098.8	12207.9
962.5045	2346.0393	13054.9	12163.2
962.636	2347.4583	13041.9	12150.7
962.7675	2348.8767	12988.9	12095.1
962.8989	2350.2943	12942.3	12049.2
963.0303	2351.7113	12917.05	12023.7
963.1617	2353.1275	12847.55	11955.1
963.293	2354.543	12842.25	11925.5
963.4243	2355.9578	12790.95	11898.4
963.5556	2357.3718	12703	11811.35
963.6868	2358.7852	12634.8	11742.2
963.818	2360.1978	12567.9	11676.8
963.9492	2361.6098	12549.9	11657.65
964.0803	2363.021	12535.25	11640.05
964.2114	2364.4315	12485.2	11593.9
964.3425	2365.8413	12450.05	11557.2
964.4736	2367.2504	12405.35	11514.4
964.6046	2368.6587	12318.95	11427.8
964.7356	2370.0664	12267.4	11375.65
964.8666	2371.4733	12249.15	11358.4
964.9975	2372.8795	12181.2	11289.55
965.1284	2374.285	12124.75	11233.45
965.2593	2375.6899	12062.75	11171.1
965.3901	2377.0939	12001.4	11110.05
965.5209	2378.4973	11960.75	11069.7
965.6517	2379.9	11922.9	11030.7
965.7825	2381.3019	11894.05	11002.35
965.9132	2382.7032	11862.1	10970.85
966.0439	2384.1037	11831.7	10941.5
966.1745	2385.5035	11769.35	10879.75
966.3051	2386.9027	11739.95	10849.55
966.4357	2388.3011	11712.35	10817.9
966.5663	2389.6987	11677.8	10787.55
966.6968	2391.0957	11608.9	10717.4
966.8273	2392.492	11564.55	10673.8
966.9578	2393.8876	11477.65	10585.7
967.0882	2395.2824	11467.2	10575.2
967.2186	2396.6765	11402.15	10511
967.349	2398.07	11345.2	10455
967.4793	2399.4627	11316	10425.75
967.6097	2400.8547	11307.8	10416
967.7399	2402.246	11262.2	10366.65
967.8702	2403.6366	11199.85	10306.85
968.0004	2405.0265	11138.85	10248.85
968.1306	2406.4156	11117.05	10220.35
968.2607	2407.8041	11044.5	10148.95
968.3909	2409.1918	11013.1	10120.85
968.521	2410.5789	10970.65	10080
968.651	2411.9652	10944.6	10051.3
968.781	2413.3508	10899.8	10007.8
968.911	2414.7358	10861.1	9968.5
969.041	2416.12	10819	9929.2
969.1709	2417.5035	10780	9888
969.3008	2418.8863	10708.95	9818.4
969.4307	2420.2684	10673.85	9783.05
969.5606	2421.6497	10652.05	9761.2
969.6904	2423.0304	10595.75	9705.7
969.8201	2424.4104	10532.8	9639.5
969.9499	2425.7896	10501.3	9604.45
970.0796	2427.1682	10499.7	9608.75
970.2093	2428.546	10478.15	9586.15
970.3389	2429.9232	10431.6	9538.85
970.4685	2431.2996	10416.05	9525.5
970.5981	2432.6753	10391.05	9501
970.7277	2434.0503	10356.15	9466.2
970.8572	2435.4246	10318.6	9427.55
970.9867	2436.7982	10271.4	9377.9
971.1161	2438.1711	10236.4	9346.45
971.2456	2439.5433	10199.25	9306.2
971.375	2440.9148	10149.1	9256.35
971.5043	2442.2856	10106.4	9214.35
971.6336	2443.6557	10081.05	9190.1
971.7629	2445.025	10042.65	9153.2
971.8922	2446.3937	10031.95	9140.5
972.0214	2447.7617	9969.25	9078.5
972.1506	2449.1289	9947.15	9055.95
972.2798	2450.4955	9933.05	9038.6
972.4089	2451.8613	9907.9	9017.85
972.538	2453.2265	9848.1	8956.1
972.6671	2454.5909	9821.6	8928.7
972.7961	2455.9546	9827.35	8938.3
972.9251	2457.3177	9782.25	8891.8
973.0541	2458.68	9718.35	8825.9
973.1831	2460.0416	9746.7	8855.85
973.312	2461.4025	9716.95	8823.55
973.4408	2462.7627	9684.65	8781.9
973.5697	2464.1222	9652.1	8760.05
973.6985	2465.4811	9619.3	8726.55
973.8273	2466.8392	9566.15	8675.2
973.956	2468.1966	9537.95	8644.8
974.0847	2469.5533	9527.5	8633.35
974.2134	2470.9093	9526.9	8634.65
974.3421	2472.2645	9468.9	8575.25
974.4707	2473.6191	9440.15	8548.15
974.5993	2474.973	9394.15	8503.4
974.7278	2476.3262	9394.55	8501.6
974.8563	2477.6787	9364.65	8474.75
974.9848	2479.0305	9291.65	8402.25
975.1132	2480.3816	9257.85	8365.6
975.2417	2481.7319	9239.6	8348.05
975.37	2483.0816	9192.7	8301.7
975.4984	2484.4306	9155	8262.9
975.6267	2485.7789	9114.2	8221
975.755	2487.1264	9042.75	8150.15
975.8833	2488.4733	9030.8	8141.75
976.0115	2489.8195	9018.95	8121.6
976.1397	2491.165	8985	8089.55
976.2678	2492.5097	8955.5	8060.75
976.3959	2493.8538	8903.5	8012.4
976.524	2495.1972	8860.4	7967.6
976.6521	2496.5398	8842.75	7948.75
976.7801	2497.8818	8801.15	7907.75
976.9081	2499.2231	8788.1	7896.55
977.036	2500.5637	8743.6	7850.85
977.164	2501.9035	8723.75	7830.8
977.2918	2503.2427	8688.1	7791.6
977.4197	2504.5812	8660.65	7769.95
977.5475	2505.919	8651.15	7756.25
977.6753	2507.256	8628.65	7737.15
977.8031	2508.5924	8591.7	7700.1
977.9308	2509.9281	8551.25	7652.6
978.0585	2511.2631	8520.7	7628.45
978.1861	2512.5974	8493.7	7603.45
978.3137	2513.9309	8479.7	7587.65
978.4413	2515.2638	8463.2	7538.55
978.5689	2516.596	8428.4	7537.25
978.6964	2517.9275	8377.1	7483.25
978.8239	2519.2583	8333.15	7439.15
978.9513	2520.5884	8298.65	7402.75
979.0788	2521.9178	8252.45	7360.7
979.2062	2523.2465	8216.9	7326.75
979.3335	2524.5745	8201.8	7311.75
979.4608	2525.9018	8156.5	7263.3
979.5881	2527.2284	8146.85	7254.15
979.7154	2528.5543	8147.55	7256.8
979.8426	2529.8796	8119.85	7228.15
979.9698	2531.2041	8106.6	7214.7
980.0969	2532.5279	8087.9	7196.35
980.224	2533.851	8061.25	7167.45
980.3511	2535.1735	8034.35	7144.8
980.4781	2536.4952	8015.5	7123.45
980.6052	2537.8163	7999	7107.2
980.7321	2539.1366	7972.35	7081.7
980.8591	2540.4562	7934.3	7042.65
980.986	2541.7752	7920.95	7028.3
981.1129	2543.0935	7899.9	7008
981.2397	2544.411	7886	6993.85
981.3665	2545.7279	7856.6	6965.3
981.4933	2547.0441	7835.1	6943.6
981.62	2548.3596	7830.75	6936.25
981.7467	2549.6744	7833.25	6943.1
981.8734	2550.9885	7778.85	6884.4
982.0001	2552.3019	7744.45	6852.7
982.1267	2553.6146	7746.5	6853.2
982.2532	2554.9266	7698.7	6807.7
982.3798	2556.2379	7675.4	6782.35
982.5063	2557.5485	7674.3	6784.3
982.6327	2558.8585	7655.55	6756.55
982.7592	2560.1677	7642.7	6747.1
982.8856	2561.4762	7608.2	6717.65
983.0119	2562.7841	7622.85	6728.55
983.1383	2564.0913	7570.6	6680.2
983.2646	2565.3977	7577.6	6685.25
983.3908	2566.7035	7545.75	6653.35
983.517	2568.0086	7538.95	6647.15
983.6432	2569.313	7497.45	6605.15
983.7694	2570.6167	7497.1	6601.95
983.8955	2571.9197	7469.5	6578.05
984.0216	2573.222	7468.7	6575.65
984.1476	2574.5236	7442	6550.1
984.2737	2575.8246	7417.25	6524.25
984.3996	2577.1248	7409.4	6514.85
984.5256	2578.4244	7409.3	6517.55
984.6515	2579.7232	7379.15	6488.8
984.7774	2581.0214	7389.55	6474.65
984.9032	2582.3189	7330.55	6440.45
985.029	2583.6157	7335.65	6440.6
985.1548	2584.9118	7321.6	6426.8
985.2806	2586.2072	7286.6	6394.2
985.4063	2587.5019	7272.35	6380.95
985.5319	2588.7959	7215.55	6324.35
985.6576	2590.0893	7229.15	6336.85
985.7832	2591.3819	7196.8	6305.15
985.9087	2592.6739	7185	6293.8
986.0343	2593.9652	7181.55	6290.35
986.1597	2595.2557	7148.2	6257.3
986.2852	2596.5456	7105.7	6212.9
986.4106	2597.8348	7084.25	6192.55
986.536	2599.1234	7046.15	6155.8
986.6614	2600.4112	7051.55	6158.5
986.7867	2601.6983	7033.65	6138.95
986.912	2602.9848	7024.75	6131
987.0372	2604.2705	6974.8	6076.75
987.1624	2605.5556	6958.55	6068.9
987.2876	2606.84	6928.1	6037.2
987.4128	2608.1237	6898.45	6006.55
987.5379	2609.4067	6885.05	5993.05
987.6629	2610.689	6849.4	5948.15
987.788	2611.9707	6835.05	5939.7
987.913	2613.2516	6808.5	5911.4
988.0379	2614.5319	6759.15	5869.65
988.1629	2615.8115	6740.2	5848.1
988.2878	2617.0903	6713.4	5821.5
988.4126	2618.3685	6709.3	5817.15
988.5375	2619.6461	6679.85	5787.9
988.6622	2620.9229	6658.15	5766.95
988.787	2622.199	6647.15	5756.3
988.9117	2623.4745	6625.45	5732.9
989.0364	2624.7493	6599.4	5707.4
989.161	2626.0234	6552.1	5662.65
989.2857	2627.2968	6546.1	5653.9
989.4102	2628.5695	6524.4	5630.25
989.5348	2629.8415	6500.4	5609.25
989.6593	2631.1128	6492.4	5599.45
989.7837	2632.3835	6432.55	5542.1
989.9082	2633.6535	6408.1	5516.8
990.0326	2634.9228	6385.25	5494.3
990.1569	2636.1914	6364.6	5474.1
990.2812	2637.4593	6359.4	5463.4
990.4055	2638.7265	6335.35	5442.95
990.5298	2639.9931	6298.55	5406.8
990.654	2641.259	6301	5408.9
990.7782	2642.5242	6287.9	5395.1
990.9023	2643.7887	6254.85	5363.2
991.0264	2645.0525	6238	5348.1
991.1505	2646.3156	6221.6	5327.6
991.2745	2647.5781	6196.6	5305.3
991.3985	2648.8398	6184.8	5291.8
991.5225	2650.1009	6163.7	5264.15
991.6464	2651.3613	6162	5268.6
991.7703	2652.6211	6138.9	5247
991.8942	2653.8801	6098.7	5207.25
992.018	2655.1385	6100.45	5204.45
992.1418	2656.3961	6082.9	5189.7
992.2655	2657.6531	6070.95	5179.25
992.3892	2658.9094	6054.55	5162.7
992.5129	2660.1651	6028.4	5136.05
992.6366	2661.42	6023.75	5132.35
992.7602	2662.6743	5979.05	5087.4
992.8837	2663.9279	5981.75	5090.3
993.0073	2665.1808	5977.65	5085.35
993.1307	2666.433	5956.75	5063.9
993.2542	2667.6846	5928.2	5035.5
993.3776	2668.9354	5933.1	5039.7
993.501	2670.1856	5892.6	5000.35
993.6244	2671.4351	5879.05	4989.85
993.7477	2672.6839	5870.95	4978.95
993.8709	2673.9321	5839.8	4948.25
993.9942	2675.1795	5833.45	4939.8
994.1174	2676.4263	5854.1	4961.9
994.2405	2677.6724	5823.05	4934.2
994.3637	2678.9179	5811	4918.6
994.4868	2680.1626	5799.65	4907.35
994.6098	2681.4067	5773.2	4880.9
994.7328	2682.6501	5763.5	4871.25
994.8558	2683.8928	5753.85	4862.55
994.9788	2685.1348	5723.75	4833.9
995.1017	2686.3761	5681.7	4789.15
995.2245	2687.6168	5665.4	4775.05
995.3474	2688.8568	5640.75	4748.35
995.4702	2690.0961	5610.3	4720.5
995.5929	2691.3348	5606.1	4714.95
995.7156	2692.5727	5596.8	4703.6
995.8383	2693.81	5569.5	4677.1
995.961	2695.0466	5575.3	4684.45
996.0836	2696.2826	5551.75	4660
996.2062	2697.5178	5537.35	4643.25
996.3287	2698.7524	5492.25	4600.15
996.4512	2699.9863	5496.9	4601.65
996.5737	2701.2195	5482.05	4591.35
996.6961	2702.452	5473.85	4581.1
996.8185	2703.6839	5452.5	4561.6
996.9408	2704.9151	5459.4	4568.05
997.0631	2706.1456	5422.5	4531.3
997.1854	2707.3755	5412.15	4519.95
997.3077	2708.6046	5416.3	4521.85
997.4299	2709.8331	5380.7	4487.5
997.552	2711.0609	5365.1	4474.9
997.6742	2712.2881	5360.75	4470.5
997.7963	2713.5145	5380.25	4486.5
997.9183	2714.7403	5349.2	4459.25
998.0403	2715.9654	5348.45	4455.1
998.1623	2717.1899	5340.65	4434.55
998.2842	2718.4136	5327.3	4436.85
998.4062	2719.6367	5321.65	4430.9
998.528	2720.8591	5316.6	4418
998.6498	2722.0809	5305.35	4411.75
998.7716	2723.3019	5298.15	4402.3
998.8934	2724.5223	5297.2	4403.9
999.0151	2725.7421	5268.7	4375.5
999.1368	2726.9611	5269.85	4375.75
999.2584	2728.1795	5239.55	4342.05
999.38	2729.3972	5215.7	4323.9
999.5016	2730.6142	5211.1	4312
999.6231	2731.8306	5172.45	4278.95
999.7446	2733.0462	5144.35	4250.25
999.8661	2734.2612	5113.5	4216.85
999.9875	2735.4756	5069.5	4176.75
1000.1089	2736.6892	5036.2	4144.3
1000.2302	2737.9022	5000.4	4110.35
1000.3515	2739.1145	4980.45	4087.85
1000.4728	2740.3262	4952.5	4050.95
1000.594	2741.5372	4931.85	4039
1000.7152	2742.7475	4891.05	3998.85
1000.8363	2743.9571	4881.75	3988.35
1000.9575	2745.1661	4859.55	3963.25
1001.0785	2746.3744	4835.8	3942.45
1001.1996	2747.582	4827.3	3934.65
1001.3206	2748.7889	4796	3903.7
1001.4415	2749.9952	4778.75	3886.65
1001.5625	2751.2008	4733.8	3841.8
1001.6833	2752.4057	4742.05	3850
1001.8042	2753.61	4707.85	3814.15
1001.925	2754.8136	4719.8	3826.25
1002.0458	2756.0165	4692.05	3800.5
1002.1665	2757.2188	4673.35	3781.7
1002.2872	2758.4204	4673.8	3781.65
1002.4078	2759.6213	4633.25	3738.55
1002.5285	2760.8215	4626.3	3729.6
1002.649	2762.0211	4625.75	3733.45
1002.7696	2763.22	4603.4	3709.65
1002.8901	2764.4182	4597.25	3703.45
1003.0106	2765.6158	4584.2	3691.3
1003.131	2766.8127	4557.9	3666.1
1003.2514	2768.009	4552.2	3659.3
1003.3717	2769.2045	4521.95	3629.2
1003.492	2770.3994	4509.05	3614.25
1003.6123	2771.5936	4514.2	3622.35
1003.7325	2772.7872	4476.05	3584.85
1003.8527	2773.9801	4470.95	3574.9
1003.9729	2775.1723	4464.4	3557.85
1004.093	2776.3639	4444.7	3553.5
1004.2131	2777.5548	4428.25	3534.8
1004.3331	2778.745	4403.35	3508.1
1004.4531	2779.9346	4400.65	3508.95
1004.5731	2781.1235	4407.85	3516.2
1004.693	2782.3117	4393.4	3502.25
1004.8129	2783.4992	4384.45	3493.85
1004.9328	2784.6861	4355	3463.8
1005.0526	2785.8723	4370.9	3478.55
1005.1723	2787.0579	4361.6	3468.6
1005.2921	2788.2428	4350.05	3456.65
1005.4118	2789.427	4332	3439.4
1005.5314	2790.6106	4339.75	3447.05
1005.651	2791.7935	4330.95	3438.4
1005.7706	2792.9757	4334.65	3443.9
1005.8902	2794.1573	4328.85	3436.55
1006.0097	2795.3382	4345.85	3454.15
1006.1291	2796.5184	4328.75	3438.4
1006.2485	2797.698	4330.9	3435.2
1006.3679	2798.8769	4328.15	3434.45
1006.4873	2800.0551	4326.45	3435
1006.6066	2801.2327	4348.8	3455.9
1006.7258	2802.4096	4346.65	3455.5
1006.8451	2803.5859	4354.45	3461.75
1006.9642	2804.7615	4361.15	3467.7
1007.0834	2805.9364	4388.55	3497.55
1007.2025	2807.1106	4386.95	3494.95
1007.3216	2808.2842	4403.65	3512.4
1007.4406	2809.4572	4427.6	3537.45
1007.5596	2810.6294	4461.2	3567.45
1007.6785	2811.801	4486.1	3595.3
1007.7975	2812.972	4515.05	3623.35
1007.9163	2814.1423	4530.8	3639.9
1008.0352	2815.3119	4580.7	3688.1
1008.154	2816.4808	4618.8	3725.5
1008.2727	2817.6491	4660.8	3768.9
1008.3914	2818.8167	4695.3	3805.65
1008.5101	2819.9837	4733.1	3836.9
1008.6288	2821.15	4757.95	3865.95
1008.7474	2822.3157	4798.45	3907.5
1008.8659	2823.4807	4861	3967.65
1008.9844	2824.645	4887.75	3995.35
1009.1029	2825.8086	4899.75	4008.95
1009.2214	2826.9716	4952.9	4062.7
1009.3398	2828.134	4965.3	4075.85
1009.4581	2829.2957	5004.75	4111.85
1009.5764	2830.4567	5033.5	4143.95
1009.6947	2831.617	5014.2	4122.1
1009.813	2832.7767	5022.3	4130.4
1009.9312	2833.9358	5011.85	4121.35
1010.0493	2835.0941	5014.25	4120.75
1010.1675	2836.2519	4996.55	4105.7
1010.2855	2837.4089	4975.95	4085.55
1010.4036	2838.5653	4947.5	4057.15
1010.5216	2839.7211	4954.3	4063.7
1010.6396	2840.8761	4947.85	4053.9
1010.7575	2842.0306	4972.85	4083.65
1010.8754	2843.1843	4992.6	4100.5
1010.9932	2844.3374	5034.3	4141.75
1011.111	2845.4899	5088.7	4195.5
1011.2288	2846.6417	5143.15	4252.05
1011.3465	2847.7928	5219.15	4329.75
1011.4642	2848.9433	5305.1	4413.8
1011.5818	2850.0931	5382.05	4489.65
1011.6995	2851.2422	5449.5	4557.2
1011.817	2852.3907	5505.2	4613.35
1011.9345	2853.5385	5559.4	4665.65
1012.052	2854.6857	5612	4692.3
1012.1695	2855.8323	5639.55	4750.05
1012.2869	2856.9781	5682.45	4790.35
1012.4042	2858.1233	5708.6	4816.55
1012.5216	2859.2679	5758.95	4867.4
1012.6389	2860.4118	5801.3	4910.8
1012.7561	2861.555	5834	4939.45
1012.8733	2862.6976	5860.3	4966.3
1012.9905	2863.8395	5877.4	4986.55
1013.1076	2864.9808	5892.95	5003.7
1013.2247	2866.1214	5886.35	4996.15
1013.3417	2867.2614	5904.65	5012.15
1013.4587	2868.4007	5900.8	5007
1013.5757	2869.5393	5893.35	4999.25
1013.6926	2870.6773	5919.2	5025.25
1013.8095	2871.8146	5921.45	5026.85
1013.9263	2872.9513	5912.05	5017.75
1014.0431	2874.0874	5883.6	4992.25
1014.1599	2875.2227	5851.45	4960.25
1014.2766	2876.3574	5830.05	4939.65
1014.3933	2877.4915	5819.3	4928.9
1014.51	2878.6249	5767.1	4876.6
1014.6266	2879.7577	5747.6	4855.25
1014.7431	2880.8898	5716.3	4814.1
1014.8596	2882.0212	5692.1	4801.35
1014.9761	2883.152	5667.9	4776.5
1015.0925	2884.2821	5632.4	4741.5
1015.2089	2885.4116	5616.05	4725.7
1015.3253	2886.5405	5612.25	4723.6
1015.4416	2887.6686	5606.8	4713.45
1015.5579	2888.7962	5598.15	4708.45
1015.6741	2889.923	5581.95	4692.3
1015.7903	2891.0493	5586.35	4695.4
1015.9065	2892.1748	5594.6	4704.25
1016.0226	2893.2997	5603.7	4712.25
1016.1387	2894.424	5615.7	4726.85
1016.2547	2895.5476	5611.2	4720.25
1016.3707	2896.6706	5624.9	4736.35
1016.4866	2897.7929	5635	4741.1
1016.6025	2898.9145	5671.15	4780.3
1016.7184	2900.0355	5691.6	4800.05
1016.8342	2901.1559	5713.3	4820.4
1016.95	2902.2756	5756.95	4862
1017.0658	2903.3946	5756.3	4864.4
1017.1815	2904.513	5770.7	4875.05
1017.2971	2905.6308	5808.6	4916.35
1017.4127	2906.7479	5811.25	4919.1
1017.5283	2907.8643	5819.75	4929.15
1017.6439	2908.9801	5817.4	4927
1017.7594	2910.0953	5820.25	4929.5
1017.8748	2911.2098	5817.35	4923.2
1017.9902	2912.3236	5824.1	4925.5
1018.1056	2913.4368	5785.2	4891.55
1018.2209	2914.5494	5742.3	4850.7
1018.3362	2915.6613	5732.1	4838.6
1018.4515	2916.7725	5704.2	4810.5
1018.5667	2917.8831	5670.6	4778.6
1018.6819	2918.9931	5614.35	4720.8
1018.797	2920.1024	5573.85	4680.6
1018.9121	2921.211	5568.2	4677.35
1019.0271	2922.319	5527.6	4634.5
1019.1421	2923.4264	5512.1	4623.45
1019.2571	2924.5331	5488.85	4601
1019.372	2925.6391	5460.6	4570.75
1019.4869	2926.7445	5456.75	4566
1019.6017	2927.8493	5440.85	4547.6
1019.7165	2928.9534	5435.65	4544.6
1019.8313	2930.0569	5413.55	4518.3
1019.946	2931.1597	5395.1	4502.85
1020.0606	2932.2619	5375.8	4483.7
1020.1753	2933.3634	5345.7	4454.2
1020.2899	2934.4643	5341.55	4444.3
1020.4044	2935.5645	5321.85	4424.2
1020.5189	2936.6641	5285.8	4390.3
1020.6334	2937.763	5210.1	4319.95
1020.7478	2938.8613	5155.65	4265.75
1020.8622	2939.959	5098.35	4202.6
1020.9765	2941.056	5004.05	4114.05
1021.0908	2942.1523	4925.75	4032.7
1021.2051	2943.248	4841.5	3949.9
1021.3193	2944.3431	4727.15	3837.5
1021.4334	2945.4375	4633.15	3741.35
1021.5476	2946.5313	4498.7	3609.85
1021.6617	2947.6244	4392.6	3501.4
1021.7757	2948.7169	4291.4	3398.85
1021.8897	2949.8087	4191.75	3300.45
1022.0037	2950.8999	4089.55	3197.45
1022.1176	2951.9904	3973	3082
1022.2315	2953.0803	3895.7	3005.65
1022.3453	2954.1696	3841.55	2949.85
1022.4591	2955.2582	3786.7	2897.05
1022.5728	2956.3462	3722.1	2830.65
1022.6865	2957.4335	3683.1	2793.2
1022.8002	2958.5202	3635.95	2742.5
1022.9138	2959.6062	3583.75	2690.8
1023.0274	2960.6916	3570.7	2679
1023.141	2961.7764	3536.9	2644.95
1023.2545	2962.8605	3509.35	2617.5
1023.3679	2963.9439	3486.05	2595.15
1023.4813	2965.0267	3484.3	2592.4
1023.5947	2966.1089	3492.65	2578.25
1023.708	2967.1905	3462.25	2570.05
1023.8213	2968.2714	3442.75	2551.2
1023.9346	2969.3516	3423.2	2532.25
1024.0478	2970.4312	3429.15	2531.3
1024.1609	2971.5102	3420.4	2531.2
1024.274	2972.5885	3423.7	2532.8
1024.3871	2973.6662	3412.95	2518.1
1024.5002	2974.7432	3399.4	2508.15
1024.6132	2975.8196	3387	2494.7
1024.7261	2976.8954	3370.05	2479.3
1024.839	2977.9705	3345.9	2456.1
1024.9519	2979.045	3323.25	2434.1
1025.0647	2980.1188	3295.5	2403.6
1025.1775	2981.192	3281.35	2389.6
1025.2902	2982.2645	3250.6	2359.7
1025.4029	2983.3364	3213.45	2322.9
1025.5156	2984.4077	3173.1	2282.4
1025.6282	2985.4783	3159.3	2265.15
1025.7407	2986.5483	3112.35	2221.05
1025.8532	2987.6177	3069.6	2179.65
1025.9657	2988.6864	3031.1	2139.25
1026.0782	2989.7545	2998.7	2105.85
1026.1906	2990.8219	2967.05	2078.3
1026.3029	2991.8887	2922.6	2030.75
1026.4152	2992.9548	2886.4	1994.45
1026.5275	2994.0204	2851.15	1961.75
1026.6397	2995.0852	2827.35	1937.55
1026.7519	2996.1495	2795.9	1902.05
1026.864	2997.2131	2759.75	1870.35
1026.9761	2998.276	2741.8	1850.35
1027.0882	2999.3383	2710.8	1818.5
1027.2002	3000.4	2691.35	1799.2
1027.3122	3001.4611	2666.65	1775.05
1027.4241	3002.5215	2652.3	1761.9
1027.536	3003.5812	2632	1743.05
1027.6478	3004.6404	2607.7	1717.4
1027.7596	3005.6989	2608.9	1713.75
1027.8714	3006.7567	2583.9	1692.05
1027.9831	3007.8139	2602.9	1689.15
1028.0947	3008.8705	2561.05	1670.15
1028.2064	3009.9264	2549.9	1656.75
1028.3179	3010.9818	2546.75	1655.85
1028.4295	3012.0364	2533.85	1641
1028.541	3013.0905	2522.3	1632.05
1028.6524	3014.1439	2515.5	1623.95
1028.7638	3015.1966	2507.1	1617.5
1028.8752	3016.2487	2493.3	1602.35
1028.9865	3017.3002	2510.5	1611.55
1029.0978	3018.3511	2504.95	1614.7
1029.209	3019.4013	2492.65	1603.15
1029.3202	3020.4509	2478.65	1588.7
1029.4314	3021.4998	2479.1	1588.65
1029.5425	3022.5481	2482.25	1592.45
1029.6535	3023.5958	2469.1	1579.8
1029.7645	3024.6428	2471.65	1581.35
1029.8755	3025.6892	2462.05	1572.15
1029.9864	3026.735	2466.1	1574.1
1030.0973	3027.7802	2462.2	1569.85
1030.2082	3028.8247	2454.3	1563.2
1030.319	3029.8685	2446.75	1554
1030.4297	3030.9118	2446.05	1554.35
1030.5404	3031.9544	2444.85	1555.2
1030.6511	3032.9963	2451.45	1561
1030.7617	3034.0376	2446.5	1555.7
1030.8723	3035.0783	2459.95	1568.45
1030.9829	3036.1184	2449.95	1558.25
1031.0934	3037.1578	2441.5	1551.15
1031.2038	3038.1966	2447.35	1555.45
1031.3142	3039.2348	2436.9	1546.1
1031.4246	3040.2723	2452.4	1553
1031.5349	3041.3092	2426.7	1536.9
1031.6452	3042.3455	2414.15	1524.3
1031.7554	3043.3811	2420.8	1530.45
1031.8656	3044.4161	2402.75	1510.8
1031.9758	3045.4505	2397.45	1508.95
1032.0859	3046.4842	2392.05	1498.25
1032.1959	3047.5173	2371.5	1479.85
1032.3059	3048.5498	2352	1460.95
1032.4159	3049.5816	2342.45	1451
1032.5258	3050.6128	2345.7	1453.75
1032.6357	3051.6434	2329.15	1436.9
1032.7455	3052.6734	2323.6	1431.55
1032.8553	3053.7027	2327	1435.4
1032.9651	3054.7314	2308.55	1420.35
1033.0748	3055.7594	2287.7	1397.45
1033.1845	3056.7868	2278.75	1387.85
1033.2941	3057.8136	2277.1	1385.65
1033.4037	3058.8398	2262.7	1372.9
1033.5132	3059.8653	2251.35	1361.55
1033.6227	3060.8902	2247.75	1357.75
1033.7321	3061.9145	2234.7	1342.2
1033.8415	3062.9381	2225.65	1332.5
1033.9509	3063.9612	2244.25	1336.45
1034.0602	3064.9835	2213.85	1322.05
1034.1694	3066.0053	2193.7	1301.6
1034.2787	3067.0264	2185.2	1298.5
1034.3878	3068.0469	2177	1286.8
1034.497	3069.0668	2173.5	1279.75
1034.6061	3070.086	2154.15	1264
1034.7151	3071.1046	2142.5	1252.7
1034.8241	3072.1226	2132.5	1240.6
1034.9331	3073.1399	2113.25	1224.9
1035.042	3074.1567	2111.6	1221.65
1035.1508	3075.1727	2096.8	1203.7
1035.2597	3076.1882	2077.75	1187.35
1035.3684	3077.203	2075.6	1183.55
1035.4772	3078.2173	2060.1	1168.25
1035.5859	3079.2308	2038	1144.9
1035.6945	3080.2438	2030.85	1137.9
1035.8031	3081.2561	2014.6	1123.85
1035.9117	3082.2678	2012.05	1121.9
1036.0202	3083.2789	1996.35	1106.9
1036.1286	3084.2893	1991.1	1101
1036.2371	3085.2991	1979.4	1087.35
1036.3454	3086.3083	1973.85	1078.2
1036.4538	3087.3169	1962.4	1071.25
1036.562	3088.3248	1950.85	1058.6
1036.6703	3089.3321	1953.75	1061.45
1036.7785	3090.3388	1926.55	1037.15
1036.8866	3091.3449	1918.15	1027.55
1036.9948	3092.3503	1920.7	1029.8
1037.1028	3093.3551	1906.5	1018.25
1037.2108	3094.3593	1905.8	1016.4
1037.3188	3095.3629	1902.85	1013.5
1037.4267	3096.3658	1890.65	999
1037.5346	3097.3681	1883.75	993.4
1037.6425	3098.3698	1878.3	985.95
1037.7503	3099.3708	1869.25	973.25
1037.858	3100.3713	1869.6	979.25
1037.9657	3101.3711	1856.5	965.95
1038.0734	3102.3702	1959.25	953.6
1038.181	3103.3688	1852.4	958.5
1038.2886	3104.3667	1832.35	942.9
1038.3961	3105.364	1829.6	939.55
1038.5036	3106.3607	1824.8	934.35
1038.611	3107.3568	1817.35	926.5
1038.7184	3108.3522	1819.3	928.8
1038.8257	3109.347	1822.2	930.15
1038.933	3110.3412	1805	907.95
1039.0403	3111.3348	1801.05	909.65
1039.1475	3112.3277	1795.75	905.85
1039.2547	3113.32	1793.05	905.15
1039.3618	3114.3117	1789.8	899.9
1039.4689	3115.3028	1776.8	887.9
1039.5759	3116.2932	1772.8	880.8
1039.6829	3117.2831	1769.25	874.8
1039.7898	3118.2723	1764.4	875.2
1039.8967	3119.2608	1750.75	859.5
1040.0035	3120.2488	1750.65	859.35
1040.1103	3121.2361	1739.85	851.35
1040.2171	3122.2229	1747	857.8
1040.3238	3123.209	1737.15	846.65
1040.4305	3124.1944	1728.2	838.75
1040.5371	3125.1793	1723.9	831
1040.6437	3126.1635	1721.65	833.8
1040.7502	3127.1471	1715.85	827.5
1040.8567	3128.1301	1708.25	819.25
1040.9631	3129.1125	1707.5	816.95
1041.0695	3130.0942	1698.7	806.55
1041.1759	3131.0753	1708.2	809.75
1041.2822	3132.0558	1703.95	809.6
1041.3884	3133.0357	1689.95	797.95
1041.4946	3134.015	1689.7	798.2
1041.6008	3134.9936	1694.8	803.8
1041.7069	3135.9716	1702.45	791.9
1041.813	3136.949	1680.35	789.35
1041.919	3137.9258	1672.35	775.85
1042.025	3138.902	1665.65	770.1
1042.1309	3139.8775	1668.7	778.85
1042.2368	3140.8524	1649.3	759.85
1042.3427	3141.8267	1651.3	757.35
1042.4485	3142.8004	1647.1	756.5
1042.5542	3143.7735	1655.45	759.85
1042.6599	3144.7459	1656.3	764.95
1042.7656	3145.7178	1644.9	757
1042.8712	3146.689	1641.95	751.45
1042.9768	3147.6596	1628.55	737.15
1043.0823	3148.6295	1629.2	738.7
1043.1878	3149.5989	1630.55	738.55
1043.2932	3150.5676	1618.9	730.4
1043.3986	3151.5357	1610.5	721.45
1043.5039	3152.5032	1616.25	727.35
1043.6092	3153.4701	1605.2	715.35
1043.7145	3154.4364	1605.35	713.85
1043.8197	3155.402	1604.4	714.5
1043.9248	3156.367	1602	710.75
1044.03	3157.3315	1634.85	700.3
1044.135	3158.2952	1591.1	699.4
1044.24	3159.2584	1578.9	691.05
1044.345	3160.221	1576.45	684
1044.4499	3161.1829	1579.15	689.45
1044.5548	3162.1442	1571.8	681.35
1044.6596	3163.105	1564.5	673.8
1044.7644	3164.065	1560.45	669.45
1044.8692	3165.0245	1562.45	668.95
1044.9739	3165.9834	1552	665.2
1045.0785	3166.9416	1550	660.65
1045.1831	3167.8993	1540.45	650.85
1045.2877	3168.8563	1543.35	651.9
1045.3922	3169.8127	1537.35	647.2
1045.4966	3170.7684	1525.5	634.65
1045.6011	3171.7236	1532.85	641.95
1045.7054	3172.6782	1526.45	635.8
1045.8098	3173.6321	1523.9	633.05
1045.914	3174.5854	1518.35	623.7
1046.0183	3175.5381	1521.95	632.5
1046.1224	3176.4902	1516.95	628.15
1046.2266	3177.4417	1504.85	614.65
1046.3307	3178.3926	1500.9	612.35
1046.4347	3179.3428	1500.8	611.2
1046.5387	3180.2924	1506.1	616.8
1046.6427	3181.2415	1504.3	614.55
1046.7466	3182.1899	1493.45	602.45
1046.8504	3183.1377	1489.2	600
1046.9542	3184.0848	1494.45	601
1047.058	3185.0314	1487.6	597.65
1047.1617	3185.9773	1487.25	598.95
1047.2654	3186.9227	1481.85	592.1
1047.369	3187.8674	1480.15	590
1047.4726	3188.8115	1476.3	582.9
1047.5761	3189.755	1468.9	578.35
1047.6796	3190.6979	1465.75	576.05
1047.783	3191.6402	1465.05	577.25
1047.8864	3192.5818	1461.2	571.65
1047.9898	3193.5229	1482.05	565.75
1048.0931	3194.4633	1459.35	567.75
1048.1963	3195.4031	1454.95	564.65
1048.2995	3196.3423	1445.05	556.4
1048.4027	3197.2809	1441.1	552.05
1048.5058	3198.2189	1444.05	553.55
1048.6089	3199.1563	1448.55	550.9
1048.7119	3200.0931	1436.65	546.65
1048.8148	3201.0292	1432.95	544.7
1048.9178	3201.9648	1431.15	542.7
1049.0206	3202.8997	1432.05	538.9
1049.1235	3203.834	1427.7	537.7
1049.2262	3204.7677	1421.8	532.4
1049.329	3205.7008	1420.7	529.7
1049.4317	3206.6333	1413.5	524.45
1049.5343	3207.5652	1416.65	525.2
1049.6369	3208.4964	1410.2	521.5
1049.7394	3209.4271	1412.2	522.15
1049.8419	3210.3571	1403.2	513.75
1049.9444	3211.2865	1404	510.8
1050.0468	3212.2154	1410.5	521.8
1050.1491	3213.1436	1398.45	503.8
1050.2514	3214.0712	1405.1	506.9
1050.3537	3214.9982	1397.25	507.75
1050.4559	3215.9246	1390.35	499.8
1050.5581	3216.8503	1389	500.4
1050.6602	3217.7755	1384.95	494.05
1050.7623	3218.7001	1389.2	498.45
1050.8643	3219.624	1385.8	495.85
1050.9663	3220.5473	1375.15	486.15
1051.0682	3221.4701	1375	482.2
1051.1701	3222.3922	1383.25	491.35
1051.2719	3223.3137	1371.6	480.35
1051.3737	3224.2346	1374.95	485
1051.4754	3225.1549	1367.2	478.5
1051.5771	3226.0746	1363.9	475.8
1051.6788	3226.9937	1367.65	476.9
1051.7804	3227.9121	1357.65	468
1051.8819	3228.83	1355.35	464.7
1051.9834	3229.7473	1356.5	467.4
1052.0849	3230.6639	1352.4	464.3
1052.1863	3231.5799	1349.5	459
1052.2876	3232.4954	1347.4	456.85
1052.3889	3233.4102	1345.75	455.85
1052.4902	3234.3244	1341	451.5
1052.5914	3235.238	1340.8	451.8
1052.6926	3236.151	1359.15	446.55
1052.7937	3237.0634	1329.4	440.35
1052.8948	3237.9752	1333.35	445.35
1052.9958	3238.8864	1324.7	434.75
1053.0968	3239.797	1328.65	438.5
1053.1977	3240.7069	1322.9	431.4
1053.2986	3241.6163	1321.75	429.5
1053.3994	3242.5251	1321.95	433.35
1053.5002	3243.4332	1314.8	426.45
1053.6009	3244.3408	1311.05	421.4
1053.7016	3245.2477	1306.75	416.7
1053.8022	3246.154	1314.9	424.25
1053.9028	3247.0598	1309.95	420.55
1054.0034	3247.9649	1296.55	406.5
1054.1039	3248.8694	1297.75	408.1
1054.2043	3249.7733	1297.85	408.05
1054.3047	3250.6766	1295.55	405.45
1054.4051	3251.5793	1295.95	405.75
1054.5054	3252.4814	1291.45	402.75
1054.6056	3253.3829	1284.3	394.2
1054.7058	3254.2838	1289.95	400.1
1054.806	3255.1841	1283.7	392.75
1054.9061	3256.0838	1281.15	391.75
1055.0061	3256.9829	1271.65	382.5
1055.1062	3257.8814	1267.25	376.25
1055.2061	3258.7792	1275.85	384.85
1055.306	3259.6765	1268.35	377.2
1055.4059	3260.5731	1261.45	373.85
1055.5057	3261.4692	1260.05	371.5
1055.6055	3262.3647	1252.65	360.45
1055.7052	3263.2595	1251.8	361.25
1055.8049	3264.1538	1234.95	345.95
1055.9045	3265.0474	1240.3	351.4
1056.0041	3265.9404	1228	338.8
1056.1036	3266.8329	1222.8	334.5
1056.2031	3267.7247	1231.25	330.4
1056.3025	3268.616	1213.6	325.95
1056.4019	3269.5066	1204.55	316.25
1056.5013	3270.3966	1198.8	307.3
1056.6005	3271.286	1184.65	296.7
