Software Version:	3.9.2.0
Unit SN:	10000200
Spectrometer SN:	6960
Date:	3/6/2024 9:44:12 AM
Data Line Index:	25
Spectral Points:	2048
Integration time (ms):	125
Averages:	20
Delay (ms):	30
Sequence Number:	1
Processing:	dark subtract
Laser Power (mW):	305
Laser Current (mA):	823
Laser Diode Temp (C):	25.1
Laser Case Temp (C):	24
System Temp (C):	23.9
Spectrometer Temp (C):	21.4
CCD Temp (C):	-0.027
Secondary Temp (C):	20.01
Heatsink Temp (C):	17.918
CCDPCB Temp (C):	30.927
SecondaryPCB Temp (C):	25.647

Wavelength	RamanShift	Raw Counts	Dark Subtracted
787.061	30.1047	455.65	47.7
787.2016	32.3739	457.25	50.3
787.3422	34.6426	462.5	56.55
787.4828	36.9109	466.1	56.25
787.6235	39.1787	473.4	61.4
787.7642	41.4461	480.4	64.35
787.9049	43.7131	490.45	70.85
788.0456	45.9796	493.3	70.2
788.1863	48.2456	501.8	75.6
788.3271	50.5112	509.45	78.4
788.4679	52.7764	519.15	86.35
788.6087	55.0411	530.25	92.9
788.7496	57.3054	538.9	95.65
788.8904	59.5692	546.6	103.95
789.0313	61.8326	557.8	112.55
789.1722	64.0955	566.1	117.05
789.3132	66.3579	580.9	125.85
789.4541	68.6199	600.75	142.2
789.5951	70.8815	621.2	159.3
789.7361	73.1426	682.3	217.15
789.8771	75.4032	823	354.2
790.0181	77.6634	1167.95	695.55
790.1592	79.9231	1983.35	1507.4
790.3003	82.1824	3710.3	3229.3
790.4414	84.4412	6720.25	6229.8
790.5825	86.6995	10786.15	10284.6
790.7237	88.9574	14771.65	14260.9
790.8648	91.2148	17708.05	17191.85
791.006	93.4717	19335.1	18812.65
791.1472	95.7282	20035.5	19511.8
791.2885	97.9842	20398.25	19872
791.4297	100.2398	20535.55	20004
791.571	102.4949	20587.2	20052.8
791.7123	104.7495	20602.65	20066.15
791.8536	107.0036	20586.35	20047.3
791.9949	109.2573	20618.55	20082.6
792.1363	111.5105	20669.2	20128.6
792.2777	113.7632	20581.3	20042.05
792.4191	116.0154	20661.7	20109.75
792.5605	118.2672	20710.7	20165.8
792.7019	120.5185	20706.1	20159.1
792.8434	122.7693	20759.45	20211.65
792.9849	125.0197	20811.8	20258.2
793.1264	127.2696	20789.3	20231.5
793.2679	129.519	20878.75	20316.25
793.4094	131.7679	20942.55	20377
793.551	134.0163	20975.1	20407.4
793.6926	136.2642	20976.6	20406.55
793.8342	138.5117	21004.65	20431.5
793.9758	140.7587	21012.15	20436.5
794.1175	143.0052	21050.35	20473.9
794.2591	145.2512	21045.3	20466.7
794.4008	147.4967	20999.5	20421.35
794.5425	149.7417	20991	20408.3
794.6842	151.9863	21008.1	20422.75
794.826	154.2304	21036.95	20447.35
794.9677	156.4739	20978.25	20382.2
795.1095	158.717	21038.05	20442.95
795.2513	160.9596	21059.25	20455.15
795.3931	163.2017	21083.75	20478.25
795.535	165.4433	21097.8	20491.25
795.6768	167.6844	21117.85	20511.15
795.8187	169.925	21095.05	20485.6
795.9606	172.1651	21058.85	20446.3
796.1025	174.4047	21077.5	20460.85
796.2445	176.6439	21067.6	20451.45
796.3864	178.8825	21070.45	20450.1
796.5284	181.1206	21116.6	20492.5
796.6704	183.3582	21068.8	20442.7
796.8124	185.5954	21117	20487.1
796.9544	187.832	21163.5	20530.65
797.0965	190.0681	21199.3	20561.55
797.2386	192.3037	21281.85	20640.9
797.3806	194.5388	21271.05	20630.25
797.5228	196.7734	21326.3	20683.5
797.6649	199.0075	21381.55	20737.8
797.807	201.2411	21488.5	20842.4
797.9492	203.4742	21534.5	20887.9
798.0914	205.7068	21645.1	20990.75
798.2336	207.9389	21630.55	20975.6
798.3758	210.1704	21685.9	21038.75
798.518	212.4015	21684.1	21044.9
798.6603	214.632	21753.85	21120.45
798.8025	216.862	21747.3	21116.15
798.9448	219.0915	21767.85	21134.85
799.0871	221.3205	21838.15	21200.4
799.2294	223.549	21859.25	21226.6
799.3718	225.777	21877.85	21243
799.5141	228.0044	21919.15	21274.9
799.6565	230.2314	21963.3	21320.65
799.7989	232.4578	21990.25	21343.95
799.9413	234.6837	21976	21318.75
800.0837	236.909	22028	21369.85
800.2262	239.1339	22046.95	21367.15
800.3687	241.3582	22041.5	21375.8
800.5111	243.582	22065.75	21367.4
800.6536	245.8053	22128.15	21444.15
800.7961	248.0281	22088	21409.55
800.9387	250.2503	22127.7	21446.7
801.0812	252.472	22138.25	21455.95
801.2238	254.6932	22204.75	21519.55
801.3664	256.9139	22163.4	21477.95
801.509	259.134	22205.05	21515.95
801.6516	261.3536	22199.6	21512.3
801.7942	263.5727	22249.85	21559.5
801.9369	265.7912	22229.4	21539.5
802.0795	268.0092	22275.05	21584.25
802.2222	270.2267	22316.85	21623.75
802.3649	272.4436	22353.25	21661.15
802.5076	274.6601	22393.35	21688.75
802.6504	276.8759	22361.6	21665.3
802.7931	279.0913	22408.3	21709.15
802.9359	281.3061	22429.5	21729.25
803.0787	283.5204	22491.35	21787.5
803.2215	285.7341	22482.7	21775.95
803.3643	287.9473	22519.05	21803
803.5071	290.16	22513.1	21805.7
803.6499	292.3721	22501.6	21796.95
803.7928	294.5837	22531.45	21826.6
803.9357	296.7947	22442.8	21737.45
804.0786	299.0052	22444.65	21738.95
804.2215	301.2152	22420.25	21710.25
804.3644	303.4246	22443.25	21737.6
804.5074	305.6334	22395.5	21685
804.6503	307.8418	22391.65	21678.55
804.7933	310.0495	22370.85	21654.75
804.9363	312.2568	22341.45	21627.75
805.0793	314.4635	22254.7	21539.9
805.2223	316.6696	22240.6	21522.05
805.3653	318.8752	22191.7	21463.65
805.5084	321.0802	22159.15	21438.15
805.6514	323.2847	22126.4	21405.2
805.7945	325.4887	22099.5	21377.5
805.9376	327.692	22103.55	21379
806.0807	329.8949	22178.4	21456.3
806.2238	332.0972	22189.4	21463.05
806.367	334.2989	22233.3	21501.6
806.5101	336.5001	22205.45	21474.45
806.6533	338.7007	22195.7	21463.25
806.7965	340.9008	22217.6	21483.4
806.9397	343.1003	22174.35	21440.9
807.0829	345.2992	22166.4	21431.8
807.2261	347.4976	22123.05	21387.25
807.3693	349.6955	22082.05	21339.35
807.5126	351.8927	22149.05	21405.05
807.6559	354.0895	22057	21304.55
807.7991	356.2856	22090.1	21345.4
807.9424	358.4812	22038	21296.6
808.0857	360.6763	22120.1	21372
808.2291	362.8707	22019.4	21271.05
808.3724	365.0646	22083.05	21332.15
808.5158	367.258	22028.7	21276.6
808.6591	369.4508	21991.35	21236.35
808.8025	371.643	22064.6	21306.1
808.9459	373.8346	22008.25	21248.6
809.0893	376.0257	21971.3	21210.6
809.2327	378.2162	21953.75	21195.8
809.3762	380.4062	21975.45	21213.4
809.5196	382.5956	21885.75	21126.2
809.6631	384.7844	21898.25	21144.85
809.8066	386.9726	21787.3	21033.75
809.9501	389.1603	21791.7	21038.15
810.0936	391.3474	21771	20976.7
810.2371	393.5339	21731.5	20974.75
810.3806	395.7199	21689.15	20936.55
810.5241	397.9052	21701.55	20947.65
810.6677	400.09	21698.5	20944.4
810.8113	402.2743	21683.8	20926.7
810.9548	404.4579	21686.9	20929.55
811.0984	406.641	21745.65	20985.7
811.2421	408.8235	21786.25	21024.75
811.3857	411.0054	21813.05	21047.45
811.5293	413.1868	21859.4	21091.55
811.673	415.3675	21899.95	21128
811.8166	417.5477	21904.2	21132.5
811.9603	419.7273	21869.25	21092.35
812.104	421.9064	21737.7	20959.65
812.2477	424.0848	21632.2	20857.05
812.3914	426.2627	21537.05	20759.65
812.5351	428.4399	21530.1	20754.25
812.6788	430.6166	21425.4	20644.85
812.8226	432.7928	21376.6	20595.1
812.9663	434.9683	21306.85	20525.55
813.1101	437.1432	21271.65	20489
813.2539	439.3176	21159.65	20377.75
813.3977	441.4914	21129.6	20347.4
813.5415	443.6645	21113.75	20331.2
813.6853	445.8371	21015.2	20232.95
813.8291	448.0091	20992.55	20208.95
813.973	450.1806	20924.55	20139.25
814.1168	452.3514	20829.35	20043.1
814.2607	454.5216	20848.95	20054.7
814.4046	456.6913	20757.25	19968.95
814.5485	458.8603	20757.25	19973.05
814.6924	461.0288	20767.8	19981.2
814.8363	463.1967	20737.05	19951.65
814.9802	465.3639	20728.55	19941.05
815.1241	467.5306	20677.45	19888.65
815.2681	469.6967	20640.9	19851.75
815.412	471.8622	20581.7	19794.8
815.556	474.0271	20558.5	19770.45
815.7	476.1914	20531.5	19737.75
815.844	478.3551	20547.2	19754.65
815.988	480.5182	20580.3	19790.15
816.132	482.6807	20563.55	19770.35
816.276	484.8426	20581.25	19790.25
816.4201	487.0039	20609.35	19816.3
816.5641	489.1647	20632.25	19835.5
816.7082	491.3248	20695	19899.85
816.8522	493.4843	20650.45	19856.2
816.9963	495.6432	20650.3	19854.5
817.1404	497.8015	20565.95	19765.4
817.2845	499.9592	20593.2	19795.2
817.4286	502.1163	20540.4	19742.55
817.5727	504.2728	20466.95	19666.45
817.7168	506.4287	20529	19732.85
817.861	508.5839	20397.35	19598.3
818.0051	510.7386	20414.9	19615.55
818.1493	512.8927	20431.85	19629.4
818.2935	515.0461	20413.05	19609.9
818.4377	517.199	20368.45	19567.45
818.5818	519.3512	20374.95	19569.45
818.726	521.5029	20413.7	19605.7
818.8703	523.6539	20458.9	19653.6
819.0145	525.8043	20423.65	19617.5
819.1587	527.9541	20367.9	19556.05
819.303	530.1033	20344.65	19538.3
819.4472	532.2519	20273.8	19468.1
819.5915	534.3999	20218.9	19407.75
819.7357	536.5472	20200	19389.65
819.88	538.694	20173.55	19363.3
820.0243	540.8401	20228.7	19417.7
820.1686	542.9856	20203.05	19393.1
820.3129	545.1305	20177.8	19363.5
820.4572	547.2748	20218.65	19403.4
820.6016	549.4185	20219.55	19402.75
820.7459	551.5615	20156.35	19341.15
820.8902	553.704	20145.75	19330.75
821.0346	555.8458	20117.55	19303.2
821.1789	557.987	20109.9	19295.85
821.3233	560.1276	20141.6	19326.2
821.4677	562.2675	20185.25	19372.2
821.6121	564.4069	20145.1	19330.4
821.7565	566.5456	20081.5	19267.95
821.9009	568.6837	20112.75	19299.4
822.0453	570.8212	20027.05	19211.3
822.1897	572.958	19980	19161.15
822.3342	575.0942	19885.65	19071.6
822.4786	577.2299	19845.8	19028.35
822.6231	579.3648	19772.25	18958
822.7675	581.4992	19676.55	18861.85
822.912	583.6329	19647.3	18832.85
823.0565	585.766	19591.9	18777.55
823.201	587.8985	19550.95	18733.95
823.3454	590.0304	19533	18703.2
823.4899	592.1616	19524.95	18703.45
823.6345	594.2922	19469.3	18646.45
823.779	596.4222	19403.45	18579.35
823.9235	598.5515	19334.65	18511.7
824.068	600.6802	19276.25	18454.05
824.2126	602.8083	19205.45	18382.85
824.3571	604.9358	19214.15	18388.4
824.5017	607.0626	19118.4	18293.65
824.6462	609.1888	19137.8	18309.7
824.7908	611.3144	19115.4	18287.9
824.9354	613.4393	19103.75	18278.75
825.08	615.5636	19118.85	18289.6
825.2246	617.6873	19110.65	18283.85
825.3692	619.8103	19124.65	18294.95
825.5138	621.9327	19083.25	18251.4
825.6584	624.0544	19066.6	18237.7
825.803	626.1756	19034.55	18206.4
825.9477	628.2961	18978.4	18147.85
826.0923	630.4159	18915.25	18084.35
826.237	632.5351	18879.65	18048.5
826.3816	634.6537	18880.05	18048.4
826.5263	636.7716	18870.5	18035.25
826.6709	638.8889	18858.3	18028.5
826.8156	641.0056	18858.15	18025.6
826.9603	643.1216	18814	17978.9
827.105	645.237	18867.8	18035.55
827.2497	647.3518	18806.2	17974.05
827.3944	649.4659	18776.95	17945.85
827.5391	651.5793	18755.75	17922.95
827.6838	653.6922	18711.8	17878.75
827.8285	655.8043	18679.3	17846.1
827.9733	657.9159	18637.4	17802.85
828.118	660.0268	18598	17761.65
828.2627	662.137	18539.05	17706.25
828.4075	664.2466	18561.65	17722.45
828.5522	666.3556	18560.75	17721.85
828.697	668.4639	18504.7	17664.85
828.8418	670.5716	18511.35	17675.75
828.9865	672.6786	18491.2	17650.95
829.1313	674.785	18433.5	17591.65
829.2761	676.8907	18373.65	17538.6
829.4209	678.9958	18369.55	17531.6
829.5657	681.1002	18297.65	17457.8
829.7105	683.204	18315.65	17473.5
829.8553	685.3072	18260.75	17420.25
830.0001	687.4097	18233.6	17393.35
830.1449	689.5115	18274.5	17432.4
830.2898	691.6127	18249.85	17409.25
830.4346	693.7132	18191.9	17351.15
830.5794	695.8131	18230.7	17366.65
830.7243	697.9123	18185.8	17344.1
830.8691	700.0109	18159.2	17315.45
831.014	702.1089	18161.65	17319.15
831.1588	704.2061	18110.75	17269.3
831.3037	706.3028	18094.55	17248.05
831.4486	708.3987	18107.3	17260.6
831.5935	710.4941	18070.45	17226.65
831.7383	712.5887	18053.35	17208.15
831.8832	714.6827	18062.65	17212.05
832.0281	716.7761	18023.8	17178.6
832.173	718.8688	18029.65	17182.15
832.3179	720.9608	18011.15	17162.45
832.4628	723.0522	17998.2	17146.25
832.6077	725.1429	17951.8	17105.55
832.7527	727.233	17953	17106.55
832.8976	729.3224	18046.85	17200.1
833.0425	731.4112	18000.45	17153.9
833.1874	733.4993	17930.7	17080
833.3324	735.5867	17921.65	17072.95
833.4773	737.6735	17837.5	16987.3
833.6222	739.7596	17773.15	16923.5
833.7672	741.845	17718.95	16869.6
833.9122	743.9298	17723.9	16871.9
834.0571	746.014	17698.85	16850.55
834.2021	748.0974	17675	16823.6
834.347	750.1802	17641.4	16789
834.492	752.2624	17592.05	16741.7
834.637	754.3439	17499.6	16646.35
834.782	756.4247	17461.8	16600.35
834.9269	758.5048	17382.05	16529.75
835.0719	760.5843	17369.5	16514.9
835.2169	762.6631	17351.65	16499.65
835.3619	764.7413	17312.95	16461.9
835.5069	766.8188	17387.7	16533.85
835.6519	768.8956	17344.75	16488.5
835.7969	770.9718	17363.7	16510.85
835.9419	773.0473	17292.05	16437.75
836.0869	775.1221	17264.25	16409.9
836.232	777.1962	17209.6	16355.2
836.377	779.2697	17177.75	16323.15
836.522	781.3426	17192.65	16318.15
836.667	783.4147	17183.45	16329.75
836.8121	785.4862	17158.95	16305.6
836.9571	787.557	17076.35	16221.85
837.1021	789.6271	17021.7	16165.15
837.2472	791.6966	16957.25	16101.8
837.3922	793.7654	16833.85	15976.15
837.5373	795.8335	16822.1	15965.8
837.6823	797.901	16737.75	15881.05
837.8274	799.9678	16729.85	15871.5
837.9724	802.0339	16689.1	15833.95
838.1175	804.0993	16694.35	15827
838.2626	806.1641	16635.95	15777.25
838.4076	808.2282	16596.85	15740.3
838.5527	810.2916	16578.05	15717.05
838.6978	812.3544	16541.05	15685.95
838.8428	814.4164	16535.85	15679.15
838.9879	816.4778	16535.9	15674
839.133	818.5385	16481.05	15621.05
839.2781	820.5986	16506	15646
839.4232	822.658	16498.25	15637.5
839.5682	824.7166	16499.7	15642.2
839.7133	826.7747	16549.6	15690.9
839.8584	828.832	16536.85	15676.9
840.0035	830.8886	16504.25	15641.9
840.1486	832.9446	16511	15650.2
840.2937	834.9999	16461.55	15602.8
840.4388	837.0545	16433.15	15570.7
840.5839	839.1085	16336.55	15475.05
840.729	841.1618	16283.6	15419.05
840.8741	843.2143	16242.65	15382.65
841.0192	845.2662	16146.4	15285.9
841.1643	847.3175	16149.05	15288.8
841.3095	849.368	16128.95	15267.7
841.4546	851.4179	16056.55	15195.1
841.5997	853.467	16012.4	15150.3
841.7448	855.5155	16027.95	15164.95
841.8899	857.5633	15979.8	15116.9
842.0351	859.6105	15913.4	15048.9
842.1802	861.6569	15946.85	15081.8
842.3253	863.7027	15883.2	15018
842.4704	865.7478	15845.8	14979.95
842.6156	867.7922	15848.35	14983.05
842.7607	869.8359	15796.95	14931
842.9058	871.8789	15808.65	14943.35
843.0509	873.9212	15804.75	14909.1
843.1961	875.9629	15731.8	14868.45
843.3412	878.0039	15736.5	14870.3
843.4863	880.0441	15724.2	14861.7
843.6315	882.0837	15734.3	14868.85
843.7766	884.1226	15747.7	14882.05
843.9218	886.1609	15739.2	14874.45
844.0669	888.1984	15734.75	14868.45
844.212	890.2352	15799.9	14936.45
844.3572	892.2714	15772.7	14902.15
844.5023	894.3069	15753.4	14887.5
844.6475	896.3416	15624.6	14757.05
844.7926	898.3757	15602.45	14735.55
844.9377	900.4091	15587.35	14719.8
845.0829	902.4418	15573.4	14701.95
845.228	904.4739	15512.95	14643.85
845.3732	906.5052	15517.9	14649.9
845.5183	908.5358	15477.1	14609
845.6635	910.5658	15448.3	14577.1
845.8086	912.595	15373.55	14503.95
845.9538	914.6236	15333.05	14467.35
846.0989	916.6515	15273.4	14405.4
846.2441	918.6786	15276.1	14407.1
846.3892	920.7051	15268.15	14397.75
846.5344	922.7309	15242.25	14373.65
846.6795	924.756	15188.75	14319.9
846.8246	926.7804	15192.9	14320.7
846.9698	928.8041	15107.7	14238.55
847.1149	930.8272	15103.95	14237.4
847.2601	932.8495	15027.1	14156.8
847.4052	934.8711	15059.1	14187.95
847.5504	936.892	14998.7	14128.9
847.6955	938.9123	14963.4	14094.4
847.8407	940.9318	14933.25	14065.15
847.9858	942.9506	14894.25	14023.8
848.131	944.9688	14878.35	14009.2
848.2761	946.9862	14828.6	13956.8
848.4213	949.003	14710.45	13840.85
848.5664	951.019	14681.3	13810.85
848.7115	953.0344	14652.6	13780.75
848.8567	955.0491	14627.9	13756.05
849.0018	957.063	14619	13747.4
849.147	959.0763	14632.1	13761.35
849.2921	961.0888	14558.9	13688.1
849.4373	963.1007	14557.45	13686.15
849.5824	965.1119	14517.35	13648.05
849.7275	967.1223	14503.3	13633
849.8727	969.1321	14486.3	13617.4
850.0178	971.1412	14486.55	13615.8
850.1629	973.1495	14383.35	13512.65
850.3081	975.1572	14427.75	13513.45
850.4532	977.1641	14419.3	13550
850.5983	979.1704	14362.95	13490.4
850.7435	981.1759	14327.1	13451.95
850.8886	983.1808	14294.4	13422.5
851.0337	985.1849	14276.9	13393.5
851.1788	987.1884	14224.4	13349.4
851.324	989.1911	14204.3	13330.45
851.4691	991.1932	14184.55	13310.9
851.6142	993.1945	14145.55	13274.05
851.7593	995.1951	14048.7	13175.95
851.9045	997.1951	14067.95	13190.6
852.0496	999.1943	13979.55	13107.95
852.1947	1001.1928	13926.05	13053.55
852.3398	1003.1906	13878.9	13005.1
852.4849	1005.1877	13896.15	13023.7
852.63	1007.1841	13863.05	12989.55
852.7751	1009.1798	13816.2	12941.55
852.9202	1011.1748	13755.15	12881.45
853.0653	1013.1691	13723.4	12849.45
853.2104	1015.1627	13631.05	12757.95
853.3555	1017.1556	13566.6	12692.35
853.5006	1019.1477	13527.55	12654
853.6457	1021.1392	13434.05	12562.45
853.7908	1023.1299	13391.75	12517.35
853.9359	1025.12	13358.55	12484.9
854.081	1027.1093	13287.75	12416.15
854.2261	1029.0979	13306.8	12437.25
854.3712	1031.0859	13237.35	12367.45
854.5163	1033.0731	13214.45	12339.2
854.6613	1035.0596	13180.8	12308.35
854.8064	1037.0454	13100.65	12226.9
854.9515	1039.0304	13082.3	12209.05
855.0965	1041.0148	13013.35	12139.3
855.2416	1042.9985	13011.1	12135.55
855.3867	1044.9814	12990.1	12116.2
855.5317	1046.9636	12917.95	12042.7
855.6768	1048.9452	12863.7	11989.1
855.8219	1050.926	12872.15	11998.6
855.9669	1052.9061	12823.25	11947.15
856.112	1054.8855	12777.55	11903.85
856.257	1056.8642	12784.8	11911.4
856.4021	1058.8421	12791.95	11913.85
856.5471	1060.8194	12748.35	11873.4
856.6921	1062.7959	12700.55	11824.25
856.8372	1064.7717	12671.95	11794.8
856.9822	1066.7469	12660.45	11782
857.1272	1068.7213	12628.45	11748.9
857.2723	1070.695	12611.95	11735.15
857.4173	1072.6679	12564.25	11688
857.5623	1074.6402	12546.25	11670.55
857.7073	1076.6117	12567.4	11686.35
857.8523	1078.5826	12530.55	11654.85
857.9973	1080.5527	12487.8	11608.8
858.1423	1082.5221	12420.3	11544.55
858.2873	1084.4908	12393.25	11515.75
858.4323	1086.4587	12359.15	11479.85
858.5773	1088.426	12326.55	11449.9
858.7223	1090.3925	12265	11382.7
858.8673	1092.3584	12281.8	11404.9
859.0123	1094.3235	12224.85	11350.35
859.1573	1096.2879	12206.5	11327.2
859.3022	1098.2515	12185.6	11310.85
859.4472	1100.2145	12189.45	11313.9
859.5922	1102.1767	12168.9	11287
859.7371	1104.1382	12150.3	11275.2
859.8821	1106.099	12147.65	11268.2
860.027	1108.0591	12159	11282.5
860.172	1110.0185	12160.45	11282.65
860.3169	1111.9771	12192.3	11313.25
860.4619	1113.9351	12149.05	11270.35
860.6068	1115.8923	12140.35	11263.1
860.7517	1117.8488	12131.45	11252.45
860.8967	1119.8045	12101.8	11226.9
861.0416	1121.7596	12028.95	11151.85
861.1865	1123.7139	11908.3	11031.3
861.3314	1125.6675	11861.8	10983.2
861.4763	1127.6204	11870.05	10992.75
861.6212	1129.5726	11841.1	10960.7
861.7661	1131.524	11823.05	10944.7
861.911	1133.4748	11777.45	10899.05
862.0559	1135.4248	11724.85	10845.35
862.2008	1137.3741	11674.95	10796.95
862.3457	1139.3226	11614.4	10734.35
862.4905	1141.2705	11622.65	10742.05
862.6354	1143.2176	11568.25	10684.5
862.7803	1145.164	11588.95	10710.95
862.9251	1147.1097	11568.95	10687.75
863.07	1149.0546	11512.55	10632
863.2148	1150.9989	11490.65	10610.7
863.3597	1152.9424	11468.3	10588.7
863.5045	1154.8852	11444.15	10566.8
863.6493	1156.8272	11437.3	10561.6
863.7942	1158.7686	11447.85	10562.85
863.939	1160.7092	11399.45	10519.45
864.0838	1162.6491	11379.65	10496.65
864.2286	1164.5883	11373.3	10494
864.3734	1166.5267	11347.7	10467.3
864.5182	1168.4644	11335.2	10454.5
864.663	1170.4014	11341.75	10457.75
864.8078	1172.3377	11361.95	10483.4
864.9526	1174.2732	11366.85	10487.05
865.0974	1176.2081	11389.2	10509.25
865.2421	1178.1421	11452.05	10569.8
865.3869	1180.0755	11496.6	10618.8
865.5317	1182.0082	11473.5	10593.9
865.6764	1183.9401	11473.75	10594.9
865.8212	1185.8713	11397.35	10517.35
865.9659	1187.8017	11310.1	10431.25
866.1106	1189.7315	11237.25	10359.05
866.2554	1191.6605	11122.45	10244.2
866.4001	1193.5888	11081.6	10204
866.5448	1195.5163	11019.15	10140.85
866.6895	1197.4432	10961	10079.55
866.8342	1199.3693	10925.2	10044.75
866.9789	1201.2947	10868.85	9981.35
867.1236	1203.2193	10811.75	9932.6
867.2683	1205.1432	10824.85	9944.05
867.413	1207.0664	10782.8	9901.9
867.5576	1208.9889	10759.9	9877.65
867.7023	1210.9106	10684.1	9803.4
867.847	1212.8316	10663.85	9785.95
867.9916	1214.7519	10676.55	9787.85
868.1363	1216.6715	10635.95	9755.05
868.2809	1218.5903	10645.5	9765.3
868.4255	1220.5084	10631.75	9752.65
868.5701	1222.4257	10595.95	9714.6
868.7148	1224.3424	10571	9690.15
868.8594	1226.2583	10538.2	9654.8
869.004	1228.1735	10556.95	9676.45
869.1486	1230.0879	10513.2	9634.2
869.2932	1232.0016	10514.7	9636.45
869.4377	1233.9146	10519.85	9637.5
869.5823	1235.8269	10522.5	9641.6
869.7269	1237.7384	10513.8	9634.1
869.8715	1239.6492	10453.65	9573.65
870.016	1241.5592	10474.1	9592.65
870.1606	1243.4686	10450.35	9569.8
870.3051	1245.3772	10490.45	9610.6
870.4496	1247.285	10498.55	9619.05
870.5941	1249.1922	10532.7	9652.2
870.7387	1251.0986	10532.5	9654.3
870.8832	1253.0042	10531.7	9647.65
871.0277	1254.9092	10601.15	9719.3
871.1722	1256.8134	10603.6	9724.95
871.3167	1258.7169	10640.3	9757.85
871.4611	1260.6196	10660.95	9780.55
871.6056	1262.5216	10670	9790
871.7501	1264.4229	10624.6	9743.5
871.8945	1266.3234	10591.35	9709.7
872.039	1268.2232	10553.75	9673.3
872.1834	1270.1223	10526.75	9644.05
872.3278	1272.0207	10465.45	9582
872.4723	1273.9183	10446.05	9557.95
872.6167	1275.8151	10431.4	9550.25
872.7611	1277.7113	10445.65	9561.45
872.9055	1279.6067	10475.7	9593.15
873.0499	1281.5014	10523.7	9640.7
873.1943	1283.3953	10616.3	9732.3
873.3386	1285.2885	10735.25	9853.6
873.483	1287.181	10808.4	9926.05
873.6274	1289.0727	10823.3	9941.9
873.7717	1290.9637	10795.85	9914.15
873.9161	1292.854	10741.7	9859.25
874.0604	1294.7435	10654.5	9770.95
874.2047	1296.6323	10590.55	9709.5
874.349	1298.5204	10525.7	9637.8
874.4933	1300.4077	10454.3	9571.15
874.6376	1302.2943	10401.75	9521.25
874.7819	1304.1802	10383.6	9502.35
874.9262	1306.0653	10353.45	9468.25
875.0705	1307.9497	10308.35	9426.05
875.2147	1309.8333	10266.95	9385.65
875.359	1311.7162	10254.35	9370.75
875.5032	1313.5984	10237.35	9352.3
875.6475	1315.4798	10196.9	9304.4
875.7917	1317.3605	10180.85	9281.2
875.9359	1319.2405	10172.5	9288.6
876.0801	1321.1197	10143.5	9257.75
876.2243	1322.9982	10069.25	9183.75
876.3685	1324.876	10033.35	9151.65
876.5127	1326.753	9978.9	9094.85
876.6569	1328.6293	9936.75	9052.5
876.801	1330.5048	9879.75	8993.5
876.9452	1332.3796	9812.9	8931.05
877.0893	1334.2537	9783.1	8875.55
877.2335	1336.127	9725.3	8841.35
877.3776	1337.9996	9701.35	8820.7
877.5217	1339.8714	9644.75	8763.95
877.6658	1341.7426	9666	8739.4
877.8099	1343.6129	9592.4	8710.25
877.954	1345.4826	9575.8	8694.4
878.0981	1347.3515	9573	8686.5
878.2422	1349.2196	9532.35	8648.75
878.3862	1351.087	9525.85	8641.9
878.5303	1352.9537	9504.6	8619
878.6743	1354.8197	9520.75	8636.65
878.8184	1356.6849	9525.35	8643.1
878.9624	1358.5493	9484.4	8601.95
879.1064	1360.4131	9474.95	8590.75
879.2504	1362.276	9488.15	8606.4
879.3944	1364.1383	9482.55	8600.95
879.5384	1365.9998	9490.3	8600.15
879.6823	1367.8606	9450.05	8567.3
879.8263	1369.7206	9428.45	8545.75
879.9702	1371.5799	9418.35	8533.2
880.1142	1373.4384	9388.45	8505.6
880.2581	1375.2962	9385.1	8502.35
880.402	1377.1533	9295.8	8413.95
880.5459	1379.0096	9235.75	8350.6
880.6898	1380.8652	9193.05	8310.45
880.8337	1382.7201	9132.15	8248.75
880.9776	1384.5742	9103.6	8220.6
881.1215	1386.4275	9064.05	8177.85
881.2653	1388.2802	8994.65	8112.75
881.4092	1390.132	8994.9	8111.3
881.553	1391.9832	8968.65	8085.65
881.6968	1393.8336	8905.5	8021.4
881.8406	1395.6832	8898.65	8013.9
881.9844	1397.5322	8859.1	7974.95
882.1282	1399.3803	8833.8	7945.5
882.272	1401.2278	8776.4	7892.25
882.4158	1403.0745	8760.65	7877.15
882.5595	1404.9204	8717	7836.25
882.7033	1406.7656	8700.2	7814.9
882.847	1408.6101	8658.55	7774.55
882.9908	1410.4538	8649.05	7764.9
883.1345	1412.2968	8621.5	7739.35
883.2782	1414.139	8586.3	7702.25
883.4219	1415.9805	8574.3	7694.05
883.5656	1417.8213	8552.15	7645.8
883.7092	1419.6613	8540.65	7657.5
883.8529	1421.5006	8546.1	7660.55
883.9965	1423.3391	8554.75	7671.75
884.1402	1425.1769	8536.2	7653.05
884.2838	1427.0139	8574.55	7688.6
884.4274	1428.8502	8616.55	7734.95
884.571	1430.6858	8619.85	7734.25
884.7146	1432.5206	8592.45	7708.95
884.8582	1434.3547	8612.85	7729.8
885.0018	1436.188	8587.05	7702.7
885.1453	1438.0206	8581.7	7698.8
885.2889	1439.8524	8524.55	7640.05
885.4324	1441.6835	8498	7614.4
885.5759	1443.5139	8511.95	7626.25
885.7194	1445.3435	8451.85	7568.4
885.8629	1447.1724	8475.95	7593.6
886.0064	1449.0005	8452.75	7569.6
886.1499	1450.8279	8422.85	7536.9
886.2933	1452.6545	8437.9	7556.25
886.4368	1454.4804	8416.6	7533.6
886.5802	1456.3056	8401.05	7508.8
886.7237	1458.13	8375	7493.25
886.8671	1459.9536	8379.9	7495.75
887.0105	1461.7766	8326.55	7444.55
887.1539	1463.5987	8296.85	7411.8
887.2972	1465.4202	8250.85	7368.05
887.4406	1467.2409	8217	7332.95
887.584	1469.0608	8178.2	7295.35
887.7273	1470.88	8130.75	7245.9
887.8706	1472.6984	8122.2	7239.75
888.0139	1474.5161	8062.5	7175.85
888.1572	1476.3331	8041.6	7159.15
888.3005	1478.1493	8025.9	7141.8
888.4438	1479.9648	7990.15	7108.4
888.5871	1481.7795	7977	7093.55
888.7303	1483.5935	7992.45	7108.85
888.8736	1485.4067	7981.75	7097.4
889.0168	1487.2192	7963.9	7080.3
889.16	1489.031	7970.35	7083.75
889.3032	1490.842	7914.55	7030.55
889.4464	1492.6522	7932.1	7049.15
889.5896	1494.4618	7894.3	7009.65
889.7327	1496.2705	7878.5	6993.3
889.8759	1498.0785	7854.45	6968.6
890.019	1499.8858	7826.75	6942.15
890.1622	1501.6924	7796.2	6913.75
890.3053	1503.4981	7793.8	6908.5
890.4484	1505.3032	7776.15	6892.75
890.5914	1507.1075	7746.45	6861.05
890.7345	1508.911	7713.3	6829.85
890.8776	1510.7138	7707.2	6822.55
891.0206	1512.5159	7691.05	6807.85
891.1637	1514.3172	7666.65	6783.25
891.3067	1516.1178	7609.1	6724.7
891.4497	1517.9176	7630.8	6742.8
891.5927	1519.7166	7597.3	6714.6
891.7357	1521.515	7573.45	6681.65
891.8786	1523.3126	7544.95	6661.3
892.0216	1525.1094	7526.35	6640.65
892.1645	1526.9055	7496.3	6614.5
892.3074	1528.7008	7479.2	6593
892.4503	1530.4954	7414.9	6531.2
892.5932	1532.2893	7408.7	6525.65
892.7361	1534.0824	7344.6	6458.5
892.879	1535.8747	7351.25	6468.1
893.0218	1537.6663	7313.55	6429.6
893.1647	1539.4572	7299.65	6415.85
893.3075	1541.2473	7289.3	6404.55
893.4503	1543.0367	7263.45	6380.3
893.5931	1544.8253	7238.95	6349
893.7359	1546.6132	7212.15	6324.65
893.8787	1548.4003	7181.4	6289.35
894.0214	1550.1867	7176.3	6285.3
894.1642	1551.9723	7164.2	6275.2
894.3069	1553.7572	7134.85	6250.45
894.4496	1555.5414	7114.8	6233.05
894.5923	1557.3247	7137.65	6254.9
894.735	1559.1074	7130.25	6247.7
894.8777	1560.8893	7115.75	6233.95
895.0204	1562.6705	7118.05	6237.3
895.163	1564.4509	7116.1	6234.5
895.3056	1566.2305	7092.9	6211.95
895.4482	1568.0094	7117.2	6235.55
895.5908	1569.7876	7078.55	6196.9
895.7334	1571.565	7069.3	6187.65
895.876	1573.3417	7038.1	6156.6
896.0186	1575.1176	7030.2	6147.9
896.1611	1576.8928	7010.75	6128.85
896.3036	1578.6672	6992	6111.1
896.4461	1580.4409	6990.95	6110.3
896.5886	1582.2138	6991	6108.15
896.7311	1583.986	6986.45	6105.95
896.8736	1585.7575	6990.8	6109.8
897.0161	1587.5282	7001.8	6120.1
897.1585	1589.2981	7008.25	6129.25
897.3009	1591.0673	6974.7	6094.2
897.4433	1592.8358	6993.5	6112.75
897.5857	1594.6035	6976.15	6091.5
897.7281	1596.3704	6932.55	6050.4
897.8705	1598.1366	6887.85	6005.9
898.0128	1599.9021	6848.15	5967.05
898.1551	1601.6668	6808.15	5925.25
898.2975	1603.4308	6773.6	5891.5
898.4398	1605.194	6760.75	5873.65
898.5821	1606.9564	6752.4	5872.7
898.7243	1608.7182	6783.15	5898.8
898.8666	1610.4791	6795.6	5914.7
899.0088	1612.2394	6832.4	5953.65
899.1511	1613.9988	6886	6004.25
899.2933	1615.7576	6915	6035.4
899.4355	1617.5156	6904.55	6019.3
899.5776	1619.2728	6899.85	6019.7
899.7198	1621.0293	6835.55	5954.3
899.862	1622.785	6758.65	5872.85
900.0041	1624.54	6632.8	5750.75
900.1462	1626.2942	6542.7	5661.2
900.2883	1628.0477	6444.5	5561.45
900.4304	1629.8005	6379.4	5494.55
900.5725	1631.5525	6324.9	5443.75
900.7145	1633.3037	6260.75	5379.6
900.8566	1635.0542	6218.85	5339.2
900.9986	1636.804	6199.2	5319.95
901.1406	1638.553	6237.55	5267.3
901.2826	1640.3013	6111.85	5230.85
901.4245	1642.0488	6087.9	5206.65
901.5665	1643.7955	6070.45	5191.25
901.7085	1645.5416	6055.35	5175.1
901.8504	1647.2868	6019.1	5138.2
901.9923	1649.0313	5979.1	5097.2
902.1342	1650.7751	5967.35	5084.6
902.2761	1652.5181	5947.25	5066.25
902.4179	1654.2604	5922.6	5041.85
902.5598	1656.0019	5894.25	5013.9
902.7016	1657.7427	5898.25	5016.5
902.8434	1659.4828	5886.05	5007.25
902.9852	1661.222	5883.25	5002.5
903.127	1662.9606	5882.4	5003.3
903.2687	1664.6984	5917.65	5035.6
903.4105	1666.4354	5888.3	5006.6
903.5522	1668.1717	5862.95	4980.3
903.6939	1669.9072	5814.55	4931.4
903.8356	1671.642	5778.25	4894.65
903.9773	1673.3761	5749.6	4867.65
904.119	1675.1094	5694.25	4814.25
904.2606	1676.8419	5656.1	4775.25
904.4022	1678.5737	5630.4	4750.6
904.5439	1680.3048	5601.65	4718.7
904.6855	1682.0351	5571.15	4688.3
904.827	1683.7646	5553.2	4668.55
904.9686	1685.4934	5532.5	4652.3
905.1101	1687.2215	5505.05	4622.25
905.2517	1688.9488	5460.25	4579.5
905.3932	1690.6754	5444.65	4564.95
905.5347	1692.4012	5426.25	4544.75
905.6761	1694.1263	5402.95	4521.55
905.8176	1695.8506	5392	4509.7
905.9591	1697.5742	5363.7	4483.2
906.1005	1699.297	5355.95	4476.2
906.2419	1701.0191	5318.5	4436.45
906.3833	1702.7404	5295.9	4415.75
906.5246	1704.461	5278.4	4397.25
906.666	1706.1808	5270.75	4387.7
906.8073	1707.8999	5246.35	4362.85
906.9487	1709.6182	5222.3	4341.8
907.09	1711.3358	5207.9	4328.9
907.2313	1713.0527	5204.6	4328
907.3725	1714.7688	5193.65	4308.15
907.5138	1716.4841	5170.75	4289.15
907.655	1718.1987	5169.25	4283.1
907.7962	1719.9126	5154.6	4274.95
907.9374	1721.6257	5127.15	4245.15
908.0786	1723.338	5123.25	4241.8
908.2198	1725.0496	5104.4	4222.25
908.3609	1726.7605	5086.05	4203.55
908.502	1728.4706	5082.65	4203.6
908.6431	1730.18	5060.45	4178.25
908.7842	1731.8886	5070.35	4191.2
908.9253	1733.5964	5041.05	4154.65
909.0664	1735.3036	5041.65	4158.45
909.2074	1737.0099	5042.2	4161.95
909.3484	1738.7156	5034.3	4154.8
909.4894	1740.4204	5010.2	4127.95
909.6304	1742.1246	5022.05	4140.05
909.7714	1743.8279	4999.05	4118.4
909.9123	1745.5306	4976.65	4094.2
910.0532	1747.2325	4973.55	4093.45
910.1941	1748.9336	4983.9	4103.5
910.335	1750.634	4967.4	4084.6
910.4759	1752.3336	4957.25	4077.85
910.6168	1754.0325	4943.3	4063.4
910.7576	1755.7307	4947.65	4070.55
910.8984	1757.4281	4955.3	4075.6
911.0392	1759.1247	4944.55	4057.7
911.18	1760.8206	4940.45	4055.75
911.3208	1762.5158	4918.8	4034.05
911.4615	1764.2102	4913.3	4032.2
911.6022	1765.9039	4891.2	4009.6
911.7429	1767.5968	4879.3	3998.45
911.8836	1769.289	4875.65	3993
912.0243	1770.9804	4858.2	3978.6
912.1649	1772.6711	4857.05	3975.2
912.3056	1774.361	4836	3954.45
912.4462	1776.0502	4853.45	3972.85
912.5868	1777.7386	4831.55	3947.85
912.7274	1779.4263	4816.75	3938.05
912.8679	1781.1132	4827.7	3948.1
913.0084	1782.7994	4800.2	3919.9
913.149	1784.4849	4801.65	3922.75
913.2895	1786.1696	4790.9	3890.45
913.4299	1787.8535	4761.6	3882.75
913.5704	1789.5367	4750.05	3869.6
913.7108	1791.2192	4735.55	3856.6
913.8513	1792.9009	4764.5	3856.3
913.9917	1794.5818	4718.35	3837.35
914.132	1796.2621	4720.65	3841.55
914.2724	1797.9415	4726.2	3843.95
914.4128	1799.6202	4697.6	3817.4
914.5531	1801.2982	4693.55	3811.5
914.6934	1802.9755	4672.15	3787.95
914.8337	1804.6519	4658.85	3777.85
914.9739	1806.3277	4650.85	3769.85
915.1142	1808.0027	4626.45	3746.5
915.2544	1809.6769	4629.4	3749.05
915.3946	1811.3504	4616.35	3735.15
915.5348	1813.0231	4584.9	3705.5
915.675	1814.6951	4603.3	3723.75
915.8151	1816.3664	4597.4	3716.6
915.9553	1818.0369	4599.3	3717.65
916.0954	1819.7067	4588.65	3708.9
916.2355	1821.3757	4574.2	3690.3
916.3755	1823.044	4584.55	3703.55
916.5156	1824.7115	4562.2	3679.75
916.6556	1826.3783	4527.3	3647.45
916.7956	1828.0443	4532.15	3653.4
916.9356	1829.7096	4525.4	3642.75
917.0756	1831.3741	4525.65	3642.5
917.2155	1833.0379	4500.9	3621.15
917.3555	1834.701	4493.15	3612.5
917.4954	1836.3633	4497.1	3616.1
917.6353	1838.0248	4484.1	3601.95
917.7751	1839.6856	4469.75	3592.4
917.915	1841.3457	4465.4	3585.2
918.0548	1843.005	4445.85	3564.45
918.1946	1844.6636	4455.45	3575.6
918.3344	1846.3214	4426.4	3544.55
918.4742	1847.9785	4424.2	3546.55
918.6139	1849.6349	4434.1	3553.1
918.7537	1851.2904	4430.75	3539.85
918.8934	1852.9453	4406.2	3524.85
919.0331	1854.5994	4395.35	3511.2
919.1727	1856.2528	4383.55	3498.7
919.3124	1857.9054	4378.65	3499.45
919.452	1859.5572	4389.1	3510.8
919.5916	1861.2083	4381.6	3501.35
919.7312	1862.8587	4355.35	3474
919.8708	1864.5084	4351.8	3471.8
920.0103	1866.1572	4350.8	3469.85
920.1498	1867.8054	4318	3438.2
920.2893	1869.4528	4317.95	3437.75
920.4288	1871.0994	4303.35	3422.2
920.5683	1872.7453	4296.25	3413.65
920.7077	1874.3905	4311.1	3423.65
920.8471	1876.0349	4295.6	3415
920.9865	1877.6786	4283.85	3401.15
921.1259	1879.3215	4280.1	3399.3
921.2653	1880.9637	4274.35	3392.15
921.4046	1882.6051	4260.2	3380
921.5439	1884.2458	4260.45	3377.15
921.6832	1885.8858	4251.9	3370.75
921.8225	1887.525	4244.25	3362.15
921.9617	1889.1634	4224	3343.9
922.101	1890.8011	4231.4	3350.15
922.2402	1892.4381	4204.45	3323.35
922.3794	1894.0743	4218.6	3337.3
922.5185	1895.7098	4202.4	3322.2
922.6577	1897.3446	4197.75	3315.6
922.7968	1898.9786	4191.05	3306.95
922.9359	1900.6118	4184.05	3303.5
923.075	1902.2443	4161.75	3278.6
923.214	1903.8761	4156.95	3277.05
923.3531	1905.5071	4130.45	3249.05
923.4921	1907.1374	4128.05	3245.1
923.6311	1908.7669	4134.3	3253.1
923.77	1910.3957	4113.2	3232.2
923.909	1912.0237	4100.05	3220.95
924.0479	1913.651	4097.5	3215.8
924.1868	1915.2776	4083.9	3204.3
924.3257	1916.9034	4087.6	3210.5
924.4646	1918.5285	4050.2	3171.55
924.6034	1920.1528	4045	3164.15
924.7422	1921.7764	4042.4	3161.6
924.881	1923.3992	4018.65	3138.95
925.0198	1925.0213	4014.55	3134.05
925.1586	1926.6427	3994.9	3115.15
925.2973	1928.2633	4170.5	3077.25
925.436	1929.8832	4024	3140.3
925.5747	1931.5023	3983.6	3104.55
925.7134	1933.1207	3964.6	3084
925.852	1934.7383	3951.8	3071.7
925.9906	1936.3552	3948.85	3068.9
926.1292	1937.9714	3940.55	3059.4
926.2678	1939.5868	3940.05	3056.4
926.4064	1941.2015	3923.9	3040.45
926.5449	1942.8154	3907.65	3027.2
926.6834	1944.4286	3895.55	3014.65
926.8219	1946.041	3892.4	2988
926.9604	1947.6528	3871.85	2987.1
927.0988	1949.2637	3858	2978.15
927.2372	1950.8739	3872.95	2990.1
927.3756	1952.4834	3849.25	2967.4
927.514	1954.0921	3847.45	2966.8
927.6523	1955.7001	3834.55	2952.7
927.7907	1957.3074	3824.1	2946.9
927.929	1958.9139	3808.45	2928.8
928.0673	1960.5197	3808.55	2926.6
928.2055	1962.1247	3800.85	2921.9
928.3438	1963.729	3795.9	2916.6
928.482	1965.3325	3802.05	2898.15
928.6202	1966.9353	3764.1	2884.95
928.7584	1968.5374	3765.15	2883.85
928.8965	1970.1387	3751.8	2872.9
929.0346	1971.7393	3742.05	2863.8
929.1727	1973.3392	3746.05	2865.25
929.3108	1974.9383	3728.15	2849.45
929.4489	1976.5366	3716.75	2838.35
929.5869	1978.1342	3719.2	2838.6
929.7249	1979.7311	3716.3	2834.4
929.8629	1981.3273	3695.6	2813.7
930.0009	1982.9227	3687.65	2809.1
930.1388	1984.5173	3691.95	2811.5
930.2767	1986.1112	3675.3	2796.7
930.4146	1987.7044	3678.3	2799.8
930.5525	1989.2968	3667.5	2787.4
930.6904	1990.8885	3669	2787.55
930.8282	1992.4795	3674.6	2794.05
930.966	1994.0697	3657.65	2779.9
931.1038	1995.6592	3639.2	2757.35
931.2415	1997.2479	3634.05	2754.7
931.3793	1998.8359	3638.55	2760.65
931.517	2000.4232	3609.9	2732.1
931.6547	2002.0097	3607.7	2730.6
931.7923	2003.5955	3579.95	2698.8
931.93	2005.1805	3617.55	2736.55
932.0676	2006.7648	3595.4	2718.15
932.2052	2008.3484	3593.6	2714.5
932.3427	2009.9312	3596	2716.05
932.4803	2011.5133	3569.4	2691.8
932.6178	2013.0946	3562.2	2685.45
932.7553	2014.6752	3560.3	2684.3
932.8928	2016.2551	3556.05	2676.85
933.0302	2017.8342	3541.45	2663.7
933.1676	2019.4126	3532.4	2655.95
933.305	2020.9902	3530.9	2654.75
933.4424	2022.5672	3524.1	2646.5
933.5798	2024.1433	3525.5	2643.1
933.7171	2025.7188	3514.6	2639.65
933.8544	2027.2935	3504.8	2627
933.9917	2028.8674	3510.25	2633.15
934.129	2030.4406	3494.7	2616.9
934.2662	2032.0131	3497.9	2622.2
934.4034	2033.5849	3480.35	2596.5
934.5406	2035.1559	3469	2592.15
934.6778	2036.7261	3477	2599.6
934.8149	2038.2957	3468.35	2591.35
934.952	2039.8645	3461.9	2584.45
935.0891	2041.4325	3462.9	2581.7
935.2262	2042.9998	3464.95	2587
935.3632	2044.5664	3463.6	2583.95
935.5002	2046.1323	3455.35	2575.7
935.6372	2047.6974	3446.7	2568.9
935.7742	2049.2617	3434.95	2556.3
935.9111	2050.8254	3431.15	2548.5
936.048	2052.3883	3441.95	2562.55
936.1849	2053.9504	3417.55	2539.3
936.3218	2055.5118	3412.15	2533.1
936.4586	2057.0725	3406.15	2524.6
936.5955	2058.6325	3405.95	2526
936.7323	2060.1917	3389.55	2512.35
936.869	2061.7502	3392.5	2510.9
937.0058	2063.3079	3396.25	2518.3
937.1425	2064.8649	3392.15	2509.7
937.2792	2066.4212	3380.5	2501.45
937.4159	2067.9767	3378.9	2501.85
937.5525	2069.5315	3363.15	2484.95
937.6891	2071.0856	3364.35	2488.2
937.8257	2072.6389	3355.45	2477.65
937.9623	2074.1915	3332.45	2454.95
938.0989	2075.7433	3337.5	2457.95
938.2354	2077.2945	3331.5	2454.15
938.3719	2078.8448	3332.35	2454.55
938.5084	2080.3945	3320.6	2440.3
938.6448	2081.9434	3318.95	2441.1
938.7812	2083.4916	3314.45	2435
938.9176	2085.039	3303.4	2423.1
939.054	2086.5857	3304.3	2424.65
939.1903	2088.1317	3303.55	2424.7
939.3267	2089.677	3297.85	2417.8
939.463	2091.2215	3300.25	2419.8
939.5992	2092.7652	3287.3	2408.3
939.7355	2094.3083	3285.05	2406.95
939.8717	2095.8506	3271.95	2394.85
940.0079	2097.3921	3271.45	2394.6
940.1441	2098.933	3274.65	2396.15
940.2802	2100.4731	3266.25	2387.65
940.4163	2102.0124	3282.2	2383.8
940.5524	2103.5511	3265.3	2387.55
940.6885	2105.089	3259.6	2380.65
940.8245	2106.6261	3248.6	2369.75
940.9606	2108.1626	3252.1	2373.7
941.0965	2109.6983	3282	2374.95
941.2325	2111.2332	3251.1	2374.15
941.3684	2112.7675	3248.4	2369.05
941.5044	2114.301	3250.9	2369.2
941.6403	2115.8337	3252.8	2374.85
941.7761	2117.3657	3231.05	2353.35
941.912	2118.897	3229.45	2350.35
942.0478	2120.4276	3228.75	2342
942.1835	2121.9575	3210.45	2331.7
942.3193	2123.4866	3215.85	2334.35
942.455	2125.0149	3214.5	2332.2
942.5907	2126.5426	3195.5	2316.6
942.7264	2128.0695	3191.6	2308.55
942.8621	2129.5956	3191.95	2316
942.9977	2131.1211	3196.9	2314.25
943.1333	2132.6458	3185.4	2307.45
943.2689	2134.1698	3181	2302.1
943.4044	2135.693	3175.25	2294.95
943.54	2137.2155	3164.5	2281.65
943.6755	2138.7373	3164.15	2285.4
943.8109	2140.2584	3166.15	2289.8
943.9464	2141.7787	3155.2	2271.55
944.0818	2143.2983	3137.3	2262.4
944.2172	2144.8171	3136.2	2259.1
944.3526	2146.3353	3132.7	2252.5
944.4879	2147.8527	3116.35	2239.6
944.6232	2149.3693	3129.45	2251.8
944.7585	2150.8853	3106.25	2226.95
944.8938	2152.4005	3104.5	2225.8
945.029	2153.9149	3118	2238.2
945.1642	2155.4287	3094.55	2216.95
945.2994	2156.9417	3089.15	2208.95
945.4346	2158.454	3085	2204
945.5697	2159.9655	3081.9	2202.4
945.7048	2161.4764	3076.45	2197.6
945.8399	2162.9865	3084.95	2206.8
945.9749	2164.4958	3075.75	2194.45
946.1099	2166.0045	3068.8	2188.35
946.2449	2167.5124	3060.35	2181.9
946.3799	2169.0195	3063.1	2187.1
946.5148	2170.526	3051.7	2171.5
946.6498	2172.0317	3053.5	2175.35
946.7846	2173.5367	3040.45	2161.95
946.9195	2175.0409	3044.4	2167.85
947.0543	2176.5445	3034.55	2154.4
947.1891	2178.0473	3029.1	2149.05
947.3239	2179.5494	3016.85	2134.7
947.4587	2181.0507	3020.45	2141.85
947.5934	2182.5513	3009.2	2129.4
947.7281	2184.0512	3002.3	2122.1
947.8628	2185.5504	2998.85	2121.2
947.9974	2187.0488	2986	2107.8
948.132	2188.5465	2982.7	2106.9
948.2666	2190.0435	2968.2	2091.65
948.4012	2191.5397	2971	2092.4
948.5357	2193.0353	2967.4	2089.55
948.6702	2194.5301	2956.95	2076.1
948.8047	2196.0241	2960.75	2080.85
948.9392	2197.5175	2939.45	2059.5
949.0736	2199.0101	2941.65	2058.95
949.208	2200.502	2926.35	2047.45
949.3424	2201.9931	2918.65	2041.3
949.4767	2203.4835	2924	2044.9
949.611	2204.9733	2917.25	2033
949.7453	2206.4622	2905.85	2028.8
949.8796	2207.9505	2895.9	2016.1
950.0138	2209.438	2884.15	2007.65
950.148	2210.9248	2883.05	2002.25
950.2822	2212.4109	2866.05	1985.95
950.4164	2213.8962	2867.15	1984.55
950.5505	2215.3809	2874.1	1992.5
950.6846	2216.8648	2869.1	1990.6
950.8186	2218.3479	2869	1986.75
950.9527	2219.8304	2847.75	1966.6
951.0867	2221.3121	2842.4	1961.65
951.2207	2222.7931	2841.25	1961.6
951.3546	2224.2733	2825.55	1946.5
951.4886	2225.7529	2813.9	1933.8
951.6225	2227.2317	2822.2	1940.95
951.7563	2228.7098	2816.55	1939.95
951.8902	2230.1872	2802.2	1924.75
952.024	2231.6638	2787.9	1909.95
952.1578	2233.1397	2792.55	1908.5
952.2916	2234.6149	2784.7	1908.35
952.4253	2236.0894	2782.3	1903.2
952.559	2237.5632	2788.45	1899.8
952.6927	2239.0362	2779.8	1901.2
952.8263	2240.5085	2760.65	1883
952.9599	2241.9801	2750.45	1872.45
953.0935	2243.4509	2740.25	1862.6
953.2271	2244.921	2735.95	1855.55
953.3606	2246.3904	2749.2	1868.45
953.4941	2247.8591	2738.9	1860.6
953.6276	2249.3271	2734.4	1854.2
953.7611	2250.7943	2725.2	1844.5
953.8945	2252.2608	2709.8	1830.25
954.0279	2253.7266	2716.8	1839.95
954.1612	2255.1917	2715.65	1835.45
954.2946	2256.656	2702.35	1822.75
954.4279	2258.1197	2689.8	1813
954.5612	2259.5826	2679.9	1799.75
954.6944	2261.0447	2692.45	1811.25
954.8276	2262.5062	2683.3	1802.25
954.9608	2263.9669	2687.75	1805.7
955.094	2265.4269	2666	1787.8
955.2271	2266.8862	2667.85	1789.8
955.3602	2268.3448	2652.95	1775.05
955.4933	2269.8026	2659.5	1781.9
955.6264	2271.2598	2660.55	1781.85
955.7594	2272.7162	2655.85	1779
955.8924	2274.1719	2649.05	1768.6
956.0253	2275.6268	2648.6	1770.5
956.1583	2277.0811	2641	1762.3
956.2912	2278.5346	2628.65	1750.5
956.4241	2279.9874	2623.85	1745.15
956.5569	2281.4395	2628.9	1750.9
956.6897	2282.8908	2616.9	1732.9
956.8225	2284.3414	2620.65	1739.65
956.9553	2285.7914	2606.55	1729.3
957.088	2287.2406	2594.05	1715.45
957.2207	2288.689	2596.55	1718.85
957.3534	2290.1368	2606.4	1726.6
957.486	2291.5838	2596.65	1715.1
957.6186	2293.0302	2593.1	1709.7
957.7512	2294.4758	2582.15	1703.8
957.8838	2295.9206	2581.9	1701.2
958.0163	2297.3648	2564.2	1684.85
958.1488	2298.8082	2571.05	1690.15
958.2813	2300.251	2559.75	1679.3
958.4137	2301.693	2570.7	1689.45
958.5461	2303.1343	2549.45	1672.1
958.6785	2304.5748	2549.75	1671.4
958.8108	2306.0147	2535.95	1656.85
958.9432	2307.4538	2529.85	1649.1
959.0754	2308.8922	2525.85	1648.95
959.2077	2310.3299	2520.75	1643
959.3399	2311.7669	2506.75	1629.7
959.4721	2313.2031	2510.9	1630.9
959.6043	2314.6387	2500.6	1621.6
959.7365	2316.0735	2495.1	1616.55
959.8686	2317.5076	2508.9	1629.95
960.0006	2318.941	2499.25	1619.65
960.1327	2320.3737	2481.35	1600.5
960.2647	2321.8056	2492.55	1610.7
960.3967	2323.2369	2480.85	1603
960.5287	2324.6674	2480.05	1599.65
960.6606	2326.0972	2475.9	1596.85
960.7925	2327.5263	2464.15	1584.9
960.9244	2328.9547	2464.8	1586.05
961.0562	2330.3823	2443.1	1563.05
961.1881	2331.8092	2457.85	1574.7
961.3198	2333.2355	2443.7	1563.6
961.4516	2334.661	2454.95	1574.5
961.5833	2336.0858	2427.45	1545.35
961.715	2337.5098	2421.95	1541.25
961.8467	2338.9332	2435.25	1555.95
961.9783	2340.3558	2409.9	1523.7
962.1099	2341.7778	2409.75	1532.25
962.2415	2343.199	2410.95	1529.75
962.373	2344.6195	2410.2	1531.65
962.5045	2346.0393	2404.1	1525.5
962.636	2347.4583	2403.05	1523.55
962.7675	2348.8767	2392.75	1511.55
962.8989	2350.2943	2385.45	1506.45
963.0303	2351.7113	2391	1508.65
963.1617	2353.1275	2365.65	1485.75
963.293	2354.543	2375.4	1488.5
963.4243	2355.9578	2364.95	1488.45
963.5556	2357.3718	2345.15	1464.85
963.6868	2358.7852	2360.65	1479.45
963.818	2360.1978	2347.95	1467.6
963.9492	2361.6098	2335.2	1454.75
964.0803	2363.021	2338	1455.05
964.2114	2364.4315	2326.15	1447.55
964.3425	2365.8413	2330.3	1449.8
964.4736	2367.2504	2321.2	1441.05
964.6046	2368.6587	2318.85	1439.15
964.7356	2370.0664	2305.55	1425.6
964.8666	2371.4733	2302.6	1421.55
964.9975	2372.8795	2304.5	1425.9
965.1284	2374.285	2294.35	1414
965.2593	2375.6899	2280.55	1402.55
965.3901	2377.0939	2269.8	1391.6
965.5209	2378.4973	2268.3	1389.75
965.6517	2379.9	2264.15	1385.15
965.7825	2381.3019	2259.15	1380.1
965.9132	2382.7032	2250.8	1369
966.0439	2384.1037	2245.85	1370.7
966.1745	2385.5035	2242.15	1362.55
966.3051	2386.9027	2244.75	1366.05
966.4357	2388.3011	2239.25	1356.15
966.5663	2389.6987	2235.8	1355.3
966.6968	2391.0957	2220.6	1341.9
966.8273	2392.492	2223.5	1346.05
966.9578	2393.8876	2215.75	1335
967.0882	2395.2824	2210.95	1331.4
967.2186	2396.6765	2199.9	1321.25
967.349	2398.07	2196.55	1315.05
967.4793	2399.4627	2189.2	1307.55
967.6097	2400.8547	2193.5	1312.4
967.7399	2402.246	2184.9	1299.05
967.8702	2403.6366	2177.5	1296.25
968.0004	2405.0265	2164.35	1282.35
968.1306	2406.4156	2171.95	1286.05
968.2607	2407.8041	2170.35	1286.45
968.3909	2409.1918	2163.95	1282.1
968.521	2410.5789	2147.95	1267.5
968.651	2411.9652	2147.85	1264.95
968.781	2413.3508	2127.4	1248.05
968.911	2414.7358	2136.7	1255.9
969.041	2416.12	2123.2	1244.5
969.1709	2417.5035	2126.85	1246.1
969.3008	2418.8863	2108.7	1228.45
969.4307	2420.2684	2112.35	1230.75
969.5606	2421.6497	2105.55	1223.85
969.6904	2423.0304	2094.25	1214.1
969.8201	2424.4104	2103.05	1223.7
969.9499	2425.7896	2093.6	1212.35
970.0796	2427.1682	2084.2	1204.2
970.2093	2428.546	2088.35	1208.65
970.3389	2429.9232	2082.05	1202.25
970.4685	2431.2996	2082	1202.6
970.5981	2432.6753	2083.65	1204.45
970.7277	2434.0503	2075.65	1195.7
970.8572	2435.4246	2065.7	1185.5
970.9867	2436.7982	2067.5	1184.8
971.1161	2438.1711	2061.9	1181.9
971.2456	2439.5433	2062.95	1182.4
971.375	2440.9148	2059.35	1175
971.5043	2442.2856	2049.15	1170.3
971.6336	2443.6557	2041.35	1160.3
971.7629	2445.025	2039.1	1160.45
971.8922	2446.3937	2041	1163.05
972.0214	2447.7617	2034.35	1154
972.1506	2449.1289	2030.35	1150.45
972.2798	2450.4955	2028.75	1146.55
972.4089	2451.8613	2018.15	1138.4
972.538	2453.2265	2015.25	1134.5
972.6671	2454.5909	2022.55	1142.55
972.7961	2455.9546	2017.85	1137.8
972.9251	2457.3177	2000.85	1119.05
973.0541	2458.68	2003.4	1122.75
973.1831	2460.0416	1994.8	1115.3
973.312	2461.4025	2004.8	1125.05
973.4408	2462.7627	2006.05	1113.2
973.5697	2464.1222	1992.1	1114.6
973.6985	2465.4811	1985.1	1103.3
973.8273	2466.8392	1987	1106.05
973.956	2468.1966	1992	1109.7
974.0847	2469.5533	1981.3	1100.25
974.2134	2470.9093	1967.4	1086.8
974.3421	2472.2645	1962.75	1082.2
974.4707	2473.6191	1970.8	1092
974.5993	2474.973	1961.3	1081.3
974.7278	2476.3262	1958.9	1076.25
974.8563	2477.6787	1946.8	1069.05
974.9848	2479.0305	1944.75	1066.65
975.1132	2480.3816	1940.55	1059.6
975.2417	2481.7319	1940	1059.4
975.37	2483.0816	1943.65	1062.15
975.4984	2484.4306	1929.55	1049.15
975.6267	2485.7789	1918.2	1038.25
975.755	2487.1264	1931.85	1050
975.8833	2488.4733	1919.5	1039
976.0115	2489.8195	1921.1	1033.45
976.1397	2491.165	1903.4	1022.55
976.2678	2492.5097	1908.35	1027.6
976.3959	2493.8538	1907.6	1026.4
976.524	2495.1972	1889.5	1008.95
976.6521	2496.5398	1888.4	1006.8
976.7801	2497.8818	1891.85	1010.55
976.9081	2499.2231	1889.2	1010.3
977.036	2500.5637	1880.3	997.65
977.164	2501.9035	1882.15	999.45
977.2918	2503.2427	1868.1	984.25
977.4197	2504.5812	1869.8	989.7
977.5475	2505.919	1872.8	991.25
977.6753	2507.256	1867.95	987.15
977.8031	2508.5924	1860.7	981.55
977.9308	2509.9281	1864.85	978.8
978.0585	2511.2631	1854.55	976.15
978.1861	2512.5974	1853.15	974.65
978.3137	2513.9309	1847.4	966.55
978.4413	2515.2638	1869.15	959.45
978.5689	2516.596	1838.15	959.9
978.6964	2517.9275	1840.05	957.75
978.8239	2519.2583	1833.4	953.65
978.9513	2520.5884	1822.2	940.25
979.0788	2521.9178	1830.7	951.15
979.2062	2523.2465	1829.45	948.75
979.3335	2524.5745	1816.2	937.2
979.4608	2525.9018	1808.3	927.65
979.5881	2527.2284	1807.05	930.3
979.7154	2528.5543	1806.35	927.75
979.8426	2529.8796	1806.9	926.6
979.9698	2531.2041	1806.35	925.75
980.0969	2532.5279	1804.9	926.55
980.224	2533.851	1793.5	912.2
980.3511	2535.1735	1798	918.8
980.4781	2536.4952	1792.35	913.55
980.6052	2537.8163	1795.35	915.75
980.7321	2539.1366	1776.95	898.4
980.8591	2540.4562	1784.2	905
980.986	2541.7752	1778.5	900.7
981.1129	2543.0935	1777.75	897
981.2397	2544.411	1776.75	895.85
981.3665	2545.7279	1771	891.3
981.4933	2547.0441	1772.25	894.8
981.62	2548.3596	1771	889.3
981.7467	2549.6744	1769.3	890.2
981.8734	2550.9885	1770	881.95
982.0001	2552.3019	1762.15	884.6
982.1267	2553.6146	1751.75	872.25
982.2532	2554.9266	1757.55	877.2
982.3798	2556.2379	1753.95	870.05
982.5063	2557.5485	1745.9	867.4
982.6327	2558.8585	1746.75	859.45
982.7592	2560.1677	1747.05	862.3
982.8856	2561.4762	1737.65	856.65
983.0119	2562.7841	1741.6	856.7
983.1383	2564.0913	1742.5	863.45
983.2646	2565.3977	1725	847.15
983.3908	2566.7035	1730.55	851.3
983.517	2568.0086	1729.35	848.5
983.6432	2569.313	1734.6	854.55
983.7694	2570.6167	1729.15	845.05
983.8955	2571.9197	1720.15	841.65
984.0216	2573.222	1724.3	841.75
984.1476	2574.5236	1719.25	838.1
984.2737	2575.8246	1720.6	837.95
984.3996	2577.1248	1714.35	833
984.5256	2578.4244	1709.2	830
984.6515	2579.7232	1703.05	821.9
984.7774	2581.0214	1734.05	829.4
984.9032	2582.3189	1704.65	826.6
985.029	2583.6157	1716.9	831.5
985.1548	2584.9118	1701.9	824.35
985.2806	2586.2072	1699.2	818.45
985.4063	2587.5019	1697.95	818.7
985.5319	2588.7959	1696.05	815.15
985.6576	2590.0893	1688.25	807.5
985.7832	2591.3819	1688.4	810.55
985.9087	2592.6739	1678.15	800
986.0343	2593.9652	1680	798.2
986.1597	2595.2557	1677.75	799.75
986.2852	2596.5456	1677.15	793.9
986.4106	2597.8348	1669.8	790.9
986.536	2599.1234	1658.85	782.35
986.6614	2600.4112	1660.9	780.45
986.7867	2601.6983	1663.65	780.7
986.912	2602.9848	1657.8	777.6
987.0372	2604.2705	1652.6	767.75
987.1624	2605.5556	1644.3	763.5
987.2876	2606.84	1645.1	765.15
987.4128	2608.1237	1641.6	761
987.5379	2609.4067	1636.6	758.5
987.6629	2610.689	1647.1	758.7
987.788	2611.9707	1637.85	753.55
987.913	2613.2516	1633.45	750.2
988.0379	2614.5319	1623	744.8
988.1629	2615.8115	1613.35	732
988.2878	2617.0903	1625.75	745.2
988.4126	2618.3685	1618.1	739.05
988.5375	2619.6461	1615.35	735.9
988.6622	2620.9229	1604.6	725.6
988.787	2622.199	1607.4	727.85
988.9117	2623.4745	1607.7	728.15
989.0364	2624.7493	1598.8	721.75
989.161	2626.0234	1594.6	715.85
989.2857	2627.2968	1592.55	712.55
989.4102	2628.5695	1593.75	710.25
989.5348	2629.8415	1597.5	716.65
989.6593	2631.1128	1584.9	705
989.7837	2632.3835	1584.4	705.25
989.9082	2633.6535	1581.9	704.75
990.0326	2634.9228	1575.95	695.15
990.1569	2636.1914	1565.15	687.1
990.2812	2637.4593	1571.5	686.6
990.4055	2638.7265	1568.3	688.2
990.5298	2639.9931	1564.25	684.6
990.654	2641.259	1563.85	683.3
990.7782	2642.5242	1563.8	683.35
990.9023	2643.7887	1560.05	678.9
991.0264	2645.0525	1554.6	675.85
991.1505	2646.3156	1542.5	662.65
991.2745	2647.5781	1542.9	664.7
991.3985	2648.8398	1548.35	668.05
991.5225	2650.1009	1547.55	659.05
991.6464	2651.3613	1537.9	658.95
991.7703	2652.6211	1541.25	661.65
991.8942	2653.8801	1541.95	663.1
992.018	2655.1385	1535.2	654.2
992.1418	2656.3961	1524.05	645.65
992.2655	2657.6531	1526.25	645.1
992.3892	2658.9094	1529.75	650.6
992.5129	2660.1651	1524.95	646.4
992.6366	2661.42	1527.05	647.45
992.7602	2662.6743	1522.95	644.5
992.8837	2663.9279	1522.3	641.8
993.0073	2665.1808	1514.05	633.85
993.1307	2666.433	1511.4	632.4
993.2542	2667.6846	1505.2	626.05
993.3776	2668.9354	1513.15	631.8
993.501	2670.1856	1505.25	624.6
993.6244	2671.4351	1505.85	628.6
993.7477	2672.6839	1503.05	623.75
993.8709	2673.9321	1502.25	621.95
993.9942	2675.1795	1503.65	625.2
994.1174	2676.4263	1502.85	624.8
994.2405	2677.6724	1486.4	606.75
994.3637	2678.9179	1489.45	610.7
994.4868	2680.1626	1494.15	614.85
994.6098	2681.4067	1486.75	609.6
994.7328	2682.6501	1479.05	599.95
994.8558	2683.8928	1480.95	599.8
994.9788	2685.1348	1474.3	597.25
995.1017	2686.3761	1473.85	593.7
995.2245	2687.6168	1472.9	592.75
995.3474	2688.8568	1466.85	588.55
995.4702	2690.0961	1465.4	587.1
995.5929	2691.3348	1469.8	590.8
995.7156	2692.5727	1465.05	585.3
995.8383	2693.81	1453.15	574.25
995.961	2695.0466	1456.35	577.9
996.0836	2696.2826	1457.3	574.7
996.2062	2697.5178	1470.15	567.7
996.3287	2698.7524	1450.65	572.7
996.4512	2699.9863	1461.3	579.25
996.5737	2701.2195	1447.5	570.9
996.6961	2702.452	1456.1	575.4
996.8185	2703.6839	1448.05	568.9
996.9408	2704.9151	1439	561
997.0631	2706.1456	1437.3	558.15
997.1854	2707.3755	1433.8	556.05
997.3077	2708.6046	1449.55	565.95
997.4299	2709.8331	1436.95	558.2
997.552	2711.0609	1433.4	552.55
997.6742	2712.2881	1434.05	554.65
997.7963	2713.5145	1434.5	553.1
997.9183	2714.7403	1428.8	550.15
998.0403	2715.9654	1425.3	544.5
998.1623	2717.1899	1439.6	547.1
998.2842	2718.4136	1422.35	543.7
998.4062	2719.6367	1422.9	543.3
998.528	2720.8591	1421.25	534
998.6498	2722.0809	1414.4	537.25
998.7716	2723.3019	1419.35	536.35
998.8934	2724.5223	1417.35	535.85
999.0151	2725.7421	1406.6	525.5
999.1368	2726.9611	1411.05	529.95
999.2584	2728.1795	1405.05	520.55
999.38	2729.3972	1400.3	522.85
999.5016	2730.6142	1413.55	520.15
999.6231	2731.8306	1397.75	518.25
999.7446	2733.0462	1399.3	517.65
999.8661	2734.2612	1393.95	510.5
999.9875	2735.4756	1385.65	506.45
1000.1089	2736.6892	1377	497.65
1000.2302	2737.9022	1380.8	503.05
1000.3515	2739.1145	1379	500.55
1000.4728	2740.3262	1380.35	491.45
1000.594	2741.5372	1366.5	486.85
1000.7152	2742.7475	1367.7	487
1000.8363	2743.9571	1371.65	490.55
1000.9575	2745.1661	1369.4	485.7
1001.0785	2746.3744	1360.7	480.55
1001.1996	2747.582	1363.15	483.25
1001.3206	2748.7889	1363.85	483.65
1001.4415	2749.9952	1360.55	482.7
1001.5625	2751.2008	1354.15	474.65
1001.6833	2752.4057	1355.55	474.4
1001.8042	2753.61	1345.9	467.5
1001.925	2754.8136	1353.75	473.2
1002.0458	2756.0165	1344.7	466.3
1002.1665	2757.2188	1342.75	464.05
1002.2872	2758.4204	1346.8	468.4
1002.4078	2759.6213	1342	463.35
1002.5285	2760.8215	1346.95	463.8
1002.649	2762.0211	1337.3	457.15
1002.7696	2763.22	1337.5	456
1002.8901	2764.4182	1336.65	456.45
1003.0106	2765.6158	1326.9	447.4
1003.131	2766.8127	1327.3	448.95
1003.2514	2768.009	1328.1	448.15
1003.3717	2769.2045	1327.85	448.3
1003.492	2770.3994	1324.6	442.5
1003.6123	2771.5936	1322.25	441.45
1003.7325	2772.7872	1319.3	441.45
1003.8527	2773.9801	1320.1	438.75
1003.9729	2775.1723	1330.65	432.6
1004.093	2776.3639	1322.15	444.95
1004.2131	2777.5548	1312.2	432.55
1004.3331	2778.745	1317.45	438.1
1004.4531	2779.9346	1304.9	426.2
1004.5731	2781.1235	1308.05	427.95
1004.693	2782.3117	1302.6	424.9
1004.8129	2783.4992	1307.75	428.9
1004.9328	2784.6861	1300.6	421
1005.0526	2785.8723	1305.5	426.45
1005.1723	2787.0579	1298.05	419.05
1005.2921	2788.2428	1295.9	418.5
1005.4118	2789.427	1294.85	416.65
1005.5314	2790.6106	1286.85	407.65
1005.651	2791.7935	1283.6	404.95
1005.7706	2792.9757	1291.55	413.85
1005.8902	2794.1573	1289.65	409.05
1006.0097	2795.3382	1286.7	407.8
1006.1291	2796.5184	1277.6	398.75
1006.2485	2797.698	1283.65	402.95
1006.3679	2798.8769	1283.05	403.95
1006.4873	2800.0551	1282	403.8
1006.6066	2801.2327	1275.4	395
1006.7258	2802.4096	1272.7	395.75
1006.8451	2803.5859	1273.9	394.65
1006.9642	2804.7615	1276	395.7
1007.0834	2805.9364	1270.9	393.2
1007.2025	2807.1106	1269.25	391.15
1007.3216	2808.2842	1272.35	393.7
1007.4406	2809.4572	1269.4	390.15
1007.5596	2810.6294	1265.95	385.95
1007.6785	2811.801	1267.1	390.1
1007.7975	2812.972	1272	395.5
1007.9163	2814.1423	1264.9	386.1
1008.0352	2815.3119	1262.3	383.5
1008.154	2816.4808	1266.45	389.15
1008.2727	2817.6491	1270.55	390.6
1008.3914	2818.8167	1264.95	389.6
1008.5101	2819.9837	1280.35	396.45
1008.6288	2821.15	1272.55	394.35
1008.7474	2822.3157	1269.95	389.7
1008.8659	2823.4807	1275.3	395.65
1008.9844	2824.645	1279.2	396.5
1009.1029	2825.8086	1290.95	413.6
1009.2214	2826.9716	1291.65	413.2
1009.3398	2828.134	1289.25	411.35
1009.4581	2829.2957	1296.25	416.55
1009.5764	2830.4567	1301.3	424.65
1009.6947	2831.617	1300.75	420.45
1009.813	2832.7767	1311.3	434.45
1009.9312	2833.9358	1300.85	423.3
1010.0493	2835.0941	1302.9	423.35
1010.1675	2836.2519	1294.55	416.7
1010.2855	2837.4089	1292.1	413.45
1010.4036	2838.5653	1291.2	413.3
1010.5216	2839.7211	1283.1	405.9
1010.6396	2840.8761	1288.2	407.1
1010.7575	2842.0306	1281.8	404.35
1010.8754	2843.1843	1275.4	395.6
1010.9932	2844.3374	1276.85	399.95
1011.111	2845.4899	1279.8	400.5
1011.2288	2846.6417	1281.05	402.25
1011.3465	2847.7928	1282.9	407.3
1011.4642	2848.9433	1278.15	399.7
1011.5818	2850.0931	1279.55	401.4
1011.6995	2851.2422	1283.35	405.6
1011.817	2852.3907	1280.85	402.25
1011.9345	2853.5385	1277.15	397.5
1012.052	2854.6857	1292.85	404.9
1012.1695	2855.8323	1278.45	401.65
1012.2869	2856.9781	1281.7	403.8
1012.4042	2858.1233	1283.1	403.5
1012.5216	2859.2679	1281.7	403.95
1012.6389	2860.4118	1288.95	408.95
1012.7561	2861.555	1283.3	403.1
1012.8733	2862.6976	1280.65	400.35
1012.9905	2863.8395	1285.8	408.35
1013.1076	2864.9808	1285.4	406.65
1013.2247	2866.1214	1278.75	401.8
1013.3417	2867.2614	1285.45	408.5
1013.4587	2868.4007	1284.85	405.7
1013.5757	2869.5393	1284.75	403.95
1013.6926	2870.6773	1289.65	406.9
1013.8095	2871.8146	1292.6	412.75
1013.9263	2872.9513	1285.1	405.1
1014.0431	2874.0874	1285.8	409.3
1014.1599	2875.2227	1285.55	406.35
1014.2766	2876.3574	1278.8	400.75
1014.3933	2877.4915	1283.1	404.3
1014.51	2878.6249	1285.95	410.6
1014.6266	2879.7577	1282.15	402.55
1014.7431	2880.8898	1295	407.15
1014.8596	2882.0212	1284.45	408.8
1014.9761	2883.152	1285	407.45
1015.0925	2884.2821	1285.85	409.25
1015.2089	2885.4116	1277.8	398.8
1015.3253	2886.5405	1280.35	403.25
1015.4416	2887.6686	1288.65	406.95
1015.5579	2888.7962	1278.15	400.7
1015.6741	2889.923	1279.45	402.8
1015.7903	2891.0493	1283.55	404.7
1015.9065	2892.1748	1273.2	395.85
1016.0226	2893.2997	1275.2	395.7
1016.1387	2894.424	1268.8	393.2
1016.2547	2895.5476	1276.75	397.1
1016.3707	2896.6706	1273.25	396.6
1016.4866	2897.7929	1270.15	389.9
1016.6025	2898.9145	1275.6	394.5
1016.7184	2900.0355	1263	382.95
1016.8342	2901.1559	1270.9	391.45
1016.95	2902.2756	1268.75	390.9
1017.0658	2903.3946	1262.25	384.2
1017.1815	2904.513	1264.75	385.55
1017.2971	2905.6308	1264.3	387.55
1017.4127	2906.7479	1262.8	384.45
1017.5283	2907.8643	1260.95	382.2
1017.6439	2908.9801	1254.9	374.75
1017.7594	2910.0953	1256.85	379.5
1017.8748	2911.2098	1260.3	380.8
1017.9902	2912.3236	1264.95	378.5
1018.1056	2913.4368	1251.25	369.85
1018.2209	2914.5494	1248.5	367.95
1018.3362	2915.6613	1252.55	368.2
1018.4515	2916.7725	1251.85	370.95
1018.5667	2917.8831	1242	362.1
1018.6819	2918.9931	1239.05	356.6
1018.797	2920.1024	1236.75	356.25
1018.9121	2921.211	1235.95	356.25
1019.0271	2922.319	1227.7	349.2
1019.1421	2923.4264	1231.1	350.6
1019.2571	2924.5331	1230.8	355.55
1019.372	2925.6391	1224.4	346.5
1019.4869	2926.7445	1223.4	346.2
1019.6017	2927.8493	1226.25	347.3
1019.7165	2928.9534	1227.6	349.7
1019.8313	2930.0569	1230.7	351.45
1019.946	2931.1597	1230.95	351.35
1020.0606	2932.2619	1222.85	346.3
1020.1753	2933.3634	1228.5	350.45
1020.2899	2934.4643	1226.75	341.15
1020.4044	2935.5645	1234.9	349.65
1020.5189	2936.6641	1228.15	344.65
1020.6334	2937.763	1221.1	343.05
1020.7478	2938.8613	1226.55	346.5
1020.8622	2939.959	1222.75	339.05
1020.9765	2941.056	1222.75	346.7
1021.0908	2942.1523	1212.65	334.6
1021.2051	2943.248	1209.65	330.05
1021.3193	2944.3431	1202.65	325
1021.4334	2945.4375	1193.65	314.55
1021.5476	2946.5313	1185.9	308.45
1021.6617	2947.6244	1184.05	305
1021.7757	2948.7169	1177.75	299.4
1021.8897	2949.8087	1168.65	290.75
1022.0037	2950.8999	1163.6	285.6
1022.1176	2951.9904	1156.7	281
1022.2315	2953.0803	1158.65	280.95
1022.3453	2954.1696	1151.25	273.65
1022.4591	2955.2582	1144.5	266.6
1022.5728	2956.3462	1145.05	266.05
1022.6865	2957.4335	1139.6	260.4
1022.8002	2958.5202	1138.75	258.95
1022.9138	2959.6062	1139.55	261.25
1023.0274	2960.6916	1136.65	258.1
1023.141	2961.7764	1137.1	258.3
1023.2545	2962.8605	1136	257.35
1023.3679	2963.9439	1134.85	259
1023.4813	2965.0267	1138.85	261.9
1023.5947	2966.1089	1152.5	252.1
1023.708	2967.1905	1129.4	253.85
1023.8213	2968.2714	1131.45	253.2
1023.9346	2969.3516	1133.35	256.3
1024.0478	2970.4312	1134.6	249.75
1024.1609	2971.5102	1126.85	249.15
1024.274	2972.5885	1126.65	248.7
1024.3871	2973.6662	1130.75	247.6
1024.5002	2974.7432	1123.2	247.1
1024.6132	2975.8196	1124.4	246.2
1024.7261	2976.8954	1117.5	239.75
1024.839	2977.9705	1124.55	245.4
1024.9519	2979.045	1117.3	241.4
1025.0647	2980.1188	1120.65	241.7
1025.1775	2981.192	1121	244.3
1025.2902	2982.2645	1113.95	234.1
1025.4029	2983.3364	1116.45	237.7
1025.5156	2984.4077	1107.4	229.45
1025.6282	2985.4783	1116.65	233.25
1025.7407	2986.5483	1105.75	228.7
1025.8532	2987.6177	1107.35	229.7
1025.9657	2988.6864	1104.05	225.4
1026.0782	2989.7545	1099.05	218.55
1026.1906	2990.8219	1096.4	219.6
1026.3029	2991.8887	1095.75	215.85
1026.4152	2992.9548	1089.25	209.5
1026.5275	2994.0204	1088.55	211.55
1026.6397	2995.0852	1082.4	205.7
1026.7519	2996.1495	1086.7	207.35
1026.864	2997.2131	1082.25	206.3
1026.9761	2998.276	1080.1	202.7
1027.0882	2999.3383	1080.85	205.2
1027.2002	3000.4	1072.4	193.55
1027.3122	3001.4611	1075.4	198.2
1027.4241	3002.5215	1071.55	192.65
1027.536	3003.5812	1070.6	192.8
1027.6478	3004.6404	1064.6	186.8
1027.7596	3005.6989	1066.9	187.15
1027.8714	3006.7567	1070.5	193.3
1027.9831	3007.8139	1089.4	187.6
1028.0947	3008.8705	1065.45	187
1028.2064	3009.9264	1067.5	186
1028.3179	3010.9818	1061.25	183.65
1028.4295	3012.0364	1062.8	183.2
1028.541	3013.0905	1062.45	185.15
1028.6524	3014.1439	1062.15	184
1028.7638	3015.1966	1055.05	176.35
1028.8752	3016.2487	1057	177.65
1028.9865	3017.3002	1062.75	178.8
1029.0978	3018.3511	1052.7	175.35
1029.209	3019.4013	1050.45	172
1029.3202	3020.4509	1056.6	180.35
1029.4314	3021.4998	1053.5	174.15
1029.5425	3022.5481	1046.5	169.25
1029.6535	3023.5958	1051	172.65
1029.7645	3024.6428	1049.3	169.05
1029.8755	3025.6892	1047.4	170.25
1029.9864	3026.735	1048.85	171.1
1030.0973	3027.7802	1045.85	164.8
1030.2082	3028.8247	1046.75	166.55
1030.319	3029.8685	1048.5	170.3
1030.4297	3030.9118	1045.65	167.7
1030.5404	3031.9544	1045.45	168.35
1030.6511	3032.9963	1045.7	168.5
1030.7617	3034.0376	1045.7	168
1030.8723	3035.0783	1048.25	166.5
1030.9829	3036.1184	1047.65	170.85
1031.0934	3037.1578	1041.35	162.4
1031.2038	3038.1966	1041.7	163.2
1031.3142	3039.2348	1039.15	162.75
1031.4246	3040.2723	1046.35	159.45
1031.5349	3041.3092	1038.1	161.6
1031.6452	3042.3455	1040.9	162.9
1031.7554	3043.3811	1037.25	159.25
1031.8656	3044.4161	1038.55	160.6
1031.9758	3045.4505	1034.4	157.45
1032.0859	3046.4842	1029.2	151.65
1032.1959	3047.5173	1033.45	158.1
1032.3059	3048.5498	1034.5	155
1032.4159	3049.5816	1035.55	159.4
1032.5258	3050.6128	1032.7	154.35
1032.6357	3051.6434	1031.5	152.5
1032.7455	3052.6734	1031.25	152.5
1032.8553	3053.7027	1031.85	153.4
1032.9651	3054.7314	1031.6	156.05
1033.0748	3055.7594	1033.3	157.05
1033.1845	3056.7868	1030.85	150.85
1033.2941	3057.8136	1029.45	151.65
1033.4037	3058.8398	1030.15	153.5
1033.5132	3059.8653	1029.35	151.35
1033.6227	3060.8902	1026.8	150.6
1033.7321	3061.9145	1028.4	152.3
1033.8415	3062.9381	1028.9	151.85
1033.9509	3063.9612	1047.3	152.35
1034.0602	3064.9835	1029.8	151.75
1034.1694	3066.0053	1031.05	151.4
1034.2787	3067.0264	1024.1	148.05
1034.3878	3068.0469	1026.35	147.45
1034.497	3069.0668	1028.65	148.35
1034.6061	3070.086	1024.7	148
1034.7151	3071.1046	1022.8	145.15
1034.8241	3072.1226	1027.3	149.6
1034.9331	3073.1399	1025	148.3
1035.042	3074.1567	1020.1	142.35
1035.1508	3075.1727	1018.55	140.5
1035.2597	3076.1882	1021.65	144.25
1035.3684	3077.203	1019.6	141.8
1035.4772	3078.2173	1018.1	139.35
1035.5859	3079.2308	1021.25	140.65
1035.6945	3080.2438	1016.9	136.1
1035.8031	3081.2561	1014.6	137.1
1035.9117	3082.2678	1008.2	132.3
1036.0202	3083.2789	1015.9	138.2
1036.1286	3084.2893	1010.6	132.95
1036.2371	3085.2991	1013.9	134.3
1036.3454	3086.3083	1016.5	137.35
1036.4538	3087.3169	1011.95	132.1
1036.562	3088.3248	1011.6	132.55
1036.6703	3089.3321	1009.6	131.05
1036.7785	3090.3388	1004.8	128
1036.8866	3091.3449	1011.3	133.4
1036.9948	3092.3503	1006.6	126.5
1037.1028	3093.3551	1004.7	129.4
1037.2108	3094.3593	1001.65	123.8
1037.3188	3095.3629	1001.35	123.55
1037.4267	3096.3658	1008.1	128.65
1037.5346	3097.3681	1004.75	126.95
1037.6425	3098.3698	1004.9	127.05
1037.7503	3099.3708	1012.2	126.8
1037.858	3100.3713	1002.45	125.35
1037.9657	3101.3711	1002.7	123.65
1038.0734	3102.3702	1136.25	122
1038.181	3103.3688	1001.8	122.35
1038.2886	3104.3667	995.1	119.65
1038.3961	3105.364	995.45	117.9
1038.5036	3106.3607	998.1	118.9
1038.611	3107.3568	1000.8	123.6
1038.7184	3108.3522	992.65	116.75
1038.8257	3109.347	996.3	118.95
1038.933	3110.3412	995.1	111.55
1039.0403	3111.3348	992.6	115.45
1039.1475	3112.3277	989.65	112.15
1039.2547	3113.32	991.3	113.95
1039.3618	3114.3117	992.75	115.85
1039.4689	3115.3028	989.6	112.9
1039.5759	3116.2932	991.15	110.25
1039.6829	3117.2831	994.05	111.3
1039.7898	3118.2723	983.5	105.95
1039.8967	3119.2608	987.45	111.65
1040.0035	3120.2488	985.45	107.3
1040.1103	3121.2361	989.1	114.05
1040.2171	3122.2229	985.2	106.6
1040.3238	3123.209	987.8	109
1040.4305	3124.1944	982.65	106.45
1040.5371	3125.1793	986.35	107.65
1040.6437	3126.1635	982.15	106.3
1040.7502	3127.1471	980.65	102.5
1040.8567	3128.1301	982.15	105.05
1040.9631	3129.1125	978.35	101.75
1041.0695	3130.0942	982.15	104.65
1041.1759	3131.0753	993.45	107.6
1041.2822	3132.0558	984.15	103.95
1041.3884	3133.0357	980.1	102.95
1041.4946	3134.015	979.05	100.25
1041.6008	3134.9936	978.85	98.35
1041.7069	3135.9716	1000.2	101.45
1041.813	3136.949	980.2	103.2
1041.919	3137.9258	982.1	98.35
1042.025	3138.902	978.1	95.9
1042.1309	3139.8775	975.15	97.65
1042.2368	3140.8524	975.55	98.7
1042.3427	3141.8267	979	99.5
1042.4485	3142.8004	978.65	101.65
1042.5542	3143.7735	978.35	94.2
1042.6599	3144.7459	976.65	97.35
1042.7656	3145.7178	972.65	94.35
1042.8712	3146.689	970.5	92.2
1042.9768	3147.6596	976.85	98.15
1043.0823	3148.6295	973.8	96.65
1043.1878	3149.5989	971.7	94.55
1043.2932	3150.5676	968.25	92
1043.3986	3151.5357	967.3	90.6
1043.5039	3152.5032	973.15	97.15
1043.6092	3153.4701	972.25	94.6
1043.7145	3154.4364	975.55	94.6
1043.8197	3155.402	967.55	92.25
1043.9248	3156.367	969.65	90.4
1044.03	3157.3315	1000.95	85.35
1044.135	3158.2952	969.85	92.2
1044.24	3159.2584	966.2	90.05
1044.345	3160.221	967.85	89.65
1044.4499	3161.1829	960.4	82.65
1044.5548	3162.1442	963.9	87.45
1044.6596	3163.105	962.9	86.45
1044.7644	3164.065	967.05	88.2
1044.8692	3165.0245	969.6	91.4
1044.9739	3165.9834	962.3	86.25
1045.0785	3166.9416	959.05	82.35
1045.1831	3167.8993	962.2	82.25
1045.2877	3168.8563	963.65	85.1
1045.3922	3169.8127	960.2	83.25
1045.4966	3170.7684	960.95	83.8
1045.6011	3171.7236	960.95	82.8
1045.7054	3172.6782	958.85	82.3
1045.8098	3173.6321	962.4	85.25
1045.914	3174.5854	965.5	84.35
1046.0183	3175.5381	958.35	81.2
1046.1224	3176.4902	956.75	79
1046.2266	3177.4417	955.05	78.1
1046.3307	3178.3926	957.1	79.25
1046.4347	3179.3428	955.45	79.2
1046.5387	3180.2924	959	82.15
1046.6427	3181.2415	955.75	77.65
1046.7466	3182.1899	959.85	82.6
1046.8504	3183.1377	957.85	81.6
1046.9542	3184.0848	956.9	77.6
1047.058	3185.0314	955.15	76.85
1047.1617	3185.9773	955.55	76.25
1047.2654	3186.9227	953.25	75
1047.369	3187.8674	952.7	76
1047.4726	3188.8115	956.65	74.6
1047.5761	3189.755	952.5	75.65
1047.6796	3190.6979	953.1	76.3
1047.783	3191.6402	947.35	69.9
1047.8864	3192.5818	953.05	74.15
1047.9898	3193.5229	956.85	73.25
1048.0931	3194.4633	951.55	74.3
1048.1963	3195.4031	951.5	71.6
1048.2995	3196.3423	947.05	72.35
1048.4027	3197.2809	947.3	69.45
1048.5058	3198.2189	952	75.65
1048.6089	3199.1563	956.4	73.25
1048.7119	3200.0931	947.65	71.9
1048.8148	3201.0292	945.75	68.25
1048.9178	3201.9648	945.25	68.9
1049.0206	3202.8997	951.2	70.05
1049.1235	3203.834	947.95	71.1
1049.2262	3204.7677	945.75	68
1049.329	3205.7008	948.55	68.85
1049.4317	3206.6333	946.1	68.45
1049.5343	3207.5652	948.2	68
1049.6369	3208.4964	946.65	68.95
1049.7394	3209.4271	943.35	67.25
1049.8419	3210.3571	944.7	66.95
1049.9444	3211.2865	943.35	64.75
1050.0468	3212.2154	944.95	66
1050.1491	3213.1436	946.4	67.6
1050.2514	3214.0712	953.2	70.55
1050.3537	3214.9982	943.85	67.9
1050.4559	3215.9246	941.5	64.35
1050.5581	3216.8503	940.4	63.65
1050.6602	3217.7755	942.15	64.7
1050.7623	3218.7001	938.85	60.6
1050.8643	3219.624	942.75	65.3
1050.9663	3220.5473	940.45	63.45
1051.0682	3221.4701	940.95	63.85
1051.1701	3222.3922	939.45	61.75
1051.2719	3223.3137	935.55	60.1
1051.3737	3224.2346	940.7	63.4
1051.4754	3225.1549	937.1	58.3
1051.5771	3226.0746	941.7	65.45
1051.6788	3226.9937	939.15	62.1
1051.7804	3227.9121	937.8	61.45
1051.8819	3228.83	937.1	57.85
1051.9834	3229.7473	937.35	60.55
1052.0849	3230.6639	940.65	62.4
1052.1863	3231.5799	934.05	56
1052.2876	3232.4954	936.95	58.1
1052.3889	3233.4102	936.2	61.3
1052.4902	3234.3244	936.8	59
1052.5914	3235.238	936.1	57.3
1052.6926	3236.151	959.6	58.45
1052.7937	3237.0634	934.1	57.95
1052.8948	3237.9752	934	57.65
1052.9958	3238.8864	931.7	54.35
1053.0968	3239.797	934.85	57.15
1053.1977	3240.7069	934.45	59.65
1053.2986	3241.6163	930.85	51.85
1053.3994	3242.5251	932.2	56.95
1053.5002	3243.4332	930.9	54.75
1053.6009	3244.3408	933.2	56.6
1053.7016	3245.2477	929.75	54.3
1053.8022	3246.154	930.8	53.15
1053.9028	3247.0598	932.2	53.3
1054.0034	3247.9649	932.7	56.8
1054.1039	3248.8694	928.65	50.6
1054.2043	3249.7733	927.7	50.1
1054.3047	3250.6766	929.7	51.35
1054.4051	3251.5793	934.2	57.05
1054.5054	3252.4814	929.05	52.3
1054.6056	3253.3829	925.3	48.95
1054.7058	3254.2838	928.5	54.3
1054.806	3255.1841	927.2	50.55
1054.9061	3256.0838	926.6	48.9
1055.0061	3256.9829	924.45	47.75
1055.1062	3257.8814	928.4	47.9
1055.2061	3258.7792	928.65	48.45
1055.306	3259.6765	925.5	47.55
1055.4059	3260.5731	923.25	46.8
1055.5057	3261.4692	925.7	47.2
1055.6055	3262.3647	923.95	45.05
1055.7052	3263.2595	923.9	48.6
1055.8049	3264.1538	922.95	46.25
1055.9045	3265.0474	922.75	44.35
1056.0041	3265.9404	921.15	45.15
1056.1036	3266.8329	920.85	45.55
1056.2031	3267.7247	928.4	41.75
1056.3025	3268.616	917.3	41.6
1056.4019	3269.5066	916.9	37.5
1056.5013	3270.3966	917.25	37.15
1056.6005	3271.286	912.7	35.8
