Software Version:	3.9.2.0
Unit SN:	10000200
Spectrometer SN:	6960
Date:	3/6/2024 10:33:13 AM
Data Line Index:	25
Spectral Points:	2048
Integration time (ms):	125
Averages:	20
Delay (ms):	30
Sequence Number:	1
Processing:	dark subtract
Laser Power (mW):	300
Laser Current (mA):	825
Laser Diode Temp (C):	25
Laser Case Temp (C):	26.4
System Temp (C):	26.2
Spectrometer Temp (C):	23.6
CCD Temp (C):	0.004
Secondary Temp (C):	20.025
Heatsink Temp (C):	21.81
CCDPCB Temp (C):	36.318
SecondaryPCB Temp (C):	29.904

Wavelength	RamanShift	Raw Counts	Dark Subtracted
787.061	30.1047	1159.45	746.7
787.2016	32.3739	1180.15	770.4
787.3422	34.6426	1231.55	819.65
787.4828	36.9109	1277.85	864.45
787.6235	39.1787	1339.2	922.7
787.7642	41.4461	1393.25	970.85
787.9049	43.7131	1460.3	1035.65
788.0456	45.9796	1533.5	1104.75
788.1863	48.2456	1601.35	1169.55
788.3271	50.5112	1674.95	1239
788.4679	52.7764	1749.95	1311.65
788.6087	55.0411	1820.3	1378.05
788.7496	57.3054	1912.4	1463.5
788.8904	59.5692	2007.2	1557.85
789.0313	61.8326	2093.25	1640.55
789.1722	64.0955	2206.2	1748.95
789.3132	66.3579	2332.45	1870.25
789.4541	68.6199	2493.25	2029.8
789.5951	70.8815	2758.55	2290.25
789.7361	73.1426	3298.6	2824.7
789.8771	75.4032	4698.15	4220.15
790.0181	77.6634	8226.05	7742
790.1592	79.9231	17766.05	17278.3
790.3003	82.1824	57625.65	57126.6
790.4414	84.4412	65535	65012.7
790.5825	86.6995	65535	64986.5
790.7237	88.9574	65535	64959.85
790.8648	91.2148	65535	64940.3
791.006	93.4717	65535	64931.05
791.1472	95.7282	65535	64923.8
791.2885	97.9842	65535	64920
791.4297	100.2398	65535	64917.65
791.571	102.4949	65535	64916.8
791.7123	104.7495	65535	64908.4
791.8536	107.0036	65535	64910.8
791.9949	109.2573	65535	64910.2
792.1363	111.5105	65535	64906.85
792.2777	113.7632	65535	64905.5
792.4191	116.0154	65535	64894.3
792.5605	118.2672	65535	64901.5
792.7019	120.5185	65535	64897
792.8434	122.7693	65535	64896
792.9849	125.0197	65535	64892.8
793.1264	127.2696	65535	64888.95
793.2679	129.519	65535	64885
793.4094	131.7679	65535	64884.5
793.551	134.0163	65535	64880.85
793.6926	136.2642	65535	64875.4
793.8342	138.5117	65535	64865.25
793.9758	140.7587	65535	64874.7
794.1175	143.0052	65535	64868.65
794.2591	145.2512	65535	64873.75
794.4008	147.4967	65535	64870.25
794.5425	149.7417	65535	64866.6
794.6842	151.9863	65535	64864.5
794.826	154.2304	65535	64858.9
794.9677	156.4739	65535	64851.95
795.1095	158.717	65535	64853.4
795.2513	160.9596	65535	64852.3
795.3931	163.2017	65535	64850.15
795.535	165.4433	65535	64846.95
795.6768	167.6844	65535	64842.95
795.8187	169.925	65535	64840.5
795.9606	172.1651	65535	64832.55
796.1025	174.4047	65535	64836.05
796.2445	176.6439	65535	64831.7
796.3864	178.8825	65535	64828.25
796.5284	181.1206	65535	64823.8
796.6704	183.3582	65535	64824.35
796.8124	185.5954	65535	64821.55
796.9544	187.832	65535	64817.6
797.0965	190.0681	65535	64816.65
797.2386	192.3037	65535	64811.6
797.3806	194.5388	65535	64810.35
797.5228	196.7734	65535	64803.55
797.6649	199.0075	65535	64805.25
797.807	201.2411	65535	64804.25
797.9492	203.4742	65535	64803.1
798.0914	205.7068	65535	64799.05
798.2336	207.9389	65535	64795.65
798.3758	210.1704	65535	64794.55
798.518	212.4015	65535	64802.1
798.6603	214.632	65535	64810.25
798.8025	216.862	65535	64820.95
798.9448	219.0915	65535	64820.25
799.0871	221.3205	65535	64811.95
799.2294	223.549	65535	64818.45
799.3718	225.777	65535	64817.9
799.5141	228.0044	65535	64817.5
799.6565	230.2314	65535	64813.8
799.7989	232.4578	65535	64808.4
799.9413	234.6837	65535	64802.9
800.0837	236.909	65535	64798.65
800.2262	239.1339	65535	64773.5
800.3687	241.3582	65535	64790.95
800.5111	243.582	65535	64762.65
800.6536	245.8053	65535	64771.2
800.7961	248.0281	65535	64777.65
800.9387	250.2503	65535	64774.25
801.0812	252.472	65535	64767.7
801.2238	254.6932	65535	64770.15
801.3664	256.9139	65535	64771.25
801.509	259.134	65535	64761.95
801.6516	261.3536	65535	64766.85
801.7942	263.5727	65535	64768.45
801.9369	265.7912	65535	64767.1
802.0795	268.0092	65535	64764
802.2222	270.2267	65535	64764.4
802.3649	272.4436	65535	64766.1
802.5076	274.6601	65535	64753.8
802.6504	276.8759	65535	64755.25
802.7931	279.0913	65535	64754.2
802.9359	281.3061	65535	64757.35
803.0787	283.5204	65535	64754.35
803.2215	285.7341	65535	64750.15
803.3643	287.9473	65535	64733.55
803.5071	290.16	65535	64745.4
803.6499	292.3721	65535	64749.8
803.7928	294.5837	65535	64749.15
803.9357	296.7947	65535	64750.85
804.0786	299.0052	65535	64751.55
804.2215	301.2152	65535	64744.95
804.3644	303.4246	65535	64748.55
804.5074	305.6334	65535	64747.05
804.6503	307.8418	65535	64744.1
804.7933	310.0495	65535	64742.65
804.9363	312.2568	65535	64744.6
805.0793	314.4635	65535	64743.65
805.2223	316.6696	65535	64743.85
805.3653	318.8752	65535	64733.35
805.5084	321.0802	65535	64740.8
805.6514	323.2847	65535	64736.75
805.7945	325.4887	65535	64738.35
805.9376	327.692	65535	64737.5
806.0807	329.8949	65535	64734.6
806.2238	332.0972	65535	64731.6
806.367	334.2989	65535	64731
806.5101	336.5001	65535	64734.15
806.6533	338.7007	65535	64732.4
806.7965	340.9008	65535	64727.5
806.9397	343.1003	65535	64723.3
807.0829	345.2992	65535	64727.9
807.2261	347.4976	65535	64726
807.3693	349.6955	65535	64722.9
807.5126	351.8927	65535	64719.6
807.6559	354.0895	65535	64705.25
807.7991	356.2856	65535	64718.7
807.9424	358.4812	65535	64717.85
808.0857	360.6763	65535	64718.3
808.2291	362.8707	65535	64713.65
808.3724	365.0646	65535	64711.9
808.5158	367.258	65535	64711.4
808.6591	369.4508	65535	64708.45
808.8025	371.643	65535	64707.05
808.9459	373.8346	65535	64704.9
809.0893	376.0257	65535	64704.9
809.2327	378.2162	65535	64701.85
809.3762	380.4062	65535	64700.5
809.5196	382.5956	65535	64699.55
809.6631	384.7844	65535	64707.3
809.8066	386.9726	65535	64705.9
809.9501	389.1603	65535	64709.3
810.0936	391.3474	65535	64669.4
810.2371	393.5339	65535	64707.45
810.3806	395.7199	65535	64712.05
810.5241	397.9052	65535	64712.8
810.6677	400.09	65535	64713.7
810.8113	402.2743	65535	64713.55
810.9548	404.4579	65535	64712.4
811.0984	406.641	65535	64709.95
811.2421	408.8235	65535	64707.3
811.3857	411.0054	65535	64705.35
811.5293	413.1868	65535	64697.95
811.673	415.3675	65535	64700.1
811.8166	417.5477	65535	64697
811.9603	419.7273	65535	64695.8
812.104	421.9064	65535	64689
812.2477	424.0848	65535	64690.7
812.3914	426.2627	65535	64692.15
812.5351	428.4399	65535	64693.7
812.6788	430.6166	65535	64689
812.8226	432.7928	65535	64687.35
812.9663	434.9683	65535	64687.55
813.1101	437.1432	65535	64686.2
813.2539	439.3176	65535	64684.6
813.3977	441.4914	65535	64687
813.5415	443.6645	65535	64685.65
813.6853	445.8371	65535	64687.8
813.8291	448.0091	65535	64687.35
813.973	450.1806	65535	64686.25
814.1168	452.3514	65535	64683.4
814.2607	454.5216	65535	64674.3
814.4046	456.6913	65535	64680.15
814.5485	458.8603	65535	64686.3
814.6924	461.0288	65535	64685.05
814.8363	463.1967	65535	64685.15
814.9802	465.3639	65535	64682.45
815.1241	467.5306	65535	64681.5
815.2681	469.6967	65535	64678.35
815.412	471.8622	65535	64682.85
815.556	474.0271	65535	64680.75
815.7	476.1914	65535	64682.95
815.844	478.3551	65535	64680
815.988	480.5182	65535	64680.35
816.132	482.6807	65535	64682.05
816.276	484.8426	65535	64685.35
816.4201	487.0039	65535	64680.8
816.5641	489.1647	65535	64677.05
816.7082	491.3248	65535	64676.45
816.8522	493.4843	65535	64680.45
816.9963	495.6432	65535	64677.45
817.1404	497.8015	65535	64672.2
817.2845	499.9592	65535	64676
817.4286	502.1163	65535	64673.35
817.5727	504.2728	65535	64674
817.7168	506.4287	65535	64673.4
817.861	508.5839	65535	64676.85
818.0051	510.7386	65535	64675.35
818.1493	512.8927	65535	64670.4
818.2935	515.0461	65535	64673.25
818.4377	517.199	65535	64669.95
818.5818	519.3512	65535	64669.75
818.726	521.5029	65535	64662.9
818.8703	523.6539	65535	64672.95
819.0145	525.8043	65535	64669.9
819.1587	527.9541	65535	64665.35
819.303	530.1033	65535	64668.8
819.4472	532.2519	65535	64666.15
819.5915	534.3999	65535	64666.1
819.7357	536.5472	65535	64666.65
819.88	538.694	65535	64663.85
820.0243	540.8401	65535	64664.6
820.1686	542.9856	65535	64660.55
820.3129	545.1305	65535	64664.05
820.4572	547.2748	65535	64660
820.6016	549.4185	65535	64657.95
820.7459	551.5615	65535	64658.95
820.8902	553.704	65535	64658.9
821.0346	555.8458	65535	64665.4
821.1789	557.987	65535	64664.75
821.3233	560.1276	65535	64662
821.4677	562.2675	65535	64662.9
821.6121	564.4069	65535	64665.8
821.7565	566.5456	65535	64666.65
821.9009	568.6837	65535	64659.45
822.0453	570.8212	65535	64666.05
822.1897	572.958	65535	64662.1
822.3342	575.0942	65535	64667.35
822.4786	577.2299	65535	64661.55
822.6231	579.3648	65535	64664.15
822.7675	581.4992	65535	64666.9
822.912	583.6329	65535	64664.6
823.0565	585.766	65535	64664.6
823.201	587.8985	65535	64660.7
823.3454	590.0304	65535	64638.85
823.4899	592.1616	65535	64656.95
823.6345	594.2922	65535	64656.95
823.779	596.4222	65535	64655.55
823.9235	598.5515	65535	64659.55
824.068	600.6802	65535	64659.55
824.2126	602.8083	65535	64656.85
824.3571	604.9358	65535	64659.3
824.5017	607.0626	65535	64655.8
824.6462	609.1888	65535	64652.05
824.7908	611.3144	65535	64654.95
824.9354	613.4393	65535	64654.85
825.08	615.5636	65535	64656.15
825.2246	617.6873	65535	64654.85
825.3692	619.8103	65535	64652.55
825.5138	621.9327	65535	64651.75
825.6584	624.0544	65535	64657.1
825.803	626.1756	65535	64654.45
825.9477	628.2961	65535	64654.9
826.0923	630.4159	65535	64651.7
826.237	632.5351	65535	64654.75
826.3816	634.6537	65535	64651.95
826.5263	636.7716	65535	64647.4
826.6709	638.8889	65535	64649.3
826.8156	641.0056	65535	64646.8
826.9603	643.1216	65535	64650.55
827.105	645.237	65535	64646.9
827.2497	647.3518	65535	64651.05
827.3944	649.4659	65535	64651.55
827.5391	651.5793	65535	64649.75
827.6838	653.6922	65535	64651.05
827.8285	655.8043	65535	64650.25
827.9733	657.9159	65535	64652.3
828.118	660.0268	65535	64647.6
828.2627	662.137	65535	64649.25
828.4075	664.2466	65535	64646.15
828.5522	666.3556	65535	64649.85
828.697	668.4639	65535	64644.8
828.8418	670.5716	65535	64647.45
828.9865	672.6786	65535	64643.85
829.1313	674.785	65535	64642.45
829.2761	676.8907	65535	64650.2
829.4209	678.9958	65535	64648.35
829.5657	681.1002	65535	64646.6
829.7105	683.204	65535	64638.95
829.8553	685.3072	65535	64643.45
830.0001	687.4097	65535	64645.55
830.1449	689.5115	65535	64642.8
830.2898	691.6127	65535	64643.2
830.4346	693.7132	65535	64643.25
830.5794	695.8131	65535	64634.85
830.7243	697.9123	65535	64643
830.8691	700.0109	65535	64640.9
831.014	702.1089	65535	64645.1
831.1588	704.2061	65535	64645.45
831.3037	706.3028	65535	64643.7
831.4486	708.3987	65535	64640.15
831.5935	710.4941	65535	64640
831.7383	712.5887	65535	64640.85
831.8832	714.6827	65535	64639.25
832.0281	716.7761	65535	64642.3
832.173	718.8688	65535	64640.25
832.3179	720.9608	65535	64636.1
832.4628	723.0522	65535	64637.45
832.6077	725.1429	65535	64638.65
832.7527	727.233	65535	64640.65
832.8976	729.3224	65535	64639.95
833.0425	731.4112	65535	64639.35
833.1874	733.4993	65535	64640.3
833.3324	735.5867	65535	64640.15
833.4773	737.6735	65535	64638.85
833.6222	739.7596	65535	64637
833.7672	741.845	65535	64636.45
833.9122	743.9298	65535	64637.15
834.0571	746.014	65535	64639.05
834.2021	748.0974	65535	64635.9
834.347	750.1802	65535	64639.25
834.492	752.2624	65535	64637.25
834.637	754.3439	65535	64636.45
834.782	756.4247	65535	64629.8
834.9269	758.5048	65535	64635.55
835.0719	760.5843	65535	64636
835.2169	762.6631	65535	64638.45
835.3619	764.7413	65535	64634.8
835.5069	766.8188	65535	64634.55
835.6519	768.8956	65535	64634.85
835.7969	770.9718	65535	64637.85
835.9419	773.0473	65535	64637.65
836.0869	775.1221	65535	64637.75
836.232	777.1962	65535	64636.95
836.377	779.2697	65535	64637.8
836.522	781.3426	65535	64615.5
836.667	783.4147	65535	64637.45
836.8121	785.4862	65535	64636.55
836.9571	787.557	65535	64639.15
837.1021	789.6271	65535	64634.55
837.2472	791.6966	65535	64635.7
837.3922	793.7654	65535	64634.95
837.5373	795.8335	65535	64631.15
837.6823	797.901	65535	64633.65
837.8274	799.9678	65535	64633.55
837.9724	802.0339	65535	64634.2
838.1175	804.0993	65535	64628.15
838.2626	806.1641	65535	64633.2
838.4076	808.2282	65535	64636.45
838.5527	810.2916	65535	64631.55
838.6978	812.3544	65535	64637.45
838.8428	814.4164	65535	64638.75
838.9879	816.4778	65535	64636.05
839.133	818.5385	65535	64634.8
839.2781	820.5986	65535	64631.55
839.4232	822.658	65535	64633.15
839.5682	824.7166	65535	64635.35
839.7133	826.7747	65535	64635.2
839.8584	828.832	65535	64633.75
840.0035	830.8886	65535	64632.45
840.1486	832.9446	65535	64632.15
840.2937	834.9999	65535	64636.7
840.4388	837.0545	65535	64631.85
840.5839	839.1085	65535	64633.8
840.729	841.1618	65535	64627
840.8741	843.2143	65535	64633.55
841.0192	845.2662	65535	64634
841.1643	847.3175	65535	64633.9
841.3095	849.368	65535	64633.75
841.4546	851.4179	65535	64632.9
841.5997	853.467	65535	64634.9
841.7448	855.5155	65535	64630.7
841.8899	857.5633	65535	64633
842.0351	859.6105	65535	64635.25
842.1802	861.6569	65535	64632.7
842.3253	863.7027	65535	64630.6
842.4704	865.7478	65535	64630.05
842.6156	867.7922	65535	64631.7
842.7607	869.8359	65535	64629.65
842.9058	871.8789	65535	64632.6
843.0509	873.9212	65535	64599.3
843.1961	875.9629	65535	64633.35
843.3412	878.0039	65535	64633.35
843.4863	880.0441	65535	64632.6
843.6315	882.0837	65535	64632.25
843.7766	884.1226	65535	64630.6
843.9218	886.1609	65535	64631.9
844.0669	888.1984	65535	64632.35
844.212	890.2352	65535	64634.15
844.3572	892.2714	65535	64628.1
844.5023	894.3069	65535	64629.8
844.6475	896.3416	65535	64631.4
844.7926	898.3757	65535	64630.45
844.9377	900.4091	65535	64631.35
845.0829	902.4418	65535	64624.95
845.228	904.4739	65535	64629.45
845.3732	906.5052	65535	64628.85
845.5183	908.5358	65535	64631.85
845.6635	910.5658	65535	64627.2
845.8086	912.595	65535	64631.3
845.9538	914.6236	65535	64631.05
846.0989	916.6515	65535	64630.2
846.2441	918.6786	65535	64629.15
846.3892	920.7051	65535	64628.5
846.5344	922.7309	65535	64632.45
846.6795	924.756	65535	64627.8
846.8246	926.7804	65535	64628.2
846.9698	928.8041	65535	64631.55
847.1149	930.8272	65535	64632.55
847.2601	932.8495	65535	64631
847.4052	934.8711	65535	64632.45
847.5504	936.892	65535	64628.65
847.6955	938.9123	65535	64628.5
847.8407	940.9318	65535	64629.7
847.9858	942.9506	65535	64630
848.131	944.9688	65535	64630.1
848.2761	946.9862	65535	64631.35
848.4213	949.003	65535	64631.25
848.5664	951.019	65535	64627.9
848.7115	953.0344	65535	64627.75
848.8567	955.0491	65535	64626.5
849.0018	957.063	65535	64630.75
849.147	959.0763	65535	64630.75
849.2921	961.0888	65535	64628.45
849.4373	963.1007	65535	64630.25
849.5824	965.1119	65535	64629.15
849.7275	967.1223	65535	64633.6
849.8727	969.1321	65535	64632.75
850.0178	971.1412	65535	64632.45
850.1629	973.1495	65535	64630.25
850.3081	975.1572	65535	64599.3
850.4532	977.1641	65535	64629.9
850.5983	979.1704	65535	64626.9
850.7435	981.1759	65535	64627.05
850.8886	983.1808	65535	64625.95
851.0337	985.1849	65535	64618.55
851.1788	987.1884	65535	64627.4
851.324	989.1911	65535	64626.65
851.4691	991.1932	65535	64630.05
851.6142	993.1945	65535	64629.9
851.7593	995.1951	65535	64628.3
851.9045	997.1951	65535	64621.75
852.0496	999.1943	65535	64628.8
852.1947	1001.1928	65535	64631.2
852.3398	1003.1906	65535	64629.65
852.4849	1005.1877	65535	64626.7
852.63	1007.1841	65535	64630.8
852.7751	1009.1798	65535	64631.2
852.9202	1011.1748	65535	64629.25
853.0653	1013.1691	65535	64629.35
853.2104	1015.1627	65535	64630.2
853.3555	1017.1556	65535	64630.15
853.5006	1019.1477	65535	64624.45
853.6457	1021.1392	65535	64633.3
853.7908	1023.1299	65535	64633.25
853.9359	1025.12	65535	64632.05
854.081	1027.1093	65535	64635.55
854.2261	1029.0979	65535	64635.4
854.3712	1031.0859	65535	64634.5
854.5163	1033.0731	65535	64630.9
854.6613	1035.0596	65535	64633.3
854.8064	1037.0454	65535	64630.3
854.9515	1039.0304	65535	64629.1
855.0965	1041.0148	65535	64631.75
855.2416	1042.9985	65535	64627
855.3867	1044.9814	65535	64631.35
855.5317	1046.9636	65535	64627.6
855.6768	1048.9452	65535	64632.5
855.8219	1050.926	65535	64631.55
855.9669	1052.9061	65535	64629.45
856.112	1054.8855	65535	64629.3
856.257	1056.8642	65535	64629.85
856.4021	1058.8421	65535	64626.25
856.5471	1060.8194	65535	64628.65
856.6921	1062.7959	65535	64628.5
856.8372	1064.7717	65535	64629.85
856.9822	1066.7469	65535	64627.95
857.1272	1068.7213	65535	64628.75
857.2723	1070.695	65535	64631.1
857.4173	1072.6679	65535	64629.15
857.5623	1074.6402	65535	64630.45
857.7073	1076.6117	65535	64624.7
857.8523	1078.5826	65535	64626.6
857.9973	1080.5527	65535	64628.05
858.1423	1082.5221	65535	64627.15
858.2873	1084.4908	65535	64631.05
858.4323	1086.4587	65535	64630.3
858.5773	1088.426	65535	64629.5
858.7223	1090.3925	65535	64626.15
858.8673	1092.3584	65535	64630.5
859.0123	1094.3235	65535	64632.7
859.1573	1096.2879	65535	64628.8
859.3022	1098.2515	65535	64631.25
859.4472	1100.2145	65535	64629.65
859.5922	1102.1767	65535	64629.4
859.7371	1104.1382	65535	64628.1
859.8821	1106.099	65535	64627.65
860.027	1108.0591	65535	64630.8
860.172	1110.0185	65535	64629.2
860.3169	1111.9771	65535	64630
860.4619	1113.9351	65535	64630.5
860.6068	1115.8923	65535	64628.15
860.7517	1117.8488	65535	64628.25
860.8967	1119.8045	65535	64628.05
861.0416	1121.7596	65535	64628.85
861.1865	1123.7139	65535	64631.35
861.3314	1125.6675	65535	64632.05
861.4763	1127.6204	65535	64629.9
861.6212	1129.5726	65535	64627.2
861.7661	1131.524	65535	64630.45
861.911	1133.4748	65535	64628.9
862.0559	1135.4248	65535	64629.15
862.2008	1137.3741	65535	64629.5
862.3457	1139.3226	65535	64627.8
862.4905	1141.2705	65535	64631.65
862.6354	1143.2176	65535	64624.25
862.7803	1145.164	65535	64628.5
862.9251	1147.1097	65535	64626.75
863.07	1149.0546	65535	64628.5
863.2148	1150.9989	65535	64630.7
863.3597	1152.9424	65535	64628.95
863.5045	1154.8852	65535	64629.25
863.6493	1156.8272	65535	64631.2
863.7942	1158.7686	65535	64622.9
863.939	1160.7092	65535	64629.95
864.0838	1162.6491	65535	64629.55
864.2286	1164.5883	65535	64631
864.3734	1166.5267	65535	64629.9
864.5182	1168.4644	65535	64629.35
864.663	1170.4014	65535	64627.9
864.8078	1172.3377	65535	64631.5
864.9526	1174.2732	65535	64632.35
865.0974	1176.2081	65535	64632.55
865.2421	1178.1421	65535	64624.3
865.3869	1180.0755	65535	64630.9
865.5317	1182.0082	65535	64630.4
865.6764	1183.9401	65535	64630
865.8212	1185.8713	65535	64633.2
865.9659	1187.8017	65535	64630.1
866.1106	1189.7315	65535	64635.6
866.2554	1191.6605	65535	64603.9
866.4001	1193.5888	65535	64630.6
866.5448	1195.5163	65535	64630.9
866.6895	1197.4432	65535	64630.45
866.8342	1199.3693	65535	64631.35
866.9789	1201.2947	65535	64627.85
867.1236	1203.2193	65535	64630.55
867.2683	1205.1432	65535	64628.95
867.413	1207.0664	65535	64629.05
867.5576	1208.9889	65535	64628.25
867.7023	1210.9106	65535	64627.8
867.847	1212.8316	65535	64632.4
867.9916	1214.7519	65535	64623.6
868.1363	1216.6715	65535	64633.4
868.2809	1218.5903	65535	64632.6
868.4255	1220.5084	65535	64631.3
868.5701	1222.4257	65535	64631.8
868.7148	1224.3424	65535	64632.2
868.8594	1226.2583	65535	64625.9
869.004	1228.1735	65535	64630.3
869.1486	1230.0879	65535	64630.05
869.2932	1232.0016	65535	64631.95
869.4377	1233.9146	65535	64631.65
869.5823	1235.8269	65535	64630.7
869.7269	1237.7384	65535	64630.9
869.8715	1239.6492	65535	64633.5
870.016	1241.5592	65535	64629.85
870.1606	1243.4686	65535	64630.6
870.3051	1245.3772	65535	64629.45
870.4496	1247.285	65535	64630.5
870.5941	1249.1922	65535	64629.25
870.7387	1251.0986	65535	64630.7
870.8832	1253.0042	65535	64631.5
871.0277	1254.9092	65535	64632.85
871.1722	1256.8134	65535	64633.05
871.3167	1258.7169	65535	64631.9
871.4611	1260.6196	65535	64632.5
871.6056	1262.5216	65535	64629.25
871.7501	1264.4229	65535	64633.05
871.8945	1266.3234	65535	64632.4
872.039	1268.2232	65535	64631.1
872.1834	1270.1223	65535	64631.7
872.3278	1272.0207	65535	64633.2
872.4723	1273.9183	65535	64626.6
872.6167	1275.8151	65535	64630.5
872.7611	1277.7113	65535	64631.55
872.9055	1279.6067	65535	64631.85
873.0499	1281.5014	65535	64629.55
873.1943	1283.3953	65535	64629.75
873.3386	1285.2885	65535	64630.8
873.483	1287.181	65535	64631.5
873.6274	1289.0727	65535	64631.15
873.7717	1290.9637	65535	64631
873.9161	1292.854	65535	64632.1
874.0604	1294.7435	65535	64629.9
874.2047	1296.6323	65535	64631.3
874.349	1298.5204	65535	64626.55
874.4933	1300.4077	65535	64632.05
874.6376	1302.2943	65535	64632.75
874.7819	1304.1802	65535	64631.05
874.9262	1306.0653	65535	64629.15
875.0705	1307.9497	65535	64631.1
875.2147	1309.8333	65535	64632.15
875.359	1311.7162	65535	64634.85
875.5032	1313.5984	65535	64627.4
875.6475	1315.4798	65535	64631.65
875.7917	1317.3605	65535	64615.05
875.9359	1319.2405	65535	64631
876.0801	1321.1197	65535	64631.65
876.2243	1322.9982	65535	64629.15
876.3685	1324.876	65535	64632.8
876.5127	1326.753	65535	64628.4
876.6569	1328.6293	65535	64631.65
876.801	1330.5048	65535	64630.6
876.9452	1332.3796	65535	64630.9
877.0893	1334.2537	65535	64607.2
877.2335	1336.127	65535	64632.15
877.3776	1337.9996	65535	64633.5
877.5217	1339.8714	65535	64632
877.6658	1341.7426	65535	64588.8
877.8099	1343.6129	65535	64628.4
877.954	1345.4826	65535	64630
878.0981	1347.3515	65535	64628.8
878.2422	1349.2196	65535	64627.85
878.3862	1351.087	65535	64632.75
878.5303	1352.9537	65535	64632.2
878.6743	1354.8197	65535	64632.65
878.8184	1356.6849	65535	64632.35
878.9624	1358.5493	65535	64633.25
879.1064	1360.4131	65535	64631.1
879.2504	1362.276	65535	64631.75
879.3944	1364.1383	65535	64631.85
879.5384	1365.9998	65535	64625.2
879.6823	1367.8606	65535	64630.95
879.8263	1369.7206	65535	64632.85
879.9702	1371.5799	65535	64631.2
880.1142	1373.4384	65535	64633.45
880.2581	1375.2962	65535	64631.75
880.402	1377.1533	65535	64630.45
880.5459	1379.0096	65535	64628.65
880.6898	1380.8652	65535	64633.1
880.8337	1382.7201	65535	64632.65
880.9776	1384.5742	65535	64631.85
881.1215	1386.4275	65535	64631.1
881.2653	1388.2802	65535	64632.65
881.4092	1390.132	65535	64632.7
881.553	1391.9832	65535	64631.9
881.6968	1393.8336	65535	64630.95
881.8406	1395.6832	65535	64629.8
881.9844	1397.5322	65535	64632.7
882.1282	1399.3803	65535	64627.55
882.272	1401.2278	65535	64630.75
882.4158	1403.0745	65535	64632
882.5595	1404.9204	65535	64632.9
882.7033	1406.7656	65535	64631.4
882.847	1408.6101	65535	64631.15
882.9908	1410.4538	65535	64629
883.1345	1412.2968	65535	64632
883.2782	1414.139	65535	64634.25
883.4219	1415.9805	65535	64632.25
883.5656	1417.8213	65535	64625
883.7092	1419.6613	65535	64635.05
883.8529	1421.5006	65535	64630.75
883.9965	1423.3391	65535	64630.3
884.1402	1425.1769	65535	64630.1
884.2838	1427.0139	65535	64632.2
884.4274	1428.8502	65535	64628.65
884.571	1430.6858	65535	64631.8
884.7146	1432.5206	65535	64631.95
884.8582	1434.3547	65535	64631.8
885.0018	1436.188	65535	64635.95
885.1453	1438.0206	65535	64633.05
885.2889	1439.8524	65535	64632.6
885.4324	1441.6835	65535	64632.2
885.5759	1443.5139	65535	64628.3
885.7194	1445.3435	65535	64632.4
885.8629	1447.1724	65535	64633.35
886.0064	1449.0005	65535	64631.5
886.1499	1450.8279	65535	64631.9
886.2933	1452.6545	65535	64633.7
886.4368	1454.4804	65535	64635.85
886.5802	1456.3056	65535	64627.25
886.7237	1458.13	65535	64633.3
886.8671	1459.9536	65535	64632.3
887.0105	1461.7766	65535	64634
887.1539	1463.5987	65535	64629.4
887.2972	1465.4202	65535	64634.05
887.4406	1467.2409	65535	64630.5
887.584	1469.0608	65535	64632.4
887.7273	1470.88	65535	64631.3
887.8706	1472.6984	65535	64633.1
888.0139	1474.5161	65535	64630.05
888.1572	1476.3331	65535	64633.25
888.3005	1478.1493	65535	64633.8
888.4438	1479.9648	65535	64634.45
888.5871	1481.7795	65535	64633.85
888.7303	1483.5935	65535	64633.75
888.8736	1485.4067	65535	64634.85
889.0168	1487.2192	65535	64632.95
889.16	1489.031	65535	64630.2
889.3032	1490.842	65535	64632.05
889.4464	1492.6522	65535	64632.2
889.5896	1494.4618	65535	64631.8
889.7327	1496.2705	65535	64634.1
889.8759	1498.0785	65535	64633.6
890.019	1499.8858	65535	64632.75
890.1622	1501.6924	65535	64633.5
890.3053	1503.4981	65535	64633.8
890.4484	1505.3032	65535	64631
890.5914	1507.1075	65535	64635.65
890.7345	1508.911	65535	64633.35
890.8776	1510.7138	65535	64632.45
891.0206	1512.5159	65535	64635.4
891.1637	1514.3172	65535	64633.7
891.3067	1516.1178	65535	64636.2
891.4497	1517.9176	65535	64631.5
891.5927	1519.7166	65535	64635.4
891.7357	1521.515	65535	64627.85
891.8786	1523.3126	65535	64631.65
892.0216	1525.1094	65535	64630.6
892.1645	1526.9055	65535	64634.7
892.3074	1528.7008	65535	64635
892.4503	1530.4954	65535	64631.25
892.5932	1532.2893	65535	64636.45
892.7361	1534.0824	65535	64628.25
892.879	1535.8747	65535	64636.7
893.0218	1537.6663	65535	64635.4
893.1647	1539.4572	65535	64635.2
893.3075	1541.2473	65535	64634.55
893.4503	1543.0367	65535	64637.35
893.5931	1544.8253	65535	64628.9
893.7359	1546.6132	65535	64631.6
893.8787	1548.4003	65535	64623.95
894.0214	1550.1867	65535	64627.1
894.1642	1551.9723	65535	64632.6
894.3069	1553.7572	65535	64635.05
894.4496	1555.5414	65535	64633.2
894.5923	1557.3247	65535	64636.05
894.735	1559.1074	65535	64635.65
894.8777	1560.8893	65535	64635.3
895.0204	1562.6705	65535	64636.7
895.163	1564.4509	65535	64636.9
895.3056	1566.2305	65535	64637.25
895.4482	1568.0094	65535	64635.85
895.5908	1569.7876	65535	64636.5
895.7334	1571.565	65535	64634.6
895.876	1573.3417	65535	64636.75
896.0186	1575.1176	65535	64636.35
896.1611	1576.8928	65535	64635.9
896.3036	1578.6672	65535	64640.25
896.4461	1580.4409	65535	64641.05
896.5886	1582.2138	65535	64634.8
896.7311	1583.986	65535	64636.45
896.8736	1585.7575	65535	64637.55
897.0161	1587.5282	65535	64640.05
897.1585	1589.2981	65535	64638
897.3009	1591.0673	65535	64637.05
897.4433	1592.8358	65535	64640.4
897.5857	1594.6035	65535	64634.2
897.7281	1596.3704	65535	64636.7
897.8705	1598.1366	65535	64638.75
898.0128	1599.9021	65535	64637.75
898.1551	1601.6668	65535	64637.2
898.2975	1603.4308	65535	64636.65
898.4398	1605.194	65535	64633.4
898.5821	1606.9564	65535	64640.15
898.7243	1608.7182	65535	64635.9
898.8666	1610.4791	65535	64642.3
899.0088	1612.2394	65535	64642.35
899.1511	1613.9988	65535	64639.75
899.2933	1615.7576	65535	64639.1
899.4355	1617.5156	65535	64634.75
899.5776	1619.2728	65535	64637.35
899.7198	1621.0293	65535	64637.9
899.862	1622.785	65535	64634.85
900.0041	1624.54	65535	64636.25
900.1462	1626.2942	65535	64638.6
900.2883	1628.0477	65535	64638.6
900.4304	1629.8005	65535	64638.4
900.5725	1631.5525	65535	64638.7
900.7145	1633.3037	65535	64638.95
900.8566	1635.0542	65535	64638.75
900.9986	1636.804	65535	64641.4
901.1406	1638.553	65535	64549.95
901.2826	1640.3013	65535	64637.95
901.4245	1642.0488	65535	64640.1
901.5665	1643.7955	65535	64641.05
901.7085	1645.5416	65535	64639.7
901.8504	1647.2868	65535	64642.2
901.9923	1649.0313	65535	64637.6
902.1342	1650.7751	65535	64636.15
902.2761	1652.5181	65535	64640.6
902.4179	1654.2604	65535	64639.1
902.5598	1656.0019	65535	64637.4
902.7016	1657.7427	65535	64640.3
902.8434	1659.4828	65535	64641.3
902.9852	1661.222	65535	64638.15
903.127	1662.9606	65535	64639.35
903.2687	1664.6984	65535	64638.85
903.4105	1666.4354	65535	64638.25
903.5522	1668.1717	65535	64639.9
903.6939	1669.9072	65535	64638.25
903.8356	1671.642	65535	64636.95
903.9773	1673.3761	65535	64638.65
904.119	1675.1094	65535	64639.8
904.2606	1676.8419	65535	64641
904.4022	1678.5737	65535	64641.35
904.5439	1680.3048	65535	64639.75
904.6855	1682.0351	65535	64640.2
904.827	1683.7646	65535	64637.75
904.9686	1685.4934	65535	64642.4
905.1101	1687.2215	65535	64639.05
905.2517	1688.9488	65535	64638.95
905.3932	1690.6754	65535	64641.45
905.5347	1692.4012	65535	64642.5
905.6761	1694.1263	65535	64641.95
905.8176	1695.8506	65535	64639.1
905.9591	1697.5742	65535	64640.15
906.1005	1699.297	65535	64641.7
906.2419	1701.0191	65535	64641.15
906.3833	1702.7404	65535	64640.55
906.5246	1704.461	65535	64640.45
906.666	1706.1808	65535	64638.2
906.8073	1707.8999	65535	64641.3
906.9487	1709.6182	65535	64641.9
907.09	1711.3358	65535	64641.3
907.2313	1713.0527	65535	64642.55
907.3725	1714.7688	65535	64634.15
907.5138	1716.4841	65521.55	64626.1
907.655	1718.1987	65526.9	64628.9
907.7962	1719.9126	65523.3	64630.35
907.9374	1721.6257	65529.15	64633
908.0786	1723.338	65528.95	64634.45
908.2198	1725.0496	65472.15	64579.5
908.3609	1726.7605	65501.4	64604.85
908.502	1728.4706	65433.4	64538.75
908.6431	1730.18	65506.4	64610.85
908.7842	1731.8886	65416.55	64520.6
908.9253	1733.5964	65399.9	64501.15
909.0664	1735.3036	65485.55	64589.4
909.2074	1737.0099	65401.65	64508.55
909.3484	1738.7156	65334.05	64442.8
909.4894	1740.4204	65297	64400
909.6304	1742.1246	65352.4	64457.8
909.7714	1743.8279	65373.55	64480.5
909.9123	1745.5306	65325.55	64431.3
910.0532	1747.2325	64657.45	63766.4
910.1941	1748.9336	64737.6	63844.2
910.335	1750.634	65026.8	64132.05
910.4759	1752.3336	65182.45	64290.55
910.6168	1754.0325	64618.85	63727.1
910.7576	1755.7307	65213.05	64322.05
910.8984	1757.4281	64389.05	63497
911.0392	1759.1247	65044.5	64143.85
911.18	1760.8206	63968	63068.9
911.3208	1762.5158	64130.45	63234.55
911.4615	1764.2102	64445.7	63552.15
911.6022	1765.9039	64217.8	63324.4
911.7429	1767.5968	63857.45	62965.05
911.8836	1769.289	63757.15	62863.4
912.0243	1770.9804	64114.05	63220.85
912.1649	1772.6711	63812.85	62921.15
912.3056	1774.361	63580.7	62686.5
912.4462	1776.0502	63622	62727.95
912.5868	1777.7386	62576.35	61679.35
912.7274	1779.4263	63315.5	62421.9
912.8679	1781.1132	63217.9	62323.75
913.0084	1782.7994	63080.35	62187.45
913.149	1784.4849	63043.15	62150.85
913.2895	1786.1696	61891.7	60994.35
913.4299	1787.8535	62650.4	61757.45
913.5704	1789.5367	62789.65	61899.4
913.7108	1791.2192	62027.6	61136.35
913.8513	1792.9009	61572	60651.8
913.9917	1794.5818	62223.95	61329.15
914.132	1796.2621	61558.95	60664.85
914.2724	1797.9415	61683.35	60790.15
914.4128	1799.6202	61526.95	60635.35
914.5531	1801.2982	61512.75	60618.3
914.6934	1802.9755	60800.4	59907.45
914.8337	1804.6519	60579.15	59686.55
914.9739	1806.3277	61657.35	60764.6
915.1142	1808.0027	60100	59209.3
915.2544	1809.6769	60610.25	59716.85
915.3946	1811.3504	60794.1	59900.45
915.5348	1813.0231	59560.9	58667.65
915.675	1814.6951	60292.25	59400.4
915.8151	1816.3664	59794.55	58899.2
915.9553	1818.0369	59885.9	58992.85
916.0954	1819.7067	59550.7	58658.7
916.2355	1821.3757	60205.2	59312.45
916.3755	1823.044	59230.15	58337
916.5156	1824.7115	58864.5	57973.85
916.6556	1826.3783	59148.3	58256.25
916.7956	1828.0443	59133.05	58242.4
916.9356	1829.7096	58823.55	57930.75
917.0756	1831.3741	58153.6	57256.7
917.2155	1833.0379	58516.65	57624.35
917.3555	1834.701	58435.5	57541.3
917.4954	1836.3633	57906.65	57014.75
917.6353	1838.0248	58291.4	57397.05
917.7751	1839.6856	58061.45	57170.05
917.915	1841.3457	57449.5	56560.65
918.0548	1843.005	58059.3	57167.05
918.1946	1844.6636	57627.7	56736.1
918.3344	1846.3214	56925.3	56029.75
918.4742	1847.9785	57163.15	56269.95
918.6139	1849.6349	57104.2	56210.3
918.7537	1851.2904	57481.85	56582.45
918.8934	1852.9453	56614	55721.9
919.0331	1854.5994	56841.8	55947.35
919.1727	1856.2528	56933.55	56034.1
919.3124	1857.9054	56459	55566.8
919.452	1859.5572	56270.05	55377.55
919.5916	1861.2083	56359.9	55468.2
919.7312	1862.8587	56891.1	55997.7
919.8708	1864.5084	55599	54704.8
920.0103	1866.1572	56024.75	55133.9
920.1498	1867.8054	55374.6	54480.05
920.2893	1869.4528	55847.9	54955.85
920.4288	1871.0994	55207.05	54315.8
920.5683	1872.7453	55197.35	54302.8
920.7077	1874.3905	55344.05	54446.5
920.8471	1876.0349	54836.5	53944.95
920.9865	1877.6786	55210.8	54315.1
921.1259	1879.3215	54765.45	53874.1
921.2653	1880.9637	55065.7	54173.2
921.4046	1882.6051	54629.3	53737.75
921.5439	1884.2458	54353.05	53458.2
921.6832	1885.8858	54060	53167.3
921.8225	1887.525	54238.5	53346.05
921.9617	1889.1634	54004.2	53109.3
922.101	1890.8011	53784	52890.15
922.2402	1892.4381	53319.5	52426.8
922.3794	1894.0743	53747.15	52855.95
922.5185	1895.7098	53383.2	52491.65
922.6577	1897.3446	52971.25	52078.9
922.7968	1898.9786	53160.15	52262.4
922.9359	1900.6118	52914.7	52021.95
923.075	1902.2443	52603.35	51707
923.214	1903.8761	52769.6	51878.4
923.3531	1905.5071	52421.05	51527.55
923.4921	1907.1374	51842.85	50950.65
923.6311	1908.7669	52038.5	51147.7
923.77	1910.3957	52193.1	51302.45
923.909	1912.0237	51578.5	50685.7
924.0479	1913.651	51475.2	50583.15
924.1868	1915.2776	51267.1	50376
924.3257	1916.9034	51151.95	50262.05
924.4646	1918.5285	50934.7	50043.5
924.6034	1920.1528	50776.45	49883.7
924.7422	1921.7764	50695.95	49804.2
924.881	1923.3992	50447.3	49554.9
925.0198	1925.0213	50138.35	49247.1
925.1586	1926.6427	49863.35	48974.35
925.2973	1928.2633	49945.85	48948.55
925.436	1929.8832	49769.15	48873.9
925.5747	1931.5023	49509.35	48617
925.7134	1933.1207	49330	48438.6
925.852	1934.7383	49359.6	48466.65
925.9906	1936.3552	49019.05	48127.3
926.1292	1937.9714	48902.15	48007.75
926.2678	1939.5868	48824.05	47929.85
926.4064	1941.2015	48431.5	47538.85
926.5449	1942.8154	48277.7	47385
926.6834	1944.4286	48091.3	47198.4
926.8219	1946.041	47944.6	47033.35
926.9604	1947.6528	47752.15	46854.1
927.0988	1949.2637	47631.45	46741.25
927.2372	1950.8739	47397.95	46505.3
927.3756	1952.4834	47282.6	46391.25
927.514	1954.0921	47239.5	46347.05
927.6523	1955.7001	46967.35	46070.95
927.7907	1957.3074	46892.75	46002.8
927.929	1958.9139	46680.75	45789.35
928.0673	1960.5197	46550.55	45657.55
928.2055	1962.1247	46303.5	45412.15
928.3438	1963.729	46072.7	45180.3
928.482	1965.3325	45908.9	44994.95
928.6202	1966.9353	45743.65	44854
928.7584	1968.5374	45683.45	44791.25
928.8965	1970.1387	45466.7	44576.4
929.0346	1971.7393	45302.05	44409.1
929.1727	1973.3392	45205.55	44314.05
929.3108	1974.9383	44945.9	44054.6
929.4489	1976.5366	44770.45	43879.55
929.5869	1978.1342	44806.65	43915.75
929.7249	1979.7311	44603	43711.6
929.8629	1981.3273	44457.55	43566.7
930.0009	1982.9227	44285.5	43393.65
930.1388	1984.5173	44189.85	43299.25
930.2767	1986.1112	44003.15	43112.15
930.4146	1987.7044	43905.1	43016.3
930.5525	1989.2968	43695.75	42802.8
930.6904	1990.8885	43608.35	42713.35
930.8282	1992.4795	43476.4	42585.85
930.966	1994.0697	43288.55	42397.65
931.1038	1995.6592	43115	42222.95
931.2415	1997.2479	43051.25	42160.6
931.3793	1998.8359	42920.5	42031.25
931.517	2000.4232	42708.95	41818.6
931.6547	2002.0097	42631.05	41742.35
931.7923	2003.5955	42398	41508.25
931.93	2005.1805	42318.9	41425.9
932.0676	2006.7648	42172.35	41281.85
932.2052	2008.3484	42044	41153.5
932.3427	2009.9312	42094.4	41202.45
932.4803	2011.5133	41849	40960.05
932.6178	2013.0946	41708.45	40818.1
932.7553	2014.6752	41659.65	40771.8
932.8928	2016.2551	41559.15	40670.15
933.0302	2017.8342	41350.05	40459.85
933.1676	2019.4126	41173.35	40285.4
933.305	2020.9902	40985.45	40096.1
933.4424	2022.5672	40914.6	40025
933.5798	2024.1433	40792.45	39899.9
933.7171	2025.7188	40644.4	39753.65
933.8544	2027.2935	40533.1	39641.95
933.9917	2028.8674	40357.35	39468.9
934.129	2030.4406	40261.55	39373.8
934.2662	2032.0131	40039.95	39151.85
934.4034	2033.5849	39926.85	39029.3
934.5406	2035.1559	39863.95	38974.15
934.6778	2036.7261	39767.15	38877.5
934.8149	2038.2957	39681.3	38791.05
934.952	2039.8645	39633.25	38745.2
935.0891	2041.4325	39602.9	38711.3
935.2262	2042.9998	39430.15	38540.8
935.3632	2044.5664	39305.8	38414.85
935.5002	2046.1323	39135.3	38244.55
935.6372	2047.6974	39034.9	38144.7
935.7742	2049.2617	38871.25	37982.8
935.9111	2050.8254	38850.8	37956.3
936.048	2052.3883	38755.25	37865.8
936.1849	2053.9504	38627.65	37737.5
936.3218	2055.5118	38524.6	37633.3
936.4586	2057.0725	38294.7	37399.3
936.5955	2058.6325	38213.95	37324.65
936.7323	2060.1917	38124.35	37234.65
936.869	2061.7502	38012.55	37121.35
937.0058	2063.3079	37831.05	36941.1
937.1425	2064.8649	37760.5	36868.25
937.2792	2066.4212	37636.05	36744.25
937.4159	2067.9767	37540.15	36650.65
937.5525	2069.5315	37323	36433.75
937.6891	2071.0856	37216.15	36326.35
937.8257	2072.6389	37086.6	36196.05
937.9623	2074.1915	36861.35	35972.85
938.0989	2075.7433	36707.85	35816.85
938.2354	2077.2945	36637.15	35747.45
938.3719	2078.8448	36504.6	35616.45
938.5084	2080.3945	36378.1	35488.95
938.6448	2081.9434	36332.75	35443.8
938.7812	2083.4916	36214.15	35323.05
938.9176	2085.039	36084.65	35191.25
939.054	2086.5857	36006.05	35113
939.1903	2088.1317	35923.05	35031.25
939.3267	2089.677	35796.2	34906.7
939.463	2091.2215	35668	34778.25
939.5992	2092.7652	35548.5	34656.35
939.7355	2094.3083	35449.9	34557.65
939.8717	2095.8506	35374.6	34485.3
940.0079	2097.3921	35377.9	34489
940.1441	2098.933	35200.2	34310.2
940.2802	2100.4731	35140.7	34252
940.4163	2102.0124	35075.7	34178.5
940.5524	2103.5511	34943.85	34054.05
940.6885	2105.089	34884	33994.55
940.8245	2106.6261	34772.45	33881.9
940.9606	2108.1626	34664.75	33773.5
941.0965	2109.6983	34653.35	33733.35
941.2325	2111.2332	34509.8	33618.45
941.3684	2112.7675	34421.6	33530.25
941.5044	2114.301	34289.45	33397.05
941.6403	2115.8337	34290.75	33400.5
941.7761	2117.3657	34162.6	33272.1
941.912	2118.897	34030.8	33139.5
942.0478	2120.4276	33880.95	32985.4
942.1835	2121.9575	33743.7	32851.75
942.3193	2123.4866	33799.25	32894.8
942.455	2125.0149	33674.3	32781.25
942.5907	2126.5426	33429.1	32541.65
942.7264	2128.0695	33355.25	32463.35
942.8621	2129.5956	33302.6	32414
942.9977	2131.1211	33204	32310.4
943.1333	2132.6458	33120.85	32231.1
943.2689	2134.1698	33084.9	32193.25
943.4044	2135.693	32963.75	32070.15
943.54	2137.2155	32872.55	31979.7
943.6755	2138.7373	32832.1	31943.1
943.8109	2140.2584	32647.45	31758.45
943.9464	2141.7787	32523.45	31629.95
944.0818	2143.2983	32449.2	31561.6
944.2172	2144.8171	32201.75	31312.95
944.3526	2146.3353	32180.9	31290.15
944.4879	2147.8527	32005.7	31116.7
944.6232	2149.3693	32003.1	31113.2
944.7585	2150.8853	31877	30986.15
944.8938	2152.4005	31729.85	30837.75
945.029	2153.9149	31706.65	30818.6
945.1642	2155.4287	31586.25	30696.8
945.2994	2156.9417	31494	30602.85
945.4346	2158.454	31381.75	30489.25
945.5697	2159.9655	31275.6	30386.05
945.7048	2161.4764	31253.05	30363.8
945.8399	2162.9865	31139.2	30250.6
945.9749	2164.4958	31079.3	30187.6
946.1099	2166.0045	30909.9	30016.75
946.2449	2167.5124	30944	30053.45
946.3799	2169.0195	30841.7	29951.1
946.5148	2170.526	30737.5	29847.2
946.6498	2172.0317	30594.4	29702.15
946.7846	2173.5367	30523.35	29634.15
946.9195	2175.0409	30456.65	29569.7
947.0543	2176.5445	30417.3	29528.35
947.1891	2178.0473	30292.3	29402.5
947.3239	2179.5494	30142.2	29247.35
947.4587	2181.0507	30039.5	29148.4
947.5934	2182.5513	29981	29092.95
947.7281	2184.0512	29915.8	29026
947.8628	2185.5504	29825.35	28935.8
947.9974	2187.0488	29609.55	28719.4
948.132	2188.5465	29488.9	28599.7
948.2666	2190.0435	29387.25	28495.75
948.4012	2191.5397	29296.8	28406.4
948.5357	2193.0353	29262.25	28372.75
948.6702	2194.5301	29035.25	28144.1
948.8047	2196.0241	28989.4	28099.6
948.9392	2197.5175	28909.6	28019.4
949.0736	2199.0101	28809.75	27915.35
949.208	2200.502	28647.4	27759.3
949.3424	2201.9931	28572.35	27682.6
949.4767	2203.4835	28391.6	27499.55
949.611	2204.9733	28387.65	27491.7
949.7453	2206.4622	28275.75	27386.35
949.8796	2207.9505	28192.85	27302.35
950.0138	2209.438	28010.5	27120.2
950.148	2210.9248	27934.95	27044.9
950.2822	2212.4109	27875.65	26986.85
950.4164	2213.8962	27741.85	26850.2
950.5505	2215.3809	27675.4	26783.8
950.6846	2216.8648	27589.25	26699.65
950.8186	2218.3479	27531.65	26635.5
950.9527	2219.8304	27440.4	26547.05
951.0867	2221.3121	27254.9	26363
951.2207	2222.7931	27191.15	26301.65
951.3546	2224.2733	27124.5	26233.75
951.4886	2225.7529	27008.25	26117.8
951.6225	2227.2317	26954.45	26061
951.7563	2228.7098	26892.65	26003.55
951.8902	2230.1872	26720.1	25831.5
952.024	2231.6638	26732.9	25842.9
952.1578	2233.1397	26569.5	25672.7
952.2916	2234.6149	26540.15	25650.55
952.4253	2236.0894	26419.9	25529.9
952.559	2237.5632	26352.05	25461.7
952.6927	2239.0362	26249.85	25361.4
952.8263	2240.5085	26186.25	25295.05
952.9599	2241.9801	26031.35	25139.45
953.0935	2243.4509	25983.65	25091.9
953.2271	2244.921	25847.55	24957.15
953.3606	2246.3904	25727	24832.9
953.4941	2247.8591	25683.9	24794.25
953.6276	2249.3271	25594.55	24704.15
953.7611	2250.7943	25508.9	24618.45
953.8945	2252.2608	25386.1	24496.9
954.0279	2253.7266	25311.8	24422
954.1612	2255.1917	25241.25	24351.55
954.2946	2256.656	25151.35	24259.75
954.4279	2258.1197	25104.75	24216.25
954.5612	2259.5826	24971.9	24079.25
954.6944	2261.0447	24964.2	24073.2
954.8276	2262.5062	24844.2	23950.6
954.9608	2263.9669	24816.9	23924.2
955.094	2265.4269	24783.85	23894.9
955.2271	2266.8862	24670.9	23779.6
955.3602	2268.3448	24608.1	23718.25
955.4933	2269.8026	24554.65	23664.65
955.6264	2271.2598	24457.4	23566.6
955.7594	2272.7162	24362.3	23473.75
955.8924	2274.1719	24318.45	23427.2
956.0253	2275.6268	24204.6	23316.7
956.1583	2277.0811	24186.6	23294.8
956.2912	2278.5346	24083.4	23194.9
956.4241	2279.9874	24024.85	23134.6
956.5569	2281.4395	23961.65	23072.65
956.6897	2282.8908	23843.6	22951.4
956.8225	2284.3414	23846.7	22955.6
956.9553	2285.7914	23762.55	22874.2
957.088	2287.2406	23660.5	22769
957.2207	2288.689	23619.15	22727.55
957.3534	2290.1368	23522.65	22632.2
957.486	2291.5838	23451.55	22558.2
957.6186	2293.0302	23370.55	22477.95
957.7512	2294.4758	23214.5	22323.9
957.8838	2295.9206	23139.25	22247.7
958.0163	2297.3648	23081.95	22193
958.1488	2298.8082	23051.7	22160.75
958.2813	2300.251	22973.25	22082.85
958.4137	2301.693	22897.95	22007.3
958.5461	2303.1343	22904.8	22011.45
958.6785	2304.5748	22825.95	21935.4
958.8108	2306.0147	22727.85	21836.7
958.9432	2307.4538	22659.4	21768.75
959.0754	2308.8922	22612	21725
959.2077	2310.3299	22516.85	21628.15
959.3399	2311.7669	22416.25	21528.1
959.4721	2313.2031	22341.15	21451.15
959.6043	2314.6387	22278.55	21389.25
959.7365	2316.0735	22185.8	21294.7
959.8686	2317.5076	22142.2	21250
960.0006	2318.941	22079.1	21187.45
960.1327	2320.3737	22012.25	21118.9
960.2647	2321.8056	21941.55	21049.1
960.3967	2323.2369	21853.65	20962.65
960.5287	2324.6674	21768.6	20877.05
960.6606	2326.0972	21660.6	20769.95
960.7925	2327.5263	21600.05	20710.1
960.9244	2328.9547	21552.7	20662
961.0562	2330.3823	21496.6	20607
961.1881	2331.8092	21453.45	20557.25
961.3198	2333.2355	21367.4	20475.45
961.4516	2334.661	21306.3	20415.6
961.5833	2336.0858	21256.1	20363.8
961.715	2337.5098	21191.45	20301.5
961.8467	2338.9332	21127.75	20236.2
961.9783	2340.3558	21064.55	20169.55
962.1099	2341.7778	21016.4	20125.75
962.2415	2343.199	20930.05	20039.25
962.373	2344.6195	20818.85	19929.9
962.5045	2346.0393	20760.35	19871.85
962.636	2347.4583	20739.55	19846.45
962.7675	2348.8767	20626.75	19734.25
962.8989	2350.2943	20604.85	19714.2
963.0303	2351.7113	20546.05	19654.35
963.1617	2353.1275	20505.65	19615.3
963.293	2354.543	20465.75	19568.2
963.4243	2355.9578	20383.2	19492.55
963.5556	2357.3718	20237.75	19348.75
963.6868	2358.7852	20158.1	19265.25
963.818	2360.1978	20068.5	19174.95
963.9492	2361.6098	20011.15	19118
964.0803	2363.021	19968.75	19076.15
964.2114	2364.4315	19903.5	19015.25
964.3425	2365.8413	19849.9	18960.5
964.4736	2367.2504	19772.65	18882.65
964.6046	2368.6587	19650.95	18761.05
964.7356	2370.0664	19583.4	18694.55
964.8666	2371.4733	19513.3	18623.45
964.9975	2372.8795	19457.65	18566.2
965.1284	2374.285	19379.6	18489.5
965.2593	2375.6899	19295.9	18407.05
965.3901	2377.0939	19168.8	18278.15
965.5209	2378.4973	19125.5	18235.8
965.6517	2379.9	19062.75	18174
965.7825	2381.3019	18990.35	18101.15
965.9132	2382.7032	18906.4	18017.65
966.0439	2384.1037	18828	17939.75
966.1745	2385.5035	18779.5	17888.85
966.3051	2386.9027	18749.5	17860.8
966.4357	2388.3011	18702.15	17809.5
966.5663	2389.6987	18639.5	17748.8
966.6968	2391.0957	18561.35	17671.6
966.8273	2392.492	18484	17595.2
966.9578	2393.8876	18345.35	17455.45
967.0882	2395.2824	18304.5	17415.95
967.2186	2396.6765	18259.65	17373.1
967.349	2398.07	18120.4	17231.35
967.4793	2399.4627	18115.65	17226.95
967.6097	2400.8547	18047.7	17158.15
967.7399	2402.246	17948.95	17052.05
967.8702	2403.6366	17850.6	16959.1
968.0004	2405.0265	17786.75	16900.05
968.1306	2406.4156	17755.6	16861.2
968.2607	2407.8041	17657.25	16763.3
968.3909	2409.1918	17578.4	16686.55
968.521	2410.5789	17510.15	16619.75
968.651	2411.9652	17456.3	16563.65
968.781	2413.3508	17396.65	16506.7
968.911	2414.7358	17322	16430.7
969.041	2416.12	17267.05	16377.35
969.1709	2417.5035	17228.45	16340.35
969.3008	2418.8863	17157.95	16267.8
969.4307	2420.2684	17106.05	16215.95
969.5606	2421.6497	17009.9	16119.65
969.6904	2423.0304	16911.9	16021.35
969.8201	2424.4104	16853.4	15962.75
969.9499	2425.7896	16795.1	15902.9
970.0796	2427.1682	16768.2	15878
970.2093	2428.546	16746.1	15854.85
970.3389	2429.9232	16703.6	15812.4
970.4685	2431.2996	16651.6	15762.4
970.5981	2432.6753	16611.1	15720.3
970.7277	2434.0503	16550.4	15660.05
970.8572	2435.4246	16435.65	15546.8
970.9867	2436.7982	16390	15498.45
971.1161	2438.1711	16379.35	15490.65
971.2456	2439.5433	16262.9	15372
971.375	2440.9148	16254.65	15360.4
971.5043	2442.2856	16172.45	15282.6
971.6336	2443.6557	16100.65	15208
971.7629	2445.025	16060.3	15172.45
971.8922	2446.3937	16007.8	15118.4
972.0214	2447.7617	15951.25	15061.25
972.1506	2449.1289	15922.8	15033.15
972.2798	2450.4955	15875.15	14983.25
972.4089	2451.8613	15826.25	14935.75
972.538	2453.2265	15775.25	14886.2
972.6671	2454.5909	15723.9	14831.8
972.7961	2455.9546	15684.45	14796.1
972.9251	2457.3177	15603.65	14714.4
973.0541	2458.68	15566.35	14676.7
973.1831	2460.0416	15565.15	14675.15
973.312	2461.4025	15544.65	14654.3
973.4408	2462.7627	15480.9	14580.1
973.5697	2464.1222	15439.05	14549.65
973.6985	2465.4811	15392.9	14501.55
973.8273	2466.8392	15307.9	14419.2
973.956	2468.1966	15249.1	14358.05
974.0847	2469.5533	15245.35	14351.1
974.2134	2470.9093	15191.3	14301.05
974.3421	2472.2645	15122.75	14230
974.4707	2473.6191	15067.9	14178.85
974.5993	2474.973	15014.55	14123.7
974.7278	2476.3262	14994.6	14101.9
974.8563	2477.6787	14909.7	14020.5
974.9848	2479.0305	14836.4	13947.55
975.1132	2480.3816	14780.45	13890.6
975.2417	2481.7319	14719	13828.7
975.37	2483.0816	14660.05	13768.75
975.4984	2484.4306	14592.1	13701
975.6267	2485.7789	14557.75	13668.15
975.755	2487.1264	14488.1	13596.55
975.8833	2488.4733	14436.55	13547.25
976.0115	2489.8195	14418.85	13511.5
976.1397	2491.165	14343.2	13449.65
976.2678	2492.5097	14271.5	13381.1
976.3959	2493.8538	14212.4	13322.55
976.524	2495.1972	14143.8	13252.35
976.6521	2496.5398	14112.15	13221.2
976.7801	2497.8818	14061.1	13169.65
976.9081	2499.2231	14004.65	13114.95
977.036	2500.5637	13982.4	13089.9
977.164	2501.9035	13919.55	13028
977.2918	2503.2427	13891.75	12996.7
977.4197	2504.5812	13828.7	12938
977.5475	2505.919	13789	12896.45
977.6753	2507.256	13745.75	12855.4
977.8031	2508.5924	13668.15	12778.5
977.9308	2509.9281	13652.95	12757.5
978.0585	2511.2631	13584.6	12695.45
978.1861	2512.5974	13547.05	12659.8
978.3137	2513.9309	13498.05	12607.6
978.4413	2515.2638	13455.55	12539.2
978.5689	2516.596	13416.85	12527.45
978.6964	2517.9275	13316.5	12425.95
978.8239	2519.2583	13291.95	12402.45
978.9513	2520.5884	13239.8	12348.55
979.0788	2521.9178	13196.75	12307
979.2062	2523.2465	13148.95	12258.8
979.3335	2524.5745	13091.4	12202.95
979.4608	2525.9018	13043.2	12151.7
979.5881	2527.2284	13031.35	12140
979.7154	2528.5543	12979.55	12090.5
979.8426	2529.8796	12930.9	12042.2
979.9698	2531.2041	12902.9	12013.8
980.0969	2532.5279	12887.3	12000.55
980.224	2533.851	12871.15	11981.5
980.3511	2535.1735	12797.2	11907.1
980.4781	2536.4952	12756.5	11867.3
980.6052	2537.8163	12746.3	11856.15
980.7321	2539.1366	12705.45	11815.1
980.8591	2540.4562	12650.55	11758.7
980.986	2541.7752	12649.65	11760.5
981.1129	2543.0935	12634.4	11746.1
981.2397	2544.411	12579.3	11690.05
981.3665	2545.7279	12525.3	11635.05
981.4933	2547.0441	12526.5	11636.4
981.62	2548.3596	12513.15	11620.2
981.7467	2549.6744	12459.8	11568.45
981.8734	2550.9885	12401.4	11503.55
982.0001	2552.3019	12362.25	11475.45
982.1267	2553.6146	12341.55	11451.6
982.2532	2554.9266	12301.2	11409.75
982.3798	2556.2379	12230	11340.55
982.5063	2557.5485	12237.15	11348.7
982.6327	2558.8585	12172.5	11277.2
982.7592	2560.1677	12178.3	11283.1
982.8856	2561.4762	12143.55	11253.1
983.0119	2562.7841	12122.45	11229.6
983.1383	2564.0913	12090.8	11203.6
983.2646	2565.3977	12074.35	11185.15
983.3908	2566.7035	12023.3	11132.75
983.517	2568.0086	12009.3	11118.75
983.6432	2569.313	12021.05	11130.4
983.7694	2570.6167	11969.6	11077
983.8955	2571.9197	11921.6	11033.1
984.0216	2573.222	11914.15	11020.1
984.1476	2574.5236	11855.85	10965.4
984.2737	2575.8246	11831.3	10936.7
984.3996	2577.1248	11791.95	10898.35
984.5256	2578.4244	11776.7	10888.15
984.6515	2579.7232	11763.4	10874.3
984.7774	2581.0214	11738.1	10822.05
984.9032	2582.3189	11689.8	10799.3
985.029	2583.6157	11673.75	10780
985.1548	2584.9118	11625.95	10736.25
985.2806	2586.2072	11577.6	10687.85
985.4063	2587.5019	11575.2	10685.75
985.5319	2588.7959	11536.2	10645.8
985.6576	2590.0893	11523.3	10633.75
985.7832	2591.3819	11482.4	10592.95
985.9087	2592.6739	11427	10538.45
986.0343	2593.9652	11427.5	10536
986.1597	2595.2557	11370.15	10480.4
986.2852	2596.5456	11346.7	10455.45
986.4106	2597.8348	11255	10363.95
986.536	2599.1234	11217.5	10329.9
986.6614	2600.4112	11180.9	10289.35
986.7867	2601.6983	11140.8	10247.65
986.912	2602.9848	11119.9	10230.55
987.0372	2604.2705	11087.5	10189.1
987.1624	2605.5556	11044	10153.85
987.2876	2606.84	11000.25	10111.35
987.4128	2608.1237	10964.15	10074.9
987.5379	2609.4067	10917.75	10026.15
987.6629	2610.689	10861.75	9964.9
987.788	2611.9707	10840.15	9949.15
987.913	2613.2516	10811.6	9916.15
988.0379	2614.5319	10741.35	9851.65
988.1629	2615.8115	10719	9828.55
988.2878	2617.0903	10653.15	9762.4
988.4126	2618.3685	10626.1	9736.75
988.5375	2619.6461	10606.4	9717.15
988.6622	2620.9229	10549.7	9659.35
988.787	2622.199	10525.7	9634
988.9117	2623.4745	10520.6	9629.4
989.0364	2624.7493	10463.1	9571.95
989.161	2626.0234	10412.75	9523.7
989.2857	2627.2968	10380.65	9491.5
989.4102	2628.5695	10332.7	9442.1
989.5348	2629.8415	10288.9	9399.25
989.6593	2631.1128	10249	9357.55
989.7837	2632.3835	10206.1	9315.75
989.9082	2633.6535	10136.2	9246.55
990.0326	2634.9228	10130.2	9240.15
990.1569	2636.1914	10112.35	9223.05
990.2812	2637.4593	10072.55	9180.85
990.4055	2638.7265	10020.45	9128.5
990.5298	2639.9931	9990.65	9101.9
990.654	2641.259	9950.8	9060.1
990.7782	2642.5242	9918.95	9028.45
990.9023	2643.7887	9898.2	9010.25
991.0264	2645.0525	9867.1	8977.75
991.1505	2646.3156	9808.45	8917.9
991.2745	2647.5781	9795.65	8906.65
991.3985	2648.8398	9740.7	8851.6
991.5225	2650.1009	9733	8834.5
991.6464	2651.3613	9700	8810.85
991.7703	2652.6211	9671.8	8780.4
991.8942	2653.8801	9648.8	8761.15
992.018	2655.1385	9617.8	8725
992.1418	2656.3961	9578.2	8688.7
992.2655	2657.6531	9568.65	8680.55
992.3892	2658.9094	9547.35	8656.3
992.5129	2660.1651	9526.9	8638.7
992.6366	2661.42	9492.75	8603.35
992.7602	2662.6743	9467.9	8578.15
992.8837	2663.9279	9433.7	8546
993.0073	2665.1808	9404.95	8515.25
993.1307	2666.433	9373.7	8483.5
993.2542	2667.6846	9346.25	8456.9
993.3776	2668.9354	9318.85	8425.3
993.501	2670.1856	9290.7	8400.95
993.6244	2671.4351	9271.8	8382.8
993.7477	2672.6839	9265.55	8375.7
993.8709	2673.9321	9236.6	8345.75
993.9942	2675.1795	9197.05	8307.9
994.1174	2676.4263	9171.1	8282.5
994.2405	2677.6724	9136	8246.55
994.3637	2678.9179	9104.1	8214.3
994.4868	2680.1626	9093.6	8204
994.6098	2681.4067	9077.9	8188.1
994.7328	2682.6501	9048.4	8158.9
994.8558	2683.8928	9015.8	8126.6
994.9788	2685.1348	8979.9	8090.05
995.1017	2686.3761	8923.8	8033.45
995.2245	2687.6168	8884.25	7995.3
995.3474	2688.8568	8880.4	7991.45
995.4702	2690.0961	8836.6	7948.35
995.5929	2691.3348	8842.95	7954.15
995.7156	2692.5727	8796.25	7906.95
995.8383	2693.81	8750.8	7863.45
995.961	2695.0466	8720.15	7830.6
996.0836	2696.2826	8702.45	7810.4
996.2062	2697.5178	8681.15	7788.35
996.3287	2698.7524	8659.3	7770.25
996.4512	2699.9863	8621.5	7730.15
996.5737	2701.2195	8567	7680.3
996.6961	2702.452	8544.2	7655.1
996.8185	2703.6839	8536.9	7647.4
996.9408	2704.9151	8526.95	7638.75
997.0631	2706.1456	8492.1	7604.1
997.1854	2707.3755	8450.05	7561.2
997.3077	2708.6046	8430.95	7539.2
997.4299	2709.8331	8414.3	7523.15
997.552	2711.0609	8359.65	7468.55
997.6742	2712.2881	8370.95	7481.35
997.7963	2713.5145	8350.3	7457.75
997.9183	2714.7403	8329.15	7440
998.0403	2715.9654	8312.25	7422.75
998.1623	2717.1899	8293.95	7390.05
998.2842	2718.4136	8257.3	7369.05
998.4062	2719.6367	8243.5	7353.9
998.528	2720.8591	8219.7	7323.4
998.6498	2722.0809	8194.3	7303.6
998.7716	2723.3019	8166.85	7274.95
998.8934	2724.5223	8158.9	7267.25
999.0151	2725.7421	8141.5	7249.95
999.1368	2726.9611	8102.05	7209.45
999.2584	2728.1795	8078.9	7184.35
999.38	2729.3972	8029.5	7141.25
999.5016	2730.6142	8008.65	7107.45
999.6231	2731.8306	7965.4	7075.15
999.7446	2733.0462	7904.2	7012.75
999.8661	2734.2612	7861	6966.8
999.9875	2735.4756	7815	6924
1000.1089	2736.6892	7796.4	6906.35
1000.2302	2737.9022	7735.5	6845.95
1000.3515	2739.1145	7707.25	6819.85
1000.4728	2740.3262	7662.15	6765.55
1000.594	2741.5372	7633.3	6744.35
1000.7152	2742.7475	7596.7	6709.45
1000.8363	2743.9571	7563.45	6673.1
1000.9575	2745.1661	7531.2	6636.6
1001.0785	2746.3744	7517.75	6626.9
1001.1996	2747.582	7476.3	6588.3
1001.3206	2748.7889	7461.45	6570.05
1001.4415	2749.9952	7422.35	6532.5
1001.5625	2751.2008	7378.1	6489
1001.6833	2752.4057	7377.65	6484.85
1001.8042	2753.61	7342.5	6452.6
1001.925	2754.8136	7294.6	6403
1002.0458	2756.0165	7287.35	6399.45
1002.1665	2757.2188	7289.35	6402.9
1002.2872	2758.4204	7239.85	6349.5
1002.4078	2759.6213	7189.95	6298.25
1002.5285	2760.8215	7203.9	6308.5
1002.649	2762.0211	7173	6280.55
1002.7696	2763.22	7128.65	6235.2
1002.8901	2764.4182	7111.95	6220.5
1003.0106	2765.6158	7088.45	6199.35
1003.131	2766.8127	7069.9	6180.45
1003.2514	2768.009	7024.35	6135.7
1003.3717	2769.2045	7001.9	6112.25
1003.492	2770.3994	7002.95	6110.2
1003.6123	2771.5936	6989.15	6099.3
1003.7325	2772.7872	6953.8	6065.05
1003.8527	2773.9801	6929.95	6041.15
1003.9729	2775.1723	6915.75	6010.15
1004.093	2776.3639	6857.45	5969.05
1004.2131	2777.5548	6831.1	5938.45
1004.3331	2778.745	6800	5909.75
1004.4531	2779.9346	6799.7	5910.95
1004.5731	2781.1235	6769.5	5879.75
1004.693	2782.3117	6774.2	5884.05
1004.8129	2783.4992	6727.4	5837.9
1004.9328	2784.6861	6717.2	5828.1
1005.0526	2785.8723	6703.85	5813.85
1005.1723	2787.0579	6685.2	5794.4
1005.2921	2788.2428	6670.7	5781.6
1005.4118	2789.427	6651.2	5763.55
1005.5314	2790.6106	6627.8	5740
1005.651	2791.7935	6611.1	5720.15
1005.7706	2792.9757	6584.85	5697.5
1005.8902	2794.1573	6570.7	5678.3
1006.0097	2795.3382	6574	5684.85
1006.1291	2796.5184	6558.7	5672.1
1006.2485	2797.698	6570.9	5681.05
1006.3679	2798.8769	6565.75	5676.9
1006.4873	2800.0551	6543.05	5653.15
1006.6066	2801.2327	6529.1	5635.8
1006.7258	2802.4096	6515.45	5625.25
1006.8451	2803.5859	6516.45	5625.6
1006.9642	2804.7615	6506.65	5618.75
1007.0834	2805.9364	6522.6	5633.5
1007.2025	2807.1106	6523.3	5633.35
1007.3216	2808.2842	6533.15	5644.05
1007.4406	2809.4572	6520.2	5632.55
1007.5596	2810.6294	6569.2	5679.6
1007.6785	2811.801	6576.05	5689.6
1007.7975	2812.972	6593.9	5704.2
1007.9163	2814.1423	6628.05	5739.05
1008.0352	2815.3119	6647.2	5759.6
1008.154	2816.4808	6678.9	5789.8
1008.2727	2817.6491	6716.2	5827.65
1008.3914	2818.8167	6747.2	5859.8
1008.5101	2819.9837	6786.05	5893.75
1008.6288	2821.15	6814.45	5924.85
1008.7474	2822.3157	6821.05	5933.4
1008.8659	2823.4807	6854.8	5965.5
1008.9844	2824.645	6860	5968.1
1009.1029	2825.8086	6899.35	6009.85
1009.2214	2826.9716	6939.8	6050.4
1009.3398	2828.134	6958.9	6069.75
1009.4581	2829.2957	7001.9	6112.55
1009.5764	2830.4567	6988.6	6100.4
1009.6947	2831.617	6996.4	6106.35
1009.813	2832.7767	6993.85	6105.1
1009.9312	2833.9358	6991.2	6104.15
1010.0493	2835.0941	6956.1	6066.25
1010.1675	2836.2519	6943.1	6053.25
1010.2855	2837.4089	6914.45	6023.75
1010.4036	2838.5653	6911.6	6023.6
1010.5216	2839.7211	6879.2	5991.7
1010.6396	2840.8761	6864.9	5973.7
1010.7575	2842.0306	6882.6	5995.85
1010.8754	2843.1843	6908.6	6021.25
1010.9932	2844.3374	6943	6054.85
1011.111	2845.4899	6964.75	6074.85
1011.2288	2846.6417	7034.55	6145.7
1011.3465	2847.7928	7062.5	6175.2
1011.4642	2848.9433	7145.4	6256.15
1011.5818	2850.0931	7231.05	6342.9
1011.6995	2851.2422	7281.9	6390.3
1011.817	2852.3907	7310.45	6419.2
1011.9345	2853.5385	7375.85	6484.7
1012.052	2854.6857	7434.3	6519.4
1012.1695	2855.8323	7441.75	6553.05
1012.2869	2856.9781	7482.5	6595.05
1012.4042	2858.1233	7503	6616.35
1012.5216	2859.2679	7517.9	6628.3
1012.6389	2860.4118	7540.15	6650.5
1012.7561	2861.555	7551.65	6658.75
1012.8733	2862.6976	7599.15	6708.95
1012.9905	2863.8395	7609.4	6720.25
1013.1076	2864.9808	7620.25	6729.55
1013.2247	2866.1214	7602.2	6713.15
1013.3417	2867.2614	7598.9	6712.05
1013.4587	2868.4007	7587.25	6696.7
1013.5757	2869.5393	7593.75	6703.05
1013.6926	2870.6773	7604.75	6714.1
1013.8095	2871.8146	7587.25	6695.3
1013.9263	2872.9513	7548.2	6657.9
1014.0431	2874.0874	7518.95	6629.15
1014.1599	2875.2227	7505.4	6615.2
1014.2766	2876.3574	7456.75	6568.65
1014.3933	2877.4915	7407.6	6518.4
1014.51	2878.6249	7385.45	6498.7
1014.6266	2879.7577	7335.45	6446.1
1014.7431	2880.8898	7313.55	6414.8
1014.8596	2882.0212	7273	6383
1014.9761	2883.152	7253.65	6364.05
1015.0925	2884.2821	7213.35	6324.25
1015.2089	2885.4116	7179.4	6292.9
1015.3253	2886.5405	7166.25	6276.95
1015.4416	2887.6686	7155.45	6262.25
1015.5579	2888.7962	7137.7	6251.3
1015.6741	2889.923	7124.6	6239.1
1015.7903	2891.0493	7133.2	6247.55
1015.9065	2892.1748	7143.7	6253.9
1016.0226	2893.2997	7116	6227.05
1016.1387	2894.424	7118.85	6231.3
1016.2547	2895.5476	7116.15	6226.4
1016.3707	2896.6706	7114.6	6226.55
1016.4866	2897.7929	7153	6265.7
1016.6025	2898.9145	7140.8	6253.15
1016.7184	2900.0355	7148.2	6258.95
1016.8342	2901.1559	7182.7	6293.9
1016.95	2902.2756	7185.3	6297.25
1017.0658	2903.3946	7191.7	6301.45
1017.1815	2904.513	7195.45	6302.55
1017.2971	2905.6308	7214.05	6326.25
1017.4127	2906.7479	7217.6	6329.15
1017.5283	2907.8643	7236.35	6350.8
1017.6439	2908.9801	7232.8	6345.15
1017.7594	2910.0953	7215.35	6326.45
1017.8748	2911.2098	7205.55	6313.2
1017.9902	2912.3236	7178.4	6280.7
1018.1056	2913.4368	7137.55	6244.65
1018.2209	2914.5494	7114.55	6225.4
1018.3362	2915.6613	7065.55	6172.25
1018.4515	2916.7725	7027.7	6136
1018.5667	2917.8831	6989.55	6098.8
1018.6819	2918.9931	6968.85	6078.2
1018.797	2920.1024	6904.6	6015.75
1018.9121	2921.211	6880.65	5992.6
1019.0271	2922.319	6843.3	5954.45
1019.1421	2923.4264	6832.5	5943.3
1019.2571	2924.5331	6787.6	5899.3
1019.372	2925.6391	6775.25	5886.5
1019.4869	2926.7445	6745.85	5859.2
1019.6017	2927.8493	6723.65	5834.25
1019.7165	2928.9534	6722.75	5833.45
1019.8313	2930.0569	6678.6	5788.05
1019.946	2931.1597	6675.55	5788.4
1020.0606	2932.2619	6637	5747.9
1020.1753	2933.3634	6637.6	5747.95
1020.2899	2934.4643	6612.55	5716.85
1020.4044	2935.5645	6600.55	5703.75
1020.5189	2936.6641	6521.85	5627.2
1020.6334	2937.763	6471.9	5584.2
1020.7478	2938.8613	6418.35	5530.4
1020.8622	2939.959	6356.9	5463.15
1020.9765	2941.056	6274.85	5388.1
1021.0908	2942.1523	6166.25	5277.4
1021.2051	2943.248	6074.4	5185.65
1021.3193	2944.3431	5953.1	5064.65
1021.4334	2945.4375	5861.85	4973
1021.5476	2946.5313	5738.35	4851.2
1021.6617	2947.6244	5647.95	4757.95
1021.7757	2948.7169	5535.7	4645.1
1021.8897	2949.8087	5433.1	4544.9
1022.0037	2950.8999	5332.8	4443.8
1022.1176	2951.9904	5225.65	4338.55
1022.2315	2953.0803	5148.3	4259.75
1022.3453	2954.1696	5074.65	4186.15
1022.4591	2955.2582	5014.95	4127.35
1022.5728	2956.3462	4934.2	4045.7
1022.6865	2957.4335	4900.65	4010.7
1022.8002	2958.5202	4845.25	3953.25
1022.9138	2959.6062	4797.55	3910.4
1023.0274	2960.6916	4774.7	3886.2
1023.141	2961.7764	4722.8	3833.95
1023.2545	2962.8605	4699.15	3812.1
1023.3679	2963.9439	4693.55	3805.25
1023.4813	2965.0267	4675.05	3786.1
1023.5947	2966.1089	4660.35	3747
1023.708	2967.1905	4614.8	3727
1023.8213	2968.2714	4601.3	3713.6
1023.9346	2969.3516	4583.1	3692.75
1024.0478	2970.4312	4569.6	3673.5
1024.1609	2971.5102	4555.2	3666.05
1024.274	2972.5885	4551.85	3665.3
1024.3871	2973.6662	4550.55	3656.75
1024.5002	2974.7432	4533.5	3645.5
1024.6132	2975.8196	4528.25	3639.5
1024.7261	2976.8954	4477.8	3589.15
1024.839	2977.9705	4459.75	3570.8
1024.9519	2979.045	4441.75	3554.4
1025.0647	2980.1188	4406.7	3518.75
1025.1775	2981.192	4371.25	3482.65
1025.2902	2982.2645	4353.55	3466.35
1025.4029	2983.3364	4317.1	3426.5
1025.5156	2984.4077	4274.4	3387
1025.6282	2985.4783	4233	3338.5
1025.7407	2986.5483	4194.05	3304.5
1025.8532	2987.6177	4156.75	3269.35
1025.9657	2988.6864	4118.9	3229.3
1026.0782	2989.7545	4080.5	3192.8
1026.1906	2990.8219	4035.6	3147.7
1026.3029	2991.8887	3991.2	3100.15
1026.4152	2992.9548	3958.5	3070.1
1026.5275	2994.0204	3916.35	3028.6
1026.6397	2995.0852	3870.4	2983.65
1026.7519	2996.1495	3849.8	2961.25
1026.864	2997.2131	3807.9	2919.75
1026.9761	2998.276	3782.3	2894.4
1027.0882	2999.3383	3737.75	2847.3
1027.2002	3000.4	3707.8	2819.2
1027.3122	3001.4611	3694.75	2806.15
1027.4241	3002.5215	3686.25	2797.25
1027.536	3003.5812	3627.2	2738.6
1027.6478	3004.6404	3627.1	2739.9
1027.7596	3005.6989	3609.85	2720.3
1027.8714	3006.7567	3597.1	2710.45
1027.9831	3007.8139	3589.6	2678.9
1028.0947	3008.8705	3559.85	2671.05
1028.2064	3009.9264	3551.5	2659.9
1028.3179	3010.9818	3542.1	2654.5
1028.4295	3012.0364	3520.4	2632.15
1028.541	3013.0905	3500.1	2612.9
1028.6524	3014.1439	3479.7	2590.15
1028.7638	3015.1966	3467.55	2579.35
1028.8752	3016.2487	3476.5	2587.3
1028.9865	3017.3002	3475.45	2579.75
1029.0978	3018.3511	3449.65	2561.75
1029.209	3019.4013	3438.2	2551.15
1029.3202	3020.4509	3443.35	2556
1029.4314	3021.4998	3423.1	2535.9
1029.5425	3022.5481	3425.75	2537.6
1029.6535	3023.5958	3414.6	2525.35
1029.7645	3024.6428	3390.1	2501.2
1029.8755	3025.6892	3383	2495.25
1029.9864	3026.735	3389.85	2500.2
1030.0973	3027.7802	3384.75	2496
1030.2082	3028.8247	3366.35	2477.2
1030.319	3029.8685	3363.1	2473.25
1030.4297	3030.9118	3350	2460.95
1030.5404	3031.9544	3352.65	2464.9
1030.6511	3032.9963	3339	2451.9
1030.7617	3034.0376	3337	2451.15
1030.8723	3035.0783	3322.15	2431.3
1030.9829	3036.1184	3326.75	2437.45
1031.0934	3037.1578	3318.6	2430.2
1031.2038	3038.1966	3299.6	2411.95
1031.3142	3039.2348	3300.55	2412.2
1031.4246	3040.2723	3299.25	2402.45
1031.5349	3041.3092	3292.95	2404.35
1031.6452	3042.3455	3273.95	2385.85
1031.7554	3043.3811	3248.45	2359.85
1031.8656	3044.4161	3260.95	2370.85
1031.9758	3045.4505	3235.6	2348.75
1032.0859	3046.4842	3226.45	2338.15
1032.1959	3047.5173	3206.35	2316.15
1032.3059	3048.5498	3191.35	2303.15
1032.4159	3049.5816	3187.2	2297.75
1032.5258	3050.6128	3172.7	2285.25
1032.6357	3051.6434	3167.15	2277.35
1032.7455	3052.6734	3141.9	2253.1
1032.8553	3053.7027	3136.75	2248.5
1032.9651	3054.7314	3119.1	2229.85
1033.0748	3055.7594	3094.15	2208.5
1033.1845	3056.7868	3090.2	2202.2
1033.2941	3057.8136	3084.55	2196.8
1033.4037	3058.8398	3076.7	2190.25
1033.5132	3059.8653	3052	2163.9
1033.6227	3060.8902	3046.1	2158.6
1033.7321	3061.9145	3033.55	2144.65
1033.8415	3062.9381	3018.25	2129.1
1033.9509	3063.9612	3016.8	2113.55
1034.0602	3064.9835	3008.35	2121.35
1034.1694	3066.0053	2985	2094.05
1034.2787	3067.0264	2981.1	2095.8
1034.3878	3068.0469	2970.75	2081.8
1034.497	3069.0668	2949.25	2059.8
1034.6061	3070.086	2928.55	2042.05
1034.7151	3071.1046	2913.1	2022.7
1034.8241	3072.1226	2908.3	2019.5
1034.9331	3073.1399	2891.85	2002.5
1035.042	3074.1567	2881.05	1992.45
1035.1508	3075.1727	2845.15	1954.95
1035.2597	3076.1882	2833.35	1946.55
1035.3684	3077.203	2821.35	1934.3
1035.4772	3078.2173	2819.7	1929.1
1035.5859	3079.2308	2794.25	1904.65
1035.6945	3080.2438	2775.3	1886.05
1035.8031	3081.2561	2765.7	1876.5
1035.9117	3082.2678	2752.4	1867.05
1036.0202	3083.2789	2742.55	1855.4
1036.1286	3084.2893	2727.45	1839.65
1036.2371	3085.2991	2713.55	1826.3
1036.3454	3086.3083	2710.75	1817.1
1036.4538	3087.3169	2702	1813.65
1036.562	3088.3248	2702.05	1813.15
1036.6703	3089.3321	2664.45	1774.05
1036.7785	3090.3388	2646.7	1759.65
1036.8866	3091.3449	2636.1	1748.6
1036.9948	3092.3503	2634.05	1745.3
1037.1028	3093.3551	2628.3	1744.05
1037.2108	3094.3593	2608.1	1721.15
1037.3188	3095.3629	2605.25	1717.85
1037.4267	3096.3658	2591.6	1703.3
1037.5346	3097.3681	2580.35	1693.15
1037.6425	3098.3698	2576.65	1688.3
1037.7503	3099.3708	2570.2	1675.1
1037.858	3100.3713	2560.9	1673.85
1037.9657	3101.3711	2547.45	1660.9
1038.0734	3102.3702	2650.75	1626.9
1038.181	3103.3688	2544.2	1654.05
1038.2886	3104.3667	2517.45	1631.55
1038.3961	3105.364	2505	1618.85
1038.5036	3106.3607	2506.65	1617.9
1038.611	3107.3568	2491.25	1602.9
1038.7184	3108.3522	2477.15	1589.15
1038.8257	3109.347	2465.35	1577.55
1038.933	3110.3412	2449.2	1559.3
1039.0403	3111.3348	2441.05	1552.3
1039.1475	3112.3277	2424.05	1537.35
1039.2547	3113.32	2435.95	1549.1
1039.3618	3114.3117	2420.5	1531.95
1039.4689	3115.3028	2401.65	1512.3
1039.5759	3116.2932	2406.9	1516.65
1039.6829	3117.2831	2406.9	1514.7
1039.7898	3118.2723	2384.35	1496.65
1039.8967	3119.2608	2374.65	1487.55
1040.0035	3120.2488	2369.05	1480.6
1040.1103	3121.2361	2357.05	1471.7
1040.2171	3122.2229	2350	1462.75
1040.3238	3123.209	2342.45	1455.25
1040.4305	3124.1944	2332.2	1443.35
1040.5371	3125.1793	2330.9	1443
1040.6437	3126.1635	2328.55	1440.2
1040.7502	3127.1471	2315.95	1428.3
1040.8567	3128.1301	2301.4	1413.05
1040.9631	3129.1125	2288.65	1400.65
1041.0695	3130.0942	2297.9	1410.55
1041.1759	3131.0753	2296.25	1398.4
1041.2822	3132.0558	2285.15	1393.25
1041.3884	3133.0357	2266	1376.75
1041.4946	3134.015	2264.65	1376.35
1041.6008	3134.9936	2251.45	1361.65
1041.7069	3135.9716	2274.55	1366.2
1041.813	3136.949	2254.75	1366.05
1041.919	3137.9258	2240.6	1347.45
1042.025	3138.902	2235.65	1342.2
1042.1309	3139.8775	2218.3	1331.95
1042.2368	3140.8524	2231	1343.2
1042.3427	3141.8267	2225.55	1337.75
1042.4485	3142.8004	2215.6	1328.8
1042.5542	3143.7735	2208.05	1315.45
1042.6599	3144.7459	2203.1	1311.5
1042.7656	3145.7178	2194.45	1306.05
1042.8712	3146.689	2184.6	1295.75
1042.9768	3147.6596	2177.35	1289.9
1043.0823	3148.6295	2181.05	1292.55
1043.1878	3149.5989	2172.75	1285.1
1043.2932	3150.5676	2151.3	1265.15
1043.3986	3151.5357	2140.75	1254.45
1043.5039	3152.5032	2146.1	1261.7
1043.6092	3153.4701	2139.25	1250.9
1043.7145	3154.4364	2115.85	1226.45
1043.8197	3155.402	2128.1	1240.65
1043.9248	3156.367	2116.35	1225.55
1044.03	3157.3315	2146.15	1214
1044.135	3158.2952	2106.35	1218.85
1044.24	3159.2584	2094.55	1208.95
1044.345	3160.221	2091.05	1202.35
1044.4499	3161.1829	2087.75	1199.85
1044.5548	3162.1442	2063.15	1175.6
1044.6596	3163.105	2063.2	1174.75
1044.7644	3164.065	2056.4	1168
1044.8692	3165.0245	2057.3	1165.9
1044.9739	3165.9834	2041	1153.1
1045.0785	3166.9416	2052.25	1162.75
1045.1831	3167.8993	2029.65	1140.7
1045.2877	3168.8563	2023.7	1136.95
1045.3922	3169.8127	2011.8	1124.35
1045.4966	3170.7684	2004.95	1117.6
1045.6011	3171.7236	2001.2	1112.95
1045.7054	3172.6782	2009	1120.65
1045.8098	3173.6321	1994.9	1105.65
1045.914	3174.5854	1990.95	1099.4
1046.0183	3175.5381	1991	1101.75
1046.1224	3176.4902	1979.25	1091.95
1046.2266	3177.4417	1970.9	1085.25
1046.3307	3178.3926	1954.7	1067.75
1046.4347	3179.3428	1964.95	1079.15
1046.5387	3180.2924	1953.65	1067.85
1046.6427	3181.2415	1946.65	1058.3
1046.7466	3182.1899	1935.25	1047.1
1046.8504	3183.1377	1929.75	1042.2
1046.9542	3184.0848	1939.1	1048.35
1047.058	3185.0314	1924.05	1035.85
1047.1617	3185.9773	1923.4	1036.05
1047.2654	3186.9227	1910.15	1022.25
1047.369	3187.8674	1912.3	1024.2
1047.4726	3188.8115	1907.6	1017.6
1047.5761	3189.755	1898.75	1011.55
1047.6796	3190.6979	1886.95	999
1047.783	3191.6402	1889.15	1000.4
1047.8864	3192.5818	1875.05	987.65
1047.9898	3193.5229	1904.7	994
1048.0931	3194.4633	1878.45	989.55
1048.1963	3195.4031	1868.7	981.7
1048.2995	3196.3423	1868.35	979.95
1048.4027	3197.2809	1860.25	973.45
1048.5058	3198.2189	1850.5	962.4
1048.6089	3199.1563	1862.4	967.9
1048.7119	3200.0931	1846.15	958.15
1048.8148	3201.0292	1836.15	950.5
1048.9178	3201.9648	1836.7	948.7
1049.0206	3202.8997	1834.45	946.6
1049.1235	3203.834	1824.95	938.3
1049.2262	3204.7677	1818.65	931.7
1049.329	3205.7008	1820.95	930.8
1049.4317	3206.6333	1788.4	902.35
1049.5343	3207.5652	1796.1	906.5
1049.6369	3208.4964	1802.35	913.7
1049.7394	3209.4271	1791.15	903.85
1049.8419	3210.3571	1795.65	909.85
1049.9444	3211.2865	1779.25	891.3
1050.0468	3212.2154	1776.05	888.2
1050.1491	3213.1436	1770.65	880.9
1050.2514	3214.0712	1783.3	888.9
1050.3537	3214.9982	1765.45	878.4
1050.4559	3215.9246	1760.85	870.9
1050.5581	3216.8503	1755.95	871.2
1050.6602	3217.7755	1752.2	865.9
1050.7623	3218.7001	1749.2	860.7
1050.8643	3219.624	1743.75	856.1
1050.9663	3220.5473	1743.25	855.1
1051.0682	3221.4701	1743.2	853.7
1051.1701	3222.3922	1731.95	842.35
1051.2719	3223.3137	1729.55	841.35
1051.3737	3224.2346	1719.2	832.95
1051.4754	3225.1549	1714.35	826.15
1051.5771	3226.0746	1702.65	816.6
1051.6788	3226.9937	1712.65	824.9
1051.7804	3227.9121	1703.85	817.45
1051.8819	3228.83	1702.8	814.8
1051.9834	3229.7473	1701.95	813.5
1052.0849	3230.6639	1695.6	808.25
1052.1863	3231.5799	1690.9	804.1
1052.2876	3232.4954	1687.2	798.35
1052.3889	3233.4102	1681.55	794.1
1052.4902	3234.3244	1674.1	788.6
1052.5914	3235.238	1672.65	785.5
1052.6926	3236.151	1691.6	782.6
1052.7937	3237.0634	1662.35	775.6
1052.8948	3237.9752	1651.05	763.65
1052.9958	3238.8864	1643.25	754.5
1053.0968	3239.797	1643.5	757.4
1053.1977	3240.7069	1640.95	752.95
1053.2986	3241.6163	1636.4	748.65
1053.3994	3242.5251	1625.15	740.55
1053.5002	3243.4332	1622.2	735.85
1053.6009	3244.3408	1626.95	738.6
1053.7016	3245.2477	1622.7	735.75
1053.8022	3246.154	1610.8	721.65
1053.9028	3247.0598	1610	722.25
1054.0034	3247.9649	1604.55	718.8
1054.1039	3248.8694	1601.35	712.3
1054.2043	3249.7733	1596.45	710.5
1054.3047	3250.6766	1589.8	701.95
1054.4051	3251.5793	1591.25	704.25
1054.5054	3252.4814	1592.05	707.05
1054.6056	3253.3829	1576.95	689.4
1054.7058	3254.2838	1573.7	687.6
1054.806	3255.1841	1566.15	677.4
1054.9061	3256.0838	1563.95	676.7
1055.0061	3256.9829	1554	668.15
1055.1062	3257.8814	1557.05	666.45
1055.2061	3258.7792	1552.05	662.05
1055.306	3259.6765	1538.5	649.95
1055.4059	3260.5731	1539.35	653.5
1055.5057	3261.4692	1530.8	642.55
1055.6055	3262.3647	1523.1	635.75
1055.7052	3263.2595	1504.25	615.7
1055.8049	3264.1538	1498.05	612.05
1055.9045	3265.0474	1490.35	601.35
1056.0041	3265.9404	1487.85	602.3
1056.1036	3266.8329	1470.5	584.15
1056.2031	3267.7247	1478.6	581.95
1056.3025	3268.616	1447.85	560.7
1056.4019	3269.5066	1433.65	546.85
1056.5013	3270.3966	1424.05	536.7
1056.6005	3271.286	1406.3	522.15
