Software Version:	3.9.2.0
Unit SN:	10000200
Spectrometer SN:	6960
Date:	3/6/2024 9:52:08 AM
Data Line Index:	25
Spectral Points:	2048
Integration time (ms):	125
Averages:	20
Delay (ms):	30
Sequence Number:	1
Processing:	dark subtract
Laser Power (mW):	305
Laser Current (mA):	823
Laser Diode Temp (C):	25
Laser Case Temp (C):	24.4
System Temp (C):	24.2
Spectrometer Temp (C):	21.8
CCD Temp (C):	0.001
Secondary Temp (C):	20.006
Heatsink Temp (C):	18.32
CCDPCB Temp (C):	30.571
SecondaryPCB Temp (C):	26.069

Wavelength	RamanShift	Raw Counts	Dark Subtracted
787.061	30.1047	441.75	32.3
787.2016	32.3739	444.55	38.05
787.3422	34.6426	447.3	40.95
787.4828	36.9109	446.95	38.65
787.6235	39.1787	455.3	43.9
787.7642	41.4461	461.35	44.8
787.9049	43.7131	467.3	46.85
788.0456	45.9796	474.95	52
788.1863	48.2456	480.55	53.35
788.3271	50.5112	486	53.6
788.4679	52.7764	490.25	55.7
788.6087	55.0411	497.35	58.95
788.7496	57.3054	508.75	65.9
788.8904	59.5692	513.9	68.6
789.0313	61.8326	524.6	77.15
789.1722	64.0955	529.1	79.35
789.3132	66.3579	540.05	84.75
789.4541	68.6199	552.65	94.05
789.5951	70.8815	574.05	109
789.7361	73.1426	618.85	151
789.8771	75.4032	711.6	237.85
790.0181	77.6634	951.3	476.8
790.1592	79.9231	1507.95	1030.1
790.3003	82.1824	2701.45	2215.2
790.4414	84.4412	4763.5	4261.1
790.5825	86.6995	7570.5	7055.55
790.7237	88.9574	10347.25	9816.95
790.8648	91.2148	12398.65	11861.8
791.006	93.4717	13575.4	13031.1
791.1472	95.7282	14085.45	13536.85
791.2885	97.9842	14338.7	13786.2
791.4297	100.2398	14448.4	13894.85
791.571	102.4949	14487.3	13932.65
791.7123	104.7495	14476.2	13913.65
791.8536	107.0036	14465.05	13903
791.9949	109.2573	14445.25	13884
792.1363	111.5105	14492.65	13928.3
792.2777	113.7632	14432.25	13868.35
792.4191	116.0154	14459.5	13882.85
792.5605	118.2672	14475.55	13903.55
792.7019	120.5185	14490.5	13919
792.8434	122.7693	14520.05	13941.15
792.9849	125.0197	14499.35	13921.5
793.1264	127.2696	14524.3	13940.1
793.2679	129.519	14591.95	14004.2
793.4094	131.7679	14586.75	13997.8
793.551	134.0163	14610.3	14020.05
793.6926	136.2642	14649.05	14054.45
793.8342	138.5117	14614.35	14014.65
793.9758	140.7587	14661.7	14062.05
794.1175	143.0052	14683.35	14080.4
794.2591	145.2512	14653.4	14050.65
794.4008	147.4967	14662.9	14056.15
794.5425	149.7417	14641.5	14036.5
794.6842	151.9863	14646.65	14036.3
794.826	154.2304	14660	14047.35
794.9677	156.4739	14635.35	14012.9
795.1095	158.717	14662.2	14041.85
795.2513	160.9596	14657.2	14030.4
795.3931	163.2017	14656.95	14028.8
795.535	165.4433	14676.15	14047.55
795.6768	167.6844	14646.8	14014.6
795.8187	169.925	14695.05	14060.1
795.9606	172.1651	14614.95	13978.55
796.1025	174.4047	14644.5	14006.6
796.2445	176.6439	14630.8	13988.4
796.3864	178.8825	14607.6	13961.3
796.5284	181.1206	14646.6	13996.3
796.6704	183.3582	14647	13992.65
796.8124	185.5954	14663.5	14007.7
796.9544	187.832	14664.5	14005.8
797.0965	190.0681	14716	14054.4
797.2386	192.3037	14774	14109.2
797.3806	194.5388	14734.95	14068.35
797.5228	196.7734	14772	14102.85
797.6649	199.0075	14825.15	14154.3
797.807	201.2411	14898.8	14223.4
797.9492	203.4742	14913.85	14239.55
798.0914	205.7068	14967.75	14288.85
798.2336	207.9389	14983.25	14304.5
798.3758	210.1704	15022.9	14350.85
798.518	212.4015	14982.8	14319.8
798.6603	214.632	14998.6	14341.15
798.8025	216.862	15025.15	14368.05
798.9448	219.0915	15015.35	14356.9
799.0871	221.3205	15062.95	14401.2
799.2294	223.549	15081.45	14421.25
799.3718	225.777	15152.05	14495.5
799.5141	228.0044	15144.55	14477.2
799.6565	230.2314	15191.7	14525.5
799.7989	232.4578	15180.2	14508.5
799.9413	234.6837	15174.5	14491.05
800.0837	236.909	15186.45	14506.1
800.2262	239.1339	15205.25	14500
800.3687	241.3582	15220.2	14526.85
800.5111	243.582	15256.6	14532.6
800.6536	245.8053	15280.05	14574.65
800.7961	248.0281	15258.5	14555.2
800.9387	250.2503	15283	14577.6
801.0812	252.472	15250.7	14541.3
801.2238	254.6932	15311.15	14600.15
801.3664	256.9139	15254.75	14545.25
801.509	259.134	15282.3	14567.9
801.6516	261.3536	15312.8	14598.95
801.7942	263.5727	15378.65	14664
801.9369	265.7912	15359.8	14646.4
802.0795	268.0092	15396.4	14682.95
802.2222	270.2267	15402.5	14684.7
802.3649	272.4436	15402.5	14682.75
802.5076	274.6601	15447.7	14716.75
802.6504	276.8759	15401.3	14679.1
802.7931	279.0913	15452.7	14728.3
802.9359	281.3061	15478.85	14752.1
803.0787	283.5204	15468	14741.1
803.2215	285.7341	15501.45	14769.75
803.3643	287.9473	15556.7	14815.7
803.5071	290.16	15522.55	14788
803.6499	292.3721	15475.75	14746.6
803.7928	294.5837	15481.7	14751.35
803.9357	296.7947	15489.95	14759.15
804.0786	299.0052	15477.55	14745.7
804.2215	301.2152	15422.35	14686.1
804.3644	303.4246	15449.5	14719.5
804.5074	305.6334	15400.6	14667.75
804.6503	307.8418	15416.6	14678
804.7933	310.0495	15413.25	14675.6
804.9363	312.2568	15360.85	14624.05
805.0793	314.4635	15325.6	14582.55
805.2223	316.6696	15274.05	14527.45
805.3653	318.8752	15235.9	14481.6
805.5084	321.0802	15224.05	14478.05
805.6514	323.2847	15236.55	14487.85
805.7945	325.4887	15205.15	14456.8
805.9376	327.692	15195.25	14447.5
806.0807	329.8949	15244.05	14495
806.2238	332.0972	15248.2	14497.55
806.367	334.2989	15282.4	14527.35
806.5101	336.5001	15215.8	14461.4
806.6533	338.7007	15253	14497.8
806.7965	340.9008	15259.5	14503
806.9397	343.1003	15209.05	14449.3
807.0829	345.2992	15215.1	14454.85
807.2261	347.4976	15162.5	14398.65
807.3693	349.6955	15157.55	14394.9
807.5126	351.8927	15199.55	14432.8
807.6559	354.0895	15141.75	14366.2
807.7991	356.2856	15181.15	14412.7
807.9424	358.4812	15165.6	14399.75
808.0857	360.6763	15168.05	14398.65
808.2291	362.8707	15121.6	14350.45
808.3724	365.0646	15117.05	14343.5
808.5158	367.258	15070.1	14293.65
808.6591	369.4508	15089.4	14308.25
808.8025	371.643	15139.35	14362.2
808.9459	373.8346	15083.2	14303.35
809.0893	376.0257	15043.1	14260.3
809.2327	378.2162	15049.75	14264.95
809.3762	380.4062	15060.75	14276.2
809.5196	382.5956	15018.3	14236
809.6631	384.7844	14988.45	14212.5
809.8066	386.9726	14946.55	14170.4
809.9501	389.1603	14925.95	14150.75
810.0936	391.3474	14916.15	14108.1
810.2371	393.5339	14885.95	14106.25
810.3806	395.7199	14856.8	14077.7
810.5241	397.9052	14873.45	14096.75
810.6677	400.09	14855.2	14077.95
810.8113	402.2743	14879.2	14101.55
810.9548	404.4579	14861.6	14081.65
811.0984	406.641	14920.6	14138.05
811.2421	408.8235	14925.55	14140.7
811.3857	411.0054	14938.75	14154.5
811.5293	413.1868	15028.85	14241
811.673	415.3675	15045.8	14250.35
811.8166	417.5477	15072.15	14280.45
811.9603	419.7273	14984.5	14186.8
812.104	421.9064	14895.95	14094.4
812.2477	424.0848	14818.55	14021.65
812.3914	426.2627	14752.05	13954.95
812.5351	428.4399	14732.65	13932.65
812.6788	430.6166	14667.4	13865.05
812.8226	432.7928	14618.8	13815.85
812.9663	434.9683	14568.2	13765.3
813.1101	437.1432	14526.8	13720
813.2539	439.3176	14483.95	13683.2
813.3977	441.4914	14445	13642.4
813.5415	443.6645	14446.15	13644.2
813.6853	445.8371	14391.5	13585.95
813.8291	448.0091	14336.2	13531.15
813.973	450.1806	14290.6	13486
814.1168	452.3514	14238.5	13431.6
814.2607	454.5216	14232.1	13417.4
814.4046	456.6913	14176.35	13365.85
814.5485	458.8603	14171.55	13365.55
814.6924	461.0288	14195.4	13389.2
814.8363	463.1967	14157	13351.25
814.9802	465.3639	14155.5	13348.55
815.1241	467.5306	14098.9	13288.1
815.2681	469.6967	14103.95	13297.2
815.412	471.8622	14058	13249.65
815.556	474.0271	14055.45	13248.55
815.7	476.1914	14044.85	13232.65
815.844	478.3551	14002.15	13191.65
815.988	480.5182	14044.3	13232.45
816.132	482.6807	14033.15	13224.65
816.276	484.8426	14047.1	13236.05
816.4201	487.0039	14060.5	13252.15
816.5641	489.1647	14098.8	13284.1
816.7082	491.3248	14111.85	13297
816.8522	493.4843	14111.3	13301.3
816.9963	495.6432	14087.05	13273.25
817.1404	497.8015	14053.55	13235.35
817.2845	499.9592	14036.2	13217.3
817.4286	502.1163	14016	13193.4
817.5727	504.2728	13974.85	13153.1
817.7168	506.4287	14005.5	13189.4
817.861	508.5839	13929.4	13113.5
818.0051	510.7386	13949.9	13132.6
818.1493	512.8927	13940	13114.45
818.2935	515.0461	13944.35	13121.9
818.4377	517.199	13920.6	13095.7
818.5818	519.3512	13901	13078.55
818.726	521.5029	13941.8	13115.45
818.8703	523.6539	13946.4	13119.65
819.0145	525.8043	13972.7	13145.85
819.1587	527.9541	13922.05	13094.15
819.303	530.1033	13866.55	13037.75
819.4472	532.2519	13814.95	12987.35
819.5915	534.3999	13829.9	12998.4
819.7357	536.5472	13805.85	12977.1
819.88	538.694	13804.3	12978.45
820.0243	540.8401	13796.9	12967.55
820.1686	542.9856	13791.6	12958.15
820.3129	545.1305	13793.6	12956
820.4572	547.2748	13814.15	12977.15
820.6016	549.4185	13801.5	12966
820.7459	551.5615	13782.1	12944.95
820.8902	553.704	13797.25	12961.8
821.0346	555.8458	13760.75	12927.35
821.1789	557.987	13738.75	12905.05
821.3233	560.1276	13760.6	12924.8
821.4677	562.2675	13759.5	12926.15
821.6121	564.4069	13772.95	12938.35
821.7565	566.5456	13762.5	12928.4
821.9009	568.6837	13759.95	12923.25
822.0453	570.8212	13670.55	12838.4
822.1897	572.958	13647.95	12812.5
822.3342	575.0942	13593.1	12757.95
822.4786	577.2299	13547.95	12714.45
822.6231	579.3648	13503.75	12669.75
822.7675	581.4992	13427.25	12595.65
822.912	583.6329	13364.4	12536
823.0565	585.766	13384.5	12552.5
823.201	587.8985	13359.85	12526.5
823.3454	590.0304	13363.6	12517.25
823.4899	592.1616	13336.75	12496.5
823.6345	594.2922	13299.2	12455.8
823.779	596.4222	13273.95	12429
823.9235	598.5515	13223.45	12380.7
824.068	600.6802	13176.1	12331.2
824.2126	602.8083	13126.8	12281.55
824.3571	604.9358	13118.5	12273.5
824.5017	607.0626	13079.25	12235.35
824.6462	609.1888	13058.1	12210.9
824.7908	611.3144	13079.4	12232.1
824.9354	613.4393	13057.5	12212.05
825.08	615.5636	13061.45	12214.9
825.2246	617.6873	13053.8	12209
825.3692	619.8103	13050.05	12200.45
825.5138	621.9327	13007.35	12156.05
825.6584	624.0544	13005.05	12160.2
825.803	626.1756	12974.75	12127.1
825.9477	628.2961	12937.55	12088.9
826.0923	630.4159	12925.55	12077.4
826.237	632.5351	12924.6	12073.9
826.3816	634.6537	12915.05	12063.65
826.5263	636.7716	12916.05	12062.55
826.6709	638.8889	12888.05	12033.8
826.8156	641.0056	12894.85	12040.35
826.9603	643.1216	12866.75	12014.05
827.105	645.237	12891.05	12037.6
827.2497	647.3518	12837.8	11986.25
827.3944	649.4659	12829.9	11979
827.5391	651.5793	12825.1	11976.9
827.6838	653.6922	12781.8	11931.8
827.8285	655.8043	12762.1	11910.5
827.9733	657.9159	12754.4	11902.6
828.118	660.0268	12708.55	11851.55
828.2627	662.137	12710.65	11855.95
828.4075	664.2466	12677.35	11820.5
828.5522	666.3556	12683.95	11826.05
828.697	668.4639	12649.95	11790.7
828.8418	670.5716	12620.8	11768.85
828.9865	672.6786	12617	11762
829.1313	674.785	12577.05	11717.75
829.2761	676.8907	12563.4	11704.95
829.4209	678.9958	12560.15	11704.95
829.5657	681.1002	12520.3	11663.45
829.7105	683.204	12496.2	11630.95
829.8553	685.3072	12487.8	11628.35
830.0001	687.4097	12478.1	11618.45
830.1449	689.5115	12439.3	11576.45
830.2898	691.6127	12453.1	11596.35
830.4346	693.7132	12439.7	11582.75
830.5794	695.8131	12464.35	11590.15
830.7243	697.9123	12417.35	11556.8
830.8691	700.0109	12399.7	11534.1
831.014	702.1089	12413.85	11551.8
831.1588	704.2061	12384	11522.1
831.3037	706.3028	12363.95	11498.05
831.4486	708.3987	12387.5	11521.75
831.5935	710.4941	12335.9	11472.25
831.7383	712.5887	12326.55	11464.65
831.8832	714.6827	12335.2	11467.15
832.0281	716.7761	12349.1	11485.7
832.173	718.8688	12331.95	11466.15
832.3179	720.9608	12271.3	11403.55
832.4628	723.0522	12292.35	11418.75
832.6077	725.1429	12314.65	11449.9
832.7527	727.233	12334.9	11469.25
832.8976	729.3224	12320.85	11454.35
833.0425	731.4112	12316.95	11449.55
833.1874	733.4993	12295.55	11425.4
833.3324	735.5867	12278.9	11408.9
833.4773	737.6735	12218.15	11347.5
833.6222	739.7596	12180.9	11311.4
833.7672	741.845	12143.4	11277.6
833.9122	743.9298	12123.05	11254
834.0571	746.014	12100.85	11237.05
834.2021	748.0974	12111.25	11238.45
834.347	750.1802	12078.6	11206.55
834.492	752.2624	12033.3	11163.15
834.637	754.3439	11976.05	11102.8
834.782	756.4247	11948.4	11068.4
834.9269	758.5048	11886.8	11017.35
835.0719	760.5843	11892.8	11019.55
835.2169	762.6631	11856.1	10983.65
835.3619	764.7413	11890.05	11020.95
835.5069	766.8188	11884.45	11009.95
835.6519	768.8956	11868.25	10993.25
835.7969	770.9718	11888.85	11017.35
835.9419	773.0473	11839.65	10969.2
836.0869	775.1221	11790.1	10920.25
836.232	777.1962	11788.3	10917.05
836.377	779.2697	11767	10890.7
836.522	781.3426	11786.7	10894.65
836.667	783.4147	11823.2	10946.25
836.8121	785.4862	11789.1	10916.2
836.9571	787.557	11711.8	10835.65
837.1021	789.6271	11683.2	10807.25
837.2472	791.6966	11579.4	10705.25
837.3922	793.7654	11510.4	10637.1
837.5373	795.8335	11513.7	10639.9
837.6823	797.901	11470.35	10597.6
837.8274	799.9678	11445.7	10569.6
837.9724	802.0339	11426.65	10549.75
838.1175	804.0993	11406.5	10517.85
838.2626	806.1641	11371.7	10495.6
838.4076	808.2282	11358.55	10480.45
838.5527	810.2916	11355.9	10476.8
838.6978	812.3544	11329.9	10455.3
838.8428	814.4164	11301.5	10428.05
838.9879	816.4778	11327.95	10447.85
839.133	818.5385	11278.9	10403.15
839.2781	820.5986	11285.4	10405.75
839.4232	822.658	11278.9	10401.2
839.5682	824.7166	11253.25	10374.75
839.7133	826.7747	11317.25	10440.65
839.8584	828.832	11338.25	10460.2
840.0035	830.8886	11320.5	10442.05
840.1486	832.9446	11292.45	10411.75
840.2937	834.9999	11269.2	10391.45
840.4388	837.0545	11242.85	10361.35
840.5839	839.1085	11219.4	10339.7
840.729	841.1618	11143.6	10259.95
840.8741	843.2143	11134.5	10255.1
841.0192	845.2662	11038.65	10160.5
841.1643	847.3175	11033.6	10153.1
841.3095	849.368	10989.6	10109.15
841.4546	851.4179	11004.45	10125.95
841.5997	853.467	10945.25	10064.5
841.7448	855.5155	10966.55	10086.75
841.8899	857.5633	10937.7	10057.6
842.0351	859.6105	10896.65	10014.85
842.1802	861.6569	10892.9	10010.5
842.3253	863.7027	10876.25	9993.2
842.4704	865.7478	10883.65	10001.6
842.6156	867.7922	10851.45	9967.25
842.7607	869.8359	10824.65	9942.45
842.9058	871.8789	10820.9	9937.8
843.0509	873.9212	10823.55	9909.6
843.1961	875.9629	10740.6	9856.15
843.3412	878.0039	10787.2	9902.45
843.4863	880.0441	10769.2	9888.05
843.6315	882.0837	10745.4	9860.15
843.7766	884.1226	10757.75	9878.55
843.9218	886.1609	10766.3	9884.85
844.0669	888.1984	10776.75	9893
844.212	890.2352	10813.3	9929.85
844.3572	892.2714	10773.85	9887.4
844.5023	894.3069	10760.35	9875.75
844.6475	896.3416	10709.35	9826.3
844.7926	898.3757	10708.3	9823.3
844.9377	900.4091	10657.4	9769.9
845.0829	902.4418	10657.85	9769.15
845.228	904.4739	10610.15	9722.1
845.3732	906.5052	10619.35	9733.35
845.5183	908.5358	10579.85	9693.95
845.6635	910.5658	10602.45	9716.55
845.8086	912.595	10554.25	9666.7
845.9538	914.6236	10544.4	9660.35
846.0989	916.6515	10502.4	9615.55
846.2441	918.6786	10459.85	9572.25
846.3892	920.7051	10444.75	9557.6
846.5344	922.7309	10447.5	9560.35
846.6795	924.756	10406.8	9520.4
846.8246	926.7804	10412.85	9526
846.9698	928.8041	10344.75	9456
847.1149	930.8272	10360.1	9475.9
847.2601	932.8495	10310.1	9421.1
847.4052	934.8711	10311.65	9423.2
847.5504	936.892	10269.95	9381.35
847.6955	938.9123	10240.75	9351.75
847.8407	940.9318	10269.8	9380
847.9858	942.9506	10219.45	9330.6
848.131	944.9688	10166.45	9280.9
848.2761	946.9862	10152.3	9263.6
848.4213	949.003	10092.95	9204.6
848.5664	951.019	10070	9180.2
848.7115	953.0344	10016.7	9128.35
848.8567	955.0491	10022.3	9130.75
849.0018	957.063	10026.7	9136.05
849.147	959.0763	10015.5	9125.2
849.2921	961.0888	9965.15	9074.1
849.4373	963.1007	9961.45	9072.6
849.5824	965.1119	9989.75	9104.95
849.7275	967.1223	9921	9035.45
849.8727	969.1321	9920.25	9034.05
850.0178	971.1412	9921.4	9032.85
850.1629	973.1495	9891.8	9004.2
850.3081	975.1572	9879.4	8959.15
850.4532	977.1641	9844.95	8957.8
850.5983	979.1704	9841	8950.7
850.7435	981.1759	9794.75	8900.35
850.8886	983.1808	9810.75	8921.8
851.0337	985.1849	9774.3	8873.8
851.1788	987.1884	9761.5	8869
851.324	989.1911	9743	8852.85
851.4691	991.1932	9699.85	8805.7
851.6142	993.1945	9688.55	8798.85
851.7593	995.1951	9634.2	8744.55
851.9045	997.1951	9645.7	8749.45
852.0496	999.1943	9596.05	8706
852.1947	1001.1928	9587.85	8696.75
852.3398	1003.1906	9520.2	8629.95
852.4849	1005.1877	9517.9	8626.95
852.63	1007.1841	9489.25	8599.1
852.7751	1009.1798	9453.55	8564.5
852.9202	1011.1748	9433.2	8543.95
853.0653	1013.1691	9405.25	8511.8
853.2104	1015.1627	9373.25	8480.65
853.3555	1017.1556	9299.7	8409.3
853.5006	1019.1477	9266.45	8374.15
853.6457	1021.1392	9218.6	8330.25
853.7908	1023.1299	9178.45	8289.85
853.9359	1025.12	9159.5	8272.55
854.081	1027.1093	9106.15	8224.25
854.2261	1029.0979	9104.1	8221.65
854.3712	1031.0859	9075.7	8190.5
854.5163	1033.0731	9081.55	8194.25
854.6613	1035.0596	9044.8	8158.65
854.8064	1037.0454	8991.65	8101
854.9515	1039.0304	8982.05	8092.45
855.0965	1041.0148	8935.25	8045.55
855.2416	1042.9985	8898.8	8006.65
855.3867	1044.9814	8910.65	8022
855.5317	1046.9636	8842.25	7948.35
855.6768	1048.9452	8810.55	7919.2
855.8219	1050.926	8825.75	7936.45
855.9669	1052.9061	8798.5	7909.4
856.112	1054.8855	8793.65	7900.45
856.257	1056.8642	8785	7891.9
856.4021	1058.8421	8788.05	7895
856.5471	1060.8194	8736.45	7843.7
856.6921	1062.7959	8710.15	7817.7
856.8372	1064.7717	8705.4	7811.5
856.9822	1066.7469	8670.1	7773.35
857.1272	1068.7213	8663.7	7768.75
857.2723	1070.695	8664.8	7773.15
857.4173	1072.6679	8616.15	7723.7
857.5623	1074.6402	8652.45	7757.75
857.7073	1076.6117	8637.8	7738.25
857.8523	1078.5826	8620	7727.1
857.9973	1080.5527	8602.8	7709.15
858.1423	1082.5221	8548.35	7658
858.2873	1084.4908	8506.9	7615.5
858.4323	1086.4587	8481.15	7587.1
858.5773	1088.426	8442.95	7551
858.7223	1090.3925	8432.55	7535.25
858.8673	1092.3584	8424.65	7535.05
859.0123	1094.3235	8403.4	7511.5
859.1573	1096.2879	8393.9	7498.25
859.3022	1098.2515	8378.25	7485.05
859.4472	1100.2145	8385	7494.6
859.5922	1102.1767	8374.7	7479.05
859.7371	1104.1382	8371.15	7479.25
859.8821	1106.099	8380.8	7484.45
860.027	1108.0591	8360.8	7468.9
860.172	1110.0185	8361.85	7467.2
860.3169	1111.9771	8382.5	7491.3
860.4619	1113.9351	8359.2	7468.15
860.6068	1115.8923	8358.05	7466.8
860.7517	1117.8488	8343.35	7448.55
860.8967	1119.8045	8277.8	7386
861.0416	1121.7596	8245.6	7349.7
861.1865	1123.7139	8183.3	7288.95
861.3314	1125.6675	8141.9	7247.55
861.4763	1127.6204	8145.95	7254.3
861.6212	1129.5726	8116.15	7222.15
861.7661	1131.524	8135.5	7241.35
861.911	1133.4748	8119.5	7226.9
862.0559	1135.4248	8039.95	7146.8
862.2008	1137.3741	8027.5	7134.45
862.3457	1139.3226	7982.4	7089
862.4905	1141.2705	8004.3	7108.8
862.6354	1143.2176	7939.95	7042.05
862.7803	1145.164	7957.5	7060.9
862.9251	1147.1097	7959.05	7065.05
863.07	1149.0546	7912.65	7018.4
863.2148	1150.9989	7920.95	7027.2
863.3597	1152.9424	7890.9	6997.4
863.5045	1154.8852	7858.25	6963.75
863.6493	1156.8272	7828	6934.2
863.7942	1158.7686	7850.25	6949.45
863.939	1160.7092	7819.2	6923.05
864.0838	1162.6491	7786.35	6889.55
864.2286	1164.5883	7802.2	6908.15
864.3734	1166.5267	7801.95	6904.35
864.5182	1168.4644	7787.8	6893.7
864.663	1170.4014	7821.3	6922.5
864.8078	1172.3377	7814.2	6921.3
864.9526	1174.2732	7810.55	6916.4
865.0974	1176.2081	7833.5	6939.75
865.2421	1178.1421	7899.45	7001.2
865.3869	1180.0755	7913.35	7018.4
865.5317	1182.0082	7912.45	7018.1
865.6764	1183.9401	7913.4	7020.55
865.8212	1185.8713	7831.25	6940.3
865.9659	1187.8017	7766.1	6876.05
866.1106	1189.7315	7712.15	6824.4
866.2554	1191.6605	7621.8	6733
866.4001	1193.5888	7605.9	6716.05
866.5448	1195.5163	7564.8	6672.1
866.6895	1197.4432	7552.2	6657.3
866.8342	1199.3693	7522.45	6627.7
866.9789	1201.2947	7490.35	6587.85
867.1236	1203.2193	7440.8	6548.6
867.2683	1205.1432	7440.95	6545.95
867.413	1207.0664	7407.85	6514.65
867.5576	1208.9889	7392.9	6496.45
867.7023	1210.9106	7370.1	6474.65
867.847	1212.8316	7350.25	6456.65
867.9916	1214.7519	7351.6	6448.15
868.1363	1216.6715	7311.1	6419.9
868.2809	1218.5903	7303.1	6408.55
868.4255	1220.5084	7294.5	6400.5
868.5701	1222.4257	7312.8	6419.1
868.7148	1224.3424	7274.45	6381.45
868.8594	1226.2583	7295.55	6397.3
869.004	1228.1735	7286.35	6393.85
869.1486	1230.0879	7274.65	6378.55
869.2932	1232.0016	7263.1	6370.4
869.4377	1233.9146	7249.55	6353.4
869.5823	1235.8269	7240.6	6348.7
869.7269	1237.7384	7254.9	6363.1
869.8715	1239.6492	7235.65	6341.2
870.016	1241.5592	7239.15	6344.35
870.1606	1243.4686	7222.9	6329.6
870.3051	1245.3772	7234.7	6339.8
870.4496	1247.285	7265.2	6370.8
870.5941	1249.1922	7291.35	6394.85
870.7387	1251.0986	7303.95	6413.1
870.8832	1253.0042	7307.45	6412.4
871.0277	1254.9092	7336.95	6443.15
871.1722	1256.8134	7354.6	6462.7
871.3167	1258.7169	7350.75	6455.1
871.4611	1260.6196	7374.85	6483.55
871.6056	1262.5216	7387.45	6491.9
871.7501	1264.4229	7340.6	6448.9
871.8945	1266.3234	7323.75	6428.75
872.039	1268.2232	7279.55	6382.1
872.1834	1270.1223	7262.65	6367.85
872.3278	1272.0207	7243.65	6348.6
872.4723	1273.9183	7228.7	6328.85
872.6167	1275.8151	7208.65	6314.05
872.7611	1277.7113	7222.8	6324.45
872.9055	1279.6067	7255.35	6363
873.0499	1281.5014	7282.95	6385.9
873.1943	1283.3953	7342.75	6446.9
873.3386	1285.2885	7406.9	6513
873.483	1287.181	7457.2	6560.5
873.6274	1289.0727	7496.95	6602.5
873.7717	1290.9637	7469.6	6573.4
873.9161	1292.854	7434.75	6541.1
874.0604	1294.7435	7344.5	6449.75
874.2047	1296.6323	7309.75	6413.05
874.349	1298.5204	7264.8	6365.85
874.4933	1300.4077	7232.75	6336.8
874.6376	1302.2943	7193.3	6297.6
874.7819	1304.1802	7194.1	6298.65
874.9262	1306.0653	7138.2	6242.05
875.0705	1307.9497	7120.3	6225.35
875.2147	1309.8333	7108.45	6213.2
875.359	1311.7162	7102.1	6207.15
875.5032	1313.5984	7061.45	6164.5
875.6475	1315.4798	7021.55	6124.3
875.7917	1317.3605	7021.95	6112.1
875.9359	1319.2405	7007.55	6108.65
876.0801	1321.1197	6975.05	6080.05
876.2243	1322.9982	6937.45	6038.9
876.3685	1324.876	6916.25	6020
876.5127	1326.753	6862.05	5968.95
876.6569	1328.6293	6815.35	5919.1
876.801	1330.5048	6802.2	5903.75
876.9452	1332.3796	6738.95	5841.5
877.0893	1334.2537	6732.2	5811
877.2335	1336.127	6707.05	5813.25
877.3776	1337.9996	6662.85	5769.05
877.5217	1339.8714	6639.75	5746.9
877.6658	1341.7426	6651.05	5712.65
877.8099	1343.6129	6617.7	5719.8
877.954	1345.4826	6588.15	5691.45
878.0981	1347.3515	6594.15	5697.4
878.2422	1349.2196	6575.1	5679.1
878.3862	1351.087	6559.1	5663.7
878.5303	1352.9537	6542.45	5644.65
878.6743	1354.8197	6580.85	5684.3
878.8184	1356.6849	6564.8	5668.1
878.9624	1358.5493	6543.9	5649.8
879.1064	1360.4131	6557.45	5662.35
879.2504	1362.276	6564.65	5668.95
879.3944	1364.1383	6538.8	5642.1
879.5384	1365.9998	6546.55	5645.25
879.6823	1367.8606	6523.3	5625
879.8263	1369.7206	6503.55	5608.1
879.9702	1371.5799	6480.15	5582.1
880.1142	1373.4384	6459.4	5565.5
880.2581	1375.2962	6469.35	5571.9
880.402	1377.1533	6410.85	5516.35
880.5459	1379.0096	6362.9	5468.2
880.6898	1380.8652	6330.3	5435.35
880.8337	1382.7201	6313.6	5418
880.9776	1384.5742	6253.4	5357.8
881.1215	1386.4275	6223.85	5326.85
881.2653	1388.2802	6211.8	5317.9
881.4092	1390.132	6185.9	5291.15
881.553	1391.9832	6192.15	5293.75
881.6968	1393.8336	6151.5	5253.15
881.8406	1395.6832	6135.2	5239.9
881.9844	1397.5322	6099.1	5204.45
882.1282	1399.3803	6099.65	5199.8
882.272	1401.2278	6051.8	5156.4
882.4158	1403.0745	6049.3	5155
882.5595	1404.9204	5990.7	5095
882.7033	1406.7656	5995.85	5100.2
882.847	1408.6101	5967.3	5071.2
882.9908	1410.4538	5958.15	5061.7
883.1345	1412.2968	5938.2	5042.15
883.2782	1414.139	5932.55	5038
883.4219	1415.9805	5920.75	5024.85
883.5656	1417.8213	5906.55	5004.85
883.7092	1419.6613	5880.55	4985.95
883.8529	1421.5006	5904.65	5008
883.9965	1423.3391	5900.1	5002.85
884.1402	1425.1769	5898.2	5002.15
884.2838	1427.0139	5932.45	5036.3
884.4274	1428.8502	5959.9	5064.65
884.571	1430.6858	5965.35	5070.95
884.7146	1432.5206	5957.25	5063.25
884.8582	1434.3547	5941.25	5044.85
885.0018	1436.188	5934	5037.35
885.1453	1438.0206	5928.45	5032.15
885.2889	1439.8524	5893.8	4999.8
885.4324	1441.6835	5886	4989.1
885.5759	1443.5139	5881.5	4986.3
885.7194	1445.3435	5857.35	4963.4
885.8629	1447.1724	5860.4	4965.95
886.0064	1449.0005	5846.1	4953.25
886.1499	1450.8279	5834.4	4935.45
886.2933	1452.6545	5830.7	4934.5
886.4368	1454.4804	5830.85	4935.8
886.5802	1456.3056	5812.4	4909.4
886.7237	1458.13	5793.25	4899.4
886.8671	1459.9536	5778.05	4881.95
887.0105	1461.7766	5750.15	4854.15
887.1539	1463.5987	5722.25	4828.25
887.2972	1465.4202	5710.5	4815
887.4406	1467.2409	5662.85	4769
887.584	1469.0608	5651.3	4756.25
887.7273	1470.88	5637.4	4741.9
887.8706	1472.6984	5597.95	4703.6
888.0139	1474.5161	5579	4682.75
888.1572	1476.3331	5558.65	4663.55
888.3005	1478.1493	5562.8	4664.65
888.4438	1479.9648	5539.65	4645.1
888.5871	1481.7795	5513.75	4620.8
888.7303	1483.5935	5512.4	4618.5
888.8736	1485.4067	5492.95	4599.15
889.0168	1487.2192	5500.8	4607.95
889.16	1489.031	5503.55	4609.65
889.3032	1490.842	5465.1	4569.85
889.4464	1492.6522	5479.1	4584.5
889.5896	1494.4618	5458.05	4563.75
889.7327	1496.2705	5439.75	4546.3
889.8759	1498.0785	5438.3	4545.5
890.019	1499.8858	5406.35	4510.9
890.1622	1501.6924	5407.5	4515.3
890.3053	1503.4981	5394.55	4499.3
890.4484	1505.3032	5379.25	4484.25
890.5914	1507.1075	5372.9	4478.35
890.7345	1508.911	5354.95	4462.5
890.8776	1510.7138	5341.3	4448.35
891.0206	1512.5159	5311.1	4418.45
891.1637	1514.3172	5296.1	4403.2
891.3067	1516.1178	5275.35	4382
891.4497	1517.9176	5274.55	4377.25
891.5927	1519.7166	5245	4352.4
891.7357	1521.515	5226.85	4324.65
891.8786	1523.3126	5224.6	4329.35
892.0216	1525.1094	5218.8	4321.35
892.1645	1526.9055	5191.1	4299.2
892.3074	1528.7008	5172.3	4278.2
892.4503	1530.4954	5138.15	4243.25
892.5932	1532.2893	5143	4251.3
892.7361	1534.0824	5109.05	4211.95
892.879	1535.8747	5088.75	4197.5
893.0218	1537.6663	5095.8	4202.7
893.1647	1539.4572	5075.75	4180.6
893.3075	1541.2473	5064.7	4168.9
893.4503	1543.0367	5041.2	4149.45
893.5931	1544.8253	5028.45	4132.35
893.7359	1546.6132	5011.7	4115.4
893.8787	1548.4003	4982.8	4081.7
894.0214	1550.1867	4985.65	4084.6
894.1642	1551.9723	4983.45	4085.4
894.3069	1553.7572	4968.85	4075.1
894.4496	1555.5414	4976.8	4086.7
894.5923	1557.3247	4956.6	4064.4
894.735	1559.1074	4959.6	4071.5
894.8777	1560.8893	4970.7	4080.25
895.0204	1562.6705	4958.4	4067.3
895.163	1564.4509	4959.2	4067.9
895.3056	1566.2305	4948.35	4058.25
895.4482	1568.0094	4958.05	4070.2
895.5908	1569.7876	4943.4	4054.9
895.7334	1571.565	4933.45	4042
895.876	1573.3417	4912.35	4022.7
896.0186	1575.1176	4896.15	4008
896.1611	1576.8928	4888.85	3998.2
896.3036	1578.6672	4877.65	3990.65
896.4461	1580.4409	4871.45	3984.75
896.5886	1582.2138	4868.85	3977.65
896.7311	1583.986	4866	3976.4
896.8736	1585.7575	4883.7	3995.7
897.0161	1587.5282	4887.4	4000.35
897.1585	1589.2981	4898.1	4010.05
897.3009	1591.0673	4903.25	4015.05
897.4433	1592.8358	4893.8	4007.6
897.5857	1594.6035	4872.2	3983.2
897.7281	1596.3704	4860.4	3971.6
897.8705	1598.1366	4822.95	3934.3
898.0128	1599.9021	4809.8	3922.25
898.1551	1601.6668	4781.25	3892.1
898.2975	1603.4308	4775.8	3885.7
898.4398	1605.194	4755.9	3862.1
898.5821	1606.9564	4741	3852.55
898.7243	1608.7182	4752.05	3863.45
898.8666	1610.4791	4791.85	3907.55
899.0088	1612.2394	4797.2	3913.9
899.1511	1613.9988	4827.05	3942.05
899.2933	1615.7576	4866.05	3981.75
899.4355	1617.5156	4887.75	3994.05
899.5776	1619.2728	4836.05	3947.35
899.7198	1621.0293	4809	3921.1
899.862	1622.785	4720.65	3828.3
900.0041	1624.54	4689.05	3799.6
900.1462	1626.2942	4613.75	3725.7
900.2883	1628.0477	4529.15	3637.25
900.4304	1629.8005	4476.65	3587.55
900.5725	1631.5525	4441.8	3555.6
900.7145	1633.3037	4399.7	3512.1
900.8566	1635.0542	4379.8	3493.85
900.9986	1636.804	4342.65	3456.1
901.1406	1638.553	4390.45	3424.4
901.2826	1640.3013	4304.9	3418
901.4245	1642.0488	4282.25	3393.9
901.5665	1643.7955	4261.85	3375.95
901.7085	1645.5416	4223.3	3337.55
901.8504	1647.2868	4218.55	3332.65
901.9923	1649.0313	4208.55	3319.75
902.1342	1650.7751	4202	3310.95
902.2761	1652.5181	4190.25	3303.5
902.4179	1654.2604	4161.1	3275.6
902.5598	1656.0019	4159.55	3275.7
902.7016	1657.7427	4170.75	3282.45
902.8434	1659.4828	4179.25	3290.95
902.9852	1661.222	4174.55	3287.4
903.127	1662.9606	4171.6	3284.9
903.2687	1664.6984	4171.6	3283.6
903.4105	1666.4354	4165.65	3276.3
903.5522	1668.1717	4145	3256.3
903.6939	1669.9072	4103.6	3215.35
903.8356	1671.642	4079.65	3190
903.9773	1673.3761	4042.35	3155.5
904.119	1675.1094	4029.55	3144.3
904.2606	1676.8419	3992.3	3105.6
904.4022	1678.5737	3967.5	3078.4
904.5439	1680.3048	3943.3	3053.95
904.6855	1682.0351	3919.85	3031.85
904.827	1683.7646	3922.75	3032.3
904.9686	1685.4934	3903.4	3016.35
905.1101	1687.2215	3875.65	2988.3
905.2517	1688.9488	3865.25	2978.15
905.3932	1690.6754	3845.3	2958.1
905.5347	1692.4012	3846.4	2960.25
905.6761	1694.1263	3828.3	2940.4
905.8176	1695.8506	3812.55	2925.35
905.9591	1697.5742	3823.95	2939.75
906.1005	1699.297	3793	2907.9
906.2419	1701.0191	3754.1	2871.1
906.3833	1702.7404	3762.45	2875.05
906.5246	1704.461	3754.15	2867.3
906.666	1706.1808	3737.55	2850.7
906.8073	1707.8999	3725.25	2840.15
906.9487	1709.6182	3710.45	2824.65
907.09	1711.3358	3699.3	2814.95
907.2313	1713.0527	3694.8	2813.35
907.3725	1714.7688	3678.1	2787.25
907.5138	1716.4841	3650.65	2763.75
907.655	1718.1987	3664.45	2771.5
907.7962	1719.9126	3649.4	2766.05
907.9374	1721.6257	3641	2752.6
908.0786	1723.338	3638.1	2751.25
908.2198	1725.0496	3625.15	2737.5
908.3609	1726.7605	3615.15	2727.9
908.502	1728.4706	3618.75	2732.95
908.6431	1730.18	3583.85	2696.9
908.7842	1731.8886	3593	2708.75
908.9253	1733.5964	3598.4	2708.35
909.0664	1735.3036	3578.9	2693.25
909.2074	1737.0099	3575.5	2691.8
909.3484	1738.7156	3581.35	2696.35
909.4894	1740.4204	3559.75	2670.7
909.6304	1742.1246	3558.2	2668.65
909.7714	1743.8279	3557.9	2671.15
909.9123	1745.5306	3549.05	2662.95
910.0532	1747.2325	3538.45	2654.3
910.1941	1748.9336	3538.05	2652.15
910.335	1750.634	3529	2640.6
910.4759	1752.3336	3522	2637.35
910.6168	1754.0325	3513.15	2629.75
910.7576	1755.7307	3515.2	2632.1
910.8984	1757.4281	3530.55	2646.1
911.0392	1759.1247	3508.8	2612.55
911.18	1760.8206	3513.6	2622.1
911.3208	1762.5158	3504.65	2614.2
911.4615	1764.2102	3495.1	2611.15
911.6022	1765.9039	3485.1	2599.05
911.7429	1767.5968	3469	2585.4
911.8836	1769.289	3463.4	2579.8
912.0243	1770.9804	3471.45	2583.65
912.1649	1772.6711	3469.05	2582.65
912.3056	1774.361	3464.35	2577.8
912.4462	1776.0502	3453.7	2567.9
912.5868	1777.7386	3441.3	2551.95
912.7274	1779.4263	3441.1	2552.65
912.8679	1781.1132	3427.3	2543.45
913.0084	1782.7994	3415.8	2529.05
913.149	1784.4849	3420.25	2535.15
913.2895	1786.1696	3423.05	2520.2
913.4299	1787.8535	3405.2	2520.85
913.5704	1789.5367	3410.65	2529.95
913.7108	1791.2192	3386.8	2503.6
913.8513	1792.9009	3408.85	2495.35
913.9917	1794.5818	3389.45	2502.55
914.132	1796.2621	3379.05	2493.8
914.2724	1797.9415	3358.95	2472.6
914.4128	1799.6202	3367.8	2483.15
914.5531	1801.2982	3343.75	2460.95
914.6934	1802.9755	3350.6	2461.55
914.8337	1804.6519	3348.65	2462.65
914.9739	1806.3277	3332.6	2448.85
915.1142	1808.0027	3322.1	2440.4
915.2544	1809.6769	3312.25	2429.95
915.3946	1811.3504	3312.15	2427.5
915.5348	1813.0231	3308.65	2426.45
915.675	1814.6951	3295.6	2411.8
915.8151	1816.3664	3297.65	2412.1
915.9553	1818.0369	3288	2402.65
916.0954	1819.7067	3284.35	2398.7
916.2355	1821.3757	3279.3	2392.1
916.3755	1823.044	3268.9	2383.35
916.5156	1824.7115	3281.55	2394.85
916.6556	1826.3783	3266.65	2381.25
916.7956	1828.0443	3266.1	2382.35
916.9356	1829.7096	3249.4	2364.45
917.0756	1831.3741	3229.05	2340.95
917.2155	1833.0379	3236.4	2351.55
917.3555	1834.701	3228.8	2344.7
917.4954	1836.3633	3220.25	2336.35
917.6353	1838.0248	3216.8	2332
917.7751	1839.6856	3201.65	2318.9
917.915	1841.3457	3202.3	2317
918.0548	1843.005	3196.05	2310.45
918.1946	1844.6636	3194.4	2309.8
918.3344	1846.3214	3180.05	2295.8
918.4742	1847.9785	3189.45	2305.35
918.6139	1849.6349	3179	2293.1
918.7537	1851.2904	3194.15	2299.6
918.8934	1852.9453	3172.9	2286.35
919.0331	1854.5994	3166.35	2280.2
919.1727	1856.2528	3167.35	2277
919.3124	1857.9054	3151.75	2267.25
919.452	1859.5572	3124.6	2241.65
919.5916	1861.2083	3144	2257.6
919.7312	1862.8587	3132.65	2247.75
919.8708	1864.5084	3136.85	2250.95
920.0103	1866.1572	3115.45	2230.95
920.1498	1867.8054	3116.75	2231.15
920.2893	1869.4528	3121.05	2234.9
920.4288	1871.0994	3113.5	2228.2
920.5683	1872.7453	3108.85	2221.3
920.7077	1874.3905	3107.05	2214.45
920.8471	1876.0349	3093.8	2205.9
920.9865	1877.6786	3096	2206.6
921.1259	1879.3215	3094.25	2209.25
921.2653	1880.9637	3095.6	2209.6
921.4046	1882.6051	3084.6	2201.45
921.5439	1884.2458	3071.95	2185.8
921.6832	1885.8858	3064.05	2179.1
921.8225	1887.525	3063.45	2179.2
921.9617	1889.1634	3049.55	2164.4
922.101	1890.8011	3046.2	2158.65
922.2402	1892.4381	3052.85	2167.95
922.3794	1894.0743	3045.35	2158.75
922.5185	1895.7098	3027.95	2144.55
922.6577	1897.3446	3022.15	2134.75
922.7968	1898.9786	3017.5	2127.95
922.9359	1900.6118	3015.7	2130.6
923.075	1902.2443	2996.15	2107.65
923.214	1903.8761	3002.8	2118.45
923.3531	1905.5071	2993.05	2107.2
923.4921	1907.1374	2977.25	2090.25
923.6311	1908.7669	2984.45	2099.05
923.77	1910.3957	2977.15	2092.85
923.909	1912.0237	2960.2	2076.5
924.0479	1913.651	2970.55	2086.4
924.1868	1915.2776	2950.05	2064.2
924.3257	1916.9034	2945.95	2061.8
924.4646	1918.5285	2948.45	2065.05
924.6034	1920.1528	2930.8	2045.4
924.7422	1921.7764	2928.55	2044.35
924.881	1923.3992	2921.9	2037.55
925.0198	1925.0213	2911.7	2025.65
925.1586	1926.6427	2897.75	2013
925.2973	1928.2633	3106.1	1972.9
925.436	1929.8832	2927.3	2037.55
925.5747	1931.5023	2891.85	2005.15
925.7134	1933.1207	2880.8	1994.85
925.852	1934.7383	2884.4	1997.35
925.9906	1936.3552	2884.55	2001.8
926.1292	1937.9714	2857.45	1972.45
926.2678	1939.5868	2859.65	1971.35
926.4064	1941.2015	2851.25	1964.8
926.5449	1942.8154	2844.25	1958.25
926.6834	1944.4286	2831.55	1945.5
926.8219	1946.041	2847.45	1941.2
926.9604	1947.6528	2830.05	1938.8
927.0988	1949.2637	2817.4	1933.25
927.2372	1950.8739	2809.05	1923
927.3756	1952.4834	2807.25	1922.2
927.514	1954.0921	2797.35	1913.2
927.6523	1955.7001	2791.45	1902.15
927.7907	1957.3074	2789.75	1907.4
927.929	1958.9139	2779.9	1896.6
928.0673	1960.5197	2779.15	1895.1
928.2055	1962.1247	2765.35	1881.65
928.3438	1963.729	2765.05	1881.5
928.482	1965.3325	2769.35	1863.75
928.6202	1966.9353	2743.5	1861.5
928.7584	1968.5374	2743.15	1859.9
928.8965	1970.1387	2739.2	1856.65
929.0346	1971.7393	2743.4	1858
929.1727	1973.3392	2741.2	1857.1
929.3108	1974.9383	2730.65	1847.5
929.4489	1976.5366	2722.4	1840.95
929.5869	1978.1342	2718.25	1835.9
929.7249	1979.7311	2716.2	1832.3
929.8629	1981.3273	2709.35	1827.25
930.0009	1982.9227	2702.65	1820.85
930.1388	1984.5173	2696.3	1814.25
930.2767	1986.1112	2694.05	1812.4
930.4146	1987.7044	2697.5	1815.35
930.5525	1989.2968	2688.5	1804.8
930.6904	1990.8885	2679.55	1793.6
930.8282	1992.4795	2675.75	1790.7
930.966	1994.0697	2667.3	1784.15
931.1038	1995.6592	2677.8	1795.85
931.2415	1997.2479	2656.2	1774.6
931.3793	1998.8359	2661.75	1778.6
931.517	2000.4232	2657.05	1776.65
931.6547	2002.0097	2655.95	1775.9
931.7923	2003.5955	2639.65	1757
931.93	2005.1805	2648.9	1766.05
932.0676	2006.7648	2637.95	1757.25
932.2052	2008.3484	2635.15	1753.7
932.3427	2009.9312	2632.4	1747.85
932.4803	2011.5133	2625.45	1746.1
932.6178	2013.0946	2625.25	1743.7
932.7553	2014.6752	2626	1744.85
932.8928	2016.2551	2607.25	1723.8
933.0302	2017.8342	2605.4	1726
933.1676	2019.4126	2605.8	1726.5
933.305	2020.9902	2599.65	1720.15
933.4424	2022.5672	2584.2	1703.7
933.5798	2024.1433	2602.75	1717.95
933.7171	2025.7188	2588.05	1708.95
933.8544	2027.2935	2582.45	1700.15
933.9917	2028.8674	2570.55	1690.4
934.129	2030.4406	2576.9	1697.85
934.2662	2032.0131	2563.5	1684.25
934.4034	2033.5849	2560.35	1676.7
934.5406	2035.1559	2550.55	1672
934.6778	2036.7261	2553.75	1674.35
934.8149	2038.2957	2559.8	1679
934.952	2039.8645	2554.7	1674.9
935.0891	2041.4325	2556.35	1673.6
935.2262	2042.9998	2552.7	1673.55
935.3632	2044.5664	2550.25	1667.7
935.5002	2046.1323	2540.55	1660.3
935.6372	2047.6974	2537.45	1654.85
935.7742	2049.2617	2532.55	1651.8
935.9111	2050.8254	2530.2	1643.6
936.048	2052.3883	2527.25	1646.4
936.1849	2053.9504	2535.1	1653
936.3218	2055.5118	2525.8	1644.3
936.4586	2057.0725	2522.9	1636.5
936.5955	2058.6325	2529.1	1648.45
936.7323	2060.1917	2522.55	1642.5
936.869	2061.7502	2514.45	1632.6
937.0058	2063.3079	2504.45	1625.15
937.1425	2064.8649	2496.1	1614.4
937.2792	2066.4212	2494.1	1611.2
937.4159	2067.9767	2490.95	1612.5
937.5525	2069.5315	2484.6	1605.1
937.6891	2071.0856	2483.25	1601.35
937.8257	2072.6389	2482.95	1604
937.9623	2074.1915	2470.25	1591.6
938.0989	2075.7433	2475	1593.05
938.2354	2077.2945	2477.4	1599.5
938.3719	2078.8448	2461.65	1581.4
938.5084	2080.3945	2454.65	1572.4
938.6448	2081.9434	2467.25	1587.35
938.7812	2083.4916	2451.05	1569.1
938.9176	2085.039	2448.3	1564.85
939.054	2086.5857	2456.75	1572.35
939.1903	2088.1317	2454.05	1570.15
939.3267	2089.677	2452	1568.6
939.463	2091.2215	2432.15	1548.05
939.5992	2092.7652	2438.05	1553
939.7355	2094.3083	2447.25	1563.05
939.8717	2095.8506	2439.2	1557.7
940.0079	2097.3921	2437.3	1556.8
940.1441	2098.933	2428.25	1544.65
940.2802	2100.4731	2420.5	1539.15
940.4163	2102.0124	2445.15	1544.5
940.5524	2103.5511	2429.8	1548.35
940.6885	2105.089	2429.45	1547.5
940.8245	2106.6261	2410.15	1528.9
940.9606	2108.1626	2415.45	1533
941.0965	2109.6983	2440.75	1530.7
941.2325	2111.2332	2413.75	1531.05
941.3684	2112.7675	2408.4	1524.65
941.5044	2114.301	2407	1523.85
941.6403	2115.8337	2412.7	1529.5
941.7761	2117.3657	2396.95	1514.4
941.912	2118.897	2388.15	1504.8
942.0478	2120.4276	2406.35	1519.95
942.1835	2121.9575	2387.85	1505.15
942.3193	2123.4866	2409.9	1514.95
942.455	2125.0149	2389.2	1505.75
942.5907	2126.5426	2385.6	1501.45
942.7264	2128.0695	2385.85	1501.35
942.8621	2129.5956	2370.1	1490.2
942.9977	2131.1211	2373.3	1486.7
943.1333	2132.6458	2365.7	1485.9
943.2689	2134.1698	2369.45	1487.55
943.4044	2135.693	2369.35	1485.2
943.54	2137.2155	2372.75	1489.75
943.6755	2138.7373	2361.8	1479.5
943.8109	2140.2584	2347.4	1466
943.9464	2141.7787	2351.9	1462.75
944.0818	2143.2983	2343.75	1463.95
944.2172	2144.8171	2336.75	1457.2
944.3526	2146.3353	2342	1458.9
944.4879	2147.8527	2333.9	1453.15
944.6232	2149.3693	2340.15	1459
944.7585	2150.8853	2335.35	1452.35
944.8938	2152.4005	2316.1	1433.4
945.029	2153.9149	2321.9	1438.5
945.1642	2155.4287	2315.55	1435.1
945.2994	2156.9417	2311.3	1429.2
945.4346	2158.454	2306.25	1422.8
945.5697	2159.9655	2297.45	1414.95
945.7048	2161.4764	2305.25	1423.75
945.8399	2162.9865	2303.75	1422.2
945.9749	2164.4958	2301.15	1420.9
946.1099	2166.0045	2290.4	1405.75
946.2449	2167.5124	2287.65	1407.4
946.3799	2169.0195	2294.85	1413.95
946.5148	2170.526	2286.4	1407.4
946.6498	2172.0317	2282.25	1402.2
946.7846	2173.5367	2273.45	1389.35
946.9195	2175.0409	2279.45	1398.5
947.0543	2176.5445	2273.2	1391.5
947.1891	2178.0473	2269.95	1386.8
947.3239	2179.5494	2267.55	1379.6
947.4587	2181.0507	2266.05	1383.4
947.5934	2182.5513	2260.7	1379.85
947.7281	2184.0512	2251.7	1369.4
947.8628	2185.5504	2248.25	1366.15
947.9974	2187.0488	2233.05	1350.7
948.132	2188.5465	2227.15	1345.75
948.2666	2190.0435	2237.4	1355.95
948.4012	2191.5397	2233.55	1352.75
948.5357	2193.0353	2221.9	1340.9
948.6702	2194.5301	2229.95	1345.75
948.8047	2196.0241	2218.35	1336.85
948.9392	2197.5175	2215.5	1331.55
949.0736	2199.0101	2218.75	1332.35
949.208	2200.502	2200.6	1318.4
949.3424	2201.9931	2188.6	1307.2
949.4767	2203.4835	2196.3	1314.4
949.611	2204.9733	2210.2	1324
949.7453	2206.4622	2186.45	1304.85
949.8796	2207.9505	2187.85	1306.1
950.0138	2209.438	2177.55	1296.55
950.148	2210.9248	2176.8	1295
950.2822	2212.4109	2165.8	1283.8
950.4164	2213.8962	2166.65	1281.6
950.5505	2215.3809	2168.5	1285.1
950.6846	2216.8648	2170.95	1286.8
950.8186	2218.3479	2161.6	1275.5
950.9527	2219.8304	2161.95	1277.25
951.0867	2221.3121	2153	1266.25
951.2207	2222.7931	2144.45	1261.6
951.3546	2224.2733	2147.55	1265.75
951.4886	2225.7529	2140.6	1259
951.6225	2227.2317	2138.6	1253.1
951.7563	2228.7098	2139.15	1259.85
951.8902	2230.1872	2128.3	1246.7
952.024	2231.6638	2130.7	1250.25
952.1578	2233.1397	2125.05	1238
952.2916	2234.6149	2117.3	1237.05
952.4253	2236.0894	2117.05	1235.75
952.559	2237.5632	2115.6	1223.3
952.6927	2239.0362	2099.65	1218.65
952.8263	2240.5085	2095.8	1213.65
952.9599	2241.9801	2091.65	1208.35
953.0935	2243.4509	2090.55	1208.7
953.2271	2244.921	2090.75	1208.95
953.3606	2246.3904	2082.6	1197.35
953.4941	2247.8591	2076.8	1193.7
953.6276	2249.3271	2089	1206.85
953.7611	2250.7943	2072.75	1189.3
953.8945	2252.2608	2073.65	1190.7
954.0279	2253.7266	2073.55	1192.05
954.1612	2255.1917	2061.5	1180.65
954.2946	2256.656	2060.8	1176.25
954.4279	2258.1197	2055.4	1174.6
954.5612	2259.5826	2055.75	1170.5
954.6944	2261.0447	2050.9	1168.4
954.8276	2262.5062	2036.9	1152.75
954.9608	2263.9669	2041.2	1158.45
955.094	2265.4269	2038.55	1155.7
955.2271	2266.8862	2041	1158.9
955.3602	2268.3448	2040.2	1155.95
955.4933	2269.8026	2022.8	1139.8
955.6264	2271.2598	2026.7	1146.6
955.7594	2272.7162	2025.2	1143.8
955.8924	2274.1719	2029.35	1145.75
956.0253	2275.6268	2019.3	1135.15
956.1583	2277.0811	2015.15	1131.9
956.2912	2278.5346	2015.95	1134.5
956.4241	2279.9874	2014.25	1133.6
956.5569	2281.4395	2007.75	1127.4
956.6897	2282.8908	1998.15	1110.5
956.8225	2284.3414	2007.1	1123.75
956.9553	2285.7914	1993.9	1113.4
957.088	2287.2406	1996.95	1111.9
957.2207	2288.689	1993.9	1111.15
957.3534	2290.1368	1994.8	1110.5
957.486	2291.5838	1982.5	1098.05
957.6186	2293.0302	1981.7	1099.3
957.7512	2294.4758	1981.65	1098.7
957.8838	2295.9206	1974.1	1088.65
958.0163	2297.3648	1973.65	1091.7
958.1488	2298.8082	1972.05	1089.1
958.2813	2300.251	1964.75	1084.35
958.4137	2301.693	1968.8	1084.05
958.5461	2303.1343	1962.7	1078.85
958.6785	2304.5748	1952.95	1068.8
958.8108	2306.0147	1955	1072.4
958.9432	2307.4538	1940.4	1054.7
959.0754	2308.8922	1945.25	1063.6
959.2077	2310.3299	1937.6	1054.95
959.3399	2311.7669	1938.45	1058.5
959.4721	2313.2031	1939.25	1058.85
959.6043	2314.6387	1930.65	1046.85
959.7365	2316.0735	1927.7	1046.65
959.8686	2317.5076	1927.4	1043.7
960.0006	2318.941	1929	1047.85
960.1327	2320.3737	1917.7	1033.95
960.2647	2321.8056	1919.4	1035.45
960.3967	2323.2369	1916.4	1032.8
960.5287	2324.6674	1918.3	1032.25
960.6606	2326.0972	1916.6	1030.6
960.7925	2327.5263	1910.65	1028.4
960.9244	2328.9547	1904.15	1020.55
961.0562	2330.3823	1898.35	1015.1
961.1881	2331.8092	1896.75	1008.4
961.3198	2333.2355	1892.25	1009.2
961.4516	2334.661	1881.25	999.5
961.5833	2336.0858	1891.55	1004.9
961.715	2337.5098	1879.3	996.7
961.8467	2338.9332	1878.15	993.85
961.9783	2340.3558	1879.8	993.6
962.1099	2341.7778	1879.2	996.55
962.2415	2343.199	1873.4	988.2
962.373	2344.6195	1867.7	985.7
962.5045	2346.0393	1859.75	976
962.636	2347.4583	1858.6	975.4
962.7675	2348.8767	1861.9	977.55
962.8989	2350.2943	1855.75	969.35
963.0303	2351.7113	1853.1	966.7
963.1617	2353.1275	1838.9	952.9
963.293	2354.543	1853.55	961.4
963.4243	2355.9578	1846.05	962.35
963.5556	2357.3718	1835	951
963.6868	2358.7852	1834	949.7
963.818	2360.1978	1817.1	932.85
963.9492	2361.6098	1827.1	945.9
964.0803	2363.021	1825.2	938.35
964.2114	2364.4315	1816	931.45
964.3425	2365.8413	1818.25	934.15
964.4736	2367.2504	1812.8	929.45
964.6046	2368.6587	1802.8	920.55
964.7356	2370.0664	1800.15	918.1
964.8666	2371.4733	1801.95	920.3
964.9975	2372.8795	1797.25	914.85
965.1284	2374.285	1787.3	903.1
965.2593	2375.6899	1785.6	902.8
965.3901	2377.0939	1787.3	903.65
965.5209	2378.4973	1774.8	892.35
965.6517	2379.9	1770.3	886.4
965.7825	2381.3019	1771.7	887.2
965.9132	2382.7032	1766.6	885.6
966.0439	2384.1037	1756.05	876
966.1745	2385.5035	1765.45	883.3
966.3051	2386.9027	1753.3	872.95
966.4357	2388.3011	1763.75	879.55
966.5663	2389.6987	1756.25	872.4
966.6968	2391.0957	1750.1	868.35
966.8273	2392.492	1745.1	862.8
966.9578	2393.8876	1729.2	845.85
967.0882	2395.2824	1741.05	857.5
967.2186	2396.6765	1728.05	845.45
967.349	2398.07	1722.7	835.95
967.4793	2399.4627	1725.7	839.9
967.6097	2400.8547	1721.35	835.8
967.7399	2402.246	1722.3	829.4
967.8702	2403.6366	1718.55	833.05
968.0004	2405.0265	1707.3	824.25
968.1306	2406.4156	1706.3	819.55
968.2607	2407.8041	1694.4	806.7
968.3909	2409.1918	1697.9	811.8
968.521	2410.5789	1700.95	817.2
968.651	2411.9652	1689.95	802.4
968.781	2413.3508	1688.3	804.25
968.911	2414.7358	1688.55	801.65
969.041	2416.12	1681.6	798.1
969.1709	2417.5035	1685.2	799.7
969.3008	2418.8863	1683	797.6
969.4307	2420.2684	1671.15	786.5
969.5606	2421.6497	1669.45	784
969.6904	2423.0304	1666.75	782.2
969.8201	2424.4104	1668.35	784.85
969.9499	2425.7896	1659.1	772.2
970.0796	2427.1682	1651	766.65
970.2093	2428.546	1653.5	768.05
970.3389	2429.9232	1664.4	778.35
970.4685	2431.2996	1651.85	767.3
970.5981	2432.6753	1646.75	764.3
970.7277	2434.0503	1651.05	766.1
970.8572	2435.4246	1643.7	760.3
970.9867	2436.7982	1646.45	759.65
971.1161	2438.1711	1637	753.35
971.2456	2439.5433	1633.5	749
971.375	2440.9148	1639.7	749.3
971.5043	2442.2856	1627.3	741.7
971.6336	2443.6557	1624	736.65
971.7629	2445.025	1635.1	752.25
971.8922	2446.3937	1625.9	742
972.0214	2447.7617	1622.75	737.4
972.1506	2449.1289	1624.55	737.45
972.2798	2450.4955	1614.05	725.7
972.4089	2451.8613	1624.05	742.25
972.538	2453.2265	1612.8	727.7
972.6671	2454.5909	1617.15	733.7
972.7961	2455.9546	1609.7	724.75
972.9251	2457.3177	1605	720.55
973.0541	2458.68	1610.85	725.2
973.1831	2460.0416	1603.5	719.55
973.312	2461.4025	1600.1	715.7
973.4408	2462.7627	1602.45	708.8
973.5697	2464.1222	1598	715
973.6985	2465.4811	1595.05	711.4
973.8273	2466.8392	1591.6	706.95
973.956	2468.1966	1590.5	704.6
974.0847	2469.5533	1590.75	704.45
974.2134	2470.9093	1583.9	700.3
974.3421	2472.2645	1581	695.25
974.4707	2473.6191	1582.6	699.15
974.5993	2474.973	1577	693.55
974.7278	2476.3262	1579.8	693
974.8563	2477.6787	1570.1	687.2
974.9848	2479.0305	1572.85	690
975.1132	2480.3816	1571.9	683.25
975.2417	2481.7319	1569	684.8
975.37	2483.0816	1574.15	687.65
975.4984	2484.4306	1563.35	678.75
975.6267	2485.7789	1560.4	679.05
975.755	2487.1264	1556.55	672
975.8833	2488.4733	1552.6	670.3
976.0115	2489.8195	1557.3	669.55
976.1397	2491.165	1546.75	660.2
976.2678	2492.5097	1542.05	656.5
976.3959	2493.8538	1539.85	656.6
976.524	2495.1972	1534.85	650.5
976.6521	2496.5398	1541.6	656.1
976.7801	2497.8818	1534	648.75
976.9081	2499.2231	1536.95	653.05
977.036	2500.5637	1532.45	645.25
977.164	2501.9035	1531.3	646.05
977.2918	2503.2427	1529.05	643.1
977.4197	2504.5812	1522.8	639.25
977.5475	2505.919	1520.7	632.65
977.6753	2507.256	1516.4	631.1
977.8031	2508.5924	1522.1	637.4
977.9308	2509.9281	1523.2	633.2
978.0585	2511.2631	1513	631.3
978.1861	2512.5974	1513.25	630.7
978.3137	2513.9309	1507.5	623
978.4413	2515.2638	1528.1	615.8
978.5689	2516.596	1500.8	618.4
978.6964	2517.9275	1501.15	615.65
978.8239	2519.2583	1495.05	610.45
978.9513	2520.5884	1500.55	615.35
979.0788	2521.9178	1491.8	607.7
979.2062	2523.2465	1495.85	614.65
979.3335	2524.5745	1487.15	603.1
979.4608	2525.9018	1487.65	607.1
979.5881	2527.2284	1483.4	602.65
979.7154	2528.5543	1478.5	595.5
979.8426	2529.8796	1475.5	591.85
979.9698	2531.2041	1470.05	585.05
980.0969	2532.5279	1477	593.85
980.224	2533.851	1474.6	589.95
980.3511	2535.1735	1477.4	594.6
980.4781	2536.4952	1464.25	578.2
980.6052	2537.8163	1469.3	584.75
980.7321	2539.1366	1465.2	582.3
980.8591	2540.4562	1461.95	577.7
980.986	2541.7752	1465.65	582.2
981.1129	2543.0935	1467.8	583.6
981.2397	2544.411	1463.45	577.95
981.3665	2545.7279	1462.35	578.95
981.4933	2547.0441	1460.5	576.25
981.62	2548.3596	1469.7	582.55
981.7467	2549.6744	1451.6	568.5
981.8734	2550.9885	1459.15	568.05
982.0001	2552.3019	1443.4	561.45
982.1267	2553.6146	1451.3	565.4
982.2532	2554.9266	1452.7	568.7
982.3798	2556.2379	1444.6	560.4
982.5063	2557.5485	1442.9	559.5
982.6327	2558.8585	1447.4	559.25
982.7592	2560.1677	1451.75	564.65
982.8856	2561.4762	1444.75	560.65
983.0119	2562.7841	1439.8	554.3
983.1383	2564.0913	1436	553.5
983.2646	2565.3977	1435.75	553.6
983.3908	2566.7035	1432.55	548.85
983.517	2568.0086	1436.55	550.45
983.6432	2569.313	1439.15	555.2
983.7694	2570.6167	1437.15	550
983.8955	2571.9197	1425.55	542.45
984.0216	2573.222	1429.35	542.15
984.1476	2574.5236	1426.95	544.85
984.2737	2575.8246	1425.1	540.8
984.3996	2577.1248	1426.5	541
984.5256	2578.4244	1421.8	539
984.6515	2579.7232	1427.6	543.5
984.7774	2581.0214	1447.05	535.3
984.9032	2582.3189	1420.25	537.6
985.029	2583.6157	1417.1	528
985.1548	2584.9118	1414.15	528.65
985.2806	2586.2072	1410	525
985.4063	2587.5019	1410.55	525.1
985.5319	2588.7959	1407.65	522.6
985.6576	2590.0893	1405.7	519.35
985.7832	2591.3819	1410.65	528.9
985.9087	2592.6739	1399.2	515.55
986.0343	2593.9652	1401.5	518.7
986.1597	2595.2557	1400.05	519.15
986.2852	2596.5456	1392.6	508.55
986.4106	2597.8348	1389.5	506.8
986.536	2599.1234	1389.05	505
986.6614	2600.4112	1381.1	497.75
986.7867	2601.6983	1403.8	517.75
986.912	2602.9848	1386.15	502.55
987.0372	2604.2705	1390.25	500.55
987.1624	2605.5556	1381.6	499.05
987.2876	2606.84	1376.75	493.2
987.4128	2608.1237	1381	497.3
987.5379	2609.4067	1369	485.65
987.6629	2610.689	1378.4	486.75
987.788	2611.9707	1375.9	491.8
987.913	2613.2516	1370.9	481.9
988.0379	2614.5319	1364.3	482
988.1629	2615.8115	1360.95	475.25
988.2878	2617.0903	1356.75	470.55
988.4126	2618.3685	1357.8	474.65
988.5375	2619.6461	1353.15	469.9
988.6622	2620.9229	1355.05	472.75
988.787	2622.199	1354.7	469.35
988.9117	2623.4745	1352.95	468.3
989.0364	2624.7493	1343.35	459.85
989.161	2626.0234	1348.05	464.5
989.2857	2627.2968	1337.9	456.1
989.4102	2628.5695	1340	455.75
989.5348	2629.8415	1335.55	453
989.6593	2631.1128	1339	452.95
989.7837	2632.3835	1332.5	448.1
989.9082	2633.6535	1332.4	449.35
990.0326	2634.9228	1330.75	446.2
990.1569	2636.1914	1329.1	445.2
990.2812	2637.4593	1337.95	450
990.4055	2638.7265	1334.35	448.95
990.5298	2639.9931	1318.05	434.5
990.654	2641.259	1326.55	441.55
990.7782	2642.5242	1322.55	438.15
990.9023	2643.7887	1320.25	437
991.0264	2645.0525	1321.05	437.95
991.1505	2646.3156	1317.1	431.75
991.2745	2647.5781	1314.85	429.9
991.3985	2648.8398	1314.6	432.2
991.5225	2650.1009	1320.35	430.4
991.6464	2651.3613	1308.05	423.95
991.7703	2652.6211	1306.75	423.35
991.8942	2653.8801	1303.5	421.05
992.018	2655.1385	1309.95	422.95
992.1418	2656.3961	1302.2	419.75
992.2655	2657.6531	1305.85	420.45
992.3892	2658.9094	1299.45	415.05
992.5129	2660.1651	1297.35	413.25
992.6366	2661.42	1304.8	420.55
992.7602	2662.6743	1301.05	416.3
992.8837	2663.9279	1299.05	416
993.0073	2665.1808	1292.95	408.7
993.1307	2666.433	1296.75	412.35
993.2542	2667.6846	1296	414.6
993.3776	2668.9354	1295.4	408.35
993.501	2670.1856	1293.1	410.45
993.6244	2671.4351	1289.7	407.15
993.7477	2672.6839	1284.05	401.1
993.8709	2673.9321	1285.25	402.85
993.9942	2675.1795	1289.35	407.6
994.1174	2676.4263	1284.6	403.8
994.2405	2677.6724	1280.65	398.6
994.3637	2678.9179	1273.1	387.35
994.4868	2680.1626	1277	395.55
994.6098	2681.4067	1278.65	396.95
994.7328	2682.6501	1278.55	393.9
994.8558	2683.8928	1271.35	387.9
994.9788	2685.1348	1261.75	379
995.1017	2686.3761	1268.15	383.45
995.2245	2687.6168	1271.1	388.45
995.3474	2688.8568	1265.8	383.65
995.4702	2690.0961	1258.8	377
995.5929	2691.3348	1262.55	381.05
995.7156	2692.5727	1265.15	380.15
995.8383	2693.81	1259.7	378.2
995.961	2695.0466	1255	372.95
996.0836	2696.2826	1253.05	368.75
996.2062	2697.5178	1263.4	376.45
996.3287	2698.7524	1253.9	369.7
996.4512	2699.9863	1253	368.25
996.5737	2701.2195	1253.6	371.5
996.6961	2702.452	1249.15	363.35
996.8185	2703.6839	1249.85	367.1
996.9408	2704.9151	1246.45	364.1
997.0631	2706.1456	1247.5	366.65
997.1854	2707.3755	1245.15	359.2
997.3077	2708.6046	1242.95	357.8
997.4299	2709.8331	1250.85	367.9
997.552	2711.0609	1244.4	361.3
997.6742	2712.2881	1237.85	353
997.7963	2713.5145	1242.5	356.85
997.9183	2714.7403	1241.4	358.45
998.0403	2715.9654	1241.35	356.9
998.1623	2717.1899	1247.65	352.45
998.2842	2718.4136	1239.15	357.15
998.4062	2719.6367	1235.4	355.15
998.528	2720.8591	1233.6	343.45
998.6498	2722.0809	1232.55	350.2
998.7716	2723.3019	1229.85	342.75
998.8934	2724.5223	1226.75	343.2
999.0151	2725.7421	1230.1	344.75
999.1368	2726.9611	1228.85	341.5
999.2584	2728.1795	1228	342.5
999.38	2729.3972	1222.2	339.35
999.5016	2730.6142	1235.85	338.4
999.6231	2731.8306	1213.95	330.25
999.7446	2733.0462	1219.8	335.15
999.8661	2734.2612	1222	335
999.9875	2735.4756	1216.3	332.9
1000.1089	2736.6892	1212.35	327.35
1000.2302	2737.9022	1205.55	324.3
1000.3515	2739.1145	1206.8	322.6
1000.4728	2740.3262	1210.65	320.6
1000.594	2741.5372	1205.25	323
1000.7152	2742.7475	1203.6	321.35
1000.8363	2743.9571	1202.2	317.6
1000.9575	2745.1661	1201.5	314.75
1001.0785	2746.3744	1195	313.7
1001.1996	2747.582	1192.9	312.7
1001.3206	2748.7889	1195.8	311.5
1001.4415	2749.9952	1193.6	312.8
1001.5625	2751.2008	1189.55	306
1001.6833	2752.4057	1193.85	309.7
1001.8042	2753.61	1187.65	304.15
1001.925	2754.8136	1192.65	307
1002.0458	2756.0165	1185.1	303.1
1002.1665	2757.2188	1186.5	303.9
1002.2872	2758.4204	1188.5	307.95
1002.4078	2759.6213	1185.95	301.85
1002.5285	2760.8215	1181.05	294.65
1002.649	2762.0211	1184.75	300.7
1002.7696	2763.22	1182.25	295.4
1002.8901	2764.4182	1176.7	292.25
1003.0106	2765.6158	1178.1	295.75
1003.131	2766.8127	1177	293.35
1003.2514	2768.009	1178.9	296.8
1003.3717	2769.2045	1177.45	294.65
1003.492	2770.3994	1172.4	287.6
1003.6123	2771.5936	1169.55	288.6
1003.7325	2772.7872	1164.55	283.7
1003.8527	2773.9801	1169.95	286.2
1003.9729	2775.1723	1183.75	286.55
1004.093	2776.3639	1167.5	286.05
1004.2131	2777.5548	1162.5	279.15
1004.3331	2778.745	1163.95	279.4
1004.4531	2779.9346	1157.15	276.75
1004.5731	2781.1235	1161.2	276.4
1004.693	2782.3117	1158.75	278.75
1004.8129	2783.4992	1156.65	275.7
1004.9328	2784.6861	1158.25	277
1005.0526	2785.8723	1156.05	273.9
1005.1723	2787.0579	1160.1	276.45
1005.2921	2788.2428	1149.15	266.2
1005.4118	2789.427	1159.6	281.75
1005.5314	2790.6106	1156.4	273.1
1005.651	2791.7935	1149.1	266.9
1005.7706	2792.9757	1151.95	271.85
1005.8902	2794.1573	1147.55	262.75
1006.0097	2795.3382	1146.85	264.9
1006.1291	2796.5184	1141.85	260.85
1006.2485	2797.698	1146.8	262.4
1006.3679	2798.8769	1143.6	263.8
1006.4873	2800.0551	1149.85	269.6
1006.6066	2801.2327	1142.75	259.3
1006.7258	2802.4096	1140.4	258.6
1006.8451	2803.5859	1139.35	255.95
1006.9642	2804.7615	1139.05	257.4
1007.0834	2805.9364	1135.9	254
1007.2025	2807.1106	1137.3	255.7
1007.3216	2808.2842	1136.85	252.25
1007.4406	2809.4572	1139.5	259.35
1007.5596	2810.6294	1136.35	256.1
1007.6785	2811.801	1130.9	251.1
1007.7975	2812.972	1132.85	251.3
1007.9163	2814.1423	1136.95	256.6
1008.0352	2815.3119	1137.3	254
1008.154	2816.4808	1136.45	257.2
1008.2727	2817.6491	1136.2	252.15
1008.3914	2818.8167	1136.6	257.25
1008.5101	2819.9837	1140.45	254.2
1008.6288	2821.15	1149.75	268.3
1008.7474	2822.3157	1142.8	263.8
1008.8659	2823.4807	1142.85	258.3
1008.9844	2824.645	1150.45	268.05
1009.1029	2825.8086	1150.05	267.8
1009.2214	2826.9716	1155.2	272.75
1009.3398	2828.134	1159.9	281
1009.4581	2829.2957	1161.35	279.4
1009.5764	2830.4567	1164.35	286
1009.6947	2831.617	1167.85	284.6
1009.813	2832.7767	1165.25	283.5
1009.9312	2833.9358	1163.8	284.65
1010.0493	2835.0941	1163.35	278.95
1010.1675	2836.2519	1167.25	284.5
1010.2855	2837.4089	1164.3	281.25
1010.4036	2838.5653	1149.65	269.2
1010.5216	2839.7211	1151.05	270.5
1010.6396	2840.8761	1149.75	269.25
1010.7575	2842.0306	1149.8	268.75
1010.8754	2843.1843	1144.3	263.9
1010.9932	2844.3374	1147.7	265.6
1011.111	2845.4899	1149.65	267.45
1011.2288	2846.6417	1150.75	268.05
1011.3465	2847.7928	1145.85	264.95
1011.4642	2848.9433	1150.25	267.15
1011.5818	2850.0931	1148.7	266.5
1011.6995	2851.2422	1156.5	273.15
1011.817	2852.3907	1151.6	267.5
1011.9345	2853.5385	1154.1	271.65
1012.052	2854.6857	1160.7	269.2
1012.1695	2855.8323	1148.8	268.15
1012.2869	2856.9781	1152.7	270.55
1012.4042	2858.1233	1151.3	269
1012.5216	2859.2679	1148.65	267.35
1012.6389	2860.4118	1153.8	272.35
1012.7561	2861.555	1162.4	275.25
1012.8733	2862.6976	1159.75	277.8
1012.9905	2863.8395	1158.8	278.75
1013.1076	2864.9808	1156.7	276.35
1013.2247	2866.1214	1154.85	275.45
1013.3417	2867.2614	1155.25	272.65
1013.4587	2868.4007	1159.45	276.5
1013.5757	2869.5393	1158.4	276.5
1013.6926	2870.6773	1160.95	276.9
1013.8095	2871.8146	1161.25	276.7
1013.9263	2872.9513	1157	272.95
1014.0431	2874.0874	1153.85	271.65
1014.1599	2875.2227	1153.3	270.6
1014.2766	2876.3574	1150.8	269.75
1014.3933	2877.4915	1153.05	272.4
1014.51	2878.6249	1153.85	272.7
1014.6266	2879.7577	1157.15	274.5
1014.7431	2880.8898	1165.95	275.8
1014.8596	2882.0212	1156.4	277.4
1014.9761	2883.152	1156.8	275.75
1015.0925	2884.2821	1157.75	276.6
1015.2089	2885.4116	1154.25	272.1
1015.3253	2886.5405	1150.75	268.7
1015.4416	2887.6686	1163.6	280.05
1015.5579	2888.7962	1151.85	272.35
1015.6741	2889.923	1150.55	271.3
1015.7903	2891.0493	1151.2	270.1
1015.9065	2892.1748	1151.9	271.3
1016.0226	2893.2997	1155.35	272.65
1016.1387	2894.424	1147.55	269.55
1016.2547	2895.5476	1149.2	269.15
1016.3707	2896.6706	1148.05	267.15
1016.4866	2897.7929	1147.4	264.25
1016.6025	2898.9145	1147.25	266.75
1016.7184	2900.0355	1146.45	265.9
1016.8342	2901.1559	1144.5	263.35
1016.95	2902.2756	1145.65	266.1
1017.0658	2903.3946	1143.4	262.7
1017.1815	2904.513	1143.15	260.6
1017.2971	2905.6308	1140.2	257.8
1017.4127	2906.7479	1136.8	254.55
1017.5283	2907.8643	1141.25	259.1
1017.6439	2908.9801	1141.6	260.7
1017.7594	2910.0953	1135.1	253.75
1017.8748	2911.2098	1141.5	257.05
1017.9902	2912.3236	1144.4	254.85
1018.1056	2913.4368	1141.2	257.4
1018.2209	2914.5494	1133.4	254.1
1018.3362	2915.6613	1143.35	256.95
1018.4515	2916.7725	1138.5	255.1
1018.5667	2917.8831	1134	251.7
1018.6819	2918.9931	1130.45	245.2
1018.797	2920.1024	1125.6	244.05
1018.9121	2921.211	1123.6	241.85
1019.0271	2922.319	1124.65	243.7
1019.1421	2923.4264	1122.4	242.05
1019.2571	2924.5331	1120.1	239.35
1019.372	2925.6391	1119.6	241.1
1019.4869	2926.7445	1115.5	236.2
1019.6017	2927.8493	1121	239.1
1019.7165	2928.9534	1114.25	233.2
1019.8313	2930.0569	1121.1	238.15
1019.946	2931.1597	1119.55	236.55
1020.0606	2932.2619	1115.7	236.05
1020.1753	2933.3634	1117.4	238.5
1020.2899	2934.4643	1127.75	240.55
1020.4044	2935.5645	1124.15	237.15
1020.5189	2936.6641	1122.55	237.9
1020.6334	2937.763	1120.05	240.5
1020.7478	2938.8613	1112.35	229.1
1020.8622	2939.959	1118.85	233
1020.9765	2941.056	1109.65	230.4
1021.0908	2942.1523	1108.2	226.9
1021.2051	2943.248	1104.55	225.05
1021.3193	2944.3431	1090.1	208.75
1021.4334	2945.4375	1101.4	219.8
1021.5476	2946.5313	1087.4	204.55
1021.6617	2947.6244	1084.45	203.6
1021.7757	2948.7169	1082.2	199.5
1021.8897	2949.8087	1079.5	199.55
1022.0037	2950.8999	1078.25	196.05
1022.1176	2951.9904	1064.5	184.2
1022.2315	2953.0803	1065.35	184.9
1022.3453	2954.1696	1062.95	179.75
1022.4591	2955.2582	1058.95	177.7
1022.5728	2956.3462	1059.7	179.8
1022.6865	2957.4335	1057.75	176.75
1022.8002	2958.5202	1053.85	170.7
1022.9138	2959.6062	1058.65	178.2
1023.0274	2960.6916	1052.85	173.25
1023.141	2961.7764	1052.05	171.45
1023.2545	2962.8605	1050	168.55
1023.3679	2963.9439	1052.85	173
1023.4813	2965.0267	1049.3	167.3
1023.5947	2966.1089	1070.9	165
1023.708	2967.1905	1054.15	173.3
1023.8213	2968.2714	1050.1	168.7
1023.9346	2969.3516	1045.15	164.65
1024.0478	2970.4312	1057.15	168.55
1024.1609	2971.5102	1049.8	167.85
1024.274	2972.5885	1047.8	168.2
1024.3871	2973.6662	1049.85	165.25
1024.5002	2974.7432	1044.2	164.35
1024.6132	2975.8196	1044	164
1024.7261	2976.8954	1042.3	162.1
1024.839	2977.9705	1047.15	167.4
1024.9519	2979.045	1044.2	162.8
1025.0647	2980.1188	1042.45	162.75
1025.1775	2981.192	1040.45	162.8
1025.2902	2982.2645	1041.25	157.4
1025.4029	2983.3364	1037.95	158.45
1025.5156	2984.4077	1035.9	152.4
1025.6282	2985.4783	1043.45	157.15
1025.7407	2986.5483	1034.35	153.85
1025.8532	2987.6177	1031.75	150.45
1025.9657	2988.6864	1030.15	150.75
1026.0782	2989.7545	1033.5	151.45
1026.1906	2990.8219	1025.75	147.85
1026.3029	2991.8887	1026.65	145.3
1026.4152	2992.9548	1027.8	144.9
1026.5275	2994.0204	1019.6	140.05
1026.6397	2995.0852	1016.85	137.15
1026.7519	2996.1495	1021.7	137.45
1026.864	2997.2131	1013.45	133.15
1026.9761	2998.276	1010.45	130.5
1027.0882	2999.3383	1012.05	132.35
1027.2002	3000.4	1014.7	132.8
1027.3122	3001.4611	1011.3	130
1027.4241	3002.5215	1007.05	126.85
1027.536	3003.5812	1006.15	126.2
1027.6478	3004.6404	1005.1	126.05
1027.7596	3005.6989	1008	124.95
1027.8714	3006.7567	1004.2	123.4
1027.9831	3007.8139	1022.35	120.8
1028.0947	3008.8705	999.65	118.5
1028.2064	3009.9264	1001.05	117.85
1028.3179	3010.9818	1000.35	118.4
1028.4295	3012.0364	1002.75	120.75
1028.541	3013.0905	1002.95	123.1
1028.6524	3014.1439	999.9	119.65
1028.7638	3015.1966	999.9	119.5
1028.8752	3016.2487	999.05	120.75
1028.9865	3017.3002	1002	114.5
1029.0978	3018.3511	995.25	115.3
1029.209	3019.4013	998.45	116.3
1029.3202	3020.4509	994.65	115.15
1029.4314	3021.4998	992.85	111
1029.5425	3022.5481	995.8	115.05
1029.6535	3023.5958	994.9	115.65
1029.7645	3024.6428	992.6	110.65
1029.8755	3025.6892	991.6	113.4
1029.9864	3026.735	989.95	107.85
1030.0973	3027.7802	993.25	112.55
1030.2082	3028.8247	987.6	106.15
1030.319	3029.8685	990.65	108.65
1030.4297	3030.9118	992	109.25
1030.5404	3031.9544	988.9	108.75
1030.6511	3032.9963	990.8	108.45
1030.7617	3034.0376	988.55	108.7
1030.8723	3035.0783	990.85	107.6
1030.9829	3036.1184	990.8	110.65
1031.0934	3037.1578	984.05	104.65
1031.2038	3038.1966	984.05	100.6
1031.3142	3039.2348	986.75	107.15
1031.4246	3040.2723	997.3	109
1031.5349	3041.3092	984.9	105.2
1031.6452	3042.3455	984.6	103
1031.7554	3043.3811	987.75	106.7
1031.8656	3044.4161	983.6	102.75
1031.9758	3045.4505	980.9	103.5
1032.0859	3046.4842	984.6	103.2
1032.1959	3047.5173	984.8	105.5
1032.3059	3048.5498	982.95	103.05
1032.4159	3049.5816	984.7	103.35
1032.5258	3050.6128	983.55	101.15
1032.6357	3051.6434	983.75	102.5
1032.7455	3052.6734	982.5	102.75
1032.8553	3053.7027	984.2	102.85
1032.9651	3054.7314	979.8	100.95
1033.0748	3055.7594	978.85	101.1
1033.1845	3056.7868	980.1	98.5
1033.2941	3057.8136	977.1	98.2
1033.4037	3058.8398	980.15	99.45
1033.5132	3059.8653	980.4	100.4
1033.6227	3060.8902	978.75	97.45
1033.7321	3061.9145	981.25	101.15
1033.8415	3062.9381	982.75	103.45
1033.9509	3063.9612	993.35	96.15
1034.0602	3064.9835	978.3	98.4
1034.1694	3066.0053	978.25	96.75
1034.2787	3067.0264	972.8	91.75
1034.3878	3068.0469	979.4	98.85
1034.497	3069.0668	980.55	98.75
1034.6061	3070.086	979.4	99.55
1034.7151	3071.1046	974.85	91.6
1034.8241	3072.1226	978.55	97.1
1034.9331	3073.1399	974.25	95.6
1035.042	3074.1567	977.4	97.3
1035.1508	3075.1727	976.65	93.95
1035.2597	3076.1882	970.6	90.85
1035.3684	3077.203	971.55	91.05
1035.4772	3078.2173	972.65	92
1035.5859	3079.2308	976.45	93
1035.6945	3080.2438	974	91.5
1035.8031	3081.2561	972.45	93.45
1035.9117	3082.2678	970.8	90.45
1036.0202	3083.2789	966.8	86.85
1036.1286	3084.2893	966.25	85.6
1036.2371	3085.2991	965.35	85.05
1036.3454	3086.3083	973.3	89.35
1036.4538	3087.3169	970.1	90.35
1036.562	3088.3248	966.85	84.2
1036.6703	3089.3321	967.4	85.35
1036.7785	3090.3388	960.9	82.25
1036.8866	3091.3449	967.3	86
1036.9948	3092.3503	963.5	79.3
1037.1028	3093.3551	961	82.65
1037.2108	3094.3593	961.05	81.8
1037.3188	3095.3629	961.7	84.6
1037.4267	3096.3658	966.25	84.45
1037.5346	3097.3681	963.25	83.4
1037.6425	3098.3698	963.55	81.3
1037.7503	3099.3708	965	77.8
1037.858	3100.3713	962.75	82
1037.9657	3101.3711	958.7	77.55
1038.0734	3102.3702	1090.95	75.85
1038.181	3103.3688	962.35	81.55
1038.2886	3104.3667	959.15	80.4
1038.3961	3105.364	956.9	78.25
1038.5036	3106.3607	960.8	79.1
1038.611	3107.3568	959.95	77.4
1038.7184	3108.3522	955.65	76
1038.8257	3109.347	960.25	78.5
1038.933	3110.3412	960.05	74.55
1039.0403	3111.3348	954.95	74.3
1039.1475	3112.3277	952.05	72.6
1039.2547	3113.32	952.2	74.2
1039.3618	3114.3117	953.1	72
1039.4689	3115.3028	952.85	72.5
1039.5759	3116.2932	956.85	75.05
1039.6829	3117.2831	960.4	74.8
1039.7898	3118.2723	954.05	74.45
1039.8967	3119.2608	947.35	68.9
1040.0035	3120.2488	951.35	69.9
1040.1103	3121.2361	949.75	69
1040.2171	3122.2229	946.6	66.65
1040.3238	3123.209	952.4	71
1040.4305	3124.1944	950.7	69.8
1040.5371	3125.1793	951.15	68.25
1040.6437	3126.1635	950.2	72.9
1040.7502	3127.1471	947.35	67.85
1040.8567	3128.1301	945.45	68.25
1040.9631	3129.1125	946.85	67.95
1041.0695	3130.0942	950.7	70.55
1041.1759	3131.0753	956.7	68.95
1041.2822	3132.0558	950.55	68.15
1041.3884	3133.0357	945.95	64
1041.4946	3134.015	946.8	66.6
1041.6008	3134.9936	945.5	63.75
1041.7069	3135.9716	965.75	65.15
1041.813	3136.949	943.7	64.3
1041.919	3137.9258	951.75	65.65
1042.025	3138.902	949.9	65.35
1042.1309	3139.8775	942.3	62.35
1042.2368	3140.8524	944.5	63.9
1042.3427	3141.8267	945	62.25
1042.4485	3142.8004	942.4	62.6
1042.5542	3143.7735	950.45	64.2
1042.6599	3144.7459	944.9	63.45
1042.7656	3145.7178	944.7	62.85
1042.8712	3146.689	939.35	59.85
1042.9768	3147.6596	943.1	60.55
1043.0823	3148.6295	942.8	63
1043.1878	3149.5989	941.25	60.35
1043.2932	3150.5676	941.2	63.4
1043.3986	3151.5357	940.2	62.1
1043.5039	3152.5032	938.05	58.2
1043.6092	3153.4701	939.05	59.75
1043.7145	3154.4364	941.5	58.7
1043.8197	3155.402	939.3	60.35
1043.9248	3156.367	941.4	61
1044.03	3157.3315	975.9	58.2
1044.135	3158.2952	937.8	58.1
1044.24	3159.2584	935.95	54.95
1044.345	3160.221	936.9	55.55
1044.4499	3161.1829	938.25	57.75
1044.5548	3162.1442	935.15	55.25
1044.6596	3163.105	937.2	56.85
1044.7644	3164.065	935.3	55.7
1044.8692	3165.0245	938.7	56.15
1044.9739	3165.9834	935.7	56.55
1045.0785	3166.9416	933.65	54.25
1045.1831	3167.8993	936.6	57.55
1045.2877	3168.8563	936.1	56.2
1045.3922	3169.8127	934.75	55.5
1045.4966	3170.7684	934.35	52.5
1045.6011	3171.7236	931.8	52.05
1045.7054	3172.6782	932.55	52.05
1045.8098	3173.6321	937.1	56.05
1045.914	3174.5854	936.25	51.3
1046.0183	3175.5381	933.65	54.55
1046.1224	3176.4902	932.95	52.15
1046.2266	3177.4417	931.7	51.8
1046.3307	3178.3926	930.9	51.95
1046.4347	3179.3428	928.7	49.8
1046.5387	3180.2924	929.05	50.25
1046.6427	3181.2415	931.5	50.95
1046.7466	3182.1899	934	53.7
1046.8504	3183.1377	929.6	51.45
1046.9542	3184.0848	935.55	52.15
1047.058	3185.0314	931.1	53.25
1047.1617	3185.9773	931.3	48.9
1047.2654	3186.9227	927.4	48.75
1047.369	3187.8674	930.2	51.05
1047.4726	3188.8115	933	47.7
1047.5761	3189.755	929.45	51.75
1047.6796	3190.6979	929.75	48.2
1047.783	3191.6402	928.5	49.85
1047.8864	3192.5818	927.1	46.35
1047.9898	3193.5229	945.75	50.9
1048.0931	3194.4633	927.35	48.4
1048.1963	3195.4031	926.65	47.05
1048.2995	3196.3423	927.15	47.95
1048.4027	3197.2809	929.7	50.3
1048.5058	3198.2189	927	45.8
1048.6089	3199.1563	942.3	44.7
1048.7119	3200.0931	924.7	47
1048.8148	3201.0292	923.8	44.9
1048.9178	3201.9648	925.65	46.85
1049.0206	3202.8997	925.4	42.7
1049.1235	3203.834	923.05	42.6
1049.2262	3204.7677	925.7	44.45
1049.329	3205.7008	925.6	44.45
1049.4317	3206.6333	922.2	44.05
1049.5343	3207.5652	922.9	39.45
1049.6369	3208.4964	924	43.6
1049.7394	3209.4271	923.35	44.25
1049.8419	3210.3571	924.65	45.7
1049.9444	3211.2865	922.6	41.5
1050.0468	3212.2154	923.05	42.4
1050.1491	3213.1436	923.1	40.45
1050.2514	3214.0712	928.85	42.5
1050.3537	3214.9982	924.25	44.3
1050.4559	3215.9246	920.35	39.85
1050.5581	3216.8503	919.65	38.85
1050.6602	3217.7755	924.35	46.25
1050.7623	3218.7001	920.2	41.2
1050.8643	3219.624	922.15	43.1
1050.9663	3220.5473	921.35	42.45
1051.0682	3221.4701	920.2	39.2
1051.1701	3222.3922	921.4	40
1051.2719	3223.3137	918.7	39.7
1051.3737	3224.2346	918.7	36.95
1051.4754	3225.1549	921.7	42.55
1051.5771	3226.0746	919.55	40.35
1051.6788	3226.9937	920.2	38.9
1051.7804	3227.9121	918.45	39.55
1051.8819	3228.83	916.9	37.05
1051.9834	3229.7473	918.65	38.7
1052.0849	3230.6639	920.15	40.55
1052.1863	3231.5799	919.05	39.5
1052.2876	3232.4954	919.55	39.85
1052.3889	3233.4102	915.65	36
1052.4902	3234.3244	917.05	37.65
1052.5914	3235.238	916.2	36
1052.6926	3236.151	941.8	37.05
1052.7937	3237.0634	917.85	40.05
1052.8948	3237.9752	917.75	39.05
1052.9958	3238.8864	916.9	37.95
1053.0968	3239.797	917.15	38.55
1053.1977	3240.7069	918.4	37.75
1053.2986	3241.6163	916.8	36.1
1053.3994	3242.5251	911.75	32.7
1053.5002	3243.4332	914.85	36.55
1053.6009	3244.3408	914.5	34.1
1053.7016	3245.2477	918.4	39.55
1053.8022	3246.154	916.2	37.2
1053.9028	3247.0598	913.75	32.95
1054.0034	3247.9649	914.05	34.3
1054.1039	3248.8694	914.35	34.65
1054.2043	3249.7733	914.8	35.15
1054.3047	3250.6766	914.25	33.95
1054.4051	3251.5793	913.95	31.75
1054.5054	3252.4814	911.45	33.1
1054.6056	3253.3829	913.4	33.05
1054.7058	3254.2838	910.15	29.6
1054.806	3255.1841	911.75	33.6
1054.9061	3256.0838	912.65	32.6
1055.0061	3256.9829	911.65	32.25
1055.1062	3257.8814	914.25	32.7
1055.2061	3258.7792	912.3	29.2
1055.306	3259.6765	909.2	28.8
1055.4059	3260.5731	911.55	34.25
1055.5057	3261.4692	910.6	30.6
1055.6055	3262.3647	913.65	33.9
1055.7052	3263.2595	911.15	30.6
1055.8049	3264.1538	910.75	32.95
1055.9045	3265.0474	910.95	30.7
1056.0041	3265.9404	903.95	25.8
1056.1036	3266.8329	909.05	29.75
1056.2031	3267.7247	916.9	26.6
1056.3025	3268.616	906.65	31.25
1056.4019	3269.5066	907	25.7
1056.5013	3270.3966	907.05	28.05
1056.6005	3271.286	901.65	22.65
