Software Version:	3.9.2.0
Unit SN:	10000200
Spectrometer SN:	6960
Date:	3/6/2024 10:09:01 AM
Data Line Index:	25
Spectral Points:	2048
Integration time (ms):	125
Averages:	20
Delay (ms):	30
Sequence Number:	1
Processing:	dark subtract
Laser Power (mW):	300
Laser Current (mA):	825
Laser Diode Temp (C):	25.1
Laser Case Temp (C):	24.9
System Temp (C):	24.7
Spectrometer Temp (C):	22.3
CCD Temp (C):	0.002
Secondary Temp (C):	20.011
Heatsink Temp (C):	18.665
CCDPCB Temp (C):	31.294
SecondaryPCB Temp (C):	25.88

Wavelength	RamanShift	Raw Counts	Dark Subtracted
787.061	30.1047	866.05	454.85
787.2016	32.3739	890.2	482.15
787.3422	34.6426	912.45	503.55
787.4828	36.9109	949.8	539.65
787.6235	39.1787	984.1	571.3
787.7642	41.4461	1029.45	611.2
787.9049	43.7131	1066.25	647.6
788.0456	45.9796	1110.35	687.1
788.1863	48.2456	1151.8	724.6
788.3271	50.5112	1194.85	764.5
788.4679	52.7764	1241.8	805.95
788.6087	55.0411	1290	850.7
788.7496	57.3054	1353.95	910.65
788.8904	59.5692	1403.95	956.75
789.0313	61.8326	1477.4	1028.9
789.1722	64.0955	1537.75	1086.7
789.3132	66.3579	1631.3	1173.55
789.4541	68.6199	1733.3	1274.75
789.5951	70.8815	1905.1	1439.45
789.7361	73.1426	2288.85	1818.9
789.8771	75.4032	3277.55	2804.9
790.0181	77.6634	5794.3	5316.95
790.1592	79.9231	12182.3	11699.3
790.3003	82.1824	33834.65	33340.5
790.4414	84.4412	57595.65	57079.4
790.5825	86.6995	63734.4	63191.7
790.7237	88.9574	64831.15	64267.5
790.8648	91.2148	65256.25	64676.7
791.006	93.4717	65360.15	64770.15
791.1472	95.7282	65421.35	64826.3
791.2885	97.9842	65454.9	64856.6
791.4297	100.2398	65447.65	64846.95
791.571	102.4949	65460.35	64858.15
791.7123	104.7495	65451.9	64843.25
791.8536	107.0036	65452.35	64845.15
791.9949	109.2573	65480.05	64872.95
792.1363	111.5105	65468.55	64859.1
792.2777	113.7632	65471.25	64860.5
792.4191	116.0154	65491.7	64864.15
792.5605	118.2672	65515.25	64895.35
792.7019	120.5185	65519.6	64898.1
792.8434	122.7693	65518.7	64897.15
792.9849	125.0197	65492.85	64867.35
793.1264	127.2696	65529.3	64898.45
793.2679	129.519	65522.3	64887.25
793.4094	131.7679	65535	64895.4
793.551	134.0163	65517.55	64877
793.6926	136.2642	65524.8	64881.95
793.8342	138.5117	65535	64888.85
793.9758	140.7587	65534.55	64889.1
794.1175	143.0052	65530.65	64879.1
794.2591	145.2512	65524	64873.4
794.4008	147.4967	65534.05	64882.9
794.5425	149.7417	65532.6	64875.8
794.6842	151.9863	65532.35	64875.45
794.826	154.2304	65528.2	64867.7
794.9677	156.4739	65528.2	64860.15
795.1095	158.717	65535	64870.3
795.2513	160.9596	65535	64862.4
795.3931	163.2017	65526.35	64851.7
795.535	165.4433	65534.95	64858.5
795.6768	167.6844	65529.8	64848.4
795.8187	169.925	65535	64853.4
795.9606	172.1651	65530.5	64849.05
796.1025	174.4047	65535	64850.25
796.2445	176.6439	65535	64847.1
796.3864	178.8825	65529	64837.35
796.5284	181.1206	65535	64836.15
796.6704	183.3582	65535	64833.25
796.8124	185.5954	65535	64832.9
796.9544	187.832	65535	64829.15
797.0965	190.0681	65533.95	64826.15
797.2386	192.3037	65535	64820.85
797.3806	194.5388	65535	64817.4
797.5228	196.7734	65528.05	64811.7
797.6649	199.0075	65535	64816.75
797.807	201.2411	65535	64816.15
797.9492	203.4742	65535	64815.6
798.0914	205.7068	65535	64810.55
798.2336	207.9389	65535	64807.65
798.3758	210.1704	65535	64815.3
798.518	212.4015	65535	64824.15
798.6603	214.632	65535	64828.7
798.8025	216.862	65535	64833.9
798.9448	219.0915	65535	64830.7
799.0871	221.3205	65535	64828.4
799.2294	223.549	65535	64830.35
799.3718	225.777	65535	64827.5
799.5141	228.0044	65535	64824.55
799.6565	230.2314	65535	64822.95
799.7989	232.4578	65535	64817.15
799.9413	234.6837	65535	64809
800.0837	236.909	65535	64809.35
800.2262	239.1339	65535	64780.65
800.3687	241.3582	65535	64792.8
800.5111	243.582	65535	64771
800.6536	245.8053	65535	64779.85
800.7961	248.0281	65535	64784.45
800.9387	250.2503	65535	64778.75
801.0812	252.472	65535	64785.1
801.2238	254.6932	65535	64781
801.3664	256.9139	65535	64781.35
801.509	259.134	65535	64775.4
801.6516	261.3536	65535	64777.9
801.7942	263.5727	65535	64772.35
801.9369	265.7912	65535	64771.7
802.0795	268.0092	65535	64776.3
802.2222	270.2267	65535	64774.85
802.3649	272.4436	65535	64771.55
802.5076	274.6601	65535	64763
802.6504	276.8759	65535	64767.35
802.7931	279.0913	65535	64766.15
802.9359	281.3061	65535	64763.15
803.0787	283.5204	65535	64761.7
803.2215	285.7341	65535	64759.8
803.3643	287.9473	65535	64746.2
803.5071	290.16	65535	64755.35
803.6499	292.3721	65535	64759.05
803.7928	294.5837	65535	64761.9
803.9357	296.7947	65535	64760.6
804.0786	299.0052	65535	64758
804.2215	301.2152	65535	64754.6
804.3644	303.4246	65535	64758.3
804.5074	305.6334	65535	64760.15
804.6503	307.8418	65535	64752.3
804.7933	310.0495	65535	64754.7
804.9363	312.2568	65535	64749.75
805.0793	314.4635	65535	64748.7
805.2223	316.6696	65535	64747.15
805.3653	318.8752	65535	64737.35
805.5084	321.0802	65535	64748.55
805.6514	323.2847	65535	64743.8
805.7945	325.4887	65535	64741.55
805.9376	327.692	65535	64740.2
806.0807	329.8949	65535	64741.85
806.2238	332.0972	65535	64737.6
806.367	334.2989	65535	64734.4
806.5101	336.5001	65535	64735.35
806.6533	338.7007	65535	64735.95
806.7965	340.9008	65535	64733.7
806.9397	343.1003	65535	64732.5
807.0829	345.2992	65535	64733.4
807.2261	347.4976	65535	64730.5
807.3693	349.6955	65535	64722.4
807.5126	351.8927	65535	64723.6
807.6559	354.0895	65535	64713.1
807.7991	356.2856	65535	64724.05
807.9424	358.4812	65535	64725.5
808.0857	360.6763	65535	64718.6
808.2291	362.8707	65535	64716.9
808.3724	365.0646	65535	64717.7
808.5158	367.258	65535	64713.75
808.6591	369.4508	65535	64711.35
808.8025	371.643	65535	64712.65
808.9459	373.8346	65535	64706.8
809.0893	376.0257	65535	64709.9
809.2327	378.2162	65535	64708.4
809.3762	380.4062	65535	64707.1
809.5196	382.5956	65535	64707.3
809.6631	384.7844	65535	64713.9
809.8066	386.9726	65535	64715
809.9501	389.1603	65535	64714.95
810.0936	391.3474	65535	64672.75
810.2371	393.5339	65535	64710.7
810.3806	395.7199	65535	64715.3
810.5241	397.9052	65535	64715.6
810.6677	400.09	65535	64719.2
810.8113	402.2743	65535	64713.15
810.9548	404.4579	65535	64713.55
811.0984	406.641	65535	64711.25
811.2421	408.8235	65535	64708.9
811.3857	411.0054	65535	64711.2
811.5293	413.1868	65535	64703.55
811.673	415.3675	65535	64701.5
811.8166	417.5477	65535	64700.2
811.9603	419.7273	65535	64696.65
812.104	421.9064	65535	64692.5
812.2477	424.0848	65535	64697.05
812.3914	426.2627	65535	64698.15
812.5351	428.4399	65535	64696.15
812.6788	430.6166	65535	64693.9
812.8226	432.7928	65535	64691.65
812.9663	434.9683	65535	64690.2
813.1101	437.1432	65535	64689.05
813.2539	439.3176	65535	64692.55
813.3977	441.4914	65535	64694.8
813.5415	443.6645	65535	64696.3
813.6853	445.8371	65535	64691.4
813.8291	448.0091	65535	64690.15
813.973	450.1806	65535	64693.3
814.1168	452.3514	65535	64690.65
814.2607	454.5216	65535	64682.5
814.4046	456.6913	65535	64689.5
814.5485	458.8603	65535	64689
814.6924	461.0288	65535	64694.4
814.8363	463.1967	65535	64693.35
814.9802	465.3639	65535	64690.7
815.1241	467.5306	65535	64689.65
815.2681	469.6967	65535	64691.2
815.412	471.8622	65535	64692.4
815.556	474.0271	65535	64688.55
815.7	476.1914	65535	64686.6
815.844	478.3551	65535	64687.45
815.988	480.5182	65535	64690.75
816.132	482.6807	65535	64688.9
816.276	484.8426	65535	64692.9
816.4201	487.0039	65535	64693.3
816.5641	489.1647	65535	64686.1
816.7082	491.3248	65535	64683.95
816.8522	493.4843	65535	64687.95
816.9963	495.6432	65535	64686
817.1404	497.8015	65535	64679.35
817.2845	499.9592	65535	64675.85
817.4286	502.1163	65535	64675.7
817.5727	504.2728	65535	64681.4
817.7168	506.4287	65535	64687.3
817.861	508.5839	65535	64687.55
818.0051	510.7386	65535	64682.9
818.1493	512.8927	65535	64673
818.2935	515.0461	65535	64677.3
818.4377	517.199	65535	64673.9
818.5818	519.3512	65535	64674.6
818.726	521.5029	65535	64670.5
818.8703	523.6539	65535	64679.8
819.0145	525.8043	65535	64673.35
819.1587	527.9541	65535	64671.35
819.303	530.1033	65535	64668.55
819.4472	532.2519	65535	64674.25
819.5915	534.3999	65535	64667.7
819.7357	536.5472	65535	64673.25
819.88	538.694	65535	64674.85
820.0243	540.8401	65535	64674.65
820.1686	542.9856	65535	64666.95
820.3129	545.1305	65535	64660.2
820.4572	547.2748	65535	64660.6
820.6016	549.4185	65535	64660.7
820.7459	551.5615	65535	64660.6
820.8902	553.704	65535	64663.9
821.0346	555.8458	65535	64668.7
821.1789	557.987	65535	64667.1
821.3233	560.1276	65535	64664.4
821.4677	562.2675	65535	64664.7
821.6121	564.4069	65535	64661
821.7565	566.5456	65535	64667
821.9009	568.6837	65535	64666
822.0453	570.8212	65535	64668.4
822.1897	572.958	65535	64662.95
822.3342	575.0942	65535	64665.95
822.4786	577.2299	65535	64667.1
822.6231	579.3648	65535	64672.8
822.7675	581.4992	65535	64679.55
822.912	583.6329	65535	64675.75
823.0565	585.766	65535	64672.7
823.201	587.8985	65535	64668.65
823.3454	590.0304	65530.4	64637.9
823.4899	592.1616	65535	64659.15
823.6345	594.2922	65534.6	64658.7
823.779	596.4222	65522	64643.05
823.9235	598.5515	65528.15	64649.2
824.068	600.6802	65535	64656.85
824.2126	602.8083	65528.8	64653.5
824.3571	604.9358	65525.3	64648.7
824.5017	607.0626	65535	64657.15
824.6462	609.1888	65513.35	64631.85
824.7908	611.3144	65531.4	64648.7
824.9354	613.4393	65526.25	64642.7
825.08	615.5636	65501.5	64618.4
825.2246	617.6873	65524.45	64642.55
825.3692	619.8103	65490.2	64606.9
825.5138	621.9327	65527.7	64645.1
825.6584	624.0544	65525.65	64648.8
825.803	626.1756	65520.4	64642.85
825.9477	628.2961	65519.15	64636.3
826.0923	630.4159	65504.05	64622.85
826.237	632.5351	65488.45	64604.5
826.3816	634.6537	65535	64651.3
826.5263	636.7716	65483.55	64594.35
826.6709	638.8889	65515.85	64626.7
826.8156	641.0056	65513.2	64623.2
826.9603	643.1216	65515.4	64626.65
827.105	645.237	65522.15	64632.35
827.2497	647.3518	65492.9	64610.1
827.3944	649.4659	65514.5	64634.25
827.5391	651.5793	65515.85	64634.8
827.6838	653.6922	65522.1	64637.25
827.8285	655.8043	65454.05	64569.45
827.9733	657.9159	65525.5	64640.15
828.118	660.0268	65403.1	64515.8
828.2627	662.137	65491.1	64606.3
828.4075	664.2466	65493.65	64603.7
828.5522	666.3556	65460.9	64569.6
828.697	668.4639	65503.85	64618.35
828.8418	670.5716	65456.6	64573.8
828.9865	672.6786	65488.25	64601.95
829.1313	674.785	65438.15	64546.6
829.2761	676.8907	65437.35	64551.1
829.4209	678.9958	65471.4	64582.45
829.5657	681.1002	65478.15	64590.1
829.7105	683.204	65432.2	64537.7
829.8553	685.3072	65415.05	64521.3
830.0001	687.4097	65439.95	64549.8
830.1449	689.5115	65415.15	64521.7
830.2898	691.6127	65461.55	64571.1
830.4346	693.7132	65414.8	64524.65
830.5794	695.8131	65426.25	64516.95
830.7243	697.9123	65445.15	64548.45
830.8691	700.0109	65445.9	64553.2
831.014	702.1089	65387.05	64493.75
831.1588	704.2061	65403.55	64506.15
831.3037	706.3028	65412.4	64516.55
831.4486	708.3987	65421.25	64523.6
831.5935	710.4941	65391.55	64499.1
831.7383	712.5887	65423.85	64530.05
831.8832	714.6827	65398	64502.95
832.0281	716.7761	65432.9	64537.25
832.173	718.8688	65440.25	64543.6
832.3179	720.9608	65390.8	64487.5
832.4628	723.0522	65392.7	64491.5
832.6077	725.1429	65367	64471.3
832.7527	727.233	65460	64563.95
832.8976	729.3224	65316.95	64416.85
833.0425	731.4112	65371.5	64471.6
833.1874	733.4993	65373.1	64473.55
833.3324	735.5867	65373.9	64478.15
833.4773	737.6735	65350.8	64451.1
833.6222	739.7596	65324.3	64424.2
833.7672	741.845	65324.3	64424.55
833.9122	743.9298	65372	64471.8
834.0571	746.014	65326.75	64429.7
834.2021	748.0974	65293.15	64392.5
834.347	750.1802	65356.05	64454.5
834.492	752.2624	65270.75	64371.8
834.637	754.3439	65283.05	64377.75
834.782	756.4247	65299.9	64389.65
834.9269	758.5048	65277.95	64377.55
835.0719	760.5843	65270.15	64367.9
835.2169	762.6631	65284.3	64379.8
835.3619	764.7413	65271.4	64370.35
835.5069	766.8188	65241.55	64336.7
835.6519	768.8956	65261.85	64357
835.7969	770.9718	65254.55	64355.15
835.9419	773.0473	65240.65	64340
836.0869	775.1221	65229.25	64325.65
836.232	777.1962	65231.85	64328.15
836.377	779.2697	65198.4	64293.2
836.522	781.3426	65218.55	64296.85
836.667	783.4147	65214	64309.15
836.8121	785.4862	65189.2	64285.8
836.9571	787.557	65164.75	64259.55
837.1021	789.6271	65201.55	64297.4
837.2472	791.6966	65178.85	64270.6
837.3922	793.7654	65159.75	64253
837.5373	795.8335	65157.2	64253.8
837.6823	797.901	65170.1	64267.85
837.8274	799.9678	65153.75	64244.75
837.9724	802.0339	65141.9	64237.7
838.1175	804.0993	65136.85	64224.35
838.2626	806.1641	65136.4	64226.65
838.4076	808.2282	65121.3	64216.6
838.5527	810.2916	65128.6	64221.95
838.6978	812.3544	65142.6	64238.75
838.8428	814.4164	65102.25	64197.65
838.9879	816.4778	65110.6	64202.7
839.133	818.5385	65112.75	64205
839.2781	820.5986	65115.4	64207.35
839.4232	822.658	65116	64204.85
839.5682	824.7166	65114.55	64207.15
839.7133	826.7747	65081.9	64173.95
839.8584	828.832	65092.3	64184.05
840.0035	830.8886	65110.5	64201.2
840.1486	832.9446	65093.25	64181.35
840.2937	834.9999	65044.5	64137.35
840.4388	837.0545	65068.7	64157.6
840.5839	839.1085	65070.55	64161.55
840.729	841.1618	65061.7	64149.45
840.8741	843.2143	65039.55	64129.45
841.0192	845.2662	65041.75	64131.05
841.1643	847.3175	65046.9	64137.15
841.3095	849.368	65020	64112.7
841.4546	851.4179	65036.5	64129.35
841.5997	853.467	65010.55	64103.5
841.7448	855.5155	65014.4	64102.85
841.8899	857.5633	65001.65	64092.2
842.0351	859.6105	64974.5	64063.3
842.1802	861.6569	64990.6	64077.65
842.3253	863.7027	64968.1	64054.85
842.4704	865.7478	64974.25	64062.5
842.6156	867.7922	64979.6	64068
842.7607	869.8359	64982.35	64072.5
842.9058	871.8789	64955	64045.2
843.0509	873.9212	64975.05	64031.5
843.1961	875.9629	64953.35	64041.85
843.3412	878.0039	64960.65	64050.95
843.4863	880.0441	64948.25	64037.4
843.6315	882.0837	64953.45	64041.05
843.7766	884.1226	64950.3	64037.95
843.9218	886.1609	64944.1	64033.25
844.0669	888.1984	64941.9	64032.85
844.212	890.2352	64956.65	64043.5
844.3572	892.2714	64927.35	64010.65
844.5023	894.3069	64929.6	64017.6
844.6475	896.3416	64912.9	64001.1
844.7926	898.3757	64915.5	64001
844.9377	900.4091	64893.25	63978.45
845.0829	902.4418	64900.8	63983.15
845.228	904.4739	64882.6	63964.2
845.3732	906.5052	64892.35	63977.8
845.5183	908.5358	64875.2	63961.45
845.6635	910.5658	64876.45	63959.7
845.8086	912.595	64872.7	63959.35
845.9538	914.6236	64849.85	63936.35
846.0989	916.6515	64876.1	63959.85
846.2441	918.6786	64838.6	63925.8
846.3892	920.7051	64842.35	63923.95
846.5344	922.7309	64838	63923.15
846.6795	924.756	64837.95	63921.2
846.8246	926.7804	64821.75	63905.15
846.9698	928.8041	64809.7	63894.85
847.1149	930.8272	64801.95	63886.3
847.2601	932.8495	64801.5	63887.1
847.4052	934.8711	64788.95	63870.35
847.5504	936.892	64777.1	63862.25
847.6955	938.9123	64774.25	63858.2
847.8407	940.9318	64768.9	63853.2
847.9858	942.9506	64755.75	63838.4
848.131	944.9688	64753.95	63837.55
848.2761	946.9862	64738.8	63822
848.4213	949.003	64732.8	63816.8
848.5664	951.019	64714.1	63801.25
848.7115	953.0344	64717.55	63801.8
848.8567	955.0491	64700.7	63784.8
849.0018	957.063	64709.6	63793.6
849.147	959.0763	64714.05	63797.25
849.2921	961.0888	64690	63774.75
849.4373	963.1007	64701.25	63787.35
849.5824	965.1119	64691.55	63782.35
849.7275	967.1223	64697.25	63789.25
849.8727	969.1321	64686.55	63779.65
850.0178	971.1412	64682.9	63770.55
850.1629	973.1495	64674.4	63762.55
850.3081	975.1572	64659.5	63707.85
850.4532	977.1641	64659.35	63744.15
850.5983	979.1704	64656.45	63738.95
850.7435	981.1759	64650	63729.6
850.8886	983.1808	64647	63727.45
851.0337	985.1849	64633.95	63708.9
851.1788	987.1884	64630.15	63714.05
851.324	989.1911	64629.65	63713.4
851.4691	991.1932	64620.85	63703.1
851.6142	993.1945	64604.05	63688.6
851.7593	995.1951	64596.85	63682.25
851.9045	997.1951	64604.95	63684.3
852.0496	999.1943	64579.55	63663.45
852.1947	1001.1928	64574.75	63657.2
852.3398	1003.1906	64563.45	63645.45
852.4849	1005.1877	64541.85	63626.1
852.63	1007.1841	64533.5	63619.7
852.7751	1009.1798	64531.5	63617
852.9202	1011.1748	64526.25	63610.65
853.0653	1013.1691	64515.05	63598.65
853.2104	1015.1627	64393.35	63477.25
853.3555	1017.1556	64447	63532.85
853.5006	1019.1477	64470.85	63556.6
853.6457	1021.1392	64383	63472.5
853.7908	1023.1299	64314.05	63407.2
853.9359	1025.12	64366.6	63459.4
854.081	1027.1093	64320.2	63418.75
854.2261	1029.0979	64310.7	63410.2
854.3712	1031.0859	64299.1	63392.15
854.5163	1033.0731	64247.35	63338.75
854.6613	1035.0596	64273.75	63362.6
854.8064	1037.0454	64238.25	63324.55
854.9515	1039.0304	64204.4	63288.75
855.0965	1041.0148	64142.8	63227.2
855.2416	1042.9985	64149.1	63232.2
855.3867	1044.9814	64193.45	63283.25
855.5317	1046.9636	64110.1	63193.9
855.6768	1048.9452	64100.05	63186.65
855.8219	1050.926	64103.6	63188
855.9669	1052.9061	64094.5	63182.5
856.112	1054.8855	64092.5	63179.05
856.257	1056.8642	64066.2	63151.8
856.4021	1058.8421	64042.45	63122.65
856.5471	1060.8194	64037.05	63120.2
856.6921	1062.7959	63989.4	63072.55
856.8372	1064.7717	64041.8	63127.3
856.9822	1066.7469	64006.5	63089.15
857.1272	1068.7213	64012.2	63091.8
857.2723	1070.695	63976.2	63059.45
857.4173	1072.6679	63937.15	63022.65
857.5623	1074.6402	63962.4	63049.2
857.7073	1076.6117	63937.25	63015.1
857.8523	1078.5826	63937.4	63021.7
857.9973	1080.5527	63926.6	63008.9
858.1423	1082.5221	63877.65	62962.25
858.2873	1084.4908	63889.4	62976.3
858.4323	1086.4587	63870.25	62952.65
858.5773	1088.426	63872.25	62957.3
858.7223	1090.3925	63855.35	62936.6
858.8673	1092.3584	63845.75	62932.1
859.0123	1094.3235	63815.2	62898.95
859.1573	1096.2879	63795.05	62878.1
859.3022	1098.2515	63809.65	62894.1
859.4472	1100.2145	63786.95	62873.6
859.5922	1102.1767	63775.1	62854.85
859.7371	1104.1382	63786.55	62872.65
859.8821	1106.099	63775.4	62859.15
860.027	1108.0591	63756.95	62841.5
860.172	1110.0185	63707.4	62793.25
860.3169	1111.9771	63728.5	62813.7
860.4619	1113.9351	63722.9	62809.85
860.6068	1115.8923	63692.9	62776.35
860.7517	1117.8488	63668.55	62752.05
860.8967	1119.8045	63629.2	62716.2
861.0416	1121.7596	63645.6	62730.75
861.1865	1123.7139	63615.45	62698.45
861.3314	1125.6675	63616.25	62700.8
861.4763	1127.6204	63624.5	62711.3
861.6212	1129.5726	63569.7	62652.7
861.7661	1131.524	63580.95	62668.35
861.911	1133.4748	63566.65	62652.1
862.0559	1135.4248	63551	62634.35
862.2008	1137.3741	63548	62630.95
862.3457	1139.3226	63524.5	62607.45
862.4905	1141.2705	63518.45	62605.5
862.6354	1143.2176	63507.65	62584.85
862.7803	1145.164	63489.8	62570.95
862.9251	1147.1097	63488.7	62575.2
863.07	1149.0546	63474.75	62557.65
863.2148	1150.9989	63474.65	62560.25
863.3597	1152.9424	63442.45	62528.15
863.5045	1154.8852	63447.3	62532.45
863.6493	1156.8272	63431.65	62518.15
863.7942	1158.7686	63442.3	62520.85
863.939	1160.7092	63408.15	62492.75
864.0838	1162.6491	63389.25	62471.65
864.2286	1164.5883	63407.05	62492.65
864.3734	1166.5267	63390.1	62474.55
864.5182	1168.4644	63395.95	62478.95
864.663	1170.4014	63373.8	62454.9
864.8078	1172.3377	63383.75	62470.65
864.9526	1174.2732	63398.85	62486.15
865.0974	1176.2081	63387.4	62474
865.2421	1178.1421	63379.3	62462.1
865.3869	1180.0755	63396.4	62478.9
865.5317	1182.0082	63362.1	62449.85
865.6764	1183.9401	63360.8	62448.2
865.8212	1185.8713	63334.6	62423.25
865.9659	1187.8017	63317.4	62406.3
866.1106	1189.7315	63313.7	62411.25
866.2554	1191.6605	63275.7	62342.8
866.4001	1193.5888	63250.75	62342.05
866.5448	1195.5163	63182.9	62273.5
866.6895	1197.4432	63176.35	62264.2
866.8342	1199.3693	63152.05	62239
866.9789	1201.2947	63135.9	62219.85
867.1236	1203.2193	63143.5	62230.25
867.2683	1205.1432	63063.35	62149.2
867.413	1207.0664	63070	62154.6
867.5576	1208.9889	63045.2	62129.3
867.7023	1210.9106	63055.2	62142.75
867.847	1212.8316	62992.15	62082.05
867.9916	1214.7519	62974.95	62051.4
868.1363	1216.6715	62949.45	62037.3
868.2809	1218.5903	62946.15	62034.65
868.4255	1220.5084	62923	62010.3
868.5701	1222.4257	62921	62002.9
868.7148	1224.3424	62895.35	61984.3
868.8594	1226.2583	62829.35	61912
869.004	1228.1735	62858	61944.65
869.1486	1230.0879	62766.75	61852.45
869.2932	1232.0016	62821.9	61910.35
869.4377	1233.9146	62743.25	61828.9
869.5823	1235.8269	62749.1	61836.3
869.7269	1237.7384	62753.25	61838.6
869.8715	1239.6492	62703	61793.05
870.016	1241.5592	62617.2	61705
870.1606	1243.4686	62664.85	61753.95
870.3051	1245.3772	62576.4	61664
870.4496	1247.285	62662.65	61751.95
870.5941	1249.1922	62524.65	61613.4
870.7387	1251.0986	62607.65	61694.45
870.8832	1253.0042	62515.8	61602.95
871.0277	1254.9092	62529.75	61617.4
871.1722	1256.8134	62383.4	61474.85
871.3167	1258.7169	62524.25	61609.2
871.4611	1260.6196	62434.85	61522.8
871.6056	1262.5216	62419.15	61507.6
871.7501	1264.4229	62439.8	61529.15
871.8945	1266.3234	62521.45	61611.15
872.039	1268.2232	62466.15	61553.45
872.1834	1270.1223	62392.35	61478.7
872.3278	1272.0207	62371.9	61459.15
872.4723	1273.9183	62349.2	61429.6
872.6167	1275.8151	62337.25	61423.65
872.7611	1277.7113	62321.2	61408.9
872.9055	1279.6067	62248.9	61337.9
873.0499	1281.5014	62257.45	61341.7
873.1943	1283.3953	62318.95	61404.05
873.3386	1285.2885	62287.15	61378.1
873.483	1287.181	62265.7	61352.85
873.6274	1289.0727	62283.7	61374.6
873.7717	1290.9637	62117.1	61205.5
873.9161	1292.854	62305.25	61393.55
874.0604	1294.7435	62225.65	61315.45
874.2047	1296.6323	62250	61338.95
874.349	1298.5204	62190.65	61276.15
874.4933	1300.4077	62231.05	61319.35
874.6376	1302.2943	62129.35	61218.65
874.7819	1304.1802	62082.5	61174.35
874.9262	1306.0653	62025.35	61112
875.0705	1307.9497	61995	61085.55
875.2147	1309.8333	61980.7	61068.15
875.359	1311.7162	61940.95	61030.9
875.5032	1313.5984	61964.25	61048.15
875.6475	1315.4798	61870.35	60949.9
875.7917	1317.3605	61847.15	60919.05
875.9359	1319.2405	61875.9	60962.7
876.0801	1321.1197	61694.15	60778.8
876.2243	1322.9982	61737.5	60820.7
876.3685	1324.876	61685.95	60772.6
876.5127	1326.753	61612.55	60699.5
876.6569	1328.6293	61764.85	60849.3
876.801	1330.5048	61640.5	60725.4
876.9452	1332.3796	61552.6	60641.65
877.0893	1334.2537	61518.3	60582.05
877.2335	1336.127	61586.6	60673.45
877.3776	1337.9996	61454.2	60541.1
877.5217	1339.8714	61572.6	60662.25
877.6658	1341.7426	61331.65	60375.4
877.8099	1343.6129	61461.35	60548.45
877.954	1345.4826	61453.5	60541.05
878.0981	1347.3515	61264.4	60348.7
878.2422	1349.2196	61432	60518.2
878.3862	1351.087	61363.05	60449.9
878.5303	1352.9537	61340.55	60427.35
878.6743	1354.8197	61336.4	60423.1
878.8184	1356.6849	61345.75	60433.1
878.9624	1358.5493	61303.4	60391.25
879.1064	1360.4131	61207.25	60296.65
879.2504	1362.276	61382.25	60471.75
879.3944	1364.1383	61170.7	60258.5
879.5384	1365.9998	61056.85	60137.7
879.6823	1367.8606	61154.1	60241.75
879.8263	1369.7206	61001.1	60089.8
879.9702	1371.5799	60939.8	60027.2
880.1142	1373.4384	60844.45	59930.6
880.2581	1375.2962	60874.95	59963.3
880.402	1377.1533	60626.9	59717.75
880.5459	1379.0096	60546.45	59635.4
880.6898	1380.8652	60474.25	59564.4
880.8337	1382.7201	60398.65	59488.5
880.9776	1384.5742	60394.9	59483.7
881.1215	1386.4275	60138	59226.95
881.2653	1388.2802	60193.8	59283.65
881.4092	1390.132	60233.5	59320.95
881.553	1391.9832	60002.95	59093.5
881.6968	1393.8336	59865.45	58953.05
881.8406	1395.6832	59882.75	58970.35
881.9844	1397.5322	59950.2	59036.95
882.1282	1399.3803	59759.85	58846.2
882.272	1401.2278	59721.25	58810.1
882.4158	1403.0745	59653.9	58745.7
882.5595	1404.9204	59584.7	58676.1
882.7033	1406.7656	59585	58674.7
882.847	1408.6101	59432.15	58521.05
882.9908	1410.4538	59428.65	58519.1
883.1345	1412.2968	59452.55	58543.6
883.2782	1414.139	59284.6	58375.45
883.4219	1415.9805	59322.7	58412.6
883.5656	1417.8213	59178.1	58258.6
883.7092	1419.6613	59262.65	58352.55
883.8529	1421.5006	59169.65	58259.4
883.9965	1423.3391	59144.3	58233.35
884.1402	1425.1769	59138.7	58226.4
884.2838	1427.0139	59247.65	58337.65
884.4274	1428.8502	59200.35	58289.95
884.571	1430.6858	59227.8	58315.4
884.7146	1432.5206	59340.55	58433.35
884.8582	1434.3547	59173.9	58262.95
885.0018	1436.188	59104.7	58196.5
885.1453	1438.0206	59151.8	58240.2
885.2889	1439.8524	59118.3	58204.75
885.4324	1441.6835	59030.3	58121.25
885.5759	1443.5139	59024.85	58110.9
885.7194	1445.3435	58932.45	58025
885.8629	1447.1724	58988.25	58080.5
886.0064	1449.0005	58863	57954
886.1499	1450.8279	58908.95	57995.7
886.2933	1452.6545	58859.95	57948.45
886.4368	1454.4804	58809.2	57902.35
886.5802	1456.3056	58777	57861.75
886.7237	1458.13	58768.8	57864.05
886.8671	1459.9536	58812.05	57905
887.0105	1461.7766	58664.35	57755.5
887.1539	1463.5987	58552.35	57643.1
887.2972	1465.4202	58541.55	57633.45
887.4406	1467.2409	58473.85	57562.3
887.584	1469.0608	58360.15	57452.35
887.7273	1470.88	58326.55	57418.4
887.8706	1472.6984	58308.75	57401.85
888.0139	1474.5161	58148.7	57237.05
888.1572	1476.3331	58185.75	57275.5
888.3005	1478.1493	58106.8	57195.65
888.4438	1479.9648	58071.45	57161.5
888.5871	1481.7795	58046	57137.6
888.7303	1483.5935	58032.3	57125.95
888.8736	1485.4067	57934.95	57027.6
889.0168	1487.2192	57947.2	57038.15
889.16	1489.031	57866.55	56956.15
889.3032	1490.842	57877.4	56969.05
889.4464	1492.6522	57840.8	56932.6
889.5896	1494.4618	57784.95	56876
889.7327	1496.2705	57832.85	56923.65
889.8759	1498.0785	57635.4	56726.15
890.019	1499.8858	57707.05	56798.2
890.1622	1501.6924	57715.75	56808.5
890.3053	1503.4981	57585.55	56679.35
890.4484	1505.3032	57578.9	56670.6
890.5914	1507.1075	57464.6	56554.35
890.7345	1508.911	57502.55	56594.3
890.8776	1510.7138	57441.85	56532.35
891.0206	1512.5159	57448.15	56539.1
891.1637	1514.3172	57212.8	56306.6
891.3067	1516.1178	57201.95	56296.1
891.4497	1517.9176	57278.25	56367.3
891.5927	1519.7166	57158.35	56251.05
891.7357	1521.515	57129.8	56215.65
891.8786	1523.3126	56993.2	56086.95
892.0216	1525.1094	57040.1	56130.55
892.1645	1526.9055	56981.9	56074.8
892.3074	1528.7008	56915.6	56007.55
892.4503	1530.4954	56771.65	55866.1
892.5932	1532.2893	56878.1	55974.9
892.7361	1534.0824	56701.95	55794.15
892.879	1535.8747	56582.4	55680.7
893.0218	1537.6663	56766.15	55861.8
893.1647	1539.4572	56407.2	55500.85
893.3075	1541.2473	56527.7	55624.1
893.4503	1543.0367	56415.2	55512.05
893.5931	1544.8253	56340.65	55433.3
893.7359	1546.6132	56387.2	55480
893.8787	1548.4003	56241.9	55325.75
894.0214	1550.1867	56250.45	55336.65
894.1642	1551.9723	56238.15	55328.85
894.3069	1553.7572	56201.15	55296.85
894.4496	1555.5414	56207.45	55306.35
894.5923	1557.3247	55969.4	55069.3
894.735	1559.1074	56112.8	55211.45
894.8777	1560.8893	56022.75	55121.55
895.0204	1562.6705	56032.85	55129.7
895.163	1564.4509	55888.3	54988.9
895.3056	1566.2305	55922.1	55022.05
895.4482	1568.0094	56027.7	55129.05
895.5908	1569.7876	55940	55040.7
895.7334	1571.565	55805.9	54905.5
895.876	1573.3417	55840.45	54941.05
896.0186	1575.1176	55782.2	54884.55
896.1611	1576.8928	55707.15	54808.15
896.3036	1578.6672	55584.4	54687.55
896.4461	1580.4409	55613.2	54720.55
896.5886	1582.2138	55478.55	54581.3
896.7311	1583.986	55490.9	54593.05
896.8736	1585.7575	55441.6	54543.45
897.0161	1587.5282	55440	54541.8
897.1585	1589.2981	55438.3	54539.8
897.3009	1591.0673	55336.6	54440.2
897.4433	1592.8358	55267.05	54372.35
897.5857	1594.6035	55308.45	54409.5
897.7281	1596.3704	55270.4	54370.15
897.8705	1598.1366	55134.7	54236.75
898.0128	1599.9021	55054.3	54158.25
898.1551	1601.6668	55093.9	54194.05
898.2975	1603.4308	55060.4	54162.5
898.4398	1605.194	55090.65	54190.8
898.5821	1606.9564	54873.55	53979.05
898.7243	1608.7182	55009.9	54115.85
898.8666	1610.4791	54910.35	54020.55
899.0088	1612.2394	54998	54108.65
899.1511	1613.9988	54897.8	54007.2
899.2933	1615.7576	54989.95	54096.55
899.4355	1617.5156	55000.5	54096.4
899.5776	1619.2728	55067.05	54168.75
899.7198	1621.0293	54858.85	53960.55
899.862	1622.785	54794.55	53894.9
900.0041	1624.54	54778.25	53881.95
900.1462	1626.2942	54627.9	53735.35
900.2883	1628.0477	54377.25	53480.3
900.4304	1629.8005	54234.05	53337.8
900.5725	1631.5525	54295.3	53402.7
900.7145	1633.3037	54070.9	53178
900.8566	1635.0542	54009.55	53118.35
900.9986	1636.804	54005.45	53111.1
901.1406	1638.553	53837.7	52897.8
901.2826	1640.3013	53809.85	52915.55
901.4245	1642.0488	53662.5	52767.65
901.5665	1643.7955	53716.6	52824
901.7085	1645.5416	53611.8	52720.35
901.8504	1647.2868	53583.8	52691.45
901.9923	1649.0313	53656.05	52761.5
902.1342	1650.7751	53621.35	52725.8
902.2761	1652.5181	53514.9	52622.65
902.4179	1654.2604	53472.2	52580.45
902.5598	1656.0019	53531.85	52642.4
902.7016	1657.7427	53438.45	52545.25
902.8434	1659.4828	53538.45	52645.5
902.9852	1661.222	53442.4	52547.75
903.127	1662.9606	53508	52613.9
903.2687	1664.6984	53328.6	52433.3
903.4105	1666.4354	53301.9	52407
903.5522	1668.1717	52999.3	52104.4
903.6939	1669.9072	52738	51840.9
903.8356	1671.642	52643.25	51745.1
903.9773	1673.3761	52504.55	51609.15
904.119	1675.1094	52350.35	51458.35
904.2606	1676.8419	52145.85	51251.8
904.4022	1678.5737	52094.65	51200.35
904.5439	1680.3048	51986.95	51091.35
904.6855	1682.0351	51805.55	50911.55
904.827	1683.7646	51643.95	50747.15
904.9686	1685.4934	51703.1	50810.75
905.1101	1687.2215	51233.7	50340.15
905.2517	1688.9488	51460.15	50566.25
905.3932	1690.6754	50668.5	49776.2
905.5347	1692.4012	51062.6	50168.15
905.6761	1694.1263	51082.9	50190.65
905.8176	1695.8506	50667.25	49774.6
905.9591	1697.5742	50685	49792.5
906.1005	1699.297	50515.15	49624
906.2419	1701.0191	50529.7	49639.1
906.3833	1702.7404	50144.85	49255.6
906.5246	1704.461	49939.55	49045.95
906.666	1706.1808	50162.1	49269.65
906.8073	1707.8999	49966.5	49076.5
906.9487	1709.6182	49812	48922.3
907.09	1711.3358	49755.6	48865.5
907.2313	1713.0527	49660.45	48772.05
907.3725	1714.7688	49585.9	48690.9
907.5138	1716.4841	49244.7	48351.9
907.655	1718.1987	49338.2	48441.15
907.7962	1719.9126	49222.3	48333.85
907.9374	1721.6257	49214.6	48324.05
908.0786	1723.338	49182.4	48291.5
908.2198	1725.0496	48693.15	47803
908.3609	1726.7605	48752.5	47861.55
908.502	1728.4706	48597.25	47707.9
908.6431	1730.18	48650.3	47761.2
908.7842	1731.8886	48472.8	47584.3
908.9253	1733.5964	48295.15	47399.05
909.0664	1735.3036	48433	47539.1
909.2074	1737.0099	48266.65	47377.2
909.3484	1738.7156	48033.4	47146.15
909.4894	1740.4204	47910.65	47019.2
909.6304	1742.1246	47965.05	47074.2
909.7714	1743.8279	47960.4	47072.35
909.9123	1745.5306	47935.1	47047.2
910.0532	1747.2325	47390.15	46501.2
910.1941	1748.9336	47376.5	46486.2
910.335	1750.634	47377.25	46485.4
910.4759	1752.3336	47476.35	46585.7
910.6168	1754.0325	47112.7	46226.4
910.7576	1755.7307	47361.5	46473.95
910.8984	1757.4281	46971.5	46081.3
911.0392	1759.1247	47276.15	46379.7
911.18	1760.8206	46755.25	45859.05
911.3208	1762.5158	46756.3	45862
911.4615	1764.2102	46807.1	45916.95
911.6022	1765.9039	46599.4	45712.55
911.7429	1767.5968	46458.95	45572.85
911.8836	1769.289	46352.7	45464.3
912.0243	1770.9804	46416.55	45527.75
912.1649	1772.6711	46302.8	45412
912.3056	1774.361	46167.05	45274.8
912.4462	1776.0502	46144.8	45255
912.5868	1777.7386	45797.65	44904.45
912.7274	1779.4263	45915.05	45026.35
912.8679	1781.1132	45912	45023.8
913.0084	1782.7994	45739.6	44851.3
913.149	1784.4849	45731.2	44844.15
913.2895	1786.1696	45315.95	44421.7
913.4299	1787.8535	45457.75	44570.6
913.5704	1789.5367	45417.85	44531.25
913.7108	1791.2192	45167.9	44281.5
913.8513	1792.9009	45011.1	44093.9
913.9917	1794.5818	45104.25	44213.45
914.132	1796.2621	44870.8	43982.1
914.2724	1797.9415	44853.45	43963
914.4128	1799.6202	44741	43850.2
914.5531	1801.2982	44703.75	43814.6
914.6934	1802.9755	44445.7	43555.15
914.8337	1804.6519	44390.45	43500.8
914.9739	1806.3277	44538.95	43651.15
915.1142	1808.0027	44037.45	43150.55
915.2544	1809.6769	44191.7	43308.35
915.3946	1811.3504	44172.2	43284.9
915.5348	1813.0231	43735.4	42846.65
915.675	1814.6951	43890.6	43004.2
915.8151	1816.3664	43750.45	42859.7
915.9553	1818.0369	43735.65	42846.7
916.0954	1819.7067	43564.3	42677
916.2355	1821.3757	43738	42847.8
916.3755	1823.044	43370.5	42481.1
916.5156	1824.7115	43215.4	42325.65
916.6556	1826.3783	43186.25	42295.65
916.7956	1828.0443	43181.15	42291.4
916.9356	1829.7096	43041.05	42151.7
917.0756	1831.3741	42816.45	41925.2
917.2155	1833.0379	42897.4	42011.9
917.3555	1834.701	42810.15	41923.25
917.4954	1836.3633	42576.95	41689.95
917.6353	1838.0248	42588.1	41700.95
917.7751	1839.6856	42537.85	41649.9
917.915	1841.3457	42361.1	41475.05
918.0548	1843.005	42478.2	41590.1
918.1946	1844.6636	42284.15	41397.45
918.3344	1846.3214	41941.95	41053.8
918.4742	1847.9785	41991.5	41104.1
918.6139	1849.6349	41926.2	41035.8
918.7537	1851.2904	42048.75	41148.65
918.8934	1852.9453	41712.95	40822.65
919.0331	1854.5994	41763.15	40872.05
919.1727	1856.2528	41737.8	40842.95
919.3124	1857.9054	41489.6	40601.1
919.452	1859.5572	41419.6	40535.2
919.5916	1861.2083	41435.9	40544.3
919.7312	1862.8587	41580.2	40693.15
919.8708	1864.5084	41024.05	40133.2
920.0103	1866.1572	41173	40283.2
920.1498	1867.8054	40828.95	39940.75
920.2893	1869.4528	41011.5	40120.55
920.4288	1871.0994	40688.7	39799.1
920.5683	1872.7453	40700.1	39810.8
920.7077	1874.3905	40681.2	39787.3
920.8471	1876.0349	40428	39539.8
920.9865	1877.6786	40587.55	39699.65
921.1259	1879.3215	40374.8	39485.35
921.2653	1880.9637	40444.05	39554.85
921.4046	1882.6051	40280.05	39392.45
921.5439	1884.2458	40085.6	39196.15
921.6832	1885.8858	39921.3	39031.95
921.8225	1887.525	39941.85	39050.8
921.9617	1889.1634	39771.15	38882.4
922.101	1890.8011	39696.8	38808
922.2402	1892.4381	39438.7	38552.55
922.3794	1894.0743	39595.65	38709.95
922.5185	1895.7098	39446.15	38558.25
922.6577	1897.3446	39276.85	38387.15
922.7968	1898.9786	39246.15	38353.3
922.9359	1900.6118	39115.5	38226.1
923.075	1902.2443	38898.05	38007.65
923.214	1903.8761	38960.3	38071.55
923.3531	1905.5071	38686.95	37800
923.4921	1907.1374	38483.3	37595.6
923.6311	1908.7669	38497.6	37608.8
923.77	1910.3957	38522.65	37634.65
923.909	1912.0237	38215.1	37327.8
924.0479	1913.651	38124.15	37232.6
924.1868	1915.2776	38004.45	37119.05
924.3257	1916.9034	37897.5	37011.05
924.4646	1918.5285	37772.7	36885.85
924.6034	1920.1528	37642.45	36754.15
924.7422	1921.7764	37522.6	36633.9
924.881	1923.3992	37418.45	36530.65
925.0198	1925.0213	37190.9	36305.35
925.1586	1926.6427	37042.95	36156.05
925.2973	1928.2633	37175.05	36075.7
925.436	1929.8832	36898.75	36007.2
925.5747	1931.5023	36725.75	35838.4
925.7134	1933.1207	36561.7	35674.15
925.852	1934.7383	36587.5	35698.55
925.9906	1936.3552	36395.3	35508.7
926.1292	1937.9714	36354.95	35467.1
926.2678	1939.5868	36250.3	35362.15
926.4064	1941.2015	36023.7	35133.4
926.5449	1942.8154	35853.9	34964.3
926.6834	1944.4286	35700.85	34812.45
926.8219	1946.041	35667.5	34754
926.9604	1947.6528	35457.4	34563.4
927.0988	1949.2637	35360.7	34473.4
927.2372	1950.8739	35227.45	34340.55
927.3756	1952.4834	35159.9	34273.6
927.514	1954.0921	35115	34226
927.6523	1955.7001	34939.5	34051.15
927.7907	1957.3074	34937.05	34051.75
927.929	1958.9139	34685.3	33801.4
928.0673	1960.5197	34637.25	33749.25
928.2055	1962.1247	34454.8	33568.75
928.3438	1963.729	34292.7	33410.5
928.482	1965.3325	34194.1	33286.15
928.6202	1966.9353	34085.7	33202.55
928.7584	1968.5374	33937.6	33051.05
928.8965	1970.1387	33848.7	32962.3
929.0346	1971.7393	33770.65	32886.15
929.1727	1973.3392	33715.5	32830.15
929.3108	1974.9383	33547.85	32661.9
929.4489	1976.5366	33365.5	32481.6
929.5869	1978.1342	33337.05	32450.25
929.7249	1979.7311	33247.5	32364.1
929.8629	1981.3273	33171.1	32287.7
930.0009	1982.9227	33036.8	32149.4
930.1388	1984.5173	32924.95	32041.5
930.2767	1986.1112	32807.15	31924.05
930.4146	1987.7044	32784.5	31900.85
930.5525	1989.2968	32604.8	31717.2
930.6904	1990.8885	32578.05	31690.9
930.8282	1992.4795	32498.9	31614.1
930.966	1994.0697	32351.9	31468.4
931.1038	1995.6592	32247.2	31363
931.2415	1997.2479	32199.3	31315.45
931.3793	1998.8359	32064.7	31183.45
931.517	2000.4232	31925	31043.4
931.6547	2002.0097	31846.2	30965.6
931.7923	2003.5955	31670.35	30788.7
931.93	2005.1805	31692.5	30807.75
932.0676	2006.7648	31581.8	30699.05
932.2052	2008.3484	31465.05	30580.6
932.3427	2009.9312	31525.95	30640.75
932.4803	2011.5133	31349.2	30468.9
932.6178	2013.0946	31230.95	30348.35
932.7553	2014.6752	31188.6	30307.6
932.8928	2016.2551	31112.35	30230.1
933.0302	2017.8342	30974.2	30093.45
933.1676	2019.4126	30862.65	29980.75
933.305	2020.9902	30687.4	29809.15
933.4424	2022.5672	30648.7	29765.1
933.5798	2024.1433	30581.45	29695.05
933.7171	2025.7188	30460.6	29580.55
933.8544	2027.2935	30377.05	29496.85
933.9917	2028.8674	30260.55	29380.8
934.129	2030.4406	30160.95	29282.3
934.2662	2032.0131	30068.35	29188.45
934.4034	2033.5849	29990.2	29102.25
934.5406	2035.1559	29877.4	28997.95
934.6778	2036.7261	29846.2	28965.05
934.8149	2038.2957	29759.6	28876.05
934.952	2039.8645	29713.55	28828.95
935.0891	2041.4325	29697.7	28812.15
935.2262	2042.9998	29576.3	28694.75
935.3632	2044.5664	29502.6	28619.3
935.5002	2046.1323	29402.35	28522.6
935.6372	2047.6974	29314.8	28433.5
935.7742	2049.2617	29259.25	28380.55
935.9111	2050.8254	29224.5	28339.1
936.048	2052.3883	29161.35	28279.1
936.1849	2053.9504	29019.8	28137.15
936.3218	2055.5118	28933.75	28053.35
936.4586	2057.0725	28773.8	27888
936.5955	2058.6325	28737.05	27855.65
936.7323	2060.1917	28655.2	27774.3
936.869	2061.7502	28567.75	27684.2
937.0058	2063.3079	28463.5	27583.95
937.1425	2064.8649	28387.65	27505.55
937.2792	2066.4212	28323.2	27440.9
937.4159	2067.9767	28213.1	27331.75
937.5525	2069.5315	28145.95	27264.45
937.6891	2071.0856	27993.65	27110.85
937.8257	2072.6389	27896.1	27013.95
937.9623	2074.1915	27778.4	26898.35
938.0989	2075.7433	27658.85	26774.75
938.2354	2077.2945	27585.95	26706.95
938.3719	2078.8448	27498.95	26614.55
938.5084	2080.3945	27438.6	26556.6
938.6448	2081.9434	27374.5	26491.8
938.7812	2083.4916	27291.95	26406.4
938.9176	2085.039	27194.9	26308.95
939.054	2086.5857	27138.3	26251.9
939.1903	2088.1317	27070.75	26185.3
939.3267	2089.677	27003.25	26115.65
939.463	2091.2215	26886.3	25998.85
939.5992	2092.7652	26812.95	25924.55
939.7355	2094.3083	26743.7	25858.75
939.8717	2095.8506	26707.6	25822.95
940.0079	2097.3921	26680.35	25798.75
940.1441	2098.933	26581.4	25697.65
940.2802	2100.4731	26513.3	25630.3
940.4163	2102.0124	26508.15	25607
940.5524	2103.5511	26408.35	25524.35
940.6885	2105.089	26337.95	25451.55
940.8245	2106.6261	26296.5	25413.15
940.9606	2108.1626	26226.7	25343.15
941.0965	2109.6983	26206.3	25293.2
941.2325	2111.2332	26090	25205.9
941.3684	2112.7675	26019.5	25132.15
941.5044	2114.301	25943.1	25057.3
941.6403	2115.8337	25933.65	25050.5
941.7761	2117.3657	25863.25	24978.65
941.912	2118.897	25785.75	24899.55
942.0478	2120.4276	25677.5	24787.2
942.1835	2121.9575	25585.7	24701.75
942.3193	2123.4866	25561.6	24662.25
942.455	2125.0149	25507.4	24619.5
942.5907	2126.5426	25307.7	24425.85
942.7264	2128.0695	25323.25	24437
942.8621	2129.5956	25260	24379.35
942.9977	2131.1211	25140.4	24256.05
943.1333	2132.6458	25100.85	24219.5
943.2689	2134.1698	25051.45	24166.5
943.4044	2135.693	25003.75	24116.35
943.54	2137.2155	24907.7	24020.75
943.6755	2138.7373	24860.6	23976.5
943.8109	2140.2584	24811.45	23930.4
943.9464	2141.7787	24741.85	23852.6
944.0818	2143.2983	24604.9	23726.75
944.2172	2144.8171	24496.2	23617.25
944.3526	2146.3353	24452.5	23569.45
944.4879	2147.8527	24342.15	23461.3
944.6232	2149.3693	24326.6	23441.85
944.7585	2150.8853	24176.85	23291.6
944.8938	2152.4005	24066.15	23179.65
945.029	2153.9149	24055.95	23168.7
945.1642	2155.4287	24000.8	23117.2
945.2994	2156.9417	23920.9	23034.8
945.4346	2158.454	23868.5	22983.85
945.5697	2159.9655	23795.8	22911.7
945.7048	2161.4764	23770.95	22888.45
945.8399	2162.9865	23690.85	22809.1
945.9749	2164.4958	23627.35	22744.25
946.1099	2166.0045	23521.45	22635.8
946.2449	2167.5124	23502.75	22619.95
946.3799	2169.0195	23427.65	22543.9
946.5148	2170.526	23398.3	22513.5
946.6498	2172.0317	23279.85	22395.6
946.7846	2173.5367	23244.15	22358.9
946.9195	2175.0409	23183.9	22300.4
947.0543	2176.5445	23109.7	22226.85
947.1891	2178.0473	23045.1	22160.45
947.3239	2179.5494	22967.65	22080.45
947.4587	2181.0507	22867.75	21982.95
947.5934	2182.5513	22823.05	21938.65
947.7281	2184.0512	22739.45	21852.35
947.8628	2185.5504	22699.4	21818
947.9974	2187.0488	22577.05	21693.9
948.132	2188.5465	22521.4	21640.1
948.2666	2190.0435	22397.9	21513.65
948.4012	2191.5397	22323.15	21441.2
948.5357	2193.0353	22280	21396.3
948.6702	2194.5301	22191.3	21305.5
948.8047	2196.0241	22078.25	21190.8
948.9392	2197.5175	22052.25	21167.05
949.0736	2199.0101	21943.9	21053.1
949.208	2200.502	21838.85	20956.45
949.3424	2201.9931	21797.85	20914.25
949.4767	2203.4835	21689.25	20804.35
949.611	2204.9733	21710.25	20820.35
949.7453	2206.4622	21618.85	20737.95
949.8796	2207.9505	21528.3	20644.15
950.0138	2209.438	21362.45	20482.05
950.148	2210.9248	21340.6	20456.6
950.2822	2212.4109	21268.35	20385.85
950.4164	2213.8962	21224.6	20336.4
950.5505	2215.3809	21142.4	20254.95
950.6846	2216.8648	21179.8	20293.7
950.8186	2218.3479	21064.1	20173
950.9527	2219.8304	20979.3	20089.6
951.0867	2221.3121	20913.7	20025.85
951.2207	2222.7931	20845.7	19959.2
951.3546	2224.2733	20774.45	19887.6
951.4886	2225.7529	20684.6	19798.05
951.6225	2227.2317	20649	19762.9
951.7563	2228.7098	20597.4	19713.5
951.8902	2230.1872	20442	19560.8
952.024	2231.6638	20436.55	19554.6
952.1578	2233.1397	20387.35	19498.95
952.2916	2234.6149	20312.9	19431.15
952.4253	2236.0894	20213.9	19329.25
952.559	2237.5632	20205.2	19320.1
952.6927	2239.0362	20084.8	19200.4
952.8263	2240.5085	20062.55	19179.1
952.9599	2241.9801	19950.45	19064.85
953.0935	2243.4509	19910.15	19024.3
953.2271	2244.921	19828.8	18943.6
953.3606	2246.3904	19754.65	18865.9
953.4941	2247.8591	19700.25	18814.8
953.6276	2249.3271	19640.9	18757.3
953.7611	2250.7943	19605.7	18720.55
953.8945	2252.2608	19519.25	18632.55
954.0279	2253.7266	19460.55	18575.85
954.1612	2255.1917	19386.65	18501.5
954.2946	2256.656	19311.2	18426.75
954.4279	2258.1197	19256.15	18374.7
954.5612	2259.5826	19205.6	18320.7
954.6944	2261.0447	19207.85	18320.85
954.8276	2262.5062	19078.2	18190.55
954.9608	2263.9669	19066.3	18177.85
955.094	2265.4269	19024.1	18140
955.2271	2266.8862	18947.3	18062.3
955.3602	2268.3448	18884.35	17999.6
955.4933	2269.8026	18869.65	17984.4
955.6264	2271.2598	18765.4	17883.45
955.7594	2272.7162	18709.75	17828.25
955.8924	2274.1719	18702.65	17817.55
956.0253	2275.6268	18623.55	17735.7
956.1583	2277.0811	18602.9	17716.2
956.2912	2278.5346	18532.1	17649.15
956.4241	2279.9874	18479.5	17597.7
956.5569	2281.4395	18484.3	17602.65
956.6897	2282.8908	18358.95	17472
956.8225	2284.3414	18310.1	17423.6
956.9553	2285.7914	18250.6	17365.85
957.088	2287.2406	18212.15	17326.9
957.2207	2288.689	18183.95	17297.65
957.3534	2290.1368	18130.7	17242.95
957.486	2291.5838	18056.45	17168.05
957.6186	2293.0302	18000.85	17112
957.7512	2294.4758	17917.8	17031
957.8838	2295.9206	17866.55	16978.55
958.0163	2297.3648	17805.05	16919.8
958.1488	2298.8082	17754.55	16869.9
958.2813	2300.251	17706.75	16821.55
958.4137	2301.693	17671.85	16784.55
958.5461	2303.1343	17668.3	16782.6
958.6785	2304.5748	17586.1	16701.85
958.8108	2306.0147	17511.15	16627.75
958.9432	2307.4538	17463.3	16577.25
959.0754	2308.8922	17418.45	16537.65
959.2077	2310.3299	17355.75	16471.45
959.3399	2311.7669	17304.05	16420.05
959.4721	2313.2031	17234.95	16351.7
959.6043	2314.6387	17165.5	16279.1
959.7365	2316.0735	17103.85	16219.95
959.8686	2317.5076	17085.95	16199.35
960.0006	2318.941	17055.9	16170.9
960.1327	2320.3737	16975.25	16090.05
960.2647	2321.8056	16945.75	16057.45
960.3967	2323.2369	16915.75	16029.35
960.5287	2324.6674	16849.75	15964.2
960.6606	2326.0972	16784	15896.55
960.7925	2327.5263	16693.85	15810.75
960.9244	2328.9547	16652.75	15765.95
961.0562	2330.3823	16652.75	15768.2
961.1881	2331.8092	16606.6	15715.25
961.3198	2333.2355	16517.55	15630.65
961.4516	2334.661	16497.5	15610.85
961.5833	2336.0858	16480.2	15592.25
961.715	2337.5098	16411.3	15525.25
961.8467	2338.9332	16400.5	15516.05
961.9783	2340.3558	16302.65	15412.95
962.1099	2341.7778	16257.35	15372.9
962.2415	2343.199	16203	15316.05
962.373	2344.6195	16146.25	15263.4
962.5045	2346.0393	16130.25	15246.65
962.636	2347.4583	16075.1	15190.25
962.7675	2348.8767	16015.4	15128.15
962.8989	2350.2943	15977.7	15089.5
963.0303	2351.7113	15928.2	15042.1
963.1617	2353.1275	15880.85	14991.75
963.293	2354.543	15826.45	14929.75
963.4243	2355.9578	15774.15	14888.3
963.5556	2357.3718	15697.95	14813.45
963.6868	2358.7852	15641.95	14754.1
963.818	2360.1978	15574.3	14686.25
963.9492	2361.6098	15565	14682
964.0803	2363.021	15493.95	14604.25
964.2114	2364.4315	15479.2	14594
964.3425	2365.8413	15420.9	14531.8
964.4736	2367.2504	15367.9	14483.1
964.6046	2368.6587	15280.25	14396.75
964.7356	2370.0664	15219.05	14333.3
964.8666	2371.4733	15158.55	14272.55
964.9975	2372.8795	15150.5	14264.75
965.1284	2374.285	15084.5	14202.15
965.2593	2375.6899	14973.45	14089.95
965.3901	2377.0939	14939.2	14055.05
965.5209	2378.4973	14879.7	13995.1
965.6517	2379.9	14861.55	13976.7
965.7825	2381.3019	14799	13916.45
965.9132	2382.7032	14763.5	13879.8
966.0439	2384.1037	14718.75	13837.15
966.1745	2385.5035	14644.4	13760.9
966.3051	2386.9027	14587.05	13702.45
966.4357	2388.3011	14579.45	13693.5
966.5663	2389.6987	14551.55	13667
966.6968	2391.0957	14464.35	13582.8
966.8273	2392.492	14407.65	13523.7
966.9578	2393.8876	14341.5	13457.2
967.0882	2395.2824	14285.95	13401.55
967.2186	2396.6765	14267.55	13382.9
967.349	2398.07	14180.55	13295.4
967.4793	2399.4627	14145.45	13257.6
967.6097	2400.8547	14110.7	13225.45
967.7399	2402.246	14060.2	13170.55
967.8702	2403.6366	13978.95	13092.2
968.0004	2405.0265	13947.85	13062.4
968.1306	2406.4156	13864	12975.8
968.2607	2407.8041	13803.25	12916.6
968.3909	2409.1918	13796	12909.8
968.521	2410.5789	13716.55	12830.95
968.651	2411.9652	13654.8	12768.35
968.781	2413.3508	13598.1	12713.6
968.911	2414.7358	13569.45	12683.15
969.041	2416.12	13505.25	12620.95
969.1709	2417.5035	13491.8	12607.7
969.3008	2418.8863	13453.25	12567.75
969.4307	2420.2684	13383.8	12498.05
969.5606	2421.6497	13346.2	12460.6
969.6904	2423.0304	13272.25	12388.25
969.8201	2424.4104	13203.9	12318.8
969.9499	2425.7896	13172.95	12286.95
970.0796	2427.1682	13149.9	12268.45
970.2093	2428.546	13116.35	12230.1
970.3389	2429.9232	13078.45	12192.05
970.4685	2431.2996	13033.75	12149.85
970.5981	2432.6753	12994.25	12108.45
970.7277	2434.0503	13011.2	12123.5
970.8572	2435.4246	12926.5	12042.9
970.9867	2436.7982	12856.9	11970.3
971.1161	2438.1711	12837.4	11953.4
971.2456	2439.5433	12797.7	11912.5
971.375	2440.9148	12742.1	11856.85
971.5043	2442.2856	12675.4	11790.25
971.6336	2443.6557	12646.3	11761.15
971.7629	2445.025	12612.6	11725.55
971.8922	2446.3937	12565.35	11679.6
972.0214	2447.7617	12524.85	11638.45
972.1506	2449.1289	12508.65	11622.7
972.2798	2450.4955	12480.4	11592.95
972.4089	2451.8613	12423	11538.55
972.538	2453.2265	12414.6	11527.95
972.6671	2454.5909	12356.8	11469.95
972.7961	2455.9546	12321.8	11438.45
972.9251	2457.3177	12284.15	11399.7
973.0541	2458.68	12247.85	11360.75
973.1831	2460.0416	12228.45	11344
973.312	2461.4025	12205.3	11320.25
973.4408	2462.7627	12155.65	11261.05
973.5697	2464.1222	12108.7	11226.45
973.6985	2465.4811	12086.65	11202.45
973.8273	2466.8392	12056.25	11171.75
973.956	2468.1966	11989.45	11100.8
974.0847	2469.5533	11991.75	11104.5
974.2134	2470.9093	11961.2	11076.4
974.3421	2472.2645	11890.6	10999.95
974.4707	2473.6191	11906.7	11023.9
974.5993	2474.973	11834.8	10948.05
974.7278	2476.3262	11805.4	10919.65
974.8563	2477.6787	11728.65	10846.8
974.9848	2479.0305	11650.55	10766.35
975.1132	2480.3816	11636.7	10750.75
975.2417	2481.7319	11609.95	10724.1
975.37	2483.0816	11575.05	10688.25
975.4984	2484.4306	11531.35	10645.75
975.6267	2485.7789	11468.85	10587.2
975.755	2487.1264	11426.7	10540
975.8833	2488.4733	11385.9	10504
976.0115	2489.8195	11349.45	10458.4
976.1397	2491.165	11301.1	10413.6
976.2678	2492.5097	11265.15	10380.3
976.3959	2493.8538	11230.3	10346.9
976.524	2495.1972	11156.5	10270.55
976.6521	2496.5398	11120.3	10232.35
976.7801	2497.8818	11096	10210.2
976.9081	2499.2231	11074.3	10188.4
977.036	2500.5637	11023.25	10137.35
977.164	2501.9035	10994.15	10110.2
977.2918	2503.2427	10979.3	10091
977.4197	2504.5812	10934	10049.65
977.5475	2505.919	10910.65	10024.55
977.6753	2507.256	10871.6	9985.75
977.8031	2508.5924	10814.65	9930.35
977.9308	2509.9281	10796.55	9906.7
978.0585	2511.2631	10755.95	9871.85
978.1861	2512.5974	10741.55	9857.8
978.3137	2513.9309	10671.95	9787
978.4413	2515.2638	10649.25	9738.7
978.5689	2516.596	10619.9	9735.15
978.6964	2517.9275	10562	9677
978.8239	2519.2583	10493.4	9607.05
978.9513	2520.5884	10493.3	9606.35
979.0788	2521.9178	10450.5	9566.85
979.2062	2523.2465	10421.7	9538.5
979.3335	2524.5745	10357.1	9472.5
979.4608	2525.9018	10351.95	9468
979.5881	2527.2284	10315.3	9431.55
979.7154	2528.5543	10300.7	9417.65
979.8426	2529.8796	10280.15	9395.6
979.9698	2531.2041	10238.4	9352.85
980.0969	2532.5279	10219.35	9337.15
980.224	2533.851	10176	9290.55
980.3511	2535.1735	10163.8	9278.75
980.4781	2536.4952	10105.45	9218.85
980.6052	2537.8163	10110.5	9222.25
980.7321	2539.1366	10059.85	9175.55
980.8591	2540.4562	10031.6	9145.5
980.986	2541.7752	10048.35	9163.6
981.1129	2543.0935	10033.85	9146.85
981.2397	2544.411	9980.25	9092.75
981.3665	2545.7279	9955.85	9068.85
981.4933	2547.0441	9933.25	9046.4
981.62	2548.3596	9940	9052.3
981.7467	2549.6744	9903.4	9018.95
981.8734	2550.9885	9852.95	8960.75
982.0001	2552.3019	9826.85	8943.8
982.1267	2553.6146	9819.55	8934.15
982.2532	2554.9266	9775.95	8891.2
982.3798	2556.2379	9742.9	8857.15
982.5063	2557.5485	9724.05	8838.9
982.6327	2558.8585	9695.1	8802.05
982.7592	2560.1677	9688.6	8799.4
982.8856	2561.4762	9660.95	8777.25
983.0119	2562.7841	9625.25	8737.65
983.1383	2564.0913	9602.65	8718.3
983.2646	2565.3977	9594.7	8711.2
983.3908	2566.7035	9556.3	8669.55
983.517	2568.0086	9569.2	8681.9
983.6432	2569.313	9527.7	8642.4
983.7694	2570.6167	9528.55	8640
983.8955	2571.9197	9476.25	8592
984.0216	2573.222	9467.45	8577.5
984.1476	2574.5236	9464.2	8576.85
984.2737	2575.8246	9412.75	8523.8
984.3996	2577.1248	9426.85	8537.2
984.5256	2578.4244	9361.25	8475.3
984.6515	2579.7232	9360.55	8474.75
984.7774	2581.0214	9353.2	8443.2
984.9032	2582.3189	9298.55	8415.45
985.029	2583.6157	9295.25	8404.9
985.1548	2584.9118	9275.5	8389.7
985.2806	2586.2072	9256.8	8374.85
985.4063	2587.5019	9233.25	8349.15
985.5319	2588.7959	9212.45	8326.9
985.6576	2590.0893	9204.85	8318.05
985.7832	2591.3819	9143.7	8260.85
985.9087	2592.6739	9100.9	8217.25
986.0343	2593.9652	9078.2	8191.7
986.1597	2595.2557	9072.65	8187.15
986.2852	2596.5456	9021.25	8132.55
986.4106	2597.8348	8985.25	8100.9
986.536	2599.1234	8960.6	8077.6
986.6614	2600.4112	8919	8033.25
986.7867	2601.6983	8874.7	7988.4
986.912	2602.9848	8869.45	7984.7
987.0372	2604.2705	8857.9	7965.55
987.1624	2605.5556	8826.3	7942.15
987.2876	2606.84	8771.25	7886.65
987.4128	2608.1237	8742.9	7856.6
987.5379	2609.4067	8699.3	7814.4
987.6629	2610.689	8670.5	7776.05
987.788	2611.9707	8645.35	7756.95
987.913	2613.2516	8612.85	7722.9
988.0379	2614.5319	8577.05	7694.85
988.1629	2615.8115	8549.35	7663.95
988.2878	2617.0903	8525.35	7640.8
988.4126	2618.3685	8499.4	7615.8
988.5375	2619.6461	8435.8	7552.2
988.6622	2620.9229	8423.25	7539.3
988.787	2622.199	8418.35	7532.8
988.9117	2623.4745	8394.15	7507.95
989.0364	2624.7493	8349	7464.75
989.161	2626.0234	8339.25	7456.55
989.2857	2627.2968	8300.75	7413.75
989.4102	2628.5695	8262.2	7377.25
989.5348	2629.8415	8231.4	7348.95
989.6593	2631.1128	8195.05	7311.6
989.7837	2632.3835	8156.7	7271.3
989.9082	2633.6535	8115.5	7230.45
990.0326	2634.9228	8092.1	7208.25
990.1569	2636.1914	8071.9	7188.9
990.2812	2637.4593	8065.95	7177.2
990.4055	2638.7265	8025.6	7139.45
990.5298	2639.9931	7980.7	7097.5
990.654	2641.259	7967.45	7083.9
990.7782	2642.5242	7958	7071.8
990.9023	2643.7887	7927.6	7040.65
991.0264	2645.0525	7918.65	7034.85
991.1505	2646.3156	7860.55	6975.2
991.2745	2647.5781	7837.15	6954.25
991.3985	2648.8398	7813.15	6927
991.5225	2650.1009	7797.3	6906.2
991.6464	2651.3613	7800.05	6915.6
991.7703	2652.6211	7762.3	6878.1
991.8942	2653.8801	7728	6843.5
992.018	2655.1385	7715.8	6829.05
992.1418	2656.3961	7707.4	6823.8
992.2655	2657.6531	7691.2	6807.8
992.3892	2658.9094	7636.6	6751.45
992.5129	2660.1651	7617.6	6735.35
992.6366	2661.42	7599.05	6716.05
992.7602	2662.6743	7586.95	6704.65
992.8837	2663.9279	7568.95	6685.5
993.0073	2665.1808	7539.75	6654.7
993.1307	2666.433	7519.5	6637.3
993.2542	2667.6846	7509.75	6625
993.3776	2668.9354	7510	6621.75
993.501	2670.1856	7480	6595.3
993.6244	2671.4351	7442.4	6558.25
993.7477	2672.6839	7454	6570.3
993.8709	2673.9321	7406.05	6523.95
993.9942	2675.1795	7392	6508.8
994.1174	2676.4263	7367.45	6483.3
994.2405	2677.6724	7335.7	6452.15
994.3637	2678.9179	7314.65	6430.25
994.4868	2680.1626	7301.4	6416
994.6098	2681.4067	7279.65	6395.25
994.7328	2682.6501	7262.05	6376.8
994.8558	2683.8928	7229.9	6348.2
994.9788	2685.1348	7185.75	6303.95
995.1017	2686.3761	7165.75	6281.05
995.2245	2687.6168	7150.75	6266.25
995.3474	2688.8568	7118.05	6235.25
995.4702	2690.0961	7108.9	6226.05
995.5929	2691.3348	7111.85	6227.95
995.7156	2692.5727	7059.75	6173.6
995.8383	2693.81	7032.35	6149.25
995.961	2695.0466	7023.7	6140.1
996.0836	2696.2826	6996.6	6110.25
996.2062	2697.5178	6993.65	6108.85
996.3287	2698.7524	6960.2	6077.2
996.4512	2699.9863	6931.9	6045.55
996.5737	2701.2195	6923.8	6040.85
996.6961	2702.452	6894.55	6009.8
996.8185	2703.6839	6882.8	5997.45
996.9408	2704.9151	6859.25	5976.15
997.0631	2706.1456	6837.35	5953.2
997.1854	2707.3755	6817.35	5934.85
997.3077	2708.6046	6800.55	5914
997.4299	2709.8331	6794	5909.25
997.552	2711.0609	6751.5	5866.65
997.6742	2712.2881	6741.45	5856.9
997.7963	2713.5145	6734.4	5847.95
997.9183	2714.7403	6715.15	5830.8
998.0403	2715.9654	6680.4	5794.05
998.1623	2717.1899	6658.55	5773.05
998.2842	2718.4136	6656.6	5773.7
998.4062	2719.6367	6637.25	5754.85
998.528	2720.8591	6636.7	5746.75
998.6498	2722.0809	6580.5	5697.5
998.7716	2723.3019	6570	5682.3
998.8934	2724.5223	6573.95	5688
999.0151	2725.7421	6515.6	5631.5
999.1368	2726.9611	6536.75	5649.2
999.2584	2728.1795	6495.25	5607.8
999.38	2729.3972	6474.75	5592.75
999.5016	2730.6142	6455.7	5565.15
999.6231	2731.8306	6412.1	5528.15
999.7446	2733.0462	6376.1	5490.75
999.8661	2734.2612	6370.5	5481.75
999.9875	2735.4756	6338.7	5455.35
1000.1089	2736.6892	6295.5	5412.4
1000.2302	2737.9022	6247.4	5364.75
1000.3515	2739.1145	6224.1	5340.1
1000.4728	2740.3262	6197.65	5308.45
1000.594	2741.5372	6166.35	5285.2
1000.7152	2742.7475	6148	5262.35
1000.8363	2743.9571	6149.55	5263.25
1000.9575	2745.1661	6112.5	5223.3
1001.0785	2746.3744	6085.05	5201.7
1001.1996	2747.582	6075.5	5192.35
1001.3206	2748.7889	6032.7	5145.4
1001.4415	2749.9952	6012.7	5130.65
1001.5625	2751.2008	5995.5	5112.45
1001.6833	2752.4057	5986.75	5101.2
1001.8042	2753.61	5946.25	5061.5
1001.925	2754.8136	5935.9	5050.45
1002.0458	2756.0165	5912.55	5030.7
1002.1665	2757.2188	5883.4	5000.55
1002.2872	2758.4204	5856.1	4974.65
1002.4078	2759.6213	5843.25	4955
1002.5285	2760.8215	5842.6	4955.1
1002.649	2762.0211	5818.75	4931.9
1002.7696	2763.22	5790.6	4903.6
1002.8901	2764.4182	5783.35	4899.15
1003.0106	2765.6158	5772.8	4891.1
1003.131	2766.8127	5744.15	4860.95
1003.2514	2768.009	5716.45	4833.5
1003.3717	2769.2045	5717.35	4832.25
1003.492	2770.3994	5689.25	4804.65
1003.6123	2771.5936	5682.4	4795.65
1003.7325	2772.7872	5661.35	4780.3
1003.8527	2773.9801	5595.6	4710.95
1003.9729	2775.1723	5590.65	4690.95
1004.093	2776.3639	5565.2	4684
1004.2131	2777.5548	5557.55	4673.1
1004.3331	2778.745	5542.95	4660.7
1004.4531	2779.9346	5539.2	4657.1
1004.5731	2781.1235	5525.3	4641.3
1004.693	2782.3117	5504.1	4621.35
1004.8129	2783.4992	5498.1	4615.75
1004.9328	2784.6861	5461.05	4577.75
1005.0526	2785.8723	5466.95	4584.05
1005.1723	2787.0579	5440.7	4556.7
1005.2921	2788.2428	5422.4	4540.5
1005.4118	2789.427	5400.35	4518.55
1005.5314	2790.6106	5391.85	4508.9
1005.651	2791.7935	5378.95	4497.25
1005.7706	2792.9757	5359.65	4478.8
1005.8902	2794.1573	5343.05	4458.2
1006.0097	2795.3382	5337.1	4455
1006.1291	2796.5184	5311.25	4428.65
1006.2485	2797.698	5294.2	4410.7
1006.3679	2798.8769	5285.35	4404.75
1006.4873	2800.0551	5292.35	4409.35
1006.6066	2801.2327	5286.2	4401
1006.7258	2802.4096	5246.3	4365.7
1006.8451	2803.5859	5247.9	4365.5
1006.9642	2804.7615	5254.25	4371.8
1007.0834	2805.9364	5245.3	4361.75
1007.2025	2807.1106	5246.75	4365.25
1007.3216	2808.2842	5255.3	4369.5
1007.4406	2809.4572	5235.3	4353.15
1007.5596	2810.6294	5259.7	4376.7
1007.6785	2811.801	5267	4386.9
1007.7975	2812.972	5294	4412.65
1007.9163	2814.1423	5288.85	4406.15
1008.0352	2815.3119	5310.4	4429.1
1008.154	2816.4808	5318.7	4438.55
1008.2727	2817.6491	5338.1	4453.1
1008.3914	2818.8167	5352.85	4471.95
1008.5101	2819.9837	5385.1	4499.3
1008.6288	2821.15	5380.7	4500.1
1008.7474	2822.3157	5397.4	4514.05
1008.8659	2823.4807	5439.4	4555.9
1008.9844	2824.645	5477.2	4594.1
1009.1029	2825.8086	5496	4615.6
1009.2214	2826.9716	5506.45	4627.15
1009.3398	2828.134	5538.05	4656.3
1009.4581	2829.2957	5550.6	4667.85
1009.5764	2830.4567	5578.95	4698.85
1009.6947	2831.617	5566.25	4685.4
1009.813	2832.7767	5557.35	4676.15
1009.9312	2833.9358	5548.9	4667.65
1010.0493	2835.0941	5550.25	4665.2
1010.1675	2836.2519	5527.05	4644.25
1010.2855	2837.4089	5507.65	4625.1
1010.4036	2838.5653	5497.7	4617.15
1010.5216	2839.7211	5485.65	4606.5
1010.6396	2840.8761	5459.75	4575.5
1010.7575	2842.0306	5459.1	4579.15
1010.8754	2843.1843	5458.2	4574.35
1010.9932	2844.3374	5481.9	4599.2
1011.111	2845.4899	5482.95	4600.95
1011.2288	2846.6417	5519.55	4636
1011.3465	2847.7928	5549	4665.5
1011.4642	2848.9433	5567.9	4686.9
1011.5818	2850.0931	5594.6	4713.5
1011.6995	2851.2422	5644.1	4762.5
1011.817	2852.3907	5672.15	4789.35
1011.9345	2853.5385	5684.65	4802.4
1012.052	2854.6857	5706.35	4814.65
1012.1695	2855.8323	5723.2	4842.9
1012.2869	2856.9781	5760.45	4879.1
1012.4042	2858.1233	5768.45	4885.75
1012.5216	2859.2679	5773.25	4891.7
1012.6389	2860.4118	5798.65	4915.25
1012.7561	2861.555	5831.45	4945.6
1012.8733	2862.6976	5838.8	4956.3
1012.9905	2863.8395	5838.7	4957.5
1013.1076	2864.9808	5864.35	4982
1013.2247	2866.1214	5845.45	4966.05
1013.3417	2867.2614	5852.65	4970.25
1013.4587	2868.4007	5862.25	4979.7
1013.5757	2869.5393	5830.3	4945.2
1013.6926	2870.6773	5824.25	4939.55
1013.8095	2871.8146	5836.2	4950.5
1013.9263	2872.9513	5824.5	4941.85
1014.0431	2874.0874	5791.65	4908.65
1014.1599	2875.2227	5788.4	4907.15
1014.2766	2876.3574	5757.4	4876.9
1014.3933	2877.4915	5718.6	4839.45
1014.51	2878.6249	5667.7	4787.15
1014.6266	2879.7577	5648.8	4768
1014.7431	2880.8898	5618.25	4727.8
1014.8596	2882.0212	5597.15	4716.7
1014.9761	2883.152	5571.4	4689.8
1015.0925	2884.2821	5546.95	4665.95
1015.2089	2885.4116	5521.4	4642.45
1015.3253	2886.5405	5528.75	4649.15
1015.4416	2887.6686	5521.6	4636.75
1015.5579	2888.7962	5497.8	4618.5
1015.6741	2889.923	5497.6	4615.55
1015.7903	2891.0493	5481.05	4600.35
1015.9065	2892.1748	5472.05	4592.1
1016.0226	2893.2997	5468.4	4585.85
1016.1387	2894.424	5467	4587.3
1016.2547	2895.5476	5455.05	4574.85
1016.3707	2896.6706	5466.35	4586.05
1016.4866	2897.7929	5462.9	4581.05
1016.6025	2898.9145	5473.6	4591.9
1016.7184	2900.0355	5478.25	4598.3
1016.8342	2901.1559	5467.45	4585.7
1016.95	2902.2756	5479.35	4599.25
1017.0658	2903.3946	5492.65	4610.1
1017.1815	2904.513	5497.5	4613.35
1017.2971	2905.6308	5499.6	4618.65
1017.4127	2906.7479	5500.8	4617.15
1017.5283	2907.8643	5492.7	4609.7
1017.6439	2908.9801	5498.2	4617.6
1017.7594	2910.0953	5496.7	4613.45
1017.8748	2911.2098	5463.3	4578.45
1017.9902	2912.3236	5465.2	4575.3
1018.1056	2913.4368	5432.15	4548.2
1018.2209	2914.5494	5406.1	4525.55
1018.3362	2915.6613	5368.15	4481.2
1018.4515	2916.7725	5342.2	4459.2
1018.5667	2917.8831	5330.1	4447.55
1018.6819	2918.9931	5281.75	4398
1018.797	2920.1024	5256.25	4373.45
1018.9121	2921.211	5223.05	4340.7
1019.0271	2922.319	5211.2	4331.85
1019.1421	2923.4264	5188.05	4306.4
1019.2571	2924.5331	5182.85	4305.55
1019.372	2925.6391	5148.25	4267.8
1019.4869	2926.7445	5157.1	4278.25
1019.6017	2927.8493	5141.25	4259.65
1019.7165	2928.9534	5141.8	4259.95
1019.8313	2930.0569	5124.55	4239.45
1019.946	2931.1597	5112.95	4230.6
1020.0606	2932.2619	5107.75	4226.65
1020.1753	2933.3634	5102.9	4221.6
1020.2899	2934.4643	5096.85	4208.8
1020.4044	2935.5645	5074.1	4186.45
1020.5189	2936.6641	5043.6	4158.95
1020.6334	2937.763	4997.95	4118.45
1020.7478	2938.8613	4974.7	4094.3
1020.8622	2939.959	4934.65	4048.25
1020.9765	2941.056	4893.2	4013.45
1021.0908	2942.1523	4820.75	3939.5
1021.2051	2943.248	4757.2	3877.6
1021.3193	2944.3431	4697	3816.85
1021.4334	2945.4375	4601.6	3721.35
1021.5476	2946.5313	4532.75	3654.65
1021.6617	2947.6244	4451.45	3571.95
1021.7757	2948.7169	4394.25	3513.4
1021.8897	2949.8087	4322.7	3441.3
1022.0037	2950.8999	4243.6	3361.25
1022.1176	2951.9904	4186.75	3307.3
1022.2315	2953.0803	4129.1	3246.75
1022.3453	2954.1696	4071.45	3188.8
1022.4591	2955.2582	4023.1	3142.85
1022.5728	2956.3462	3985.15	3105.3
1022.6865	2957.4335	3953.65	3071.2
1022.8002	2958.5202	3907.1	3024.95
1022.9138	2959.6062	3875.15	2994.55
1023.0274	2960.6916	3856.25	2977.7
1023.141	2961.7764	3819.9	2939.8
1023.2545	2962.8605	3819.95	2938.1
1023.3679	2963.9439	3804.35	2924.35
1023.4813	2965.0267	3776.5	2893.85
1023.5947	2966.1089	3764.5	2860.4
1023.708	2967.1905	3752.05	2872.2
1023.8213	2968.2714	3724.05	2842.5
1023.9346	2969.3516	3719.95	2840.95
1024.0478	2970.4312	3714.4	2826.55
1024.1609	2971.5102	3719.55	2839.45
1024.274	2972.5885	3697.95	2819.35
1024.3871	2973.6662	3681.05	2794.65
1024.5002	2974.7432	3678.2	2796.55
1024.6132	2975.8196	3645.6	2764.7
1024.7261	2976.8954	3643.45	2763.45
1024.839	2977.9705	3647.5	2767.25
1024.9519	2979.045	3609.45	2729.6
1025.0647	2980.1188	3597.35	2715.3
1025.1775	2981.192	3560.55	2682.05
1025.2902	2982.2645	3549.6	2667.35
1025.4029	2983.3364	3528.9	2648.75
1025.5156	2984.4077	3496.05	2615.3
1025.6282	2985.4783	3476.35	2590.4
1025.7407	2986.5483	3438.65	2559
1025.8532	2987.6177	3408.55	2527.45
1025.9657	2988.6864	3395.2	2514.55
1026.0782	2989.7545	3369.8	2487.2
1026.1906	2990.8219	3328.9	2449.75
1026.3029	2991.8887	3307.25	2424.4
1026.4152	2992.9548	3284.7	2404.75
1026.5275	2994.0204	3249.2	2369.3
1026.6397	2995.0852	3209.7	2330.95
1026.7519	2996.1495	3183.65	2299.95
1026.864	2997.2131	3160.15	2280.4
1026.9761	2998.276	3147.1	2264.95
1027.0882	2999.3383	3139.25	2258.7
1027.2002	3000.4	3094.2	2214
1027.3122	3001.4611	3083.7	2199.95
1027.4241	3002.5215	3065.4	2185.5
1027.536	3003.5812	3042.2	2163
1027.6478	3004.6404	3027.95	2149
1027.7596	3005.6989	3012.6	2130
1027.8714	3006.7567	2998.85	2117.75
1027.9831	3007.8139	3011.55	2099.15
1028.0947	3008.8705	2966.3	2086.1
1028.2064	3009.9264	2964.95	2080.15
1028.3179	3010.9818	2950.45	2070.8
1028.4295	3012.0364	2939	2058.6
1028.541	3013.0905	2923.85	2043
1028.6524	3014.1439	2913.9	2034.4
1028.7638	3015.1966	2898	2018.45
1028.8752	3016.2487	2897	2018.8
1028.9865	3017.3002	2887.75	2003.7
1029.0978	3018.3511	2889.25	2010.65
1029.209	3019.4013	2880.25	1997.95
1029.3202	3020.4509	2860.7	1981.85
1029.4314	3021.4998	2863.2	1981
1029.5425	3022.5481	2851.2	1971.9
1029.6535	3023.5958	2836.6	1957.25
1029.7645	3024.6428	2842.15	1961.1
1029.8755	3025.6892	2837.85	1959.1
1029.9864	3026.735	2810.65	1930.5
1030.0973	3027.7802	2801.15	1918.85
1030.2082	3028.8247	2787.85	1907.85
1030.319	3029.8685	2786	1904.3
1030.4297	3030.9118	2790.75	1911.1
1030.5404	3031.9544	2767.85	1887.95
1030.6511	3032.9963	2772.3	1890.45
1030.7617	3034.0376	2760	1878.2
1030.8723	3035.0783	2761.6	1879.9
1030.9829	3036.1184	2750.35	1869
1031.0934	3037.1578	2742.75	1862.65
1031.2038	3038.1966	2742	1858.1
1031.3142	3039.2348	2731.05	1853.75
1031.4246	3040.2723	2748.55	1859.45
1031.5349	3041.3092	2728.5	1850.15
1031.6452	3042.3455	2706.2	1825.95
1031.7554	3043.3811	2702.8	1822.2
1031.8656	3044.4161	2692.15	1812.25
1031.9758	3045.4505	2687	1807
1032.0859	3046.4842	2692.4	1810.95
1032.1959	3047.5173	2655.95	1776.85
1032.3059	3048.5498	2661.95	1780.35
1032.4159	3049.5816	2647.15	1768.5
1032.5258	3050.6128	2640.85	1758.85
1032.6357	3051.6434	2645.75	1763.5
1032.7455	3052.6734	2630.75	1749.2
1032.8553	3053.7027	2620.5	1740.3
1032.9651	3054.7314	2604.85	1724.65
1033.0748	3055.7594	2600.7	1721.7
1033.1845	3056.7868	2598.65	1717.95
1033.2941	3057.8136	2591.05	1710.6
1033.4037	3058.8398	2569.9	1691.5
1033.5132	3059.8653	2577.55	1696.1
1033.6227	3060.8902	2556.5	1678.95
1033.7321	3061.9145	2545.6	1666.9
1033.8415	3062.9381	2543.2	1663.9
1033.9509	3063.9612	2553.1	1657.05
1034.0602	3064.9835	2515.35	1636.35
1034.1694	3066.0053	2524.05	1641.5
1034.2787	3067.0264	2511.4	1632.2
1034.3878	3068.0469	2511.85	1631.3
1034.497	3069.0668	2500.8	1618.8
1034.6061	3070.086	2481.95	1602.8
1034.7151	3071.1046	2484.85	1605.85
1034.8241	3072.1226	2477.2	1595.6
1034.9331	3073.1399	2463.9	1586
1035.042	3074.1567	2450.65	1572.4
1035.1508	3075.1727	2436.2	1554.7
1035.2597	3076.1882	2416.6	1535.75
1035.3684	3077.203	2412.65	1532.25
1035.4772	3078.2173	2406.95	1525.75
1035.5859	3079.2308	2402.15	1519.55
1035.6945	3080.2438	2394.65	1513.7
1035.8031	3081.2561	2378.35	1499.1
1035.9117	3082.2678	2362.75	1483.75
1036.0202	3083.2789	2362.9	1483.2
1036.1286	3084.2893	2355.7	1479.35
1036.2371	3085.2991	2342.7	1462.15
1036.3454	3086.3083	2336.7	1454.35
1036.4538	3087.3169	2330.15	1449.35
1036.562	3088.3248	2319.7	1439.05
1036.6703	3089.3321	2313.35	1429.2
1036.7785	3090.3388	2290.65	1412.75
1036.8866	3091.3449	2288.25	1408.7
1036.9948	3092.3503	2281.65	1399
1037.1028	3093.3551	2260.15	1382.05
1037.2108	3094.3593	2273.7	1394.35
1037.3188	3095.3629	2249.3	1368.9
1037.4267	3096.3658	2249.1	1366.4
1037.5346	3097.3681	2252.9	1374
1037.6425	3098.3698	2235.3	1354.1
1037.7503	3099.3708	2225.4	1340
1037.858	3100.3713	2224.75	1345.05
1037.9657	3101.3711	2199	1317.55
1038.0734	3102.3702	2320.85	1305.05
1038.181	3103.3688	2205.2	1323.5
1038.2886	3104.3667	2188.4	1308.55
1038.3961	3105.364	2173.25	1295.8
1038.5036	3106.3607	2173.55	1291.65
1038.611	3107.3568	2163.8	1281
1038.7184	3108.3522	2154.9	1276.35
1038.8257	3109.347	2142.1	1262.1
1038.933	3110.3412	2142.9	1261.5
1039.0403	3111.3348	2135.5	1254.5
1039.1475	3112.3277	2116.4	1237.05
1039.2547	3113.32	2115.55	1237
1039.3618	3114.3117	2105.05	1224.1
1039.4689	3115.3028	2099.45	1220.5
1039.5759	3116.2932	2089.65	1208.3
1039.6829	3117.2831	2095.3	1209.05
1039.7898	3118.2723	2079.6	1201.75
1039.8967	3119.2608	2066.25	1186.95
1040.0035	3120.2488	2073.4	1192.45
1040.1103	3121.2361	2053.45	1172.85
1040.2171	3122.2229	2050.35	1168.8
1040.3238	3123.209	2048.7	1167.1
1040.4305	3124.1944	2038.5	1161.1
1040.5371	3125.1793	2034.25	1154.5
1040.6437	3126.1635	2027.4	1149.7
1040.7502	3127.1471	2019.25	1139.25
1040.8567	3128.1301	2006.2	1127.1
1040.9631	3129.1125	2005.75	1127.15
1041.0695	3130.0942	2004.65	1125.4
1041.1759	3131.0753	2023.4	1135.85
1041.2822	3132.0558	2005.25	1122.05
1041.3884	3133.0357	1995.85	1115.65
1041.4946	3134.015	1985.45	1104.55
1041.6008	3134.9936	1983.1	1102.6
1041.7069	3135.9716	1996.3	1096.95
1041.813	3136.949	1968.3	1089.8
1041.919	3137.9258	1964.2	1079.45
1042.025	3138.902	1964.35	1079.2
1042.1309	3139.8775	1959.8	1080.7
1042.2368	3140.8524	1951.9	1071.8
1042.3427	3141.8267	1945.3	1063.8
1042.4485	3142.8004	1939.35	1060.05
1042.5542	3143.7735	1943.6	1057.75
1042.6599	3144.7459	1942	1060.05
1042.7656	3145.7178	1921.15	1040.75
1042.8712	3146.689	1920.7	1043.85
1042.9768	3147.6596	1917.5	1035.3
1043.0823	3148.6295	1901.6	1023.3
1043.1878	3149.5989	1906.4	1026.2
1043.2932	3150.5676	1902.6	1024.4
1043.3986	3151.5357	1896.85	1020.5
1043.5039	3152.5032	1886	1007.05
1043.6092	3153.4701	1871.65	992.45
1043.7145	3154.4364	1874.9	994.25
1043.8197	3155.402	1876.55	1000.35
1043.9248	3156.367	1867.7	986.1
1044.03	3157.3315	1890.2	974.95
1044.135	3158.2952	1862.45	983.75
1044.24	3159.2584	1847.55	967.3
1044.345	3160.221	1847.3	968.65
1044.4499	3161.1829	1844.5	964.95
1044.5548	3162.1442	1838.15	957.15
1044.6596	3163.105	1821	942.1
1044.7644	3164.065	1826.3	947.3
1044.8692	3165.0245	1816	934.6
1044.9739	3165.9834	1808.7	930.8
1045.0785	3166.9416	1802.6	922.85
1045.1831	3167.8993	1802.05	922.05
1045.2877	3168.8563	1793.45	913.35
1045.3922	3169.8127	1781.15	903.5
1045.4966	3170.7684	1789.55	910.75
1045.6011	3171.7236	1776.2	896.8
1045.7054	3172.6782	1784.85	905.8
1045.8098	3173.6321	1769.25	890.1
1045.914	3174.5854	1768.05	885.85
1046.0183	3175.5381	1755.65	877.6
1046.1224	3176.4902	1760.95	881.2
1046.2266	3177.4417	1744.25	865.9
1046.3307	3178.3926	1744.75	865.55
1046.4347	3179.3428	1737.85	860.65
1046.5387	3180.2924	1735.7	857.5
1046.6427	3181.2415	1732.55	852.3
1046.7466	3182.1899	1726.65	845.6
1046.8504	3183.1377	1730.45	851.55
1046.9542	3184.0848	1722.65	840
1047.058	3185.0314	1713	833.8
1047.1617	3185.9773	1706.85	826.15
1047.2654	3186.9227	1706.75	826.3
1047.369	3187.8674	1699.7	820.35
1047.4726	3188.8115	1705.85	822.9
1047.5761	3189.755	1692.85	815.75
1047.6796	3190.6979	1690.2	810.1
1047.783	3191.6402	1686.2	809.25
1047.8864	3192.5818	1686.05	807.65
1047.9898	3193.5229	1684.7	790.35
1048.0931	3194.4633	1676.2	797.95
1048.1963	3195.4031	1672.5	792.75
1048.2995	3196.3423	1664.55	786.1
1048.4027	3197.2809	1657.3	778.35
1048.5058	3198.2189	1655.55	774.35
1048.6089	3199.1563	1662.4	768.45
1048.7119	3200.0931	1648.55	771.4
1048.8148	3201.0292	1633.2	753.8
1048.9178	3201.9648	1631.85	753.35
1049.0206	3202.8997	1633.4	752.6
1049.1235	3203.834	1627.4	748.85
1049.2262	3204.7677	1628.8	750.55
1049.329	3205.7008	1622.3	742.25
1049.4317	3206.6333	1617.25	740.45
1049.5343	3207.5652	1609.1	728.95
1049.6369	3208.4964	1611.95	734
1049.7394	3209.4271	1609.25	730.35
1049.8419	3210.3571	1599.4	719
1049.9444	3211.2865	1598.4	717
1050.0468	3212.2154	1599.65	719.05
1050.1491	3213.1436	1594.1	712.5
1050.2514	3214.0712	1591.7	705.7
1050.3537	3214.9982	1586	706.65
1050.4559	3215.9246	1583.5	704.3
1050.5581	3216.8503	1575.55	696.7
1050.6602	3217.7755	1581.65	705.35
1050.7623	3218.7001	1572.15	693
1050.8643	3219.624	1563.15	683.75
1050.9663	3220.5473	1560.05	680.25
1051.0682	3221.4701	1563.9	683.5
1051.1701	3222.3922	1556.8	676.25
1051.2719	3223.3137	1557.35	678.5
1051.3737	3224.2346	1550.4	670.8
1051.4754	3225.1549	1544.65	667.55
1051.5771	3226.0746	1541.3	663.15
1051.6788	3226.9937	1542.1	663.15
1051.7804	3227.9121	1535.6	657.4
1051.8819	3228.83	1529.55	649.9
1051.9834	3229.7473	1531.35	652.7
1052.0849	3230.6639	1521	641.6
1052.1863	3231.5799	1520.45	643.05
1052.2876	3232.4954	1513.1	633.9
1052.3889	3233.4102	1510.15	630.2
1052.4902	3234.3244	1508.45	628.8
1052.5914	3235.238	1513.5	635.75
1052.6926	3236.151	1523.7	624
1052.7937	3237.0634	1500	622.05
1052.8948	3237.9752	1498.6	618.5
1052.9958	3238.8864	1494.3	614.9
1053.0968	3239.797	1496.25	615.9
1053.1977	3240.7069	1484.3	604.9
1053.2986	3241.6163	1476.4	597.3
1053.3994	3242.5251	1475.9	595.8
1053.5002	3243.4332	1469.5	591.8
1053.6009	3244.3408	1473.55	593.5
1053.7016	3245.2477	1464.55	585.2
1053.8022	3246.154	1464.25	584.8
1053.9028	3247.0598	1459.65	582.15
1054.0034	3247.9649	1454.3	575.45
1054.1039	3248.8694	1450.6	571.5
1054.2043	3249.7733	1450.8	570.65
1054.3047	3250.6766	1441.7	561.8
1054.4051	3251.5793	1443.35	564.1
1054.5054	3252.4814	1434.65	556.75
1054.6056	3253.3829	1433.85	555.25
1054.7058	3254.2838	1428.5	549.5
1054.806	3255.1841	1423.85	544.7
1054.9061	3256.0838	1424.65	546.4
1055.0061	3256.9829	1417.4	538.9
1055.1062	3257.8814	1410.35	529.95
1055.2061	3258.7792	1408.25	525.8
1055.306	3259.6765	1405.2	525.8
1055.4059	3260.5731	1401	521.95
1055.5057	3261.4692	1399.25	519.1
1055.6055	3262.3647	1381.9	503.3
1055.7052	3263.2595	1379.95	500.45
1055.8049	3264.1538	1369.15	489.5
1055.9045	3265.0474	1370.15	490.6
1056.0041	3265.9404	1355.95	477.9
1056.1036	3266.8329	1348	468.25
1056.2031	3267.7247	1349.85	459.2
1056.3025	3268.616	1332.55	455.5
1056.4019	3269.5066	1319.7	439.05
1056.5013	3270.3966	1302.8	424.15
1056.6005	3271.286	1289.95	410.4
