Software Version:	3.9.2.0
Unit SN:	10000200
Spectrometer SN:	6960
Date:	3/6/2024 10:40:32 AM
Data Line Index:	25
Spectral Points:	2048
Integration time (ms):	125
Averages:	20
Delay (ms):	30
Sequence Number:	1
Processing:	dark subtract
Laser Power (mW):	300
Laser Current (mA):	825
Laser Diode Temp (C):	25.1
Laser Case Temp (C):	26.9
System Temp (C):	26.7
Spectrometer Temp (C):	24.1
CCD Temp (C):	0.001
Secondary Temp (C):	20.013
Heatsink Temp (C):	22.47
CCDPCB Temp (C):	36.429
SecondaryPCB Temp (C):	33.506

Wavelength	RamanShift	Raw Counts	Dark Subtracted
787.061	30.1047	1121.5	708.6
787.2016	32.3739	1156.2	743.25
787.3422	34.6426	1200.7	787.6
787.4828	36.9109	1243	827.6
787.6235	39.1787	1302.85	884.6
787.7642	41.4461	1365.3	944.3
787.9049	43.7131	1428.05	1000.95
788.0456	45.9796	1491.5	1062.35
788.1863	48.2456	1561.2	1128.8
788.3271	50.5112	1633.7	1197.3
788.4679	52.7764	1704.3	1265.35
788.6087	55.0411	1777.2	1332.8
788.7496	57.3054	1868.4	1418.6
788.8904	59.5692	1955.7	1503.85
789.0313	61.8326	2058.25	1601.8
789.1722	64.0955	2150.7	1691.95
789.3132	66.3579	2288.6	1824.5
789.4541	68.6199	2446.9	1980.8
789.5951	70.8815	2694.9	2224.9
789.7361	73.1426	3220.65	2747.4
789.8771	75.4032	4520.5	4041.75
790.0181	77.6634	7891.95	7407.9
790.1592	79.9231	16693.7	16203.9
790.3003	82.1824	54567.65	54068.6
790.4414	84.4412	65535	65015.8
790.5825	86.6995	65535	64985.9
790.7237	88.9574	65535	64962.8
790.8648	91.2148	65535	64945.55
791.006	93.4717	65535	64929.35
791.1472	95.7282	65535	64925.95
791.2885	97.9842	65535	64920.75
791.4297	100.2398	65535	64920.3
791.571	102.4949	65535	64919.1
791.7123	104.7495	65535	64912.9
791.8536	107.0036	65535	64913.45
791.9949	109.2573	65535	64913.45
792.1363	111.5105	65535	64915.35
792.2777	113.7632	65535	64908.75
792.4191	116.0154	65535	64899.6
792.5605	118.2672	65535	64903.4
792.7019	120.5185	65535	64904.25
792.8434	122.7693	65535	64900.8
792.9849	125.0197	65535	64895.1
793.1264	127.2696	65535	64895.85
793.2679	129.519	65535	64890.05
793.4094	131.7679	65535	64888.1
793.551	134.0163	65535	64884.45
793.6926	136.2642	65535	64878.15
793.8342	138.5117	65535	64872.25
793.9758	140.7587	65535	64875.8
794.1175	143.0052	65535	64876.05
794.2591	145.2512	65535	64871.8
794.4008	147.4967	65535	64870
794.5425	149.7417	65535	64868.35
794.6842	151.9863	65535	64863.85
794.826	154.2304	65535	64862.75
794.9677	156.4739	65535	64856.75
795.1095	158.717	65535	64857.55
795.2513	160.9596	65535	64855.2
795.3931	163.2017	65535	64851.4
795.535	165.4433	65535	64849.6
795.6768	167.6844	65535	64847.4
795.8187	169.925	65535	64842.35
795.9606	172.1651	65535	64842.9
796.1025	174.4047	65535	64840.3
796.2445	176.6439	65535	64835.35
796.3864	178.8825	65535	64836.7
796.5284	181.1206	65535	64832
796.6704	183.3582	65535	64826.15
796.8124	185.5954	65535	64823
796.9544	187.832	65535	64825.6
797.0965	190.0681	65535	64819.25
797.2386	192.3037	65535	64816.9
797.3806	194.5388	65535	64812.4
797.5228	196.7734	65535	64813.25
797.6649	199.0075	65535	64807.25
797.807	201.2411	65535	64805.5
797.9492	203.4742	65535	64807.5
798.0914	205.7068	65535	64804.85
798.2336	207.9389	65535	64803.9
798.3758	210.1704	65535	64798.15
798.518	212.4015	65535	64806.45
798.6603	214.632	65535	64809.35
798.8025	216.862	65535	64818.5
798.9448	219.0915	65535	64822.75
799.0871	221.3205	65535	64817.35
799.2294	223.549	65535	64821.25
799.3718	225.777	65535	64824.6
799.5141	228.0044	65535	64816.35
799.6565	230.2314	65535	64818.15
799.7989	232.4578	65535	64817.05
799.9413	234.6837	65535	64806.45
800.0837	236.909	65535	64802.7
800.2262	239.1339	65535	64781.1
800.3687	241.3582	65535	64793.9
800.5111	243.582	65535	64763.25
800.6536	245.8053	65535	64772.85
800.7961	248.0281	65535	64782.55
800.9387	250.2503	65535	64779.6
801.0812	252.472	65535	64774.4
801.2238	254.6932	65535	64774.7
801.3664	256.9139	65535	64772.65
801.509	259.134	65535	64767.85
801.6516	261.3536	65535	64770.1
801.7942	263.5727	65535	64770.05
801.9369	265.7912	65535	64768.5
802.0795	268.0092	65535	64768.05
802.2222	270.2267	65535	64764.2
802.3649	272.4436	65535	64768.15
802.5076	274.6601	65535	64759.25
802.6504	276.8759	65535	64761.85
802.7931	279.0913	65535	64759.15
802.9359	281.3061	65535	64760.55
803.0787	283.5204	65535	64756.75
803.2215	285.7341	65535	64752.45
803.3643	287.9473	65535	64741.65
803.5071	290.16	65535	64746.85
803.6499	292.3721	65535	64755.1
803.7928	294.5837	65535	64753.8
803.9357	296.7947	65535	64753.15
804.0786	299.0052	65535	64754.25
804.2215	301.2152	65535	64748.15
804.3644	303.4246	65535	64754.8
804.5074	305.6334	65535	64755.15
804.6503	307.8418	65535	64749.45
804.7933	310.0495	65535	64750.8
804.9363	312.2568	65535	64750.25
805.0793	314.4635	65535	64745.4
805.2223	316.6696	65535	64745.4
805.3653	318.8752	65535	64736.9
805.5084	321.0802	65535	64742.55
805.6514	323.2847	65535	64741.05
805.7945	325.4887	65535	64742
805.9376	327.692	65535	64741.65
806.0807	329.8949	65535	64741.1
806.2238	332.0972	65535	64739
806.367	334.2989	65535	64735.9
806.5101	336.5001	65535	64734.85
806.6533	338.7007	65535	64733.55
806.7965	340.9008	65535	64730.6
806.9397	343.1003	65535	64730.1
807.0829	345.2992	65535	64730.4
807.2261	347.4976	65535	64727.35
807.3693	349.6955	65535	64725.4
807.5126	351.8927	65535	64722.5
807.6559	354.0895	65535	64713.4
807.7991	356.2856	65535	64721.9
807.9424	358.4812	65535	64720.35
808.0857	360.6763	65535	64721.2
808.2291	362.8707	65535	64718.55
808.3724	365.0646	65535	64717.95
808.5158	367.258	65535	64715.75
808.6591	369.4508	65535	64712.1
808.8025	371.643	65535	64713.6
808.9459	373.8346	65535	64711.2
809.0893	376.0257	65535	64707.2
809.2327	378.2162	65535	64705.75
809.3762	380.4062	65535	64701.85
809.5196	382.5956	65535	64703.35
809.6631	384.7844	65535	64703
809.8066	386.9726	65535	64707.6
809.9501	389.1603	65535	64708.65
810.0936	391.3474	65535	64667.3
810.2371	393.5339	65535	64709.2
810.3806	395.7199	65535	64715.95
810.5241	397.9052	65535	64713.95
810.6677	400.09	65535	64716.35
810.8113	402.2743	65535	64712.95
810.9548	404.4579	65535	64712.7
811.0984	406.641	65535	64715.9
811.2421	408.8235	65535	64710.3
811.3857	411.0054	65535	64713.45
811.5293	413.1868	65535	64706.5
811.673	415.3675	65535	64704.4
811.8166	417.5477	65535	64703.45
811.9603	419.7273	65535	64702.25
812.104	421.9064	65535	64691.9
812.2477	424.0848	65535	64697.5
812.3914	426.2627	65535	64697.1
812.5351	428.4399	65535	64695.05
812.6788	430.6166	65535	64691
812.8226	432.7928	65535	64694.45
812.9663	434.9683	65535	64692.35
813.1101	437.1432	65535	64685.95
813.2539	439.3176	65535	64687.7
813.3977	441.4914	65535	64690.95
813.5415	443.6645	65535	64689.4
813.6853	445.8371	65535	64688.55
813.8291	448.0091	65535	64692.25
813.973	450.1806	65535	64688.65
814.1168	452.3514	65535	64685.35
814.2607	454.5216	65535	64680.7
814.4046	456.6913	65535	64685.2
814.5485	458.8603	65535	64686.8
814.6924	461.0288	65535	64687.45
814.8363	463.1967	65535	64686.45
814.9802	465.3639	65535	64686.5
815.1241	467.5306	65535	64684.15
815.2681	469.6967	65535	64686.4
815.412	471.8622	65535	64685.45
815.556	474.0271	65535	64682.8
815.7	476.1914	65535	64683.65
815.844	478.3551	65535	64683.95
815.988	480.5182	65535	64682.1
816.132	482.6807	65535	64684.95
816.276	484.8426	65535	64683.5
816.4201	487.0039	65535	64681.1
816.5641	489.1647	65535	64681.7
816.7082	491.3248	65535	64682.7
816.8522	493.4843	65535	64681.95
816.9963	495.6432	65535	64678
817.1404	497.8015	65535	64677.3
817.2845	499.9592	65535	64680.85
817.4286	502.1163	65535	64680.5
817.5727	504.2728	65535	64677.8
817.7168	506.4287	65535	64681.05
817.861	508.5839	65535	64678.6
818.0051	510.7386	65535	64678.95
818.1493	512.8927	65535	64672.35
818.2935	515.0461	65535	64676.3
818.4377	517.199	65535	64675.35
818.5818	519.3512	65535	64671.3
818.726	521.5029	65535	64667.95
818.8703	523.6539	65535	64671.75
819.0145	525.8043	65535	64671.3
819.1587	527.9541	65535	64670.05
819.303	530.1033	65535	64666.15
819.4472	532.2519	65535	64668.35
819.5915	534.3999	65535	64670.6
819.7357	536.5472	65535	64670.25
819.88	538.694	65535	64668.8
820.0243	540.8401	65535	64666.5
820.1686	542.9856	65535	64663.95
820.3129	545.1305	65535	64664.6
820.4572	547.2748	65535	64666.35
820.6016	549.4185	65535	64665.65
820.7459	551.5615	65535	64667.45
820.8902	553.704	65535	64666
821.0346	555.8458	65535	64666.4
821.1789	557.987	65535	64670.05
821.3233	560.1276	65535	64664.45
821.4677	562.2675	65535	64664.85
821.6121	564.4069	65535	64666.5
821.7565	566.5456	65535	64666.65
821.9009	568.6837	65535	64664.5
822.0453	570.8212	65535	64666.75
822.1897	572.958	65535	64661.55
822.3342	575.0942	65535	64665.05
822.4786	577.2299	65535	64664.95
822.6231	579.3648	65535	64668.95
822.7675	581.4992	65535	64664.3
822.912	583.6329	65535	64666.7
823.0565	585.766	65535	64666.55
823.201	587.8985	65535	64665.35
823.3454	590.0304	65535	64639.1
823.4899	592.1616	65535	64662.1
823.6345	594.2922	65535	64662.3
823.779	596.4222	65535	64659.6
823.9235	598.5515	65535	64655.85
824.068	600.6802	65535	64661
824.2126	602.8083	65535	64660.85
824.3571	604.9358	65535	64657.65
824.5017	607.0626	65535	64660.75
824.6462	609.1888	65535	64656.3
824.7908	611.3144	65535	64658.35
824.9354	613.4393	65535	64655.15
825.08	615.5636	65535	64658.95
825.2246	617.6873	65535	64662
825.3692	619.8103	65535	64658.2
825.5138	621.9327	65535	64653.9
825.6584	624.0544	65535	64660.5
825.803	626.1756	65535	64657.2
825.9477	628.2961	65535	64655.65
826.0923	630.4159	65535	64656.2
826.237	632.5351	65535	64654.3
826.3816	634.6537	65535	64655.7
826.5263	636.7716	65535	64650.05
826.6709	638.8889	65535	64652.45
826.8156	641.0056	65535	64654.05
826.9603	643.1216	65535	64650.15
827.105	645.237	65535	64651.45
827.2497	647.3518	65535	64652.5
827.3944	649.4659	65535	64653.05
827.5391	651.5793	65535	64652.7
827.6838	653.6922	65535	64652.65
827.8285	655.8043	65535	64652.6
827.9733	657.9159	65535	64652
828.118	660.0268	65535	64649.55
828.2627	662.137	65535	64653.15
828.4075	664.2466	65535	64647.15
828.5522	666.3556	65535	64652
828.697	668.4639	65535	64651.15
828.8418	670.5716	65535	64653.35
828.9865	672.6786	65535	64651.55
829.1313	674.785	65535	64646.8
829.2761	676.8907	65535	64649.25
829.4209	678.9958	65535	64648.75
829.5657	681.1002	65535	64647.3
829.7105	683.204	65535	64645.1
829.8553	685.3072	65535	64644.6
830.0001	687.4097	65535	64647.9
830.1449	689.5115	65535	64647.9
830.2898	691.6127	65535	64647.65
830.4346	693.7132	65535	64647.6
830.5794	695.8131	65535	64637.35
830.7243	697.9123	65535	64645.4
830.8691	700.0109	65535	64642.9
831.014	702.1089	65535	64647.2
831.1588	704.2061	65535	64646.55
831.3037	706.3028	65535	64646.45
831.4486	708.3987	65535	64647.7
831.5935	710.4941	65535	64644.35
831.7383	712.5887	65535	64643.3
831.8832	714.6827	65535	64641.1
832.0281	716.7761	65535	64644.4
832.173	718.8688	65535	64645.1
832.3179	720.9608	65535	64641.85
832.4628	723.0522	65535	64640.3
832.6077	725.1429	65535	64642.15
832.7527	727.233	65535	64642.65
832.8976	729.3224	65535	64641.6
833.0425	731.4112	65535	64642.1
833.1874	733.4993	65535	64642.25
833.3324	735.5867	65535	64642.1
833.4773	737.6735	65535	64641.9
833.6222	739.7596	65535	64642.35
833.7672	741.845	65535	64642.65
833.9122	743.9298	65535	64638.55
834.0571	746.014	65535	64641.2
834.2021	748.0974	65535	64639.35
834.347	750.1802	65535	64641.35
834.492	752.2624	65535	64643.55
834.637	754.3439	65535	64641.3
834.782	756.4247	65535	64629.05
834.9269	758.5048	65535	64640.6
835.0719	760.5843	65535	64641.45
835.2169	762.6631	65535	64640.25
835.3619	764.7413	65535	64641.45
835.5069	766.8188	65535	64642.15
835.6519	768.8956	65535	64638.1
835.7969	770.9718	65535	64638.85
835.9419	773.0473	65535	64641.6
836.0869	775.1221	65535	64642.1
836.232	777.1962	65535	64640.7
836.377	779.2697	65535	64636.75
836.522	781.3426	65535	64619.3
836.667	783.4147	65535	64637.55
836.8121	785.4862	65535	64640.35
836.9571	787.557	65535	64641
837.1021	789.6271	65535	64636.65
837.2472	791.6966	65535	64638.95
837.3922	793.7654	65535	64636.7
837.5373	795.8335	65535	64638.1
837.6823	797.901	65535	64639.35
837.8274	799.9678	65535	64638.1
837.9724	802.0339	65535	64640.1
838.1175	804.0993	65535	64630.3
838.2626	806.1641	65535	64636.95
838.4076	808.2282	65535	64639.7
838.5527	810.2916	65535	64636.75
838.6978	812.3544	65535	64641.7
838.8428	814.4164	65535	64639.95
838.9879	816.4778	65535	64637.55
839.133	818.5385	65535	64639.05
839.2781	820.5986	65535	64638.35
839.4232	822.658	65535	64637.95
839.5682	824.7166	65535	64637.15
839.7133	826.7747	65535	64637.2
839.8584	828.832	65535	64637.7
840.0035	830.8886	65535	64638.3
840.1486	832.9446	65535	64635.2
840.2937	834.9999	65535	64640.7
840.4388	837.0545	65535	64633.1
840.5839	839.1085	65535	64636.5
840.729	841.1618	65535	64633.7
840.8741	843.2143	65535	64637.95
841.0192	845.2662	65535	64638.55
841.1643	847.3175	65535	64636.5
841.3095	849.368	65535	64639.4
841.4546	851.4179	65535	64637.3
841.5997	853.467	65535	64633.45
841.7448	855.5155	65535	64639.3
841.8899	857.5633	65535	64635.4
842.0351	859.6105	65535	64639.65
842.1802	861.6569	65535	64636.5
842.3253	863.7027	65535	64633.15
842.4704	865.7478	65535	64637.15
842.6156	867.7922	65535	64634.5
842.7607	869.8359	65535	64636.55
842.9058	871.8789	65535	64635.05
843.0509	873.9212	65535	64601.25
843.1961	875.9629	65535	64634.6
843.3412	878.0039	65535	64635.8
843.4863	880.0441	65535	64638.05
843.6315	882.0837	65535	64636.5
843.7766	884.1226	65535	64633.5
843.9218	886.1609	65535	64632.5
844.0669	888.1984	65535	64636.55
844.212	890.2352	65535	64634.7
844.3572	892.2714	65535	64629.4
844.5023	894.3069	65535	64633.65
844.6475	896.3416	65535	64634.25
844.7926	898.3757	65535	64635
844.9377	900.4091	65535	64633.95
845.0829	902.4418	65535	64628.1
845.228	904.4739	65535	64632.05
845.3732	906.5052	65535	64633.2
845.5183	908.5358	65535	64633.4
845.6635	910.5658	65535	64633.2
845.8086	912.595	65535	64633.15
845.9538	914.6236	65535	64632.2
846.0989	916.6515	65535	64634.65
846.2441	918.6786	65535	64632.1
846.3892	920.7051	65535	64632.1
846.5344	922.7309	65535	64634.8
846.6795	924.756	65535	64631.95
846.8246	926.7804	65535	64630.15
846.9698	928.8041	65535	64627.8
847.1149	930.8272	65535	64632.65
847.2601	932.8495	65535	64630.9
847.4052	934.8711	65535	64629.4
847.5504	936.892	65535	64633.65
847.6955	938.9123	65535	64631.95
847.8407	940.9318	65535	64632.55
847.9858	942.9506	65535	64631.3
848.131	944.9688	65535	64634.55
848.2761	946.9862	65535	64634.35
848.4213	949.003	65535	64632.8
848.5664	951.019	65535	64635.15
848.7115	953.0344	65535	64634.95
848.8567	955.0491	65535	64631.6
849.0018	957.063	65535	64633.95
849.147	959.0763	65535	64634.8
849.2921	961.0888	65535	64630.9
849.4373	963.1007	65535	64629.7
849.5824	965.1119	65535	64632.25
849.7275	967.1223	65535	64634.95
849.8727	969.1321	65535	64636.8
850.0178	971.1412	65535	64633.25
850.1629	973.1495	65535	64635.05
850.3081	975.1572	65535	64585
850.4532	977.1641	65535	64633.35
850.5983	979.1704	65535	64631.05
850.7435	981.1759	65535	64629.5
850.8886	983.1808	65535	64632
851.0337	985.1849	65535	64621.15
851.1788	987.1884	65535	64629.75
851.324	989.1911	65535	64628.75
851.4691	991.1932	65535	64629.7
851.6142	993.1945	65535	64633.1
851.7593	995.1951	65535	64632.9
851.9045	997.1951	65535	64624.65
852.0496	999.1943	65535	64633.65
852.1947	1001.1928	65535	64631.9
852.3398	1003.1906	65535	64632.2
852.4849	1005.1877	65535	64630.9
852.63	1007.1841	65535	64630.55
852.7751	1009.1798	65535	64634.35
852.9202	1011.1748	65535	64633.35
853.0653	1013.1691	65535	64632.8
853.2104	1015.1627	65535	64630.65
853.3555	1017.1556	65535	64631.25
853.5006	1019.1477	65535	64633.45
853.6457	1021.1392	65535	64633.35
853.7908	1023.1299	65535	64635.3
853.9359	1025.12	65535	64633.1
854.081	1027.1093	65535	64634.6
854.2261	1029.0979	65535	64636
854.3712	1031.0859	65535	64633.5
854.5163	1033.0731	65535	64630.95
854.6613	1035.0596	65535	64635.65
854.8064	1037.0454	65535	64634.05
854.9515	1039.0304	65535	64633.35
855.0965	1041.0148	65535	64632.55
855.2416	1042.9985	65535	64630.85
855.3867	1044.9814	65535	64634.7
855.5317	1046.9636	65535	64629.75
855.6768	1048.9452	65535	64634.6
855.8219	1050.926	65535	64633.65
855.9669	1052.9061	65535	64632.95
856.112	1054.8855	65535	64630.3
856.257	1056.8642	65535	64634.05
856.4021	1058.8421	65535	64626.1
856.5471	1060.8194	65535	64631.3
856.6921	1062.7959	65535	64631.2
856.8372	1064.7717	65535	64630.65
856.9822	1066.7469	65535	64631.25
857.1272	1068.7213	65535	64629.2
857.2723	1070.695	65535	64632.8
857.4173	1072.6679	65535	64632.85
857.5623	1074.6402	65535	64633.3
857.7073	1076.6117	65535	64630.1
857.8523	1078.5826	65535	64631.8
857.9973	1080.5527	65535	64630.7
858.1423	1082.5221	65535	64630.2
858.2873	1084.4908	65535	64631.4
858.4323	1086.4587	65535	64628.95
858.5773	1088.426	65535	64632.65
858.7223	1090.3925	65535	64627.25
858.8673	1092.3584	65535	64632.4
859.0123	1094.3235	65535	64631.55
859.1573	1096.2879	65535	64632
859.3022	1098.2515	65535	64633.55
859.4472	1100.2145	65535	64634.4
859.5922	1102.1767	65535	64630.55
859.7371	1104.1382	65535	64632.9
859.8821	1106.099	65535	64631.9
860.027	1108.0591	65535	64633
860.172	1110.0185	65535	64632.15
860.3169	1111.9771	65535	64631.85
860.4619	1113.9351	65535	64632.3
860.6068	1115.8923	65535	64632.75
860.7517	1117.8488	65535	64630.25
860.8967	1119.8045	65535	64632.65
861.0416	1121.7596	65535	64631.7
861.1865	1123.7139	65535	64634.15
861.3314	1125.6675	65535	64637.55
861.4763	1127.6204	65535	64632.55
861.6212	1129.5726	65535	64631.3
861.7661	1131.524	65535	64634
861.911	1133.4748	65535	64631.9
862.0559	1135.4248	65535	64631.4
862.2008	1137.3741	65535	64631.4
862.3457	1139.3226	65535	64632.95
862.4905	1141.2705	65535	64631.5
862.6354	1143.2176	65535	64630.1
862.7803	1145.164	65535	64632.75
862.9251	1147.1097	65535	64631.4
863.07	1149.0546	65535	64631.85
863.2148	1150.9989	65535	64631.05
863.3597	1152.9424	65535	64630.75
863.5045	1154.8852	65535	64634.95
863.6493	1156.8272	65535	64633.2
863.7942	1158.7686	65535	64626.7
863.939	1160.7092	65535	64629.9
864.0838	1162.6491	65535	64630.65
864.2286	1164.5883	65535	64633.2
864.3734	1166.5267	65535	64632.9
864.5182	1168.4644	65535	64631.75
864.663	1170.4014	65535	64630.15
864.8078	1172.3377	65535	64633.35
864.9526	1174.2732	65535	64632.4
865.0974	1176.2081	65535	64632.25
865.2421	1178.1421	65535	64627.2
865.3869	1180.0755	65535	64633.55
865.5317	1182.0082	65535	64631.4
865.6764	1183.9401	65535	64632.9
865.8212	1185.8713	65535	64633.85
865.9659	1187.8017	65535	64634.55
866.1106	1189.7315	65535	64636.3
866.2554	1191.6605	65535	64603.85
866.4001	1193.5888	65535	64633.05
866.5448	1195.5163	65535	64634.1
866.6895	1197.4432	65535	64633.65
866.8342	1199.3693	65535	64633.6
866.9789	1201.2947	65535	64631.55
867.1236	1203.2193	65535	64631.65
867.2683	1205.1432	65535	64631.55
867.413	1207.0664	65535	64635
867.5576	1208.9889	65535	64629.95
867.7023	1210.9106	65535	64631.5
867.847	1212.8316	65535	64632.5
867.9916	1214.7519	65535	64621.9
868.1363	1216.6715	65535	64632.85
868.2809	1218.5903	65535	64631
868.4255	1220.5084	65535	64633.8
868.5701	1222.4257	65535	64631.95
868.7148	1224.3424	65535	64634.1
868.8594	1226.2583	65535	64629.05
869.004	1228.1735	65535	64633.4
869.1486	1230.0879	65535	64632.8
869.2932	1232.0016	65535	64635.05
869.4377	1233.9146	65535	64630.4
869.5823	1235.8269	65535	64631.15
869.7269	1237.7384	65535	64636.55
869.8715	1239.6492	65535	64634
870.016	1241.5592	65535	64635.3
870.1606	1243.4686	65535	64633.45
870.3051	1245.3772	65535	64633.4
870.4496	1247.285	65535	64631.9
870.5941	1249.1922	65535	64634.85
870.7387	1251.0986	65535	64634.15
870.8832	1253.0042	65535	64634.9
871.0277	1254.9092	65535	64633.05
871.1722	1256.8134	65535	64634.3
871.3167	1258.7169	65535	64631.7
871.4611	1260.6196	65535	64635.25
871.6056	1262.5216	65535	64632.2
871.7501	1264.4229	65535	64632.85
871.8945	1266.3234	65535	64633.85
872.039	1268.2232	65535	64633.45
872.1834	1270.1223	65535	64632.55
872.3278	1272.0207	65535	64632.9
872.4723	1273.9183	65535	64624.4
872.6167	1275.8151	65535	64634
872.7611	1277.7113	65535	64631.8
872.9055	1279.6067	65535	64631.95
873.0499	1281.5014	65535	64632
873.1943	1283.3953	65535	64631.6
873.3386	1285.2885	65535	64634.35
873.483	1287.181	65535	64632.05
873.6274	1289.0727	65535	64636.05
873.7717	1290.9637	65535	64634.5
873.9161	1292.854	65535	64631.95
874.0604	1294.7435	65535	64632.15
874.2047	1296.6323	65535	64632.65
874.349	1298.5204	65535	64630.7
874.4933	1300.4077	65535	64632.05
874.6376	1302.2943	65535	64632.4
874.7819	1304.1802	65535	64636.15
874.9262	1306.0653	65535	64631.05
875.0705	1307.9497	65535	64634.6
875.2147	1309.8333	65535	64633.9
875.359	1311.7162	65535	64635.55
875.5032	1313.5984	65535	64631.9
875.6475	1315.4798	65535	64620.85
875.7917	1317.3605	65535	64616.7
875.9359	1319.2405	65535	64632.8
876.0801	1321.1197	65535	64630.55
876.2243	1322.9982	65535	64629.65
876.3685	1324.876	65535	64634.2
876.5127	1326.753	65535	64635.1
876.6569	1328.6293	65535	64629
876.801	1330.5048	65535	64630.75
876.9452	1332.3796	65535	64633.5
877.0893	1334.2537	65535	64608.85
877.2335	1336.127	65535	64632.3
877.3776	1337.9996	65535	64634.05
877.5217	1339.8714	65535	64632.35
877.6658	1341.7426	65535	64591.25
877.8099	1343.6129	65535	64632.75
877.954	1345.4826	65535	64631.8
878.0981	1347.3515	65535	64631.95
878.2422	1349.2196	65535	64634.8
878.3862	1351.087	65535	64632.35
878.5303	1352.9537	65535	64632.85
878.6743	1354.8197	65535	64635.05
878.8184	1356.6849	65535	64635.5
878.9624	1358.5493	65535	64633.5
879.1064	1360.4131	65535	64630.8
879.2504	1362.276	65535	64633.2
879.3944	1364.1383	65535	64633.8
879.5384	1365.9998	65535	64630.8
879.6823	1367.8606	65535	64632.85
879.8263	1369.7206	65535	64636.2
879.9702	1371.5799	65535	64630.8
880.1142	1373.4384	65535	64632.85
880.2581	1375.2962	65535	64633.7
880.402	1377.1533	65535	64634.5
880.5459	1379.0096	65535	64634.05
880.6898	1380.8652	65535	64635.05
880.8337	1382.7201	65535	64633.85
880.9776	1384.5742	65535	64634.05
881.1215	1386.4275	65535	64634.1
881.2653	1388.2802	65535	64636.5
881.4092	1390.132	65535	64632.85
881.553	1391.9832	65535	64632.75
881.6968	1393.8336	65535	64633.35
881.8406	1395.6832	65535	64634.6
881.9844	1397.5322	65535	64635.5
882.1282	1399.3803	65535	64628.6
882.272	1401.2278	65535	64633.75
882.4158	1403.0745	65535	64633
882.5595	1404.9204	65535	64635
882.7033	1406.7656	65535	64632.2
882.847	1408.6101	65535	64633.8
882.9908	1410.4538	65535	64632.95
883.1345	1412.2968	65535	64632.1
883.2782	1414.139	65535	64634.55
883.4219	1415.9805	65535	64634.8
883.5656	1417.8213	65535	64629.95
883.7092	1419.6613	65535	64633.35
883.8529	1421.5006	65535	64634.5
883.9965	1423.3391	65535	64630.75
884.1402	1425.1769	65535	64632.55
884.2838	1427.0139	65535	64633.45
884.4274	1428.8502	65535	64631.7
884.571	1430.6858	65535	64633.95
884.7146	1432.5206	65535	64635.45
884.8582	1434.3547	65535	64634.8
885.0018	1436.188	65535	64635.55
885.1453	1438.0206	65535	64632.6
885.2889	1439.8524	65535	64632.05
885.4324	1441.6835	65535	64632
885.5759	1443.5139	65535	64629.8
885.7194	1445.3435	65535	64635.4
885.8629	1447.1724	65535	64634.35
886.0064	1449.0005	65535	64635.6
886.1499	1450.8279	65535	64633.6
886.2933	1452.6545	65535	64634.05
886.4368	1454.4804	65535	64635.3
886.5802	1456.3056	65535	64626.5
886.7237	1458.13	65535	64635.55
886.8671	1459.9536	65535	64635.3
887.0105	1461.7766	65535	64634.75
887.1539	1463.5987	65535	64633.75
887.2972	1465.4202	65535	64631.2
887.4406	1467.2409	65535	64633.1
887.584	1469.0608	65535	64633.35
887.7273	1470.88	65535	64634
887.8706	1472.6984	65535	64634.25
888.0139	1474.5161	65535	64631
888.1572	1476.3331	65535	64633.5
888.3005	1478.1493	65535	64633.95
888.4438	1479.9648	65535	64635.2
888.5871	1481.7795	65535	64634.95
888.7303	1483.5935	65535	64635.95
888.8736	1485.4067	65535	64635.65
889.0168	1487.2192	65535	64633.15
889.16	1489.031	65535	64634.3
889.3032	1490.842	65535	64633.05
889.4464	1492.6522	65535	64634.2
889.5896	1494.4618	65535	64633.3
889.7327	1496.2705	65535	64637.8
889.8759	1498.0785	65535	64632.55
890.019	1499.8858	65535	64634.05
890.1622	1501.6924	65535	64636.2
890.3053	1503.4981	65535	64635.35
890.4484	1505.3032	65535	64635.85
890.5914	1507.1075	65535	64635.25
890.7345	1508.911	65535	64634.45
890.8776	1510.7138	65535	64633.8
891.0206	1512.5159	65535	64633.95
891.1637	1514.3172	65535	64634
891.3067	1516.1178	65535	64634.35
891.4497	1517.9176	65535	64632.3
891.5927	1519.7166	65535	64637
891.7357	1521.515	65535	64627.75
891.8786	1523.3126	65535	64635.8
892.0216	1525.1094	65535	64633.85
892.1645	1526.9055	65535	64636.2
892.3074	1528.7008	65535	64638.45
892.4503	1530.4954	65535	64627.9
892.5932	1532.2893	65535	64636.65
892.7361	1534.0824	65535	64630.45
892.879	1535.8747	65535	64634.9
893.0218	1537.6663	65535	64633.65
893.1647	1539.4572	65535	64634.8
893.3075	1541.2473	65535	64638.5
893.4503	1543.0367	65535	64636.15
893.5931	1544.8253	65535	64632.85
893.7359	1546.6132	65535	64633.75
893.8787	1548.4003	65535	64624.65
894.0214	1550.1867	65535	64627.05
894.1642	1551.9723	65535	64631.2
894.3069	1553.7572	65535	64637.55
894.4496	1555.5414	65535	64637.2
894.5923	1557.3247	65535	64635.45
894.735	1559.1074	65535	64637.8
894.8777	1560.8893	65535	64637.2
895.0204	1562.6705	65535	64638
895.163	1564.4509	65535	64637.1
895.3056	1566.2305	65535	64637.85
895.4482	1568.0094	65535	64637.95
895.5908	1569.7876	65535	64638.65
895.7334	1571.565	65535	64636.2
895.876	1573.3417	65535	64637.55
896.0186	1575.1176	65535	64638.5
896.1611	1576.8928	65535	64638.45
896.3036	1578.6672	65535	64638.1
896.4461	1580.4409	65535	64638.7
896.5886	1582.2138	65535	64637.35
896.7311	1583.986	65535	64636.5
896.8736	1585.7575	65535	64638.1
897.0161	1587.5282	65535	64639.2
897.1585	1589.2981	65535	64637.85
897.3009	1591.0673	65535	64639.3
897.4433	1592.8358	65535	64639.85
897.5857	1594.6035	65535	64633.85
897.7281	1596.3704	65535	64636.25
897.8705	1598.1366	65530.3	64633.8
898.0128	1599.9021	65526	64631.1
898.1551	1601.6668	65535	64638.2
898.2975	1603.4308	65527.65	64630.85
898.4398	1605.194	65527.45	64626.35
898.5821	1606.9564	65511.25	64613.85
898.7243	1608.7182	65523.9	64623.6
898.8666	1610.4791	65513.05	64620.25
899.0088	1612.2394	65526.7	64634.5
899.1511	1613.9988	65501.95	64606.75
899.2933	1615.7576	65527	64632.65
899.4355	1617.5156	65525.5	64623.5
899.5776	1619.2728	65535	64637.85
899.7198	1621.0293	65513.8	64620.95
899.862	1622.785	65512.8	64613.35
900.0041	1624.54	65525.75	64628
900.1462	1626.2942	65493.55	64598.8
900.2883	1628.0477	65398.15	64500.1
900.4304	1629.8005	65230	64330.05
900.5725	1631.5525	65421.55	64527.85
900.7145	1633.3037	65154.05	64257.25
900.8566	1635.0542	65076.4	64181.95
900.9986	1636.804	65287.1	64391.5
901.1406	1638.553	64855.25	63877.95
901.2826	1640.3013	65000.3	64105.75
901.4245	1642.0488	64717.55	63819.6
901.5665	1643.7955	64958.4	64064.2
901.7085	1645.5416	64750.25	63856.45
901.8504	1647.2868	64441.2	63544.6
901.9923	1649.0313	64907.75	64013.5
902.1342	1650.7751	64635.7	63736.1
902.2761	1652.5181	64428.1	63533.75
902.4179	1654.2604	64485.85	63588.45
902.5598	1656.0019	64639.2	63746.35
902.7016	1657.7427	64559.35	63664.15
902.8434	1659.4828	64875.15	63979.7
902.9852	1661.222	64514.05	63618.25
903.127	1662.9606	64941.75	64044.7
903.2687	1664.6984	64367.25	63471.45
903.4105	1666.4354	64614.75	63719.35
903.5522	1668.1717	63825.75	62932.65
903.6939	1669.9072	62784.05	61887.8
903.8356	1671.642	62821.85	61924.05
903.9773	1673.3761	62517.9	61623.1
904.119	1675.1094	62307	61414.3
904.2606	1676.8419	61387.2	60491.85
904.4022	1678.5737	61687.65	60793.5
904.5439	1680.3048	61244.6	60350.65
904.6855	1682.0351	60879	59983.1
904.827	1683.7646	60518.95	59622.05
904.9686	1685.4934	60850.1	59953.1
905.1101	1687.2215	59357.65	58461.7
905.2517	1688.9488	60400.35	59507.25
905.3932	1690.6754	58327.3	57434.05
905.5347	1692.4012	59241.15	58347.85
905.6761	1694.1263	59346.25	58451.95
905.8176	1695.8506	58594.5	57698.1
905.9591	1697.5742	58579.85	57685.1
906.1005	1699.297	58340.05	57444.55
906.2419	1701.0191	58421.2	57529.2
906.3833	1702.7404	57524.7	56631.25
906.5246	1704.461	57192.6	56297.5
906.666	1706.1808	57460.7	56564.85
906.8073	1707.8999	57278.25	56385.05
906.9487	1709.6182	56947.65	56051.8
907.09	1711.3358	56879.15	55984.5
907.2313	1713.0527	56617.95	55727.4
907.3725	1714.7688	56637.25	55736.9
907.5138	1716.4841	55676.8	54782.6
907.655	1718.1987	56029.3	55132.2
907.7962	1719.9126	55758.45	54866.4
907.9374	1721.6257	55716.6	54820.9
908.0786	1723.338	55834	54940.2
908.2198	1725.0496	54857.5	53961.15
908.3609	1726.7605	54788.75	53895.1
908.502	1728.4706	54568.4	53673
908.6431	1730.18	54637.6	53741.7
908.7842	1731.8886	54377	53482.55
908.9253	1733.5964	54071.6	53157.25
909.0664	1735.3036	54313.95	53416.5
909.2074	1737.0099	54056.15	53161.2
909.3484	1738.7156	53570.7	52676.85
909.4894	1740.4204	53425.3	52529.25
909.6304	1742.1246	53420.95	52525.25
909.7714	1743.8279	53390.6	52499.1
909.9123	1745.5306	53315.75	52422.1
910.0532	1747.2325	52649.15	51755.2
910.1941	1748.9336	52588.7	51695.3
910.335	1750.634	52509.45	51615.1
910.4759	1752.3336	52586.8	51694.75
910.6168	1754.0325	52217	51323.4
910.7576	1755.7307	52339.1	51445.95
910.8984	1757.4281	51968.3	51074.75
911.0392	1759.1247	52162.75	51259.25
911.18	1760.8206	51726.2	50828.95
911.3208	1762.5158	51701.45	50802.5
911.4615	1764.2102	51519.45	50625.55
911.6022	1765.9039	51293.55	50400.5
911.7429	1767.5968	51207.95	50317.05
911.8836	1769.289	50984.95	50091
912.0243	1770.9804	50912.4	50016.95
912.1649	1772.6711	50789.15	49895.8
912.3056	1774.361	50644.45	49749.45
912.4462	1776.0502	50530.45	49637.55
912.5868	1777.7386	50254.45	49356.4
912.7274	1779.4263	50128.2	49236.05
912.8679	1781.1132	50106.4	49212.9
913.0084	1782.7994	49918.15	49023.9
913.149	1784.4849	49887.5	48995.75
913.2895	1786.1696	49549.75	48650.55
913.4299	1787.8535	49484.9	48592.2
913.5704	1789.5367	49333.9	48441.45
913.7108	1791.2192	49245.2	48355.25
913.8513	1792.9009	49112.4	48187.55
913.9917	1794.5818	49005.65	48112.7
914.132	1796.2621	48837.85	47945.8
914.2724	1797.9415	48676.95	47783.25
914.4128	1799.6202	48531.2	47638.2
914.5531	1801.2982	48501.15	47608.5
914.6934	1802.9755	48271.35	47377.2
914.8337	1804.6519	48183.75	47291.85
914.9739	1806.3277	48038.3	47146.45
915.1142	1808.0027	47737.55	46846.15
915.2544	1809.6769	47703.35	46809.05
915.3946	1811.3504	47635.7	46743.2
915.5348	1813.0231	47389.95	46496.4
915.675	1814.6951	47361	46468.05
915.8151	1816.3664	47281.1	46387.7
915.9553	1818.0369	47161.75	46268.8
916.0954	1819.7067	46998.1	46106.7
916.2355	1821.3757	46871.75	45978.4
916.3755	1823.044	46713.85	45821.2
916.5156	1824.7115	46626.45	45733.75
916.6556	1826.3783	46436.75	45543.65
916.7956	1828.0443	46234.6	45342.9
916.9356	1829.7096	46182.7	45288.4
917.0756	1831.3741	46110.95	45214.35
917.2155	1833.0379	46002.7	45110.45
917.3555	1834.701	45756.7	44863.35
917.4954	1836.3633	45716.5	44822.6
917.6353	1838.0248	45516.15	44623.25
917.7751	1839.6856	45454.3	44562.1
917.915	1841.3457	45420.6	44529.15
918.0548	1843.005	45351.9	44461.1
918.1946	1844.6636	45210.15	44318.65
918.3344	1846.3214	45016.85	44124.15
918.4742	1847.9785	45016.35	44125.25
918.6139	1849.6349	44840.5	43947.55
918.7537	1851.2904	44723.85	43821.85
918.8934	1852.9453	44545.75	43652.15
919.0331	1854.5994	44429.25	43534.2
919.1727	1856.2528	44476.8	43578.1
919.3124	1857.9054	44281.65	43388.35
919.452	1859.5572	44216.65	43325.55
919.5916	1861.2083	44117.75	43225.75
919.7312	1862.8587	44096.6	43204
919.8708	1864.5084	43901.6	43010.4
920.0103	1866.1572	43768.45	42875.25
920.1498	1867.8054	43505.5	42612
920.2893	1869.4528	43439	42548.25
920.4288	1871.0994	43337.6	42445.5
920.5683	1872.7453	43249.65	42355.85
920.7077	1874.3905	43101.05	42204.1
920.8471	1876.0349	42984	42091.65
920.9865	1877.6786	42972.6	42077.75
921.1259	1879.3215	42879.3	41985.2
921.2653	1880.9637	42734.85	41840.6
921.4046	1882.6051	42674	41781.85
921.5439	1884.2458	42492.25	41599.55
921.6832	1885.8858	42366.9	41475.75
921.8225	1887.525	42287.75	41394.2
921.9617	1889.1634	42131.85	41239
922.101	1890.8011	41908.1	41013.95
922.2402	1892.4381	41765.85	40872.95
922.3794	1894.0743	41759	40865.3
922.5185	1895.7098	41631.2	40739.85
922.6577	1897.3446	41560.4	40667.6
922.7968	1898.9786	41429.95	40531.6
922.9359	1900.6118	41267.7	40375.45
923.075	1902.2443	41035.35	40141.9
923.214	1903.8761	41022.9	40131.15
923.3531	1905.5071	40739.25	39845.2
923.4921	1907.1374	40625.65	39732.8
923.6311	1908.7669	40507.9	39615.65
923.77	1910.3957	40467.45	39575.55
923.909	1912.0237	40189.6	39299.6
924.0479	1913.651	40108.25	39215.6
924.1868	1915.2776	40036.3	39145.55
924.3257	1916.9034	39885.75	38995.5
924.4646	1918.5285	39671.15	38780.5
924.6034	1920.1528	39424.6	38534.5
924.7422	1921.7764	39417.25	38524.85
924.881	1923.3992	39269.8	38377.75
925.0198	1925.0213	38981.6	38088.45
925.1586	1926.6427	38830.8	37941.5
925.2973	1928.2633	38868.15	37861.25
925.436	1929.8832	38634.95	37741.9
925.5747	1931.5023	38444.6	37551.25
925.7134	1933.1207	38343.45	37452.05
925.852	1934.7383	38249.7	37359.15
925.9906	1936.3552	38101.8	37209.25
926.1292	1937.9714	37973.25	37080.65
926.2678	1939.5868	37802.9	36909.15
926.4064	1941.2015	37647.9	36757.05
926.5449	1942.8154	37487	36593.95
926.6834	1944.4286	37333.1	36441
926.8219	1946.041	37164.75	36253.15
926.9604	1947.6528	36933.4	36036.2
927.0988	1949.2637	36897.9	36006.5
927.2372	1950.8739	36774.2	35880.75
927.3756	1952.4834	36692.55	35801.5
927.514	1954.0921	36537.55	35642.7
927.6523	1955.7001	36397.1	35501.4
927.7907	1957.3074	36281.65	35392.1
927.929	1958.9139	36141.65	35251.7
928.0673	1960.5197	36076.9	35184.55
928.2055	1962.1247	35868.75	34977.45
928.3438	1963.729	35713.5	34824.2
928.482	1965.3325	35618.4	34703.75
928.6202	1966.9353	35455.2	34565.7
928.7584	1968.5374	35373.5	34479.5
928.8965	1970.1387	35229.4	34336.45
929.0346	1971.7393	35082.1	34190.65
929.1727	1973.3392	34951	34061.05
929.3108	1974.9383	34822.6	33931.5
929.4489	1976.5366	34651.45	33760.3
929.5869	1978.1342	34634.8	33743.2
929.7249	1979.7311	34524.85	33631.2
929.8629	1981.3273	34408.5	33518.2
930.0009	1982.9227	34273	33381.35
930.1388	1984.5173	34142.7	33250.4
930.2767	1986.1112	33999.55	33108.6
930.4146	1987.7044	33928.35	33039.2
930.5525	1989.2968	33800.15	32909.45
930.6904	1990.8885	33699.1	32805.2
930.8282	1992.4795	33649.25	32757.25
930.966	1994.0697	33484.7	32594.15
931.1038	1995.6592	33340.8	32450.95
931.2415	1997.2479	33240.45	32348.35
931.3793	1998.8359	33172.5	32280.65
931.517	2000.4232	32984.15	32092.85
931.6547	2002.0097	32847.7	31957.55
931.7923	2003.5955	32733.4	31841.25
931.93	2005.1805	32685	31793.65
932.0676	2006.7648	32598.25	31708.2
932.2052	2008.3484	32400.9	31507.4
932.3427	2009.9312	32446.8	31555.45
932.4803	2011.5133	32269	31380.25
932.6178	2013.0946	32172.95	31282.35
932.7553	2014.6752	32110.45	31221.05
932.8928	2016.2551	32041.1	31149.3
933.0302	2017.8342	31836.85	30946.95
933.1676	2019.4126	31718.85	30829.6
933.305	2020.9902	31612.25	30723.25
933.4424	2022.5672	31535.95	30643.9
933.5798	2024.1433	31497.3	30599.8
933.7171	2025.7188	31338.4	30447.85
933.8544	2027.2935	31250.05	30358.2
933.9917	2028.8674	31063.6	30172.05
934.129	2030.4406	30973.8	30085.25
934.2662	2032.0131	30847.25	29956.3
934.4034	2033.5849	30742.85	29847
934.5406	2035.1559	30690.3	29801.35
934.6778	2036.7261	30604.5	29713.45
934.8149	2038.2957	30516.2	29626.9
934.952	2039.8645	30440.5	29551.45
935.0891	2041.4325	30445.65	29552.65
935.2262	2042.9998	30272.85	29381.5
935.3632	2044.5664	30195.35	29301.6
935.5002	2046.1323	30081.3	29190
935.6372	2047.6974	29981.15	29091.8
935.7742	2049.2617	29908.6	29019.25
935.9111	2050.8254	29847.5	28935.65
936.048	2052.3883	29830.75	28936.15
936.1849	2053.9504	29707.1	28817.7
936.3218	2055.5118	29575.5	28683.95
936.4586	2057.0725	29441.45	28545.4
936.5955	2058.6325	29400.8	28509.55
936.7323	2060.1917	29246.4	28357.75
936.869	2061.7502	29219	28326.45
937.0058	2063.3079	29043.05	28152.85
937.1425	2064.8649	28989.45	28097.85
937.2792	2066.4212	28886.45	27995.3
937.4159	2067.9767	28809.1	27917.1
937.5525	2069.5315	28654.2	27762.6
937.6891	2071.0856	28522.05	27631.1
937.8257	2072.6389	28412.45	27520.9
937.9623	2074.1915	28302.85	27415.2
938.0989	2075.7433	28130.45	27237.8
938.2354	2077.2945	28059.45	27172.1
938.3719	2078.8448	28012.9	27122.45
938.5084	2080.3945	27895.9	27003.05
938.6448	2081.9434	27816.6	26925.85
938.7812	2083.4916	27762.4	26871.6
938.9176	2085.039	27617.6	26724.9
939.054	2086.5857	27595.35	26702.4
939.1903	2088.1317	27542.65	26651.1
939.3267	2089.677	27442.75	26551.5
939.463	2091.2215	27346.3	26455.65
939.5992	2092.7652	27259.6	26368.75
939.7355	2094.3083	27169.45	26278.55
939.8717	2095.8506	27121.2	26231.9
940.0079	2097.3921	27123.05	26231.8
940.1441	2098.933	26960.5	26069.8
940.2802	2100.4731	26908.55	26019.05
940.4163	2102.0124	26879.4	25982.35
940.5524	2103.5511	26800.25	25908
940.6885	2105.089	26749.65	25859.2
940.8245	2106.6261	26654.5	25763
940.9606	2108.1626	26529.5	25637.25
941.0965	2109.6983	26529.1	25606.85
941.2325	2111.2332	26403.4	25511.75
941.3684	2112.7675	26285.3	25392.95
941.5044	2114.301	26179.65	25288.45
941.6403	2115.8337	26195.1	25305
941.7761	2117.3657	26101.95	25212.2
941.912	2118.897	26034.1	25139.95
942.0478	2120.4276	25945.85	25050.15
942.1835	2121.9575	25829.1	24935.8
942.3193	2123.4866	25818.4	24912.2
942.455	2125.0149	25725.05	24830.85
942.5907	2126.5426	25568.95	24679
942.7264	2128.0695	25504.35	24609.5
942.8621	2129.5956	25428.7	24540.7
942.9977	2131.1211	25394.5	24498.7
943.1333	2132.6458	25332	24441.55
943.2689	2134.1698	25238.95	24346.75
943.4044	2135.693	25146.1	24253.3
943.54	2137.2155	25097.75	24203.35
943.6755	2138.7373	25043.65	24151.25
943.8109	2140.2584	24938.45	24046.6
943.9464	2141.7787	24833.1	23935.4
944.0818	2143.2983	24733.5	23844.45
944.2172	2144.8171	24586.7	23698.05
944.3526	2146.3353	24508.85	23616.65
944.4879	2147.8527	24448.45	23559.45
944.6232	2149.3693	24395.65	23502.3
944.7585	2150.8853	24320.2	23429.3
944.8938	2152.4005	24201.25	23311.85
945.029	2153.9149	24130	23239.1
945.1642	2155.4287	24083.05	23191.2
945.2994	2156.9417	24010.15	23117
945.4346	2158.454	23946.25	23051.9
945.5697	2159.9655	23870.35	22980.5
945.7048	2161.4764	23845.55	22955.2
945.8399	2162.9865	23744.15	22854.9
945.9749	2164.4958	23649.4	22758.45
946.1099	2166.0045	23587.65	22693.75
946.2449	2167.5124	23590.25	22697.85
946.3799	2169.0195	23462.65	22572.1
946.5148	2170.526	23441.45	22550.25
946.6498	2172.0317	23374.75	22486.05
946.7846	2173.5367	23278.7	22386.95
946.9195	2175.0409	23213.45	22323.05
947.0543	2176.5445	23202.4	22312.25
947.1891	2178.0473	23095.95	22203.9
947.3239	2179.5494	22963.1	22068
947.4587	2181.0507	22842.05	21949.3
947.5934	2182.5513	22810.35	21918.2
947.7281	2184.0512	22765.25	21874.35
947.8628	2185.5504	22686.2	21795.65
947.9974	2187.0488	22529.35	21638.05
948.132	2188.5465	22455.4	21563.3
948.2666	2190.0435	22390.65	21498.1
948.4012	2191.5397	22345.55	21455.3
948.5357	2193.0353	22264.55	21374.3
948.6702	2194.5301	22174.75	21279.65
948.8047	2196.0241	22045.7	21154.4
948.9392	2197.5175	21999.55	21106.45
949.0736	2199.0101	21923.25	21027.2
949.208	2200.502	21802.7	20912.8
949.3424	2201.9931	21730.4	20838.8
949.4767	2203.4835	21637.9	20743.75
949.611	2204.9733	21568.7	20671.6
949.7453	2206.4622	21557.85	20666.25
949.8796	2207.9505	21444.4	20551.05
950.0138	2209.438	21334.3	20442.8
950.148	2210.9248	21229.5	20336.3
950.2822	2212.4109	21172.1	20280.5
950.4164	2213.8962	21103.45	20208.8
950.5505	2215.3809	21085.05	20190.75
950.6846	2216.8648	21028.4	20137.5
950.8186	2218.3479	20909.8	20012.35
950.9527	2219.8304	20842.45	19948.6
951.0867	2221.3121	20728.6	19834.4
951.2207	2222.7931	20686.45	19795.7
951.3546	2224.2733	20605.15	19712.8
951.4886	2225.7529	20539.2	19645.6
951.6225	2227.2317	20459.45	19564.8
951.7563	2228.7098	20475.8	19583.6
951.8902	2230.1872	20343.45	19452.6
952.024	2231.6638	20283.9	19393.25
952.1578	2233.1397	20185.65	19288.8
952.2916	2234.6149	20171.7	19281.75
952.4253	2236.0894	20068.9	19177.2
952.559	2237.5632	20017.75	19118.8
952.6927	2239.0362	19924.1	19032.7
952.8263	2240.5085	19867.35	18975.95
952.9599	2241.9801	19796.8	18903.35
953.0935	2243.4509	19763.1	18871.45
953.2271	2244.921	19691.05	18799.4
953.3606	2246.3904	19566.4	18673.1
953.4941	2247.8591	19531.5	18640.15
953.6276	2249.3271	19434.2	18543.2
953.7611	2250.7943	19360.5	18467.65
953.8945	2252.2608	19299.75	18408.1
954.0279	2253.7266	19262.95	18372.75
954.1612	2255.1917	19191.55	18299.4
954.2946	2256.656	19099.95	18207.1
954.4279	2258.1197	19018.95	18128.15
954.5612	2259.5826	19018.55	18126.8
954.6944	2261.0447	18980.65	18087.45
954.8276	2262.5062	18863.5	17969.95
954.9608	2263.9669	18847.6	17954.6
955.094	2265.4269	18778.1	17886.15
955.2271	2266.8862	18710.9	17819.75
955.3602	2268.3448	18669.3	17775.65
955.4933	2269.8026	18630.3	17738.75
955.6264	2271.2598	18558.4	17667.6
955.7594	2272.7162	18487.45	17596.2
955.8924	2274.1719	18465.5	17575.1
956.0253	2275.6268	18374.15	17483.55
956.1583	2277.0811	18318.1	17424.4
956.2912	2278.5346	18283.8	17393.1
956.4241	2279.9874	18230.6	17339.7
956.5569	2281.4395	18184.6	17293.45
956.6897	2282.8908	18108.6	17213.85
956.8225	2284.3414	18071.5	17178.05
956.9553	2285.7914	17983.6	17092.55
957.088	2287.2406	17920.65	17027.1
957.2207	2288.689	17863.9	16971.3
957.3534	2290.1368	17832.1	16941.05
957.486	2291.5838	17754.8	16860.5
957.6186	2293.0302	17683.8	16790.65
957.7512	2294.4758	17600.4	16708.75
957.8838	2295.9206	17543.25	16651.9
958.0163	2297.3648	17471.15	16579.9
958.1488	2298.8082	17479.25	16586.65
958.2813	2300.251	17442	16551.2
958.4137	2301.693	17356.8	16462.85
958.5461	2303.1343	17349.35	16458.15
958.6785	2304.5748	17261.2	16371.25
958.8108	2306.0147	17217.05	16325.2
958.9432	2307.4538	17113	16219.65
959.0754	2308.8922	17104.25	16215.5
959.2077	2310.3299	17025.3	16135.4
959.3399	2311.7669	16985.4	16093.7
959.4721	2313.2031	16926.3	16036.75
959.6043	2314.6387	16846.15	15955.55
959.7365	2316.0735	16782.45	15889.55
959.8686	2317.5076	16760.75	15869.3
960.0006	2318.941	16730.4	15839.6
960.1327	2320.3737	16615.65	15724.9
960.2647	2321.8056	16576.85	15685
960.3967	2323.2369	16548.1	15655.8
960.5287	2324.6674	16476.05	15582.45
960.6606	2326.0972	16407.5	15515.7
960.7925	2327.5263	16377.4	15487.4
960.9244	2328.9547	16303.85	15413.1
961.0562	2330.3823	16273.45	15381.75
961.1881	2331.8092	16237.8	15345.25
961.3198	2333.2355	16166.65	15274.35
961.4516	2334.661	16121.6	15229.25
961.5833	2336.0858	16068.65	15175.65
961.715	2337.5098	16035.5	15143.15
961.8467	2338.9332	16023.5	15131.25
961.9783	2340.3558	15940.75	15048.05
962.1099	2341.7778	15868.45	14976.4
962.2415	2343.199	15810.85	14915.95
962.373	2344.6195	15765.95	14876.7
962.5045	2346.0393	15739.15	14848.75
962.636	2347.4583	15698.5	14806.8
962.7675	2348.8767	15642.45	14748.55
962.8989	2350.2943	15575.25	14682.9
963.0303	2351.7113	15525.8	14633.5
963.1617	2353.1275	15475.45	14582.6
963.293	2354.543	15441.85	14542.1
963.4243	2355.9578	15403.7	14513.1
963.5556	2357.3718	15307.35	14415.05
963.6868	2358.7852	15216.35	14323.6
963.818	2360.1978	15167.95	14276.3
963.9492	2361.6098	15156.45	14265.2
964.0803	2363.021	15097.85	14201.65
964.2114	2364.4315	15060.7	14170.55
964.3425	2365.8413	14975.35	14082.75
964.4736	2367.2504	14919.6	14027.6
964.6046	2368.6587	14838.95	13949.4
964.7356	2370.0664	14767.55	13876.2
964.8666	2371.4733	14719.7	13827.5
964.9975	2372.8795	14700.8	13811.1
965.1284	2374.285	14645.45	13756
965.2593	2375.6899	14572.1	13682.7
965.3901	2377.0939	14468.85	13578.8
965.5209	2378.4973	14454.5	13565.6
965.6517	2379.9	14381.4	13490.5
965.7825	2381.3019	14327	13438.2
965.9132	2382.7032	14282.4	13392.5
966.0439	2384.1037	14222.45	13333.55
966.1745	2385.5035	14167.15	13277.6
966.3051	2386.9027	14113.75	13225.75
966.4357	2388.3011	14126.8	13232.2
966.5663	2389.6987	14079	13189.05
966.6968	2391.0957	14007.7	13117.2
966.8273	2392.492	13973.95	13082.35
966.9578	2393.8876	13832.55	12940.25
967.0882	2395.2824	13790.45	12899.45
967.2186	2396.6765	13746.35	12857.2
967.349	2398.07	13662.1	12773.25
967.4793	2399.4627	13649.85	12757.95
967.6097	2400.8547	13597.1	12707.2
967.7399	2402.246	13547.15	12650.85
967.8702	2403.6366	13463.8	12573.55
968.0004	2405.0265	13420	12530.1
968.1306	2406.4156	13364.9	12469.3
968.2607	2407.8041	13343.05	12448.05
968.3909	2409.1918	13271.15	12377.95
968.521	2410.5789	13209.8	12319
968.651	2411.9652	13174.55	12281.95
968.781	2413.3508	13128.25	12238.65
968.911	2414.7358	13078.65	12188.15
969.041	2416.12	13011.6	12122.8
969.1709	2417.5035	12976.2	12086.3
969.3008	2418.8863	12947.4	12055.85
969.4307	2420.2684	12901.05	12010.8
969.5606	2421.6497	12847.05	11955.2
969.6904	2423.0304	12750.6	11861.9
969.8201	2424.4104	12743.1	11849.2
969.9499	2425.7896	12709.5	11815.85
970.0796	2427.1682	12679.4	11789.1
970.2093	2428.546	12600.8	11712.8
970.3389	2429.9232	12589.25	11697.3
970.4685	2431.2996	12533.35	11642.1
970.5981	2432.6753	12573.8	11683.1
970.7277	2434.0503	12484.35	11594
970.8572	2435.4246	12404.9	11515.75
970.9867	2436.7982	12384.9	11491.7
971.1161	2438.1711	12339.2	11448.85
971.2456	2439.5433	12299.45	11409.75
971.375	2440.9148	12240.45	11349.1
971.5043	2442.2856	12169.55	11279.25
971.6336	2443.6557	12169.1	11278.8
971.7629	2445.025	12115.4	11224
971.8922	2446.3937	12096.05	11206.3
972.0214	2447.7617	12011.3	11121
972.1506	2449.1289	11997.85	11108.15
972.2798	2450.4955	11962.35	11069.45
972.4089	2451.8613	11909.55	11018.9
972.538	2453.2265	11907.95	11016.75
972.6671	2454.5909	11876.25	10983.5
972.7961	2455.9546	11829.85	10939.5
972.9251	2457.3177	11771.65	10883.1
973.0541	2458.68	11735.9	10845.4
973.1831	2460.0416	11744.5	10854.65
973.312	2461.4025	11695.65	10803.35
973.4408	2462.7627	11652.05	10751.35
973.5697	2464.1222	11629.25	10741.15
973.6985	2465.4811	11578.55	10685
973.8273	2466.8392	11539.2	10649.15
973.956	2468.1966	11496.25	10602.2
974.0847	2469.5533	11485.15	10591.2
974.2134	2470.9093	11476.15	10584.95
974.3421	2472.2645	11406.9	10516.45
974.4707	2473.6191	11378.1	10489.4
974.5993	2474.973	11312.7	10422.4
974.7278	2476.3262	11291.5	10399.75
974.8563	2477.6787	11245.15	10354.05
974.9848	2479.0305	11198.65	10307.3
975.1132	2480.3816	11148.55	10254.85
975.2417	2481.7319	11117.45	10226.7
975.37	2483.0816	11083.2	10192.4
975.4984	2484.4306	11033.85	10142.5
975.6267	2485.7789	10976.7	10087.55
975.755	2487.1264	10936.25	10044.8
975.8833	2488.4733	10881.3	9990.95
976.0115	2489.8195	10865.95	9957.1
976.1397	2491.165	10816.2	9920.85
976.2678	2492.5097	10783.55	9891.65
976.3959	2493.8538	10745.55	9856.5
976.524	2495.1972	10650.15	9762.4
976.6521	2496.5398	10608.1	9715.8
976.7801	2497.8818	10592.85	9700.55
976.9081	2499.2231	10598.35	9705.6
977.036	2500.5637	10531.75	9637.8
977.164	2501.9035	10497.9	9605
977.2918	2503.2427	10480.95	9586.4
977.4197	2504.5812	10437.4	9547.4
977.5475	2505.919	10418.9	9527.35
977.6753	2507.256	10378.1	9487.35
977.8031	2508.5924	10324.3	9434.15
977.9308	2509.9281	10304.9	9407.6
978.0585	2511.2631	10256.45	9365.45
978.1861	2512.5974	10226.15	9335.6
978.3137	2513.9309	10193.95	9302.85
978.4413	2515.2638	10169.95	9254.65
978.5689	2516.596	10108.65	9218.5
978.6964	2517.9275	10075.15	9184.2
978.8239	2519.2583	10040.35	9149.05
978.9513	2520.5884	9998.5	9105.6
979.0788	2521.9178	9963.7	9072.45
979.2062	2523.2465	9915.25	9023.85
979.3335	2524.5745	9874.55	8984.6
979.4608	2525.9018	9869.1	8977.25
979.5881	2527.2284	9845.55	8955.2
979.7154	2528.5543	9796.2	8906.45
979.8426	2529.8796	9786.15	8895.5
979.9698	2531.2041	9754.35	8861.85
980.0969	2532.5279	9726.15	8836.6
980.224	2533.851	9706.35	8815.4
980.3511	2535.1735	9658.2	8769.15
980.4781	2536.4952	9629.8	8738.5
980.6052	2537.8163	9619.35	8725.65
980.7321	2539.1366	9548	8658.95
980.8591	2540.4562	9549	8656.6
980.986	2541.7752	9516.25	8624.35
981.1129	2543.0935	9518.3	8626.7
981.2397	2544.411	9472.5	8580.25
981.3665	2545.7279	9464.3	8572.8
981.4933	2547.0441	9452.2	8561.7
981.62	2548.3596	9444.7	8551.2
981.7467	2549.6744	9383.85	8491.05
981.8734	2550.9885	9349.85	8458.25
982.0001	2552.3019	9328.5	8438.65
982.1267	2553.6146	9325.95	8435.2
982.2532	2554.9266	9274.85	8381.85
982.3798	2556.2379	9244.8	8350.55
982.5063	2557.5485	9233.35	8342.4
982.6327	2558.8585	9224.2	8326.7
982.7592	2560.1677	9207.4	8312.55
982.8856	2561.4762	9159.3	8270
983.0119	2562.7841	9160	8266.7
983.1383	2564.0913	9128.4	8239.25
983.2646	2565.3977	9109.75	8218.65
983.3908	2566.7035	9085.65	8196.15
983.517	2568.0086	9041.25	8149.15
983.6432	2569.313	9043.1	8152.05
983.7694	2570.6167	9048.95	8153.45
983.8955	2571.9197	8990.45	8099.55
984.0216	2573.222	8981.05	8087.85
984.1476	2574.5236	8969.25	8078.55
984.2737	2575.8246	8909.3	8017.3
984.3996	2577.1248	8883.85	7988.45
984.5256	2578.4244	8874.3	7983.05
984.6515	2579.7232	8876.15	7983.4
984.7774	2581.0214	8874.95	7960.05
984.9032	2582.3189	8821.5	7931.7
985.029	2583.6157	8811.25	7914.55
985.1548	2584.9118	8773.95	7882.6
985.2806	2586.2072	8761.95	7870.2
985.4063	2587.5019	8721	7830.35
985.5319	2588.7959	8724.05	7833.05
985.6576	2590.0893	8699.15	7807.65
985.7832	2591.3819	8673.05	7783.4
985.9087	2592.6739	8639.4	7747.85
986.0343	2593.9652	8638	7744.8
986.1597	2595.2557	8604.7	7712.4
986.2852	2596.5456	8543.75	7651.45
986.4106	2597.8348	8537.8	7648
986.536	2599.1234	8484.6	7594.45
986.6614	2600.4112	8471.3	7580.25
986.7867	2601.6983	8443.75	7548.25
986.912	2602.9848	8424.8	7533.1
987.0372	2604.2705	8374.15	7477.15
987.1624	2605.5556	8361.95	7469.85
987.2876	2606.84	8316.2	7425.55
987.4128	2608.1237	8283.3	7391.9
987.5379	2609.4067	8252.25	7360.35
987.6629	2610.689	8236.3	7339.2
987.788	2611.9707	8200.25	7306.25
987.913	2613.2516	8165.35	7269.75
988.0379	2614.5319	8141.2	7249.3
988.1629	2615.8115	8083.95	7194.15
988.2878	2617.0903	8063.3	7170.6
988.4126	2618.3685	8015.3	7125.4
988.5375	2619.6461	8017.15	7127.4
988.6622	2620.9229	7984.2	7094.7
988.787	2622.199	7949.55	7058.9
988.9117	2623.4745	7924.25	7033.05
989.0364	2624.7493	7915.15	7024.75
989.161	2626.0234	7893.45	7003.85
989.2857	2627.2968	7872.5	6981.85
989.4102	2628.5695	7817.45	6925.1
989.5348	2629.8415	7812.45	6922
989.6593	2631.1128	7742.75	6850.45
989.7837	2632.3835	7725.15	6833.35
989.9082	2633.6535	7676.25	6786.85
990.0326	2634.9228	7693.2	6801.85
990.1569	2636.1914	7632.7	6743.9
990.2812	2637.4593	7630.1	6738.2
990.4055	2638.7265	7589.75	6699.55
990.5298	2639.9931	7567.15	6675.65
990.654	2641.259	7545	6653.55
990.7782	2642.5242	7537.8	6645.95
990.9023	2643.7887	7503.35	6612.25
991.0264	2645.0525	7488.65	6596.35
991.1505	2646.3156	7461.5	6571.7
991.2745	2647.5781	7428.1	6538.75
991.3985	2648.8398	7372.2	6481.75
991.5225	2650.1009	7382.25	6481.7
991.6464	2651.3613	7376	6485.8
991.7703	2652.6211	7346.8	6455
991.8942	2653.8801	7333.4	6443.1
992.018	2655.1385	7304	6410.05
992.1418	2656.3961	7266.65	6377.2
992.2655	2657.6531	7263.3	6371.4
992.3892	2658.9094	7222.3	6330.15
992.5129	2660.1651	7212.05	6321.65
992.6366	2661.42	7218.5	6328.4
992.7602	2662.6743	7179.95	6288.9
992.8837	2663.9279	7153.1	6263.7
993.0073	2665.1808	7122.3	6231.45
993.1307	2666.433	7109.35	6216.7
993.2542	2667.6846	7105.85	6216.15
993.3776	2668.9354	7073.95	6178.55
993.501	2670.1856	7049.2	6157.1
993.6244	2671.4351	7035.65	6143.75
993.7477	2672.6839	7045	6153.8
993.8709	2673.9321	7023.55	6136.1
993.9942	2675.1795	6990.75	6099.7
994.1174	2676.4263	6950.45	6059.3
994.2405	2677.6724	6946	6055.65
994.3637	2678.9179	6919.05	6027
994.4868	2680.1626	6922.8	6032.05
994.6098	2681.4067	6894.2	6002.6
994.7328	2682.6501	6857.6	5964.9
994.8558	2683.8928	6840	5948.65
994.9788	2685.1348	6827.85	5939.6
995.1017	2686.3761	6772.3	5883.9
995.2245	2687.6168	6756	5865.9
995.3474	2688.8568	6746.85	5856.6
995.4702	2690.0961	6711.15	5821.45
995.5929	2691.3348	6716.55	5824.5
995.7156	2692.5727	6680.3	5789.7
995.8383	2693.81	6666.7	5776.25
995.961	2695.0466	6636.5	5746.1
996.0836	2696.2826	6622.5	5732
996.2062	2697.5178	6608.45	5717.1
996.3287	2698.7524	6588.35	5696
996.4512	2699.9863	6566.05	5673.05
996.5737	2701.2195	6524.15	5634.4
996.6961	2702.452	6520.7	5627.95
996.8185	2703.6839	6487.5	5594.65
996.9408	2704.9151	6492.3	5603.6
997.0631	2706.1456	6449.35	5559.05
997.1854	2707.3755	6445.9	5555.2
997.3077	2708.6046	6435.35	5541.6
997.4299	2709.8331	6406.2	5516.05
997.552	2711.0609	6417.3	5526.8
997.6742	2712.2881	6387.25	5496.7
997.7963	2713.5145	6374.5	5479.85
997.9183	2714.7403	6367.8	5478.25
998.0403	2715.9654	6340.85	5450.4
998.1623	2717.1899	6348.95	5442.15
998.2842	2718.4136	6328.25	5437.55
998.4062	2719.6367	6338.45	5448.7
998.528	2720.8591	6310.25	5413.05
998.6498	2722.0809	6276.9	5385.3
998.7716	2723.3019	6277.55	5382.15
998.8934	2724.5223	6274.4	5380.9
999.0151	2725.7421	6254.85	5361.55
999.1368	2726.9611	6243.25	5350.15
999.2584	2728.1795	6203.2	5309
999.38	2729.3972	6175.8	5285.1
999.5016	2730.6142	6162.8	5261.5
999.6231	2731.8306	6115.1	5222.8
999.7446	2733.0462	6076.85	5185.05
999.8661	2734.2612	6056.1	5157.95
999.9875	2735.4756	6015.4	5120.05
1000.1089	2736.6892	5974.4	5081.9
1000.2302	2737.9022	5935.95	5046.1
1000.3515	2739.1145	5917.7	5025.4
1000.4728	2740.3262	5886.3	4988.7
1000.594	2741.5372	5844.65	4952.3
1000.7152	2742.7475	5806.55	4915.1
1000.8363	2743.9571	5785.4	4894.1
1000.9575	2745.1661	5764.55	4868.6
1001.0785	2746.3744	5742.8	4851.3
1001.1996	2747.582	5733.5	4840.05
1001.3206	2748.7889	5707.7	4816.85
1001.4415	2749.9952	5697.8	4809
1001.5625	2751.2008	5664.45	4771.75
1001.6833	2752.4057	5650.5	4758
1001.8042	2753.61	5604.65	4714.85
1001.925	2754.8136	5593.1	4701.65
1002.0458	2756.0165	5571.8	4683.25
1002.1665	2757.2188	5570.05	4679.8
1002.2872	2758.4204	5541.15	4651.3
1002.4078	2759.6213	5512	4618.8
1002.5285	2760.8215	5525.5	4629.45
1002.649	2762.0211	5494.95	4602.7
1002.7696	2763.22	5474.25	4581
1002.8901	2764.4182	5436.75	4545.45
1003.0106	2765.6158	5432.4	4541.7
1003.131	2766.8127	5399.4	4508.35
1003.2514	2768.009	5372.15	4481.85
1003.3717	2769.2045	5364.75	4472.05
1003.492	2770.3994	5362.65	4469.25
1003.6123	2771.5936	5338.35	4447.1
1003.7325	2772.7872	5312.75	4423.75
1003.8527	2773.9801	5296.9	4405.5
1003.9729	2775.1723	5303.55	4396.3
1004.093	2776.3639	5261.25	4371.65
1004.2131	2777.5548	5250.95	4357.4
1004.3331	2778.745	5237.8	4346.8
1004.4531	2779.9346	5224.15	4333.55
1004.5731	2781.1235	5211.55	4321.95
1004.693	2782.3117	5197.7	4308.85
1004.8129	2783.4992	5193.8	4302.45
1004.9328	2784.6861	5160.2	4269.4
1005.0526	2785.8723	5155.9	4264.15
1005.1723	2787.0579	5161.5	4270.1
1005.2921	2788.2428	5133.4	4242.5
1005.4118	2789.427	5121.7	4231.2
1005.5314	2790.6106	5112.8	4221
1005.651	2791.7935	5101.75	4210.1
1005.7706	2792.9757	5100.7	4211.6
1005.8902	2794.1573	5083.6	4189.65
1006.0097	2795.3382	5096	4207.3
1006.1291	2796.5184	5081.35	4191.8
1006.2485	2797.698	5090.5	4199
1006.3679	2798.8769	5084.5	4193.3
1006.4873	2800.0551	5092.1	4201.3
1006.6066	2801.2327	5102.3	4210.6
1006.7258	2802.4096	5075.1	4183
1006.8451	2803.5859	5081.6	4190.9
1006.9642	2804.7615	5085.1	4195.65
1007.0834	2805.9364	5101.4	4212.25
1007.2025	2807.1106	5118.8	4228.4
1007.3216	2808.2842	5126.9	4235.85
1007.4406	2809.4572	5133.05	4241.95
1007.5596	2810.6294	5175.1	4283.2
1007.6785	2811.801	5199.65	4308.15
1007.7975	2812.972	5224.75	4335.4
1007.9163	2814.1423	5256.15	4365.95
1008.0352	2815.3119	5302.5	4411.55
1008.154	2816.4808	5314.5	4425.45
1008.2727	2817.6491	5353.05	4462.5
1008.3914	2818.8167	5375	4486.05
1008.5101	2819.9837	5441.7	4544.2
1008.6288	2821.15	5457.6	4566.95
1008.7474	2822.3157	5465.65	4574.8
1008.8659	2823.4807	5519.25	4628.7
1008.9844	2824.645	5553.5	4663.45
1009.1029	2825.8086	5568.6	4677.7
1009.2214	2826.9716	5613.35	4722.6
1009.3398	2828.134	5657.85	4769.25
1009.4581	2829.2957	5706	4815.55
1009.5764	2830.4567	5682.15	4793.35
1009.6947	2831.617	5685.8	4795.5
1009.813	2832.7767	5696.8	4805.9
1009.9312	2833.9358	5673.35	4784.2
1010.0493	2835.0941	5673.1	4782.15
1010.1675	2836.2519	5658.3	4768.35
1010.2855	2837.4089	5643.85	4753.6
1010.4036	2838.5653	5618.35	4726.75
1010.5216	2839.7211	5613.6	4724.45
1010.6396	2840.8761	5604.45	4712.75
1010.7575	2842.0306	5640.9	4749.1
1010.8754	2843.1843	5632.85	4742.75
1010.9932	2844.3374	5684.45	4795.15
1011.111	2845.4899	5745.8	4855.6
1011.2288	2846.6417	5789.65	4900.3
1011.3465	2847.7928	5862.5	4972.65
1011.4642	2848.9433	5926.2	5036.1
1011.5818	2850.0931	5992.95	5102
1011.6995	2851.2422	6049.75	5157.7
1011.817	2852.3907	6120.55	5229.65
1011.9345	2853.5385	6195.1	5303.6
1012.052	2854.6857	6247.95	5329.6
1012.1695	2855.8323	6280.35	5391.2
1012.2869	2856.9781	6309.8	5420.35
1012.4042	2858.1233	6355.2	5462.7
1012.5216	2859.2679	6364.2	5474.4
1012.6389	2860.4118	6415.25	5525.8
1012.7561	2861.555	6426.75	5531.6
1012.8733	2862.6976	6472.65	5579.85
1012.9905	2863.8395	6459.85	5570
1013.1076	2864.9808	6489.9	5599.7
1013.2247	2866.1214	6474.9	5583.85
1013.3417	2867.2614	6477.55	5588.6
1013.4587	2868.4007	6480.85	5590.45
1013.5757	2869.5393	6464.15	5570.85
1013.6926	2870.6773	6491.25	5597.8
1013.8095	2871.8146	6482.4	5588.7
1013.9263	2872.9513	6468.2	5575.9
1014.0431	2874.0874	6448.2	5558
1014.1599	2875.2227	6429.75	5539.7
1014.2766	2876.3574	6397.75	5508.5
1014.3933	2877.4915	6367.75	5477.05
1014.51	2878.6249	6312.65	5422.75
1014.6266	2879.7577	6277	5385.65
1014.7431	2880.8898	6274.35	5374.75
1014.8596	2882.0212	6220.5	5329.55
1014.9761	2883.152	6208.3	5316.9
1015.0925	2884.2821	6180.55	5289.95
1015.2089	2885.4116	6150.2	5261.45
1015.3253	2886.5405	6142.6	5252.85
1015.4416	2887.6686	6130.6	5238.3
1015.5579	2888.7962	6131.35	5243.35
1015.6741	2889.923	6116.85	5229.3
1015.7903	2891.0493	6127.3	5240
1015.9065	2892.1748	6128.1	5238.9
1016.0226	2893.2997	6131.4	5241.3
1016.1387	2894.424	6124.25	5233.35
1016.2547	2895.5476	6118.2	5230.15
1016.3707	2896.6706	6129.25	5239.35
1016.4866	2897.7929	6159.25	5267.75
1016.6025	2898.9145	6174.65	5284.9
1016.7184	2900.0355	6171.35	5281.1
1016.8342	2901.1559	6201.2	5312.7
1016.95	2902.2756	6227.55	5338.75
1017.0658	2903.3946	6249.65	5357.7
1017.1815	2904.513	6267.05	5373.5
1017.2971	2905.6308	6276.35	5386.45
1017.4127	2906.7479	6284.5	5394.3
1017.5283	2907.8643	6302.2	5411.45
1017.6439	2908.9801	6299.05	5408.9
1017.7594	2910.0953	6295.6	5406.7
1017.8748	2911.2098	6291.45	5397.5
1017.9902	2912.3236	6271.55	5372.1
1018.1056	2913.4368	6263.75	5370.2
1018.2209	2914.5494	6240.1	5347.8
1018.3362	2915.6613	6199.1	5304
1018.4515	2916.7725	6143.5	5249.15
1018.5667	2917.8831	6110.2	5218.8
1018.6819	2918.9931	6089.95	5198.55
1018.797	2920.1024	6033.15	5141.95
1018.9121	2921.211	6002.55	5113.4
1019.0271	2922.319	5970.2	5080.65
1019.1421	2923.4264	5958.85	5068.9
1019.2571	2924.5331	5943.05	5053.75
1019.372	2925.6391	5897.6	5008.35
1019.4869	2926.7445	5893.1	5004.5
1019.6017	2927.8493	5878.05	4987.1
1019.7165	2928.9534	5841.65	4950.75
1019.8313	2930.0569	5845.5	4952.05
1019.946	2931.1597	5836.1	4943.55
1020.0606	2932.2619	5803.25	4913.65
1020.1753	2933.3634	5803.75	4914.85
1020.2899	2934.4643	5782.5	4885.95
1020.4044	2935.5645	5735.85	4840.6
1020.5189	2936.6641	5712.55	4817.1
1020.6334	2937.763	5646.2	4756.45
1020.7478	2938.8613	5581.95	4690.35
1020.8622	2939.959	5534.45	4638.45
1020.9765	2941.056	5446.4	4555.9
1021.0908	2942.1523	5356.4	4465.8
1021.2051	2943.248	5266.35	4376.05
1021.3193	2944.3431	5151.3	4263.25
1021.4334	2945.4375	5040.1	4150.55
1021.5476	2946.5313	4930.4	4042.3
1021.6617	2947.6244	4812.45	3922
1021.7757	2948.7169	4710.75	3820.6
1021.8897	2949.8087	4589.3	3700.75
1022.0037	2950.8999	4502.6	3611.4
1022.1176	2951.9904	4415.45	3524.95
1022.2315	2953.0803	4325.2	3436.05
1022.3453	2954.1696	4255.1	3366.85
1022.4591	2955.2582	4203.8	3314.9
1022.5728	2956.3462	4135.05	3245.25
1022.6865	2957.4335	4077.55	3187.3
1022.8002	2958.5202	4050	3158.6
1022.9138	2959.6062	4006.35	3115.1
1023.0274	2960.6916	3961.15	3072.3
1023.141	2961.7764	3935.9	3045.05
1023.2545	2962.8605	3935.05	3044.5
1023.3679	2963.9439	3912.1	3024.85
1023.4813	2965.0267	3884.3	2992.8
1023.5947	2966.1089	3882.35	2971.5
1023.708	2967.1905	3853.35	2962.1
1023.8213	2968.2714	3831.95	2943.6
1023.9346	2969.3516	3815.65	2925.4
1024.0478	2970.4312	3827.45	2929.7
1024.1609	2971.5102	3811.05	2922.7
1024.274	2972.5885	3802.25	2913.45
1024.3871	2973.6662	3789.35	2892.35
1024.5002	2974.7432	3782.45	2892.7
1024.6132	2975.8196	3763.6	2871.95
1024.7261	2976.8954	3749.9	2862.55
1024.839	2977.9705	3724.45	2835.25
1024.9519	2979.045	3701.6	2811.65
1025.0647	2980.1188	3676.05	2785.95
1025.1775	2981.192	3648.8	2759.5
1025.2902	2982.2645	3616.1	2727.25
1025.4029	2983.3364	3593.95	2704.75
1025.5156	2984.4077	3545.85	2656
1025.6282	2985.4783	3517.9	2623.15
1025.7407	2986.5483	3476.85	2586.4
1025.8532	2987.6177	3443.2	2554
1025.9657	2988.6864	3394.55	2504.55
1026.0782	2989.7545	3361.5	2469.55
1026.1906	2990.8219	3321.8	2430.4
1026.3029	2991.8887	3278.7	2385
1026.4152	2992.9548	3243.5	2352.6
1026.5275	2994.0204	3211.5	2323.65
1026.6397	2995.0852	3168.8	2282.3
1026.7519	2996.1495	3154.75	2262.95
1026.864	2997.2131	3112.6	2223.15
1026.9761	2998.276	3091.45	2202.6
1027.0882	2999.3383	3061.4	2172.05
1027.2002	3000.4	3038.4	2146.55
1027.3122	3001.4611	3024.05	2131.55
1027.4241	3002.5215	2996.5	2106.25
1027.536	3003.5812	2980.05	2090.05
1027.6478	3004.6404	2959.7	2070
1027.7596	3005.6989	2940.15	2049.35
1027.8714	3006.7567	2926.05	2036.6
1027.9831	3007.8139	2942.15	2028.65
1028.0947	3008.8705	2902.05	2012
1028.2064	3009.9264	2877.05	1984.75
1028.3179	3010.9818	2882.95	1994.8
1028.4295	3012.0364	2856.9	1965.35
1028.541	3013.0905	2851.9	1963.5
1028.6524	3014.1439	2838	1948.7
1028.7638	3015.1966	2846.55	1958.45
1028.8752	3016.2487	2832.15	1942.6
1028.9865	3017.3002	2831.2	1938.05
1029.0978	3018.3511	2825.7	1937.6
1029.209	3019.4013	2815.75	1924.7
1029.3202	3020.4509	2809.65	1921.2
1029.4314	3021.4998	2803.35	1914.95
1029.5425	3022.5481	2805.5	1916.25
1029.6535	3023.5958	2792.25	1902.35
1029.7645	3024.6428	2797.05	1907.75
1029.8755	3025.6892	2779.5	1890.15
1029.9864	3026.735	2781.75	1892.45
1030.0973	3027.7802	2768	1878.4
1030.2082	3028.8247	2757.55	1868.05
1030.319	3029.8685	2759.4	1869.55
1030.4297	3030.9118	2764	1873.7
1030.5404	3031.9544	2758.45	1869
1030.6511	3032.9963	2762.3	1872.25
1030.7617	3034.0376	2743.25	1853.2
1030.8723	3035.0783	2745.75	1854.05
1030.9829	3036.1184	2746.75	1854.85
1031.0934	3037.1578	2746.5	1856.35
1031.2038	3038.1966	2743.8	1854.35
1031.3142	3039.2348	2741.05	1852.8
1031.4246	3040.2723	2740.75	1843.15
1031.5349	3041.3092	2721.75	1832.85
1031.6452	3042.3455	2728.2	1840.05
1031.7554	3043.3811	2716.4	1827.4
1031.8656	3044.4161	2695	1805.25
1031.9758	3045.4505	2679.75	1790.45
1032.0859	3046.4842	2674.5	1784.6
1032.1959	3047.5173	2649.8	1761.35
1032.3059	3048.5498	2645.65	1757.15
1032.4159	3049.5816	2632.9	1743.5
1032.5258	3050.6128	2625.5	1733.35
1032.6357	3051.6434	2621.35	1730.85
1032.7455	3052.6734	2600.45	1709
1032.8553	3053.7027	2592.45	1703
1032.9651	3054.7314	2578.3	1689.6
1033.0748	3055.7594	2575.6	1686.6
1033.1845	3056.7868	2555.05	1664.6
1033.2941	3057.8136	2547.4	1659.45
1033.4037	3058.8398	2541.85	1652.25
1033.5132	3059.8653	2527.25	1639.1
1033.6227	3060.8902	2506.3	1617.55
1033.7321	3061.9145	2505.3	1614.6
1033.8415	3062.9381	2504.25	1614.55
1033.9509	3063.9612	2489.05	1583.55
1034.0602	3064.9835	2473.1	1583.75
1034.1694	3066.0053	2467.8	1577.35
1034.2787	3067.0264	2451.65	1563.3
1034.3878	3068.0469	2445.2	1554.3
1034.497	3069.0668	2433.65	1540.75
1034.6061	3070.086	2424.85	1535.65
1034.7151	3071.1046	2411.5	1522.75
1034.8241	3072.1226	2394.85	1505.5
1034.9331	3073.1399	2378.6	1490.9
1035.042	3074.1567	2355.5	1468.15
1035.1508	3075.1727	2348.45	1457.25
1035.2597	3076.1882	2324.95	1434.1
1035.3684	3077.203	2316.7	1426.1
1035.4772	3078.2173	2310.85	1419.7
1035.5859	3079.2308	2297.45	1405.3
1035.6945	3080.2438	2286.85	1395.15
1035.8031	3081.2561	2266.65	1375.9
1035.9117	3082.2678	2252.65	1364.85
1036.0202	3083.2789	2257.8	1368.95
1036.1286	3084.2893	2241.05	1351.5
1036.2371	3085.2991	2234.85	1344.9
1036.3454	3086.3083	2225.8	1331.95
1036.4538	3087.3169	2199.6	1307.1
1036.562	3088.3248	2195.25	1304.1
1036.6703	3089.3321	2193.95	1303.2
1036.7785	3090.3388	2176.6	1287.35
1036.8866	3091.3449	2174.95	1286.45
1036.9948	3092.3503	2156.5	1264.8
1037.1028	3093.3551	2163.45	1275.7
1037.2108	3094.3593	2137.1	1249.3
1037.3188	3095.3629	2136.65	1248.3
1037.4267	3096.3658	2121.7	1230.45
1037.5346	3097.3681	2121.95	1231.65
1037.6425	3098.3698	2115.2	1224.05
1037.7503	3099.3708	2108.65	1214.05
1037.858	3100.3713	2097.75	1209.05
1037.9657	3101.3711	2090.45	1202.7
1038.0734	3102.3702	2208	1179.3
1038.181	3103.3688	2087.2	1196.2
1038.2886	3104.3667	2066.9	1176.9
1038.3961	3105.364	2052.5	1164.35
1038.5036	3106.3607	2065.35	1173.85
1038.611	3107.3568	2038.75	1148
1038.7184	3108.3522	2034.9	1145
1038.8257	3109.347	2027.25	1137.05
1038.933	3110.3412	2028.45	1134.3
1039.0403	3111.3348	2015.35	1125.75
1039.1475	3112.3277	2014.5	1124.3
1039.2547	3113.32	2016.65	1128
1039.3618	3114.3117	2009.3	1120.15
1039.4689	3115.3028	1996.95	1106.95
1039.5759	3116.2932	1975.05	1085.5
1039.6829	3117.2831	1977.45	1086.15
1039.7898	3118.2723	1959.15	1069.8
1039.8967	3119.2608	1969.6	1078.95
1040.0035	3120.2488	1964.8	1073.5
1040.1103	3121.2361	1954	1063.7
1040.2171	3122.2229	1939.9	1051.35
1040.3238	3123.209	1947.9	1056.65
1040.4305	3124.1944	1934.4	1046
1040.5371	3125.1793	1921.85	1031.8
1040.6437	3126.1635	1930.25	1039.65
1040.7502	3127.1471	1923.5	1033.9
1040.8567	3128.1301	1913.55	1023.65
1040.9631	3129.1125	1911.7	1022.6
1041.0695	3130.0942	1901.05	1011.6
1041.1759	3131.0753	1909.35	1012.5
1041.2822	3132.0558	1891.95	996.9
1041.3884	3133.0357	1884.8	994.8
1041.4946	3134.015	1888.95	998.75
1041.6008	3134.9936	1886	995.5
1041.7069	3135.9716	1885.4	978.1
1041.813	3136.949	1870.5	983.05
1041.919	3137.9258	1876.85	981.65
1042.025	3138.902	1865.65	971.45
1042.1309	3139.8775	1856.25	966.95
1042.2368	3140.8524	1848.5	960.6
1042.3427	3141.8267	1844.45	955.95
1042.4485	3142.8004	1846.5	957.85
1042.5542	3143.7735	1849.95	954.55
1042.6599	3144.7459	1837.35	944.8
1042.7656	3145.7178	1835.65	945.05
1042.8712	3146.689	1815.95	928.5
1042.9768	3147.6596	1817.6	926.75
1043.0823	3148.6295	1815.15	923.8
1043.1878	3149.5989	1813.3	924.6
1043.2932	3150.5676	1799.85	911.75
1043.3986	3151.5357	1798.45	909.15
1043.5039	3152.5032	1791.35	904.95
1043.6092	3153.4701	1788.35	899.9
1043.7145	3154.4364	1785.55	893.35
1043.8197	3155.402	1772.45	883.2
1043.9248	3156.367	1767.75	875.7
1044.03	3157.3315	1802.3	870
1044.135	3158.2952	1771.3	880.9
1044.24	3159.2584	1752.05	862.1
1044.345	3160.221	1753.3	862.85
1044.4499	3161.1829	1753.5	864.15
1044.5548	3162.1442	1742.85	853.8
1044.6596	3163.105	1733.8	843
1044.7644	3164.065	1735.6	847.55
1044.8692	3165.0245	1727.4	835.5
1044.9739	3165.9834	1725.55	837.65
1045.0785	3166.9416	1718.35	831.8
1045.1831	3167.8993	1716.45	827.5
1045.2877	3168.8563	1702.8	813.75
1045.3922	3169.8127	1703.2	815
1045.4966	3170.7684	1693.8	805.15
1045.6011	3171.7236	1696.25	805.35
1045.7054	3172.6782	1693	803.65
1045.8098	3173.6321	1684.45	795.15
1045.914	3174.5854	1682.55	788.6
1046.0183	3175.5381	1678.4	789.25
1046.1224	3176.4902	1675.7	789.45
1046.2266	3177.4417	1667.1	779.4
1046.3307	3178.3926	1672.65	784.5
1046.4347	3179.3428	1661.85	774.25
1046.5387	3180.2924	1657.15	767.75
1046.6427	3181.2415	1654.35	764.65
1046.7466	3182.1899	1653.05	763.75
1046.8504	3183.1377	1645.8	756.8
1046.9542	3184.0848	1642.05	748.55
1047.058	3185.0314	1630.1	740.05
1047.1617	3185.9773	1629.15	740.2
1047.2654	3186.9227	1626.95	739.4
1047.369	3187.8674	1624.5	735.25
1047.4726	3188.8115	1621.8	729.1
1047.5761	3189.755	1610.25	722.3
1047.6796	3190.6979	1610.1	720.7
1047.783	3191.6402	1609.85	720.65
1047.8864	3192.5818	1606.8	718.7
1047.9898	3193.5229	1613.95	712.4
1048.0931	3194.4633	1601.6	710.7
1048.1963	3195.4031	1599.75	710.05
1048.2995	3196.3423	1593.75	706.3
1048.4027	3197.2809	1591.05	702.15
1048.5058	3198.2189	1578.6	689.75
1048.6089	3199.1563	1583.65	686.85
1048.7119	3200.0931	1571.85	682.7
1048.8148	3201.0292	1573.05	684.55
1048.9178	3201.9648	1574.4	684.6
1049.0206	3202.8997	1566.3	674.5
1049.1235	3203.834	1564.6	675.85
1049.2262	3204.7677	1560.85	672
1049.329	3205.7008	1556.75	665.95
1049.4317	3206.6333	1549.15	661
1049.5343	3207.5652	1544.25	653.1
1049.6369	3208.4964	1546.75	657.1
1049.7394	3209.4271	1541.9	654.6
1049.8419	3210.3571	1529.7	643
1049.9444	3211.2865	1539	649.5
1050.0468	3212.2154	1527.1	638.3
1050.1491	3213.1436	1531.95	640.05
1050.2514	3214.0712	1537.15	640
1050.3537	3214.9982	1528.4	639.85
1050.4559	3215.9246	1518.5	628.15
1050.5581	3216.8503	1512.65	624.4
1050.6602	3217.7755	1511.95	624.45
1050.7623	3218.7001	1510.05	621.2
1050.8643	3219.624	1506.5	616.4
1050.9663	3220.5473	1502.9	614.2
1051.0682	3221.4701	1499.25	612
1051.1701	3222.3922	1498.65	607.75
1051.2719	3223.3137	1493.05	603.55
1051.3737	3224.2346	1487.95	598.15
1051.4754	3225.1549	1488	598.4
1051.5771	3226.0746	1486	598.5
1051.6788	3226.9937	1488	598.5
1051.7804	3227.9121	1474.65	586.75
1051.8819	3228.83	1477.6	590.4
1051.9834	3229.7473	1472.6	583.45
1052.0849	3230.6639	1471.15	582.4
1052.1863	3231.5799	1470.2	581.35
1052.2876	3232.4954	1465.8	575.6
1052.3889	3233.4102	1453.15	565.55
1052.4902	3234.3244	1451.8	561.8
1052.5914	3235.238	1454.75	565.7
1052.6926	3236.151	1473.2	562.1
1052.7937	3237.0634	1442.85	552.8
1052.8948	3237.9752	1439.55	552.5
1052.9958	3238.8864	1440.25	552.1
1053.0968	3239.797	1433.1	545.2
1053.1977	3240.7069	1432.5	541.9
1053.2986	3241.6163	1429.95	539.25
1053.3994	3242.5251	1428.5	540.85
1053.5002	3243.4332	1420.25	530.35
1053.6009	3244.3408	1421.4	529.9
1053.7016	3245.2477	1416.1	526.85
1053.8022	3246.154	1410.4	521.15
1053.9028	3247.0598	1413.55	524.4
1054.0034	3247.9649	1407.45	519.6
1054.1039	3248.8694	1396.3	507.4
1054.2043	3249.7733	1392.95	503.25
1054.3047	3250.6766	1398.3	508.8
1054.4051	3251.5793	1390.65	500.95
1054.5054	3252.4814	1386.6	498.4
1054.6056	3253.3829	1385.5	497
1054.7058	3254.2838	1381.55	494.05
1054.806	3255.1841	1379.85	493.45
1054.9061	3256.0838	1374	485.4
1055.0061	3256.9829	1367.45	479.4
1055.1062	3257.8814	1370.95	480.85
1055.2061	3258.7792	1369.6	478.2
1055.306	3259.6765	1363.5	473.95
1055.4059	3260.5731	1358.35	470.6
1055.5057	3261.4692	1352.4	462.65
1055.6055	3262.3647	1343.75	454.45
1055.7052	3263.2595	1332.35	443.4
1055.8049	3264.1538	1328.4	441.15
1055.9045	3265.0474	1327.55	437.35
1056.0041	3265.9404	1312.4	425.1
1056.1036	3266.8329	1307.5	420.8
1056.2031	3267.7247	1307.25	410.9
1056.3025	3268.616	1297.9	409.25
1056.4019	3269.5066	1279.85	391.4
1056.5013	3270.3966	1276.25	386.6
1056.6005	3271.286	1263.75	374.85
