Software Version:	3.9.2.0
Unit SN:	10000200
Spectrometer SN:	6960
Date:	3/6/2024 10:35:15 AM
Data Line Index:	25
Spectral Points:	2048
Integration time (ms):	125
Averages:	20
Delay (ms):	30
Sequence Number:	1
Processing:	dark subtract
Laser Power (mW):	300
Laser Current (mA):	824
Laser Diode Temp (C):	25.1
Laser Case Temp (C):	26.6
System Temp (C):	26.4
Spectrometer Temp (C):	23.8
CCD Temp (C):	0.005
Secondary Temp (C):	20.004
Heatsink Temp (C):	22.004
CCDPCB Temp (C):	36.307
SecondaryPCB Temp (C):	31.772

Wavelength	RamanShift	Raw Counts	Dark Subtracted
787.061	30.1047	1148	735
787.2016	32.3739	1182.95	770.95
787.3422	34.6426	1228.65	815.3
787.4828	36.9109	1279.5	865.9
787.6235	39.1787	1332.05	914.9
787.7642	41.4461	1399.6	977.25
787.9049	43.7131	1455.5	1030.95
788.0456	45.9796	1529.75	1100.7
788.1863	48.2456	1594.75	1161.4
788.3271	50.5112	1672.25	1236.3
788.4679	52.7764	1746.5	1308.55
788.6087	55.0411	1821.6	1378.7
788.7496	57.3054	1898.9	1451.05
788.8904	59.5692	1992.35	1541.5
789.0313	61.8326	2108	1653.9
789.1722	64.0955	2208	1751.45
789.3132	66.3579	2340.45	1876.4
789.4541	68.6199	2489.55	2022.9
789.5951	70.8815	2757.8	2290.2
789.7361	73.1426	3301.45	2827
789.8771	75.4032	4682.4	4202.3
790.0181	77.6634	8205.65	7721
790.1592	79.9231	17676.45	17186
790.3003	82.1824	57377.5	56877.6
790.4414	84.4412	65535	65013.15
790.5825	86.6995	65535	64981.85
790.7237	88.9574	65535	64955.35
790.8648	91.2148	65535	64936.75
791.006	93.4717	65535	64925.8
791.1472	95.7282	65535	64921.05
791.2885	97.9842	65535	64919.8
791.4297	100.2398	65535	64920.15
791.571	102.4949	65535	64907.75
791.7123	104.7495	65535	64906.35
791.8536	107.0036	65535	64907.25
791.9949	109.2573	65535	64910.75
792.1363	111.5105	65535	64905.35
792.2777	113.7632	65535	64900.95
792.4191	116.0154	65535	64891.6
792.5605	118.2672	65535	64897.9
792.7019	120.5185	65535	64894.95
792.8434	122.7693	65535	64894.15
792.9849	125.0197	65535	64890.2
793.1264	127.2696	65535	64888.65
793.2679	129.519	65535	64880.4
793.4094	131.7679	65535	64882.15
793.551	134.0163	65535	64876.35
793.6926	136.2642	65535	64873.1
793.8342	138.5117	65535	64864.05
793.9758	140.7587	65535	64873.85
794.1175	143.0052	65535	64866.8
794.2591	145.2512	65535	64867.75
794.4008	147.4967	65535	64867.75
794.5425	149.7417	65535	64861.2
794.6842	151.9863	65535	64862.7
794.826	154.2304	65535	64856.2
794.9677	156.4739	65535	64851.85
795.1095	158.717	65535	64849.6
795.2513	160.9596	65535	64843.2
795.3931	163.2017	65535	64846.75
795.535	165.4433	65535	64846.7
795.6768	167.6844	65535	64843.1
795.8187	169.925	65535	64836.5
795.9606	172.1651	65535	64834.4
796.1025	174.4047	65535	64833.05
796.2445	176.6439	65535	64829.85
796.3864	178.8825	65535	64828.75
796.5284	181.1206	65535	64821.55
796.6704	183.3582	65535	64819.3
796.8124	185.5954	65535	64817.1
796.9544	187.832	65535	64814
797.0965	190.0681	65535	64809.05
797.2386	192.3037	65535	64809.35
797.3806	194.5388	65535	64810.2
797.5228	196.7734	65535	64804.15
797.6649	199.0075	65535	64800.1
797.807	201.2411	65535	64800
797.9492	203.4742	65535	64799.25
798.0914	205.7068	65535	64797.95
798.2336	207.9389	65535	64794.35
798.3758	210.1704	65535	64796
798.518	212.4015	65535	64797.45
798.6603	214.632	65535	64805.35
798.8025	216.862	65535	64813.65
798.9448	219.0915	65535	64812.05
799.0871	221.3205	65535	64813.6
799.2294	223.549	65535	64815.35
799.3718	225.777	65535	64816.25
799.5141	228.0044	65535	64810.55
799.6565	230.2314	65535	64814.1
799.7989	232.4578	65535	64810.85
799.9413	234.6837	65535	64800.2
800.0837	236.909	65535	64798.8
800.2262	239.1339	65535	64776.45
800.3687	241.3582	65535	64785.3
800.5111	243.582	65535	64759.15
800.6536	245.8053	65535	64770.2
800.7961	248.0281	65535	64774.75
800.9387	250.2503	65535	64772.4
801.0812	252.472	65535	64765.5
801.2238	254.6932	65535	64768.35
801.3664	256.9139	65535	64768.8
801.509	259.134	65535	64762.55
801.6516	261.3536	65535	64765.35
801.7942	263.5727	65535	64764.4
801.9369	265.7912	65535	64763.25
802.0795	268.0092	65535	64760.8
802.2222	270.2267	65535	64759.3
802.3649	272.4436	65535	64762.45
802.5076	274.6601	65535	64749.05
802.6504	276.8759	65535	64755.3
802.7931	279.0913	65535	64753.4
802.9359	281.3061	65535	64754
803.0787	283.5204	65535	64750.2
803.2215	285.7341	65535	64747.1
803.3643	287.9473	65535	64736.6
803.5071	290.16	65535	64743.4
803.6499	292.3721	65535	64749.4
803.7928	294.5837	65535	64750.15
803.9357	296.7947	65535	64745.8
804.0786	299.0052	65535	64747.15
804.2215	301.2152	65535	64744.1
804.3644	303.4246	65535	64750.05
804.5074	305.6334	65535	64748.6
804.6503	307.8418	65535	64742
804.7933	310.0495	65535	64740.65
804.9363	312.2568	65535	64745.25
805.0793	314.4635	65535	64741.4
805.2223	316.6696	65535	64736.2
805.3653	318.8752	65535	64729.55
805.5084	321.0802	65535	64736.1
805.6514	323.2847	65535	64733.45
805.7945	325.4887	65535	64733.5
805.9376	327.692	65535	64734.5
806.0807	329.8949	65535	64729.75
806.2238	332.0972	65535	64733.65
806.367	334.2989	65535	64729.85
806.5101	336.5001	65535	64726.7
806.6533	338.7007	65535	64727.35
806.7965	340.9008	65535	64727.45
806.9397	343.1003	65535	64725.6
807.0829	345.2992	65535	64721.95
807.2261	347.4976	65535	64721.45
807.3693	349.6955	65535	64720.25
807.5126	351.8927	65535	64716.45
807.6559	354.0895	65535	64705.95
807.7991	356.2856	65535	64714.15
807.9424	358.4812	65535	64715.75
808.0857	360.6763	65535	64713.15
808.2291	362.8707	65535	64715.15
808.3724	365.0646	65535	64712.75
808.5158	367.258	65535	64709.05
808.6591	369.4508	65535	64701.8
808.8025	371.643	65535	64705.6
808.9459	373.8346	65535	64703.75
809.0893	376.0257	65535	64698.25
809.2327	378.2162	65535	64702.95
809.3762	380.4062	65535	64698.85
809.5196	382.5956	65535	64697.35
809.6631	384.7844	65535	64706
809.8066	386.9726	65535	64707.1
809.9501	389.1603	65535	64711.35
810.0936	391.3474	65535	64662.1
810.2371	393.5339	65535	64705.9
810.3806	395.7199	65535	64706.75
810.5241	397.9052	65535	64708.4
810.6677	400.09	65535	64709.05
810.8113	402.2743	65535	64708.25
810.9548	404.4579	65535	64708.5
811.0984	406.641	65535	64709.6
811.2421	408.8235	65535	64705.5
811.3857	411.0054	65535	64702.2
811.5293	413.1868	65535	64699.35
811.673	415.3675	65535	64698.6
811.8166	417.5477	65535	64694.65
811.9603	419.7273	65535	64691.1
812.104	421.9064	65535	64688.45
812.2477	424.0848	65535	64690.65
812.3914	426.2627	65535	64689.95
812.5351	428.4399	65535	64690.85
812.6788	430.6166	65535	64682.75
812.8226	432.7928	65535	64686.7
812.9663	434.9683	65535	64687.6
813.1101	437.1432	65535	64682.4
813.2539	439.3176	65535	64686.7
813.3977	441.4914	65535	64681.45
813.5415	443.6645	65535	64683.6
813.6853	445.8371	65535	64683.55
813.8291	448.0091	65535	64686.9
813.973	450.1806	65535	64685.85
814.1168	452.3514	65535	64685.2
814.2607	454.5216	65535	64673
814.4046	456.6913	65535	64679.25
814.5485	458.8603	65535	64680.4
814.6924	461.0288	65535	64680.75
814.8363	463.1967	65535	64684.05
814.9802	465.3639	65535	64680.7
815.1241	467.5306	65535	64678.45
815.2681	469.6967	65535	64681.8
815.412	471.8622	65535	64681.5
815.556	474.0271	65535	64678.85
815.7	476.1914	65535	64677.6
815.844	478.3551	65535	64679.5
815.988	480.5182	65535	64678
816.132	482.6807	65535	64679.1
816.276	484.8426	65535	64680.2
816.4201	487.0039	65535	64677.75
816.5641	489.1647	65535	64675.75
816.7082	491.3248	65535	64677.2
816.8522	493.4843	65535	64675.75
816.9963	495.6432	65535	64675.25
817.1404	497.8015	65535	64672.15
817.2845	499.9592	65535	64671.7
817.4286	502.1163	65535	64673
817.5727	504.2728	65535	64670.45
817.7168	506.4287	65535	64675.2
817.861	508.5839	65535	64674.2
818.0051	510.7386	65535	64673.6
818.1493	512.8927	65535	64669.65
818.2935	515.0461	65535	64669.55
818.4377	517.199	65535	64670.15
818.5818	519.3512	65535	64668.15
818.726	521.5029	65535	64663.15
818.8703	523.6539	65535	64671.4
819.0145	525.8043	65535	64664.15
819.1587	527.9541	65535	64664.95
819.303	530.1033	65535	64664.9
819.4472	532.2519	65535	64666.2
819.5915	534.3999	65535	64663.3
819.7357	536.5472	65535	64662.05
819.88	538.694	65535	64666.2
820.0243	540.8401	65535	64663.75
820.1686	542.9856	65535	64663.05
820.3129	545.1305	65535	64660.85
820.4572	547.2748	65535	64659.95
820.6016	549.4185	65535	64658.1
820.7459	551.5615	65535	64659.8
820.8902	553.704	65535	64658.5
821.0346	555.8458	65535	64660.15
821.1789	557.987	65535	64658.75
821.3233	560.1276	65535	64654.3
821.4677	562.2675	65535	64660.85
821.6121	564.4069	65535	64662.3
821.7565	566.5456	65535	64658.3
821.9009	568.6837	65535	64658.15
822.0453	570.8212	65535	64662.05
822.1897	572.958	65535	64660.85
822.3342	575.0942	65535	64662.55
822.4786	577.2299	65535	64660.45
822.6231	579.3648	65535	64664.95
822.7675	581.4992	65535	64666.65
822.912	583.6329	65535	64663.85
823.0565	585.766	65535	64663.8
823.201	587.8985	65535	64660.45
823.3454	590.0304	65535	64633.8
823.4899	592.1616	65535	64657.15
823.6345	594.2922	65535	64655.8
823.779	596.4222	65535	64656
823.9235	598.5515	65535	64655.25
824.068	600.6802	65535	64655.1
824.2126	602.8083	65535	64652.55
824.3571	604.9358	65535	64654.4
824.5017	607.0626	65535	64654.05
824.6462	609.1888	65535	64652.15
824.7908	611.3144	65535	64652.4
824.9354	613.4393	65535	64651.9
825.08	615.5636	65535	64652.95
825.2246	617.6873	65535	64651.4
825.3692	619.8103	65535	64650.05
825.5138	621.9327	65535	64650.75
825.6584	624.0544	65535	64652.65
825.803	626.1756	65535	64654.7
825.9477	628.2961	65535	64650.45
826.0923	630.4159	65535	64649.4
826.237	632.5351	65535	64651.75
826.3816	634.6537	65535	64647.7
826.5263	636.7716	65535	64645
826.6709	638.8889	65535	64645.95
826.8156	641.0056	65535	64648.9
826.9603	643.1216	65535	64647.45
827.105	645.237	65535	64643.3
827.2497	647.3518	65535	64647.75
827.3944	649.4659	65535	64648.9
827.5391	651.5793	65535	64648.7
827.6838	653.6922	65535	64648.55
827.8285	655.8043	65535	64648.5
827.9733	657.9159	65535	64647.9
828.118	660.0268	65535	64646.75
828.2627	662.137	65535	64646.5
828.4075	664.2466	65535	64644.75
828.5522	666.3556	65535	64645.4
828.697	668.4639	65535	64641.15
828.8418	670.5716	65535	64646.7
828.9865	672.6786	65535	64646.4
829.1313	674.785	65535	64644.55
829.2761	676.8907	65535	64644.8
829.4209	678.9958	65535	64651.2
829.5657	681.1002	65535	64643.45
829.7105	683.204	65535	64641.4
829.8553	685.3072	65535	64641.35
830.0001	687.4097	65535	64641.75
830.1449	689.5115	65535	64640
830.2898	691.6127	65535	64643.65
830.4346	693.7132	65535	64642.15
830.5794	695.8131	65535	64633.15
830.7243	697.9123	65535	64640.7
830.8691	700.0109	65535	64638.95
831.014	702.1089	65535	64641.35
831.1588	704.2061	65535	64640.45
831.3037	706.3028	65535	64637.15
831.4486	708.3987	65535	64637.5
831.5935	710.4941	65535	64641
831.7383	712.5887	65535	64640.85
831.8832	714.6827	65535	64639.25
832.0281	716.7761	65535	64639.4
832.173	718.8688	65535	64639.7
832.3179	720.9608	65535	64635.95
832.4628	723.0522	65535	64637.95
832.6077	725.1429	65535	64638.3
832.7527	727.233	65535	64637.35
832.8976	729.3224	65535	64639.5
833.0425	731.4112	65535	64638.15
833.1874	733.4993	65535	64634.9
833.3324	735.5867	65535	64638.05
833.4773	737.6735	65535	64635.55
833.6222	739.7596	65535	64634.55
833.7672	741.845	65535	64636.2
833.9122	743.9298	65535	64632.95
834.0571	746.014	65535	64637.95
834.2021	748.0974	65535	64634.8
834.347	750.1802	65535	64639.35
834.492	752.2624	65535	64635.5
834.637	754.3439	65535	64636.2
834.782	756.4247	65535	64629.05
834.9269	758.5048	65535	64634.2
835.0719	760.5843	65535	64635.2
835.2169	762.6631	65535	64635.15
835.3619	764.7413	65535	64636.6
835.5069	766.8188	65535	64637.25
835.6519	768.8956	65535	64632.35
835.7969	770.9718	65535	64637.3
835.9419	773.0473	65535	64635.6
836.0869	775.1221	65535	64639.5
836.232	777.1962	65535	64634.1
836.377	779.2697	65535	64632.65
836.522	781.3426	65535	64613.1
836.667	783.4147	65535	64636.05
836.8121	785.4862	65535	64633.1
836.9571	787.557	65535	64634.65
837.1021	789.6271	65535	64637.05
837.2472	791.6966	65535	64635.45
837.3922	793.7654	65535	64634.65
837.5373	795.8335	65535	64634.3
837.6823	797.901	65535	64632.2
837.8274	799.9678	65535	64631.05
837.9724	802.0339	65535	64634.8
838.1175	804.0993	65535	64624.85
838.2626	806.1641	65535	64632.15
838.4076	808.2282	65535	64632.2
838.5527	810.2916	65535	64630
838.6978	812.3544	65535	64636.15
838.8428	814.4164	65535	64634.35
838.9879	816.4778	65535	64630.85
839.133	818.5385	65535	64635.1
839.2781	820.5986	65535	64632.75
839.4232	822.658	65535	64631.35
839.5682	824.7166	65535	64635.35
839.7133	826.7747	65535	64636.55
839.8584	828.832	65535	64633.45
840.0035	830.8886	65535	64632.35
840.1486	832.9446	65535	64631.35
840.2937	834.9999	65535	64630.6
840.4388	837.0545	65535	64628.55
840.5839	839.1085	65535	64631.15
840.729	841.1618	65535	64630.2
840.8741	843.2143	65535	64630.75
841.0192	845.2662	65535	64631.75
841.1643	847.3175	65535	64632.4
841.3095	849.368	65535	64634.05
841.4546	851.4179	65535	64634.65
841.5997	853.467	65535	64629.5
841.7448	855.5155	65535	64632.75
841.8899	857.5633	65535	64632.75
842.0351	859.6105	65535	64631.6
842.1802	861.6569	65535	64631.5
842.3253	863.7027	65535	64629.55
842.4704	865.7478	65535	64629.15
842.6156	867.7922	65535	64632.2
842.7607	869.8359	65535	64629.05
842.9058	871.8789	65535	64633.1
843.0509	873.9212	65535	64600.6
843.1961	875.9629	65535	64628.8
843.3412	878.0039	65535	64631.85
843.4863	880.0441	65535	64628.65
843.6315	882.0837	65535	64630.2
843.7766	884.1226	65535	64631.9
843.9218	886.1609	65535	64632.2
844.0669	888.1984	65535	64631.55
844.212	890.2352	65535	64630.45
844.3572	892.2714	65535	64625.75
844.5023	894.3069	65535	64631.55
844.6475	896.3416	65535	64626.75
844.7926	898.3757	65535	64628.85
844.9377	900.4091	65535	64629.05
845.0829	902.4418	65535	64622
845.228	904.4739	65535	64628.85
845.3732	906.5052	65535	64628.85
845.5183	908.5358	65535	64628.5
845.6635	910.5658	65535	64628.2
845.8086	912.595	65535	64629
845.9538	914.6236	65535	64629.95
846.0989	916.6515	65535	64628.8
846.2441	918.6786	65535	64627.4
846.3892	920.7051	65535	64624.9
846.5344	922.7309	65535	64625.1
846.6795	924.756	65535	64630.35
846.8246	926.7804	65535	64624.35
846.9698	928.8041	65535	64624.55
847.1149	930.8272	65535	64625.65
847.2601	932.8495	65535	64624.9
847.4052	934.8711	65535	64627.1
847.5504	936.892	65535	64628.15
847.6955	938.9123	65535	64626.65
847.8407	940.9318	65535	64628.4
847.9858	942.9506	65535	64630.15
848.131	944.9688	65535	64627.65
848.2761	946.9862	65535	64625.9
848.4213	949.003	65535	64629.85
848.5664	951.019	65535	64627.85
848.7115	953.0344	65535	64626.6
848.8567	955.0491	65535	64627.05
849.0018	957.063	65535	64627.95
849.147	959.0763	65535	64628.05
849.2921	961.0888	65535	64626.5
849.4373	963.1007	65535	64628.05
849.5824	965.1119	65535	64631.9
849.7275	967.1223	65535	64629.2
849.8727	969.1321	65535	64630.75
850.0178	971.1412	65535	64632.1
850.1629	973.1495	65535	64631.35
850.3081	975.1572	65535	64594.25
850.4532	977.1641	65535	64630.1
850.5983	979.1704	65535	64626.9
850.7435	981.1759	65535	64622.6
850.8886	983.1808	65535	64627.85
851.0337	985.1849	65535	64617.1
851.1788	987.1884	65535	64625.3
851.324	989.1911	65535	64624.8
851.4691	991.1932	65535	64628.5
851.6142	993.1945	65535	64627.75
851.7593	995.1951	65535	64625.75
851.9045	997.1951	65535	64621.45
852.0496	999.1943	65535	64627.5
852.1947	1001.1928	65535	64627.4
852.3398	1003.1906	65535	64625.1
852.4849	1005.1877	65535	64626.4
852.63	1007.1841	65535	64628.05
852.7751	1009.1798	65535	64630.1
852.9202	1011.1748	65535	64629
853.0653	1013.1691	65535	64625.05
853.2104	1015.1627	65535	64629.2
853.3555	1017.1556	65535	64628.75
853.5006	1019.1477	65535	64628.3
853.6457	1021.1392	65535	64629.75
853.7908	1023.1299	65535	64632.1
853.9359	1025.12	65535	64629.95
854.081	1027.1093	65535	64631.85
854.2261	1029.0979	65535	64632.7
854.3712	1031.0859	65535	64632.8
854.5163	1033.0731	65535	64629.3
854.6613	1035.0596	65535	64630.4
854.8064	1037.0454	65535	64629.15
854.9515	1039.0304	65535	64629.9
855.0965	1041.0148	65535	64630.05
855.2416	1042.9985	65535	64628.4
855.3867	1044.9814	65535	64631.3
855.5317	1046.9636	65535	64626.25
855.6768	1048.9452	65535	64628.95
855.8219	1050.926	65535	64630.35
855.9669	1052.9061	65535	64629.45
856.112	1054.8855	65535	64629.75
856.257	1056.8642	65535	64628.75
856.4021	1058.8421	65535	64624.3
856.5471	1060.8194	65535	64625.85
856.6921	1062.7959	65535	64627.1
856.8372	1064.7717	65535	64625.55
856.9822	1066.7469	65535	64626.25
857.1272	1068.7213	65535	64626.5
857.2723	1070.695	65535	64629.25
857.4173	1072.6679	65535	64625.25
857.5623	1074.6402	65535	64626.15
857.7073	1076.6117	65535	64621.9
857.8523	1078.5826	65535	64628.7
857.9973	1080.5527	65535	64624.95
858.1423	1082.5221	65535	64628.95
858.2873	1084.4908	65535	64626.95
858.4323	1086.4587	65535	64628.4
858.5773	1088.426	65535	64628.45
858.7223	1090.3925	65535	64622.25
858.8673	1092.3584	65535	64627.85
859.0123	1094.3235	65535	64629.45
859.1573	1096.2879	65535	64629.3
859.3022	1098.2515	65535	64627.3
859.4472	1100.2145	65535	64629.7
859.5922	1102.1767	65535	64625.45
859.7371	1104.1382	65535	64629.15
859.8821	1106.099	65535	64623.7
860.027	1108.0591	65535	64627.6
860.172	1110.0185	65535	64626.55
860.3169	1111.9771	65535	64628.55
860.4619	1113.9351	65535	64627.15
860.6068	1115.8923	65535	64627.65
860.7517	1117.8488	65535	64626
860.8967	1119.8045	65535	64627.25
861.0416	1121.7596	65535	64629.05
861.1865	1123.7139	65535	64627.05
861.3314	1125.6675	65535	64628.25
861.4763	1127.6204	65535	64629.85
861.6212	1129.5726	65535	64624.4
861.7661	1131.524	65535	64630.75
861.911	1133.4748	65535	64628.6
862.0559	1135.4248	65535	64626.5
862.2008	1137.3741	65535	64628.5
862.3457	1139.3226	65535	64630.7
862.4905	1141.2705	65535	64628.45
862.6354	1143.2176	65535	64621.65
862.7803	1145.164	65535	64628.55
862.9251	1147.1097	65535	64627.8
863.07	1149.0546	65535	64627.3
863.2148	1150.9989	65535	64629.65
863.3597	1152.9424	65535	64628.7
863.5045	1154.8852	65535	64629.4
863.6493	1156.8272	65535	64629.75
863.7942	1158.7686	65535	64620.4
863.939	1160.7092	65535	64628.35
864.0838	1162.6491	65535	64628.1
864.2286	1164.5883	65535	64628.7
864.3734	1166.5267	65535	64629.8
864.5182	1168.4644	65535	64629.5
864.663	1170.4014	65535	64623.5
864.8078	1172.3377	65535	64632.8
864.9526	1174.2732	65535	64628.3
865.0974	1176.2081	65535	64627.6
865.2421	1178.1421	65535	64624.7
865.3869	1180.0755	65535	64629.25
865.5317	1182.0082	65535	64628.3
865.6764	1183.9401	65535	64629.05
865.8212	1185.8713	65535	64630.3
865.9659	1187.8017	65535	64632
866.1106	1189.7315	65535	64634.1
866.2554	1191.6605	65535	64604.2
866.4001	1193.5888	65535	64631.25
866.5448	1195.5163	65535	64629.55
866.6895	1197.4432	65535	64628
866.8342	1199.3693	65535	64632.5
866.9789	1201.2947	65535	64624.8
867.1236	1203.2193	65535	64628.4
867.2683	1205.1432	65535	64629.3
867.413	1207.0664	65535	64628.6
867.5576	1208.9889	65535	64627.25
867.7023	1210.9106	65535	64626.6
867.847	1212.8316	65535	64629.7
867.9916	1214.7519	65535	64621.55
868.1363	1216.6715	65535	64628.75
868.2809	1218.5903	65535	64631.7
868.4255	1220.5084	65535	64627.9
868.5701	1222.4257	65535	64630.75
868.7148	1224.3424	65535	64630.55
868.8594	1226.2583	65535	64624.5
869.004	1228.1735	65535	64630.3
869.1486	1230.0879	65535	64629.35
869.2932	1232.0016	65535	64628.75
869.4377	1233.9146	65535	64629
869.5823	1235.8269	65535	64629.4
869.7269	1237.7384	65535	64632
869.8715	1239.6492	65535	64629.6
870.016	1241.5592	65535	64629.7
870.1606	1243.4686	65535	64629.85
870.3051	1245.3772	65535	64631.4
870.4496	1247.285	65535	64631.05
870.5941	1249.1922	65535	64626.8
870.7387	1251.0986	65535	64628.65
870.8832	1253.0042	65535	64627.35
871.0277	1254.9092	65535	64628.1
871.1722	1256.8134	65535	64630.05
871.3167	1258.7169	65535	64628.7
871.4611	1260.6196	65535	64630.25
871.6056	1262.5216	65535	64630.05
871.7501	1264.4229	65535	64630.95
871.8945	1266.3234	65535	64628.35
872.039	1268.2232	65535	64627.2
872.1834	1270.1223	65535	64628.4
872.3278	1272.0207	65535	64628.4
872.4723	1273.9183	65535	64624.6
872.6167	1275.8151	65535	64630.2
872.7611	1277.7113	65535	64629.45
872.9055	1279.6067	65535	64631.2
873.0499	1281.5014	65535	64628.7
873.1943	1283.3953	65535	64626.5
873.3386	1285.2885	65535	64632.95
873.483	1287.181	65535	64629.55
873.6274	1289.0727	65535	64630.45
873.7717	1290.9637	65535	64631.95
873.9161	1292.854	65535	64630.85
874.0604	1294.7435	65535	64628.65
874.2047	1296.6323	65535	64629.35
874.349	1298.5204	65535	64625.7
874.4933	1300.4077	65535	64629.95
874.6376	1302.2943	65535	64629.95
874.7819	1304.1802	65535	64631.25
874.9262	1306.0653	65535	64628.7
875.0705	1307.9497	65535	64631.65
875.2147	1309.8333	65535	64630.7
875.359	1311.7162	65535	64631.15
875.5032	1313.5984	65535	64630.35
875.6475	1315.4798	65535	64613.65
875.7917	1317.3605	65535	64615.4
875.9359	1319.2405	65535	64628.65
876.0801	1321.1197	65535	64629.05
876.2243	1322.9982	65535	64626.2
876.3685	1324.876	65535	64629.2
876.5127	1326.753	65535	64631.7
876.6569	1328.6293	65535	64627.8
876.801	1330.5048	65535	64625.05
876.9452	1332.3796	65535	64631.4
877.0893	1334.2537	65535	64606.35
877.2335	1336.127	65535	64630.45
877.3776	1337.9996	65535	64627.35
877.5217	1339.8714	65535	64629
877.6658	1341.7426	65535	64586.1
877.8099	1343.6129	65535	64630.9
877.954	1345.4826	65535	64628.35
878.0981	1347.3515	65535	64627.55
878.2422	1349.2196	65535	64630.8
878.3862	1351.087	65535	64629.75
878.5303	1352.9537	65535	64633
878.6743	1354.8197	65535	64628.4
878.8184	1356.6849	65535	64628.5
878.9624	1358.5493	65535	64630.85
879.1064	1360.4131	65535	64630.3
879.2504	1362.276	65535	64630.55
879.3944	1364.1383	65535	64630.25
879.5384	1365.9998	65535	64624.05
879.6823	1367.8606	65535	64631.9
879.8263	1369.7206	65535	64629.3
879.9702	1371.5799	65535	64629.55
880.1142	1373.4384	65535	64630.4
880.2581	1375.2962	65535	64629.75
880.402	1377.1533	65535	64632.2
880.5459	1379.0096	65535	64630.35
880.6898	1380.8652	65535	64630.55
880.8337	1382.7201	65535	64628.8
880.9776	1384.5742	65535	64632.15
881.1215	1386.4275	65535	64628.45
881.2653	1388.2802	65535	64630.4
881.4092	1390.132	65535	64631.4
881.553	1391.9832	65535	64629.65
881.6968	1393.8336	65535	64627.85
881.8406	1395.6832	65535	64628.55
881.9844	1397.5322	65535	64629.4
882.1282	1399.3803	65535	64624.6
882.272	1401.2278	65535	64630.8
882.4158	1403.0745	65535	64630.6
882.5595	1404.9204	65535	64632.3
882.7033	1406.7656	65535	64632.6
882.847	1408.6101	65535	64629.9
882.9908	1410.4538	65535	64629.1
883.1345	1412.2968	65535	64631.35
883.2782	1414.139	65535	64630.4
883.4219	1415.9805	65535	64632.2
883.5656	1417.8213	65535	64625.7
883.7092	1419.6613	65535	64631.85
883.8529	1421.5006	65535	64630.9
883.9965	1423.3391	65535	64629.65
884.1402	1425.1769	65535	64630.6
884.2838	1427.0139	65535	64630.9
884.4274	1428.8502	65535	64631.5
884.571	1430.6858	65535	64632.05
884.7146	1432.5206	65535	64630.75
884.8582	1434.3547	65535	64628.95
885.0018	1436.188	65535	64629.3
885.1453	1438.0206	65535	64629.1
885.2889	1439.8524	65535	64632.35
885.4324	1441.6835	65535	64627.95
885.5759	1443.5139	65535	64626.35
885.7194	1445.3435	65535	64629.6
885.8629	1447.1724	65535	64633.25
886.0064	1449.0005	65535	64632
886.1499	1450.8279	65535	64631.35
886.2933	1452.6545	65535	64633.05
886.4368	1454.4804	65535	64632.1
886.5802	1456.3056	65535	64624.45
886.7237	1458.13	65535	64631.8
886.8671	1459.9536	65535	64629.2
887.0105	1461.7766	65535	64631.25
887.1539	1463.5987	65535	64631.45
887.2972	1465.4202	65535	64630.6
887.4406	1467.2409	65535	64631.15
887.584	1469.0608	65535	64629.95
887.7273	1470.88	65535	64631.65
887.8706	1472.6984	65535	64634.75
888.0139	1474.5161	65535	64630.15
888.1572	1476.3331	65535	64632
888.3005	1478.1493	65535	64632.5
888.4438	1479.9648	65535	64631.3
888.5871	1481.7795	65535	64631.25
888.7303	1483.5935	65535	64631
888.8736	1485.4067	65535	64632.5
889.0168	1487.2192	65535	64630.1
889.16	1489.031	65535	64628.5
889.3032	1490.842	65535	64631.6
889.4464	1492.6522	65535	64632
889.5896	1494.4618	65535	64630.45
889.7327	1496.2705	65535	64634.4
889.8759	1498.0785	65535	64632.65
890.019	1499.8858	65535	64632.5
890.1622	1501.6924	65535	64633.9
890.3053	1503.4981	65535	64632.25
890.4484	1505.3032	65535	64630.85
890.5914	1507.1075	65535	64631.5
890.7345	1508.911	65535	64632.35
890.8776	1510.7138	65535	64629.65
891.0206	1512.5159	65535	64631.15
891.1637	1514.3172	65535	64636.2
891.3067	1516.1178	65535	64635.05
891.4497	1517.9176	65535	64631.55
891.5927	1519.7166	65535	64633.25
891.7357	1521.515	65535	64628.3
891.8786	1523.3126	65535	64632.85
892.0216	1525.1094	65535	64632.95
892.1645	1526.9055	65535	64632.6
892.3074	1528.7008	65535	64633.25
892.4503	1530.4954	65535	64626.45
892.5932	1532.2893	65535	64632.75
892.7361	1534.0824	65535	64629.3
892.879	1535.8747	65535	64634.25
893.0218	1537.6663	65535	64633.85
893.1647	1539.4572	65535	64632.45
893.3075	1541.2473	65535	64633.75
893.4503	1543.0367	65535	64634.6
893.5931	1544.8253	65535	64627.8
893.7359	1546.6132	65535	64630.5
893.8787	1548.4003	65535	64622.8
894.0214	1550.1867	65535	64625.5
894.1642	1551.9723	65535	64628.85
894.3069	1553.7572	65535	64632.15
894.4496	1555.5414	65535	64633.25
894.5923	1557.3247	65535	64634.9
894.735	1559.1074	65535	64635.45
894.8777	1560.8893	65535	64635.15
895.0204	1562.6705	65535	64634.45
895.163	1564.4509	65535	64635.85
895.3056	1566.2305	65535	64636.2
895.4482	1568.0094	65535	64637
895.5908	1569.7876	65535	64635.35
895.7334	1571.565	65535	64637.45
895.876	1573.3417	65535	64637.5
896.0186	1575.1176	65535	64636.4
896.1611	1576.8928	65535	64633.35
896.3036	1578.6672	65535	64636.6
896.4461	1580.4409	65535	64638.85
896.5886	1582.2138	65535	64633.35
896.7311	1583.986	65535	64636.9
896.8736	1585.7575	65535	64637
897.0161	1587.5282	65535	64637.6
897.1585	1589.2981	65535	64637.4
897.3009	1591.0673	65535	64636
897.4433	1592.8358	65535	64639.8
897.5857	1594.6035	65535	64632.45
897.7281	1596.3704	65535	64634.2
897.8705	1598.1366	65535	64634.75
898.0128	1599.9021	65535	64638.7
898.1551	1601.6668	65535	64635.4
898.2975	1603.4308	65535	64635.5
898.4398	1605.194	65535	64630.05
898.5821	1606.9564	65535	64636.75
898.7243	1608.7182	65535	64635.85
898.8666	1610.4791	65535	64640.35
899.0088	1612.2394	65535	64639.15
899.1511	1613.9988	65535	64638.9
899.2933	1615.7576	65535	64637.95
899.4355	1617.5156	65535	64631.95
899.5776	1619.2728	65535	64636.3
899.7198	1621.0293	65535	64636.15
899.862	1622.785	65535	64634.05
900.0041	1624.54	65535	64633.85
900.1462	1626.2942	65535	64637.75
900.2883	1628.0477	65535	64636.4
900.4304	1629.8005	65535	64636.3
900.5725	1631.5525	65535	64638.35
900.7145	1633.3037	65535	64638.2
900.8566	1635.0542	65535	64639
900.9986	1636.804	65535	64637.9
901.1406	1638.553	65535	64546.45
901.2826	1640.3013	65535	64637.85
901.4245	1642.0488	65535	64639.1
901.5665	1643.7955	65535	64639.6
901.7085	1645.5416	65535	64639.1
901.8504	1647.2868	65535	64637.35
901.9923	1649.0313	65535	64638.6
902.1342	1650.7751	65535	64634.6
902.2761	1652.5181	65535	64638.15
902.4179	1654.2604	65535	64637.25
902.5598	1656.0019	65535	64638.6
902.7016	1657.7427	65535	64641.45
902.8434	1659.4828	65535	64638.75
902.9852	1661.222	65535	64638.15
903.127	1662.9606	65535	64638.8
903.2687	1664.6984	65535	64639.65
903.4105	1666.4354	65535	64637.3
903.5522	1668.1717	65535	64637.8
903.6939	1669.9072	65535	64638.75
903.8356	1671.642	65535	64635.25
903.9773	1673.3761	65535	64639.6
904.119	1675.1094	65534.8	64638.5
904.2606	1676.8419	65518.7	64622.35
904.4022	1678.5737	65528.75	64629.4
904.5439	1680.3048	65521.5	64624.9
904.6855	1682.0351	65516.4	64620.55
904.827	1683.7646	65495.9	64596.7
904.9686	1685.4934	65518.2	64622.75
905.1101	1687.2215	65421.85	64524.1
905.2517	1688.9488	65506.8	64609.9
905.3932	1690.6754	65333.2	64437.7
905.5347	1692.4012	65429.65	64532.45
905.6761	1694.1263	65456.6	64561.3
905.8176	1695.8506	65360.15	64464.05
905.9591	1697.5742	65385.6	64490.7
906.1005	1699.297	65365.25	64471.7
906.2419	1701.0191	65383.1	64487.5
906.3833	1702.7404	65226.05	64331.8
906.5246	1704.461	65143.85	64246.95
906.666	1706.1808	65315.1	64419
906.8073	1707.8999	65212.35	64314.45
906.9487	1709.6182	65169.45	64272.7
907.09	1711.3358	65173.05	64278.4
907.2313	1713.0527	65109.3	64214.75
907.3725	1714.7688	65121.2	64222.55
907.5138	1716.4841	64781	63882.85
907.655	1718.1987	64932.35	64034.45
907.7962	1719.9126	64834.7	63940.15
907.9374	1721.6257	64972.55	64076.25
908.0786	1723.338	64966.1	64071.6
908.2198	1725.0496	64315.85	63421.4
908.3609	1726.7605	64411.35	63514.65
908.502	1728.4706	64152.5	63257.6
908.6431	1730.18	64551.05	63653.35
908.7842	1731.8886	64084.25	63189.7
908.9253	1733.5964	63910.95	62994.75
909.0664	1735.3036	64418.15	63519.65
909.2074	1737.0099	63966.45	63071.9
909.3484	1738.7156	63606.4	62712.05
909.4894	1740.4204	63465.65	62568.4
909.6304	1742.1246	63644	62749.35
909.7714	1743.8279	63799.95	62906.5
909.9123	1745.5306	63625.95	62732.45
910.0532	1747.2325	62319	61425.05
910.1941	1748.9336	62350.85	61456.3
910.335	1750.634	62830.15	61933.4
910.4759	1752.3336	63214.95	62319.95
910.6168	1754.0325	62123.85	61232.1
910.7576	1755.7307	63102.15	62210
910.8984	1757.4281	61764.25	60868.45
911.0392	1759.1247	62804.2	61902.05
911.18	1760.8206	61301.05	60402.25
911.3208	1762.5158	61444.6	60546.6
911.4615	1764.2102	61838.7	60945.45
911.6022	1765.9039	61510.15	60617.35
911.7429	1767.5968	61151.35	60259.05
911.8836	1769.289	61030.1	60136.95
912.0243	1770.9804	61317.9	60423.2
912.1649	1772.6711	60966.6	60073.4
912.3056	1774.361	60707.05	59812.6
912.4462	1776.0502	60731.85	59835.05
912.5868	1777.7386	59719.6	58822.95
912.7274	1779.4263	60322.7	59427.85
912.8679	1781.1132	60275.6	59380.85
913.0084	1782.7994	60032.85	59137.7
913.149	1784.4849	60088.7	59196.45
913.2895	1786.1696	58863.95	57965.95
913.4299	1787.8535	59526.05	58633.85
913.5704	1789.5367	59699.1	58804.8
913.7108	1791.2192	58963.95	58071.3
913.8513	1792.9009	58589.15	57666.8
913.9917	1794.5818	59071.1	58176.45
914.132	1796.2621	58443.95	57550.8
914.2724	1797.9415	58468.8	57574.1
914.4128	1799.6202	58331.15	57436.85
914.5531	1801.2982	58465.65	57569.95
914.6934	1802.9755	57825.1	56930.5
914.8337	1804.6519	57613.05	56716.95
914.9739	1806.3277	58370.75	57476.1
915.1142	1808.0027	57004.65	56113.5
915.2544	1809.6769	57371.45	56480.05
915.3946	1811.3504	57554.3	56661.6
915.5348	1813.0231	56550.2	55656.25
915.675	1814.6951	57161.35	56269
915.8151	1816.3664	56726.65	55829.95
915.9553	1818.0369	56814.55	55922.15
916.0954	1819.7067	56456.75	55564.75
916.2355	1821.3757	57030.85	56136.65
916.3755	1823.044	56100.45	55206.3
916.5156	1824.7115	55865.75	54970.45
916.6556	1826.3783	55968.15	55074.65
916.7956	1828.0443	55861.35	54968.45
916.9356	1829.7096	55577.05	54681.85
917.0756	1831.3741	55185.4	54287.35
917.2155	1833.0379	55377.1	54482.9
917.3555	1834.701	55305.95	54410.55
917.4954	1836.3633	54919.35	54026.2
917.6353	1838.0248	55075.05	54180.8
917.7751	1839.6856	54829.35	53934.85
917.915	1841.3457	54428.7	53535.25
918.0548	1843.005	54875.25	53980.3
918.1946	1844.6636	54519.7	53627.5
918.3344	1846.3214	54055.25	53162.4
918.4742	1847.9785	54148.4	53256
918.6139	1849.6349	54038.45	53143.7
918.7537	1851.2904	54275.8	53372.55
918.8934	1852.9453	53707.7	52813.3
919.0331	1854.5994	53738.8	52841.95
919.1727	1856.2528	53864.2	52963.7
919.3124	1857.9054	53493.65	52599.15
919.452	1859.5572	53319.85	52426.3
919.5916	1861.2083	53277.55	52382.5
919.7312	1862.8587	53619.2	52723.75
919.8708	1864.5084	52749.25	51854.25
920.0103	1866.1572	52962.55	52070.55
920.1498	1867.8054	52433.7	51537.35
920.2893	1869.4528	52729.9	51836.9
920.4288	1871.0994	52215.95	51321.9
920.5683	1872.7453	52317.6	51422.2
920.7077	1874.3905	52317.75	51416.5
920.8471	1876.0349	51966.05	51071.05
920.9865	1877.6786	52064.95	51169.65
921.1259	1879.3215	51836.3	50945.8
921.2653	1880.9637	51938	51042.9
921.4046	1882.6051	51677.6	50784.65
921.5439	1884.2458	51432.8	50539.6
921.6832	1885.8858	51155.6	50262.8
921.8225	1887.525	51239.05	50345.1
921.9617	1889.1634	51016.15	50122.75
922.101	1890.8011	50813.8	49920.55
922.2402	1892.4381	50441.3	49547.9
922.3794	1894.0743	50704.1	49811.9
922.5185	1895.7098	50483.4	49590.2
922.6577	1897.3446	50211.65	49316
922.7968	1898.9786	50248.4	49350.45
922.9359	1900.6118	49982.95	49089.1
923.075	1902.2443	49753.9	48858.8
923.214	1903.8761	49764.45	48871.6
923.3531	1905.5071	49462.3	48567
923.4921	1907.1374	49166.4	48272.55
923.6311	1908.7669	49181.15	48288.05
923.77	1910.3957	49191.15	48296.65
923.909	1912.0237	48745.8	47852.95
924.0479	1913.651	48724.2	47830.2
924.1868	1915.2776	48540.6	47648.8
924.3257	1916.9034	48346.5	47454.7
924.4646	1918.5285	48119.75	47227.9
924.6034	1920.1528	47921.45	47028.3
924.7422	1921.7764	47840.05	46946.1
924.881	1923.3992	47638.65	46746.65
925.0198	1925.0213	47339.1	46445.3
925.1586	1926.6427	47114.9	46222.7
925.2973	1928.2633	47167.4	46162.95
925.436	1929.8832	46916.1	46022.9
925.5747	1931.5023	46671.6	45777.85
925.7134	1933.1207	46567.65	45675.2
925.852	1934.7383	46542.05	45649.2
925.9906	1936.3552	46301.65	45409
926.1292	1937.9714	46238	45344.4
926.2678	1939.5868	46021.8	45125.95
926.4064	1941.2015	45737.9	44843.9
926.5449	1942.8154	45568	44673.95
926.6834	1944.4286	45425.4	44531.7
926.8219	1946.041	45253.05	44340.6
926.9604	1947.6528	44999.2	44099.15
927.0988	1949.2637	44904.85	44010.95
927.2372	1950.8739	44798.05	43905.2
927.3756	1952.4834	44686.1	43794.3
927.514	1954.0921	44604	43709.55
927.6523	1955.7001	44373.15	43476.8
927.7907	1957.3074	44276.6	43385.05
927.929	1958.9139	44061.7	43169.8
928.0673	1960.5197	43897.95	43003
928.2055	1962.1247	43687.75	42794.45
928.3438	1963.729	43536.35	42644.05
928.482	1965.3325	43341.75	42426.4
928.6202	1966.9353	43171.55	42280.25
928.7584	1968.5374	43055.8	42161.6
928.8965	1970.1387	42907.7	42014.8
929.0346	1971.7393	42715.5	41823.55
929.1727	1973.3392	42610.45	41718.7
929.3108	1974.9383	42451.55	41561.95
929.4489	1976.5366	42224.55	41332.6
929.5869	1978.1342	42195.5	41303.85
929.7249	1979.7311	42093.55	41200.8
929.8629	1981.3273	41997.1	41104.25
930.0009	1982.9227	41810.75	40917.4
930.1388	1984.5173	41613.45	40723.25
930.2767	1986.1112	41490.2	40598.4
930.4146	1987.7044	41403.95	40513.75
930.5525	1989.2968	41305.6	40413.6
930.6904	1990.8885	41133.1	40238.15
930.8282	1992.4795	41041.2	40149.7
930.966	1994.0697	40837.15	39946.6
931.1038	1995.6592	40641	39749.75
931.2415	1997.2479	40615.2	39723.3
931.3793	1998.8359	40431.25	39539.4
931.517	2000.4232	40250.6	39360.05
931.6547	2002.0097	40157.9	39267.85
931.7923	2003.5955	39955.15	39063.25
931.93	2005.1805	39930.05	39037.15
932.0676	2006.7648	39770.8	38879.75
932.2052	2008.3484	39655.25	38763.2
932.3427	2009.9312	39710.05	38818
932.4803	2011.5133	39459.25	38569.9
932.6178	2013.0946	39323.2	38434.6
932.7553	2014.6752	39195.1	38305.9
932.8928	2016.2551	39106.55	38214.5
933.0302	2017.8342	38938.7	38046.35
933.1676	2019.4126	38847.55	37957
933.305	2020.9902	38647.2	37757.6
933.4424	2022.5672	38556.2	37664.3
933.5798	2024.1433	38449.75	37554.1
933.7171	2025.7188	38289.9	37401
933.8544	2027.2935	38224.25	37334.2
933.9917	2028.8674	38031.75	37143.65
934.129	2030.4406	37966.95	37078.15
934.2662	2032.0131	37769.25	36880.2
934.4034	2033.5849	37636.55	36738.8
934.5406	2035.1559	37576.65	36684.35
934.6778	2036.7261	37487.85	36595.7
934.8149	2038.2957	37390.9	36502.6
934.952	2039.8645	37332	36440.55
935.0891	2041.4325	37324.45	36429.9
935.2262	2042.9998	37077.25	36187.8
935.3632	2044.5664	36992.9	36102.15
935.5002	2046.1323	36895.35	36005.05
935.6372	2047.6974	36744.2	35856.35
935.7742	2049.2617	36681.8	35791.35
935.9111	2050.8254	36594.6	35697.95
936.048	2052.3883	36555.45	35661.8
936.1849	2053.9504	36366.95	35477.4
936.3218	2055.5118	36215.3	35322.95
936.4586	2057.0725	36034.7	35139.6
936.5955	2058.6325	36032.85	35142.1
936.7323	2060.1917	35903.1	35011.95
936.869	2061.7502	35814.7	34923.45
937.0058	2063.3079	35611.65	34722.7
937.1425	2064.8649	35528.7	34635.45
937.2792	2066.4212	35429.35	34537.3
937.4159	2067.9767	35291.65	34402.3
937.5525	2069.5315	35134	34242.6
937.6891	2071.0856	34983.85	34090.35
937.8257	2072.6389	34856	33964.95
937.9623	2074.1915	34688.85	33801.25
938.0989	2075.7433	34508.35	33616.85
938.2354	2077.2945	34456.35	33568.6
938.3719	2078.8448	34326.15	33437.15
938.5084	2080.3945	34223.95	33332.8
938.6448	2081.9434	34203.45	33313.25
938.7812	2083.4916	34028.15	33134.15
938.9176	2085.039	33910.55	33016.5
939.054	2086.5857	33869.15	32975.35
939.1903	2088.1317	33766.25	32874.25
939.3267	2089.677	33642.55	32752
939.463	2091.2215	33570.55	32678.7
939.5992	2092.7652	33421.45	32528.45
939.7355	2094.3083	33375.9	32482.5
939.8717	2095.8506	33326.15	32435.45
940.0079	2097.3921	33342.85	32452.85
940.1441	2098.933	33137.4	32246.3
940.2802	2100.4731	33073.2	32182.5
940.4163	2102.0124	32984.7	32087
940.5524	2103.5511	32897	32003.4
940.6885	2105.089	32834.75	31942.7
940.8245	2106.6261	32723.75	31831.45
940.9606	2108.1626	32649.7	31758.2
941.0965	2109.6983	32599.45	31679.45
941.2325	2111.2332	32461.1	31569.95
941.3684	2112.7675	32360.1	31468.35
941.5044	2114.301	32291.9	31399.75
941.6403	2115.8337	32249.8	31358.4
941.7761	2117.3657	32130.35	31237.95
941.912	2118.897	32026.75	31135.8
942.0478	2120.4276	31910.4	31014.55
942.1835	2121.9575	31751.05	30860
942.3193	2123.4866	31725.3	30819
942.455	2125.0149	31619.95	30725.8
942.5907	2126.5426	31450.25	30558.05
942.7264	2128.0695	31367.95	30472.9
942.8621	2129.5956	31311.4	30422.85
942.9977	2131.1211	31241.4	30347.4
943.1333	2132.6458	31190.6	30300.25
943.2689	2134.1698	31045.05	30152.35
943.4044	2135.693	30962.85	30069.15
943.54	2137.2155	30900.4	30008.05
943.6755	2138.7373	30803.15	29910.75
943.8109	2140.2584	30717.2	29825.3
943.9464	2141.7787	30600.65	29703.6
944.0818	2143.2983	30473.45	29585.45
944.2172	2144.8171	30338.25	29447.8
944.3526	2146.3353	30250.05	29359.3
944.4879	2147.8527	30084.5	29192.45
944.6232	2149.3693	30079.75	29188.5
944.7585	2150.8853	29963.9	29070.4
944.8938	2152.4005	29818.05	28926.4
945.029	2153.9149	29791.45	28900.65
945.1642	2155.4287	29662.3	28772.45
945.2994	2156.9417	29560.9	28667.55
945.4346	2158.454	29500.95	28607.55
945.5697	2159.9655	29403.35	28512.55
945.7048	2161.4764	29380.25	28488.5
945.8399	2162.9865	29252.4	28361.95
945.9749	2164.4958	29176.8	28283.95
946.1099	2166.0045	29060.8	28167.4
946.2449	2167.5124	29042.05	28149.6
946.3799	2169.0195	28924.1	28034.5
946.5148	2170.526	28848.1	27958.45
946.6498	2172.0317	28743.2	27851.95
946.7846	2173.5367	28715.2	27823.8
946.9195	2175.0409	28602.25	27711.5
947.0543	2176.5445	28610.8	27720.2
947.1891	2178.0473	28448.1	27557.8
947.3239	2179.5494	28322.75	27427.1
947.4587	2181.0507	28243.4	27350.75
947.5934	2182.5513	28158.65	27265.65
947.7281	2184.0512	28116.35	27224.9
947.8628	2185.5504	27980.5	27091.6
947.9974	2187.0488	27772.75	26882.35
948.132	2188.5465	27757.5	26868.45
948.2666	2190.0435	27639.15	26747
948.4012	2191.5397	27548.9	26656.35
948.5357	2193.0353	27446.05	26553
948.6702	2194.5301	27320.85	26427.35
948.8047	2196.0241	27206.8	26313.05
948.9392	2197.5175	27150.85	26258.4
949.0736	2199.0101	27028.35	26132.65
949.208	2200.502	26855.15	25965.6
949.3424	2201.9931	26808.5	25916.2
949.4767	2203.4835	26724.8	25830.8
949.611	2204.9733	26663	25766.1
949.7453	2206.4622	26564.3	25674.9
949.8796	2207.9505	26457.45	25564.5
950.0138	2209.438	26332	25441.7
950.148	2210.9248	26240	25349.1
950.2822	2212.4109	26179.95	25289.35
950.4164	2213.8962	26085.25	25193.15
950.5505	2215.3809	26039.45	25145.6
950.6846	2216.8648	25982.3	25088.45
950.8186	2218.3479	25870.75	24974.05
950.9527	2219.8304	25727.25	24833.5
951.0867	2221.3121	25651.6	24758.25
951.2207	2222.7931	25589.2	24700.85
951.3546	2224.2733	25512.9	24621.2
951.4886	2225.7529	25346	24456.35
951.6225	2227.2317	25302.9	24410.2
951.7563	2228.7098	25269.1	24377.3
951.8902	2230.1872	25095.05	24205.65
952.024	2231.6638	25063.8	24171.55
952.1578	2233.1397	24952.3	24057.05
952.2916	2234.6149	24876.35	23986.55
952.4253	2236.0894	24786.85	23894.3
952.559	2237.5632	24758.75	23867.2
952.6927	2239.0362	24637.2	23745.65
952.8263	2240.5085	24591.8	23701.9
952.9599	2241.9801	24442.6	23551.5
953.0935	2243.4509	24395.85	23505.3
953.2271	2244.921	24294.65	23405.5
953.3606	2246.3904	24193.3	23299.45
953.4941	2247.8591	24114.6	23223
953.6276	2249.3271	24070.85	23177.75
953.7611	2250.7943	23968.7	23075.8
953.8945	2252.2608	23847.55	22956.75
954.0279	2253.7266	23764.55	22873.7
954.1612	2255.1917	23763.2	22871.35
954.2946	2256.656	23644.8	22754.45
954.4279	2258.1197	23569.4	22677.2
954.5612	2259.5826	23507.15	22613.95
954.6944	2261.0447	23417.55	22526
954.8276	2262.5062	23360.55	22465.3
954.9608	2263.9669	23318.8	22423.75
955.094	2265.4269	23273.95	22385.15
955.2271	2266.8862	23143.6	22253.95
955.3602	2268.3448	23110.4	22219.1
955.4933	2269.8026	23079.5	22187.75
955.6264	2271.2598	22966.1	22074.15
955.7594	2272.7162	22858.55	21967.95
955.8924	2274.1719	22834.1	21943.95
956.0253	2275.6268	22743.6	21851
956.1583	2277.0811	22728.5	21836.3
956.2912	2278.5346	22622.4	21730.95
956.4241	2279.9874	22562	21671.85
956.5569	2281.4395	22507.3	21617.5
956.6897	2282.8908	22392.95	21497.35
956.8225	2284.3414	22350.15	21456.9
956.9553	2285.7914	22273.25	21383.55
957.088	2287.2406	22157.4	21263.6
957.2207	2288.689	22186.4	21293.8
957.3534	2290.1368	22080.45	21189.9
957.486	2291.5838	21979.05	21086.3
957.6186	2293.0302	21936.5	21044.7
957.7512	2294.4758	21823.2	20932.1
957.8838	2295.9206	21772.35	20878.7
958.0163	2297.3648	21686.55	20795.65
958.1488	2298.8082	21662.05	20770.4
958.2813	2300.251	21581.1	20691.35
958.4137	2301.693	21516.95	20624.15
958.5461	2303.1343	21498.3	20605.7
958.6785	2304.5748	21378.4	20487.85
958.8108	2306.0147	21308.4	20417.55
958.9432	2307.4538	21286.75	20393.85
959.0754	2308.8922	21173.85	20283.3
959.2077	2310.3299	21126.6	20235.45
959.3399	2311.7669	21020.35	20129.3
959.4721	2313.2031	20967.6	20077.4
959.6043	2314.6387	20888.3	19995.45
959.7365	2316.0735	20825.7	19932.1
959.8686	2317.5076	20724	19830.3
960.0006	2318.941	20631.45	19739.3
960.1327	2320.3737	20645.65	19754.6
960.2647	2321.8056	20581.75	19690.45
960.3967	2323.2369	20460.7	19569.6
960.5287	2324.6674	20433.7	19537.45
960.6606	2326.0972	20340.05	19447
960.7925	2327.5263	20258.4	19367.3
960.9244	2328.9547	20188.05	19295.9
961.0562	2330.3823	20165.4	19273
961.1881	2331.8092	20112.35	19218.55
961.3198	2333.2355	20034.95	19142.75
961.4516	2334.661	20003.1	19110.05
961.5833	2336.0858	19942.7	19049.35
961.715	2337.5098	19882.1	18990.1
961.8467	2338.9332	19830.3	18935.8
961.9783	2340.3558	19760.15	18865.6
962.1099	2341.7778	19723.9	18832.55
962.2415	2343.199	19610.75	18719.2
962.373	2344.6195	19530.15	18640.1
962.5045	2346.0393	19485.05	18597.3
962.636	2347.4583	19449.25	18556.75
962.7675	2348.8767	19388.15	18495.1
962.8989	2350.2943	19303.85	18411.8
963.0303	2351.7113	19278.55	18386.25
963.1617	2353.1275	19187.6	18295.3
963.293	2354.543	19156.2	18255.8
963.4243	2355.9578	19064.85	18172.4
963.5556	2357.3718	18965.9	18074.5
963.6868	2358.7852	18872.65	17978.8
963.818	2360.1978	18834.95	17944.25
963.9492	2361.6098	18807.3	17915.7
964.0803	2363.021	18739.6	17844.65
964.2114	2364.4315	18668.55	17777.4
964.3425	2365.8413	18591.2	17697.65
964.4736	2367.2504	18528.7	17637.15
964.6046	2368.6587	18439.2	17548.7
964.7356	2370.0664	18323.55	17431.6
964.8666	2371.4733	18281.75	17390.05
964.9975	2372.8795	18265.15	17374.8
965.1284	2374.285	18170.2	17280.35
965.2593	2375.6899	18082.25	17191.4
965.3901	2377.0939	17997.65	17107
965.5209	2378.4973	17894.6	17004.55
965.6517	2379.9	17872.95	16981.65
965.7825	2381.3019	17803.6	16912.65
965.9132	2382.7032	17720.7	16830.05
966.0439	2384.1037	17679.35	16790.95
966.1745	2385.5035	17625.55	16736
966.3051	2386.9027	17571.7	16682.65
966.4357	2388.3011	17526.8	16635.15
966.5663	2389.6987	17487.9	16596
966.6968	2391.0957	17389.8	16501.1
966.8273	2392.492	17340.75	16450.9
966.9578	2393.8876	17198	16306.15
967.0882	2395.2824	17136.8	16248.35
967.2186	2396.6765	17063.35	16174.95
967.349	2398.07	16990.2	16101.3
967.4793	2399.4627	16971.3	16079.95
967.6097	2400.8547	16892.1	16000
967.7399	2402.246	16831.1	15935.05
967.8702	2403.6366	16752.95	15862.75
968.0004	2405.0265	16646	15756.65
968.1306	2406.4156	16613.9	15721.55
968.2607	2407.8041	16567.5	15674.25
968.3909	2409.1918	16483.65	15590.75
968.521	2410.5789	16400.2	15509.3
968.651	2411.9652	16354.4	15460.6
968.781	2413.3508	16324.85	15436.75
968.911	2414.7358	16230.45	15339.35
969.041	2416.12	16174.5	15283.4
969.1709	2417.5035	16141.5	15250.7
969.3008	2418.8863	16076.65	15185
969.4307	2420.2684	16011.6	15121.3
969.5606	2421.6497	15929.8	15037.95
969.6904	2423.0304	15843.6	14954.4
969.8201	2424.4104	15805.8	14913.9
969.9499	2425.7896	15747.9	14853.75
970.0796	2427.1682	15739.75	14848.4
970.2093	2428.546	15680.9	14787.95
970.3389	2429.9232	15649.85	14757.1
970.4685	2431.2996	15589.15	14697.3
970.5981	2432.6753	15563.25	14673.35
970.7277	2434.0503	15533.7	14643.45
970.8572	2435.4246	15387.85	14498.75
970.9867	2436.7982	15347.4	14455.65
971.1161	2438.1711	15307.75	14420.1
971.2456	2439.5433	15280.9	14390.7
971.375	2440.9148	15193.3	14296.9
971.5043	2442.2856	15114.6	14222.6
971.6336	2443.6557	15096	14204.6
971.7629	2445.025	15050.9	14159.95
971.8922	2446.3937	15031.7	14140.5
972.0214	2447.7617	14970	14078.5
972.1506	2449.1289	14888.95	13996
972.2798	2450.4955	14884.3	13990.25
972.4089	2451.8613	14808.25	13919
972.538	2453.2265	14764.85	13874.7
972.6671	2454.5909	14727.9	13837
972.7961	2455.9546	14712.2	13821.95
972.9251	2457.3177	14619.5	13728.9
973.0541	2458.68	14591.45	13701
973.1831	2460.0416	14541.65	13650.35
973.312	2461.4025	14533	13639.75
973.4408	2462.7627	14501.45	13598.35
973.5697	2464.1222	14432.2	13542.35
973.6985	2465.4811	14389.55	13499.05
973.8273	2466.8392	14333.9	13444.6
973.956	2468.1966	14301.15	13406.4
974.0847	2469.5533	14294.8	13403.4
974.2134	2470.9093	14221.65	13330
974.3421	2472.2645	14167.4	13276
974.4707	2473.6191	14128	13238.25
974.5993	2474.973	14081.7	13191.25
974.7278	2476.3262	14036.4	13146
974.8563	2477.6787	13968.6	13078.35
974.9848	2479.0305	13891.4	12999.85
975.1132	2480.3816	13861.9	12968.75
975.2417	2481.7319	13789.7	12900.1
975.37	2483.0816	13723.8	12831.9
975.4984	2484.4306	13675.35	12783.6
975.6267	2485.7789	13629.95	12740.45
975.755	2487.1264	13572.95	12682.05
975.8833	2488.4733	13522.85	12632.75
976.0115	2489.8195	13488.35	12582.6
976.1397	2491.165	13441.3	12546.15
976.2678	2492.5097	13395.2	12503.55
976.3959	2493.8538	13344.75	12454.1
976.524	2495.1972	13245.95	12356.4
976.6521	2496.5398	13218.6	12327.4
976.7801	2497.8818	13179.1	12286.75
976.9081	2499.2231	13111	12218.9
977.036	2500.5637	13065.1	12172.4
977.164	2501.9035	13038.95	12146.85
977.2918	2503.2427	13002.4	12108.5
977.4197	2504.5812	12937.2	12045.5
977.5475	2505.919	12915.85	12023.2
977.6753	2507.256	12880.25	11989.1
977.8031	2508.5924	12805.75	11916
977.9308	2509.9281	12784.85	11886.7
978.0585	2511.2631	12693.4	11800.75
978.1861	2512.5974	12693.75	11802.45
978.3137	2513.9309	12641.35	11750.85
978.4413	2515.2638	12644.15	11725.25
978.5689	2516.596	12589.2	11698.15
978.6964	2517.9275	12500.15	11609.05
978.8239	2519.2583	12431.55	11539.25
978.9513	2520.5884	12400.05	11506.7
979.0788	2521.9178	12385.85	11496.2
979.2062	2523.2465	12348.15	11458.35
979.3335	2524.5745	12279.8	11390.8
979.4608	2525.9018	12221.3	11331.6
979.5881	2527.2284	12196.15	11306.35
979.7154	2528.5543	12169.15	11277.95
979.8426	2529.8796	12121.45	11231.55
979.9698	2531.2041	12099.9	11209.55
980.0969	2532.5279	12072.75	11183.45
980.224	2533.851	12052.1	11162.35
980.3511	2535.1735	11995.8	11105.85
980.4781	2536.4952	11965.5	11072.7
980.6052	2537.8163	11945.25	11055.55
980.7321	2539.1366	11896.8	11007
980.8591	2540.4562	11868.7	10975.9
980.986	2541.7752	11825.5	10936.95
981.1129	2543.0935	11828.2	10936.75
981.2397	2544.411	11805.9	10914.45
981.3665	2545.7279	11773.5	10882.5
981.4933	2547.0441	11740.05	10850.7
981.62	2548.3596	11704.85	10813.15
981.7467	2549.6744	11669.65	10778.55
981.8734	2550.9885	11614.45	10714.4
982.0001	2552.3019	11594.25	10705.1
982.1267	2553.6146	11582.75	10691.6
982.2532	2554.9266	11534.2	10642.4
982.3798	2556.2379	11450.3	10558
982.5063	2557.5485	11463.65	10571.95
982.6327	2558.8585	11475.6	10576.95
982.7592	2560.1677	11414	10519.85
982.8856	2561.4762	11382	10492.55
983.0119	2562.7841	11361	10466.05
983.1383	2564.0913	11329.9	10441.3
983.2646	2565.3977	11303.2	10412.9
983.3908	2566.7035	11244.45	10355.05
983.517	2568.0086	11242.1	10348.7
983.6432	2569.313	11202.9	10309.95
983.7694	2570.6167	11189.25	10293
983.8955	2571.9197	11155.5	10264.65
984.0216	2573.222	11147.15	10251.95
984.1476	2574.5236	11084.1	10192.3
984.2737	2575.8246	11068.55	10173.8
984.3996	2577.1248	11053.35	10162.05
984.5256	2578.4244	11035.05	10144.6
984.6515	2579.7232	11037.05	10145.55
984.7774	2581.0214	11002.25	10086.55
984.9032	2582.3189	10967.7	10077.85
985.029	2583.6157	10920.15	10022.85
985.1548	2584.9118	10918.95	10028.2
985.2806	2586.2072	10871.65	9979
985.4063	2587.5019	10826.2	9935.4
985.5319	2588.7959	10798.15	9908.4
985.6576	2590.0893	10791.6	9899.05
985.7832	2591.3819	10760.9	9870.75
985.9087	2592.6739	10690.05	9802.4
986.0343	2593.9652	10683.4	9789.7
986.1597	2595.2557	10680.6	9791.95
986.2852	2596.5456	10601.6	9710
986.4106	2597.8348	10572.55	9680.95
986.536	2599.1234	10532.15	9641.5
986.6614	2600.4112	10491.4	9600.15
986.7867	2601.6983	10446	9553.65
986.912	2602.9848	10416.1	9526.35
987.0372	2604.2705	10376.1	9478.95
987.1624	2605.5556	10355.05	9464.5
987.2876	2606.84	10317.85	9427.8
987.4128	2608.1237	10259.1	9367.1
987.5379	2609.4067	10215.05	9323.2
987.6629	2610.689	10209.6	9309.45
987.788	2611.9707	10185.5	9292.65
987.913	2613.2516	10124.4	9227.35
988.0379	2614.5319	10066.5	9174.4
988.1629	2615.8115	10021.5	9129.95
988.2878	2617.0903	9986.2	9094
988.4126	2618.3685	9954.2	9063.8
988.5375	2619.6461	9929.65	9039.8
988.6622	2620.9229	9869.55	8978.85
988.787	2622.199	9885.1	8993.15
988.9117	2623.4745	9844.75	8953.4
989.0364	2624.7493	9800.7	8910.85
989.161	2626.0234	9747.4	8856.7
989.2857	2627.2968	9717.7	8826.05
989.4102	2628.5695	9693.75	8802.55
989.5348	2629.8415	9651.55	8760.8
989.6593	2631.1128	9609.6	8717.3
989.7837	2632.3835	9561.85	8672.1
989.9082	2633.6535	9513.7	8624.2
990.0326	2634.9228	9482.95	8594.1
990.1569	2636.1914	9451.25	8560.85
990.2812	2637.4593	9445.2	8555
990.4055	2638.7265	9383.85	8489.8
990.5298	2639.9931	9368.8	8478.7
990.654	2641.259	9354.35	8462.85
990.7782	2642.5242	9296.1	8404.3
990.9023	2643.7887	9275.15	8382.25
991.0264	2645.0525	9258.1	8367.65
991.1505	2646.3156	9207.2	8314.9
991.2745	2647.5781	9203.6	8314.55
991.3985	2648.8398	9155.15	8266.25
991.5225	2650.1009	9119.1	8219.8
991.6464	2651.3613	9108.3	8217.75
991.7703	2652.6211	9070.45	8179.4
991.8942	2653.8801	9028.7	8139.05
992.018	2655.1385	9050.25	8157.95
992.1418	2656.3961	9002.8	8110.75
992.2655	2657.6531	8972.9	8079.5
992.3892	2658.9094	8943.9	8051.5
992.5129	2660.1651	8930.45	8042.25
992.6366	2661.42	8914.85	8026.05
992.7602	2662.6743	8901.45	8009.8
992.8837	2663.9279	8873.1	7983.2
993.0073	2665.1808	8831	7938.6
993.1307	2666.433	8792.65	7899.55
993.2542	2667.6846	8765.05	7874.8
993.3776	2668.9354	8761.65	7868.7
993.501	2670.1856	8719.05	7826.45
993.6244	2671.4351	8720.15	7828.75
993.7477	2672.6839	8679.2	7789.65
993.8709	2673.9321	8657.75	7768.45
993.9942	2675.1795	8628.35	7735.9
994.1174	2676.4263	8580.5	7691.25
994.2405	2677.6724	8569.25	7679.25
994.3637	2678.9179	8550.75	7659.45
994.4868	2680.1626	8538.55	7647.1
994.6098	2681.4067	8511.25	7620.45
994.7328	2682.6501	8477.3	7585.75
994.8558	2683.8928	8439.9	7546.2
994.9788	2685.1348	8408.05	7517.75
995.1017	2686.3761	8383.55	7493.55
995.2245	2687.6168	8328.55	7439.4
995.3474	2688.8568	8310.7	7419.7
995.4702	2690.0961	8280.25	7390.05
995.5929	2691.3348	8268.45	7377.25
995.7156	2692.5727	8234.35	7343.65
995.8383	2693.81	8213.65	7320.9
995.961	2695.0466	8204.55	7317.45
996.0836	2696.2826	8158.05	7264.45
996.2062	2697.5178	8157.35	7264.2
996.3287	2698.7524	8100.65	7209.4
996.4512	2699.9863	8087.2	7195.3
996.5737	2701.2195	8066.5	7175.15
996.6961	2702.452	8047.45	7156.1
996.8185	2703.6839	8014.6	7123.1
996.9408	2704.9151	8008.95	7120
997.0631	2706.1456	7939.35	7048.65
997.1854	2707.3755	7940.1	7048.85
997.3077	2708.6046	7919.7	7028
997.4299	2709.8331	7916.9	7025.75
997.552	2711.0609	7879.75	6989.45
997.6742	2712.2881	7849.6	6959.65
997.7963	2713.5145	7855.05	6963.15
997.9183	2714.7403	7818.8	6929.4
998.0403	2715.9654	7804.7	6914.05
998.1623	2717.1899	7777.3	6873.9
998.2842	2718.4136	7748.7	6854.95
998.4062	2719.6367	7766.15	6875.55
998.528	2720.8591	7717.9	6822.05
998.6498	2722.0809	7694.8	6804.05
998.7716	2723.3019	7680.85	6787.2
998.8934	2724.5223	7668.15	6777.25
999.0151	2725.7421	7637.9	6748.15
999.1368	2726.9611	7603.6	6710.95
999.2584	2728.1795	7597.05	6701.85
999.38	2729.3972	7566.55	6677.8
999.5016	2730.6142	7512.2	6607.2
999.6231	2731.8306	7477.45	6586.35
999.7446	2733.0462	7432.45	6541.4
999.8661	2734.2612	7405.4	6511.85
999.9875	2735.4756	7368.1	6476.6
1000.1089	2736.6892	7315.45	6424.8
1000.2302	2737.9022	7256.4	6367.25
1000.3515	2739.1145	7237.2	6345.8
1000.4728	2740.3262	7212.4	6314.25
1000.594	2741.5372	7163.9	6273.45
1000.7152	2742.7475	7146.3	6255.8
1000.8363	2743.9571	7095.5	6203.9
1000.9575	2745.1661	7066.6	6171.7
1001.0785	2746.3744	7041.7	6150.1
1001.1996	2747.582	7000.5	6110.4
1001.3206	2748.7889	6992.85	6102.6
1001.4415	2749.9952	6968.5	6078.85
1001.5625	2751.2008	6933.3	6042.1
1001.6833	2752.4057	6907.85	6015.5
1001.8042	2753.61	6878.2	5988.55
1001.925	2754.8136	6869.9	5976.6
1002.0458	2756.0165	6834.5	5945.7
1002.1665	2757.2188	6819.85	5931.3
1002.2872	2758.4204	6800.85	5912.3
1002.4078	2759.6213	6776.1	5883
1002.5285	2760.8215	6774.65	5880.5
1002.649	2762.0211	6741	5847.55
1002.7696	2763.22	6705.85	5812.35
1002.8901	2764.4182	6679.45	5788.2
1003.0106	2765.6158	6668	5778.2
1003.131	2766.8127	6655.4	5764.55
1003.2514	2768.009	6630.85	5740.45
1003.3717	2769.2045	6611.5	5722.45
1003.492	2770.3994	6586.45	5696.7
1003.6123	2771.5936	6548.1	5658.55
1003.7325	2772.7872	6514.1	5623.75
1003.8527	2773.9801	6501.05	5607.15
1003.9729	2775.1723	6483	5575.3
1004.093	2776.3639	6448.1	5558.9
1004.2131	2777.5548	6442.2	5551.05
1004.3331	2778.745	6418.85	5528.15
1004.4531	2779.9346	6405.1	5515
1004.5731	2781.1235	6377.6	5486.95
1004.693	2782.3117	6363.8	5474.8
1004.8129	2783.4992	6331.5	5440.7
1004.9328	2784.6861	6321.7	5429.3
1005.0526	2785.8723	6314.5	5422.95
1005.1723	2787.0579	6302.6	5410.6
1005.2921	2788.2428	6259	5368.95
1005.4118	2789.427	6228.25	5339.65
1005.5314	2790.6106	6251.1	5361.95
1005.651	2791.7935	6226.55	5334.75
1005.7706	2792.9757	6216.35	5325.35
1005.8902	2794.1573	6201.6	5309.2
1006.0097	2795.3382	6194.15	5303.8
1006.1291	2796.5184	6164.95	5275.9
1006.2485	2797.698	6197	5304.55
1006.3679	2798.8769	6173.65	5282.8
1006.4873	2800.0551	6161.3	5271.85
1006.6066	2801.2327	6168.95	5275.6
1006.7258	2802.4096	6159.8	5271
1006.8451	2803.5859	6142.7	5252.75
1006.9642	2804.7615	6141.65	5251.25
1007.0834	2805.9364	6170.6	5281.4
1007.2025	2807.1106	6149.65	5260.65
1007.3216	2808.2842	6180.1	5288.1
1007.4406	2809.4572	6181.7	5290.1
1007.5596	2810.6294	6205.85	5315.05
1007.6785	2811.801	6234.7	5347
1007.7975	2812.972	6224.1	5334.5
1007.9163	2814.1423	6256.05	5365.1
1008.0352	2815.3119	6297.65	5408.3
1008.154	2816.4808	6325	5435.05
1008.2727	2817.6491	6355.25	5464.95
1008.3914	2818.8167	6385.6	5496.55
1008.5101	2819.9837	6422.65	5529.55
1008.6288	2821.15	6443.35	5550.15
1008.7474	2822.3157	6481.55	5592.3
1008.8659	2823.4807	6495.9	5605.9
1008.9844	2824.645	6544.25	5652.6
1009.1029	2825.8086	6556.9	5669.15
1009.2214	2826.9716	6569.75	5679.3
1009.3398	2828.134	6629.05	5740.05
1009.4581	2829.2957	6653	5763.8
1009.5764	2830.4567	6641.85	5753.65
1009.6947	2831.617	6659.75	5769.85
1009.813	2832.7767	6644.8	5754.35
1009.9312	2833.9358	6642.6	5750.9
1010.0493	2835.0941	6635.4	5744
1010.1675	2836.2519	6597.8	5707.6
1010.2855	2837.4089	6583.35	5692.8
1010.4036	2838.5653	6558.7	5670.6
1010.5216	2839.7211	6547.5	5659.1
1010.6396	2840.8761	6555.35	5662.9
1010.7575	2842.0306	6552.5	5663.75
1010.8754	2843.1843	6585.7	5696.8
1010.9932	2844.3374	6640.3	5749.75
1011.111	2845.4899	6666.1	5774.3
1011.2288	2846.6417	6706.25	5816.95
1011.3465	2847.7928	6780.7	5893.05
1011.4642	2848.9433	6849.2	5959.9
1011.5818	2850.0931	6895.5	6005.95
1011.6995	2851.2422	6960.85	6069.05
1011.817	2852.3907	7017.3	6125.25
1011.9345	2853.5385	7060.5	6167.9
1012.052	2854.6857	7112.65	6196.7
1012.1695	2855.8323	7150.8	6262.2
1012.2869	2856.9781	7167.7	6277.5
1012.4042	2858.1233	7206.25	6317.35
1012.5216	2859.2679	7230.95	6339.45
1012.6389	2860.4118	7251.6	6362.85
1012.7561	2861.555	7287.75	6392.55
1012.8733	2862.6976	7279.9	6387.8
1012.9905	2863.8395	7300.9	6408.75
1013.1076	2864.9808	7326.2	6436.4
1013.2247	2866.1214	7315.25	6426.7
1013.3417	2867.2614	7311.05	6421.35
1013.4587	2868.4007	7287.1	6397.75
1013.5757	2869.5393	7292.1	6400.75
1013.6926	2870.6773	7277.8	6384
1013.8095	2871.8146	7309.7	6416
1013.9263	2872.9513	7279.2	6387.1
1014.0431	2874.0874	7256.6	6366.4
1014.1599	2875.2227	7214.6	6325.15
1014.2766	2876.3574	7194.25	6304.55
1014.3933	2877.4915	7150.85	6259.85
1014.51	2878.6249	7124.7	6234.85
1014.6266	2879.7577	7066.75	6176.45
1014.7431	2880.8898	7031.7	6131.25
1014.8596	2882.0212	7005.35	6115.15
1014.9761	2883.152	6995.15	6103.65
1015.0925	2884.2821	6947.9	6060
1015.2089	2885.4116	6913.55	6025
1015.3253	2886.5405	6916.9	6026.5
1015.4416	2887.6686	6880.45	5987.35
1015.5579	2888.7962	6877.35	5988.4
1015.6741	2889.923	6869.7	5980.25
1015.7903	2891.0493	6850.1	5959.55
1015.9065	2892.1748	6875.05	5985
1016.0226	2893.2997	6843.5	5952.9
1016.1387	2894.424	6869.2	5980.75
1016.2547	2895.5476	6839.3	5950.05
1016.3707	2896.6706	6852.4	5962.8
1016.4866	2897.7929	6854.95	5964
1016.6025	2898.9145	6903.4	6012.8
1016.7184	2900.0355	6889.35	5998.65
1016.8342	2901.1559	6899.85	6008.9
1016.95	2902.2756	6939.4	6050.85
1017.0658	2903.3946	6935.6	6045.45
1017.1815	2904.513	6960.05	6068.3
1017.2971	2905.6308	6982.45	6091.55
1017.4127	2906.7479	6973.5	6083.7
1017.5283	2907.8643	6985.3	6096.45
1017.6439	2908.9801	6983.3	6094.35
1017.7594	2910.0953	6986.1	6096.15
1017.8748	2911.2098	6955.15	6061.05
1017.9902	2912.3236	6938.7	6041.75
1018.1056	2913.4368	6891.25	5997.1
1018.2209	2914.5494	6868.75	5977.4
1018.3362	2915.6613	6830.7	5936.4
1018.4515	2916.7725	6783.4	5891.55
1018.5667	2917.8831	6775.2	5881.85
1018.6819	2918.9931	6707	5815.95
1018.797	2920.1024	6678.1	5788.45
1018.9121	2921.211	6662.55	5772.95
1019.0271	2922.319	6631.6	5740.15
1019.1421	2923.4264	6596.45	5708.65
1019.2571	2924.5331	6557	5668.25
1019.372	2925.6391	6524.8	5636.55
1019.4869	2926.7445	6506.3	5618.45
1019.6017	2927.8493	6502.65	5612.75
1019.7165	2928.9534	6480.65	5591.75
1019.8313	2930.0569	6460.55	5568.6
1019.946	2931.1597	6453.6	5566.05
1020.0606	2932.2619	6426.95	5535.7
1020.1753	2933.3634	6413.45	5523.7
1020.2899	2934.4643	6383.6	5487.55
1020.4044	2935.5645	6363.3	5467
1020.5189	2936.6641	6317.15	5424.35
1020.6334	2937.763	6262.45	5374.15
1020.7478	2938.8613	6207.95	5318.95
1020.8622	2939.959	6128.05	5233.15
1020.9765	2941.056	6032.75	5143.45
1021.0908	2942.1523	5954.9	5063.55
1021.2051	2943.248	5858.95	4968.75
1021.3193	2944.3431	5764.55	4876.2
1021.4334	2945.4375	5642.4	4751.3
1021.5476	2946.5313	5529	4642
1021.6617	2947.6244	5436.15	4547.7
1021.7757	2948.7169	5321.8	4433.15
1021.8897	2949.8087	5200.45	4310.7
1022.0037	2950.8999	5090.5	4200.05
1022.1176	2951.9904	5006.2	4116.85
1022.2315	2953.0803	4920.65	4029.8
1022.3453	2954.1696	4870.8	3983.25
1022.4591	2955.2582	4799.9	3914.5
1022.5728	2956.3462	4725.95	3837.05
1022.6865	2957.4335	4698.4	3808.65
1022.8002	2958.5202	4628.65	3736.4
1022.9138	2959.6062	4604.55	3715.2
1023.0274	2960.6916	4557.7	3668.25
1023.141	2961.7764	4538	3647.2
1023.2545	2962.8605	4499.45	3610.4
1023.3679	2963.9439	4482.75	3593.55
1023.4813	2965.0267	4449.5	3558.5
1023.5947	2966.1089	4462.4	3549.65
1023.708	2967.1905	4416.15	3526.3
1023.8213	2968.2714	4392.95	3504.15
1023.9346	2969.3516	4391.3	3502.05
1024.0478	2970.4312	4374.95	3479.7
1024.1609	2971.5102	4359.45	3470.8
1024.274	2972.5885	4350.45	3460.7
1024.3871	2973.6662	4342.2	3447.35
1024.5002	2974.7432	4346.6	3457.05
1024.6132	2975.8196	4318.4	3430.3
1024.7261	2976.8954	4289.9	3401.85
1024.839	2977.9705	4279	3390.3
1024.9519	2979.045	4259.05	3370.6
1025.0647	2980.1188	4220.1	3330.45
1025.1775	2981.192	4168.3	3279.5
1025.2902	2982.2645	4162.55	3271.6
1025.4029	2983.3364	4127.3	3237.85
1025.5156	2984.4077	4077.45	3188.5
1025.6282	2985.4783	4043.25	3149.15
1025.7407	2986.5483	4008.05	3119.75
1025.8532	2987.6177	3972.95	3083.15
1025.9657	2988.6864	3944.35	3056.55
1026.0782	2989.7545	3900.55	3009.95
1026.1906	2990.8219	3849.7	2960.35
1026.3029	2991.8887	3808.55	2915.6
1026.4152	2992.9548	3770.75	2880.75
1026.5275	2994.0204	3718.05	2831.25
1026.6397	2995.0852	3686.6	2798.8
1026.7519	2996.1495	3645.6	2754.4
1026.864	2997.2131	3631.75	2740.8
1026.9761	2998.276	3591.85	2701.45
1027.0882	2999.3383	3576.85	2687.05
1027.2002	3000.4	3541.45	2650.65
1027.3122	3001.4611	3501.7	2612.1
1027.4241	3002.5215	3502.3	2612.45
1027.536	3003.5812	3469.4	2580.8
1027.6478	3004.6404	3445	2557.5
1027.7596	3005.6989	3423.5	2529.55
1027.8714	3006.7567	3416.65	2527.25
1027.9831	3007.8139	3401.1	2492.9
1028.0947	3008.8705	3378.95	2489.2
1028.2064	3009.9264	3379.45	2487.4
1028.3179	3010.9818	3347.6	2458.8
1028.4295	3012.0364	3338.05	2447.25
1028.541	3013.0905	3321.75	2432
1028.6524	3014.1439	3323.1	2434.4
1028.7638	3015.1966	3316.75	2427.8
1028.8752	3016.2487	3304	2414
1028.9865	3017.3002	3287.65	2392.1
1029.0978	3018.3511	3294.65	2407.75
1029.209	3019.4013	3275.45	2385.75
1029.3202	3020.4509	3268	2379.55
1029.4314	3021.4998	3278.8	2390.25
1029.5425	3022.5481	3266.35	2376.7
1029.6535	3023.5958	3240.3	2351.85
1029.7645	3024.6428	3255.9	2367.85
1029.8755	3025.6892	3245.45	2357.6
1029.9864	3026.735	3237.75	2347.85
1030.0973	3027.7802	3222.3	2332.35
1030.2082	3028.8247	3214.25	2324.85
1030.319	3029.8685	3210.1	2322.9
1030.4297	3030.9118	3191.6	2301
1030.5404	3031.9544	3192	2301.6
1030.6511	3032.9963	3186.9	2297.5
1030.7617	3034.0376	3194.25	2304.1
1030.8723	3035.0783	3201.15	2310.4
1030.9829	3036.1184	3184	2292.65
1031.0934	3037.1578	3172.15	2284.05
1031.2038	3038.1966	3172.6	2281.1
1031.3142	3039.2348	3160.75	2272.15
1031.4246	3040.2723	3148.2	2249.5
1031.5349	3041.3092	3148.05	2259.65
1031.6452	3042.3455	3127.3	2237.8
1031.7554	3043.3811	3126.1	2238.15
1031.8656	3044.4161	3108.05	2218.2
1031.9758	3045.4505	3101.05	2211.65
1032.0859	3046.4842	3079.75	2189.5
1032.1959	3047.5173	3065.1	2177.1
1032.3059	3048.5498	3053.05	2163.2
1032.4159	3049.5816	3043.6	2154.65
1032.5258	3050.6128	3037.35	2148.8
1032.6357	3051.6434	3026.9	2135.15
1032.7455	3052.6734	3025.95	2136.1
1032.8553	3053.7027	3016.8	2126.15
1032.9651	3054.7314	2990.7	2102.65
1033.0748	3055.7594	2978.65	2090.6
1033.1845	3056.7868	2958.55	2068.4
1033.2941	3057.8136	2937.7	2047.75
1033.4037	3058.8398	2928.95	2039.95
1033.5132	3059.8653	2923.8	2034.5
1033.6227	3060.8902	2897.85	2008.85
1033.7321	3061.9145	2894.3	2007.4
1033.8415	3062.9381	2889.65	2000.15
1033.9509	3063.9612	2889	1983.95
1034.0602	3064.9835	2865	1974.3
1034.1694	3066.0053	2848.5	1957.5
1034.2787	3067.0264	2847.25	1958.95
1034.3878	3068.0469	2825	1935.5
1034.497	3069.0668	2818.55	1925.1
1034.6061	3070.086	2805.2	1916.9
1034.7151	3071.1046	2790.35	1901.65
1034.8241	3072.1226	2757.05	1867.95
1034.9331	3073.1399	2758.9	1870.75
1035.042	3074.1567	2736.15	1847.55
1035.1508	3075.1727	2721.95	1829.6
1035.2597	3076.1882	2708.4	1819.5
1035.3684	3077.203	2690.25	1801.3
1035.4772	3078.2173	2680.85	1791.8
1035.5859	3079.2308	2673.4	1783.6
1035.6945	3080.2438	2648.55	1758.25
1035.8031	3081.2561	2630.35	1740.55
1035.9117	3082.2678	2616.55	1726.85
1036.0202	3083.2789	2619.25	1731.3
1036.1286	3084.2893	2609.3	1721.2
1036.2371	3085.2991	2603.7	1713.15
1036.3454	3086.3083	2579	1686.8
1036.4538	3087.3169	2561	1669.4
1036.562	3088.3248	2560.7	1670
1036.6703	3089.3321	2544.35	1654.55
1036.7785	3090.3388	2529.3	1642
1036.8866	3091.3449	2527.35	1639.95
1036.9948	3092.3503	2507.55	1617.3
1037.1028	3093.3551	2500.35	1612.95
1037.2108	3094.3593	2490.9	1603.1
1037.3188	3095.3629	2480.65	1591.35
1037.4267	3096.3658	2474.5	1584.1
1037.5346	3097.3681	2460.95	1572
1037.6425	3098.3698	2451	1559.8
1037.7503	3099.3708	2445.8	1551.3
1037.858	3100.3713	2442.55	1552.5
1037.9657	3101.3711	2425.45	1535.7
1038.0734	3102.3702	2544.8	1519.3
1038.181	3103.3688	2434.6	1543.6
1038.2886	3104.3667	2396.7	1508.75
1038.3961	3105.364	2382.95	1493.35
1038.5036	3106.3607	2375.15	1484.9
1038.611	3107.3568	2367.35	1476.15
1038.7184	3108.3522	2356.25	1468.1
1038.8257	3109.347	2351.8	1462.6
1038.933	3110.3412	2345.2	1451.6
1039.0403	3111.3348	2330.5	1440.55
1039.1475	3112.3277	2319.25	1432.05
1039.2547	3113.32	2317.35	1429.25
1039.3618	3114.3117	2316.55	1427.2
1039.4689	3115.3028	2294.95	1407.15
1039.5759	3116.2932	2297.1	1407.2
1039.6829	3117.2831	2292.2	1397.8
1039.7898	3118.2723	2278	1388.4
1039.8967	3119.2608	2268.1	1380.15
1040.0035	3120.2488	2262.25	1372.45
1040.1103	3121.2361	2248.65	1359.25
1040.2171	3122.2229	2250.8	1361.5
1040.3238	3123.209	2239.65	1348.8
1040.4305	3124.1944	2228.45	1340.25
1040.5371	3125.1793	2229.4	1339.5
1040.6437	3126.1635	2224.85	1336.15
1040.7502	3127.1471	2211.95	1324.15
1040.8567	3128.1301	2193.25	1305.45
1040.9631	3129.1125	2191.15	1301.25
1041.0695	3130.0942	2198.55	1312.5
1041.1759	3131.0753	2195	1296.35
1041.2822	3132.0558	2172.1	1281.3
1041.3884	3133.0357	2174.95	1284.85
1041.4946	3134.015	2163.05	1273.5
1041.6008	3134.9936	2164.25	1273.3
1041.7069	3135.9716	2177	1268.8
1041.813	3136.949	2144.2	1255.2
1041.919	3137.9258	2154.25	1259.15
1042.025	3138.902	2147.85	1253.45
1042.1309	3139.8775	2138.65	1252.15
1042.2368	3140.8524	2122.1	1234.5
1042.3427	3141.8267	2127.25	1237
1042.4485	3142.8004	2122.3	1232.45
1042.5542	3143.7735	2121.25	1227.35
1042.6599	3144.7459	2109.35	1218.9
1042.7656	3145.7178	2102.25	1212.15
1042.8712	3146.689	2088.8	1201
1042.9768	3147.6596	2088.6	1199.35
1043.0823	3148.6295	2076.55	1187.85
1043.1878	3149.5989	2072.05	1183.15
1043.2932	3150.5676	2066.65	1178.9
1043.3986	3151.5357	2066.4	1180.15
1043.5039	3152.5032	2056.2	1167.8
1043.6092	3153.4701	2059.4	1171.7
1043.7145	3154.4364	2048.15	1159.1
1043.8197	3155.402	2036.15	1149.9
1043.9248	3156.367	2036.5	1147.05
1044.03	3157.3315	2054.7	1121.55
1044.135	3158.2952	2026	1136.4
1044.24	3159.2584	2012.4	1124.65
1044.345	3160.221	1998.7	1110
1044.4499	3161.1829	1993.9	1105.15
1044.5548	3162.1442	1977.25	1088.15
1044.6596	3163.105	1986.65	1098.9
1044.7644	3164.065	1967.15	1078.7
1044.8692	3165.0245	1971.05	1078.45
1044.9739	3165.9834	1956.95	1069.95
1045.0785	3166.9416	1958.65	1069.65
1045.1831	3167.8993	1946.3	1057.75
1045.2877	3168.8563	1949.35	1061.05
1045.3922	3169.8127	1935.7	1047.15
1045.4966	3170.7684	1929.7	1042.25
1045.6011	3171.7236	1929.1	1038.5
1045.7054	3172.6782	1929.6	1040.15
1045.8098	3173.6321	1918.6	1028.5
1045.914	3174.5854	1908.45	1013.6
1046.0183	3175.5381	1901.95	1013.55
1046.1224	3176.4902	1902.4	1013.8
1046.2266	3177.4417	1891.35	1004.9
1046.3307	3178.3926	1890.4	1002.55
1046.4347	3179.3428	1886.15	998.75
1046.5387	3180.2924	1887.9	999.45
1046.6427	3181.2415	1868.65	980.1
1046.7466	3182.1899	1865.3	972.15
1046.8504	3183.1377	1856.3	967.9
1046.9542	3184.0848	1858.4	967.8
1047.058	3185.0314	1845.45	956.65
1047.1617	3185.9773	1846.7	959.45
1047.2654	3186.9227	1840.6	949.8
1047.369	3187.8674	1835.9	947.6
1047.4726	3188.8115	1835.3	943.3
1047.5761	3189.755	1827.85	939.85
1047.6796	3190.6979	1815.6	927.5
1047.783	3191.6402	1814.65	926.55
1047.8864	3192.5818	1819.1	929.6
1047.9898	3193.5229	1818.5	907.6
1048.0931	3194.4633	1802.2	912.9
1048.1963	3195.4031	1789.85	899.35
1048.2995	3196.3423	1792.7	904.25
1048.4027	3197.2809	1791.95	904.35
1048.5058	3198.2189	1782	894.35
1048.6089	3199.1563	1786.95	891.65
1048.7119	3200.0931	1767.6	880.9
1048.8148	3201.0292	1766.05	878.6
1048.9178	3201.9648	1762.2	873.7
1049.0206	3202.8997	1766.4	873.9
1049.1235	3203.834	1760.85	873.05
1049.2262	3204.7677	1751.2	862.45
1049.329	3205.7008	1745.1	856
1049.4317	3206.6333	1728.35	841
1049.5343	3207.5652	1742.8	852.3
1049.6369	3208.4964	1734.75	845.75
1049.7394	3209.4271	1734.1	845.05
1049.8419	3210.3571	1721.1	832.85
1049.9444	3211.2865	1717.2	827.7
1050.0468	3212.2154	1721.3	832.35
1050.1491	3213.1436	1712.25	819.9
1050.2514	3214.0712	1720.2	825.05
1050.3537	3214.9982	1711.9	822.75
1050.4559	3215.9246	1701.15	813.5
1050.5581	3216.8503	1700.15	812.25
1050.6602	3217.7755	1689.75	801.25
1050.7623	3218.7001	1694.65	807.55
1050.8643	3219.624	1678.45	789.95
1050.9663	3220.5473	1681.6	792.2
1051.0682	3221.4701	1686.3	796.2
1051.1701	3222.3922	1672.8	782.45
1051.2719	3223.3137	1670.85	783.85
1051.3737	3224.2346	1665.25	777.45
1051.4754	3225.1549	1657.2	769.2
1051.5771	3226.0746	1653.95	764.9
1051.6788	3226.9937	1647	758.85
1051.7804	3227.9121	1639.55	750.55
1051.8819	3228.83	1635.85	749.25
1051.9834	3229.7473	1646.5	759
1052.0849	3230.6639	1632.9	744.1
1052.1863	3231.5799	1633.4	745.25
1052.2876	3232.4954	1624.75	735.15
1052.3889	3233.4102	1621.95	734.45
1052.4902	3234.3244	1617.35	729.7
1052.5914	3235.238	1611.15	724.9
1052.6926	3236.151	1630.95	718.2
1052.7937	3237.0634	1600.35	713.15
1052.8948	3237.9752	1602.95	716
1052.9958	3238.8864	1598	710.55
1053.0968	3239.797	1595.4	707.4
1053.1977	3240.7069	1591.65	702.45
1053.2986	3241.6163	1576.3	686.25
1053.3994	3242.5251	1567.9	682.2
1053.5002	3243.4332	1577.35	690.3
1053.6009	3244.3408	1575.05	686.45
1053.7016	3245.2477	1566	678.05
1053.8022	3246.154	1563.45	675.5
1053.9028	3247.0598	1563.8	673.65
1054.0034	3247.9649	1552.55	663.45
1054.1039	3248.8694	1547.6	656.95
1054.2043	3249.7733	1545.15	656.05
1054.3047	3250.6766	1540.3	651.55
1054.4051	3251.5793	1533.05	644.35
1054.5054	3252.4814	1532.35	646.25
1054.6056	3253.3829	1535	646.75
1054.7058	3254.2838	1519.85	632.55
1054.806	3255.1841	1522.45	632.75
1054.9061	3256.0838	1514.45	626.85
1055.0061	3256.9829	1513.9	625.4
1055.1062	3257.8814	1517.6	624.55
1055.2061	3258.7792	1504.35	614.45
1055.306	3259.6765	1502.5	613.15
1055.4059	3260.5731	1488.8	602.9
1055.5057	3261.4692	1479.4	590.45
1055.6055	3262.3647	1470.5	581.75
1055.7052	3263.2595	1460.5	570.75
1055.8049	3264.1538	1457.6	569.75
1055.9045	3265.0474	1450.85	562.3
1056.0041	3265.9404	1434.5	545.5
1056.1036	3266.8329	1435.65	548.1
1056.2031	3267.7247	1429.85	531.25
1056.3025	3268.616	1418.35	531.3
1056.4019	3269.5066	1396.65	509.4
1056.5013	3270.3966	1389.65	501
1056.6005	3271.286	1369.95	483.65
