Software Version:	3.9.2.0
Unit SN:	10000200
Spectrometer SN:	6960
Date:	3/6/2024 11:04:18 AM
Data Line Index:	25
Spectral Points:	2048
Integration time (ms):	125
Averages:	20
Delay (ms):	30
Sequence Number:	1
Processing:	dark subtract
Laser Power (mW):	305
Laser Current (mA):	822
Laser Diode Temp (C):	25.1
Laser Case Temp (C):	28.3
System Temp (C):	28.2
Spectrometer Temp (C):	25.6
CCD Temp (C):	0.009
Secondary Temp (C):	20.01
Heatsink Temp (C):	24.047
CCDPCB Temp (C):	37.352
SecondaryPCB Temp (C):	34.651

Wavelength	RamanShift	Raw Counts	Dark Subtracted
787.061	30.1047	1043.15	632.3
787.2016	32.3739	1073.15	664.95
787.3422	34.6426	1106.8	696.2
787.4828	36.9109	1162.35	748.2
787.6235	39.1787	1204.25	788.1
787.7642	41.4461	1259.55	837.2
787.9049	43.7131	1315.2	889.85
788.0456	45.9796	1373.45	943.45
788.1863	48.2456	1432.9	998.15
788.3271	50.5112	1494.3	1057.55
788.4679	52.7764	1555.45	1115.45
788.6087	55.0411	1640.85	1196.6
788.7496	57.3054	1704.75	1253.05
788.8904	59.5692	1779.45	1326.5
789.0313	61.8326	1879.85	1422.05
789.1722	64.0955	1975.1	1513.45
789.3132	66.3579	2084.2	1618.6
789.4541	68.6199	2219.75	1751.15
789.5951	70.8815	2438.65	1968.8
789.7361	73.1426	2898.7	2423.3
789.8771	75.4032	4033.8	3551.75
790.0181	77.6634	6901.5	6415.85
790.1592	79.9231	14257.75	13768.5
790.3003	82.1824	44752.7	44256.4
790.4414	84.4412	65535	65022.65
790.5825	86.6995	65535	65003.4
790.7237	88.9574	65535	64985
790.8648	91.2148	65535	64976.85
791.006	93.4717	65535	64963.25
791.1472	95.7282	65535	64957.95
791.2885	97.9842	65535	64958.65
791.4297	100.2398	65535	64955.75
791.571	102.4949	65535	64949.6
791.7123	104.7495	65535	64946.65
791.8536	107.0036	65535	64945.35
791.9949	109.2573	65535	64946.25
792.1363	111.5105	65535	64943.55
792.2777	113.7632	65535	64945.1
792.4191	116.0154	65535	64931.9
792.5605	118.2672	65535	64938.7
792.7019	120.5185	65535	64935.95
792.8434	122.7693	65535	64935.65
792.9849	125.0197	65535	64934.7
793.1264	127.2696	65535	64930.75
793.2679	129.519	65535	64926.6
793.4094	131.7679	65535	64922.6
793.551	134.0163	65535	64917.9
793.6926	136.2642	65535	64913.95
793.8342	138.5117	65535	64904.35
793.9758	140.7587	65535	64913.6
794.1175	143.0052	65535	64910.25
794.2591	145.2512	65535	64909.4
794.4008	147.4967	65535	64909.65
794.5425	149.7417	65535	64902.45
794.6842	151.9863	65535	64900.95
794.826	154.2304	65535	64899
794.9677	156.4739	65535	64892.25
795.1095	158.717	65535	64896.55
795.2513	160.9596	65535	64889.6
795.3931	163.2017	65535	64883.85
795.535	165.4433	65535	64883.4
795.6768	167.6844	65535	64884.2
795.8187	169.925	65535	64880.7
795.9606	172.1651	65535	64880.75
796.1025	174.4047	65535	64870.2
796.2445	176.6439	65535	64872.75
796.3864	178.8825	65535	64865.85
796.5284	181.1206	65535	64865.35
796.6704	183.3582	65535	64861.35
796.8124	185.5954	65535	64860.25
796.9544	187.832	65535	64854.85
797.0965	190.0681	65535	64853.7
797.2386	192.3037	65535	64852.3
797.3806	194.5388	65535	64843.4
797.5228	196.7734	65535	64844.55
797.6649	199.0075	65535	64840.05
797.807	201.2411	65535	64838.7
797.9492	203.4742	65535	64838.55
798.0914	205.7068	65535	64840.05
798.2336	207.9389	65535	64836.1
798.3758	210.1704	65535	64829.75
798.518	212.4015	65535	64829.3
798.6603	214.632	65535	64833.45
798.8025	216.862	65535	64845.75
798.9448	219.0915	65535	64851.05
799.0871	221.3205	65535	64849.6
799.2294	223.549	65535	64852.95
799.3718	225.777	65535	64852.35
799.5141	228.0044	65535	64853.45
799.6565	230.2314	65535	64851.15
799.7989	232.4578	65535	64850
799.9413	234.6837	65535	64840.3
800.0837	236.909	65535	64838
800.2262	239.1339	65535	64814.2
800.3687	241.3582	65535	64829.75
800.5111	243.582	65535	64797.55
800.6536	245.8053	65535	64812.15
800.7961	248.0281	65535	64817.1
800.9387	250.2503	65535	64810.6
801.0812	252.472	65535	64806.05
801.2238	254.6932	65535	64805
801.3664	256.9139	65535	64801.5
801.509	259.134	65535	64802.7
801.6516	261.3536	65535	64802.25
801.7942	263.5727	65535	64795.9
801.9369	265.7912	65535	64801.45
802.0795	268.0092	65535	64803.1
802.2222	270.2267	65535	64793.7
802.3649	272.4436	65535	64793.5
802.5076	274.6601	65535	64788.45
802.6504	276.8759	65535	64793.8
802.7931	279.0913	65535	64793.5
802.9359	281.3061	65535	64790.1
803.0787	283.5204	65535	64787.75
803.2215	285.7341	65535	64784.95
803.3643	287.9473	65535	64771.5
803.5071	290.16	65535	64778.9
803.6499	292.3721	65535	64782.35
803.7928	294.5837	65535	64784.3
803.9357	296.7947	65535	64784.45
804.0786	299.0052	65535	64784.2
804.2215	301.2152	65535	64785.1
804.3644	303.4246	65535	64782.3
804.5074	305.6334	65535	64782.2
804.6503	307.8418	65535	64776.55
804.7933	310.0495	65535	64775.65
804.9363	312.2568	65535	64780.75
805.0793	314.4635	65535	64776.4
805.2223	316.6696	65535	64772.8
805.3653	318.8752	65535	64765.65
805.5084	321.0802	65535	64772.9
805.6514	323.2847	65535	64773.05
805.7945	325.4887	65535	64773.35
805.9376	327.692	65535	64773.35
806.0807	329.8949	65535	64770.75
806.2238	332.0972	65535	64767.7
806.367	334.2989	65535	64762.55
806.5101	336.5001	65535	64766
806.6533	338.7007	65535	64765.1
806.7965	340.9008	65535	64762.6
806.9397	343.1003	65535	64759.8
807.0829	345.2992	65535	64760.25
807.2261	347.4976	65535	64756.3
807.3693	349.6955	65535	64754.55
807.5126	351.8927	65535	64753.65
807.6559	354.0895	65535	64740.95
807.7991	356.2856	65535	64753.2
807.9424	358.4812	65535	64752.9
808.0857	360.6763	65535	64752.05
808.2291	362.8707	65535	64748.95
808.3724	365.0646	65535	64744.7
808.5158	367.258	65535	64745.25
808.6591	369.4508	65535	64742.2
808.8025	371.643	65535	64740.5
808.9459	373.8346	65535	64738.85
809.0893	376.0257	65535	64735.1
809.2327	378.2162	65535	64735.7
809.3762	380.4062	65535	64734.6
809.5196	382.5956	65535	64732.95
809.6631	384.7844	65535	64732.75
809.8066	386.9726	65535	64731
809.9501	389.1603	65535	64729.5
810.0936	391.3474	65535	64699.4
810.2371	393.5339	65535	64734.05
810.3806	395.7199	65535	64740.3
810.5241	397.9052	65535	64742.45
810.6677	400.09	65535	64740.75
810.8113	402.2743	65535	64743.2
810.9548	404.4579	65535	64744.1
811.0984	406.641	65535	64742.3
811.2421	408.8235	65535	64740.2
811.3857	411.0054	65535	64738.65
811.5293	413.1868	65535	64736.1
811.673	415.3675	65535	64733.85
811.8166	417.5477	65535	64733.4
811.9603	419.7273	65535	64729.35
812.104	421.9064	65535	64721.7
812.2477	424.0848	65535	64726.55
812.3914	426.2627	65535	64722.75
812.5351	428.4399	65535	64722.65
812.6788	430.6166	65535	64717.65
812.8226	432.7928	65535	64715.85
812.9663	434.9683	65535	64717.75
813.1101	437.1432	65535	64716.8
813.2539	439.3176	65535	64718.65
813.3977	441.4914	65535	64716.35
813.5415	443.6645	65535	64711.4
813.6853	445.8371	65535	64716.05
813.8291	448.0091	65535	64715.2
813.973	450.1806	65535	64717.1
814.1168	452.3514	65535	64712.4
814.2607	454.5216	65535	64705.7
814.4046	456.6913	65535	64711.55
814.5485	458.8603	65535	64712.1
814.6924	461.0288	65535	64712.55
814.8363	463.1967	65535	64714.25
814.9802	465.3639	65535	64712.4
815.1241	467.5306	65535	64706.45
815.2681	469.6967	65535	64710.7
815.412	471.8622	65535	64710.35
815.556	474.0271	65535	64710.9
815.7	476.1914	65535	64705.85
815.844	478.3551	65535	64706.75
815.988	480.5182	65535	64705.8
816.132	482.6807	65535	64702.85
816.276	484.8426	65535	64704.35
816.4201	487.0039	65535	64706.6
816.5641	489.1647	65535	64705.4
816.7082	491.3248	65535	64706.75
816.8522	493.4843	65535	64705.3
816.9963	495.6432	65535	64703.6
817.1404	497.8015	65535	64698.25
817.2845	499.9592	65535	64701.65
817.4286	502.1163	65535	64700.95
817.5727	504.2728	65535	64699
817.7168	506.4287	65535	64702.5
817.861	508.5839	65535	64703
818.0051	510.7386	65535	64701.75
818.1493	512.8927	65535	64693.9
818.2935	515.0461	65535	64698.55
818.4377	517.199	65535	64699.05
818.5818	519.3512	65535	64696.15
818.726	521.5029	65535	64694.1
818.8703	523.6539	65535	64694.85
819.0145	525.8043	65535	64694.95
819.1587	527.9541	65535	64691.1
819.303	530.1033	65535	64694.1
819.4472	532.2519	65535	64692.6
819.5915	534.3999	65535	64693.1
819.7357	536.5472	65535	64692.6
819.88	538.694	65535	64690.8
820.0243	540.8401	65535	64689.9
820.1686	542.9856	65535	64690.05
820.3129	545.1305	65535	64690
820.4572	547.2748	65535	64691.25
820.6016	549.4185	65535	64686.5
820.7459	551.5615	65535	64687.75
820.8902	553.704	65535	64687.25
821.0346	555.8458	65535	64687
821.1789	557.987	65535	64687.4
821.3233	560.1276	65535	64685.65
821.4677	562.2675	65535	64686.2
821.6121	564.4069	65535	64687.95
821.7565	566.5456	65535	64688.1
821.9009	568.6837	65535	64689
822.0453	570.8212	65535	64688.8
822.1897	572.958	65535	64685.7
822.3342	575.0942	65535	64687.1
822.4786	577.2299	65535	64689.45
822.6231	579.3648	65535	64689.3
822.7675	581.4992	65535	64687.8
822.912	583.6329	65535	64687.65
823.0565	585.766	65535	64689.4
823.201	587.8985	65535	64687.5
823.3454	590.0304	65535	64673.9
823.4899	592.1616	65535	64680.05
823.6345	594.2922	65535	64684.3
823.779	596.4222	65535	64682.65
823.9235	598.5515	65535	64681
824.068	600.6802	65535	64681.55
824.2126	602.8083	65535	64681
824.3571	604.9358	65535	64681.2
824.5017	607.0626	65535	64676.6
824.6462	609.1888	65535	64679.6
824.7908	611.3144	65535	64676.75
824.9354	613.4393	65535	64679.45
825.08	615.5636	65535	64678.45
825.2246	617.6873	65535	64677.95
825.3692	619.8103	65535	64679.45
825.5138	621.9327	65535	64673.85
825.6584	624.0544	65535	64679.4
825.803	626.1756	65535	64677.25
825.9477	628.2961	65535	64672.65
826.0923	630.4159	65535	64678.35
826.237	632.5351	65535	64675.9
826.3816	634.6537	65535	64674.8
826.5263	636.7716	65535	64673.3
826.6709	638.8889	65535	64673.5
826.8156	641.0056	65535	64675.75
826.9603	643.1216	65535	64675.65
827.105	645.237	65535	64672.7
827.2497	647.3518	65535	64670.6
827.3944	649.4659	65535	64675.15
827.5391	651.5793	65535	64673.75
827.6838	653.6922	65535	64677
827.8285	655.8043	65535	64674.05
827.9733	657.9159	65535	64672.7
828.118	660.0268	65535	64667.8
828.2627	662.137	65535	64670.8
828.4075	664.2466	65535	64670.55
828.5522	666.3556	65535	64671.6
828.697	668.4639	65535	64666.5
828.8418	670.5716	65535	64670.65
828.9865	672.6786	65535	64670
829.1313	674.785	65535	64667.15
829.2761	676.8907	65535	64671.1
829.4209	678.9958	65535	64672
829.5657	681.1002	65535	64666.45
829.7105	683.204	65535	64663.4
829.8553	685.3072	65535	64666.25
830.0001	687.4097	65535	64666.4
830.1449	689.5115	65535	64667.55
830.2898	691.6127	65535	64667.75
830.4346	693.7132	65535	64665.05
830.5794	695.8131	65535	64659.2
830.7243	697.9123	65535	64666.95
830.8691	700.0109	65535	64665.85
831.014	702.1089	65535	64665.55
831.1588	704.2061	65535	64667.75
831.3037	706.3028	65535	64662.3
831.4486	708.3987	65535	64663.55
831.5935	710.4941	65535	64662.45
831.7383	712.5887	65535	64662.55
831.8832	714.6827	65535	64663.1
832.0281	716.7761	65535	64664.6
832.173	718.8688	65535	64665.8
832.3179	720.9608	65535	64657.4
832.4628	723.0522	65535	64658.45
832.6077	725.1429	65535	64665.65
832.7527	727.233	65535	64661.95
832.8976	729.3224	65535	64659.7
833.0425	731.4112	65535	64661.55
833.1874	733.4993	65535	64657.6
833.3324	735.5867	65535	64660.95
833.4773	737.6735	65535	64658.75
833.6222	739.7596	65535	64658.3
833.7672	741.845	65535	64661.15
833.9122	743.9298	65535	64659.6
834.0571	746.014	65535	64662.75
834.2021	748.0974	65535	64658.7
834.347	750.1802	65535	64659.35
834.492	752.2624	65535	64659
834.637	754.3439	65535	64658.35
834.782	756.4247	65535	64651.5
834.9269	758.5048	65535	64660.2
835.0719	760.5843	65535	64659.8
835.2169	762.6631	65535	64657.7
835.3619	764.7413	65535	64662.4
835.5069	766.8188	65535	64658.65
835.6519	768.8956	65535	64659.3
835.7969	770.9718	65535	64658.1
835.9419	773.0473	65535	64662.4
836.0869	775.1221	65535	64658.75
836.232	777.1962	65535	64656.65
836.377	779.2697	65535	64655.85
836.522	781.3426	65535	64637.95
836.667	783.4147	65535	64657.2
836.8121	785.4862	65535	64656.75
836.9571	787.557	65535	64657.3
837.1021	789.6271	65535	64657.05
837.2472	791.6966	65535	64659.35
837.3922	793.7654	65535	64655
837.5373	795.8335	65535	64654.45
837.6823	797.901	65535	64657.25
837.8274	799.9678	65535	64655.75
837.9724	802.0339	65535	64658.3
838.1175	804.0993	65535	64646.85
838.2626	806.1641	65535	64655.1
838.4076	808.2282	65535	64653.8
838.5527	810.2916	65535	64652
838.6978	812.3544	65535	64659.75
838.8428	814.4164	65535	64655.45
838.9879	816.4778	65535	64653.85
839.133	818.5385	65535	64656.2
839.2781	820.5986	65535	64655.9
839.4232	822.658	65535	64652.25
839.5682	824.7166	65535	64656.95
839.7133	826.7747	65535	64656.2
839.8584	828.832	65535	64654.95
840.0035	830.8886	65535	64653.4
840.1486	832.9446	65535	64651.6
840.2937	834.9999	65535	64655.15
840.4388	837.0545	65535	64650.45
840.5839	839.1085	65535	64652.15
840.729	841.1618	65535	64647.75
840.8741	843.2143	65535	64654.1
841.0192	845.2662	65535	64653.9
841.1643	847.3175	65535	64655.75
841.3095	849.368	65535	64652.75
841.4546	851.4179	65535	64655.45
841.5997	853.467	65535	64653.75
841.7448	855.5155	65535	64651.05
841.8899	857.5633	65535	64652.15
842.0351	859.6105	65535	64650.05
842.1802	861.6569	65535	64652.65
842.3253	863.7027	65535	64653.8
842.4704	865.7478	65535	64651.45
842.6156	867.7922	65535	64651.3
842.7607	869.8359	65535	64651.2
842.9058	871.8789	65535	64649.4
843.0509	873.9212	65535	64618.8
843.1961	875.9629	65535	64651.65
843.3412	878.0039	65535	64651.75
843.4863	880.0441	65535	64651
843.6315	882.0837	65535	64652.5
843.7766	884.1226	65535	64649.2
843.9218	886.1609	65535	64650.95
844.0669	888.1984	65535	64651.9
844.212	890.2352	65535	64652.35
844.3572	892.2714	65535	64646.05
844.5023	894.3069	65535	64650.85
844.6475	896.3416	65535	64648.75
844.7926	898.3757	65535	64650.65
844.9377	900.4091	65535	64648.25
845.0829	902.4418	65535	64646.05
845.228	904.4739	65535	64650.35
845.3732	906.5052	65535	64647.95
845.5183	908.5358	65535	64649.5
845.6635	910.5658	65535	64645.9
845.8086	912.595	65535	64651.1
845.9538	914.6236	65535	64649.55
846.0989	916.6515	65535	64649.6
846.2441	918.6786	65535	64646.25
846.3892	920.7051	65535	64645.7
846.5344	922.7309	65535	64646.7
846.6795	924.756	65535	64646.4
846.8246	926.7804	65535	64645.75
846.9698	928.8041	65535	64644.95
847.1149	930.8272	65535	64649.95
847.2601	932.8495	65535	64645.3
847.4052	934.8711	65535	64648.1
847.5504	936.892	65535	64648.45
847.6955	938.9123	65535	64647.6
847.8407	940.9318	65535	64650.35
847.9858	942.9506	65535	64648.55
848.131	944.9688	65535	64648.85
848.2761	946.9862	65535	64645.05
848.4213	949.003	65535	64648.1
848.5664	951.019	65535	64648
848.7115	953.0344	65535	64647.15
848.8567	955.0491	65535	64649.05
849.0018	957.063	65535	64646.35
849.147	959.0763	65535	64649.8
849.2921	961.0888	65535	64646
849.4373	963.1007	65535	64648.1
849.5824	965.1119	65535	64648.9
849.7275	967.1223	65535	64645.55
849.8727	969.1321	65535	64646.4
850.0178	971.1412	65535	64649
850.1629	973.1495	65535	64645.4
850.3081	975.1572	65535	64609.1
850.4532	977.1641	65535	64646.45
850.5983	979.1704	65535	64647.85
850.7435	981.1759	65535	64647.15
850.8886	983.1808	65535	64644
851.0337	985.1849	65535	64635.6
851.1788	987.1884	65535	64642.9
851.324	989.1911	65535	64642.95
851.4691	991.1932	65535	64644.65
851.6142	993.1945	65535	64647.35
851.7593	995.1951	65535	64643.95
851.9045	997.1951	65535	64640.7
852.0496	999.1943	65535	64646.6
852.1947	1001.1928	65535	64647.25
852.3398	1003.1906	65535	64645.65
852.4849	1005.1877	65535	64642.45
852.63	1007.1841	65535	64645.5
852.7751	1009.1798	65535	64647.1
852.9202	1011.1748	65535	64646.5
853.0653	1013.1691	65535	64645.9
853.2104	1015.1627	65535	64646.55
853.3555	1017.1556	65535	64644.6
853.5006	1019.1477	65535	64644.9
853.6457	1021.1392	65535	64647.7
853.7908	1023.1299	65535	64646.1
853.9359	1025.12	65535	64645.05
854.081	1027.1093	65535	64650.85
854.2261	1029.0979	65535	64647.8
854.3712	1031.0859	65535	64648.3
854.5163	1033.0731	65535	64644.45
854.6613	1035.0596	65535	64644.45
854.8064	1037.0454	65535	64645.3
854.9515	1039.0304	65535	64643.7
855.0965	1041.0148	65535	64644.5
855.2416	1042.9985	65535	64644.2
855.3867	1044.9814	65535	64647.3
855.5317	1046.9636	65535	64642.95
855.6768	1048.9452	65535	64647.65
855.8219	1050.926	65535	64646.85
855.9669	1052.9061	65535	64645.2
856.112	1054.8855	65535	64646.2
856.257	1056.8642	65535	64647.05
856.4021	1058.8421	65535	64639.3
856.5471	1060.8194	65535	64645.65
856.6921	1062.7959	65535	64645.1
856.8372	1064.7717	65535	64643.2
856.9822	1066.7469	65535	64644.95
857.1272	1068.7213	65535	64641.55
857.2723	1070.695	65535	64643.25
857.4173	1072.6679	65535	64644.35
857.5623	1074.6402	65535	64644.05
857.7073	1076.6117	65535	64638.95
857.8523	1078.5826	65535	64642.5
857.9973	1080.5527	65535	64642.3
858.1423	1082.5221	65535	64641.65
858.2873	1084.4908	65535	64646
858.4323	1086.4587	65535	64643.7
858.5773	1088.426	65535	64642.55
858.7223	1090.3925	65535	64641
858.8673	1092.3584	65535	64643.2
859.0123	1094.3235	65535	64646
859.1573	1096.2879	65535	64642.75
859.3022	1098.2515	65535	64642.6
859.4472	1100.2145	65535	64645.45
859.5922	1102.1767	65535	64638.95
859.7371	1104.1382	65535	64643.3
859.8821	1106.099	65535	64641.3
860.027	1108.0591	65535	64644.7
860.172	1110.0185	65535	64644.55
860.3169	1111.9771	65535	64644.45
860.4619	1113.9351	65535	64642.4
860.6068	1115.8923	65535	64644.05
860.7517	1117.8488	65535	64641.3
860.8967	1119.8045	65535	64645.1
861.0416	1121.7596	65535	64642.85
861.1865	1123.7139	65535	64642.3
861.3314	1125.6675	65535	64643.85
861.4763	1127.6204	65535	64643.65
861.6212	1129.5726	65535	64641.7
861.7661	1131.524	65535	64643.3
861.911	1133.4748	65535	64642.7
862.0559	1135.4248	65535	64641.4
862.2008	1137.3741	65535	64641.85
862.3457	1139.3226	65535	64640.1
862.4905	1141.2705	65535	64645.45
862.6354	1143.2176	65535	64636.8
862.7803	1145.164	65535	64642.2
862.9251	1147.1097	65535	64644
863.07	1149.0546	65535	64641.5
863.2148	1150.9989	65535	64641.55
863.3597	1152.9424	65535	64643.7
863.5045	1154.8852	65535	64640.75
863.6493	1156.8272	65535	64642.55
863.7942	1158.7686	65535	64636.8
863.939	1160.7092	65535	64640.85
864.0838	1162.6491	65535	64641.1
864.2286	1164.5883	65535	64643.9
864.3734	1166.5267	65535	64643.25
864.5182	1168.4644	65535	64640.8
864.663	1170.4014	65535	64636.45
864.8078	1172.3377	65535	64643.4
864.9526	1174.2732	65535	64644.1
865.0974	1176.2081	65535	64642.55
865.2421	1178.1421	65535	64640.15
865.3869	1180.0755	65535	64643.25
865.5317	1182.0082	65535	64642.9
865.6764	1183.9401	65535	64642
865.8212	1185.8713	65535	64643.9
865.9659	1187.8017	65535	64642.6
866.1106	1189.7315	65535	64643.5
866.2554	1191.6605	65535	64616.4
866.4001	1193.5888	65535	64641.35
866.5448	1195.5163	65535	64642.9
866.6895	1197.4432	65535	64642.75
866.8342	1199.3693	65535	64644.75
866.9789	1201.2947	65535	64641.25
867.1236	1203.2193	65535	64640.75
867.2683	1205.1432	65535	64640.95
867.413	1207.0664	65535	64641.45
867.5576	1208.9889	65535	64640.6
867.7023	1210.9106	65535	64643.55
867.847	1212.8316	65535	64644.1
867.9916	1214.7519	65535	64635.65
868.1363	1216.6715	65535	64641.7
868.2809	1218.5903	65535	64642.45
868.4255	1220.5084	65535	64641.9
868.5701	1222.4257	65535	64640.55
868.7148	1224.3424	65535	64642.35
868.8594	1226.2583	65535	64638.85
869.004	1228.1735	65535	64641.95
869.1486	1230.0879	65535	64641.45
869.2932	1232.0016	65535	64642.6
869.4377	1233.9146	65535	64640.2
869.5823	1235.8269	65535	64642.8
869.7269	1237.7384	65535	64641.15
869.8715	1239.6492	65535	64643.3
870.016	1241.5592	65535	64641.05
870.1606	1243.4686	65535	64643.9
870.3051	1245.3772	65535	64642.9
870.4496	1247.285	65535	64640.4
870.5941	1249.1922	65535	64641.3
870.7387	1251.0986	65535	64642.3
870.8832	1253.0042	65535	64641.85
871.0277	1254.9092	65535	64641.75
871.1722	1256.8134	65535	64643.4
871.3167	1258.7169	65535	64641.75
871.4611	1260.6196	65535	64643.45
871.6056	1262.5216	65535	64640.25
871.7501	1264.4229	65535	64642.85
871.8945	1266.3234	65535	64644.25
872.039	1268.2232	65535	64640.6
872.1834	1270.1223	65535	64640.45
872.3278	1272.0207	65535	64641.55
872.4723	1273.9183	65535	64635
872.6167	1275.8151	65535	64641.2
872.7611	1277.7113	65535	64640.3
872.9055	1279.6067	65535	64642.8
873.0499	1281.5014	65535	64640.2
873.1943	1283.3953	65535	64641.05
873.3386	1285.2885	65535	64642.2
873.483	1287.181	65535	64640.2
873.6274	1289.0727	65535	64641.6
873.7717	1290.9637	65535	64640.6
873.9161	1292.854	65535	64641.75
874.0604	1294.7435	65535	64640.7
874.2047	1296.6323	65535	64640.55
874.349	1298.5204	65535	64639.65
874.4933	1300.4077	65535	64640.8
874.6376	1302.2943	65535	64643.35
874.7819	1304.1802	65535	64643.9
874.9262	1306.0653	65535	64639.6
875.0705	1307.9497	65535	64642.2
875.2147	1309.8333	65535	64642.75
875.359	1311.7162	65535	64642.05
875.5032	1313.5984	65535	64639.95
875.6475	1315.4798	65535	64627.55
875.7917	1317.3605	65535	64625.05
875.9359	1319.2405	65535	64639.5
876.0801	1321.1197	65535	64640.95
876.2243	1322.9982	65535	64637.7
876.3685	1324.876	65535	64642.25
876.5127	1326.753	65535	64643
876.6569	1328.6293	65535	64642.15
876.801	1330.5048	65535	64638.95
876.9452	1332.3796	65535	64640.4
877.0893	1334.2537	65535	64614.95
877.2335	1336.127	65535	64640.2
877.3776	1337.9996	65535	64639.9
877.5217	1339.8714	65535	64641.35
877.6658	1341.7426	65535	64595.3
877.8099	1343.6129	65535	64641.15
877.954	1345.4826	65535	64640.95
878.0981	1347.3515	65535	64639
878.2422	1349.2196	65535	64639.45
878.3862	1351.087	65535	64641.45
878.5303	1352.9537	65535	64640.85
878.6743	1354.8197	65535	64640.1
878.8184	1356.6849	65535	64639.95
878.9624	1358.5493	65535	64640.4
879.1064	1360.4131	65535	64641.55
879.2504	1362.276	65535	64641.6
879.3944	1364.1383	65535	64640.65
879.5384	1365.9998	65535	64635.5
879.6823	1367.8606	65535	64639.35
879.8263	1369.7206	65535	64641.85
879.9702	1371.5799	65535	64640.1
880.1142	1373.4384	65535	64641.3
880.2581	1375.2962	65535	64640.05
880.402	1377.1533	65535	64640.8
880.5459	1379.0096	65535	64640.25
880.6898	1380.8652	65535	64640.9
880.8337	1382.7201	65535	64642.3
880.9776	1384.5742	65535	64641.3
881.1215	1386.4275	65535	64638.85
881.2653	1388.2802	65535	64642.55
881.4092	1390.132	65535	64640.25
881.553	1391.9832	65535	64640.75
881.6968	1393.8336	65535	64638.75
881.8406	1395.6832	65535	64638.5
881.9844	1397.5322	65535	64641.3
882.1282	1399.3803	65535	64635.25
882.272	1401.2278	65535	64641.9
882.4158	1403.0745	65535	64639.5
882.5595	1404.9204	65535	64641.55
882.7033	1406.7656	65535	64641.7
882.847	1408.6101	65535	64642.4
882.9908	1410.4538	65535	64639.6
883.1345	1412.2968	65535	64640.75
883.2782	1414.139	65535	64641.8
883.4219	1415.9805	65535	64640.6
883.5656	1417.8213	65535	64635.1
883.7092	1419.6613	65535	64639.7
883.8529	1421.5006	65535	64638.65
883.9965	1423.3391	65535	64637.95
884.1402	1425.1769	65535	64638.5
884.2838	1427.0139	65535	64638.9
884.4274	1428.8502	65535	64640.5
884.571	1430.6858	65535	64641.9
884.7146	1432.5206	65535	64641.35
884.8582	1434.3547	65535	64640.5
885.0018	1436.188	65535	64641.4
885.1453	1438.0206	65535	64642.65
885.2889	1439.8524	65535	64642.45
885.4324	1441.6835	65535	64639.7
885.5759	1443.5139	65535	64636.1
885.7194	1445.3435	65535	64640.9
885.8629	1447.1724	65535	64641.5
886.0064	1449.0005	65535	64642.6
886.1499	1450.8279	65535	64641.1
886.2933	1452.6545	65535	64639.55
886.4368	1454.4804	65535	64641.3
886.5802	1456.3056	65535	64634.25
886.7237	1458.13	65535	64640.4
886.8671	1459.9536	65535	64638.75
887.0105	1461.7766	65535	64639.75
887.1539	1463.5987	65535	64638.45
887.2972	1465.4202	65535	64639.6
887.4406	1467.2409	65535	64640.3
887.584	1469.0608	65535	64642.6
887.7273	1470.88	65535	64641.35
887.8706	1472.6984	65535	64641.15
888.0139	1474.5161	65526.4	64629.5
888.1572	1476.3331	65533.85	64638.55
888.3005	1478.1493	65522.1	64626.15
888.4438	1479.9648	65496.7	64602.2
888.5871	1481.7795	65517.4	64623.85
888.7303	1483.5935	65521.95	64629.55
888.8736	1485.4067	65474.3	64581.3
889.0168	1487.2192	65505.05	64611.75
889.16	1489.031	65438	64540.25
889.3032	1490.842	65481.25	64588.65
889.4464	1492.6522	65488.6	64594.1
889.5896	1494.4618	65432.2	64537.55
889.7327	1496.2705	65477.8	64583.2
889.8759	1498.0785	65266.15	64372.8
890.019	1499.8858	65409.95	64513.85
890.1622	1501.6924	65478.7	64584.3
890.3053	1503.4981	65299.65	64406.25
890.4484	1505.3032	65387.5	64493.2
890.5914	1507.1075	65257.6	64364.05
890.7345	1508.911	65256.5	64361.3
890.8776	1510.7138	65213.2	64318.15
891.0206	1512.5159	65287.7	64392.75
891.1637	1514.3172	64816.25	63922.4
891.3067	1516.1178	65002	64111.35
891.4497	1517.9176	65163.2	64266.25
891.5927	1519.7166	64956.1	64063
891.7357	1521.515	64842.15	63942
891.8786	1523.3126	64421.4	63526.9
892.0216	1525.1094	64886	63989.6
892.1645	1526.9055	64572.4	63678.95
892.3074	1528.7008	64627.3	63732.85
892.4503	1530.4954	64051.6	63152.15
892.5932	1532.2893	64572.5	63681.35
892.7361	1534.0824	63875.85	62977.65
892.879	1535.8747	63397.1	62503.05
893.0218	1537.6663	64576.15	63680.65
893.1647	1539.4572	62542.25	61646.7
893.3075	1541.2473	63372	62477.4
893.4503	1543.0367	63108.8	62214.55
893.5931	1544.8253	62878.25	61981.15
893.7359	1546.6132	63142.75	62243.75
893.8787	1548.4003	62573.55	61669.1
894.0214	1550.1867	62372.75	61470.2
894.1642	1551.9723	62131	61233.3
894.3069	1553.7572	62185.15	61290.65
894.4496	1555.5414	62563.15	61668.9
894.5923	1557.3247	60895.35	60001.15
894.735	1559.1074	62100.75	61208.1
894.8777	1560.8893	61426.55	60533.55
895.0204	1562.6705	61743.15	60850.3
895.163	1564.4509	60759.05	59865.4
895.3056	1566.2305	61147.6	60256.05
895.4482	1568.0094	61838	60946
895.5908	1569.7876	61275.05	60380.85
895.7334	1571.565	60629.3	59737
895.876	1573.3417	61036.65	60143.35
896.0186	1575.1176	60785.25	59891.65
896.1611	1576.8928	60454	59559.1
896.3036	1578.6672	59884.45	58991.8
896.4461	1580.4409	60030.2	59136.85
896.5886	1582.2138	59318.05	58422.55
896.7311	1583.986	59491.55	58599.25
896.8736	1585.7575	58768.95	57877.4
897.0161	1587.5282	58791.75	57900.65
897.1585	1589.2981	58830.7	57937.75
897.3009	1591.0673	58189.55	57294.3
897.4433	1592.8358	57931.75	57038.8
897.5857	1594.6035	58233.95	57337.65
897.7281	1596.3704	58171.3	57278.15
897.8705	1598.1366	57420.15	56528.2
898.0128	1599.9021	57012.05	56122.2
898.1551	1601.6668	57417.15	56521.65
898.2975	1603.4308	57132.5	56239.75
898.4398	1605.194	57435.4	56538
898.5821	1606.9564	56375.35	55482.65
898.7243	1608.7182	56847.95	55951.8
898.8666	1610.4791	56463.55	55569.35
899.0088	1612.2394	56726.7	55833.55
899.1511	1613.9988	56392	55497.4
899.2933	1615.7576	56917.05	56023
899.4355	1617.5156	56915.15	56017.1
899.5776	1619.2728	57501.55	56609.95
899.7198	1621.0293	56698.7	55805.45
899.862	1622.785	56683.6	55789.75
900.0041	1624.54	56859.65	55963.65
900.1462	1626.2942	56382.65	55487.25
900.2883	1628.0477	55465.3	54567.05
900.4304	1629.8005	55039.05	54141.8
900.5725	1631.5525	55136.85	54242.05
900.7145	1633.3037	54366.7	53473.5
900.8566	1635.0542	54260.75	53368.45
900.9986	1636.804	54177.25	53285.65
901.1406	1638.553	53742.1	52733.55
901.2826	1640.3013	53523.3	52630.75
901.4245	1642.0488	53165.65	52270.85
901.5665	1643.7955	53255.5	52364.2
901.7085	1645.5416	52962.55	52069.8
901.8504	1647.2868	52844.55	51953.3
901.9923	1649.0313	53044.25	52151.3
902.1342	1650.7751	52884.65	51988.35
902.2761	1652.5181	52719.75	51828.3
902.4179	1654.2604	52733	51839.85
902.5598	1656.0019	53146	52254.25
902.7016	1657.7427	53079.15	52187.25
902.8434	1659.4828	53457.05	52565.95
902.9852	1661.222	53425.15	52531.85
903.127	1662.9606	53377.7	52485.95
903.2687	1664.6984	53076	52185.2
903.4105	1666.4354	52796.05	51903.6
903.5522	1668.1717	51971.45	51078.85
903.6939	1669.9072	51359.25	50467.6
903.8356	1671.642	50931.5	50037.2
903.9773	1673.3761	50602.4	49712.2
904.119	1675.1094	50230.4	49336.1
904.2606	1676.8419	49836.45	48944.15
904.4022	1678.5737	49529.9	48637.4
904.5439	1680.3048	49290.1	48396.9
904.6855	1682.0351	49009	48116.95
904.827	1683.7646	48727.25	47833.35
904.9686	1685.4934	48546.2	47655.6
905.1101	1687.2215	48122.8	47230.65
905.2517	1688.9488	48060.15	47166.25
905.3932	1690.6754	47619.95	46729.15
905.5347	1692.4012	47627.35	46736.5
905.6761	1694.1263	47420	46527.75
905.8176	1695.8506	47295.85	46404.7
905.9591	1697.5742	47052	46160.1
906.1005	1699.297	46888.9	45995.35
906.2419	1701.0191	46665	45772.2
906.3833	1702.7404	46425.15	45533.35
906.5246	1704.461	46160.75	45266.8
906.666	1706.1808	46032.7	45139.05
906.8073	1707.8999	45888.15	44997.1
906.9487	1709.6182	45668.15	44777.3
907.09	1711.3358	45601.55	44712.05
907.2313	1713.0527	45476.25	44587.55
907.3725	1714.7688	45250	44352
907.5138	1716.4841	44971.05	44075.15
907.655	1718.1987	44919.8	44023.5
907.7962	1719.9126	44740.7	43850.55
907.9374	1721.6257	44588.65	43694.75
908.0786	1723.338	44530.75	43638.3
908.2198	1725.0496	44193.1	43299.5
908.3609	1726.7605	44162.55	43271.75
908.502	1728.4706	43969.2	43075.7
908.6431	1730.18	43666.35	42771.5
908.7842	1731.8886	43567.3	42676
908.9253	1733.5964	43509.9	42598.15
909.0664	1735.3036	43320.25	42426.75
909.2074	1737.0099	43252.75	42362.1
909.3484	1738.7156	43106	42217.55
909.4894	1740.4204	42871.5	41976.2
909.6304	1742.1246	42769.8	41877.1
909.7714	1743.8279	42642.45	41751.95
909.9123	1745.5306	42542.1	41650
910.0532	1747.2325	42402.7	41510.75
910.1941	1748.9336	42209.45	41318.35
910.335	1750.634	42002.25	41110.65
910.4759	1752.3336	41933.75	41042.4
910.6168	1754.0325	41868.15	40977.65
910.7576	1755.7307	41723.8	40833.2
910.8984	1757.4281	41691.85	40801.45
911.0392	1759.1247	41573.6	40675.1
911.18	1760.8206	41468.25	40571.2
911.3208	1762.5158	41404.15	40508.95
911.4615	1764.2102	41146.2	40255.8
911.6022	1765.9039	41022.9	40132.6
911.7429	1767.5968	40954.9	40064.65
911.8836	1769.289	40795.7	39904.2
912.0243	1770.9804	40747.7	39853.85
912.1649	1772.6711	40613.9	39723.1
912.3056	1774.361	40449.7	39555.3
912.4462	1776.0502	40336.25	39443.5
912.5868	1777.7386	40284	39391.3
912.7274	1779.4263	40107.2	39217.3
912.8679	1781.1132	40114.25	39223.8
913.0084	1782.7994	39922.4	39030.2
913.149	1784.4849	39811	38919.45
913.2895	1786.1696	39703.05	38804.65
913.4299	1787.8535	39549.8	38657.1
913.5704	1789.5367	39416.6	38526.8
913.7108	1791.2192	39353.15	38460.95
913.8513	1792.9009	39159.2	38237.55
913.9917	1794.5818	39084.7	38192.25
914.132	1796.2621	39017.35	38126.6
914.2724	1797.9415	38881.5	37988.75
914.4128	1799.6202	38709.7	37818.6
914.5531	1801.2982	38652.7	37762.1
914.6934	1802.9755	38558.5	37665.85
914.8337	1804.6519	38456.85	37567.55
914.9739	1806.3277	38219.7	37328.4
915.1142	1808.0027	38072.2	37180.8
915.2544	1809.6769	38024.05	37132.6
915.3946	1811.3504	37935.15	37043.1
915.5348	1813.0231	37828.25	36937.25
915.675	1814.6951	37760.1	36870.1
915.8151	1816.3664	37805.2	36913.2
915.9553	1818.0369	37582.95	36692.45
916.0954	1819.7067	37462.85	36572.45
916.2355	1821.3757	37419.8	36526.65
916.3755	1823.044	37323.85	36433.6
916.5156	1824.7115	37201.15	36309.6
916.6556	1826.3783	37029.8	36138.35
916.7956	1828.0443	36898.9	36008.5
916.9356	1829.7096	36807.05	35914.25
917.0756	1831.3741	36745.45	35852.8
917.2155	1833.0379	36622.4	35732.4
917.3555	1834.701	36485.55	35592.1
917.4954	1836.3633	36429.2	35537.8
917.6353	1838.0248	36331.65	35440.2
917.7751	1839.6856	36213.8	35322.3
917.915	1841.3457	36198.5	35309
918.0548	1843.005	36049.4	35158.7
918.1946	1844.6636	36002.75	35111.8
918.3344	1846.3214	35846	34953.95
918.4742	1847.9785	35840.05	34949.65
918.6139	1849.6349	35690.95	34797.35
918.7537	1851.2904	35632.55	34733.3
918.8934	1852.9453	35513.65	34620.7
919.0331	1854.5994	35358.1	34466.7
919.1727	1856.2528	35413.85	34519
919.3124	1857.9054	35257.5	34367.2
919.452	1859.5572	35184.1	34294.95
919.5916	1861.2083	35045.65	34152
919.7312	1862.8587	35073.65	34182.25
919.8708	1864.5084	34983.7	34091.15
920.0103	1866.1572	34840.75	33951.35
920.1498	1867.8054	34662.5	33769.75
920.2893	1869.4528	34578	33687.75
920.4288	1871.0994	34472.7	33581.75
920.5683	1872.7453	34402.45	33510.8
920.7077	1874.3905	34329.95	33433.05
920.8471	1876.0349	34178.75	33286.25
920.9865	1877.6786	34148.3	33253.65
921.1259	1879.3215	34146.55	33257.1
921.2653	1880.9637	34022	33129.3
921.4046	1882.6051	33937.05	33046.65
921.5439	1884.2458	33820.9	32928.75
921.6832	1885.8858	33665.1	32774.7
921.8225	1887.525	33586.25	32694.85
921.9617	1889.1634	33431.6	32540.2
922.101	1890.8011	33342.85	32451.25
922.2402	1892.4381	33240.75	32350.35
922.3794	1894.0743	33196.1	32306.5
922.5185	1895.7098	33105.3	32214.35
922.6577	1897.3446	33007.3	32114.35
922.7968	1898.9786	32892.85	31995.95
922.9359	1900.6118	32838.7	31947.65
923.075	1902.2443	32676.9	31783.1
923.214	1903.8761	32573.35	31683.2
923.3531	1905.5071	32375.3	31481.45
923.4921	1907.1374	32259.1	31367.65
923.6311	1908.7669	32252.95	31360.45
923.77	1910.3957	32177	31285.15
923.909	1912.0237	31951.35	31060.25
924.0479	1913.651	31871.15	30978.8
924.1868	1915.2776	31841.3	30953.8
924.3257	1916.9034	31694.1	30803.55
924.4646	1918.5285	31551.8	30660.35
924.6034	1920.1528	31364.75	30473.8
924.7422	1921.7764	31320.35	30430.55
924.881	1923.3992	31160.6	30270.1
925.0198	1925.0213	30963.25	30072.95
925.1586	1926.6427	30849.5	29959.05
925.2973	1928.2633	30879.25	29877.65
925.436	1929.8832	30662.65	29771
925.5747	1931.5023	30510.6	29618.45
925.7134	1933.1207	30435.5	29545.05
925.852	1934.7383	30382.2	29489.7
925.9906	1936.3552	30220.25	29329.9
926.1292	1937.9714	30176.95	29285.15
926.2678	1939.5868	30042.15	29149.25
926.4064	1941.2015	29847.8	28956.15
926.5449	1942.8154	29736.05	28844.35
926.6834	1944.4286	29569.15	28676.9
926.8219	1946.041	29487.3	28578.75
926.9604	1947.6528	29331.2	28435.3
927.0988	1949.2637	29235.5	28344.45
927.2372	1950.8739	29139.9	28248.45
927.3756	1952.4834	29038.55	28148.25
927.514	1954.0921	28975.1	28083.75
927.6523	1955.7001	28890.45	27993.4
927.7907	1957.3074	28823.8	27935
927.929	1958.9139	28643.2	27752.35
928.0673	1960.5197	28572.05	27679.75
928.2055	1962.1247	28442.9	27552.05
928.3438	1963.729	28319.95	27429.7
928.482	1965.3325	28154	27239.45
928.6202	1966.9353	28078.45	27188.4
928.7584	1968.5374	27967.8	27077.35
928.8965	1970.1387	27889.9	26996.9
929.0346	1971.7393	27742.8	26851.4
929.1727	1973.3392	27732.9	26842.4
929.3108	1974.9383	27589.15	26698.6
929.4489	1976.5366	27440.3	26550.5
929.5869	1978.1342	27465.25	26573.25
929.7249	1979.7311	27358.95	26465.6
929.8629	1981.3273	27246.8	26356.2
930.0009	1982.9227	27154.7	26262.85
930.1388	1984.5173	27025.75	26134.95
930.2767	1986.1112	26906.45	26015.8
930.4146	1987.7044	26868.65	25979.15
930.5525	1989.2968	26792.6	25901.3
930.6904	1990.8885	26725.45	25831.95
930.8282	1992.4795	26645.35	25752.7
930.966	1994.0697	26516.1	25625.3
931.1038	1995.6592	26407.3	25515.45
931.2415	1997.2479	26325.35	25434.7
931.3793	1998.8359	26223.1	25332.75
931.517	2000.4232	26112.4	25222.9
931.6547	2002.0097	26008.35	25118.15
931.7923	2003.5955	25871.5	24979.85
931.93	2005.1805	25853.9	24960.7
932.0676	2006.7648	25786.55	24893.3
932.2052	2008.3484	25704.7	24812.9
932.3427	2009.9312	25664.4	24772.4
932.4803	2011.5133	25530.3	24641
932.6178	2013.0946	25480.35	24591
932.7553	2014.6752	25420.25	24529.55
932.8928	2016.2551	25345.15	24453.7
933.0302	2017.8342	25179.1	24289.3
933.1676	2019.4126	25058.7	24169.2
933.305	2020.9902	25020.1	24129.75
933.4424	2022.5672	24991.7	24100.2
933.5798	2024.1433	24907.3	24010.7
933.7171	2025.7188	24785.25	23896.35
933.8544	2027.2935	24689.8	23795.55
933.9917	2028.8674	24601.9	23711.35
934.129	2030.4406	24504.8	23615.45
934.2662	2032.0131	24411.75	23522.4
934.4034	2033.5849	24274.3	23379.85
934.5406	2035.1559	24288.8	23395.05
934.6778	2036.7261	24264	23371.95
934.8149	2038.2957	24148.55	23257.05
934.952	2039.8645	24092.25	23199.95
935.0891	2041.4325	24099.5	23206.55
935.2262	2042.9998	24009.55	23118.65
935.3632	2044.5664	23871.6	22980
935.5002	2046.1323	23782.3	22892.2
935.6372	2047.6974	23691.35	22800.6
935.7742	2049.2617	23656.75	22768
935.9111	2050.8254	23634.25	22721.25
936.048	2052.3883	23547.75	22654.8
936.1849	2053.9504	23468.2	22576.8
936.3218	2055.5118	23380.85	22489.75
936.4586	2057.0725	23235.15	22338.85
936.5955	2058.6325	23204.15	22314.85
936.7323	2060.1917	23141.05	22250.5
936.869	2061.7502	23125.4	22230.6
937.0058	2063.3079	23013.9	22122.45
937.1425	2064.8649	22923.35	22029.5
937.2792	2066.4212	22870	21978.3
937.4159	2067.9767	22778.6	21888.25
937.5525	2069.5315	22678.9	21790
937.6891	2071.0856	22597.35	21706.9
937.8257	2072.6389	22458.8	21567.25
937.9623	2074.1915	22334.35	21445.15
938.0989	2075.7433	22219.85	21326
938.2354	2077.2945	22190.65	21301.15
938.3719	2078.8448	22163.6	21273
938.5084	2080.3945	22071.8	21181.55
938.6448	2081.9434	22030.4	21140.75
938.7812	2083.4916	21929.8	21038.45
938.9176	2085.039	21843.45	20950.7
939.054	2086.5857	21784.65	20890.1
939.1903	2088.1317	21759.25	20868.8
939.3267	2089.677	21679.65	20787.75
939.463	2091.2215	21580.75	20690.75
939.5992	2092.7652	21525	20632.2
939.7355	2094.3083	21478.95	20588.4
939.8717	2095.8506	21432.9	20543.35
940.0079	2097.3921	21397	20507.7
940.1441	2098.933	21326.25	20436.6
940.2802	2100.4731	21245.5	20354.8
940.4163	2102.0124	21192.9	20295.45
940.5524	2103.5511	21205.25	20314.6
940.6885	2105.089	21097.8	20207.05
940.8245	2106.6261	21053.7	20163.1
940.9606	2108.1626	20973.15	20081.15
941.0965	2109.6983	20965.4	20044.95
941.2325	2111.2332	20840.1	19948.7
941.3684	2112.7675	20792.65	19902.15
941.5044	2114.301	20705.1	19810.85
941.6403	2115.8337	20688.95	19798.6
941.7761	2117.3657	20630.6	19740.9
941.912	2118.897	20569.4	19677.5
942.0478	2120.4276	20500.6	19604.4
942.1835	2121.9575	20371.5	19476.65
942.3193	2123.4866	20389.6	19483.15
942.455	2125.0149	20327.9	19434.55
942.5907	2126.5426	20195.75	19305.7
942.7264	2128.0695	20138.05	19244.4
942.8621	2129.5956	20108.65	19220.6
942.9977	2131.1211	20037.9	19140.5
943.1333	2132.6458	19969.3	19077.55
943.2689	2134.1698	19966.5	19075.15
943.4044	2135.693	19847.1	18953.85
943.54	2137.2155	19831.8	18937.85
943.6755	2138.7373	19790.9	18901.6
943.8109	2140.2584	19705.45	18814.55
943.9464	2141.7787	19622	18724.25
944.0818	2143.2983	19513.95	18624.1
944.2172	2144.8171	19422.6	18531.15
944.3526	2146.3353	19362.4	18469.15
944.4879	2147.8527	19263.3	18373.1
944.6232	2149.3693	19245.85	18352.95
944.7585	2150.8853	19198.3	18306.4
944.8938	2152.4005	19135.6	18244.6
945.029	2153.9149	19093.4	18202.15
945.1642	2155.4287	19012.6	18121.4
945.2994	2156.9417	19021.35	18129.8
945.4346	2158.454	18906.35	18013.8
945.5697	2159.9655	18841.8	17949.9
945.7048	2161.4764	18801.6	17910.05
945.8399	2162.9865	18743.1	17850.85
945.9749	2164.4958	18719.95	17827
946.1099	2166.0045	18618.35	17726.3
946.2449	2167.5124	18617	17724.95
946.3799	2169.0195	18526.1	17633.8
946.5148	2170.526	18492.9	17601.8
946.6498	2172.0317	18444.4	17553.9
946.7846	2173.5367	18398.25	17505.3
946.9195	2175.0409	18297.55	17407.2
947.0543	2176.5445	18318	17427.55
947.1891	2178.0473	18222.4	17331.85
947.3239	2179.5494	18156.1	17260.25
947.4587	2181.0507	18052.85	17160.45
947.5934	2182.5513	18015.45	17123.15
947.7281	2184.0512	17963.85	17072.85
947.8628	2185.5504	17895.8	17004.5
947.9974	2187.0488	17787.1	16894.9
948.132	2188.5465	17718.2	16827.25
948.2666	2190.0435	17650.05	16758.85
948.4012	2191.5397	17613.15	16721.65
948.5357	2193.0353	17572.75	16682.9
948.6702	2194.5301	17476.35	16583.85
948.8047	2196.0241	17394.5	16503.15
948.9392	2197.5175	17363.65	16472.85
949.0736	2199.0101	17271.2	16377.65
949.208	2200.502	17189.6	16298.35
949.3424	2201.9931	17123.85	16231.95
949.4767	2203.4835	17103.55	16210.25
949.611	2204.9733	17052.75	16156.25
949.7453	2206.4622	16952.75	16061.25
949.8796	2207.9505	16917.5	16023.5
950.0138	2209.438	16827.4	15937.15
950.148	2210.9248	16773.95	15882.75
950.2822	2212.4109	16710.15	15820.5
950.4164	2213.8962	16660.9	15766.85
950.5505	2215.3809	16618.05	15725.6
950.6846	2216.8648	16564.6	15674.75
950.8186	2218.3479	16532.45	15638.1
950.9527	2219.8304	16469.4	15576.55
951.0867	2221.3121	16399.7	15505.3
951.2207	2222.7931	16325.9	15434.6
951.3546	2224.2733	16272.4	15381.1
951.4886	2225.7529	16214.75	15321.6
951.6225	2227.2317	16143	15249
951.7563	2228.7098	16119.15	15226.25
951.8902	2230.1872	16041	15150.1
952.024	2231.6638	15989.35	15099.55
952.1578	2233.1397	15950.5	15051.6
952.2916	2234.6149	15880.1	14990.6
952.4253	2236.0894	15833.5	14942.95
952.559	2237.5632	15826.55	14924.95
952.6927	2239.0362	15708.45	14817.55
952.8263	2240.5085	15648.05	14756.85
952.9599	2241.9801	15613.1	14722.3
953.0935	2243.4509	15568.5	14677.15
953.2271	2244.921	15519.4	14629.4
953.3606	2246.3904	15456.85	14565.45
953.4941	2247.8591	15397.65	14507.1
953.6276	2249.3271	15352.8	14461
953.7611	2250.7943	15265.55	14374.8
953.8945	2252.2608	15221.75	14330.15
954.0279	2253.7266	15222.1	14332
954.1612	2255.1917	15132.65	14241.2
954.2946	2256.656	15084.95	14191.05
954.4279	2258.1197	15024.35	14133.55
954.5612	2259.5826	14981.8	14088
954.6944	2261.0447	14944.65	14052.1
954.8276	2262.5062	14860.95	13967.65
954.9608	2263.9669	14857	13961.5
955.094	2265.4269	14804.4	13914.25
955.2271	2266.8862	14769.4	13877.3
955.3602	2268.3448	14701.45	13811.3
955.4933	2269.8026	14688.5	13794.9
955.6264	2271.2598	14631.4	13742.7
955.7594	2272.7162	14573.95	13682.55
955.8924	2274.1719	14531.5	13639.2
956.0253	2275.6268	14498.8	13609.4
956.1583	2277.0811	14471.55	13579.45
956.2912	2278.5346	14456.05	13565.15
956.4241	2279.9874	14394.4	13503.75
956.5569	2281.4395	14366.35	13475.25
956.6897	2282.8908	14261.3	13366.25
956.8225	2284.3414	14222.7	13331.5
956.9553	2285.7914	14179.7	13288.45
957.088	2287.2406	14159.55	13265.75
957.2207	2288.689	14139.25	13246.7
957.3534	2290.1368	14063.75	13172.6
957.486	2291.5838	14023.45	13128.35
957.6186	2293.0302	13965.5	13072.15
957.7512	2294.4758	13889.2	12998.3
957.8838	2295.9206	13846.7	12952.65
958.0163	2297.3648	13814.65	12922.85
958.1488	2298.8082	13808.2	12916.5
958.2813	2300.251	13753.3	12863.55
958.4137	2301.693	13708.8	12816.35
958.5461	2303.1343	13704.1	12812.85
958.6785	2304.5748	13647.35	12756.95
958.8108	2306.0147	13571.15	12679.55
958.9432	2307.4538	13537.85	12643.65
959.0754	2308.8922	13491.65	12601.35
959.2077	2310.3299	13442.55	12551
959.3399	2311.7669	13410.15	12517.6
959.4721	2313.2031	13362.1	12468.85
959.6043	2314.6387	13302.6	12410.95
959.7365	2316.0735	13243.2	12352.75
959.8686	2317.5076	13230.95	12337.35
960.0006	2318.941	13194.65	12304.3
960.1327	2320.3737	13132.4	12240.5
960.2647	2321.8056	13085.3	12192.55
960.3967	2323.2369	13050	12159.55
960.5287	2324.6674	13013.5	12121
960.6606	2326.0972	12932.95	12040.35
960.7925	2327.5263	12906.45	12015.7
960.9244	2328.9547	12888.6	11996.55
961.0562	2330.3823	12841.8	11950.95
961.1881	2331.8092	12821	11925.35
961.3198	2333.2355	12732.95	11841.9
961.4516	2334.661	12703.5	11813.1
961.5833	2336.0858	12700.85	11810.5
961.715	2337.5098	12667.1	11778.15
961.8467	2338.9332	12635.05	11745.05
961.9783	2340.3558	12573.75	11680.8
962.1099	2341.7778	12554.7	11663.15
962.2415	2343.199	12489.5	11597.55
962.373	2344.6195	12443.35	11552.85
962.5045	2346.0393	12393.35	11502.1
962.636	2347.4583	12382.2	11489.9
962.7675	2348.8767	12344.3	11451.7
962.8989	2350.2943	12316.15	11424
963.0303	2351.7113	12259.15	11366.05
963.1617	2353.1275	12207	11314.35
963.293	2354.543	12200.35	11284.85
963.4243	2355.9578	12155.9	11265.3
963.5556	2357.3718	12072.1	11181.2
963.6868	2358.7852	12031.05	11138.45
963.818	2360.1978	11998.2	11105.1
963.9492	2361.6098	11946.95	11054.7
964.0803	2363.021	11913.65	11017.65
964.2114	2364.4315	11860	10968.25
964.3425	2365.8413	11831.55	10941.5
964.4736	2367.2504	11777.85	10887
964.6046	2368.6587	11713.15	10823.55
964.7356	2370.0664	11649.5	10758.75
964.8666	2371.4733	11620.5	10727.8
964.9975	2372.8795	11591.05	10700.7
965.1284	2374.285	11553.2	10662.7
965.2593	2375.6899	11473.4	10583
965.3901	2377.0939	11422.35	10533.2
965.5209	2378.4973	11405.8	10515.65
965.6517	2379.9	11355.4	10463.4
965.7825	2381.3019	11326.25	10435.9
965.9132	2382.7032	11278.55	10388.6
966.0439	2384.1037	11256.3	10367.3
966.1745	2385.5035	11184.05	10293.25
966.3051	2386.9027	11143.45	10253.85
966.4357	2388.3011	11132.3	10238.55
966.5663	2389.6987	11116.25	10224.2
966.6968	2391.0957	11062.75	10172.5
966.8273	2392.492	11003.35	10112.55
966.9578	2393.8876	10945.05	10052.8
967.0882	2395.2824	10886.35	9995.6
967.2186	2396.6765	10863.5	9974.1
967.349	2398.07	10790.3	9901.1
967.4793	2399.4627	10785.3	9895.1
967.6097	2400.8547	10766.8	9877.4
967.7399	2402.246	10704.8	9808.25
967.8702	2403.6366	10645.3	9753
968.0004	2405.0265	10601.1	9709.9
968.1306	2406.4156	10560.1	9663.2
968.2607	2407.8041	10534.75	9641.2
968.3909	2409.1918	10486.55	9593.6
968.521	2410.5789	10433.85	9543.8
968.651	2411.9652	10409.05	9516.45
968.781	2413.3508	10378.9	9488.1
968.911	2414.7358	10326	9435.8
969.041	2416.12	10281.3	9392.05
969.1709	2417.5035	10253.05	9362.9
969.3008	2418.8863	10209	9316.85
969.4307	2420.2684	10195.85	9302.85
969.5606	2421.6497	10132.3	9240.35
969.6904	2423.0304	10076.2	9185.5
969.8201	2424.4104	10060.95	9170.4
969.9499	2425.7896	10035.9	9138.8
970.0796	2427.1682	9991.2	9100.15
970.2093	2428.546	9987.75	9096.55
970.3389	2429.9232	9943.85	9051.2
970.4685	2431.2996	9902.55	9011.45
970.5981	2432.6753	9898	9010.05
970.7277	2434.0503	9851.8	8959.8
970.8572	2435.4246	9815.9	8924.6
970.9867	2436.7982	9781.1	8887.8
971.1161	2438.1711	9740.9	8849.35
971.2456	2439.5433	9706.6	8814.3
971.375	2440.9148	9666.65	8773.85
971.5043	2442.2856	9628.85	8738
971.6336	2443.6557	9609.15	8717.15
971.7629	2445.025	9581.4	8689.75
971.8922	2446.3937	9560.9	8667.75
972.0214	2447.7617	9513.55	8622.1
972.1506	2449.1289	9494.2	8602.7
972.2798	2450.4955	9480	8586.25
972.4089	2451.8613	9411.1	8518.85
972.538	2453.2265	9381.65	8490.5
972.6671	2454.5909	9357.15	8463.6
972.7961	2455.9546	9342.8	8453.35
972.9251	2457.3177	9314.3	8426.05
973.0541	2458.68	9289.85	8397.3
973.1831	2460.0416	9259.7	8369.75
973.312	2461.4025	9253.9	8360.65
973.4408	2462.7627	9236.35	8333.45
973.5697	2464.1222	9194.75	8304.25
973.6985	2465.4811	9162.85	8270.35
973.8273	2466.8392	9161.5	8271.95
973.956	2468.1966	9116.9	8223.8
974.0847	2469.5533	9111.65	8219.8
974.2134	2470.9093	9072.75	8181.15
974.3421	2472.2645	9033	8142.1
974.4707	2473.6191	8980	8088.2
974.5993	2474.973	8968.85	8079.25
974.7278	2476.3262	8961.05	8067.65
974.8563	2477.6787	8918.45	8028.15
974.9848	2479.0305	8844.4	7954.9
975.1132	2480.3816	8834	7941.3
975.2417	2481.7319	8802.45	7913
975.37	2483.0816	8781.45	7886.75
975.4984	2484.4306	8738	7845.15
975.6267	2485.7789	8709.15	7820.05
975.755	2487.1264	8693.35	7801.05
975.8833	2488.4733	8645.35	7757.7
976.0115	2489.8195	8606.9	7711
976.1397	2491.165	8570.55	7676.55
976.2678	2492.5097	8517.4	7624.8
976.3959	2493.8538	8495.6	7604.45
976.524	2495.1972	8458.3	7568.35
976.6521	2496.5398	8416.15	7522.75
976.7801	2497.8818	8396.25	7501.95
976.9081	2499.2231	8370.3	7479.35
977.036	2500.5637	8339.7	7446.25
977.164	2501.9035	8303.45	7410.3
977.2918	2503.2427	8290.2	7394.4
977.4197	2504.5812	8266.85	7377.4
977.5475	2505.919	8231.7	7337.5
977.6753	2507.256	8221	7328.9
977.8031	2508.5924	8198.8	7310
977.9308	2509.9281	8168.25	7271.9
978.0585	2511.2631	8126.3	7235.45
978.1861	2512.5974	8116.4	7226.75
978.3137	2513.9309	8088.15	7197.05
978.4413	2515.2638	8074.45	7151.65
978.5689	2516.596	8051.9	7160.35
978.6964	2517.9275	7986.3	7095
978.8239	2519.2583	7965.05	7072.75
978.9513	2520.5884	7912.45	7018.6
979.0788	2521.9178	7862.7	6971.3
979.2062	2523.2465	7836.15	6947.05
979.3335	2524.5745	7826.65	6932.2
979.4608	2525.9018	7822	6930.05
979.5881	2527.2284	7801.95	6912.15
979.7154	2528.5543	7768	6878.25
979.8426	2529.8796	7749.6	6857.25
979.9698	2531.2041	7740.6	6848.85
980.0969	2532.5279	7713.7	6823
980.224	2533.851	7699.1	6807.7
980.3511	2535.1735	7678.05	6787
980.4781	2536.4952	7652.6	6761.85
980.6052	2537.8163	7635.1	6742.55
980.7321	2539.1366	7603.8	6714.35
980.8591	2540.4562	7581.4	6690.45
980.986	2541.7752	7579.4	6688.65
981.1129	2543.0935	7553.4	6661.9
981.2397	2544.411	7540.65	6649.6
981.3665	2545.7279	7507.15	6615.3
981.4933	2547.0441	7493.9	6602.1
981.62	2548.3596	7499.5	6606.3
981.7467	2549.6744	7457.65	6566.65
981.8734	2550.9885	7443.05	6549.8
982.0001	2552.3019	7397.9	6507.1
982.1267	2553.6146	7395.75	6504.55
982.2532	2554.9266	7356.45	6463.3
982.3798	2556.2379	7332.45	6440.3
982.5063	2557.5485	7314	6422.85
982.6327	2558.8585	7295.5	6397.9
982.7592	2560.1677	7306.95	6411.45
982.8856	2561.4762	7292.5	6401.15
983.0119	2562.7841	7276.1	6379.85
983.1383	2564.0913	7255.65	6364.1
983.2646	2565.3977	7231.1	6340.05
983.3908	2566.7035	7217.1	6325.1
983.517	2568.0086	7184.9	6292.5
983.6432	2569.313	7207.65	6314.9
983.7694	2570.6167	7167.9	6272.25
983.8955	2571.9197	7144.35	6255.3
984.0216	2573.222	7138.35	6243.9
984.1476	2574.5236	7114.2	6222
984.2737	2575.8246	7102.75	6208.4
984.3996	2577.1248	7086.85	6192.5
984.5256	2578.4244	7068.4	6178.7
984.6515	2579.7232	7030.9	6140.1
984.7774	2581.0214	7063.5	6148.9
984.9032	2582.3189	7020.4	6128
985.029	2583.6157	7010.1	6113.95
985.1548	2584.9118	6998.6	6105.1
985.2806	2586.2072	6959.9	6068.8
985.4063	2587.5019	6945.75	6055.05
985.5319	2588.7959	6919.85	6028.85
985.6576	2590.0893	6916.3	6023.15
985.7832	2591.3819	6892.95	6001.9
985.9087	2592.6739	6857.2	5967.35
986.0343	2593.9652	6846	5954.25
986.1597	2595.2557	6825.15	5935.25
986.2852	2596.5456	6809.1	5914.4
986.4106	2597.8348	6801.5	5910.95
986.536	2599.1234	6745.55	5855.8
986.6614	2600.4112	6739.8	5847.55
986.7867	2601.6983	6714.85	5820.05
986.912	2602.9848	6706.55	5812.6
987.0372	2604.2705	6671.45	5773.5
987.1624	2605.5556	6666.25	5773
987.2876	2606.84	6633.9	5743.05
987.4128	2608.1237	6608.6	5716.1
987.5379	2609.4067	6575.5	5685.25
987.6629	2610.689	6555.7	5654.85
987.788	2611.9707	6529.4	5635.15
987.913	2613.2516	6515.45	5620.25
988.0379	2614.5319	6466.4	5576
988.1629	2615.8115	6440.3	5548.35
988.2878	2617.0903	6430.55	5536.15
988.4126	2618.3685	6411.3	5520.9
988.5375	2619.6461	6373.65	5482.75
988.6622	2620.9229	6372.35	5481.45
988.787	2622.199	6349.65	5456.9
988.9117	2623.4745	6353.65	5460.8
989.0364	2624.7493	6321.65	5431.35
989.161	2626.0234	6313.45	5424.25
989.2857	2627.2968	6270.2	5378.15
989.4102	2628.5695	6228.85	5336.7
989.5348	2629.8415	6227.6	5334.9
989.6593	2631.1128	6194.45	5299.6
989.7837	2632.3835	6162.7	5273.65
989.9082	2633.6535	6133.9	5242.9
990.0326	2634.9228	6136.4	5246.1
990.1569	2636.1914	6113.7	5221.05
990.2812	2637.4593	6101.45	5203.05
990.4055	2638.7265	6076.65	5184.8
990.5298	2639.9931	6052.25	5160.35
990.654	2641.259	6030.5	5138.45
990.7782	2642.5242	6041.6	5151.7
990.9023	2643.7887	6002.45	5109.65
991.0264	2645.0525	5977.7	5086.95
991.1505	2646.3156	5976.4	5084.75
991.2745	2647.5781	5944.4	5053.4
991.3985	2648.8398	5926.35	5036
991.5225	2650.1009	5901.1	4999.35
991.6464	2651.3613	5875.1	4982.7
991.7703	2652.6211	5866.2	4975.55
991.8942	2653.8801	5861.7	4969.6
992.018	2655.1385	5841.45	4945.9
992.1418	2656.3961	5835.55	4942.25
992.2655	2657.6531	5822.3	4932.4
992.3892	2658.9094	5803.45	4912.55
992.5129	2660.1651	5791.5	4898.45
992.6366	2661.42	5783.75	4889.15
992.7602	2662.6743	5771.2	4878
992.8837	2663.9279	5747.2	4856.6
993.0073	2665.1808	5731.3	4837.45
993.1307	2666.433	5706.1	4813.75
993.2542	2667.6846	5692.9	4802.3
993.3776	2668.9354	5684.95	4790.65
993.501	2670.1856	5663.05	4770.25
993.6244	2671.4351	5649.8	4758.05
993.7477	2672.6839	5656.05	4763.7
993.8709	2673.9321	5631.75	4742.4
993.9942	2675.1795	5612.4	4721.2
994.1174	2676.4263	5598.85	4708.15
994.2405	2677.6724	5584.1	4691.55
994.3637	2678.9179	5575	4682.6
994.4868	2680.1626	5558.25	4666.85
994.6098	2681.4067	5549.2	4658.95
994.7328	2682.6501	5533.05	4641.3
994.8558	2683.8928	5501.75	4611.55
994.9788	2685.1348	5491.85	4602.1
995.1017	2686.3761	5482.15	4591.8
995.2245	2687.6168	5459.7	4568.45
995.3474	2688.8568	5426.1	4533.2
995.4702	2690.0961	5396	4504.25
995.5929	2691.3348	5389.8	4496.6
995.7156	2692.5727	5377.25	4483.95
995.8383	2693.81	5363.65	4472.3
995.961	2695.0466	5347.55	4456.25
996.0836	2696.2826	5320.5	4426.95
996.2062	2697.5178	5312.2	4419.85
996.3287	2698.7524	5300.2	4409.7
996.4512	2699.9863	5284.95	4393.3
996.5737	2701.2195	5255	4364.2
996.6961	2702.452	5275.45	4382.2
996.8185	2703.6839	5250.25	4357.9
996.9408	2704.9151	5224.95	4334.45
997.0631	2706.1456	5214.05	4323.25
997.1854	2707.3755	5195.65	4303.15
997.3077	2708.6046	5199.4	4306.1
997.4299	2709.8331	5186.4	4293.6
997.552	2711.0609	5166.5	4275.85
997.6742	2712.2881	5165.9	4273.45
997.7963	2713.5145	5155.15	4261.3
997.9183	2714.7403	5137.3	4246.8
998.0403	2715.9654	5136.9	4244.8
998.1623	2717.1899	5144.8	4239.3
998.2842	2718.4136	5113.25	4222.5
998.4062	2719.6367	5136.5	4243.95
998.528	2720.8591	5121.45	4223.15
998.6498	2722.0809	5100	4208.4
998.7716	2723.3019	5101	4206.1
998.8934	2724.5223	5100.9	4208.75
999.0151	2725.7421	5104.8	4212.55
999.1368	2726.9611	5072	4178.1
999.2584	2728.1795	5035.7	4140.05
999.38	2729.3972	5038.9	4148.15
999.5016	2730.6142	5013.8	4117.85
999.6231	2731.8306	4966.8	4074.85
999.7446	2733.0462	4944.45	4050.2
999.8661	2734.2612	4890.4	3991.8
999.9875	2735.4756	4895.45	4000.8
1000.1089	2736.6892	4862.4	3971.9
1000.2302	2737.9022	4827.55	3938.8
1000.3515	2739.1145	4790.15	3898.5
1000.4728	2740.3262	4780.35	3882.3
1000.594	2741.5372	4744.25	3851.65
1000.7152	2742.7475	4701.1	3808.85
1000.8363	2743.9571	4689.65	3796.25
1000.9575	2745.1661	4672.75	3774.95
1001.0785	2746.3744	4650.35	3759.05
1001.1996	2747.582	4630.85	3739.4
1001.3206	2748.7889	4606.5	3713.1
1001.4415	2749.9952	4584.65	3693.85
1001.5625	2751.2008	4578.65	3683.85
1001.6833	2752.4057	4560.9	3668.75
1001.8042	2753.61	4550.4	3658
1001.925	2754.8136	4531.15	3638.1
1002.0458	2756.0165	4525.3	3635.2
1002.1665	2757.2188	4492.2	3601.8
1002.2872	2758.4204	4498.35	3607.85
1002.4078	2759.6213	4471.4	3578.3
1002.5285	2760.8215	4473.75	3578
1002.649	2762.0211	4449	3555.35
1002.7696	2763.22	4445	3549.1
1002.8901	2764.4182	4420.75	3527.25
1003.0106	2765.6158	4393.5	3501.85
1003.131	2766.8127	4394.7	3502
1003.2514	2768.009	4377.95	3486.1
1003.3717	2769.2045	4370	3477.5
1003.492	2770.3994	4349.6	3456.05
1003.6123	2771.5936	4338.35	3445.85
1003.7325	2772.7872	4316.15	3425.75
1003.8527	2773.9801	4293.4	3401.2
1003.9729	2775.1723	4305.3	3397
1004.093	2776.3639	4291.3	3399.05
1004.2131	2777.5548	4256.5	3362.75
1004.3331	2778.745	4250.15	3356.75
1004.4531	2779.9346	4243.3	3353.2
1004.5731	2781.1235	4259	3366.45
1004.693	2782.3117	4234.35	3342.65
1004.8129	2783.4992	4228.75	3338.05
1004.9328	2784.6861	4212.05	3322.35
1005.0526	2785.8723	4208.8	3315.15
1005.1723	2787.0579	4188.65	3296.35
1005.2921	2788.2428	4202.9	3312.35
1005.4118	2789.427	4203.75	3315.95
1005.5314	2790.6106	4193.3	3302
1005.651	2791.7935	4173	3279.65
1005.7706	2792.9757	4173.6	3283.25
1005.8902	2794.1573	4181.15	3287
1006.0097	2795.3382	4178.8	3286.2
1006.1291	2796.5184	4180.7	3288.2
1006.2485	2797.698	4179.45	3286.05
1006.3679	2798.8769	4191.7	3300.6
1006.4873	2800.0551	4200.95	3310.2
1006.6066	2801.2327	4195.95	3302.05
1006.7258	2802.4096	4200.45	3310.25
1006.8451	2803.5859	4202.05	3311.4
1006.9642	2804.7615	4215.75	3323.1
1007.0834	2805.9364	4234.55	3344.55
1007.2025	2807.1106	4245.2	3353.7
1007.3216	2808.2842	4266.15	3372.85
1007.4406	2809.4572	4285.4	3394.25
1007.5596	2810.6294	4310.25	3418.7
1007.6785	2811.801	4339.75	3450.05
1007.7975	2812.972	4379.5	3491.4
1007.9163	2814.1423	4404.15	3512.85
1008.0352	2815.3119	4434.85	3543.75
1008.154	2816.4808	4482.1	3590.15
1008.2727	2817.6491	4518.85	3628.45
1008.3914	2818.8167	4551.65	3662.05
1008.5101	2819.9837	4595.85	3699.6
1008.6288	2821.15	4613.5	3722.65
1008.7474	2822.3157	4655.55	3765.3
1008.8659	2823.4807	4711.1	3818
1008.9844	2824.645	4753.15	3860.85
1009.1029	2825.8086	4780.05	3890.45
1009.2214	2826.9716	4797.25	3905.5
1009.3398	2828.134	4842.75	3950.35
1009.4581	2829.2957	4877.4	3984.95
1009.5764	2830.4567	4891.5	4000.15
1009.6947	2831.617	4898.35	4006.9
1009.813	2832.7767	4902.75	4011.45
1009.9312	2833.9358	4892.15	4002.2
1010.0493	2835.0941	4874.55	3981.3
1010.1675	2836.2519	4872.7	3981.7
1010.2855	2837.4089	4827.95	3937.25
1010.4036	2838.5653	4835.6	3944.05
1010.5216	2839.7211	4811.45	3922.4
1010.6396	2840.8761	4821.65	3927.7
1010.7575	2842.0306	4837.8	3948.7
1010.8754	2843.1843	4871.45	3979.8
1010.9932	2844.3374	4912.6	4023.05
1011.111	2845.4899	4954.85	4060.65
1011.2288	2846.6417	5035.1	4143.45
1011.3465	2847.7928	5095.75	4204.7
1011.4642	2848.9433	5156.25	4266.45
1011.5818	2850.0931	5233.45	4340.65
1011.6995	2851.2422	5321.25	4426.6
1011.817	2852.3907	5390.3	4497.85
1011.9345	2853.5385	5439.8	4546.7
1012.052	2854.6857	5503.8	4586.35
1012.1695	2855.8323	5540.7	4649.4
1012.2869	2856.9781	5563.9	4673
1012.4042	2858.1233	5599.85	4708.25
1012.5216	2859.2679	5629.2	4737.25
1012.6389	2860.4118	5665.65	4775.25
1012.7561	2861.555	5703.9	4806.75
1012.8733	2862.6976	5725.55	4830.3
1012.9905	2863.8395	5733.9	4843.2
1013.1076	2864.9808	5739.95	4848.45
1013.2247	2866.1214	5749.25	4861.75
1013.3417	2867.2614	5784.65	4894.15
1013.4587	2868.4007	5792.95	4898.5
1013.5757	2869.5393	5784.6	4891.2
1013.6926	2870.6773	5777.45	4882.45
1013.8095	2871.8146	5778	4883.45
1013.9263	2872.9513	5780.5	4885.7
1014.0431	2874.0874	5759.2	4867.85
1014.1599	2875.2227	5738.15	4846.05
1014.2766	2876.3574	5723.3	4832.4
1014.3933	2877.4915	5677.7	4786.45
1014.51	2878.6249	5638.2	4746.85
1014.6266	2879.7577	5618.15	4723.6
1014.7431	2880.8898	5606.15	4703.85
1014.8596	2882.0212	5563.1	4672.35
1014.9761	2883.152	5574.95	4684.65
1015.0925	2884.2821	5536	4647.95
1015.2089	2885.4116	5508.35	4618.2
1015.3253	2886.5405	5497.9	4605.75
1015.4416	2887.6686	5495.4	4602.9
1015.5579	2888.7962	5488.4	4597.9
1015.6741	2889.923	5455.6	4565.55
1015.7903	2891.0493	5487.3	4597
1015.9065	2892.1748	5483.6	4591.25
1016.0226	2893.2997	5472.55	4583
1016.1387	2894.424	5496.65	4607.85
1016.2547	2895.5476	5514.1	4624.3
1016.3707	2896.6706	5524.05	4634.05
1016.4866	2897.7929	5562.75	4670.85
1016.6025	2898.9145	5576.85	4684.2
1016.7184	2900.0355	5580.4	4688
1016.8342	2901.1559	5613.8	4722.75
1016.95	2902.2756	5636.8	4745.7
1017.0658	2903.3946	5643.65	4752.6
1017.1815	2904.513	5668.9	4775.45
1017.2971	2905.6308	5695.55	4805.4
1017.4127	2906.7479	5703.9	4814.75
1017.5283	2907.8643	5721.25	4828.85
1017.6439	2908.9801	5726.15	4834.55
1017.7594	2910.0953	5728.25	4837.05
1017.8748	2911.2098	5728.8	4834.95
1017.9902	2912.3236	5707.6	4807.9
1018.1056	2913.4368	5690.15	4793.05
1018.2209	2914.5494	5665.5	4773.95
1018.3362	2915.6613	5640.35	4745.75
1018.4515	2916.7725	5578.85	4686.3
1018.5667	2917.8831	5571.3	4680.7
1018.6819	2918.9931	5533.7	4641.1
1018.797	2920.1024	5490.9	4598.3
1018.9121	2921.211	5467.2	4577.05
1019.0271	2922.319	5429.3	4535.45
1019.1421	2923.4264	5426.1	4534.1
1019.2571	2924.5331	5402.65	4510.55
1019.372	2925.6391	5364.75	4472.6
1019.4869	2926.7445	5359.25	4471.05
1019.6017	2927.8493	5323.7	4433.95
1019.7165	2928.9534	5325.75	4432.9
1019.8313	2930.0569	5308.3	4413.65
1019.946	2931.1597	5292.7	4398.3
1020.0606	2932.2619	5271.65	4380.8
1020.1753	2933.3634	5270.35	4377.6
1020.2899	2934.4643	5272.3	4376.6
1020.4044	2935.5645	5224	4326.55
1020.5189	2936.6641	5187.15	4291.7
1020.6334	2937.763	5122.55	4233.25
1020.7478	2938.8613	5076.55	4186.2
1020.8622	2939.959	4990.75	4093.6
1020.9765	2941.056	4917.85	4028
1021.0908	2942.1523	4828.95	3936.45
1021.2051	2943.248	4739.05	3848.1
1021.3193	2944.3431	4635.8	3744.6
1021.4334	2945.4375	4523.3	3632.5
1021.5476	2946.5313	4412.6	3525.15
1021.6617	2947.6244	4299.25	3408.35
1021.7757	2948.7169	4181.35	3291.75
1021.8897	2949.8087	4090.95	3198.95
1022.0037	2950.8999	3984.65	3092.5
1022.1176	2951.9904	3896.2	3005.45
1022.2315	2953.0803	3829.45	2937.55
1022.3453	2954.1696	3753.5	2861.55
1022.4591	2955.2582	3702.6	2813.55
1022.5728	2956.3462	3637.65	2746.25
1022.6865	2957.4335	3592.3	2700
1022.8002	2958.5202	3553.35	2661
1022.9138	2959.6062	3516.4	2623.8
1023.0274	2960.6916	3480.8	2588.8
1023.141	2961.7764	3465.05	2573.4
1023.2545	2962.8605	3448.25	2556.05
1023.3679	2963.9439	3431.7	2542
1023.4813	2965.0267	3400.8	2508.9
1023.5947	2966.1089	3405.15	2489.55
1023.708	2967.1905	3381.55	2492.05
1023.8213	2968.2714	3378	2488.65
1023.9346	2969.3516	3348.3	2459.3
1024.0478	2970.4312	3350.5	2452.15
1024.1609	2971.5102	3347.65	2458.35
1024.274	2972.5885	3340.7	2447.65
1024.3871	2973.6662	3339.9	2444.25
1024.5002	2974.7432	3320.15	2431.05
1024.6132	2975.8196	3320	2428.9
1024.7261	2976.8954	3298	2409.3
1024.839	2977.9705	3265.05	2373.45
1024.9519	2979.045	3258.6	2369.35
1025.0647	2980.1188	3238.8	2348.6
1025.1775	2981.192	3205.35	2316.25
1025.2902	2982.2645	3188.9	2297.9
1025.4029	2983.3364	3152.35	2260.7
1025.5156	2984.4077	3112.05	2221.45
1025.6282	2985.4783	3099.4	2201.15
1025.7407	2986.5483	3040.35	2149.05
1025.8532	2987.6177	3011.5	2122.65
1025.9657	2988.6864	2960.25	2069.8
1026.0782	2989.7545	2931.1	2041.4
1026.1906	2990.8219	2891.85	2003.1
1026.3029	2991.8887	2849.9	1955.9
1026.4152	2992.9548	2830.5	1940.2
1026.5275	2994.0204	2782.05	1891.15
1026.6397	2995.0852	2746.4	1856.4
1026.7519	2996.1495	2719.5	1826.45
1026.864	2997.2131	2694.1	1801.9
1026.9761	2998.276	2670.9	1781.45
1027.0882	2999.3383	2641.15	1748.1
1027.2002	3000.4	2611.35	1721.2
1027.3122	3001.4611	2596.7	1707.4
1027.4241	3002.5215	2581.75	1691.75
1027.536	3003.5812	2559.15	1667.9
1027.6478	3004.6404	2538.85	1647.4
1027.7596	3005.6989	2546.1	1651.35
1027.8714	3006.7567	2513.4	1622.45
1027.9831	3007.8139	2533.95	1619.2
1028.0947	3008.8705	2495.3	1604.85
1028.2064	3009.9264	2515.6	1606.8
1028.3179	3010.9818	2490.75	1598.85
1028.4295	3012.0364	2474.15	1584.05
1028.541	3013.0905	2462.45	1572.05
1028.6524	3014.1439	2461.5	1570.7
1028.7638	3015.1966	2450.55	1561.05
1028.8752	3016.2487	2443.1	1552
1028.9865	3017.3002	2447.6	1552.6
1029.0978	3018.3511	2431.8	1540.65
1029.209	3019.4013	2425.05	1535.75
1029.3202	3020.4509	2426.35	1536.1
1029.4314	3021.4998	2426.25	1535.85
1029.5425	3022.5481	2411.9	1521.75
1029.6535	3023.5958	2410.7	1518.35
1029.7645	3024.6428	2416.5	1523.6
1029.8755	3025.6892	2413	1521.9
1029.9864	3026.735	2408.9	1518.55
1030.0973	3027.7802	2412.95	1522.8
1030.2082	3028.8247	2403.95	1514.9
1030.319	3029.8685	2388.8	1498.05
1030.4297	3030.9118	2398.85	1506.4
1030.5404	3031.9544	2383.75	1492.9
1030.6511	3032.9963	2400.7	1509.75
1030.7617	3034.0376	2403.9	1514.45
1030.8723	3035.0783	2401.85	1510
1030.9829	3036.1184	2386.6	1494.95
1031.0934	3037.1578	2398.1	1508.35
1031.2038	3038.1966	2390.15	1496.95
1031.3142	3039.2348	2377.8	1487.4
1031.4246	3040.2723	2385.85	1487.05
1031.5349	3041.3092	2370.1	1480.4
1031.6452	3042.3455	2369.4	1479.8
1031.7554	3043.3811	2355.9	1465.4
1031.8656	3044.4161	2351.9	1460.45
1031.9758	3045.4505	2336.25	1446
1032.0859	3046.4842	2334.2	1443.45
1032.1959	3047.5173	2321.45	1432.05
1032.3059	3048.5498	2310.1	1420.05
1032.4159	3049.5816	2300.1	1408.85
1032.5258	3050.6128	2291.1	1398.65
1032.6357	3051.6434	2284.45	1391.7
1032.7455	3052.6734	2272.15	1379.55
1032.8553	3053.7027	2265.55	1375.65
1032.9651	3054.7314	2243.3	1351.55
1033.0748	3055.7594	2240.05	1347.2
1033.1845	3056.7868	2225.05	1333.6
1033.2941	3057.8136	2223.15	1331.3
1033.4037	3058.8398	2221.95	1329.85
1033.5132	3059.8653	2202.45	1312.7
1033.6227	3060.8902	2195.75	1306.15
1033.7321	3061.9145	2177.9	1287.1
1033.8415	3062.9381	2172.9	1282
1033.9509	3063.9612	2182.2	1276.4
1034.0602	3064.9835	2156.1	1265.75
1034.1694	3066.0053	2147.85	1252.9
1034.2787	3067.0264	2132.1	1242.8
1034.3878	3068.0469	2124.65	1232.45
1034.497	3069.0668	2118.85	1225.15
1034.6061	3070.086	2103.7	1213.3
1034.7151	3071.1046	2092.75	1201.85
1034.8241	3072.1226	2079.9	1186.9
1034.9331	3073.1399	2065.5	1176.1
1035.042	3074.1567	2055.3	1163.55
1035.1508	3075.1727	2030.55	1137.1
1035.2597	3076.1882	2026.7	1135.6
1035.3684	3077.203	2010.25	1121.85
1035.4772	3078.2173	2010.6	1118.6
1035.5859	3079.2308	1999.05	1106.4
1035.6945	3080.2438	1980.95	1089.3
1035.8031	3081.2561	1968.8	1078.3
1035.9117	3082.2678	1964.1	1075.55
1036.0202	3083.2789	1957.6	1067.55
1036.1286	3084.2893	1942.35	1051.35
1036.2371	3085.2991	1927.95	1037.55
1036.3454	3086.3083	1922.8	1026.9
1036.4538	3087.3169	1915.6	1023.5
1036.562	3088.3248	1909.95	1019.65
1036.6703	3089.3321	1899.9	1006.8
1036.7785	3090.3388	1885.75	995.3
1036.8866	3091.3449	1877.4	987.05
1036.9948	3092.3503	1873.65	980.25
1037.1028	3093.3551	1876.15	987.7
1037.2108	3094.3593	1860.75	970.9
1037.3188	3095.3629	1851.35	960.65
1037.4267	3096.3658	1842.1	950.75
1037.5346	3097.3681	1833.9	943.15
1037.6425	3098.3698	1839.55	948.4
1037.7503	3099.3708	1835.15	937.55
1037.858	3100.3713	1828.5	936.9
1037.9657	3101.3711	1810.95	919.4
1038.0734	3102.3702	1908	904.9
1038.181	3103.3688	1817.75	926.1
1038.2886	3104.3667	1805.2	915.9
1038.3961	3105.364	1787.1	898.15
1038.5036	3106.3607	1785.45	893.4
1038.611	3107.3568	1785.25	893.55
1038.7184	3108.3522	1767.85	879.7
1038.8257	3109.347	1773.65	880.95
1038.933	3110.3412	1759.65	865.45
1039.0403	3111.3348	1757.9	866.4
1039.1475	3112.3277	1761.8	871.05
1039.2547	3113.32	1742.15	852.45
1039.3618	3114.3117	1744.5	853.95
1039.4689	3115.3028	1744.3	853.85
1039.5759	3116.2932	1735.35	842.5
1039.6829	3117.2831	1739.15	843
1039.7898	3118.2723	1719.2	829.8
1039.8967	3119.2608	1720.75	830.05
1040.0035	3120.2488	1714.9	823.35
1040.1103	3121.2361	1708.55	818.15
1040.2171	3122.2229	1708.5	817.75
1040.3238	3123.209	1700.1	810.65
1040.4305	3124.1944	1696.55	807.7
1040.5371	3125.1793	1693.9	801.3
1040.6437	3126.1635	1691.3	802.2
1040.7502	3127.1471	1688.3	797.55
1040.8567	3128.1301	1672.5	782.25
1040.9631	3129.1125	1669.5	778.45
1041.0695	3130.0942	1668.6	779.65
1041.1759	3131.0753	1672.45	775.05
1041.2822	3132.0558	1665.1	770.1
1041.3884	3133.0357	1657.6	767.25
1041.4946	3134.015	1658.05	767.6
1041.6008	3134.9936	1652	762
1041.7069	3135.9716	1669.5	759.45
1041.813	3136.949	1641.25	752.1
1041.919	3137.9258	1636.95	739.7
1042.025	3138.902	1638.1	742.85
1042.1309	3139.8775	1630.3	739.65
1042.2368	3140.8524	1624.2	733.35
1042.3427	3141.8267	1623.2	730.3
1042.4485	3142.8004	1621.85	729.6
1042.5542	3143.7735	1621.8	724.25
1042.6599	3144.7459	1616.35	722.95
1042.7656	3145.7178	1611.7	720.3
1042.8712	3146.689	1609.5	718.75
1042.9768	3147.6596	1613.65	721.2
1043.0823	3148.6295	1591.3	700.1
1043.1878	3149.5989	1595.6	704.9
1043.2932	3150.5676	1589.6	698.95
1043.3986	3151.5357	1579.45	690.5
1043.5039	3152.5032	1581.15	692.05
1043.6092	3153.4701	1571.45	678.5
1043.7145	3154.4364	1577.95	684.9
1043.8197	3155.402	1561.65	672.05
1043.9248	3156.367	1565.5	673.3
1044.03	3157.3315	1595.35	667.3
1044.135	3158.2952	1558.75	667.55
1044.24	3159.2584	1551.65	662.1
1044.345	3160.221	1553.55	661.2
1044.4499	3161.1829	1543.35	652.3
1044.5548	3162.1442	1544.9	655.4
1044.6596	3163.105	1535.7	644.2
1044.7644	3164.065	1531.85	641.35
1044.8692	3165.0245	1535.05	643.4
1044.9739	3165.9834	1522.75	634.65
1045.0785	3166.9416	1517.65	628.55
1045.1831	3167.8993	1518.45	627.95
1045.2877	3168.8563	1508.35	616.45
1045.3922	3169.8127	1512.6	623.8
1045.4966	3170.7684	1511.55	623.35
1045.6011	3171.7236	1509	617.3
1045.7054	3172.6782	1500.9	611.65
1045.8098	3173.6321	1495.15	604.15
1045.914	3174.5854	1493.1	598.35
1046.0183	3175.5381	1493.4	602.15
1046.1224	3176.4902	1492.8	601.8
1046.2266	3177.4417	1482.5	591.95
1046.3307	3178.3926	1475.35	585.7
1046.4347	3179.3428	1471.9	584.6
1046.5387	3180.2924	1471.3	582.95
1046.6427	3181.2415	1467.85	578.9
1046.7466	3182.1899	1474.7	583.05
1046.8504	3183.1377	1464.75	574.15
1046.9542	3184.0848	1465.8	572
1047.058	3185.0314	1461.55	571.1
1047.1617	3185.9773	1459.55	569.75
1047.2654	3186.9227	1454.5	563.2
1047.369	3187.8674	1448.25	557.2
1047.4726	3188.8115	1448.4	553.25
1047.5761	3189.755	1441.7	552.95
1047.6796	3190.6979	1432.8	544.15
1047.783	3191.6402	1441.15	551.25
1047.8864	3192.5818	1440.15	549.55
1047.9898	3193.5229	1457.25	543.4
1048.0931	3194.4633	1429.85	538.4
1048.1963	3195.4031	1424.7	533.3
1048.2995	3196.3423	1431.85	541.45
1048.4027	3197.2809	1423.3	532.9
1048.5058	3198.2189	1424.3	533.65
1048.6089	3199.1563	1431.7	525.3
1048.7119	3200.0931	1411.35	522.45
1048.8148	3201.0292	1406.1	516.85
1048.9178	3201.9648	1408.2	516.8
1049.0206	3202.8997	1406.35	514
1049.1235	3203.834	1404.75	514.55
1049.2262	3204.7677	1401.35	511.45
1049.329	3205.7008	1394.4	503
1049.4317	3206.6333	1396	508.35
1049.5343	3207.5652	1396.15	507.05
1049.6369	3208.4964	1393.1	502.7
1049.7394	3209.4271	1388.05	496.85
1049.8419	3210.3571	1382.9	491.85
1049.9444	3211.2865	1388.35	496.25
1050.0468	3212.2154	1384.65	493.2
1050.1491	3213.1436	1379.55	485.75
1050.2514	3214.0712	1388.95	491.7
1050.3537	3214.9982	1373.6	484.65
1050.4559	3215.9246	1373.15	482.4
1050.5581	3216.8503	1364.35	476.6
1050.6602	3217.7755	1369.65	480.3
1050.7623	3218.7001	1365.15	475.8
1050.8643	3219.624	1359.9	469.15
1050.9663	3220.5473	1356.4	464.6
1051.0682	3221.4701	1357.75	466.5
1051.1701	3222.3922	1354.9	461.35
1051.2719	3223.3137	1352.15	460.95
1051.3737	3224.2346	1350.25	460.6
1051.4754	3225.1549	1349	459.05
1051.5771	3226.0746	1341.95	452.6
1051.6788	3226.9937	1344.35	453.3
1051.7804	3227.9121	1339.35	449.5
1051.8819	3228.83	1339.85	451.05
1051.9834	3229.7473	1333.65	443.9
1052.0849	3230.6639	1331.2	440.6
1052.1863	3231.5799	1331.15	442.05
1052.2876	3232.4954	1326.95	436.5
1052.3889	3233.4102	1328.1	437.95
1052.4902	3234.3244	1323.15	432.05
1052.5914	3235.238	1322.25	433
1052.6926	3236.151	1337.65	424.5
1052.7937	3237.0634	1313.55	423.75
1052.8948	3237.9752	1311.95	422.5
1052.9958	3238.8864	1312.45	422.4
1053.0968	3239.797	1307.85	419.2
1053.1977	3240.7069	1302	410.8
1053.2986	3241.6163	1305.65	411.85
1053.3994	3242.5251	1295.75	406.85
1053.5002	3243.4332	1292.65	404
1053.6009	3244.3408	1298.05	409.6
1053.7016	3245.2477	1293.85	403.75
1053.8022	3246.154	1288.65	396.65
1053.9028	3247.0598	1293.25	401.2
1054.0034	3247.9649	1285.1	396.05
1054.1039	3248.8694	1285.1	395.75
1054.2043	3249.7733	1282.45	393.8
1054.3047	3250.6766	1277.75	388
1054.4051	3251.5793	1278.6	386.9
1054.5054	3252.4814	1266.85	378.1
1054.6056	3253.3829	1269.1	379.25
1054.7058	3254.2838	1266.15	376.5
1054.806	3255.1841	1266.3	377.9
1054.9061	3256.0838	1264.1	375.8
1055.0061	3256.9829	1254.95	366.55
1055.1062	3257.8814	1253.3	361.05
1055.2061	3258.7792	1252.5	359.5
1055.306	3259.6765	1244.1	351.85
1055.4059	3260.5731	1245.95	357
1055.5057	3261.4692	1240.05	349.6
1055.6055	3262.3647	1234.85	345.5
1055.7052	3263.2595	1231.95	342.15
1055.8049	3264.1538	1229.9	341.7
1055.9045	3265.0474	1222.6	333.65
1056.0041	3265.9404	1215.85	326.55
1056.1036	3266.8329	1210.85	320.55
1056.2031	3267.7247	1214.45	315.6
1056.3025	3268.616	1194.35	305.85
1056.4019	3269.5066	1188.9	299.95
1056.5013	3270.3966	1177.55	286.95
1056.6005	3271.286	1174.2	286.75
