Software Version:	3.9.2.0
Unit SN:	10000200
Spectrometer SN:	6960
Date:	3/6/2024 9:54:14 AM
Data Line Index:	25
Spectral Points:	2048
Integration time (ms):	125
Averages:	20
Delay (ms):	30
Sequence Number:	1
Processing:	dark subtract
Laser Power (mW):	300
Laser Current (mA):	826
Laser Diode Temp (C):	25.1
Laser Case Temp (C):	24.5
System Temp (C):	24.3
Spectrometer Temp (C):	21.9
CCD Temp (C):	0
Secondary Temp (C):	20.003
Heatsink Temp (C):	18.21
CCDPCB Temp (C):	31.305
SecondaryPCB Temp (C):	26.214

Wavelength	RamanShift	Raw Counts	Dark Subtracted
787.061	30.1047	530.1	124.5
787.2016	32.3739	537.05	131.75
787.3422	34.6426	544.75	139.95
787.4828	36.9109	553.3	145.8
787.6235	39.1787	563.85	152.15
787.7642	41.4461	580.35	163.65
787.9049	43.7131	593	174.1
788.0456	45.9796	606.45	183
788.1863	48.2456	617.5	192.35
788.3271	50.5112	637.2	206
788.4679	52.7764	650.15	217.6
788.6087	55.0411	666.6	229.4
788.7496	57.3054	686.25	240.8
788.8904	59.5692	701.1	256.9
789.0313	61.8326	713.35	264.95
789.1722	64.0955	745.65	294.35
789.3132	66.3579	768.8	314.1
789.4541	68.6199	798.9	338.55
789.5951	70.8815	863.55	400.8
789.7361	73.1426	978.1	509.45
789.8771	75.4032	1279.4	807.15
790.0181	77.6634	2038	1562.8
790.1592	79.9231	3851.4	3372.7
790.3003	82.1824	7852.25	7368.15
790.4414	84.4412	15000.95	14504.4
790.5825	86.6995	24720.8	24210.45
790.7237	88.9574	34088.55	33565.6
790.8648	91.2148	41063.75	40535.4
791.006	93.4717	44259.75	43723.05
791.1472	95.7282	45684.2	45148.25
791.2885	97.9842	46252.5	45712.95
791.4297	100.2398	46577.75	46033.55
791.571	102.4949	46300.55	45756.6
791.7123	104.7495	46680.9	46133.6
791.8536	107.0036	46317.3	45767.3
791.9949	109.2573	46924.05	46373.9
792.1363	111.5105	46324.55	45771.6
792.2777	113.7632	46828.15	46273.65
792.4191	116.0154	46912.95	46348
792.5605	118.2672	47274.4	46720
792.7019	120.5185	47262.85	46703.1
792.8434	122.7693	47312.45	46749.85
792.9849	125.0197	47039.95	46469.3
793.1264	127.2696	47882.25	47310.8
793.2679	129.519	47942.65	47366.35
793.4094	131.7679	48295.8	47718.95
793.551	134.0163	47198.3	46618.85
793.6926	136.2642	47715.1	47132.6
793.8342	138.5117	48468.65	47881.45
793.9758	140.7587	48229	47639.85
794.1175	143.0052	48332.25	47741.65
794.2591	145.2512	47774.2	47181.6
794.4008	147.4967	48519.75	47926.45
794.5425	149.7417	48270.4	47674.15
794.6842	151.9863	48384.75	47783.85
794.826	154.2304	47777.35	47171.85
794.9677	156.4739	48370.85	47760.05
795.1095	158.717	48652.95	48045.4
795.2513	160.9596	48447.4	47833.85
795.3931	163.2017	47935.2	47320.35
795.535	165.4433	48567.5	47947.6
795.6768	167.6844	48225.65	47607.2
795.8187	169.925	48625	48002.65
795.9606	172.1651	48436.35	47811.05
796.1025	174.4047	48310.15	47681.05
796.2445	176.6439	48521.4	47886.2
796.3864	178.8825	48564.6	47930.55
796.5284	181.1206	48857.15	48219.8
796.6704	183.3582	48895.5	48251.85
796.8124	185.5954	48463.1	47816.85
796.9544	187.832	48732.6	48083.45
797.0965	190.0681	48471.55	47818.85
797.2386	192.3037	49110.25	48456.1
797.3806	194.5388	49746.5	49086.45
797.5228	196.7734	48386.8	47727
797.6649	199.0075	49555.85	48893.3
797.807	201.2411	49358.85	48696.55
797.9492	203.4742	50000.25	49337.1
798.0914	205.7068	49893.8	49225.6
798.2336	207.9389	49904.15	49233.05
798.3758	210.1704	49820.95	49154.55
798.518	212.4015	50421.25	49763.45
798.6603	214.632	49616.05	48966.25
798.8025	216.862	50440.75	49795.15
798.9448	219.0915	50428.55	49778.15
799.0871	221.3205	50118.1	49466.6
799.2294	223.549	50722.55	50078.9
799.3718	225.777	50703.15	50057
799.5141	228.0044	50890.55	50234.35
799.6565	230.2314	50802.75	50146.8
799.7989	232.4578	50738.4	50079.45
799.9413	234.6837	50812.2	50142.3
800.0837	236.909	51993.15	51324.3
800.2262	239.1339	50527	49831.65
800.3687	241.3582	51131.95	50452.15
800.5111	243.582	51186.7	50474.9
800.6536	245.8053	51312	50614.45
800.7961	248.0281	51308.75	50616.45
800.9387	250.2503	51599.85	50901.65
801.0812	252.472	51261.05	50561.55
801.2238	254.6932	51454.4	50758.05
801.3664	256.9139	51348.7	50649.5
801.509	259.134	52428	51722.4
801.6516	261.3536	51100.45	50398.15
801.7942	263.5727	52062.15	51359.35
801.9369	265.7912	51565.75	50858.95
802.0795	268.0092	51736.25	51032.95
802.2222	270.2267	51877.7	51170.25
802.3649	272.4436	51511.65	50804.55
802.5076	274.6601	51889.05	51171.9
802.6504	276.8759	52143.3	51429.95
802.7931	279.0913	52066	51352.45
802.9359	281.3061	51955.25	51238.95
803.0787	283.5204	52201.85	51482.25
803.2215	285.7341	52068.05	51344.7
803.3643	287.9473	52705.95	51971.6
803.5071	290.16	52185.8	51461
803.6499	292.3721	52723.4	52005.45
803.7928	294.5837	51991.8	51269.8
803.9357	296.7947	51757.45	51036.4
804.0786	299.0052	52461.75	51739.45
804.2215	301.2152	52067.35	51342.85
804.3644	303.4246	52682.7	51960.65
804.5074	305.6334	52583.5	51861.9
804.6503	307.8418	51901.4	51173.7
804.7933	310.0495	52186.5	51459.1
804.9363	312.2568	51990.95	51258.45
805.0793	314.4635	51988.1	51260.2
805.2223	316.6696	52214.05	51478.4
805.3653	318.8752	52535.65	51794
805.5084	321.0802	51372.9	50635.1
805.6514	323.2847	51791.9	51054.4
805.7945	325.4887	51888.1	51150.7
805.9376	327.692	51605.55	50866.8
806.0807	329.8949	52005.1	51264.5
806.2238	332.0972	51755.2	51012.65
806.367	334.2989	51927.4	51182.45
806.5101	336.5001	52387.2	51639.65
806.6533	338.7007	51594.7	50849.75
806.7965	340.9008	51962.3	51215.05
806.9397	343.1003	52016	51264.65
807.0829	345.2992	52334.65	51584.7
807.2261	347.4976	51905.9	51152.35
807.3693	349.6955	52051.05	51293.75
807.5126	351.8927	51812.65	51055.85
807.6559	354.0895	52157.65	51388.05
807.7991	356.2856	52020.5	51259.45
807.9424	358.4812	52409.05	51649.1
808.0857	360.6763	51880.4	51118.25
808.2291	362.8707	52159.7	51398.4
808.3724	365.0646	51995.7	51230.85
808.5158	367.258	51987.35	51218.25
808.6591	369.4508	51687.2	50915.4
808.8025	371.643	52106.75	51332.45
808.9459	373.8346	51954.8	51181.35
809.0893	376.0257	51903.5	51125.45
809.2327	378.2162	51772.75	50997.5
809.3762	380.4062	51482.45	50707.6
809.5196	382.5956	51668.7	50892.7
809.6631	384.7844	51736.1	50966.65
809.8066	386.9726	51800.6	51032.25
809.9501	389.1603	51876.5	51111.9
810.0936	391.3474	51341.75	50540.4
810.2371	393.5339	51848.75	51077.2
810.3806	395.7199	51193.7	50423.2
810.5241	397.9052	51277.65	50507.45
810.6677	400.09	51415.55	50644.9
810.8113	402.2743	51621.25	50846.65
810.9548	404.4579	51462.5	50690.65
811.0984	406.641	51286.55	50511.7
811.2421	408.8235	51576.35	50798.45
811.3857	411.0054	51541.8	50764.35
811.5293	413.1868	51594.95	50814.6
811.673	415.3675	51519.1	50735.35
811.8166	417.5477	51627.55	50843
811.9603	419.7273	51495.7	50707.4
812.104	421.9064	51368.35	50572.75
812.2477	424.0848	51421.25	50631.4
812.3914	426.2627	51488.95	50696.75
812.5351	428.4399	50994.1	50204.3
812.6788	430.6166	50820.4	50025.3
812.8226	432.7928	51135.9	50339.4
812.9663	434.9683	50645.45	49849.25
813.1101	437.1432	50707.6	49908.15
813.2539	439.3176	50900.6	50104.8
813.3977	441.4914	50313.5	49521.05
813.5415	443.6645	50384.7	49588.4
813.6853	445.8371	50309.2	49513.1
813.8291	448.0091	49982.8	49183.8
813.973	450.1806	49942.55	49145.3
814.1168	452.3514	49879.35	49078.3
814.2607	454.5216	49792.55	48983.6
814.4046	456.6913	49743	48941.45
814.5485	458.8603	49846.65	49045.75
814.6924	461.0288	49597.25	48799.7
814.8363	463.1967	49754.9	48957.65
814.9802	465.3639	49827.7	49024.95
815.1241	467.5306	49326	48522.95
815.2681	469.6967	49479.25	48679.05
815.412	471.8622	49461.3	48658.85
815.556	474.0271	49400.05	48596.4
815.7	476.1914	49363.3	48557.7
815.844	478.3551	49404	48600.8
815.988	480.5182	49670.8	48866.45
816.132	482.6807	49293.35	48490.7
816.276	484.8426	49441.25	48640.4
816.4201	487.0039	49703.25	48897.75
816.5641	489.1647	49682.5	48878.35
816.7082	491.3248	49384.05	48576.8
816.8522	493.4843	49744.5	48939.25
816.9963	495.6432	49760.65	48951.75
817.1404	497.8015	49234.5	48421.25
817.2845	499.9592	49486.7	48674.45
817.4286	502.1163	49503.45	48688.05
817.5727	504.2728	49365.35	48550.95
817.7168	506.4287	49469.8	48660.85
817.861	508.5839	49116.7	48306.8
818.0051	510.7386	49192.95	48382.4
818.1493	512.8927	49334.8	48517.3
818.2935	515.0461	49233.7	48417.85
818.4377	517.199	49405.2	48587.55
818.5818	519.3512	49313	48493.05
818.726	521.5029	49140.15	48315.2
818.8703	523.6539	49238.8	48418.2
819.0145	525.8043	48908.7	48088.25
819.1587	527.9541	49114.5	48290.9
819.303	530.1033	49025.45	48203.1
819.4472	532.2519	48880.85	48057.25
819.5915	534.3999	48941.3	48115.4
819.7357	536.5472	49139.85	48315.3
819.88	538.694	48760.35	47937.5
820.0243	540.8401	48972.15	48150.05
820.1686	542.9856	48922.4	48094.2
820.3129	545.1305	48936.55	48104.5
820.4572	547.2748	48879.65	48045.95
820.6016	549.4185	48851.65	48017.7
820.7459	551.5615	48921.6	48092.4
820.8902	553.704	48902.1	48071.4
821.0346	555.8458	48664.55	47837.85
821.1789	557.987	48711.95	47887.5
821.3233	560.1276	48766.35	47936.95
821.4677	562.2675	48711.2	47882.3
821.6121	564.4069	48710.8	47882.9
821.7565	566.5456	48794.25	47964.95
821.9009	568.6837	48582.65	47752.2
822.0453	570.8212	48577.2	47747.95
822.1897	572.958	48270.3	47439.15
822.3342	575.0942	48364.8	47537.8
822.4786	577.2299	48091.85	47264.8
822.6231	579.3648	47997.15	47168.85
822.7675	581.4992	47791.55	46966.55
822.912	583.6329	47717.5	46893.45
823.0565	585.766	47640.4	46814.55
823.201	587.8985	47627.75	46799.5
823.3454	590.0304	47275.35	46429.7
823.4899	592.1616	47393.6	46557.1
823.6345	594.2922	47299.45	46461.6
823.779	596.4222	47111.7	46274.65
823.9235	598.5515	47034.8	46199.4
824.068	600.6802	46989.1	46148.35
824.2126	602.8083	46716.2	45880.5
824.3571	604.9358	46750.75	45912.25
824.5017	607.0626	46716.85	45878.65
824.6462	609.1888	46531.15	45690
824.7908	611.3144	46686.5	45845.05
824.9354	613.4393	46486.2	45646.1
825.08	615.5636	46430	45585.6
825.2246	617.6873	46493.1	45653.45
825.3692	619.8103	46487.55	45645.05
825.5138	621.9327	46386.5	45542.35
825.6584	624.0544	46382.1	45540.35
825.803	626.1756	46348.05	45508.3
825.9477	628.2961	46271.75	45425.4
826.0923	630.4159	46126.85	45282.65
826.237	632.5351	46117.05	45273.1
826.3816	634.6537	46187.9	45343.9
826.5263	636.7716	46009.4	45163.25
826.6709	638.8889	46007.6	45158.55
826.8156	641.0056	46053.45	45202
826.9603	643.1216	46003.9	45154.4
827.105	645.237	46113.1	45263.9
827.2497	647.3518	45886.3	45039.75
827.3944	649.4659	45902.7	45059.05
827.5391	651.5793	45817.75	44971.5
827.6838	653.6922	45779.45	44933.85
827.8285	655.8043	45631.45	44785.85
827.9733	657.9159	45827.85	44980.5
828.118	660.0268	45465.05	44615.7
828.2627	662.137	45493.3	44643.9
828.4075	664.2466	45447.5	44596.6
828.5522	666.3556	45410.5	44559.3
828.697	668.4639	45330.15	44478.3
828.8418	670.5716	45338.65	44491.35
828.9865	672.6786	45347.65	44496.65
829.1313	674.785	45080.95	44226.6
829.2761	676.8907	44989.95	44137.3
829.4209	678.9958	45054.15	44205.3
829.5657	681.1002	44919.4	44066.35
829.7105	683.204	44760.2	43901.75
829.8553	685.3072	44727.5	43870.65
830.0001	687.4097	44642.4	43785.65
830.1449	689.5115	44716.95	43860.3
830.2898	691.6127	44715.75	43861.15
830.4346	693.7132	44593.9	43737.75
830.5794	695.8131	44664.25	43794.85
830.7243	697.9123	44641.35	43780.65
830.8691	700.0109	44558.35	43697.5
831.014	702.1089	44479.35	43620.7
831.1588	704.2061	44424.35	43565.35
831.3037	706.3028	44448.25	43588.55
831.4486	708.3987	44352.05	43492.4
831.5935	710.4941	44282.35	43426.95
831.7383	712.5887	44274	43416.4
831.8832	714.6827	44275.55	43413.35
832.0281	716.7761	44202.75	43346.5
832.173	718.8688	44136.05	43277.4
832.3179	720.9608	44119.9	43253.7
832.4628	723.0522	44119.4	43253.15
832.6077	725.1429	43956.65	43096.2
832.7527	727.233	43971.05	43107.4
832.8976	729.3224	44003.15	43144.65
833.0425	731.4112	43851.6	42988.8
833.1874	733.4993	43810.3	42946.1
833.3324	735.5867	43680.8	42816.75
833.4773	737.6735	43589.9	42726.3
833.6222	739.7596	43472.25	42608.05
833.7672	741.845	43400.95	42535.6
833.9122	743.9298	43290.15	42423.85
834.0571	746.014	43225.1	42360.25
834.2021	748.0974	43150.75	42283.45
834.347	750.1802	43027.9	42160.5
834.492	752.2624	42876.25	42009.85
834.637	754.3439	42752.2	41881.8
834.782	756.4247	42696.85	41815.95
834.9269	758.5048	42551.7	41684.25
835.0719	760.5843	42442	41574.65
835.2169	762.6631	42319.3	41451.6
835.3619	764.7413	42354.7	41485.45
835.5069	766.8188	42399.75	41532.05
835.6519	768.8956	42328.6	41456.45
835.7969	770.9718	42366.15	41498.1
835.9419	773.0473	42173.45	41305.3
836.0869	775.1221	42118.1	41251.6
836.232	777.1962	41945.65	41078.35
836.377	779.2697	41879.15	41007.05
836.522	781.3426	41817.7	40926.25
836.667	783.4147	41742	40870.05
836.8121	785.4862	41732.6	40865.25
836.9571	787.557	41620.3	40747.8
837.1021	789.6271	41523.65	40650.05
837.2472	791.6966	41375.75	40505.85
837.3922	793.7654	41178.65	40307.55
837.5373	795.8335	41189.95	40319.6
837.6823	797.901	41017.85	40148.35
837.8274	799.9678	40954.2	40081.55
837.9724	802.0339	40914.3	40044.25
838.1175	804.0993	40837.7	39954.25
838.2626	806.1641	40634.05	39760.55
838.4076	808.2282	40595.75	39721.75
838.5527	810.2916	40531.3	39656.15
838.6978	812.3544	40507.3	39634.85
838.8428	814.4164	40369.6	39498
838.9879	816.4778	40441.8	39568.45
839.133	818.5385	40310.5	39438.1
839.2781	820.5986	40312.45	39438.95
839.4232	822.658	40332.05	39456.1
839.5682	824.7166	40210.05	39335.7
839.7133	826.7747	40280.4	39403.25
839.8584	828.832	40249.45	39374.55
840.0035	830.8886	40133.25	39254.95
840.1486	832.9446	40078.3	39203.15
840.2937	834.9999	39959.25	39084.55
840.4388	837.0545	39954.6	39073.3
840.5839	839.1085	39770.9	38893.3
840.729	841.1618	39666	38786.85
840.8741	843.2143	39575.9	38700.2
841.0192	845.2662	39472.6	38596.8
841.1643	847.3175	39418.65	38541.6
841.3095	849.368	39338.3	38460.35
841.4546	851.4179	39307.7	38430.9
841.5997	853.467	39078.2	38200.55
841.7448	855.5155	39123.9	38245.2
841.8899	857.5633	38991.7	38113.85
842.0351	859.6105	38802.35	37924.85
842.1802	861.6569	38838.25	37960.1
842.3253	863.7027	38775.6	37894.1
842.4704	865.7478	38729.3	37848.35
842.6156	867.7922	38649.6	37770.8
842.7607	869.8359	38575.35	37694.55
842.9058	871.8789	38555.05	37676.25
843.0509	873.9212	38526.3	37615.45
843.1961	875.9629	38323.45	37442.25
843.3412	878.0039	38347.7	37468
843.4863	880.0441	38306.15	37426.45
843.6315	882.0837	38324.6	37445.6
843.7766	884.1226	38276.25	37394.75
843.9218	886.1609	38285.1	37404.85
844.0669	888.1984	38235.75	37355.6
844.212	890.2352	38302.55	37423.4
844.3572	892.2714	38181.4	37296.85
844.5023	894.3069	38173.95	37294.7
844.6475	896.3416	38030.25	37147.6
844.7926	898.3757	38002.95	37121.5
844.9377	900.4091	37920.35	37037.05
845.0829	902.4418	37856.2	36970.2
845.228	904.4739	37723.5	36836.45
845.3732	906.5052	37676.8	36792.6
845.5183	908.5358	37596.35	36714.85
845.6635	910.5658	37543.7	36656.75
845.8086	912.595	37410.75	36530.6
845.9538	914.6236	37284.75	36401.65
846.0989	916.6515	37282.4	36399.05
846.2441	918.6786	37157.1	36273.75
846.3892	920.7051	37125.6	36239.95
846.5344	922.7309	37171.3	36289.35
846.6795	924.756	36986.35	36102.85
846.8246	926.7804	36949.6	36064.45
846.9698	928.8041	36709.75	35822.4
847.1149	930.8272	36779.9	35895.95
847.2601	932.8495	36548.55	35662.75
847.4052	934.8711	36546.15	35659.7
847.5504	936.892	36330.45	35445.3
847.6955	938.9123	36243.65	35358.35
847.8407	940.9318	36162.2	35275.45
847.9858	942.9506	36073	35186.7
848.131	944.9688	35967.2	35079
848.2761	946.9862	35885.05	34998.5
848.4213	949.003	35670.25	34783.65
848.5664	951.019	35645.05	34758.25
848.7115	953.0344	35536.95	34650.85
848.8567	955.0491	35443.15	34555.2
849.0018	957.063	35446.15	34558.35
849.147	959.0763	35455.45	34569.7
849.2921	961.0888	35318.2	34429.9
849.4373	963.1007	35333.35	34448.2
849.5824	965.1119	35313.75	34430.85
849.7275	967.1223	35240.35	34356.05
849.8727	969.1321	35134.15	34252.25
850.0178	971.1412	35075.85	34191.2
850.1629	973.1495	34974.95	34091.3
850.3081	975.1572	34963.2	34045.7
850.4532	977.1641	34900.45	34013.15
850.5983	979.1704	34740.6	33853.85
850.7435	981.1759	34663.2	33773.15
850.8886	983.1808	34651	33762.4
851.0337	985.1849	34556.35	33658.7
851.1788	987.1884	34437.4	33546.55
851.324	989.1911	34391.55	33501.8
851.4691	991.1932	34308.35	33420.55
851.6142	993.1945	34186.2	33300.25
851.7593	995.1951	34025.45	33136.5
851.9045	997.1951	34015.3	33121.1
852.0496	999.1943	33772.05	32886.35
852.1947	1001.1928	33735.3	32846.65
852.3398	1003.1906	33583.95	32697.65
852.4849	1005.1877	33547.8	32656.85
852.63	1007.1841	33444.15	32557.2
852.7751	1009.1798	33326.2	32439.35
852.9202	1011.1748	33182.35	32294.75
853.0653	1013.1691	33101.3	32211.6
853.2104	1015.1627	32956.1	32066.55
853.3555	1017.1556	32689	31802.5
853.5006	1019.1477	32608.15	31720.95
853.6457	1021.1392	32451.95	31566.85
853.7908	1023.1299	32371.85	31486.05
853.9359	1025.12	32278.05	31390.7
854.081	1027.1093	32108.75	31229.4
854.2261	1029.0979	32023.55	31144.25
854.3712	1031.0859	31930.75	31049.6
854.5163	1033.0731	31831.5	30944.9
854.6613	1035.0596	31693.6	30809.95
854.8064	1037.0454	31571.1	30683.5
854.9515	1039.0304	31509.8	30621.6
855.0965	1041.0148	31346.9	30458.85
855.2416	1042.9985	31275	30387.1
855.3867	1044.9814	31253.05	30364.3
855.5317	1046.9636	31079.05	30189.8
855.6768	1048.9452	31010.1	30120.9
855.8219	1050.926	30955.45	30066.8
855.9669	1052.9061	30841.3	29952
856.112	1054.8855	30777.25	29889.65
856.257	1056.8642	30700.95	29810.4
856.4021	1058.8421	30722.05	29830.05
856.5471	1060.8194	30598.95	29709.75
856.6921	1062.7959	30533.35	29643.95
856.8372	1064.7717	30479.8	29588.85
856.9822	1066.7469	30419.55	29527.8
857.1272	1068.7213	30386.75	29491.9
857.2723	1070.695	30381.35	29491.8
857.4173	1072.6679	30211.5	29319.05
857.5623	1074.6402	30180.4	29290.45
857.7073	1076.6117	30178.9	29282.8
857.8523	1078.5826	30125.6	29234.65
857.9973	1080.5527	29996.75	29104.1
858.1423	1082.5221	29860	28969.9
858.2873	1084.4908	29801.8	28912
858.4323	1086.4587	29734.1	28840.45
858.5773	1088.426	29728.1	28837.75
858.7223	1090.3925	29576.1	28682.4
858.8673	1092.3584	29542.9	28651.9
859.0123	1094.3235	29398.55	28508.15
859.1573	1096.2879	29355.3	28464.75
859.3022	1098.2515	29265.3	28375.2
859.4472	1100.2145	29327.8	28439.55
859.5922	1102.1767	29217.7	28323.95
859.7371	1104.1382	29228.5	28335.8
859.8821	1106.099	29156.05	28262.55
860.027	1108.0591	29082.55	28189.4
860.172	1110.0185	28995.05	28103
860.3169	1111.9771	29045.45	28152.45
860.4619	1113.9351	28909.05	28016.55
860.6068	1115.8923	28802.9	27911.75
860.7517	1117.8488	28759.1	27865.25
860.8967	1119.8045	28577.6	27687.45
861.0416	1121.7596	28521.45	27630.65
861.1865	1123.7139	28361.6	27471.7
861.3314	1125.6675	28305.8	27417.2
861.4763	1127.6204	28324.4	27432.9
861.6212	1129.5726	28225.2	27331.15
861.7661	1131.524	28146.55	27257.45
861.911	1133.4748	28120.75	27228.4
862.0559	1135.4248	27997.95	27105.15
862.2008	1137.3741	27919.1	27028.2
862.3457	1139.3226	27843.15	26951.75
862.4905	1141.2705	27886.55	26994.95
862.6354	1143.2176	27701.85	26804.65
862.7803	1145.164	27678.25	26784.8
862.9251	1147.1097	27643.8	26750.6
863.07	1149.0546	27581.4	26689.1
863.2148	1150.9989	27523.75	26629.85
863.3597	1152.9424	27501.8	26608.85
863.5045	1154.8852	27405.9	26513.1
863.6493	1156.8272	27434.25	26542.25
863.7942	1158.7686	27424.5	26525.35
863.939	1160.7092	27307.05	26413.65
864.0838	1162.6491	27178.95	26284.3
864.2286	1164.5883	27168.3	26277.4
864.3734	1166.5267	27104.2	26211.3
864.5182	1168.4644	27140.25	26249.25
864.663	1170.4014	27056.35	26157.25
864.8078	1172.3377	27109.9	26216.5
864.9526	1174.2732	27109.2	26217.8
865.0974	1176.2081	27118.75	26227.8
865.2421	1178.1421	27165.7	26268.65
865.3869	1180.0755	27190.75	26299.05
865.5317	1182.0082	27092.2	26199.6
865.6764	1183.9401	27034.8	26142.55
865.8212	1185.8713	26888.5	25999.15
865.9659	1187.8017	26823.85	25935.7
866.1106	1189.7315	26714.9	25827.6
866.2554	1191.6605	26558.75	25671.15
866.4001	1193.5888	26404.1	25516.05
866.5448	1195.5163	26339.85	25449.45
866.6895	1197.4432	26268.4	25374.65
866.8342	1199.3693	26147.35	25254.55
866.9789	1201.2947	26020.8	25122.85
867.1236	1203.2193	25930.1	25036.6
867.2683	1205.1432	25910.25	25018.65
867.413	1207.0664	25819.45	24927.8
867.5576	1208.9889	25776.75	24883.25
867.7023	1210.9106	25652.25	24759.5
867.847	1212.8316	25552.75	24662.75
867.9916	1214.7519	25518.35	24616.1
868.1363	1216.6715	25392.4	24500.25
868.2809	1218.5903	25406.45	24514.95
868.4255	1220.5084	25387.65	24494.75
868.5701	1222.4257	25386	24494.9
868.7148	1224.3424	25251.15	24362.15
868.8594	1226.2583	25217	24321.55
869.004	1228.1735	25158.6	24265.1
869.1486	1230.0879	25063.65	24170.95
869.2932	1232.0016	25039.25	24148.35
869.4377	1233.9146	24991.95	24096.85
869.5823	1235.8269	24947.25	24055.75
869.7269	1237.7384	24907.1	24015.45
869.8715	1239.6492	24776.8	23885.9
870.016	1241.5592	24800	23907.4
870.1606	1243.4686	24731.85	23837.65
870.3051	1245.3772	24767	23874.55
870.4496	1247.285	24718.35	23826.65
870.5941	1249.1922	24689.95	23796.5
870.7387	1251.0986	24671.55	23779.95
870.8832	1253.0042	24642.05	23750.4
871.0277	1254.9092	24631.45	23739.05
871.1722	1256.8134	24612	23723.8
871.3167	1258.7169	24623	23728.15
871.4611	1260.6196	24572.9	23679.8
871.6056	1262.5216	24541.95	23647.2
871.7501	1264.4229	24477.55	23588.35
871.8945	1266.3234	24470.65	23579.7
872.039	1268.2232	24400.9	23510.05
872.1834	1270.1223	24323.05	23427.5
872.3278	1272.0207	24300.8	23408.7
872.4723	1273.9183	24218.85	23317.9
872.6167	1275.8151	24175.3	23283.25
872.7611	1277.7113	24204.05	23310.9
872.9055	1279.6067	24114.4	23224.65
873.0499	1281.5014	24158.5	23263.9
873.1943	1283.3953	24228.4	23333.7
873.3386	1285.2885	24314.95	23421.5
873.483	1287.181	24351.5	23456.2
873.6274	1289.0727	24376.65	23484.3
873.7717	1290.9637	24324.3	23430.45
873.9161	1292.854	24329.65	23435.6
874.0604	1294.7435	24214.45	23320.2
874.2047	1296.6323	24111.25	23216.8
874.349	1298.5204	24031.6	23133.5
874.4933	1300.4077	24008.85	23115.5
874.6376	1302.2943	23901.45	23010.25
874.7819	1304.1802	23883.85	22994.35
874.9262	1306.0653	23780	22885.95
875.0705	1307.9497	23674	22781.35
875.2147	1309.8333	23588.05	22695.85
875.359	1311.7162	23571.7	22677.55
875.5032	1313.5984	23505.05	22610.7
875.6475	1315.4798	23374.45	22479.4
875.7917	1317.3605	23357.75	22448.9
875.9359	1319.2405	23324.7	22429.5
876.0801	1321.1197	23270.2	22375.1
876.2243	1322.9982	23125.45	22228.25
876.3685	1324.876	23067.4	22175.95
876.5127	1326.753	22978.7	22087.1
876.6569	1328.6293	22932.05	22035.45
876.801	1330.5048	22880.8	21985.3
876.9452	1332.3796	22739.3	21846.4
877.0893	1334.2537	22712.15	21790.05
877.2335	1336.127	22624.05	21731.3
877.3776	1337.9996	22554.15	21660.3
877.5217	1339.8714	22543.9	21648.85
877.6658	1341.7426	22492.6	21551.9
877.8099	1343.6129	22474.9	21580.55
877.954	1345.4826	22361.65	21468.55
878.0981	1347.3515	22373.65	21478
878.2422	1349.2196	22295.6	21400.75
878.3862	1351.087	22323.4	21430.3
878.5303	1352.9537	22298.75	21402.5
878.6743	1354.8197	22302.5	21409.85
878.8184	1356.6849	22263.3	21368.1
878.9624	1358.5493	22213.4	21319.15
879.1064	1360.4131	22187.7	21294.5
879.2504	1362.276	22144.55	21253.6
879.3944	1364.1383	22147.8	21257.1
879.5384	1365.9998	22104.15	21204.65
879.6823	1367.8606	21999.8	21107.75
879.8263	1369.7206	21940.95	21047.95
879.9702	1371.5799	21831.75	20936.25
880.1142	1373.4384	21786	20891.3
880.2581	1375.2962	21762.25	20865.6
880.402	1377.1533	21593.25	20699.15
880.5459	1379.0096	21461.15	20568.2
880.6898	1380.8652	21387.4	20493.65
880.8337	1382.7201	21326.3	20430.1
880.9776	1384.5742	21184.15	20292.8
881.1215	1386.4275	21036.4	20141.8
881.2653	1388.2802	20974	20082.95
881.4092	1390.132	20915.9	20023.4
881.553	1391.9832	20891.85	19994.65
881.6968	1393.8336	20747.3	19853.15
881.8406	1395.6832	20679.75	19784.25
881.9844	1397.5322	20631.7	19738.2
882.1282	1399.3803	20575.7	19675.45
882.272	1401.2278	20438.8	19545.15
882.4158	1403.0745	20424.05	19531.95
882.5595	1404.9204	20340.6	19447.85
882.7033	1406.7656	20310.35	19418.6
882.847	1408.6101	20209.95	19315.25
882.9908	1410.4538	20147.2	19254.4
883.1345	1412.2968	20111.15	19217.8
883.2782	1414.139	20002.8	19109.75
883.4219	1415.9805	19999.55	19106.05
883.5656	1417.8213	19930.6	19031.25
883.7092	1419.6613	19855.25	18961.95
883.8529	1421.5006	19888.05	18994.6
883.9965	1423.3391	19857.15	18960.1
884.1402	1425.1769	19797.6	18903.2
884.2838	1427.0139	19800.75	18908.75
884.4274	1428.8502	19834.45	18939.3
884.571	1430.6858	19842.35	18947.9
884.7146	1432.5206	19775	18879.95
884.8582	1434.3547	19782.9	18888.45
885.0018	1436.188	19766.45	18872.7
885.1453	1438.0206	19725.5	18831.85
885.2889	1439.8524	19614.65	18720.05
885.4324	1441.6835	19620.25	18726.4
885.5759	1443.5139	19587.4	18689.5
885.7194	1445.3435	19505.75	18611.7
885.8629	1447.1724	19473.55	18581.45
886.0064	1449.0005	19454.45	18561.65
886.1499	1450.8279	19406.3	18512.25
886.2933	1452.6545	19382.5	18488.45
886.4368	1454.4804	19387.9	18494.3
886.5802	1456.3056	19338.3	18437.35
886.7237	1458.13	19297.7	18406.85
886.8671	1459.9536	19287.3	18393.05
887.0105	1461.7766	19208.6	18314.95
887.1539	1463.5987	19122.9	18226.55
887.2972	1465.4202	19026.35	18133.05
887.4406	1467.2409	18956.6	18061.6
887.584	1469.0608	18938.1	18045.9
887.7273	1470.88	18876.15	17983.1
887.8706	1472.6984	18819.5	17927.7
888.0139	1474.5161	18750.15	17853.4
888.1572	1476.3331	18667.95	17774.8
888.3005	1478.1493	18660.65	17767.15
888.4438	1479.9648	18636.8	17744.55
888.5871	1481.7795	18574.6	17680.4
888.7303	1483.5935	18529.6	17635.35
888.8736	1485.4067	18494.2	17601.8
889.0168	1487.2192	18496.1	17601.8
889.16	1489.031	18449	17553.45
889.3032	1490.842	18386.65	17494.6
889.4464	1492.6522	18388.6	17495.6
889.5896	1494.4618	18364.25	17470.2
889.7327	1496.2705	18293.6	17402.05
889.8759	1498.0785	18285.05	17392.7
890.019	1499.8858	18228.6	17335.3
890.1622	1501.6924	18164.4	17270.5
890.3053	1503.4981	18127.5	17235.7
890.4484	1505.3032	18093.65	17200.55
890.5914	1507.1075	18042.3	17147.6
890.7345	1508.911	18045.2	17152.2
890.8776	1510.7138	17985.8	17091.15
891.0206	1512.5159	17939.55	17046.05
891.1637	1514.3172	17868.8	16974.9
891.3067	1516.1178	17777.5	16887.4
891.4497	1517.9176	17770.5	16876.65
891.5927	1519.7166	17709.9	16819.85
891.7357	1521.515	17683.85	16786.25
891.8786	1523.3126	17633.2	16741.35
892.0216	1525.1094	17600.4	16706.75
892.1645	1526.9055	17568.2	16677.1
892.3074	1528.7008	17478.35	16586.4
892.4503	1530.4954	17390.15	16497.75
892.5932	1532.2893	17331.2	16442.85
892.7361	1534.0824	17289.95	16396.2
892.879	1535.8747	17245.1	16354
893.0218	1537.6663	17162	16272.45
893.1647	1539.4572	17138.75	16246.95
893.3075	1541.2473	17107.25	16215.7
893.4503	1543.0367	17065	16175.65
893.5931	1544.8253	16977.2	16082.25
893.7359	1546.6132	16943.7	16050
893.8787	1548.4003	16874.15	15972.45
894.0214	1550.1867	16874.5	15977.05
894.1642	1551.9723	16852.4	15957.9
894.3069	1553.7572	16821.25	15930.25
894.4496	1555.5414	16725.55	15834.2
894.5923	1557.3247	16759.35	15868.05
894.735	1559.1074	16685.45	15798.35
894.8777	1560.8893	16667.4	15776.65
895.0204	1562.6705	16652.05	15761.9
895.163	1564.4509	16641.85	15752.55
895.3056	1566.2305	16560.4	15674.25
895.4482	1568.0094	16608.4	15720.8
895.5908	1569.7876	16557.95	15670.4
895.7334	1571.565	16520.95	15633.15
895.876	1573.3417	16535.45	15648.35
896.0186	1575.1176	16450.05	15561.4
896.1611	1576.8928	16444.55	15555.95
896.3036	1578.6672	16378.05	15492.55
896.4461	1580.4409	16335.6	15452
896.5886	1582.2138	16299.75	15412.85
896.7311	1583.986	16302.35	15413.8
896.8736	1585.7575	16275.9	15390.1
897.0161	1587.5282	16272.4	15387.8
897.1585	1589.2981	16273.3	15389.6
897.3009	1591.0673	16203.85	15316.95
897.4433	1592.8358	16200.1	15313.2
897.5857	1594.6035	16188.75	15299.55
897.7281	1596.3704	16090.85	15203.15
897.8705	1598.1366	16037.1	15150.85
898.0128	1599.9021	16002.55	15116.05
898.1551	1601.6668	15963.05	15073.95
898.2975	1603.4308	15870.85	14982.75
898.4398	1605.194	15867.9	14976.9
898.5821	1606.9564	15873.8	14988.6
898.7243	1608.7182	15860.65	14974.15
898.8666	1610.4791	15874.95	14994.15
899.0088	1612.2394	15848.4	14965.7
899.1511	1613.9988	15857.85	14975.7
899.2933	1615.7576	15898.6	15015
899.4355	1617.5156	15916.8	15022.55
899.5776	1619.2728	15864.45	14975.75
899.7198	1621.0293	15796.2	14911.5
899.862	1622.785	15683.55	14797.45
900.0041	1624.54	15549.85	14661.7
900.1462	1626.2942	15419.2	14534.35
900.2883	1628.0477	15284.35	14396
900.4304	1629.8005	15210.05	14322.3
900.5725	1631.5525	15113.4	14229.05
900.7145	1633.3037	15025.55	14139.95
900.8566	1635.0542	14975.8	14094.35
900.9986	1636.804	14899.75	14012.65
901.1406	1638.553	14880.6	13949.45
901.2826	1640.3013	14752.7	13869.35
901.4245	1642.0488	14698.7	13812.1
901.5665	1643.7955	14668.9	13787.15
901.7085	1645.5416	14612.65	13726.9
901.8504	1647.2868	14591.5	13707.2
901.9923	1649.0313	14567.7	13681.5
902.1342	1650.7751	14530.9	13643.1
902.2761	1652.5181	14491.6	13607.85
902.4179	1654.2604	14465	13580.1
902.5598	1656.0019	14432.9	13548.2
902.7016	1657.7427	14433.7	13549.4
902.8434	1659.4828	14427.75	13541.9
902.9852	1661.222	14431.8	13545.5
903.127	1662.9606	14373.85	13488.5
903.2687	1664.6984	14325.45	13440.15
903.4105	1666.4354	14296.85	13412.35
903.5522	1668.1717	14238.35	13352.4
903.6939	1669.9072	14120.85	13233.95
903.8356	1671.642	14074.8	13184.75
903.9773	1673.3761	13969.5	13083
904.119	1675.1094	13911.9	13026.15
904.2606	1676.8419	13835.25	12949.55
904.4022	1678.5737	13758.4	12872.85
904.5439	1680.3048	13705.85	12820.45
904.6855	1682.0351	13623.85	12738.05
904.827	1683.7646	13572.35	12683.5
904.9686	1685.4934	13541.15	12656.4
905.1101	1687.2215	13447.85	12560.3
905.2517	1688.9488	13391.1	12506.95
905.3932	1690.6754	13333.05	12451.65
905.5347	1692.4012	13336.6	12452.5
905.6761	1694.1263	13320.85	12435.65
905.8176	1695.8506	13270.25	12384.35
905.9591	1697.5742	13224	12341.95
906.1005	1699.297	13178.05	12293.9
906.2419	1701.0191	13114.35	12232.15
906.3833	1702.7404	13051.1	12171.25
906.5246	1704.461	12973.7	12089.35
906.666	1706.1808	12936.3	12051.1
906.8073	1707.8999	12896.5	12011.4
906.9487	1709.6182	12889.45	12007.2
907.09	1711.3358	12839.9	11955.95
907.2313	1713.0527	12805.6	11924.5
907.3725	1714.7688	12738.5	11849.1
907.5138	1716.4841	12688.3	11803.05
907.655	1718.1987	12669.35	11782.4
907.7962	1719.9126	12646.5	11764.95
907.9374	1721.6257	12603.3	11717.3
908.0786	1723.338	12571.35	11687.55
908.2198	1725.0496	12507.05	11622.85
908.3609	1726.7605	12484.7	11601.2
908.502	1728.4706	12445.65	11561.35
908.6431	1730.18	12403.35	11516.25
908.7842	1731.8886	12373.9	11492.1
908.9253	1733.5964	12344.45	11453.5
909.0664	1735.3036	12327.95	11443.85
909.2074	1737.0099	12339.3	11455.9
909.3484	1738.7156	12278.4	11396.35
909.4894	1740.4204	12218.45	11332.2
909.6304	1742.1246	12225.7	11340.8
909.7714	1743.8279	12170.4	11288.1
909.9123	1745.5306	12178.6	11295.3
910.0532	1747.2325	12135.95	11252.05
910.1941	1748.9336	12092.55	11210.2
910.335	1750.634	12056.35	11171.2
910.4759	1752.3336	12051.45	11168.95
910.6168	1754.0325	12012.9	11132.3
910.7576	1755.7307	11984.65	11101.75
910.8984	1757.4281	11989.35	11107
911.0392	1759.1247	11973.65	11081.15
911.18	1760.8206	11928.25	11039.4
911.3208	1762.5158	11914.15	11026.45
911.4615	1764.2102	11874.5	10992.3
911.6022	1765.9039	11821.4	10938.05
911.7429	1767.5968	11834.7	10953.7
911.8836	1769.289	11774.65	10892.7
912.0243	1770.9804	11743.3	10856.4
912.1649	1772.6711	11749.3	10864
912.3056	1774.361	11727.4	10843.95
912.4462	1776.0502	11697.9	10813.3
912.5868	1777.7386	11679.95	10792
912.7274	1779.4263	11617.65	10736.05
912.8679	1781.1132	11634.45	10750.8
913.0084	1782.7994	11588.25	10706.4
913.149	1784.4849	11548.3	10665.65
913.2895	1786.1696	11524.25	10622.3
913.4299	1787.8535	11487.4	10604.4
913.5704	1789.5367	11486.3	10604.95
913.7108	1791.2192	11465.95	10584.85
913.8513	1792.9009	11415.55	10502.9
913.9917	1794.5818	11388.35	10503.8
914.132	1796.2621	11372.9	10492.45
914.2724	1797.9415	11323.35	10439.15
914.4128	1799.6202	11324.85	10442.75
914.5531	1801.2982	11269.65	10386.7
914.6934	1802.9755	11257.05	10372.65
914.8337	1804.6519	11221.5	10338.4
914.9739	1806.3277	11190.75	10307.8
915.1142	1808.0027	11173.3	10293.7
915.2544	1809.6769	11171.7	10289.9
915.3946	1811.3504	11150.75	10267.65
915.5348	1813.0231	11100.25	10216.65
915.675	1814.6951	11080.3	10199.35
915.8151	1816.3664	11063.85	10179
915.9553	1818.0369	11041.25	10158.2
916.0954	1819.7067	11001.55	10118.95
916.2355	1821.3757	11002.6	10115.25
916.3755	1823.044	10981.45	10097.2
916.5156	1824.7115	10928.5	10045.5
916.6556	1826.3783	10928.7	10045.8
916.7956	1828.0443	10893.35	10011.9
916.9356	1829.7096	10867.55	9984.7
917.0756	1831.3741	10850.65	9965.3
917.2155	1833.0379	10815.05	9933.35
917.3555	1834.701	10800.5	9916.05
917.4954	1836.3633	10768.8	9885.25
917.6353	1838.0248	10736.55	9853.35
917.7751	1839.6856	10748.15	9867.05
917.915	1841.3457	10739.6	9856.55
918.0548	1843.005	10683.5	9800.35
918.1946	1844.6636	10678.75	9796.6
918.3344	1846.3214	10648.55	9766.6
918.4742	1847.9785	10625.15	9742.9
918.6139	1849.6349	10618.2	9731.45
918.7537	1851.2904	10589.9	9698.45
918.8934	1852.9453	10562.95	9679
919.0331	1854.5994	10539.8	9653.75
919.1727	1856.2528	10541.5	9655.05
919.3124	1857.9054	10504.15	9621.35
919.452	1859.5572	10490.85	9609.85
919.5916	1861.2083	10465.8	9581.75
919.7312	1862.8587	10466.2	9583.9
919.8708	1864.5084	10440.4	9557.1
920.0103	1866.1572	10394.3	9510.25
920.1498	1867.8054	10391.5	9508.3
920.2893	1869.4528	10340.1	9455.65
920.4288	1871.0994	10320.75	9436.55
920.5683	1872.7453	10289.3	9402.8
920.7077	1874.3905	10287.1	9396.8
920.8471	1876.0349	10228	9345.25
920.9865	1877.6786	10244.8	9361.65
921.1259	1879.3215	10220.7	9339.1
921.2653	1880.9637	10209.8	9325.65
921.4046	1882.6051	10173.75	9291.95
921.5439	1884.2458	10145.7	9260.95
921.6832	1885.8858	10144.35	9261.1
921.8225	1887.525	10116.05	9233.3
921.9617	1889.1634	10032.65	9149.05
922.101	1890.8011	10036.35	9152.3
922.2402	1892.4381	9989.35	9105.95
922.3794	1894.0743	10042.9	9159.7
922.5185	1895.7098	9982.8	9097.95
922.6577	1897.3446	9975.9	9091.2
922.7968	1898.9786	9923.85	9035.45
922.9359	1900.6118	9934.7	9052.6
923.075	1902.2443	9881	8994.35
923.214	1903.8761	9851.65	8968.15
923.3531	1905.5071	9792.65	8908.5
923.4921	1907.1374	9786.25	8903.15
923.6311	1908.7669	9754.55	8872.5
923.77	1910.3957	9754.7	8871.9
923.909	1912.0237	9723.25	8838.8
924.0479	1913.651	9695.9	8812.75
924.1868	1915.2776	9666.95	8785.15
924.3257	1916.9034	9611.95	8729.6
924.4646	1918.5285	9579.9	8697.05
924.6034	1920.1528	9542.75	8658.6
924.7422	1921.7764	9519.5	8636.8
924.881	1923.3992	9500.35	8616.6
925.0198	1925.0213	9458.3	8576.5
925.1586	1926.6427	9407.4	8526.55
925.2973	1928.2633	9608.8	8481.55
925.436	1929.8832	9393.5	8505.75
925.5747	1931.5023	9320.5	8439
925.7134	1933.1207	9312.6	8429.3
925.852	1934.7383	9283.45	8399.95
925.9906	1936.3552	9280.5	8398.55
926.1292	1937.9714	9255.9	8371.15
926.2678	1939.5868	9225.05	8341.05
926.4064	1941.2015	9182.8	8300.3
926.5449	1942.8154	9148.65	8264.75
926.6834	1944.4286	9097.2	8214.05
926.8219	1946.041	9107.9	8203.15
926.9604	1947.6528	9013.55	8125.3
927.0988	1949.2637	9013.15	8130.5
927.2372	1950.8739	9013	8129.35
927.3756	1952.4834	8973.5	8089.6
927.514	1954.0921	8971.75	8087.25
927.6523	1955.7001	8958.15	8072.8
927.7907	1957.3074	8911.4	8030.1
927.929	1958.9139	8886.45	8004.65
928.0673	1960.5197	8838.85	7956.4
928.2055	1962.1247	8815.15	7932.7
928.3438	1963.729	8801.45	7918.4
928.482	1965.3325	8794.35	7889.55
928.6202	1966.9353	8716.9	7837.8
928.7584	1968.5374	8715.35	7833.2
928.8965	1970.1387	8686.95	7805.5
929.0346	1971.7393	8649.1	7764.25
929.1727	1973.3392	8660.2	7777.7
929.3108	1974.9383	8619.9	7740
929.4489	1976.5366	8568.15	7686.7
929.5869	1978.1342	8557.65	7676.1
929.7249	1979.7311	8527.75	7644.7
929.8629	1981.3273	8508.4	7626.85
930.0009	1982.9227	8508.7	7624.8
930.1388	1984.5173	8467.4	7587.8
930.2767	1986.1112	8420	7539.7
930.4146	1987.7044	8417.8	7535.7
930.5525	1989.2968	8406.45	7523.75
930.6904	1990.8885	8376.2	7491.9
930.8282	1992.4795	8361.2	7477.45
930.966	1994.0697	8350	7469.6
931.1038	1995.6592	8323.6	7442
931.2415	1997.2479	8298.55	7417.85
931.3793	1998.8359	8277.9	7396.05
931.517	2000.4232	8238	7356.6
931.6547	2002.0097	8206.3	7328.75
931.7923	2003.5955	8172.4	7293.3
931.93	2005.1805	8182.3	7300.15
932.0676	2006.7648	8171.85	7291.5
932.2052	2008.3484	8128.65	7245.3
932.3427	2009.9312	8149.05	7268.4
932.4803	2011.5133	8104.85	7225.3
932.6178	2013.0946	8099.7	7218.95
932.7553	2014.6752	8066	7186.35
932.8928	2016.2551	8043.65	7159.8
933.0302	2017.8342	8025.5	7146.85
933.1676	2019.4126	8004.6	7124.9
933.305	2020.9902	7956	7077.6
933.4424	2022.5672	7939.75	7059.9
933.5798	2024.1433	7932.8	7048.65
933.7171	2025.7188	7914.6	7036.65
933.8544	2027.2935	7899.25	7019.15
933.9917	2028.8674	7875.65	6994.9
934.129	2030.4406	7843.8	6965.6
934.2662	2032.0131	7807	6928.3
934.4034	2033.5849	7775.45	6891.85
934.5406	2035.1559	7755.75	6876.65
934.6778	2036.7261	7769.7	6889.4
934.8149	2038.2957	7752.45	6871.5
934.952	2039.8645	7724.85	6843.9
935.0891	2041.4325	7708.8	6825.15
935.2262	2042.9998	7678.5	6797.95
935.3632	2044.5664	7675.95	6793.7
935.5002	2046.1323	7670.3	6789.6
935.6372	2047.6974	7648.9	6767.65
935.7742	2049.2617	7606.55	6728.15
935.9111	2050.8254	7595.6	6711.35
936.048	2052.3883	7589.45	6710.2
936.1849	2053.9504	7573.2	6691.9
936.3218	2055.5118	7554.2	6672.55
936.4586	2057.0725	7531.25	6646.6
936.5955	2058.6325	7529.75	6649.5
936.7323	2060.1917	7491.45	6610.9
936.869	2061.7502	7484.4	6603.55
937.0058	2063.3079	7466.2	6587.45
937.1425	2064.8649	7438.7	6556.8
937.2792	2066.4212	7415.6	6536.1
937.4159	2067.9767	7397.75	6518.85
937.5525	2069.5315	7392.8	6513.85
937.6891	2071.0856	7348.3	6468.2
937.8257	2072.6389	7328.85	6447.55
937.9623	2074.1915	7282.75	6404.55
938.0989	2075.7433	7274.35	6391.25
938.2354	2077.2945	7253.65	6375.45
938.3719	2078.8448	7243.4	6363.25
938.5084	2080.3945	7226.65	6345.1
938.6448	2081.9434	7205.65	6325.4
938.7812	2083.4916	7183.4	6301.7
938.9176	2085.039	7179.65	6295.1
939.054	2086.5857	7155.8	6273.85
939.1903	2088.1317	7136.1	6254
939.3267	2089.677	7113.1	6230.7
939.463	2091.2215	7092.1	6208.4
939.5992	2092.7652	7080.7	6197.35
939.7355	2094.3083	7068.4	6185.55
939.8717	2095.8506	7062.4	6183.1
940.0079	2097.3921	7069.85	6189.6
940.1441	2098.933	7036.8	6155.05
940.2802	2100.4731	7023.5	6145.85
940.4163	2102.0124	7014.3	6115.05
940.5524	2103.5511	7028.75	6148.35
940.6885	2105.089	7005.6	6123
940.8245	2106.6261	6974.55	6094.2
940.9606	2108.1626	6969.4	6089.45
941.0965	2109.6983	6965.35	6055.15
941.2325	2111.2332	6927.65	6044.9
941.3684	2112.7675	6915.55	6035.35
941.5044	2114.301	6908.1	6023.5
941.6403	2115.8337	6885.95	6005.2
941.7761	2117.3657	6868.65	5986.85
941.912	2118.897	6870.4	5987.5
942.0478	2120.4276	6847.6	5960.15
942.1835	2121.9575	6799.65	5918.15
942.3193	2123.4866	6825.2	5929.9
942.455	2125.0149	6795.05	5909.8
942.5907	2126.5426	6744.55	5864.1
942.7264	2128.0695	6726.15	5841.8
942.8621	2129.5956	6708.5	5829.35
942.9977	2131.1211	6729.05	5843.6
943.1333	2132.6458	6696.2	5816.45
943.2689	2134.1698	6701.1	5818.05
943.4044	2135.693	6671.7	5788.8
943.54	2137.2155	6637.25	5755.6
943.6755	2138.7373	6657.55	5775.25
943.8109	2140.2584	6637.8	5759.2
943.9464	2141.7787	6627.85	5741.8
944.0818	2143.2983	6588.8	5710.85
944.2172	2144.8171	6564.6	5685.95
944.3526	2146.3353	6536.65	5652
944.4879	2147.8527	6508.95	5629.15
944.6232	2149.3693	6518.05	5636.15
944.7585	2150.8853	6485.5	5603.75
944.8938	2152.4005	6477.9	5597.55
945.029	2153.9149	6465.3	5582.35
945.1642	2155.4287	6428.9	5549.05
945.2994	2156.9417	6422.85	5540.25
945.4346	2158.454	6413.75	5529.2
945.5697	2159.9655	6394.05	5514.35
945.7048	2161.4764	6377.45	5496.4
945.8399	2162.9865	6373.45	5491.75
945.9749	2164.4958	6364.3	5480.6
946.1099	2166.0045	6324.75	5441.6
946.2449	2167.5124	6343.35	5462.35
946.3799	2169.0195	6302	5419.8
946.5148	2170.526	6300.7	5419.5
946.6498	2172.0317	6291.15	5409.1
946.7846	2173.5367	6264.8	5384.25
946.9195	2175.0409	6276.5	5395.95
947.0543	2176.5445	6227.65	5347.65
947.1891	2178.0473	6212.95	5332.4
947.3239	2179.5494	6192.1	5304.45
947.4587	2181.0507	6154.2	5272.6
947.5934	2182.5513	6162.3	5280.05
947.7281	2184.0512	6159.7	5277.45
947.8628	2185.5504	6141.35	5260.15
947.9974	2187.0488	6108.9	5229.35
948.132	2188.5465	6097.55	5215.65
948.2666	2190.0435	6056.95	5175.95
948.4012	2191.5397	6064.6	5184.05
948.5357	2193.0353	6059	5176.65
948.6702	2194.5301	6011.75	5128.6
948.8047	2196.0241	6002.55	5120.8
948.9392	2197.5175	5991.05	5110.15
949.0736	2199.0101	5956.2	5070.5
949.208	2200.502	5931.45	5051.75
949.3424	2201.9931	5927.35	5046.4
949.4767	2203.4835	5918.6	5036.4
949.611	2204.9733	5919.85	5037.25
949.7453	2206.4622	5889.45	5008
949.8796	2207.9505	5870.1	4987.4
950.0138	2209.438	5825.9	4947.85
950.148	2210.9248	5830.1	4946.9
950.2822	2212.4109	5820.85	4940.3
950.4164	2213.8962	5800.1	4915.25
950.5505	2215.3809	5781.05	4897
950.6846	2216.8648	5777.25	4895.65
950.8186	2218.3479	5745.5	4857.95
950.9527	2219.8304	5742.35	4856.75
951.0867	2221.3121	5720.85	4833.75
951.2207	2222.7931	5703.25	4822.2
951.3546	2224.2733	5673.6	4791.75
951.4886	2225.7529	5639.4	4755.85
951.6225	2227.2317	5651.45	4769.65
951.7563	2228.7098	5639.4	4758.55
951.8902	2230.1872	5628.55	4747.25
952.024	2231.6638	5595.45	4716.2
952.1578	2233.1397	5583.65	4695.9
952.2916	2234.6149	5575.3	4695.6
952.4253	2236.0894	5545.85	4663.7
952.559	2237.5632	5543.2	4651.7
952.6927	2239.0362	5525	4645.6
952.8263	2240.5085	5497.45	4616
952.9599	2241.9801	5483.2	4600.9
953.0935	2243.4509	5480.1	4598.85
953.2271	2244.921	5453.45	4571.5
953.3606	2246.3904	5445.2	4561.3
953.4941	2247.8591	5436.85	4555
953.6276	2249.3271	5413.35	4531.95
953.7611	2250.7943	5375.8	4492.3
953.8945	2252.2608	5379.5	4500.05
954.0279	2253.7266	5363.55	4481.45
954.1612	2255.1917	5369.75	4486.65
954.2946	2256.656	5328.45	4446.25
954.4279	2258.1197	5328.8	4448.55
954.5612	2259.5826	5323.75	4441.75
954.6944	2261.0447	5301.25	4420.25
954.8276	2262.5062	5285.75	4400.6
954.9608	2263.9669	5271.7	4387.35
955.094	2265.4269	5256.85	4376.35
955.2271	2266.8862	5250.35	4366
955.3602	2268.3448	5248.85	4366.8
955.4933	2269.8026	5235	4353
955.6264	2271.2598	5213.75	4330.65
955.7594	2272.7162	5203.55	4323.95
955.8924	2274.1719	5190.55	4307.7
956.0253	2275.6268	5180.45	4298.75
956.1583	2277.0811	5179.3	4295.75
956.2912	2278.5346	5174.45	4293.9
956.4241	2279.9874	5171.95	4290.7
956.5569	2281.4395	5143.3	4262.05
956.6897	2282.8908	5111.9	4227.3
956.8225	2284.3414	5114.25	4230.55
956.9553	2285.7914	5093.05	4210.05
957.088	2287.2406	5077.6	4193.45
957.2207	2288.689	5073.2	4189.4
957.3534	2290.1368	5076.85	4192.55
957.486	2291.5838	5045.9	4161.75
957.6186	2293.0302	5039.2	4153.7
957.7512	2294.4758	5005.25	4122.4
957.8838	2295.9206	4992.85	4107.5
958.0163	2297.3648	4959.8	4080.6
958.1488	2298.8082	4973.25	4089.35
958.2813	2300.251	4969.6	4087.65
958.4137	2301.693	4948	4063.9
958.5461	2303.1343	4938.4	4055.2
958.6785	2304.5748	4923.65	4044.65
958.8108	2306.0147	4912.2	4030.95
958.9432	2307.4538	4895.25	4011.15
959.0754	2308.8922	4885.2	4005.7
959.2077	2310.3299	4873.2	3991
959.3399	2311.7669	4849	3967.25
959.4721	2313.2031	4839.5	3957.45
959.6043	2314.6387	4835.25	3953.35
959.7365	2316.0735	4809.25	3927.85
959.8686	2317.5076	4793	3909.25
960.0006	2318.941	4789.45	3906.5
960.1327	2320.3737	4776.95	3895.5
960.2647	2321.8056	4772	3889.55
960.3967	2323.2369	4756	3873.9
960.5287	2324.6674	4755.35	3870.95
960.6606	2326.0972	4742.05	3857.65
960.7925	2327.5263	4715.45	3832.45
960.9244	2328.9547	4707.2	3825.75
961.0562	2330.3823	4690.3	3806.2
961.1881	2331.8092	4692.95	3806.75
961.3198	2333.2355	4661.1	3775.7
961.4516	2334.661	4667.65	3785.45
961.5833	2336.0858	4637.5	3751.35
961.715	2337.5098	4639.6	3757.15
961.8467	2338.9332	4628.75	3745.4
961.9783	2340.3558	4614.25	3729.2
962.1099	2341.7778	4598.95	3714.65
962.2415	2343.199	4580.4	3697.65
962.373	2344.6195	4574.05	3692.85
962.5045	2346.0393	4543.95	3660.85
962.636	2347.4583	4551.5	3670.45
962.7675	2348.8767	4553.25	3670.45
962.8989	2350.2943	4538.75	3655.9
963.0303	2351.7113	4523.55	3638.65
963.1617	2353.1275	4492.3	3608.4
963.293	2354.543	4490.3	3598.45
963.4243	2355.9578	4484.9	3603.15
963.5556	2357.3718	4441.2	3557.95
963.6868	2358.7852	4431.05	3547.2
963.818	2360.1978	4410.25	3528.3
963.9492	2361.6098	4413.7	3531.4
964.0803	2363.021	4393.4	3507.2
964.2114	2364.4315	4379.85	3498
964.3425	2365.8413	4371.95	3489.5
964.4736	2367.2504	4354.05	3473.9
964.6046	2368.6587	4331	3448.2
964.7356	2370.0664	4315.85	3435.05
964.8666	2371.4733	4301.4	3418.85
964.9975	2372.8795	4301.6	3422.45
965.1284	2374.285	4283.15	3400.4
965.2593	2375.6899	4259.4	3376.15
965.3901	2377.0939	4248.95	3368.05
965.5209	2378.4973	4213.4	3331.55
965.6517	2379.9	4216.5	3334.4
965.7825	2381.3019	4186.2	3304.05
965.9132	2382.7032	4197.65	3315.45
966.0439	2384.1037	4185.75	3305.75
966.1745	2385.5035	4157.45	3276.3
966.3051	2386.9027	4141.4	3261.1
966.4357	2388.3011	4134.4	3250.05
966.5663	2389.6987	4136.45	3255.65
966.6968	2391.0957	4115.6	3235.2
966.8273	2392.492	4089.9	3207.65
966.9578	2393.8876	4081.5	3200.25
967.0882	2395.2824	4057.45	3174.55
967.2186	2396.6765	4049.85	3167.45
967.349	2398.07	4038.7	3157.65
967.4793	2399.4627	4047.55	3164.2
967.6097	2400.8547	4022.15	3139.85
967.7399	2402.246	4022.95	3135.6
967.8702	2403.6366	4008	3126
968.0004	2405.0265	3975.2	3092.05
968.1306	2406.4156	3969.3	3082.65
968.2607	2407.8041	3949.15	3064.3
968.3909	2409.1918	3942.5	3058.1
968.521	2410.5789	3928.15	3044.95
968.651	2411.9652	3927.9	3043.35
968.781	2413.3508	3916.85	3032.8
968.911	2414.7358	3877.2	2993.6
969.041	2416.12	3871.7	2989.65
969.1709	2417.5035	3863.2	2981.75
969.3008	2418.8863	3855.95	2972.75
969.4307	2420.2684	3839.2	2956.5
969.5606	2421.6497	3829	2947.7
969.6904	2423.0304	3816.5	2934.85
969.8201	2424.4104	3791.75	2906.65
969.9499	2425.7896	3788.3	2903.85
970.0796	2427.1682	3799.35	2915.75
970.2093	2428.546	3767.4	2883.95
970.3389	2429.9232	3781.35	2898.55
970.4685	2431.2996	3757.1	2874.85
970.5981	2432.6753	3763.6	2881.65
970.7277	2434.0503	3754.7	2873
970.8572	2435.4246	3733.7	2852.35
970.9867	2436.7982	3719.5	2833.6
971.1161	2438.1711	3721.9	2841.65
971.2456	2439.5433	3705.5	2823
971.375	2440.9148	3688.2	2800.25
971.5043	2442.2856	3694.7	2812.4
971.6336	2443.6557	3677.25	2792.65
971.7629	2445.025	3668.1	2783.4
971.8922	2446.3937	3664.05	2780.4
972.0214	2447.7617	3643.65	2759.45
972.1506	2449.1289	3650.05	2766.85
972.2798	2450.4955	3645.65	2760.95
972.4089	2451.8613	3634.15	2753.55
972.538	2453.2265	3623.65	2742.15
972.6671	2454.5909	3618.95	2734.9
972.7961	2455.9546	3599.8	2717.4
972.9251	2457.3177	3591.5	2709.4
973.0541	2458.68	3602.9	2717.95
973.1831	2460.0416	3578	2695.85
973.312	2461.4025	3574.35	2692.5
973.4408	2462.7627	3580.2	2685.15
973.5697	2464.1222	3549.75	2670.9
973.6985	2465.4811	3539.15	2656.05
973.8273	2466.8392	3543.95	2662.35
973.956	2468.1966	3539.7	2655.1
974.0847	2469.5533	3534.7	2649.7
974.2134	2470.9093	3517.6	2634.9
974.3421	2472.2645	3509.75	2624.75
974.4707	2473.6191	3494.6	2612.75
974.5993	2474.973	3486.65	2602.9
974.7278	2476.3262	3491.4	2607.25
974.8563	2477.6787	3465.85	2582.75
974.9848	2479.0305	3463.95	2581.7
975.1132	2480.3816	3438.45	2555
975.2417	2481.7319	3451.75	2571.15
975.37	2483.0816	3415.05	2529.8
975.4984	2484.4306	3426.95	2545.5
975.6267	2485.7789	3419.55	2536.2
975.755	2487.1264	3394.2	2510.35
975.8833	2488.4733	3383.55	2503.85
976.0115	2489.8195	3387.4	2497.85
976.1397	2491.165	3377.05	2494.5
976.2678	2492.5097	3359.3	2475.45
976.3959	2493.8538	3344.2	2464.75
976.524	2495.1972	3331.6	2450.05
976.6521	2496.5398	3319.55	2435.7
976.7801	2497.8818	3313.7	2430.55
976.9081	2499.2231	3309.5	2425.75
977.036	2500.5637	3304.5	2419.55
977.164	2501.9035	3297.05	2413.45
977.2918	2503.2427	3295.05	2408.85
977.4197	2504.5812	3265.7	2382.7
977.5475	2505.919	3258.05	2372.95
977.6753	2507.256	3252.95	2368.2
977.8031	2508.5924	3260.25	2380.35
977.9308	2509.9281	3238.75	2349.45
978.0585	2511.2631	3231.25	2351.8
978.1861	2512.5974	3226	2343.65
978.3137	2513.9309	3225.9	2343.45
978.4413	2515.2638	3240.45	2330
978.5689	2516.596	3223.65	2343.75
978.6964	2517.9275	3198.85	2313.45
978.8239	2519.2583	3186.2	2301.2
978.9513	2520.5884	3163.6	2277.5
979.0788	2521.9178	3170.35	2286.8
979.2062	2523.2465	3158.85	2277.3
979.3335	2524.5745	3136.5	2253.65
979.4608	2525.9018	3136.35	2254.15
979.5881	2527.2284	3136.15	2253.15
979.7154	2528.5543	3126.7	2245.05
979.8426	2529.8796	3115.65	2234.05
979.9698	2531.2041	3110.35	2228.25
980.0969	2532.5279	3111.1	2230.5
980.224	2533.851	3101.1	2217.15
980.3511	2535.1735	3095.75	2214.25
980.4781	2536.4952	3094.3	2212.15
980.6052	2537.8163	3089.6	2207.3
980.7321	2539.1366	3075.1	2193.6
980.8591	2540.4562	3073.15	2189.45
980.986	2541.7752	3076.15	2193.3
981.1129	2543.0935	3057.45	2174.6
981.2397	2544.411	3065.4	2180.9
981.3665	2545.7279	3057.2	2175.7
981.4933	2547.0441	3045.7	2161.8
981.62	2548.3596	3038.65	2153.5
981.7467	2549.6744	3030.95	2149.55
981.8734	2550.9885	3034	2142.7
982.0001	2552.3019	3007.35	2128.05
982.1267	2553.6146	3009.9	2126.6
982.2532	2554.9266	2998.15	2115.55
982.3798	2556.2379	2998.25	2114.05
982.5063	2557.5485	3002.2	2118.9
982.6327	2558.8585	2990.25	2101.6
982.7592	2560.1677	2983.7	2097.5
982.8856	2561.4762	2975.95	2092.7
983.0119	2562.7841	2988.55	2102.55
983.1383	2564.0913	2968.05	2085.15
983.2646	2565.3977	2965.4	2082.3
983.3908	2566.7035	2955.5	2072.6
983.517	2568.0086	2964.75	2079.95
983.6432	2569.313	2940.95	2058.15
983.7694	2570.6167	2943.55	2057.95
983.8955	2571.9197	2941.65	2058.35
984.0216	2573.222	2933.8	2048.3
984.1476	2574.5236	2927.05	2043.6
984.2737	2575.8246	2919.9	2036.4
984.3996	2577.1248	2919.7	2033.7
984.5256	2578.4244	2909.45	2027
984.6515	2579.7232	2910.1	2027.95
984.7774	2581.0214	2932.65	2022.7
984.9032	2582.3189	2897.2	2017.5
985.029	2583.6157	2890.65	2003.35
985.1548	2584.9118	2884.65	2001.7
985.2806	2586.2072	2885.3	2003.5
985.4063	2587.5019	2869.4	1985.55
985.5319	2588.7959	2869.55	1987.8
985.6576	2590.0893	2852.7	1967.5
985.7832	2591.3819	2845.55	1964.9
985.9087	2592.6739	2834.7	1953.15
986.0343	2593.9652	2827.5	1942.35
986.1597	2595.2557	2814.05	1932.3
986.2852	2596.5456	2813.25	1929.4
986.4106	2597.8348	2813.7	1930.65
986.536	2599.1234	2790	1910.05
986.6614	2600.4112	2790.9	1907.8
986.7867	2601.6983	2791.85	1905.5
986.912	2602.9848	2781.5	1898.5
987.0372	2604.2705	2772.5	1882.55
987.1624	2605.5556	2770.95	1890.2
987.2876	2606.84	2755.3	1872.65
987.4128	2608.1237	2750	1868.75
987.5379	2609.4067	2737.2	1854.6
987.6629	2610.689	2737.55	1847.55
987.788	2611.9707	2718.95	1834.4
987.913	2613.2516	2720.9	1834.5
988.0379	2614.5319	2696.75	1815.15
988.1629	2615.8115	2695.45	1811.35
988.2878	2617.0903	2686.6	1802.55
988.4126	2618.3685	2687.7	1804.9
988.5375	2619.6461	2668.25	1784.35
988.6622	2620.9229	2682.2	1801.3
988.787	2622.199	2663.85	1778.3
988.9117	2623.4745	2657.55	1775.35
989.0364	2624.7493	2660.35	1779
989.161	2626.0234	2655	1775.8
989.2857	2627.2968	2636	1755.35
989.4102	2628.5695	2635.9	1754.4
989.5348	2629.8415	2622.9	1742.45
989.6593	2631.1128	2605.9	1724.05
989.7837	2632.3835	2597.6	1716.75
989.9082	2633.6535	2598.45	1716.35
990.0326	2634.9228	2581.75	1700.65
990.1569	2636.1914	2581.5	1701.2
990.2812	2637.4593	2594.1	1708.8
990.4055	2638.7265	2581.4	1697.45
990.5298	2639.9931	2562.05	1682
990.654	2641.259	2570.2	1686.5
990.7782	2642.5242	2562.1	1677
990.9023	2643.7887	2540	1659.4
991.0264	2645.0525	2548.85	1666.35
991.1505	2646.3156	2533.55	1650.15
991.2745	2647.5781	2531.55	1650.5
991.3985	2648.8398	2522.5	1642.65
991.5225	2650.1009	2519.1	1626.05
991.6464	2651.3613	2513.15	1630.35
991.7703	2652.6211	2511.75	1629.1
991.8942	2653.8801	2500.1	1618.15
992.018	2655.1385	2503.05	1618.05
992.1418	2656.3961	2490.35	1608.5
992.2655	2657.6531	2492.25	1612.5
992.3892	2658.9094	2489.85	1607.45
992.5129	2660.1651	2486.1	1604.75
992.6366	2661.42	2474.3	1592.55
992.7602	2662.6743	2482.45	1600.35
992.8837	2663.9279	2459.7	1577.35
993.0073	2665.1808	2459.75	1574.85
993.1307	2666.433	2451.3	1567.1
993.2542	2667.6846	2441.9	1558.6
993.3776	2668.9354	2444.65	1560.45
993.501	2670.1856	2439.05	1555.2
993.6244	2671.4351	2431.85	1550.25
993.7477	2672.6839	2423.55	1540.7
993.8709	2673.9321	2418.1	1535.4
993.9942	2675.1795	2416.55	1533.65
994.1174	2676.4263	2413.05	1529.85
994.2405	2677.6724	2417.1	1536.4
994.3637	2678.9179	2398.45	1517.3
994.4868	2680.1626	2389.45	1508.85
994.6098	2681.4067	2380.3	1497.5
994.7328	2682.6501	2381.75	1499.8
994.8558	2683.8928	2388.35	1508.45
994.9788	2685.1348	2375.55	1493.9
995.1017	2686.3761	2365.05	1484.1
995.2245	2687.6168	2361.5	1481.85
995.3474	2688.8568	2349.8	1469
995.4702	2690.0961	2339.65	1459.25
995.5929	2691.3348	2345.25	1463.95
995.7156	2692.5727	2341.6	1458.65
995.8383	2693.81	2332.95	1451.15
995.961	2695.0466	2327.3	1447.45
996.0836	2696.2826	2319.9	1435
996.2062	2697.5178	2337.1	1435.05
996.3287	2698.7524	2320.9	1439.45
996.4512	2699.9863	2311.45	1427.35
996.5737	2701.2195	2308.95	1428
996.6961	2702.452	2302.4	1419.45
996.8185	2703.6839	2293.4	1411.25
996.9408	2704.9151	2296.65	1415.65
997.0631	2706.1456	2297.95	1415.5
997.1854	2707.3755	2272.85	1389.3
997.3077	2708.6046	2287.95	1403.85
997.4299	2709.8331	2274.65	1393.3
997.552	2711.0609	2271.55	1389.6
997.6742	2712.2881	2267.65	1386.75
997.7963	2713.5145	2265.75	1382.95
997.9183	2714.7403	2255.2	1375.25
998.0403	2715.9654	2232.1	1350.35
998.1623	2717.1899	2246.3	1351.35
998.2842	2718.4136	2225.7	1344.1
998.4062	2719.6367	2230.75	1348.35
998.528	2720.8591	2230.7	1343.8
998.6498	2722.0809	2220.55	1338.1
998.7716	2723.3019	2222.5	1337.2
998.8934	2724.5223	2212.5	1332.1
999.0151	2725.7421	2204.25	1320.05
999.1368	2726.9611	2210.1	1328.2
999.2584	2728.1795	2193.85	1306.95
999.38	2729.3972	2180.85	1299.55
999.5016	2730.6142	2188.65	1292.85
999.6231	2731.8306	2175.55	1292.35
999.7446	2733.0462	2173.85	1290
999.8661	2734.2612	2163.25	1277.2
999.9875	2735.4756	2152.45	1267.85
1000.1089	2736.6892	2144.95	1263.05
1000.2302	2737.9022	2136.55	1255.35
1000.3515	2739.1145	2134.15	1252.45
1000.4728	2740.3262	2135.8	1245.45
1000.594	2741.5372	2124.8	1243.9
1000.7152	2742.7475	2120.3	1239.25
1000.8363	2743.9571	2126.7	1244.15
1000.9575	2745.1661	2113.45	1227.35
1001.0785	2746.3744	2106.85	1224.6
1001.1996	2747.582	2099.55	1217.35
1001.3206	2748.7889	2095.65	1213.15
1001.4415	2749.9952	2088.1	1207.1
1001.5625	2751.2008	2072.8	1189.55
1001.6833	2752.4057	2083.1	1199.1
1001.8042	2753.61	2076.65	1195.35
1001.925	2754.8136	2082.35	1197.5
1002.0458	2756.0165	2067.65	1187.7
1002.1665	2757.2188	2060.9	1180.3
1002.2872	2758.4204	2060.95	1178.9
1002.4078	2759.6213	2048.6	1164.95
1002.5285	2760.8215	2059.2	1173.45
1002.649	2762.0211	2046.7	1163.65
1002.7696	2763.22	2044.65	1159.65
1002.8901	2764.4182	2040.6	1159.85
1003.0106	2765.6158	2027	1145.1
1003.131	2766.8127	2031.95	1151.3
1003.2514	2768.009	2025.35	1145.25
1003.3717	2769.2045	2023.4	1140.85
1003.492	2770.3994	2019.7	1135.2
1003.6123	2771.5936	2008	1125.5
1003.7325	2772.7872	2010.75	1131.5
1003.8527	2773.9801	1998.25	1114.4
1003.9729	2775.1723	2005.3	1106.75
1004.093	2776.3639	1995.6	1114.95
1004.2131	2777.5548	1981.7	1099.85
1004.3331	2778.745	1981.85	1099.95
1004.4531	2779.9346	1980.55	1100
1004.5731	2781.1235	1967.85	1084.6
1004.693	2782.3117	1969.85	1090.7
1004.8129	2783.4992	1968.55	1087.8
1004.9328	2784.6861	1959.75	1075.65
1005.0526	2785.8723	1960.1	1076.8
1005.1723	2787.0579	1949.9	1069.3
1005.2921	2788.2428	1948.05	1067.35
1005.4118	2789.427	1945.95	1065.05
1005.5314	2790.6106	1945.75	1065.8
1005.651	2791.7935	1942.3	1059.85
1005.7706	2792.9757	1929.9	1047.65
1005.8902	2794.1573	1925.15	1043
1006.0097	2795.3382	1920.6	1039.3
1006.1291	2796.5184	1912.1	1032
1006.2485	2797.698	1916.25	1034
1006.3679	2798.8769	1918.6	1037.5
1006.4873	2800.0551	1916.55	1035.2
1006.6066	2801.2327	1898.35	1015.1
1006.7258	2802.4096	1888.5	1008.35
1006.8451	2803.5859	1887.05	1005.05
1006.9642	2804.7615	1891.05	1013.15
1007.0834	2805.9364	1892.65	1010.5
1007.2025	2807.1106	1892.9	1012.45
1007.3216	2808.2842	1889.15	1006.05
1007.4406	2809.4572	1883.2	1003.75
1007.5596	2810.6294	1882.75	1000.7
1007.6785	2811.801	1879.35	998.7
1007.7975	2812.972	1879.45	999.95
1007.9163	2814.1423	1868.2	987.25
1008.0352	2815.3119	1874.6	992.25
1008.154	2816.4808	1875.7	993.4
1008.2727	2817.6491	1883.15	1002.45
1008.3914	2818.8167	1879.35	999.85
1008.5101	2819.9837	1872.85	989.15
1008.6288	2821.15	1890.75	1011.4
1008.7474	2822.3157	1891.5	1012.3
1008.8659	2823.4807	1904.4	1022.55
1008.9844	2824.645	1898.85	1017.7
1009.1029	2825.8086	1894.1	1014.2
1009.2214	2826.9716	1893.7	1013.8
1009.3398	2828.134	1913.3	1035.2
1009.4581	2829.2957	1906.5	1024.25
1009.5764	2830.4567	1910	1029.75
1009.6947	2831.617	1919.9	1040.45
1009.813	2832.7767	1916.75	1036.45
1009.9312	2833.9358	1904.2	1023.6
1010.0493	2835.0941	1901	1018.6
1010.1675	2836.2519	1897.55	1017.9
1010.2855	2837.4089	1897.5	1014.45
1010.4036	2838.5653	1889.25	1008.6
1010.5216	2839.7211	1888.55	1008.75
1010.6396	2840.8761	1880.8	997.9
1010.7575	2842.0306	1879.25	1001.5
1010.8754	2843.1843	1882.35	1002.4
1010.9932	2844.3374	1876.6	995.35
1011.111	2845.4899	1889	1007.2
1011.2288	2846.6417	1882.75	1002
1011.3465	2847.7928	1877.7	998.85
1011.4642	2848.9433	1883.9	1003.75
1011.5818	2850.0931	1882.85	1001.85
1011.6995	2851.2422	1889.1	1006.4
1011.817	2852.3907	1898.05	1015.3
1011.9345	2853.5385	1892.25	1011.4
1012.052	2854.6857	1903.9	1014.55
1012.1695	2855.8323	1889.85	1010.15
1012.2869	2856.9781	1892.55	1014.1
1012.4042	2858.1233	1893.8	1013.45
1012.5216	2859.2679	1898.7	1019.45
1012.6389	2860.4118	1895.75	1013.6
1012.7561	2861.555	1895.9	1009.3
1012.8733	2862.6976	1896.55	1014.1
1012.9905	2863.8395	1892.95	1012.2
1013.1076	2864.9808	1898.75	1019.15
1013.2247	2866.1214	1892.9	1015.45
1013.3417	2867.2614	1892	1011.15
1013.4587	2868.4007	1888.05	1006.85
1013.5757	2869.5393	1877.75	996.1
1013.6926	2870.6773	1881.05	996.55
1013.8095	2871.8146	1876.05	991.65
1013.9263	2872.9513	1881.3	998.1
1014.0431	2874.0874	1877.65	998.75
1014.1599	2875.2227	1870.9	988.7
1014.2766	2876.3574	1870.9	991.75
1014.3933	2877.4915	1867.6	988.6
1014.51	2878.6249	1855	974.4
1014.6266	2879.7577	1863.9	983.05
1014.7431	2880.8898	1862.65	971.35
1014.8596	2882.0212	1851.45	971.1
1014.9761	2883.152	1847.75	967.1
1015.0925	2884.2821	1841.55	962.25
1015.2089	2885.4116	1845.8	968.4
1015.3253	2886.5405	1835.65	955.65
1015.4416	2887.6686	1843.35	959.85
1015.5579	2888.7962	1825.75	946.4
1015.6741	2889.923	1827.85	947.9
1015.7903	2891.0493	1830.55	950.25
1015.9065	2892.1748	1830.95	948.2
1016.0226	2893.2997	1821	939.4
1016.1387	2894.424	1818.8	939.9
1016.2547	2895.5476	1815.25	934.85
1016.3707	2896.6706	1812.6	933.6
1016.4866	2897.7929	1810.1	927.9
1016.6025	2898.9145	1807.4	928.1
1016.7184	2900.0355	1802.4	922.65
1016.8342	2901.1559	1800.7	917.8
1016.95	2902.2756	1806.3	926.5
1017.0658	2903.3946	1809.2	929.05
1017.1815	2904.513	1809.6	925.75
1017.2971	2905.6308	1798.6	919.8
1017.4127	2906.7479	1798.4	917.6
1017.5283	2907.8643	1792	909.8
1017.6439	2908.9801	1794.25	913.75
1017.7594	2910.0953	1792.65	911.5
1017.8748	2911.2098	1793.2	909.5
1017.9902	2912.3236	1787.65	899.5
1018.1056	2913.4368	1781.8	900
1018.2209	2914.5494	1768.05	886.65
1018.3362	2915.6613	1774.1	888.2
1018.4515	2916.7725	1766.35	884.6
1018.5667	2917.8831	1761.8	880.05
1018.6819	2918.9931	1752.85	869.65
1018.797	2920.1024	1753.6	871.95
1018.9121	2921.211	1734.25	853.9
1019.0271	2922.319	1749.15	868.9
1019.1421	2923.4264	1730.1	852.2
1019.2571	2924.5331	1733.45	854.45
1019.372	2925.6391	1731.65	850.85
1019.4869	2926.7445	1729.35	851.95
1019.6017	2927.8493	1719.4	837.85
1019.7165	2928.9534	1720.2	841.7
1019.8313	2930.0569	1726.65	843.9
1019.946	2931.1597	1724.9	845.85
1020.0606	2932.2619	1721.1	842.25
1020.1753	2933.3634	1716.3	836.55
1020.2899	2934.4643	1728.65	839.5
1020.4044	2935.5645	1715.75	829.6
1020.5189	2936.6641	1712.95	828.85
1020.6334	2937.763	1704.7	824.8
1020.7478	2938.8613	1698.65	816.45
1020.8622	2939.959	1705.4	820.7
1020.9765	2941.056	1681.35	801.8
1021.0908	2942.1523	1678.7	798.65
1021.2051	2943.248	1666.3	786.2
1021.3193	2944.3431	1649.5	771.35
1021.4334	2945.4375	1635.45	754
1021.5476	2946.5313	1629.35	752.1
1021.6617	2947.6244	1618.45	737.4
1021.7757	2948.7169	1599.25	717.85
1021.8897	2949.8087	1592	708.5
1022.0037	2950.8999	1584.8	706.15
1022.1176	2951.9904	1575.85	697.15
1022.2315	2953.0803	1564.25	684
1022.3453	2954.1696	1557	676.8
1022.4591	2955.2582	1549.65	670.5
1022.5728	2956.3462	1542.2	663.65
1022.6865	2957.4335	1536.45	655.45
1022.8002	2958.5202	1539.8	657.25
1022.9138	2959.6062	1524	645.75
1023.0274	2960.6916	1527.55	647.5
1023.141	2961.7764	1522.15	640.35
1023.2545	2962.8605	1514.1	634.9
1023.3679	2963.9439	1514.4	635.3
1023.4813	2965.0267	1510.45	628.8
1023.5947	2966.1089	1524.55	622.7
1023.708	2967.1905	1502.15	623.1
1023.8213	2968.2714	1497.45	617.2
1023.9346	2969.3516	1495.4	613.75
1024.0478	2970.4312	1500.05	613.9
1024.1609	2971.5102	1489.3	610.45
1024.274	2972.5885	1492.3	613.95
1024.3871	2973.6662	1491.25	606.05
1024.5002	2974.7432	1492.85	614.1
1024.6132	2975.8196	1480.15	598.8
1024.7261	2976.8954	1480.95	602.05
1024.839	2977.9705	1477.25	597.95
1024.9519	2979.045	1475.25	596.25
1025.0647	2980.1188	1471.65	592.95
1025.1775	2981.192	1462.8	584.15
1025.2902	2982.2645	1466.05	584.9
1025.4029	2983.3364	1455.6	576.3
1025.5156	2984.4077	1450.1	570.6
1025.6282	2985.4783	1464.35	578.35
1025.7407	2986.5483	1445.5	568.9
1025.8532	2987.6177	1437.05	557.05
1025.9657	2988.6864	1442.7	562.6
1026.0782	2989.7545	1424.6	543.45
1026.1906	2990.8219	1428.55	549.65
1026.3029	2991.8887	1426.7	546.15
1026.4152	2992.9548	1416.15	533.95
1026.5275	2994.0204	1413	534.95
1026.6397	2995.0852	1400.8	520.3
1026.7519	2996.1495	1404.75	523.7
1026.864	2997.2131	1398.25	519.7
1026.9761	2998.276	1393.2	512.85
1027.0882	2999.3383	1391.8	512.15
1027.2002	3000.4	1382.85	503.1
1027.3122	3001.4611	1379.3	499.15
1027.4241	3002.5215	1373.55	492.55
1027.536	3003.5812	1372.15	491.5
1027.6478	3004.6404	1366.5	487.1
1027.7596	3005.6989	1366.7	486
1027.8714	3006.7567	1363.9	485.85
1027.9831	3007.8139	1380.5	477.9
1028.0947	3008.8705	1360	481.25
1028.2064	3009.9264	1358.6	475.35
1028.3179	3010.9818	1350.55	472.1
1028.4295	3012.0364	1348.65	468.05
1028.541	3013.0905	1344.65	463.15
1028.6524	3014.1439	1341.6	462.05
1028.7638	3015.1966	1345.05	464.6
1028.8752	3016.2487	1337.9	458.15
1028.9865	3017.3002	1344.9	460.45
1029.0978	3018.3511	1336.4	458.2
1029.209	3019.4013	1337.05	456
1029.3202	3020.4509	1330.05	451.7
1029.4314	3021.4998	1334.65	452.95
1029.5425	3022.5481	1328.15	448.55
1029.6535	3023.5958	1331	450.4
1029.7645	3024.6428	1324.8	445.5
1029.8755	3025.6892	1315.5	437.4
1029.9864	3026.735	1321.6	443.3
1030.0973	3027.7802	1322.05	442.25
1030.2082	3028.8247	1301.9	422.9
1030.319	3029.8685	1313.2	433.85
1030.4297	3030.9118	1312.8	433.35
1030.5404	3031.9544	1304.65	423.75
1030.6511	3032.9963	1307.3	428.55
1030.7617	3034.0376	1300.55	422.45
1030.8723	3035.0783	1307.25	425.05
1030.9829	3036.1184	1303.6	421.85
1031.0934	3037.1578	1302.95	424.6
1031.2038	3038.1966	1305.5	425.15
1031.3142	3039.2348	1305.7	427.15
1031.4246	3040.2723	1303.75	414.75
1031.5349	3041.3092	1299.4	422.85
1031.6452	3042.3455	1294.85	414.05
1031.7554	3043.3811	1290.55	409.4
1031.8656	3044.4161	1286.9	408.05
1031.9758	3045.4505	1289.4	410.75
1032.0859	3046.4842	1288.4	409.15
1032.1959	3047.5173	1280.25	403.45
1032.3059	3048.5498	1287.6	407.8
1032.4159	3049.5816	1285.1	404.85
1032.5258	3050.6128	1279.5	400.3
1032.6357	3051.6434	1281.7	400.55
1032.7455	3052.6734	1277.4	396.8
1032.8553	3053.7027	1277.75	396.25
1032.9651	3054.7314	1274.25	393.35
1033.0748	3055.7594	1269.7	390.15
1033.1845	3056.7868	1272.8	392.7
1033.2941	3057.8136	1271.25	391.5
1033.4037	3058.8398	1270.4	391.95
1033.5132	3059.8653	1269.6	391.95
1033.6227	3060.8902	1265.35	385.6
1033.7321	3061.9145	1265.15	387.45
1033.8415	3062.9381	1259.25	380.4
1033.9509	3063.9612	1274.4	378.3
1034.0602	3064.9835	1255.5	374.65
1034.1694	3066.0053	1258.85	377.65
1034.2787	3067.0264	1257.25	378
1034.3878	3068.0469	1257.75	376.5
1034.497	3069.0668	1253.1	369.65
1034.6061	3070.086	1249.9	372.5
1034.7151	3071.1046	1250.05	371.7
1034.8241	3072.1226	1252.25	372.25
1034.9331	3073.1399	1240.3	361.5
1035.042	3074.1567	1245.55	366.9
1035.1508	3075.1727	1241	357.85
1035.2597	3076.1882	1234.95	355.95
1035.3684	3077.203	1241.45	361.75
1035.4772	3078.2173	1234.55	354.8
1035.5859	3079.2308	1236.35	353.85
1035.6945	3080.2438	1229.6	347.2
1035.8031	3081.2561	1220.85	340.15
1035.9117	3082.2678	1228.05	348.05
1036.0202	3083.2789	1230.25	349.95
1036.1286	3084.2893	1223.85	345.75
1036.2371	3085.2991	1215.8	335.4
1036.3454	3086.3083	1225.05	341.9
1036.4538	3087.3169	1221.2	339.65
1036.562	3088.3248	1215.55	335
1036.6703	3089.3321	1215.65	335.1
1036.7785	3090.3388	1208.2	330.85
1036.8866	3091.3449	1207.3	326.95
1036.9948	3092.3503	1210.95	331.2
1037.1028	3093.3551	1205.3	326.95
1037.2108	3094.3593	1207.2	327.75
1037.3188	3095.3629	1204.7	328.3
1037.4267	3096.3658	1211.15	329.4
1037.5346	3097.3681	1201.75	322
1037.6425	3098.3698	1200.45	319.5
1037.7503	3099.3708	1203	318.35
1037.858	3100.3713	1202.9	323.6
1037.9657	3101.3711	1192.75	312.65
1038.0734	3102.3702	1320.15	303.1
1038.181	3103.3688	1199.75	320.15
1038.2886	3104.3667	1186.75	309.6
1038.3961	3105.364	1187.75	308.55
1038.5036	3106.3607	1189.25	308.4
1038.611	3107.3568	1182.5	301.45
1038.7184	3108.3522	1180.7	303.35
1038.8257	3109.347	1181.55	302.45
1038.933	3110.3412	1179.55	296.3
1039.0403	3111.3348	1178.8	299.3
1039.1475	3112.3277	1174.1	294.3
1039.2547	3113.32	1169.05	291.9
1039.3618	3114.3117	1165.35	287.05
1039.4689	3115.3028	1164	284.35
1039.5759	3116.2932	1168.7	287.3
1039.6829	3117.2831	1171.6	285.6
1039.7898	3118.2723	1161.5	284.35
1039.8967	3119.2608	1163.7	284
1040.0035	3120.2488	1156.25	275.55
1040.1103	3121.2361	1160.2	280.6
1040.2171	3122.2229	1155.5	277.1
1040.3238	3123.209	1157.25	275
1040.4305	3124.1944	1154.1	276.3
1040.5371	3125.1793	1157.15	274.7
1040.6437	3126.1635	1146.3	270.85
1040.7502	3127.1471	1144.45	264.8
1040.8567	3128.1301	1145.7	265.9
1040.9631	3129.1125	1147	267.55
1041.0695	3130.0942	1145.3	267.2
1041.1759	3131.0753	1157.7	269.95
1041.2822	3132.0558	1149.8	268
1041.3884	3133.0357	1139.95	258.25
1041.4946	3134.015	1140.6	259.95
1041.6008	3134.9936	1140.3	258.65
1041.7069	3135.9716	1164.35	262.7
1041.813	3136.949	1136.15	257.65
1041.919	3137.9258	1144.75	258.6
1042.025	3138.902	1140.25	256.55
1042.1309	3139.8775	1138.65	260.35
1042.2368	3140.8524	1138.2	259
1042.3427	3141.8267	1132.15	249.5
1042.4485	3142.8004	1135.45	254.65
1042.5542	3143.7735	1133.75	247.8
1042.6599	3144.7459	1130.95	250.1
1042.7656	3145.7178	1123.4	245.25
1042.8712	3146.689	1125.05	246.3
1042.9768	3147.6596	1123.4	242.55
1043.0823	3148.6295	1124.15	245.2
1043.1878	3149.5989	1125.25	246.7
1043.2932	3150.5676	1121.65	244.3
1043.3986	3151.5357	1116.3	239.35
1043.5039	3152.5032	1113.8	235.35
1043.6092	3153.4701	1115.2	235.9
1043.7145	3154.4364	1119.8	238.85
1043.8197	3155.402	1113.55	237.35
1043.9248	3156.367	1117.75	235.4
1044.03	3157.3315	1153	235.1
1044.135	3158.2952	1112.15	232.5
1044.24	3159.2584	1107.3	228.4
1044.345	3160.221	1105.05	222.7
1044.4499	3161.1829	1108.75	228.35
1044.5548	3162.1442	1104.6	226.05
1044.6596	3163.105	1104.05	225.45
1044.7644	3164.065	1102.65	224.45
1044.8692	3165.0245	1101.7	220.45
1044.9739	3165.9834	1096.6	220.55
1045.0785	3166.9416	1101.05	220.95
1045.1831	3167.8993	1097.95	217.15
1045.2877	3168.8563	1096.65	215.25
1045.3922	3169.8127	1093.3	214.5
1045.4966	3170.7684	1090.2	211.2
1045.6011	3171.7236	1096.15	215.75
1045.7054	3172.6782	1094	214.75
1045.8098	3173.6321	1095.2	216
1045.914	3174.5854	1097.1	214.55
1046.0183	3175.5381	1087.7	208
1046.1224	3176.4902	1088.85	210.7
1046.2266	3177.4417	1085	206.25
1046.3307	3178.3926	1082.95	204.45
1046.4347	3179.3428	1086.5	208.4
1046.5387	3180.2924	1083.8	204.05
1046.6427	3181.2415	1086.2	206.05
1046.7466	3182.1899	1080.6	200.85
1046.8504	3183.1377	1079.55	202.5
1046.9542	3184.0848	1081.65	199.8
1047.058	3185.0314	1079.9	200.4
1047.1617	3185.9773	1077	196.8
1047.2654	3186.9227	1073.85	194.75
1047.369	3187.8674	1073.4	194.05
1047.4726	3188.8115	1074.85	190.4
1047.5761	3189.755	1070.2	190.6
1047.6796	3190.6979	1069.2	188.8
1047.783	3191.6402	1070.4	191.2
1047.8864	3192.5818	1072.95	194.5
1047.9898	3193.5229	1081.55	184.55
1048.0931	3194.4633	1066.75	187.8
1048.1963	3195.4031	1066.35	187.8
1048.2995	3196.3423	1063.25	183.55
1048.4027	3197.2809	1064.4	184.85
1048.5058	3198.2189	1062.45	183.2
1048.6089	3199.1563	1079.4	180.75
1048.7119	3200.0931	1061.9	184.9
1048.8148	3201.0292	1054.4	176.9
1048.9178	3201.9648	1057	177.95
1049.0206	3202.8997	1057.95	176
1049.1235	3203.834	1058.45	178.7
1049.2262	3204.7677	1057.4	179.45
1049.329	3205.7008	1060.05	179.85
1049.4317	3206.6333	1054.15	176.4
1049.5343	3207.5652	1054.5	172.75
1049.6369	3208.4964	1052.85	174.45
1049.7394	3209.4271	1050	170.85
1049.8419	3210.3571	1050.5	172.35
1049.9444	3211.2865	1050.7	171.2
1050.0468	3212.2154	1050.4	170.95
1050.1491	3213.1436	1054.5	172.45
1050.2514	3214.0712	1055	170.55
1050.3537	3214.9982	1045.25	164.3
1050.4559	3215.9246	1045.25	164.75
1050.5581	3216.8503	1043.2	166.2
1050.6602	3217.7755	1049.75	169.05
1050.7623	3218.7001	1043.8	165.95
1050.8643	3219.624	1046.65	165.75
1050.9663	3220.5473	1040	161.6
1051.0682	3221.4701	1043.9	165.15
1051.1701	3222.3922	1038.4	155.9
1051.2719	3223.3137	1037.95	158.85
1051.3737	3224.2346	1041.3	161.75
1051.4754	3225.1549	1033.9	154.5
1051.5771	3226.0746	1037.8	157.65
1051.6788	3226.9937	1034.35	153.6
1051.7804	3227.9121	1033.4	153.85
1051.8819	3228.83	1034.45	156.8
1051.9834	3229.7473	1035.75	156.1
1052.0849	3230.6639	1033.75	156.7
1052.1863	3231.5799	1028.8	151.25
1052.2876	3232.4954	1032.45	152.25
1052.3889	3233.4102	1030.65	152.25
1052.4902	3234.3244	1027.65	147.95
1052.5914	3235.238	1030.7	150.55
1052.6926	3236.151	1052.3	148
1052.7937	3237.0634	1024.35	148.3
1052.8948	3237.9752	1028	149.65
1052.9958	3238.8864	1022.75	142.85
1053.0968	3239.797	1023.75	146.7
1053.1977	3240.7069	1023.6	143.5
1053.2986	3241.6163	1022.4	141.25
1053.3994	3242.5251	1019.8	143.2
1053.5002	3243.4332	1018.6	140.65
1053.6009	3244.3408	1021.05	140.55
1053.7016	3245.2477	1019.35	138.35
1053.8022	3246.154	1022.75	142.4
1053.9028	3247.0598	1014.95	135.25
1054.0034	3247.9649	1014.4	134.3
1054.1039	3248.8694	1016.1	136.1
1054.2043	3249.7733	1014.7	135.7
1054.3047	3250.6766	1015.35	135
1054.4051	3251.5793	1012.95	134.1
1054.5054	3252.4814	1016.2	135.9
1054.6056	3253.3829	1013.35	134.5
1054.7058	3254.2838	1013	134.35
1054.806	3255.1841	1010.65	131.85
1054.9061	3256.0838	1011.1	131.5
1055.0061	3256.9829	1005.4	125.3
1055.1062	3257.8814	1007.5	127.25
1055.2061	3258.7792	1009	128.1
1055.306	3259.6765	1004.55	123.9
1055.4059	3260.5731	1003.85	127.55
1055.5057	3261.4692	997.9	119.35
1055.6055	3262.3647	998.75	117.55
1055.7052	3263.2595	998.5	121.35
1055.8049	3264.1538	998.4	118.1
1055.9045	3265.0474	997.1	117.4
1056.0041	3265.9404	996.65	117.85
1056.1036	3266.8329	992.6	115.1
1056.2031	3267.7247	1000.5	111.2
1056.3025	3268.616	986.9	110.55
1056.4019	3269.5066	984.75	106.35
1056.5013	3270.3966	979.25	96.6
1056.6005	3271.286	977	98.75
