Software Version:	3.9.2.0
Unit SN:	10000200
Spectrometer SN:	6960
Date:	3/6/2024 9:31:06 AM
Data Line Index:	25
Spectral Points:	2048
Integration time (ms):	125
Averages:	20
Delay (ms):	30
Sequence Number:	1
Processing:	dark subtract
Laser Power (mW):	300
Laser Current (mA):	823
Laser Diode Temp (C):	25.1
Laser Case Temp (C):	23.5
System Temp (C):	23.3
Spectrometer Temp (C):	21
CCD Temp (C):	-0.046
Secondary Temp (C):	20.022
Heatsink Temp (C):	17.659
CCDPCB Temp (C):	30.227
SecondaryPCB Temp (C):	25.124

Wavelength	RamanShift	Raw Counts	Dark Subtracted
787.061	30.1047	516.7	109.7
787.2016	32.3739	521.2	116.9
787.3422	34.6426	523.8	119.35
787.4828	36.9109	539.2	130.75
787.6235	39.1787	549.45	137.3
787.7642	41.4461	557.7	142.6
787.9049	43.7131	573.6	153.45
788.0456	45.9796	584.2	162.25
788.1863	48.2456	592.6	167.15
788.3271	50.5112	612.9	182.25
788.4679	52.7764	621.15	190
788.6087	55.0411	634.5	197
788.7496	57.3054	653.9	210.8
788.8904	59.5692	672.6	228.2
789.0313	61.8326	689.35	242.4
789.1722	64.0955	704	255.2
789.3132	66.3579	730.1	276.95
789.4541	68.6199	762.15	303.65
789.5951	70.8815	813.15	349.1
789.7361	73.1426	926.4	459.85
789.8771	75.4032	1200.15	728.7
790.0181	77.6634	1885.3	1411.25
790.1592	79.9231	3538.3	3062.05
790.3003	82.1824	7173.95	6693.15
790.4414	84.4412	13571.85	13081.2
790.5825	86.6995	22232.7	21732.85
790.7237	88.9574	30546.85	30039.75
790.8648	91.2148	36494.35	35983.3
791.006	93.4717	39583.85	39067.8
791.1472	95.7282	40971.75	40453.1
791.2885	97.9842	41692.5	41172.3
791.4297	100.2398	42018.8	41497.2
791.571	102.4949	41976.4	41449.85
791.7123	104.7495	42182.85	41652.2
791.8536	107.0036	42038.75	41504.85
791.9949	109.2573	42422.25	41890.75
792.1363	111.5105	42101.45	41568.9
792.2777	113.7632	42334.7	41796.45
792.4191	116.0154	42450.7	41906.8
792.5605	118.2672	42782.4	42243.2
792.7019	120.5185	42770.25	42229.45
792.8434	122.7693	42836.45	42294.5
792.9849	125.0197	42892.9	42340.8
793.1264	127.2696	43094.35	42542.45
793.2679	129.519	43368.85	42810.9
793.4094	131.7679	43622.4	43065.4
793.551	134.0163	43054.3	42492.5
793.6926	136.2642	43398.85	42832.95
793.8342	138.5117	43714.15	43146.15
793.9758	140.7587	43662.3	43096
794.1175	143.0052	43801.5	43231.75
794.2591	145.2512	43518.2	42946.6
794.4008	147.4967	43848.3	43273.4
794.5425	149.7417	43735.4	43159.5
794.6842	151.9863	43778.75	43199.3
794.826	154.2304	43527.4	42944.4
794.9677	156.4739	43716.65	43127.35
795.1095	158.717	43831.7	43242.7
795.2513	160.9596	43826.55	43233.3
795.3931	163.2017	43628.7	43031.45
795.535	165.4433	43958.1	43359.1
795.6768	167.6844	43812	43212
795.8187	169.925	43994.65	43390.75
795.9606	172.1651	43908.1	43301.9
796.1025	174.4047	43792.4	43180
796.2445	176.6439	43955.7	43340.95
796.3864	178.8825	44033	43416.7
796.5284	181.1206	44150.05	43528.2
796.6704	183.3582	44232.05	43607.9
796.8124	185.5954	44006.95	43380.15
796.9544	187.832	44220.1	43589.95
797.0965	190.0681	44191.65	43558.75
797.2386	192.3037	44435.85	43799.4
797.3806	194.5388	44825.65	44186.75
797.5228	196.7734	44269.55	43630.05
797.6649	199.0075	44754.65	44113.85
797.807	201.2411	44923.15	44280.45
797.9492	203.4742	45043.25	44397.9
798.0914	205.7068	45231.1	44581.35
798.2336	207.9389	45288.25	44642
798.3758	210.1704	45285.5	44645.45
798.518	212.4015	45508.9	44878.9
798.6603	214.632	45198.95	44572.35
798.8025	216.862	45565.2	44941.9
798.9448	219.0915	45667.25	45043.7
799.0871	221.3205	45479.45	44849.8
799.2294	223.549	45787.7	45163.1
799.3718	225.777	45853.15	45226.2
799.5141	228.0044	45879	45243.25
799.6565	230.2314	46033.15	45393.95
799.7989	232.4578	45998.9	45358.4
799.9413	234.6837	45984.55	45336.35
800.0837	236.909	46488.6	45837.8
800.2262	239.1339	45905.2	45227.75
800.3687	241.3582	46207.8	45548.05
800.5111	243.582	46160.9	45468.2
800.6536	245.8053	46293.55	45614
800.7961	248.0281	46284.15	45610.1
800.9387	250.2503	46429.35	45751.1
801.0812	252.472	46382.9	45703.45
801.2238	254.6932	46443.65	45765.35
801.3664	256.9139	46372.5	45690.85
801.509	259.134	46786.15	46100.75
801.6516	261.3536	46245.1	45561.6
801.7942	263.5727	46711.65	46026.65
801.9369	265.7912	46517.2	45834.35
802.0795	268.0092	46658.4	45977.75
802.2222	270.2267	46642.4	45956.55
802.3649	272.4436	46658.8	45971.5
802.5076	274.6601	46724.25	46027.15
802.6504	276.8759	46738.05	46042.6
802.7931	279.0913	46861.35	46164.7
802.9359	281.3061	46749	46053.85
803.0787	283.5204	46969.3	46270.65
803.2215	285.7341	46978.7	46279
803.3643	287.9473	47208.45	46497.9
803.5071	290.16	46958.2	46252.95
803.6499	292.3721	47389.25	46690.4
803.7928	294.5837	46767.65	46069.8
803.9357	296.7947	46750.85	46050.5
804.0786	299.0052	46974.2	46273.95
804.2215	301.2152	46809.55	46105.55
804.3644	303.4246	47043.55	46341.6
804.5074	305.6334	46967.45	46266.65
804.6503	307.8418	46775.95	46069.4
804.7933	310.0495	46916.25	46207.35
804.9363	312.2568	46798.15	46090.25
805.0793	314.4635	46680.55	45970.2
805.2223	316.6696	46696	45984.1
805.3653	318.8752	46781.45	46060
805.5084	321.0802	46319.7	45605.15
805.6514	323.2847	46485.55	45767.2
805.7945	325.4887	46476.45	45760.1
805.9376	327.692	46325.45	45604.8
806.0807	329.8949	46557.95	45836.9
806.2238	332.0972	46535.9	45814.5
806.367	334.2989	46650.4	45923.55
806.5101	336.5001	46756.5	46032.2
806.6533	338.7007	46547.15	45821.6
806.7965	340.9008	46684.3	45957.45
806.9397	343.1003	46621.7	45889.75
807.0829	345.2992	46721	45988.5
807.2261	347.4976	46552.6	45820.1
807.3693	349.6955	46549.15	45812.2
807.5126	351.8927	46600.85	45861.05
807.6559	354.0895	46544.25	45797.55
807.7991	356.2856	46533.05	45792
807.9424	358.4812	46605.65	45866.55
808.0857	360.6763	46543.1	45800.6
808.2291	362.8707	46477.1	45733.05
808.3724	365.0646	46475.05	45729.3
808.5158	367.258	46449.6	45701.65
808.6591	369.4508	46374.45	45623.95
808.8025	371.643	46468.45	45718.1
808.9459	373.8346	46336.8	45581.7
809.0893	376.0257	46282.4	45527.1
809.2327	378.2162	46196.65	45443.6
809.3762	380.4062	46233.1	45480
809.5196	382.5956	46156.9	45404.85
809.6631	384.7844	46193.5	45446.6
809.8066	386.9726	46036.1	45290.1
809.9501	389.1603	46049.35	45305.5
810.0936	391.3474	45909.65	45114.55
810.2371	393.5339	46012.55	45264.45
810.3806	395.7199	45782.35	45033.65
810.5241	397.9052	45832.3	45083
810.6677	400.09	45825.15	45073.7
810.8113	402.2743	45847.2	45096.9
810.9548	404.4579	45826.3	45072.65
811.0984	406.641	45874.45	45119.4
811.2421	408.8235	45869.95	45110.65
811.3857	411.0054	45910.1	45147.35
811.5293	413.1868	46034.9	45271.6
811.673	415.3675	45945.95	45178.95
811.8166	417.5477	45932.1	45165.4
811.9603	419.7273	45908.8	45138.55
812.104	421.9064	45737.15	44960.2
812.2477	424.0848	45668.9	44897.8
812.3914	426.2627	45524.65	44753.4
812.5351	428.4399	45385.1	44613
812.6788	430.6166	45291.6	44513.5
812.8226	432.7928	45150.2	44372.35
812.9663	434.9683	45072.25	44294.5
813.1101	437.1432	45042.7	44264.25
813.2539	439.3176	44945.1	44166.3
813.3977	441.4914	44688.6	43910.8
813.5415	443.6645	44709.4	43930.85
813.6853	445.8371	44524.9	43746.4
813.8291	448.0091	44385.5	43603.75
813.973	450.1806	44306.9	43526.55
814.1168	452.3514	44154.75	43373.05
814.2607	454.5216	44195.9	43407.45
814.4046	456.6913	43995.85	43213.1
814.5485	458.8603	44041.7	43256.75
814.6924	461.0288	44046.45	43264.85
814.8363	463.1967	43974.3	43191.2
814.9802	465.3639	43997.15	43212.8
815.1241	467.5306	43856.45	43072.15
815.2681	469.6967	43796.15	43010.75
815.412	471.8622	43664.3	42877.7
815.556	474.0271	43678.15	42891.95
815.7	476.1914	43643.55	42854.55
815.844	478.3551	43605.75	42817.85
815.988	480.5182	43695.6	42905.3
816.132	482.6807	43592.75	42803.3
816.276	484.8426	43638.25	42852.15
816.4201	487.0039	43749.75	42961.55
816.5641	489.1647	43796.25	43006.95
816.7082	491.3248	43844.8	43054
816.8522	493.4843	43766.3	42975.85
816.9963	495.6432	43741.25	42950.9
817.1404	497.8015	43610	42812.9
817.2845	499.9592	43645.9	42851.4
817.4286	502.1163	43504.1	42708.1
817.5727	504.2728	43437.85	42638.8
817.7168	506.4287	43498.55	42703.25
817.861	508.5839	43358.25	42562.1
818.0051	510.7386	43317.35	42523.15
818.1493	512.8927	43368.7	42563.75
818.2935	515.0461	43347.9	42546.65
818.4377	517.199	43336.75	42537.2
818.5818	519.3512	43298.55	42497.1
818.726	521.5029	43344.85	42537.05
818.8703	523.6539	43270.05	42466.35
819.0145	525.8043	43250.4	42446.2
819.1587	527.9541	43183.5	42376.8
819.303	530.1033	43098.7	42293.3
819.4472	532.2519	43057.7	42254
819.5915	534.3999	43017.15	42210.9
819.7357	536.5472	42968.2	42162.2
819.88	538.694	42937.7	42133.05
820.0243	540.8401	42988	42184.1
820.1686	542.9856	43027.4	42219.15
820.3129	545.1305	42928.05	42118.15
820.4572	547.2748	42957.3	42145.7
820.6016	549.4185	42907.1	42097
820.7459	551.5615	42860.85	42050.6
820.8902	553.704	42862.3	42054
821.0346	555.8458	42717.85	41910.75
821.1789	557.987	42768.55	41959.7
821.3233	560.1276	42730.1	41918.15
821.4677	562.2675	42773	41966.45
821.6121	564.4069	42744.75	41933.7
821.7565	566.5456	42639.85	41829.1
821.9009	568.6837	42706.7	41895.3
822.0453	570.8212	42531.5	41718.3
822.1897	572.958	42324.45	41506.1
822.3342	575.0942	42256.05	41442.35
822.4786	577.2299	42079.35	41265.95
822.6231	579.3648	42041.6	41226.95
822.7675	581.4992	41836.3	41022.2
822.912	583.6329	41746.7	40934.4
823.0565	585.766	41653.05	40838.9
823.201	587.8985	41611.45	40798.65
823.3454	590.0304	41485.15	40655.15
823.4899	592.1616	41442.25	40621
823.6345	594.2922	41406.1	40585.4
823.779	596.4222	41233.8	40412
823.9235	598.5515	41165.2	40345.55
824.068	600.6802	41062.1	40242.6
824.2126	602.8083	40829	40008.2
824.3571	604.9358	40857.65	40037.15
824.5017	607.0626	40762.9	39942.2
824.6462	609.1888	40700.6	39877.6
824.7908	611.3144	40653.6	39831.7
824.9354	613.4393	40611.45	39788.1
825.08	615.5636	40602.25	39778.9
825.2246	617.6873	40609.3	39788.15
825.3692	619.8103	40653.15	39826.6
825.5138	621.9327	40509.9	39682.85
825.6584	624.0544	40535.75	39711.9
825.803	626.1756	40466.85	39642
825.9477	628.2961	40385.25	39558.85
826.0923	630.4159	40283.85	39457.7
826.237	632.5351	40294.55	39468.2
826.3816	634.6537	40195.35	39366.9
826.5263	636.7716	40160.65	39329.9
826.6709	638.8889	40132.6	39304.45
826.8156	641.0056	40148.25	39321.2
826.9603	643.1216	40089.6	39258.4
827.105	645.237	40237.4	39405.85
827.2497	647.3518	40045.45	39215.85
827.3944	649.4659	40054.3	39224.6
827.5391	651.5793	39962.3	39130.8
827.6838	653.6922	39817.4	38989.5
827.8285	655.8043	39805.05	38973.9
827.9733	657.9159	39778.1	38945.75
828.118	660.0268	39693.35	38859.4
828.2627	662.137	39579.1	38746
828.4075	664.2466	39605.55	38771.55
828.5522	666.3556	39550.85	38714.3
828.697	668.4639	39432.25	38595.35
828.8418	670.5716	39455.05	38621.45
828.9865	672.6786	39412.2	38576.9
829.1313	674.785	39248.45	38409.05
829.2761	676.8907	39121.1	38284.55
829.4209	678.9958	39162.6	38327.15
829.5657	681.1002	39041.1	38204.55
829.7105	683.204	38958.95	38119.9
829.8553	685.3072	38914.4	38075.5
830.0001	687.4097	38861.35	38021.95
830.1449	689.5115	38881.6	38041.6
830.2898	691.6127	38822.2	37984.85
830.4346	693.7132	38759.25	37921.45
830.5794	695.8131	38764.25	37901.9
830.7243	697.9123	38772.9	37933.05
830.8691	700.0109	38673.6	37832.95
831.014	702.1089	38617.55	37778.6
831.1588	704.2061	38612.4	37772.95
831.3037	706.3028	38616.7	37775.2
831.4486	708.3987	38575.45	37733.9
831.5935	710.4941	38436.35	37595.25
831.7383	712.5887	38411.85	37568.7
831.8832	714.6827	38430.4	37584.45
832.0281	716.7761	38371.85	37528.25
832.173	718.8688	38342.5	37500.35
832.3179	720.9608	38220.1	37373.25
832.4628	723.0522	38316.45	37470.7
832.6077	725.1429	38148.2	37301.85
832.7527	727.233	38154.95	37311.35
832.8976	729.3224	38202.8	37357.2
833.0425	731.4112	38077.75	37231.6
833.1874	733.4993	38022.45	37174.35
833.3324	735.5867	37899.5	37050.7
833.4773	737.6735	37892.6	37044.7
833.6222	739.7596	37760.4	36911.5
833.7672	741.845	37664.55	36817.55
833.9122	743.9298	37551.3	36702.6
834.0571	746.014	37470.35	36623.4
834.2021	748.0974	37443.95	36596.85
834.347	750.1802	37365	36517.15
834.492	752.2624	37224.95	36375.8
834.637	754.3439	37078.75	36229.4
834.782	756.4247	36968.7	36111.35
834.9269	758.5048	36889.6	36041.05
835.0719	760.5843	36828.75	35978.2
835.2169	762.6631	36724.3	35872.8
835.3619	764.7413	36666.15	35818.3
835.5069	766.8188	36706.8	35854.25
835.6519	768.8956	36594.75	35741.95
835.7969	770.9718	36696.9	35843.95
835.9419	773.0473	36492.5	35642.35
836.0869	775.1221	36456.45	35606.45
836.232	777.1962	36340.8	35487.45
836.377	779.2697	36335.05	35482.25
836.522	781.3426	36280.2	35408.3
836.667	783.4147	36215.75	35363.2
836.8121	785.4862	36165.2	35314.15
836.9571	787.557	35994.15	35142.65
837.1021	789.6271	35945.2	35093.65
837.2472	791.6966	35767.7	34917.65
837.3922	793.7654	35599.35	34745.45
837.5373	795.8335	35604.45	34752.8
837.6823	797.901	35437.1	34584.35
837.8274	799.9678	35375.7	34520.55
837.9724	802.0339	35308.6	34453.1
838.1175	804.0993	35297.95	34435
838.2626	806.1641	35245.55	34390.35
838.4076	808.2282	35106.95	34253.5
838.5527	810.2916	35072.8	34212.2
838.6978	812.3544	35040.35	34187.45
838.8428	814.4164	34985.55	34130.6
838.9879	816.4778	35004.95	34149.9
839.133	818.5385	34889.8	34036.3
839.2781	820.5986	34828.15	33973.05
839.4232	822.658	34856	33999.95
839.5682	824.7166	34738.95	33883.4
839.7133	826.7747	34856.75	34001.5
839.8584	828.832	34831.2	33974.15
840.0035	830.8886	34753.95	33895.3
840.1486	832.9446	34694.4	33834.65
840.2937	834.9999	34589.75	33734.6
840.4388	837.0545	34523.25	33662.8
840.5839	839.1085	34410.8	33551.6
840.729	841.1618	34300.1	33436.75
840.8741	843.2143	34179	33320.7
841.0192	845.2662	34072.9	33212.75
841.1643	847.3175	34030.9	33173.05
841.3095	849.368	33957.65	33098.15
841.4546	851.4179	33952.1	33095.15
841.5997	853.467	33766.85	32910.75
841.7448	855.5155	33684	32823.25
841.8899	857.5633	33646.35	32786.3
842.0351	859.6105	33573.6	32715.25
842.1802	861.6569	33521.9	32663.5
842.3253	863.7027	33443.05	32581.85
842.4704	865.7478	33454.05	32591.95
842.6156	867.7922	33387.9	32528.2
842.7607	869.8359	33311.85	32449.95
842.9058	871.8789	33272.25	32409.65
843.0509	873.9212	33250.05	32357.7
843.1961	875.9629	33098.6	32238.7
843.3412	878.0039	33077.95	32215.65
843.4863	880.0441	33062.5	32202
843.6315	882.0837	33094.5	32229.35
843.7766	884.1226	33015.85	32153.3
843.9218	886.1609	33046.5	32184.05
844.0669	888.1984	33066.1	32205.7
844.212	890.2352	33105.55	32245.4
844.3572	892.2714	33046.65	32179.65
844.5023	894.3069	32979.3	32116.55
844.6475	896.3416	32836.35	31972.3
844.7926	898.3757	32809.65	31946.55
844.9377	900.4091	32733.05	31868.05
845.0829	902.4418	32639.85	31770.3
845.228	904.4739	32501.8	31635.8
845.3732	906.5052	32471.55	31607.5
845.5183	908.5358	32442	31579.05
845.6635	910.5658	32282.45	31417.15
845.8086	912.595	32269.15	31404.6
845.9538	914.6236	32101.7	31236.6
846.0989	916.6515	32099.05	31235
846.2441	918.6786	32011.8	31143.65
846.3892	920.7051	31964.15	31095.55
846.5344	922.7309	31989.85	31124.5
846.6795	924.756	31882.9	31017.4
846.8246	926.7804	31864.5	30997.25
846.9698	928.8041	31584.1	30716.75
847.1149	930.8272	31675.15	30807.65
847.2601	932.8495	31492.2	30626.2
847.4052	934.8711	31490.15	30622.45
847.5504	936.892	31364	30498.35
847.6955	938.9123	31249.85	30381.35
847.8407	940.9318	31234.05	30368.95
847.9858	942.9506	31093.6	30225.8
848.131	944.9688	31048.5	30182.15
848.2761	946.9862	30932.3	30064.85
848.4213	949.003	30777.6	29910.15
848.5664	951.019	30705.65	29839.65
848.7115	953.0344	30612.1	29745.4
848.8567	955.0491	30516.45	29647.25
849.0018	957.063	30457.35	29590.5
849.147	959.0763	30547.05	29681.15
849.2921	961.0888	30435.95	29565.3
849.4373	963.1007	30377.95	29512.65
849.5824	965.1119	30378	29512.35
849.7275	967.1223	30297.55	29433.1
849.8727	969.1321	30247.65	29380.95
850.0178	971.1412	30231.65	29367
850.1629	973.1495	30080.6	29212.95
850.3081	975.1572	30061.4	29147.45
850.4532	977.1641	30043.35	29174
850.5983	979.1704	29917.35	29046.65
850.7435	981.1759	29837.45	28964.4
850.8886	983.1808	29781.45	28907.95
851.0337	985.1849	29722.75	28850.3
851.1788	987.1884	29653.9	28784.15
851.324	989.1911	29629.8	28757.75
851.4691	991.1932	29560.55	28690.55
851.6142	993.1945	29386.8	28518.2
851.7593	995.1951	29240.1	28368.95
851.9045	997.1951	29210.7	28334.9
852.0496	999.1943	29075.7	28204
852.1947	1001.1928	28990.45	28120.15
852.3398	1003.1906	28840.45	27969.7
852.4849	1005.1877	28833.7	27963.85
852.63	1007.1841	28730.85	27860.85
852.7751	1009.1798	28649	27776.35
852.9202	1011.1748	28531.65	27661.4
853.0653	1013.1691	28463.15	27591.1
853.2104	1015.1627	28336.8	27464.2
853.3555	1017.1556	28107.8	27236.3
853.5006	1019.1477	28062.75	27188.3
853.6457	1021.1392	27890.3	27019.1
853.7908	1023.1299	27841.2	26969.25
853.9359	1025.12	27697.9	26825.65
854.081	1027.1093	27551.35	26681.95
854.2261	1029.0979	27513.05	26647.6
854.3712	1031.0859	27399.1	26529.3
854.5163	1033.0731	27336.45	26466.4
854.6613	1035.0596	27212.6	26340.65
854.8064	1037.0454	27081.05	26208.8
854.9515	1039.0304	27062.4	26189
855.0965	1041.0148	26923.35	26052
855.2416	1042.9985	26848.3	25974.2
855.3867	1044.9814	26797.85	25926.45
855.5317	1046.9636	26699.9	25826.6
855.6768	1048.9452	26556.65	25687.75
855.8219	1050.926	26557.45	25687.4
855.9669	1052.9061	26478.5	25606.05
856.112	1054.8855	26396.3	25524.25
856.257	1056.8642	26386.95	25514.2
856.4021	1058.8421	26332	25453.95
856.5471	1060.8194	26244.3	25369.7
856.6921	1062.7959	26182.6	25310.2
856.8372	1064.7717	26130.1	25256.05
856.9822	1066.7469	26049.35	25175.5
857.1272	1068.7213	26022.55	25143.45
857.2723	1070.695	25934.4	25064.65
857.4173	1072.6679	25850.05	24977.45
857.5623	1074.6402	25870.65	24994.35
857.7073	1076.6117	25853.35	24973.15
857.8523	1078.5826	25789.45	24914.9
857.9973	1080.5527	25710.15	24832
858.1423	1082.5221	25579.65	24702.25
858.2873	1084.4908	25567.15	24691.3
858.4323	1086.4587	25438.25	24563.65
858.5773	1088.426	25389.2	24514.4
858.7223	1090.3925	25264.45	24386.1
858.8673	1092.3584	25249.15	24373.55
859.0123	1094.3235	25094.6	24219
859.1573	1096.2879	25111.3	24237.05
859.3022	1098.2515	25074.2	24199.6
859.4472	1100.2145	25073.25	24199.3
859.5922	1102.1767	24986.85	24110.1
859.7371	1104.1382	24935.3	24059.5
859.8821	1106.099	24951.45	24071.65
860.027	1108.0591	24893.05	24020.25
860.172	1110.0185	24864.75	23989.05
860.3169	1111.9771	24851.15	23975.9
860.4619	1113.9351	24770.95	23892.3
860.6068	1115.8923	24727.5	23850.9
860.7517	1117.8488	24747.3	23869.5
860.8967	1119.8045	24591	23717.8
861.0416	1121.7596	24530.6	23654.1
861.1865	1123.7139	24319.05	23442.5
861.3314	1125.6675	24220.5	23346.05
861.4763	1127.6204	24233.4	23358.1
861.6212	1129.5726	24125.3	23247.35
861.7661	1131.524	24134.7	23261.4
861.911	1133.4748	24042.55	23167
862.0559	1135.4248	23987.85	23110.95
862.2008	1137.3741	23890.2	23015.15
862.3457	1139.3226	23782.4	22904.7
862.4905	1141.2705	23806.4	22932.25
862.6354	1143.2176	23633.2	22751.15
862.7803	1145.164	23656.65	22778
862.9251	1147.1097	23618.3	22742.55
863.07	1149.0546	23576	22697.55
863.2148	1150.9989	23554.1	22676.5
863.3597	1152.9424	23524.4	22647.75
863.5045	1154.8852	23446.25	22567.95
863.6493	1156.8272	23406.85	22533.7
863.7942	1158.7686	23397	22513.8
863.939	1160.7092	23289.6	22412.05
864.0838	1162.6491	23200.05	22320.8
864.2286	1164.5883	23193.95	22315.05
864.3734	1166.5267	23146.55	22270
864.5182	1168.4644	23107.2	22231.05
864.663	1170.4014	23108.8	22226.05
864.8078	1172.3377	23147.95	22270.6
864.9526	1174.2732	23108.2	22232.7
865.0974	1176.2081	23122.2	22243.95
865.2421	1178.1421	23205.5	22320.5
865.3869	1180.0755	23264.45	22388.1
865.5317	1182.0082	23203.4	22327
865.6764	1183.9401	23167.4	22288.4
865.8212	1185.8713	23026.1	22147.85
865.9659	1187.8017	22924.05	22045.8
866.1106	1189.7315	22834.8	21960
866.2554	1191.6605	22588.4	21710.8
866.4001	1193.5888	22471.85	21593.65
866.5448	1195.5163	22430.35	21553
866.6895	1197.4432	22337.25	21458.35
866.8342	1199.3693	22270.25	21394.1
866.9789	1201.2947	22145.75	21266.2
867.1236	1203.2193	22062.55	21185.55
867.2683	1205.1432	22039.4	21161.35
867.413	1207.0664	21975.35	21095.35
867.5576	1208.9889	21936.95	21053.15
867.7023	1210.9106	21818.15	20941.1
867.847	1212.8316	21747.5	20870.05
867.9916	1214.7519	21730.85	20842.4
868.1363	1216.6715	21590.55	20713.9
868.2809	1218.5903	21641.25	20761
868.4255	1220.5084	21563	20685.65
868.5701	1222.4257	21592.7	20713.95
868.7148	1224.3424	21459	20582.55
868.8594	1226.2583	21436	20553
869.004	1228.1735	21360.9	20481.6
869.1486	1230.0879	21313.15	20435.8
869.2932	1232.0016	21268	20388.1
869.4377	1233.9146	21242.2	20362.8
869.5823	1235.8269	21187.75	20308.55
869.7269	1237.7384	21206.65	20326.3
869.8715	1239.6492	21099.35	20220.85
870.016	1241.5592	21090.7	20211.15
870.1606	1243.4686	21025.45	20146.9
870.3051	1245.3772	21043.55	20164
870.4496	1247.285	21069.8	20188.15
870.5941	1249.1922	21047.5	20169.7
870.7387	1251.0986	21077.3	20200.8
870.8832	1253.0042	21031.2	20152.3
871.0277	1254.9092	21070.6	20188.9
871.1722	1256.8134	21065.5	20186.25
871.3167	1258.7169	21161.7	20280.9
871.4611	1260.6196	21162.65	20283
871.6056	1262.5216	21159.45	20278.1
871.7501	1264.4229	21141.25	20262.85
871.8945	1266.3234	21107.95	20229.3
872.039	1268.2232	21021.85	20142
872.1834	1270.1223	20928.85	20046.9
872.3278	1272.0207	20892.1	20011.1
872.4723	1273.9183	20814.2	19926.15
872.6167	1275.8151	20752.7	19872.45
872.7611	1277.7113	20752.5	19872.55
872.9055	1279.6067	20723.35	19842.6
873.0499	1281.5014	20805.65	19922.9
873.1943	1283.3953	20873.25	19990.65
873.3386	1285.2885	21058.25	20178.5
873.483	1287.181	21161.7	20281.85
873.6274	1289.0727	21259.05	20379.35
873.7717	1290.9637	21162.85	20281.35
873.9161	1292.854	21066.1	20186.45
874.0604	1294.7435	20913.2	20030.85
874.2047	1296.6323	20772.1	19892.6
874.349	1298.5204	20665.35	19782.7
874.4933	1300.4077	20556.45	19674
874.6376	1302.2943	20531.05	19650.85
874.7819	1304.1802	20465.5	19586.55
874.9262	1306.0653	20389.5	19506.8
875.0705	1307.9497	20352.85	19472.75
875.2147	1309.8333	20331	19451.1
875.359	1311.7162	20287.15	19408.55
875.5032	1313.5984	20293.4	19410.4
875.6475	1315.4798	20170.1	19286.65
875.7917	1317.3605	20109.3	19223.25
875.9359	1319.2405	20130.95	19249.95
876.0801	1321.1197	20089.85	19208.15
876.2243	1322.9982	20016.5	19129.9
876.3685	1324.876	19995.2	19113.5
876.5127	1326.753	19890.7	19008.05
876.6569	1328.6293	19814.95	18932.15
876.801	1330.5048	19741.7	18860.8
876.9452	1332.3796	19597.25	18717.25
877.0893	1334.2537	19547.15	18641.3
877.2335	1336.127	19462.15	18580.5
877.3776	1337.9996	19456.2	18575.1
877.5217	1339.8714	19382.75	18501.5
877.6658	1341.7426	19342.8	18417.8
877.8099	1343.6129	19279.35	18398.35
877.954	1345.4826	19201.85	18320.75
878.0981	1347.3515	19198.55	18313.05
878.2422	1349.2196	19139.9	18258.35
878.3862	1351.087	19120.35	18236.4
878.5303	1352.9537	19086.1	18205.3
878.6743	1354.8197	19087.35	18204.65
878.8184	1356.6849	19084.2	18203.75
878.9624	1358.5493	19038.6	18156.8
879.1064	1360.4131	19003.9	18123.8
879.2504	1362.276	18990.35	18109.05
879.3944	1364.1383	18951.45	18070
879.5384	1365.9998	18935	18046.75
879.6823	1367.8606	18904.65	18020.8
879.8263	1369.7206	18838	17954.95
879.9702	1371.5799	18836.2	17949.25
880.1142	1373.4384	18735.15	17853.8
880.2581	1375.2962	18717.05	17834.55
880.402	1377.1533	18600.75	17720.4
880.5459	1379.0096	18507.2	17624.4
880.6898	1380.8652	18393.1	17510.4
880.8337	1382.7201	18346.1	17466.3
880.9776	1384.5742	18268.5	17387.3
881.1215	1386.4275	18136.85	17253.7
881.2653	1388.2802	18104.15	17221.8
881.4092	1390.132	18041.65	17158.95
881.553	1391.9832	18016.05	17132.6
881.6968	1393.8336	17904.25	17021.5
881.8406	1395.6832	17892.45	17008.55
881.9844	1397.5322	17804.05	16923
882.1282	1399.3803	17749.55	16861.5
882.272	1401.2278	17646	16765.3
882.4158	1403.0745	17595.9	16714
882.5595	1404.9204	17530.2	16650.25
882.7033	1406.7656	17495.5	16612.05
882.847	1408.6101	17411.25	16529.3
882.9908	1410.4538	17358.5	16476.55
883.1345	1412.2968	17309.25	16425.15
883.2782	1414.139	17256.65	16376.2
883.4219	1415.9805	17264.45	16382.6
883.5656	1417.8213	17158.85	16256.9
883.7092	1419.6613	17076.75	16196.15
883.8529	1421.5006	17098.15	16212.75
883.9965	1423.3391	17075.1	16192.2
884.1402	1425.1769	17043.9	16160.9
884.2838	1427.0139	17085.65	16201.45
884.4274	1428.8502	17108.45	16223.1
884.571	1430.6858	17127.3	16245.15
884.7146	1432.5206	17076.75	16195.1
884.8582	1434.3547	17080	16198.55
885.0018	1436.188	17023.3	16140.3
885.1453	1438.0206	16984.45	16102.3
885.2889	1439.8524	16935	16051.8
885.4324	1441.6835	16936.15	16052.45
885.5759	1443.5139	16877.8	15993.45
885.7194	1445.3435	16830.9	15947.85
885.8629	1447.1724	16819.45	15936.9
886.0064	1449.0005	16804.8	15920.45
886.1499	1450.8279	16752.4	15866.75
886.2933	1452.6545	16735.9	15852.2
886.4368	1454.4804	16715.35	15831.6
886.5802	1456.3056	16632.3	15742.7
886.7237	1458.13	16618.95	15736.25
886.8671	1459.9536	16584.15	15702.15
887.0105	1461.7766	16548.3	15667.45
887.1539	1463.5987	16460.9	15578.05
887.2972	1465.4202	16372.35	15489.9
887.4406	1467.2409	16288.7	15406.45
887.584	1469.0608	16298.6	15415.75
887.7273	1470.88	16241.95	15358.35
887.8706	1472.6984	16191.4	15309.4
888.0139	1474.5161	16095.05	15210.1
888.1572	1476.3331	16048.6	15165.5
888.3005	1478.1493	16050	15167
888.4438	1479.9648	16044	15163.35
888.5871	1481.7795	15964.55	15081.7
888.7303	1483.5935	15921.1	15037.8
888.8736	1485.4067	15918.7	15035.55
889.0168	1487.2192	15929.25	15046.3
889.16	1489.031	15923.55	15037.05
889.3032	1490.842	15845.45	14963.05
889.4464	1492.6522	15813.6	14929.3
889.5896	1494.4618	15783.9	14899.4
889.7327	1496.2705	15747.35	14864.1
889.8759	1498.0785	15721.8	14840.4
890.019	1499.8858	15643.65	14762.65
890.1622	1501.6924	15606.1	14723.85
890.3053	1503.4981	15573.4	14691
890.4484	1505.3032	15554.35	14672.25
890.5914	1507.1075	15529.95	14648.5
890.7345	1508.911	15477.1	14593.65
890.8776	1510.7138	15428.8	14545.25
891.0206	1512.5159	15357	14474.5
891.1637	1514.3172	15325.1	14439.2
891.3067	1516.1178	15251.85	14373.5
891.4497	1517.9176	15255.4	14369.65
891.5927	1519.7166	15210	14329.25
891.7357	1521.515	15147.2	14257.7
891.8786	1523.3126	15093.6	14210.9
892.0216	1525.1094	15053.2	14166.9
892.1645	1526.9055	14995.35	14115.1
892.3074	1528.7008	14922.2	14038.55
892.4503	1530.4954	14858.5	13968
892.5932	1532.2893	14854.6	13971.45
892.7361	1534.0824	14765.25	13879.55
892.879	1535.8747	14736.9	13854.6
893.0218	1537.6663	14687.5	13805.45
893.1647	1539.4572	14633.3	13748.35
893.3075	1541.2473	14601	13717
893.4503	1543.0367	14548.45	13667.5
893.5931	1544.8253	14457.05	13568.05
893.7359	1546.6132	14452.4	13565.3
893.8787	1548.4003	14386.45	13493.7
894.0214	1550.1867	14382.05	13490.3
894.1642	1551.9723	14301.75	13416.45
894.3069	1553.7572	14296.05	13413.35
894.4496	1555.5414	14259.15	13375.5
894.5923	1557.3247	14234.3	13350.5
894.735	1559.1074	14216.7	13336.75
894.8777	1560.8893	14210.2	13329.3
895.0204	1562.6705	14178.95	13296
895.163	1564.4509	14162.2	13281.25
895.3056	1566.2305	14105.75	13222.9
895.4482	1568.0094	14125.4	13244.85
895.5908	1569.7876	14113.7	13230.4
895.7334	1571.565	14071.4	13188.35
895.876	1573.3417	14020.8	13137.7
896.0186	1575.1176	13993.65	13110.8
896.1611	1576.8928	13935.35	13052.85
896.3036	1578.6672	13891.1	13010.65
896.4461	1580.4409	13860.6	12979.1
896.5886	1582.2138	13858	12975
896.7311	1583.986	13847.95	12964.7
896.8736	1585.7575	13818.85	12937.45
897.0161	1587.5282	13809.65	12928.3
897.1585	1589.2981	13814.75	12934
897.3009	1591.0673	13777.4	12897.85
897.4433	1592.8358	13774.4	12893.35
897.5857	1594.6035	13747.4	12862.4
897.7281	1596.3704	13671.8	12788
897.8705	1598.1366	13594.9	12714.65
898.0128	1599.9021	13521	12639
898.1551	1601.6668	13417.85	12532.7
898.2975	1603.4308	13369.35	12485.9
898.4398	1605.194	13336.15	12448.4
898.5821	1606.9564	13279.05	12397.7
898.7243	1608.7182	13318.5	12433.35
898.8666	1610.4791	13312.8	12433.5
899.0088	1612.2394	13369.9	12487.8
899.1511	1613.9988	13391.15	12511.6
899.2933	1615.7576	13450.6	12569.95
899.4355	1617.5156	13462.45	12573.1
899.5776	1619.2728	13412.35	12529.9
899.7198	1621.0293	13336.5	12452.7
899.862	1622.785	13224.7	12339
900.0041	1624.54	13061.35	12178.6
900.1462	1626.2942	12904.95	12019.45
900.2883	1628.0477	12737.95	11853.85
900.4304	1629.8005	12655.95	11770.75
900.5725	1631.5525	12556.55	11674.75
900.7145	1633.3037	12484.8	11603.5
900.8566	1635.0542	12426.5	11544.65
900.9986	1636.804	12374.9	11492.8
901.1406	1638.553	12368.7	11394.95
901.2826	1640.3013	12261.8	11380.7
901.4245	1642.0488	12167	11284.4
901.5665	1643.7955	12125.65	11245.7
901.7085	1645.5416	12056.95	11173.35
901.8504	1647.2868	12041.05	11160.35
901.9923	1649.0313	11991.15	11108.95
902.1342	1650.7751	11979.75	11095.3
902.2761	1652.5181	11936.75	11057.5
902.4179	1654.2604	11877.8	10995.75
902.5598	1656.0019	11858	10975.85
902.7016	1657.7427	11824.55	10943.55
902.8434	1659.4828	11806.3	10924.1
902.9852	1661.222	11785.15	10902.3
903.127	1662.9606	11757.4	10875.7
903.2687	1664.6984	11776.7	10894.7
903.4105	1666.4354	11757.45	10875.75
903.5522	1668.1717	11713.45	10832.15
903.6939	1669.9072	11611.3	10727.3
903.8356	1671.642	11568.75	10682.65
903.9773	1673.3761	11502.8	10620.4
904.119	1675.1094	11419.55	10537.9
904.2606	1676.8419	11357.05	10475.25
904.4022	1678.5737	11309.05	10426.95
904.5439	1680.3048	11256.75	10370.85
904.6855	1682.0351	11200.65	10321.3
904.827	1683.7646	11141.4	10255.5
904.9686	1685.4934	11122.85	10242.65
905.1101	1687.2215	11046.05	10161.05
905.2517	1688.9488	10996.6	10113.75
905.3932	1690.6754	10953.8	10071.65
905.5347	1692.4012	10944.4	10063.55
905.6761	1694.1263	10893.8	10009.95
905.8176	1695.8506	10853.4	9970.55
905.9591	1697.5742	10794.85	9912.9
906.1005	1699.297	10734.65	9853.8
906.2419	1701.0191	10707.45	9826.95
906.3833	1702.7404	10651.15	9770.4
906.5246	1704.461	10593	9709.05
906.666	1706.1808	10553.9	9670.55
906.8073	1707.8999	10537.25	9652
906.9487	1709.6182	10514.4	9632.55
907.09	1711.3358	10485.65	9603.65
907.2313	1713.0527	10431.8	9552.6
907.3725	1714.7688	10408.4	9520.4
907.5138	1716.4841	10349.65	9468.1
907.655	1718.1987	10355.6	9468.6
907.7962	1719.9126	10309.1	9429.2
907.9374	1721.6257	10277.4	9392.05
908.0786	1723.338	10252.4	9368.9
908.2198	1725.0496	10195.65	9313.7
908.3609	1726.7605	10208.45	9326.1
908.502	1728.4706	10177.1	9294.9
908.6431	1730.18	10109.45	9226.45
908.7842	1731.8886	10135.95	9255.65
908.9253	1733.5964	10098.8	9197.5
909.0664	1735.3036	10075.2	9188.95
909.2074	1737.0099	10071.75	9190.7
909.3484	1738.7156	10063.85	9182.1
909.4894	1740.4204	10017.15	9131.9
909.6304	1742.1246	9980	9096.55
909.7714	1743.8279	9946.35	9065.75
909.9123	1745.5306	9951.2	9068.45
910.0532	1747.2325	9914.15	9032.35
910.1941	1748.9336	9885.15	9004.3
910.335	1750.634	9863.5	8980.45
910.4759	1752.3336	9867.95	8986.5
910.6168	1754.0325	9846.75	8966.5
910.7576	1755.7307	9827.2	8945.25
910.8984	1757.4281	9803.4	8920.3
911.0392	1759.1247	9819	8928.8
911.18	1760.8206	9799.25	8913.55
911.3208	1762.5158	9762.35	8878.55
911.4615	1764.2102	9732.85	8851.45
911.6022	1765.9039	9717.6	8835.15
911.7429	1767.5968	9704.05	8823.9
911.8836	1769.289	9658.95	8775.5
912.0243	1770.9804	9641.1	8758.3
912.1649	1772.6711	9607.45	8724
912.3056	1774.361	9597.4	8712
912.4462	1776.0502	9578.15	8696.5
912.5868	1777.7386	9536.9	8650.65
912.7274	1779.4263	9518.15	8636.7
912.8679	1781.1132	9519.6	8638
913.0084	1782.7994	9501.65	8619.25
913.149	1784.4849	9486.3	8605.15
913.2895	1786.1696	9470.05	8572
913.4299	1787.8535	9410.6	8529.05
913.5704	1789.5367	9396.6	8515.1
913.7108	1791.2192	9390.85	8509
913.8513	1792.9009	9343.1	8442.5
913.9917	1794.5818	9337.9	8455.35
914.132	1796.2621	9300.9	8419.05
914.2724	1797.9415	9284.35	8403.05
914.4128	1799.6202	9248.45	8366.15
914.5531	1801.2982	9255.7	8374.6
914.6934	1802.9755	9238	8356
914.8337	1804.6519	9219.75	8337.2
914.9739	1806.3277	9168.55	8286.95
915.1142	1808.0027	9140.55	8259.25
915.2544	1809.6769	9095.35	8214.25
915.3946	1811.3504	9079.75	8195.1
915.5348	1813.0231	9073.1	8189.6
915.675	1814.6951	9046.1	8165.1
915.8151	1816.3664	9059.65	8174.95
915.9553	1818.0369	9039.2	8156.8
916.0954	1819.7067	8994.1	8112.1
916.2355	1821.3757	8959.85	8076.7
916.3755	1823.044	8955.05	8074.75
916.5156	1824.7115	8951.45	8069.6
916.6556	1826.3783	8926.5	8045.25
916.7956	1828.0443	8863.05	7982.35
916.9356	1829.7096	8885.35	8000.15
917.0756	1831.3741	8890.55	8007.55
917.2155	1833.0379	8854.35	7971.8
917.3555	1834.701	8805.75	7923.15
917.4954	1836.3633	8785.1	7905
917.6353	1838.0248	8785	7901.25
917.7751	1839.6856	8732.25	7850.6
917.915	1841.3457	8760.35	7879.75
918.0548	1843.005	8724.9	7842.6
918.1946	1844.6636	8721.85	7841.35
918.3344	1846.3214	8703.95	7822.55
918.4742	1847.9785	8681.7	7800.05
918.6139	1849.6349	8640.15	7755.3
918.7537	1851.2904	8625.6	7734.55
918.8934	1852.9453	8605.45	7724.95
919.0331	1854.5994	8586.1	7702.5
919.1727	1856.2528	8592.05	7704.95
919.3124	1857.9054	8542.65	7660.5
919.452	1859.5572	8544.9	7661.05
919.5916	1861.2083	8529	7646.2
919.7312	1862.8587	8537.2	7654.1
919.8708	1864.5084	8485.5	7602.5
920.0103	1866.1572	8474.5	7592.3
920.1498	1867.8054	8437.9	7556.35
920.2893	1869.4528	8401.2	7519.25
920.4288	1871.0994	8394.8	7512.5
920.5683	1872.7453	8382.45	7500.35
920.7077	1874.3905	8370.05	7481.35
920.8471	1876.0349	8337.2	7453.55
920.9865	1877.6786	8359.85	7477.05
921.1259	1879.3215	8322.1	7439.9
921.2653	1880.9637	8305.15	7422.8
921.4046	1882.6051	8292.6	7411.75
921.5439	1884.2458	8258.9	7373.05
921.6832	1885.8858	8244.25	7361.55
921.8225	1887.525	8225.65	7341.85
921.9617	1889.1634	8198.9	7316.65
922.101	1890.8011	8158.55	7276.45
922.2402	1892.4381	8176.3	7295.6
922.3794	1894.0743	8175.85	7291.9
922.5185	1895.7098	8119.3	7237.6
922.6577	1897.3446	8122.95	7239.05
922.7968	1898.9786	8101.35	7215.15
922.9359	1900.6118	8102.6	7221.35
923.075	1902.2443	8046.45	7162.95
923.214	1903.8761	8033.95	7153.15
923.3531	1905.5071	7994.25	7112.05
923.4921	1907.1374	7967.8	7085.25
923.6311	1908.7669	7969.95	7087.45
923.77	1910.3957	7929.1	7047.85
923.909	1912.0237	7912.2	7032.45
924.0479	1913.651	7907.95	7026.35
924.1868	1915.2776	7866.3	6984
924.3257	1916.9034	7832.3	6952.65
924.4646	1918.5285	7807.15	6924.85
924.6034	1920.1528	7783.1	6901
924.7422	1921.7764	7764.55	6881
924.881	1923.3992	7746.45	6866
925.0198	1925.0213	7704	6820.4
925.1586	1926.6427	7668.7	6788.25
925.2973	1928.2633	7831.8	6742.3
925.436	1929.8832	7669.3	6784.45
925.5747	1931.5023	7612.3	6730.45
925.7134	1933.1207	7591.55	6709.05
925.852	1934.7383	7591.05	6708.95
925.9906	1936.3552	7557.95	6678.5
926.1292	1937.9714	7549.05	6665.5
926.2678	1939.5868	7516.45	6633.25
926.4064	1941.2015	7472.2	6588.7
926.5449	1942.8154	7469.05	6585.1
926.6834	1944.4286	7425.4	6542.45
926.8219	1946.041	7398.3	6493.1
926.9604	1947.6528	7384.2	6496.85
927.0988	1949.2637	7353.95	6472.4
927.2372	1950.8739	7330.35	6447.95
927.3756	1952.4834	7333.2	6450.1
927.514	1954.0921	7319.5	6434.65
927.6523	1955.7001	7314.35	6429.7
927.7907	1957.3074	7289.05	6409.65
927.929	1958.9139	7243.1	6363.85
928.0673	1960.5197	7230.25	6346.5
928.2055	1962.1247	7206.9	6326.9
928.3438	1963.729	7167.05	6287.5
928.482	1965.3325	7165.8	6260.75
928.6202	1966.9353	7121.5	6241.9
928.7584	1968.5374	7125.4	6243.4
928.8965	1970.1387	7091.45	6209.5
929.0346	1971.7393	7055.3	6173.25
929.1727	1973.3392	7057.9	6177.2
929.3108	1974.9383	7047.35	6165.55
929.4489	1976.5366	7011.55	6131.05
929.5869	1978.1342	7016.05	6134.75
929.7249	1979.7311	6983.25	6102.25
929.8629	1981.3273	6963.15	6081
930.0009	1982.9227	6963.45	6082.25
930.1388	1984.5173	6920.3	6040.2
930.2767	1986.1112	6885.8	6005.85
930.4146	1987.7044	6897.55	6015.45
930.5525	1989.2968	6886.9	6004.5
930.6904	1990.8885	6881.55	5998.1
930.8282	1992.4795	6854.1	5973.6
930.966	1994.0697	6821.65	5938.8
931.1038	1995.6592	6820.45	5939.35
931.2415	1997.2479	6792.05	5908.9
931.3793	1998.8359	6783.8	5903.05
931.517	2000.4232	6741.05	5861.7
931.6547	2002.0097	6739.65	5860.55
931.7923	2003.5955	6699.2	5817
931.93	2005.1805	6728.45	5846.7
932.0676	2006.7648	6707.55	5826.7
932.2052	2008.3484	6679.45	5798.2
932.3427	2009.9312	6685	5801.45
932.4803	2011.5133	6649.3	5770.6
932.6178	2013.0946	6639.55	5760.1
932.7553	2014.6752	6609	5728.85
932.8928	2016.2551	6561.25	5680.2
933.0302	2017.8342	6569.25	5690.5
933.1676	2019.4126	6543.25	5663.45
933.305	2020.9902	6534.25	5654.75
933.4424	2022.5672	6535	5653.55
933.5798	2024.1433	6515.5	5630.3
933.7171	2025.7188	6504.6	5625.05
933.8544	2027.2935	6484.3	5605.4
933.9917	2028.8674	6454.6	5575.15
934.129	2030.4406	6449.15	5569.45
934.2662	2032.0131	6429.45	5550.9
934.4034	2033.5849	6423.95	5538.25
934.5406	2035.1559	6409	5529.7
934.6778	2036.7261	6406.3	5525.75
934.8149	2038.2957	6381.6	5501.45
934.952	2039.8645	6383.9	5505.05
935.0891	2041.4325	6361.75	5476.35
935.2262	2042.9998	6351.1	5472.15
935.3632	2044.5664	6337.65	5457.2
935.5002	2046.1323	6330.65	5450.55
935.6372	2047.6974	6312.25	5432.05
935.7742	2049.2617	6310.2	5429.85
935.9111	2050.8254	6323.25	5420.55
936.048	2052.3883	6291.95	5410.9
936.1849	2053.9504	6261.3	5381.95
936.3218	2055.5118	6257.1	5374.15
936.4586	2057.0725	6235.4	5353.1
936.5955	2058.6325	6230.1	5350.95
936.7323	2060.1917	6204.9	5325.65
936.869	2061.7502	6197.65	5315.7
937.0058	2063.3079	6170.55	5291.9
937.1425	2064.8649	6177.4	5293.35
937.2792	2066.4212	6170.85	5288.9
937.4159	2067.9767	6148.55	5269.05
937.5525	2069.5315	6140.55	5259.8
937.6891	2071.0856	6113.65	5233.35
937.8257	2072.6389	6097.95	5216.6
937.9623	2074.1915	6063.4	5184.3
938.0989	2075.7433	6044.25	5163.05
938.2354	2077.2945	6029.05	5149.25
938.3719	2078.8448	6025.9	5146.45
938.5084	2080.3945	5991.8	5111.7
938.6448	2081.9434	6001.45	5121.95
938.7812	2083.4916	5997.6	5116.3
938.9176	2085.039	5970.05	5088.5
939.054	2086.5857	5956.55	5074
939.1903	2088.1317	5972.15	5090.7
939.3267	2089.677	5956.6	5074.85
939.463	2091.2215	5933.5	5053.9
939.5992	2092.7652	5923.95	5040.75
939.7355	2094.3083	5914.25	5032.95
939.8717	2095.8506	5906.65	5027.25
940.0079	2097.3921	5904.05	5024.5
940.1441	2098.933	5868.75	4989.5
940.2802	2100.4731	5874.8	4994.25
940.4163	2102.0124	5879.75	4981.3
940.5524	2103.5511	5863.35	4983.05
940.6885	2105.089	5844.4	4961.25
940.8245	2106.6261	5849.4	4969.05
940.9606	2108.1626	5823.5	4942
941.0965	2109.6983	5834.95	4927.1
941.2325	2111.2332	5822.5	4941.95
941.3684	2112.7675	5799.45	4917.65
941.5044	2114.301	5787.2	4904.95
941.6403	2115.8337	5787.1	4906.55
941.7761	2117.3657	5782.9	4902.3
941.912	2118.897	5756.85	4875.55
942.0478	2120.4276	5729.4	4841.9
942.1835	2121.9575	5731.2	4850.15
942.3193	2123.4866	5715.5	4834.35
942.455	2125.0149	5700.95	4817.55
942.5907	2126.5426	5685.9	4804.3
942.7264	2128.0695	5671.1	4785.7
942.8621	2129.5956	5662.4	4785.2
942.9977	2131.1211	5656.85	4770.55
943.1333	2132.6458	5638.8	4759.75
943.2689	2134.1698	5650.2	4770.45
943.4044	2135.693	5633.45	4751
943.54	2137.2155	5606.2	4723.6
943.6755	2138.7373	5605.7	4725
943.8109	2140.2584	5582.8	4702.95
943.9464	2141.7787	5577.2	4692.15
944.0818	2143.2983	5561.35	4680.95
944.2172	2144.8171	5541	4662.25
944.3526	2146.3353	5525.35	4642.2
944.4879	2147.8527	5510.55	4632
944.6232	2149.3693	5490.7	4611.15
944.7585	2150.8853	5502.65	4621.7
944.8938	2152.4005	5459.9	4580.7
945.029	2153.9149	5452.35	4573.2
945.1642	2155.4287	5450.15	4569.9
945.2994	2156.9417	5446.5	4564.85
945.4346	2158.454	5446.95	4563.85
945.5697	2159.9655	5400.45	4520.15
945.7048	2161.4764	5419.55	4538.35
945.8399	2162.9865	5385.9	4504
945.9749	2164.4958	5371.05	4489.55
946.1099	2166.0045	5362.95	4479.25
946.2449	2167.5124	5361.3	4482.6
946.3799	2169.0195	5344.2	4464.3
946.5148	2170.526	5354.25	4472.75
946.6498	2172.0317	5323.05	4440.2
946.7846	2173.5367	5321.35	4438.95
946.9195	2175.0409	5322.85	4442.5
947.0543	2176.5445	5291.6	4412.25
947.1891	2178.0473	5268.85	4387.05
947.3239	2179.5494	5265.2	4380.8
947.4587	2181.0507	5217.7	4336.2
947.5934	2182.5513	5220.65	4340.9
947.7281	2184.0512	5227.75	4347
947.8628	2185.5504	5207	4325.9
947.9974	2187.0488	5191.9	4312.75
948.132	2188.5465	5175.5	4294.05
948.2666	2190.0435	5164.6	4284.2
948.4012	2191.5397	5150.3	4270.05
948.5357	2193.0353	5136.55	4256.45
948.6702	2194.5301	5110.45	4228.45
948.8047	2196.0241	5097.95	4214.75
948.9392	2197.5175	5089.95	4211.8
949.0736	2199.0101	5076.25	4191.25
949.208	2200.502	5050.95	4171.35
949.3424	2201.9931	5020.35	4138.25
949.4767	2203.4835	5013.6	4131.25
949.611	2204.9733	5028.45	4142.15
949.7453	2206.4622	5012.3	4132.5
949.8796	2207.9505	4983.55	4099.9
950.0138	2209.438	4951	4074.7
950.148	2210.9248	4960.05	4078.45
950.2822	2212.4109	4942.45	4064.3
950.4164	2213.8962	4941.1	4057.5
950.5505	2215.3809	4929.9	4047
950.6846	2216.8648	4929.3	4049.4
950.8186	2218.3479	4893.75	4008.85
950.9527	2219.8304	4881.35	3997
951.0867	2221.3121	4863.05	3979.55
951.2207	2222.7931	4848.85	3966.05
951.3546	2224.2733	4827.4	3947.95
951.4886	2225.7529	4809.65	3927.8
951.6225	2227.2317	4816.2	3933.55
951.7563	2228.7098	4816.45	3938.8
951.8902	2230.1872	4788.55	3908
952.024	2231.6638	4783.45	3904.45
952.1578	2233.1397	4768.95	3883.3
952.2916	2234.6149	4749.45	3869.55
952.4253	2236.0894	4740.9	3858.35
952.559	2237.5632	4730.95	3850.65
952.6927	2239.0362	4715.3	3834.8
952.8263	2240.5085	4711.6	3830.7
952.9599	2241.9801	4700.75	3818.3
953.0935	2243.4509	4684.05	3801.65
953.2271	2244.921	4673.5	3792.65
953.3606	2246.3904	4638.25	3755.2
953.4941	2247.8591	4635.7	3755.3
953.6276	2249.3271	4622.9	3744.45
953.7611	2250.7943	4611.6	3729.35
953.8945	2252.2608	4589.85	3709.9
954.0279	2253.7266	4589.3	3708
954.1612	2255.1917	4576.95	3695
954.2946	2256.656	4559.85	3678.5
954.4279	2258.1197	4562.1	3683.55
954.5612	2259.5826	4541.45	3659.6
954.6944	2261.0447	4540.55	3659.3
954.8276	2262.5062	4509.95	3627.4
954.9608	2263.9669	4508.55	3624
955.094	2265.4269	4500.1	3621.55
955.2271	2266.8862	4478.6	3598.1
955.3602	2268.3448	4487.4	3607.15
955.4933	2269.8026	4466.35	3586.15
955.6264	2271.2598	4463.65	3584.35
955.7594	2272.7162	4452.45	3572.7
955.8924	2274.1719	4440.1	3558.85
956.0253	2275.6268	4419.85	3540.85
956.1583	2277.0811	4420.2	3539.05
956.2912	2278.5346	4401.45	3521.05
956.4241	2279.9874	4395.7	3516.3
956.5569	2281.4395	4393.45	3514.9
956.6897	2282.8908	4376.65	3490.65
956.8225	2284.3414	4364.9	3481.75
956.9553	2285.7914	4361.15	3481.1
957.088	2287.2406	4344.45	3459.65
957.2207	2288.689	4325.45	3445.45
957.3534	2290.1368	4314.65	3431
957.486	2291.5838	4319.25	3435.1
957.6186	2293.0302	4304.25	3423.9
957.7512	2294.4758	4284.4	3401.7
957.8838	2295.9206	4265.6	3382
958.0163	2297.3648	4245.15	3364.9
958.1488	2298.8082	4257.85	3374.85
958.2813	2300.251	4236.6	3357.05
958.4137	2301.693	4239.55	3355.2
958.5461	2303.1343	4232.9	3353.2
958.6785	2304.5748	4218.85	3339.85
958.8108	2306.0147	4199.6	3319.25
958.9432	2307.4538	4185.8	3302.85
959.0754	2308.8922	4182.55	3303.75
959.2077	2310.3299	4170.45	3291.65
959.3399	2311.7669	4137.7	3257.55
959.4721	2313.2031	4161.4	3283.7
959.6043	2314.6387	4128.45	3246.65
959.7365	2316.0735	4136.65	3258.35
959.8686	2317.5076	4121.45	3241.9
960.0006	2318.941	4099.55	3219.7
960.1327	2320.3737	4102.35	3221.35
960.2647	2321.8056	4081	3198.55
960.3967	2323.2369	4088.15	3206.3
960.5287	2324.6674	4076.4	3194.6
960.6606	2326.0972	4055.65	3173.65
960.7925	2327.5263	4041.15	3161.25
960.9244	2328.9547	4024.5	3144.7
961.0562	2330.3823	4021.6	3138.95
961.1881	2331.8092	4026.25	3144.45
961.3198	2333.2355	3995.5	3115
961.4516	2334.661	3989.6	3109.35
961.5833	2336.0858	3987.95	3105.7
961.715	2337.5098	3987.35	3106.85
961.8467	2338.9332	3967.25	3085.6
961.9783	2340.3558	3967.75	3081.3
962.1099	2341.7778	3964.9	3084.8
962.2415	2343.199	3937.65	3056
962.373	2344.6195	3922.9	3041.95
962.5045	2346.0393	3909.55	3031.05
962.636	2347.4583	3913	3032.4
962.7675	2348.8767	3905.9	3023.45
962.8989	2350.2943	3890.6	3008.65
963.0303	2351.7113	3880.85	2998.4
963.1617	2353.1275	3865.2	2983.05
963.293	2354.543	3871	2979.55
963.4243	2355.9578	3857.5	2976.75
963.5556	2357.3718	3831.45	2949.9
963.6868	2358.7852	3828.35	2944.1
963.818	2360.1978	3812.25	2929.6
963.9492	2361.6098	3809.5	2929.45
964.0803	2363.021	3798.55	2912.5
964.2114	2364.4315	3774.85	2893
964.3425	2365.8413	3780.05	2890.8
964.4736	2367.2504	3748.6	2869.7
964.6046	2368.6587	3738.55	2855.3
964.7356	2370.0664	3740.7	2859.1
964.8666	2371.4733	3736.8	2854.65
964.9975	2372.8795	3726.55	2846.45
965.1284	2374.285	3700.1	2818.9
965.2593	2375.6899	3691.65	2809.75
965.3901	2377.0939	3687.2	2803.9
965.5209	2378.4973	3682.6	2801.7
965.6517	2379.9	3662.3	2780.1
965.7825	2381.3019	3654.5	2775.8
965.9132	2382.7032	3646.7	2766.85
966.0439	2384.1037	3642.6	2761.75
966.1745	2385.5035	3632.15	2751.75
966.3051	2386.9027	3598.7	2718.75
966.4357	2388.3011	3606.8	2723.9
966.5663	2389.6987	3606.9	2726.2
966.6968	2391.0957	3590.45	2707.9
966.8273	2392.492	3583.2	2703.85
966.9578	2393.8876	3552	2669.15
967.0882	2395.2824	3559.9	2680.35
967.2186	2396.6765	3541.6	2662.5
967.349	2398.07	3528.5	2648.9
967.4793	2399.4627	3524.95	2643.05
967.6097	2400.8547	3512.8	2631.2
967.7399	2402.246	3505.7	2618.5
967.8702	2403.6366	3475.8	2594.1
968.0004	2405.0265	3466.1	2584.3
968.1306	2406.4156	3463.15	2577.55
968.2607	2407.8041	3473.4	2587.1
968.3909	2409.1918	3440.35	2555.95
968.521	2410.5789	3434.45	2553.45
968.651	2411.9652	3421.55	2536.25
968.781	2413.3508	3403.45	2522.05
968.911	2414.7358	3406.4	2524
969.041	2416.12	3388.35	2506
969.1709	2417.5035	3383.55	2502.65
969.3008	2418.8863	3369.35	2484.7
969.4307	2420.2684	3363.65	2481.8
969.5606	2421.6497	3345.5	2462.9
969.6904	2423.0304	3322.5	2440.5
969.8201	2424.4104	3321.25	2438.7
969.9499	2425.7896	3317.65	2433.3
970.0796	2427.1682	3321.2	2438.55
970.2093	2428.546	3304.4	2421.8
970.3389	2429.9232	3295.05	2412.65
970.4685	2431.2996	3287.8	2409.05
970.5981	2432.6753	3291.7	2411.25
970.7277	2434.0503	3269.9	2387.9
970.8572	2435.4246	3265.35	2382.95
970.9867	2436.7982	3256.55	2372.4
971.1161	2438.1711	3252.35	2373.05
971.2456	2439.5433	3228.55	2345.35
971.375	2440.9148	3229.9	2343.7
971.5043	2442.2856	3216.6	2335.45
971.6336	2443.6557	3210.45	2327.6
971.7629	2445.025	3210.85	2329.35
971.8922	2446.3937	3191.45	2308.45
972.0214	2447.7617	3186.5	2305.4
972.1506	2449.1289	3182.05	2301.6
972.2798	2450.4955	3168	2285.35
972.4089	2451.8613	3162.7	2280.4
972.538	2453.2265	3141.55	2260.45
972.6671	2454.5909	3144.25	2262.35
972.7961	2455.9546	3134.5	2252.65
972.9251	2457.3177	3129.05	2247.4
973.0541	2458.68	3124	2242.45
973.1831	2460.0416	3111.15	2231
973.312	2461.4025	3119.8	2236.4
973.4408	2462.7627	3114.25	2221.95
973.5697	2464.1222	3104.35	2223.55
973.6985	2465.4811	3089.8	2208.1
973.8273	2466.8392	3087.5	2205.4
973.956	2468.1966	3075.05	2192.05
974.0847	2469.5533	3067.25	2185.05
974.2134	2470.9093	3061.4	2180.65
974.3421	2472.2645	3068	2184.9
974.4707	2473.6191	3042.05	2160.85
974.5993	2474.973	3040.35	2158.5
974.7278	2476.3262	3028.85	2147.4
974.8563	2477.6787	3024.55	2144.2
974.9848	2479.0305	3006.75	2126.05
975.1132	2480.3816	2988.85	2106.45
975.2417	2481.7319	3007.35	2128.15
975.37	2483.0816	2985.15	2103.75
975.4984	2484.4306	2976.35	2093.3
975.6267	2485.7789	2973.2	2092.85
975.755	2487.1264	2957.1	2073.7
975.8833	2488.4733	2959.75	2080.15
976.0115	2489.8195	2954.25	2065.75
976.1397	2491.165	2932.6	2050
976.2678	2492.5097	2926.25	2043.4
976.3959	2493.8538	2922.25	2041.05
976.524	2495.1972	2893	2010.7
976.6521	2496.5398	2895.5	2012.2
976.7801	2497.8818	2892.95	2009.45
976.9081	2499.2231	2886.45	2002.8
977.036	2500.5637	2874.15	1991.05
977.164	2501.9035	2874.15	1990.05
977.2918	2503.2427	2863.6	1980.2
977.4197	2504.5812	2856.3	1974.5
977.5475	2505.919	2847.75	1963.95
977.6753	2507.256	2856.25	1974.65
977.8031	2508.5924	2849.15	1969.2
977.9308	2509.9281	2839.85	1953.05
978.0585	2511.2631	2821.65	1940.75
978.1861	2512.5974	2825.15	1946
978.3137	2513.9309	2809.05	1926.25
978.4413	2515.2638	2819.05	1911.5
978.5689	2516.596	2800.2	1920.85
978.6964	2517.9275	2776.85	1891.35
978.8239	2519.2583	2775.15	1893.65
978.9513	2520.5884	2779.7	1896.55
979.0788	2521.9178	2771.4	1891.15
979.2062	2523.2465	2753.4	1873.45
979.3335	2524.5745	2747.45	1866.05
979.4608	2525.9018	2749.45	1867.2
979.5881	2527.2284	2732.2	1850.9
979.7154	2528.5543	2722.85	1842.65
979.8426	2529.8796	2722.9	1842.8
979.9698	2531.2041	2720.4	1841
980.0969	2532.5279	2707.9	1828.5
980.224	2533.851	2704.8	1821.6
980.3511	2535.1735	2701	1820.45
980.4781	2536.4952	2703.5	1822.15
980.6052	2537.8163	2675.75	1793.3
980.7321	2539.1366	2678.55	1797.65
980.8591	2540.4562	2680.6	1798.5
980.986	2541.7752	2673.05	1791.5
981.1129	2543.0935	2657.85	1775.7
981.2397	2544.411	2659.4	1776
981.3665	2545.7279	2648.9	1766.05
981.4933	2547.0441	2656.9	1776.65
981.62	2548.3596	2640.8	1757.25
981.7467	2549.6744	2647.45	1766.15
981.8734	2550.9885	2633.1	1743.85
982.0001	2552.3019	2615.8	1735
982.1267	2553.6146	2623.45	1742.15
982.2532	2554.9266	2613.55	1731.8
982.3798	2556.2379	2614.55	1733.35
982.5063	2557.5485	2614.1	1733.15
982.6327	2558.8585	2607.3	1719.15
982.7592	2560.1677	2606.8	1720.8
982.8856	2561.4762	2603.35	1722.45
983.0119	2562.7841	2599.2	1715.1
983.1383	2564.0913	2579.9	1700.5
983.2646	2565.3977	2576.3	1696.7
983.3908	2566.7035	2570.35	1687.4
983.517	2568.0086	2570.75	1686.9
983.6432	2569.313	2571.9	1689.25
983.7694	2570.6167	2569.05	1683.2
983.8955	2571.9197	2562.45	1682.5
984.0216	2573.222	2563.8	1680.7
984.1476	2574.5236	2557.45	1676.05
984.2737	2575.8246	2537.85	1655.45
984.3996	2577.1248	2541.75	1657.05
984.5256	2578.4244	2538.7	1657.7
984.6515	2579.7232	2526.15	1644.8
984.7774	2581.0214	2528.55	1623.1
984.9032	2582.3189	2526.3	1644.85
985.029	2583.6157	2504.3	1615.25
985.1548	2584.9118	2504.85	1625.2
985.2806	2586.2072	2492.4	1611.85
985.4063	2587.5019	2495.75	1615.45
985.5319	2588.7959	2484.2	1603.55
985.6576	2590.0893	2491.15	1608.8
985.7832	2591.3819	2482.55	1601.8
985.9087	2592.6739	2468.55	1587.9
986.0343	2593.9652	2476.4	1594.35
986.1597	2595.2557	2468.75	1588.85
986.2852	2596.5456	2470.05	1585.6
986.4106	2597.8348	2448.75	1569.35
986.536	2599.1234	2438	1558.05
986.6614	2600.4112	2440.95	1560.3
986.7867	2601.6983	2430.1	1545.35
986.912	2602.9848	2420.4	1539.2
987.0372	2604.2705	2423.75	1533.9
987.1624	2605.5556	2414.95	1534.5
987.2876	2606.84	2401.25	1517.8
987.4128	2608.1237	2382.2	1499.3
987.5379	2609.4067	2384.9	1503.35
987.6629	2610.689	2385.25	1495.35
987.788	2611.9707	2385.75	1501.9
987.913	2613.2516	2370.3	1486.05
988.0379	2614.5319	2361.7	1482.4
988.1629	2615.8115	2344.05	1461.9
988.2878	2617.0903	2353.8	1470.8
988.4126	2618.3685	2345.9	1465.25
988.5375	2619.6461	2332.7	1450.25
988.6622	2620.9229	2331.4	1449.8
988.787	2622.199	2330.6	1447.2
988.9117	2623.4745	2324.85	1444.1
989.0364	2624.7493	2312.85	1433.1
989.161	2626.0234	2314.1	1432.65
989.2857	2627.2968	2297	1417.35
989.4102	2628.5695	2302.85	1419.65
989.5348	2629.8415	2282.45	1403
989.6593	2631.1128	2285.3	1402.9
989.7837	2632.3835	2275.75	1395.05
989.9082	2633.6535	2262.35	1381.55
990.0326	2634.9228	2256.8	1374.65
990.1569	2636.1914	2255.95	1376.5
990.2812	2637.4593	2248.15	1362.1
990.4055	2638.7265	2244.7	1363.2
990.5298	2639.9931	2234.95	1351.65
990.654	2641.259	2235.2	1350.55
990.7782	2642.5242	2239.6	1356.5
990.9023	2643.7887	2229.8	1349.25
991.0264	2645.0525	2220	1336.6
991.1505	2646.3156	2214.95	1331.55
991.2745	2647.5781	2206.55	1326.55
991.3985	2648.8398	2202.8	1323.2
991.5225	2650.1009	2208.4	1318.95
991.6464	2651.3613	2202.05	1322.15
991.7703	2652.6211	2184.45	1301.6
991.8942	2653.8801	2182.95	1302.95
992.018	2655.1385	2183.9	1300.5
992.1418	2656.3961	2188.8	1307.4
992.2655	2657.6531	2162.6	1280.8
992.3892	2658.9094	2175.45	1295.1
992.5129	2660.1651	2161.7	1282.35
992.6366	2661.42	2167.7	1285.9
992.7602	2662.6743	2154.75	1271.85
992.8837	2663.9279	2156.85	1276.05
993.0073	2665.1808	2153.65	1271.5
993.1307	2666.433	2133.65	1250.1
993.2542	2667.6846	2137.6	1258.2
993.3776	2668.9354	2145.25	1261.3
993.501	2670.1856	2122.05	1241.3
993.6244	2671.4351	2116.9	1236.3
993.7477	2672.6839	2114.55	1232.55
993.8709	2673.9321	2118.5	1237.55
993.9942	2675.1795	2112.1	1231
994.1174	2676.4263	2104.5	1223.05
994.2405	2677.6724	2103.55	1223.75
994.3637	2678.9179	2098.45	1215.85
994.4868	2680.1626	2094.85	1213.75
994.6098	2681.4067	2074.75	1193.85
994.7328	2682.6501	2083.75	1203.4
994.8558	2683.8928	2070.5	1190.2
994.9788	2685.1348	2066.35	1185.4
995.1017	2686.3761	2066.45	1186.9
995.2245	2687.6168	2062.75	1181.45
995.3474	2688.8568	2057.7	1176.9
995.4702	2690.0961	2048.8	1169.95
995.5929	2691.3348	2052.4	1170.8
995.7156	2692.5727	2056.7	1174.7
995.8383	2693.81	2035.65	1154.65
995.961	2695.0466	2032.7	1153
996.0836	2696.2826	2025.15	1143.4
996.2062	2697.5178	2035.3	1134.9
996.3287	2698.7524	2018.05	1136.5
996.4512	2699.9863	2021.35	1140.75
996.5737	2701.2195	2002.4	1122.9
996.6961	2702.452	2014.4	1129.95
996.8185	2703.6839	2000.85	1119.25
996.9408	2704.9151	2000.75	1121.7
997.0631	2706.1456	1990.4	1109.55
997.1854	2707.3755	1984.45	1103.8
997.3077	2708.6046	1989.55	1105.2
997.4299	2709.8331	1987.75	1106.7
997.552	2711.0609	1989.8	1107.5
997.6742	2712.2881	1976.65	1096.35
997.7963	2713.5145	1980.05	1098.05
997.9183	2714.7403	1961.8	1080.45
998.0403	2715.9654	1953.6	1072.35
998.1623	2717.1899	1966.4	1069.9
998.2842	2718.4136	1947	1065.9
998.4062	2719.6367	1943.35	1060.4
998.528	2720.8591	1944.55	1055.9
998.6498	2722.0809	1936.8	1054.7
998.7716	2723.3019	1931.55	1048
998.8934	2724.5223	1933.55	1049.95
999.0151	2725.7421	1934.85	1054.45
999.1368	2726.9611	1926.25	1043.15
999.2584	2728.1795	1913.25	1027.8
999.38	2729.3972	1913.15	1030.85
999.5016	2730.6142	1914.8	1021.4
999.6231	2731.8306	1900.1	1016.15
999.7446	2733.0462	1897.05	1015.3
999.8661	2734.2612	1900.6	1012.5
999.9875	2735.4756	1880.35	998.6
1000.1089	2736.6892	1879.1	997.7
1000.2302	2737.9022	1863	983.4
1000.3515	2739.1145	1872.15	988.15
1000.4728	2740.3262	1871.6	982.8
1000.594	2741.5372	1847.4	965.95
1000.7152	2742.7475	1860.4	979.2
1000.8363	2743.9571	1856.5	974.1
1000.9575	2745.1661	1856.5	972.15
1001.0785	2746.3744	1848.35	967.15
1001.1996	2747.582	1842.6	963.2
1001.3206	2748.7889	1838.65	956.15
1001.4415	2749.9952	1821.6	941.65
1001.5625	2751.2008	1826.05	943.2
1001.6833	2752.4057	1825.75	943.4
1001.8042	2753.61	1826.25	944.15
1001.925	2754.8136	1819.25	936.45
1002.0458	2756.0165	1816.2	935.05
1002.1665	2757.2188	1802.8	923.3
1002.2872	2758.4204	1802.55	924.2
1002.4078	2759.6213	1800.75	918.65
1002.5285	2760.8215	1797.7	911.5
1002.649	2762.0211	1794.4	910.65
1002.7696	2763.22	1795.95	911.05
1002.8901	2764.4182	1789.55	907.35
1003.0106	2765.6158	1777.25	895.65
1003.131	2766.8127	1769.2	887.45
1003.2514	2768.009	1777.95	896.15
1003.3717	2769.2045	1768.9	887.65
1003.492	2770.3994	1770.3	885.95
1003.6123	2771.5936	1767.1	884.6
1003.7325	2772.7872	1753.35	874.25
1003.8527	2773.9801	1753.95	871.45
1003.9729	2775.1723	1771.3	873.45
1004.093	2776.3639	1751.45	872.45
1004.2131	2777.5548	1745.6	860.05
1004.3331	2778.745	1742.1	857.8
1004.4531	2779.9346	1720.65	841.4
1004.5731	2781.1235	1739.9	859.5
1004.693	2782.3117	1722.35	841.85
1004.8129	2783.4992	1726.25	844.9
1004.9328	2784.6861	1724.3	843
1005.0526	2785.8723	1721.15	839.05
1005.1723	2787.0579	1721.3	840.35
1005.2921	2788.2428	1710.05	827.25
1005.4118	2789.427	1711.8	833.85
1005.5314	2790.6106	1702.2	821.8
1005.651	2791.7935	1693.45	810.05
1005.7706	2792.9757	1687.65	808.55
1005.8902	2794.1573	1697.55	815.3
1006.0097	2795.3382	1696.1	814.65
1006.1291	2796.5184	1679.75	799.9
1006.2485	2797.698	1681.85	799.85
1006.3679	2798.8769	1672.7	793.5
1006.4873	2800.0551	1674.45	793.6
1006.6066	2801.2327	1671.55	787.9
1006.7258	2802.4096	1672.55	793.85
1006.8451	2803.5859	1662.8	778.6
1006.9642	2804.7615	1659.95	779.15
1007.0834	2805.9364	1660.25	779.75
1007.2025	2807.1106	1649.5	768.05
1007.3216	2808.2842	1650.4	767.95
1007.4406	2809.4572	1645.2	763.8
1007.5596	2810.6294	1649.45	768.55
1007.6785	2811.801	1649.95	769.4
1007.7975	2812.972	1636.85	756.7
1007.9163	2814.1423	1648.55	769.1
1008.0352	2815.3119	1641.35	762.35
1008.154	2816.4808	1642.55	762.7
1008.2727	2817.6491	1635.1	752.2
1008.3914	2818.8167	1642.25	763.05
1008.5101	2819.9837	1644.4	759.5
1008.6288	2821.15	1646.95	764.9
1008.7474	2822.3157	1644.3	765.6
1008.8659	2823.4807	1650.1	769.35
1008.9844	2824.645	1651.9	768.85
1009.1029	2825.8086	1658.5	777.9
1009.2214	2826.9716	1666.6	786.75
1009.3398	2828.134	1663	782.4
1009.4581	2829.2957	1670.25	790.45
1009.5764	2830.4567	1671.85	792.35
1009.6947	2831.617	1680.1	800.55
1009.813	2832.7767	1675.5	794.3
1009.9312	2833.9358	1678.25	798.15
1010.0493	2835.0941	1674.4	791.8
1010.1675	2836.2519	1667.05	785.65
1010.2855	2837.4089	1663.05	783
1010.4036	2838.5653	1655.4	777.15
1010.5216	2839.7211	1648.35	770.5
1010.6396	2840.8761	1642.25	761.4
1010.7575	2842.0306	1637	756.65
1010.8754	2843.1843	1639.5	758.05
1010.9932	2844.3374	1646.05	765.05
1011.111	2845.4899	1639.95	757.8
1011.2288	2846.6417	1634.2	753.5
1011.3465	2847.7928	1634.05	755.55
1011.4642	2848.9433	1638.4	757.65
1011.5818	2850.0931	1634.55	753.7
1011.6995	2851.2422	1632.6	750.15
1011.817	2852.3907	1632.1	749.5
1011.9345	2853.5385	1638.85	755.85
1012.052	2854.6857	1640.65	751.35
1012.1695	2855.8323	1623.05	745.6
1012.2869	2856.9781	1619.95	740.25
1012.4042	2858.1233	1624.7	743.45
1012.5216	2859.2679	1631.65	751.45
1012.6389	2860.4118	1632.8	752.35
1012.7561	2861.555	1628.95	743.55
1012.8733	2862.6976	1631.2	749.55
1012.9905	2863.8395	1626.6	746.15
1013.1076	2864.9808	1632.05	751.25
1013.2247	2866.1214	1627.05	750.35
1013.3417	2867.2614	1622.6	743.15
1013.4587	2868.4007	1625.75	746.5
1013.5757	2869.5393	1626.4	743.85
1013.6926	2870.6773	1619.15	734.9
1013.8095	2871.8146	1630.1	746.4
1013.9263	2872.9513	1624.7	740.5
1014.0431	2874.0874	1621.65	742.2
1014.1599	2875.2227	1619.55	736.85
1014.2766	2876.3574	1614.6	733.5
1014.3933	2877.4915	1611.2	732.05
1014.51	2878.6249	1614.7	734.75
1014.6266	2879.7577	1614.45	733.35
1014.7431	2880.8898	1623.05	731.65
1014.8596	2882.0212	1605.55	726.3
1014.9761	2883.152	1607.8	726.35
1015.0925	2884.2821	1617.25	737.15
1015.2089	2885.4116	1602.4	722.3
1015.3253	2886.5405	1607.35	728.15
1015.4416	2887.6686	1619.05	736.8
1015.5579	2888.7962	1596.65	718.8
1015.6741	2889.923	1592	712.3
1015.7903	2891.0493	1596.2	714.85
1015.9065	2892.1748	1598.3	716.5
1016.0226	2893.2997	1585.85	705.05
1016.1387	2894.424	1591.2	712.7
1016.2547	2895.5476	1591.15	710.9
1016.3707	2896.6706	1583.1	703.3
1016.4866	2897.7929	1581.5	701.65
1016.6025	2898.9145	1583.55	702.1
1016.7184	2900.0355	1571.85	690.05
1016.8342	2901.1559	1562.7	680.85
1016.95	2902.2756	1560.6	678.35
1017.0658	2903.3946	1570.4	690.8
1017.1815	2904.513	1564.8	681.75
1017.2971	2905.6308	1570.3	690.4
1017.4127	2906.7479	1565.2	685.35
1017.5283	2907.8643	1557.95	675.75
1017.6439	2908.9801	1553.7	673.6
1017.7594	2910.0953	1554.75	674.25
1017.8748	2911.2098	1542.9	659.4
1017.9902	2912.3236	1544.35	656.85
1018.1056	2913.4368	1537.85	654.8
1018.2209	2914.5494	1532.2	651.6
1018.3362	2915.6613	1535.85	649.55
1018.4515	2916.7725	1532.45	648.9
1018.5667	2917.8831	1530.1	647.9
1018.6819	2918.9931	1526.1	644.2
1018.797	2920.1024	1517.95	636.6
1018.9121	2921.211	1507.3	625.1
1019.0271	2922.319	1515.7	636
1019.1421	2923.4264	1502.75	623.4
1019.2571	2924.5331	1501.3	621.9
1019.372	2925.6391	1506.15	626.25
1019.4869	2926.7445	1497.6	617.55
1019.6017	2927.8493	1500.5	618.95
1019.7165	2928.9534	1494	614.95
1019.8313	2930.0569	1501.85	618.2
1019.946	2931.1597	1498.3	616.3
1020.0606	2932.2619	1495.9	615.8
1020.1753	2933.3634	1492.15	613.4
1020.2899	2934.4643	1502.4	616.15
1020.4044	2935.5645	1500.1	613.5
1020.5189	2936.6641	1502.45	617.5
1020.6334	2937.763	1493	613.95
1020.7478	2938.8613	1498.95	617.8
1020.8622	2939.959	1494.9	609.05
1020.9765	2941.056	1475.05	596.2
1021.0908	2942.1523	1480.75	600.6
1021.2051	2943.248	1460.75	580.15
1021.3193	2944.3431	1460.3	581.25
1021.4334	2945.4375	1449.35	567.5
1021.5476	2946.5313	1431	552.45
1021.6617	2947.6244	1427.15	546.95
1021.7757	2948.7169	1411.05	529.05
1021.8897	2949.8087	1417.4	536.25
1022.0037	2950.8999	1406.2	525.6
1022.1176	2951.9904	1398.05	518.1
1022.2315	2953.0803	1391.3	510.45
1022.3453	2954.1696	1388.65	509.85
1022.4591	2955.2582	1373.45	492.85
1022.5728	2956.3462	1377.7	496.8
1022.6865	2957.4335	1380.9	500.9
1022.8002	2958.5202	1377.45	495
1022.9138	2959.6062	1361.1	482.3
1023.0274	2960.6916	1363.5	484
1023.141	2961.7764	1369.1	486.2
1023.2545	2962.8605	1362.75	480.9
1023.3679	2963.9439	1366.4	486.7
1023.4813	2965.0267	1356.2	473.95
1023.5947	2966.1089	1373.25	469.2
1023.708	2967.1905	1355.8	477.3
1023.8213	2968.2714	1350.6	471.6
1023.9346	2969.3516	1342.55	461.7
1024.0478	2970.4312	1349.05	460.3
1024.1609	2971.5102	1347.05	467.75
1024.274	2972.5885	1333.9	452.3
1024.3871	2973.6662	1344.15	459.25
1024.5002	2974.7432	1337.1	456.75
1024.6132	2975.8196	1331.2	451.2
1024.7261	2976.8954	1332.9	453.2
1024.839	2977.9705	1333.45	452.65
1024.9519	2979.045	1331.3	450.95
1025.0647	2980.1188	1328.45	446.95
1025.1775	2981.192	1327.3	448.35
1025.2902	2982.2645	1317.3	436.6
1025.4029	2983.3364	1320.6	439.65
1025.5156	2984.4077	1310.05	430.55
1025.6282	2985.4783	1307.15	419.8
1025.7407	2986.5483	1303.95	423.85
1025.8532	2987.6177	1306.55	426.95
1025.9657	2988.6864	1295.4	414.55
1026.0782	2989.7545	1303.1	420.5
1026.1906	2990.8219	1300.05	418.15
1026.3029	2991.8887	1293.05	411.1
1026.4152	2992.9548	1298.6	418.3
1026.5275	2994.0204	1278.3	398.85
1026.6397	2995.0852	1280.25	402.4
1026.7519	2996.1495	1278	394.35
1026.864	2997.2131	1269.25	388.8
1026.9761	2998.276	1266.5	385.55
1027.0882	2999.3383	1267.45	386.55
1027.2002	3000.4	1260.8	378.95
1027.3122	3001.4611	1255.45	376.8
1027.4241	3002.5215	1260.7	378.75
1027.536	3003.5812	1253.7	373.3
1027.6478	3004.6404	1245.1	364.6
1027.7596	3005.6989	1253	372.4
1027.8714	3006.7567	1246.6	367.5
1027.9831	3007.8139	1266.6	363.9
1028.0947	3008.8705	1242.7	363.55
1028.2064	3009.9264	1244.85	360.6
1028.3179	3010.9818	1241	361.8
1028.4295	3012.0364	1232.5	350.45
1028.541	3013.0905	1233.6	353.15
1028.6524	3014.1439	1238.35	357.45
1028.7638	3015.1966	1226.55	347.3
1028.8752	3016.2487	1232.15	353.5
1028.9865	3017.3002	1230.6	343
1029.0978	3018.3511	1227.8	348.2
1029.209	3019.4013	1220.55	340.2
1029.3202	3020.4509	1219.35	338.85
1029.4314	3021.4998	1226.45	347.65
1029.5425	3022.5481	1219.4	337.45
1029.6535	3023.5958	1222	344.1
1029.7645	3024.6428	1215.6	333.5
1029.8755	3025.6892	1215.5	336.05
1029.9864	3026.735	1211.1	330
1030.0973	3027.7802	1208.05	326.9
1030.2082	3028.8247	1213.45	334.2
1030.319	3029.8685	1206.65	327.3
1030.4297	3030.9118	1205.95	325.2
1030.5404	3031.9544	1198.55	319.55
1030.6511	3032.9963	1196.05	316.55
1030.7617	3034.0376	1204.6	325.8
1030.8723	3035.0783	1202.4	319.2
1030.9829	3036.1184	1201.95	320.7
1031.0934	3037.1578	1201.2	322.25
1031.2038	3038.1966	1198.45	317.3
1031.3142	3039.2348	1194.95	314.9
1031.4246	3040.2723	1208.35	318.95
1031.5349	3041.3092	1190.6	312.15
1031.6452	3042.3455	1188.8	308.8
1031.7554	3043.3811	1190.1	309.5
1031.8656	3044.4161	1193.1	312.1
1031.9758	3045.4505	1189.45	309.2
1032.0859	3046.4842	1186.55	307.7
1032.1959	3047.5173	1181.2	303.25
1032.3059	3048.5498	1181.65	301.2
1032.4159	3049.5816	1185.15	304.35
1032.5258	3050.6128	1184.7	303.25
1032.6357	3051.6434	1177.5	296.2
1032.7455	3052.6734	1189	307.35
1032.8553	3053.7027	1179.6	300.25
1032.9651	3054.7314	1174.65	293.75
1033.0748	3055.7594	1177.5	298.35
1033.1845	3056.7868	1178.5	296.55
1033.2941	3057.8136	1173	295.2
1033.4037	3058.8398	1176.15	296.8
1033.5132	3059.8653	1174.1	292.9
1033.6227	3060.8902	1172	293.7
1033.7321	3061.9145	1166.25	285.7
1033.8415	3062.9381	1169.1	289.1
1033.9509	3063.9612	1187.95	291.4
1034.0602	3064.9835	1167.95	288.95
1034.1694	3066.0053	1165.05	285.1
1034.2787	3067.0264	1166.45	285.65
1034.3878	3068.0469	1170.6	291.9
1034.497	3069.0668	1168.95	287.05
1034.6061	3070.086	1164	286.8
1034.7151	3071.1046	1154.75	275.6
1034.8241	3072.1226	1164.2	284.6
1034.9331	3073.1399	1153.25	272.2
1035.042	3074.1567	1158.6	279.15
1035.1508	3075.1727	1159.4	276.7
1035.2597	3076.1882	1154.8	274.4
1035.3684	3077.203	1154.95	273.95
1035.4772	3078.2173	1155.25	273.35
1035.5859	3079.2308	1151.4	268.95
1035.6945	3080.2438	1146.15	262.45
1035.8031	3081.2561	1150	270
1035.9117	3082.2678	1146.95	268.45
1036.0202	3083.2789	1142.9	263.05
1036.1286	3084.2893	1138.2	259.6
1036.2371	3085.2991	1138.4	257.1
1036.3454	3086.3083	1144.3	260.65
1036.4538	3087.3169	1143.45	262.5
1036.562	3088.3248	1140.6	258.9
1036.6703	3089.3321	1136.9	254.3
1036.7785	3090.3388	1134.9	257.15
1036.8866	3091.3449	1129.6	249.4
1036.9948	3092.3503	1131.85	249.9
1037.1028	3093.3551	1135.2	255.65
1037.2108	3094.3593	1125.6	247.2
1037.3188	3095.3629	1127.55	247.2
1037.4267	3096.3658	1132.2	253.9
1037.5346	3097.3681	1122.55	244.05
1037.6425	3098.3698	1127.65	244.85
1037.7503	3099.3708	1131.3	242.6
1037.858	3100.3713	1120.75	241.45
1037.9657	3101.3711	1123.1	241.55
1038.0734	3102.3702	1253.15	234.5
1038.181	3103.3688	1119.75	237.95
1038.2886	3104.3667	1110.6	233.15
1038.3961	3105.364	1110.85	231.65
1038.5036	3106.3607	1111.55	229.8
1038.611	3107.3568	1109.2	229.15
1038.7184	3108.3522	1107.95	227.5
1038.8257	3109.347	1109.2	227.55
1038.933	3110.3412	1112.25	228.75
1039.0403	3111.3348	1103.65	223.8
1039.1475	3112.3277	1106.15	224.3
1039.2547	3113.32	1101.05	222.4
1039.3618	3114.3117	1103.3	222.2
1039.4689	3115.3028	1098.4	217.8
1039.5759	3116.2932	1098.3	219.15
1039.6829	3117.2831	1102.2	217.7
1039.7898	3118.2723	1100.35	222.45
1039.8967	3119.2608	1100	218.8
1040.0035	3120.2488	1098.9	219.7
1040.1103	3121.2361	1094.95	214.9
1040.2171	3122.2229	1090.1	209.75
1040.3238	3123.209	1094.8	215.4
1040.4305	3124.1944	1091.3	211.65
1040.5371	3125.1793	1087.5	207.7
1040.6437	3126.1635	1083.9	203.7
1040.7502	3127.1471	1089.9	210.6
1040.8567	3128.1301	1083.1	202.3
1040.9631	3129.1125	1084.15	206.2
1041.0695	3130.0942	1080.4	200.5
1041.1759	3131.0753	1087.05	199.55
1041.2822	3132.0558	1085.4	202.6
1041.3884	3133.0357	1086.2	206.15
1041.4946	3134.015	1077.95	197.8
1041.6008	3134.9936	1075.8	193.45
1041.7069	3135.9716	1101.75	201.15
1041.813	3136.949	1075.85	196.85
1041.919	3137.9258	1079.35	195.3
1042.025	3138.902	1077.2	190.35
1042.1309	3139.8775	1071	191.45
1042.2368	3140.8524	1072.15	192.15
1042.3427	3141.8267	1075.35	193.4
1042.4485	3142.8004	1073.7	192.7
1042.5542	3143.7735	1080.2	196.1
1042.6599	3144.7459	1075.6	193.6
1042.7656	3145.7178	1071.75	190.1
1042.8712	3146.689	1069.9	190.35
1042.9768	3147.6596	1066.5	184.3
1043.0823	3148.6295	1065.5	184.45
1043.1878	3149.5989	1065.3	185.5
1043.2932	3150.5676	1062.8	185.4
1043.3986	3151.5357	1063.1	183.75
1043.5039	3152.5032	1062.35	184.15
1043.6092	3153.4701	1061.35	180.3
1043.7145	3154.4364	1061.65	180.25
1043.8197	3155.402	1055.7	178.25
1043.9248	3156.367	1061.95	179.85
1044.03	3157.3315	1097.9	182.05
1044.135	3158.2952	1056.05	176.05
1044.24	3159.2584	1054.5	175.25
1044.345	3160.221	1056.25	174.65
1044.4499	3161.1829	1057.2	179.45
1044.5548	3162.1442	1052.2	171.35
1044.6596	3163.105	1054.7	174.9
1044.7644	3164.065	1049.1	168.2
1044.8692	3165.0245	1052.7	169.9
1044.9739	3165.9834	1049.2	170.75
1045.0785	3166.9416	1051.15	169.85
1045.1831	3167.8993	1043.55	163.3
1045.2877	3168.8563	1044.3	164.55
1045.3922	3169.8127	1047.3	167.5
1045.4966	3170.7684	1041.55	162.35
1045.6011	3171.7236	1041.7	162.5
1045.7054	3172.6782	1044.5	163.5
1045.8098	3173.6321	1041.3	163.55
1045.914	3174.5854	1044.1	159.45
1046.0183	3175.5381	1037.55	157.45
1046.1224	3176.4902	1036.5	157.45
1046.2266	3177.4417	1035.75	154.95
1046.3307	3178.3926	1036.6	157
1046.4347	3179.3428	1039.15	162
1046.5387	3180.2924	1035.45	156.95
1046.6427	3181.2415	1034.25	155.4
1046.7466	3182.1899	1033.2	152.3
1046.8504	3183.1377	1031.9	152.45
1046.9542	3184.0848	1034.55	152.5
1047.058	3185.0314	1028.65	147.7
1047.1617	3185.9773	1033.2	153.9
1047.2654	3186.9227	1030.55	150.1
1047.369	3187.8674	1029.35	148.45
1047.4726	3188.8115	1029.25	143.65
1047.5761	3189.755	1022.85	142.15
1047.6796	3190.6979	1023	142.6
1047.783	3191.6402	1019.5	139.45
1047.8864	3192.5818	1024.75	146.85
1047.9898	3193.5229	1027.8	141.35
1048.0931	3194.4633	1027.5	148.7
1048.1963	3195.4031	1024.8	144.9
1048.2995	3196.3423	1018.65	137.05
1048.4027	3197.2809	1022.7	141.2
1048.5058	3198.2189	1020.2	139.2
1048.6089	3199.1563	1026.5	139.7
1048.7119	3200.0931	1018.6	140.65
1048.8148	3201.0292	1022.4	143.4
1048.9178	3201.9648	1016.9	137.1
1049.0206	3202.8997	1018.45	135.6
1049.1235	3203.834	1015.95	135.9
1049.2262	3204.7677	1017.5	139.45
1049.329	3205.7008	1015.95	134.1
1049.4317	3206.6333	1011.3	131.25
1049.5343	3207.5652	1016.45	134.15
1049.6369	3208.4964	1013.15	134.05
1049.7394	3209.4271	1011.75	131.15
1049.8419	3210.3571	1007.35	128.3
1049.9444	3211.2865	1008.7	128.1
1050.0468	3212.2154	1009	129.2
1050.1491	3213.1436	1012	129.85
1050.2514	3214.0712	1016.8	132.2
1050.3537	3214.9982	1007.5	127.3
1050.4559	3215.9246	1006.55	126.15
1050.5581	3216.8503	1003.6	126
1050.6602	3217.7755	1008.05	124.75
1050.7623	3218.7001	1005.55	125
1050.8643	3219.624	1007.4	127.6
1050.9663	3220.5473	1008.75	127.15
1051.0682	3221.4701	1002.9	124.1
1051.1701	3222.3922	1004.65	122.25
1051.2719	3223.3137	1001.4	124.35
1051.3737	3224.2346	1001.3	123.65
1051.4754	3225.1549	1001.45	122.25
1051.5771	3226.0746	999.05	119.85
1051.6788	3226.9937	1000.8	120
1051.7804	3227.9121	997.95	118.5
1051.8819	3228.83	1000.3	121.85
1051.9834	3229.7473	996.7	117.3
1052.0849	3230.6639	996.8	115.5
1052.1863	3231.5799	997.8	117.15
1052.2876	3232.4954	995.2	115.85
1052.3889	3233.4102	989.85	110.95
1052.4902	3234.3244	993.55	112.9
1052.5914	3235.238	993.35	114.5
1052.6926	3236.151	1016.4	114.3
1052.7937	3237.0634	990.7	113.2
1052.8948	3237.9752	991.2	112.1
1052.9958	3238.8864	989.8	109.3
1053.0968	3239.797	990.35	111.95
1053.1977	3240.7069	989	108.35
1053.2986	3241.6163	989.4	107.95
1053.3994	3242.5251	987.25	108.5
1053.5002	3243.4332	986.45	107.1
1053.6009	3244.3408	986.75	106
1053.7016	3245.2477	984.3	105.5
1053.8022	3246.154	987.95	106.1
1053.9028	3247.0598	983.8	103.7
1054.0034	3247.9649	983.55	103.55
1054.1039	3248.8694	983.55	104.95
1054.2043	3249.7733	982.45	103.55
1054.3047	3250.6766	982.7	102.2
1054.4051	3251.5793	980.3	98.95
1054.5054	3252.4814	981.75	103.55
1054.6056	3253.3829	979	98.65
1054.7058	3254.2838	978.5	98.8
1054.806	3255.1841	978.3	99.3
1054.9061	3256.0838	979.6	98.5
1055.0061	3256.9829	977.25	100.4
1055.1062	3257.8814	978.9	97.3
1055.2061	3258.7792	974.85	92.6
1055.306	3259.6765	976.45	95.8
1055.4059	3260.5731	973.55	93
1055.5057	3261.4692	972.35	92.35
1055.6055	3262.3647	970.35	90.45
1055.7052	3263.2595	966.35	87.4
1055.8049	3264.1538	967.55	88.65
1055.9045	3265.0474	970.05	88.85
1056.0041	3265.9404	963.45	85
1056.1036	3266.8329	962.45	83.95
1056.2031	3267.7247	972.9	82.3
1056.3025	3268.616	962.9	85.9
1056.4019	3269.5066	957.9	77.75
1056.5013	3270.3966	958.2	77.25
1056.6005	3271.286	950.9	70
