Software Version:	3.9.2.0
Unit SN:	10000200
Spectrometer SN:	6960
Date:	3/6/2024 10:47:52 AM
Data Line Index:	25
Spectral Points:	2048
Integration time (ms):	125
Averages:	20
Delay (ms):	30
Sequence Number:	1
Processing:	dark subtract
Laser Power (mW):	305
Laser Current (mA):	821
Laser Diode Temp (C):	25.1
Laser Case Temp (C):	27.4
System Temp (C):	27.3
Spectrometer Temp (C):	24.6
CCD Temp (C):	0.004
Secondary Temp (C):	20.006
Heatsink Temp (C):	22.95
CCDPCB Temp (C):	36.718
SecondaryPCB Temp (C):	34.306

Wavelength	RamanShift	Raw Counts	Dark Subtracted
787.061	30.1047	1165.1	753.85
787.2016	32.3739	1200.2	788.95
787.3422	34.6426	1245.65	835.55
787.4828	36.9109	1290.85	880.4
787.6235	39.1787	1355.55	937.9
787.7642	41.4461	1422.5	1001.75
787.9049	43.7131	1492	1067.2
788.0456	45.9796	1548.95	1120.15
788.1863	48.2456	1625.2	1191
788.3271	50.5112	1696.4	1259.75
788.4679	52.7764	1763.15	1324.45
788.6087	55.0411	1850.05	1406.35
788.7496	57.3054	1944.25	1496
788.8904	59.5692	2044.45	1593.35
789.0313	61.8326	2146.55	1691.25
789.1722	64.0955	2257.25	1798.1
789.3132	66.3579	2392.8	1928.65
789.4541	68.6199	2550.15	2085.15
789.5951	70.8815	2815.6	2345.1
789.7361	73.1426	3363.5	2889.6
789.8771	75.4032	4717.5	4237.35
790.0181	77.6634	8207	7723.45
790.1592	79.9231	17533.15	17044.5
790.3003	82.1824	57621.85	57124.95
790.4414	84.4412	65535	65025.2
790.5825	86.6995	65535	64999.7
790.7237	88.9574	65535	64979.85
790.8648	91.2148	65535	64962.3
791.006	93.4717	65535	64955.65
791.1472	95.7282	65535	64948.75
791.2885	97.9842	65535	64948.4
791.4297	100.2398	65535	64939.95
791.571	102.4949	65535	64942
791.7123	104.7495	65535	64935.6
791.8536	107.0036	65535	64936.55
791.9949	109.2573	65535	64938.55
792.1363	111.5105	65535	64936.2
792.2777	113.7632	65535	64933.55
792.4191	116.0154	65535	64921.15
792.5605	118.2672	65535	64930.65
792.7019	120.5185	65535	64929.7
792.8434	122.7693	65535	64926.25
792.9849	125.0197	65535	64920
793.1264	127.2696	65535	64918.9
793.2679	129.519	65535	64915.15
793.4094	131.7679	65535	64912.7
793.551	134.0163	65535	64907.8
793.6926	136.2642	65535	64906.8
793.8342	138.5117	65535	64898.35
793.9758	140.7587	65535	64903.5
794.1175	143.0052	65535	64898.9
794.2591	145.2512	65535	64902
794.4008	147.4967	65535	64897.6
794.5425	149.7417	65535	64894.25
794.6842	151.9863	65535	64893
794.826	154.2304	65535	64883.25
794.9677	156.4739	65535	64880.8
795.1095	158.717	65535	64886.15
795.2513	160.9596	65535	64878.75
795.3931	163.2017	65535	64877
795.535	165.4433	65535	64874.55
795.6768	167.6844	65535	64871.8
795.8187	169.925	65535	64873.6
795.9606	172.1651	65535	64864.15
796.1025	174.4047	65535	64863.65
796.2445	176.6439	65535	64863.7
796.3864	178.8825	65535	64856.4
796.5284	181.1206	65535	64855.25
796.6704	183.3582	65535	64853.35
796.8124	185.5954	65535	64847.7
796.9544	187.832	65535	64846.5
797.0965	190.0681	65535	64846.2
797.2386	192.3037	65535	64840.8
797.3806	194.5388	65535	64836.85
797.5228	196.7734	65535	64839.55
797.6649	199.0075	65535	64830.9
797.807	201.2411	65535	64830.75
797.9492	203.4742	65535	64830.75
798.0914	205.7068	65535	64828.55
798.2336	207.9389	65535	64827.3
798.3758	210.1704	65535	64824.2
798.518	212.4015	65535	64824.4
798.6603	214.632	65535	64823.6
798.8025	216.862	65535	64832.95
798.9448	219.0915	65535	64843.9
799.0871	221.3205	65535	64840.8
799.2294	223.549	65535	64843.45
799.3718	225.777	65535	64847.8
799.5141	228.0044	65535	64842.25
799.6565	230.2314	65535	64840.15
799.7989	232.4578	65535	64841.8
799.9413	234.6837	65535	64833.35
800.0837	236.909	65535	64832.4
800.2262	239.1339	65535	64806.35
800.3687	241.3582	65535	64820
800.5111	243.582	65535	64790.75
800.6536	245.8053	65535	64802.8
800.7961	248.0281	65535	64808.35
800.9387	250.2503	65535	64800.2
801.0812	252.472	65535	64796.3
801.2238	254.6932	65535	64799.5
801.3664	256.9139	65535	64796.6
801.509	259.134	65535	64790.5
801.6516	261.3536	65535	64792.1
801.7942	263.5727	65535	64791.75
801.9369	265.7912	65535	64795.2
802.0795	268.0092	65535	64791.15
802.2222	270.2267	65535	64787.7
802.3649	272.4436	65535	64789.05
802.5076	274.6601	65535	64784.45
802.6504	276.8759	65535	64784.9
802.7931	279.0913	65535	64783.55
802.9359	281.3061	65535	64780.1
803.0787	283.5204	65535	64780.2
803.2215	285.7341	65535	64775.85
803.3643	287.9473	65535	64763.7
803.5071	290.16	65535	64769.55
803.6499	292.3721	65535	64777.2
803.7928	294.5837	65535	64777.6
803.9357	296.7947	65535	64777.55
804.0786	299.0052	65535	64775.35
804.2215	301.2152	65535	64771.8
804.3644	303.4246	65535	64776.8
804.5074	305.6334	65535	64774.25
804.6503	307.8418	65535	64772
804.7933	310.0495	65535	64771.85
804.9363	312.2568	65535	64771.45
805.0793	314.4635	65535	64768.85
805.2223	316.6696	65535	64769.35
805.3653	318.8752	65535	64756
805.5084	321.0802	65535	64763.7
805.6514	323.2847	65535	64761.85
805.7945	325.4887	65535	64762.8
805.9376	327.692	65535	64765.85
806.0807	329.8949	65535	64760.25
806.2238	332.0972	65535	64762.5
806.367	334.2989	65535	64753.5
806.5101	336.5001	65535	64754.3
806.6533	338.7007	65535	64756
806.7965	340.9008	65535	64754.35
806.9397	343.1003	65535	64751.7
807.0829	345.2992	65535	64752.65
807.2261	347.4976	65535	64752.45
807.3693	349.6955	65535	64746.65
807.5126	351.8927	65535	64746.4
807.6559	354.0895	65535	64733.55
807.7991	356.2856	65535	64742.65
807.9424	358.4812	65535	64743.1
808.0857	360.6763	65535	64743.3
808.2291	362.8707	65535	64743.6
808.3724	365.0646	65535	64737.95
808.5158	367.258	65535	64737.6
808.6591	369.4508	65535	64734.6
808.8025	371.643	65535	64733.6
808.9459	373.8346	65535	64731.9
809.0893	376.0257	65535	64727.35
809.2327	378.2162	65535	64726.2
809.3762	380.4062	65535	64723.5
809.5196	382.5956	65535	64726.2
809.6631	384.7844	65535	64727.75
809.8066	386.9726	65535	64725.25
809.9501	389.1603	65535	64728.7
810.0936	391.3474	65535	64685.65
810.2371	393.5339	65535	64728.3
810.3806	395.7199	65535	64733.45
810.5241	397.9052	65535	64735.1
810.6677	400.09	65535	64732.5
810.8113	402.2743	65535	64736.6
810.9548	404.4579	65535	64733.65
811.0984	406.641	65535	64731.25
811.2421	408.8235	65535	64732.6
811.3857	411.0054	65535	64730.45
811.5293	413.1868	65535	64725.4
811.673	415.3675	65535	64723.75
811.8166	417.5477	65535	64725.2
811.9603	419.7273	65535	64723.75
812.104	421.9064	65535	64712.85
812.2477	424.0848	65535	64717.3
812.3914	426.2627	65535	64713
812.5351	428.4399	65535	64713.85
812.6788	430.6166	65535	64711.2
812.8226	432.7928	65535	64710.95
812.9663	434.9683	65535	64710.35
813.1101	437.1432	65535	64705.45
813.2539	439.3176	65535	64710.25
813.3977	441.4914	65535	64710.15
813.5415	443.6645	65535	64707.75
813.6853	445.8371	65535	64707.95
813.8291	448.0091	65535	64710.55
813.973	450.1806	65535	64707.2
814.1168	452.3514	65535	64703.8
814.2607	454.5216	65535	64697.35
814.4046	456.6913	65535	64706.95
814.5485	458.8603	65535	64703.05
814.6924	461.0288	65535	64707.5
814.8363	463.1967	65535	64706
814.9802	465.3639	65535	64701.6
815.1241	467.5306	65535	64703.2
815.2681	469.6967	65535	64704.3
815.412	471.8622	65535	64705.95
815.556	474.0271	65535	64701
815.7	476.1914	65535	64700.45
815.844	478.3551	65535	64702.15
815.988	480.5182	65535	64701.35
816.132	482.6807	65535	64703.3
816.276	484.8426	65535	64700.7
816.4201	487.0039	65535	64702.55
816.5641	489.1647	65535	64698.9
816.7082	491.3248	65535	64699.6
816.8522	493.4843	65535	64699.65
816.9963	495.6432	65535	64697.7
817.1404	497.8015	65535	64691.7
817.2845	499.9592	65535	64696.3
817.4286	502.1163	65535	64696
817.5727	504.2728	65535	64688.9
817.7168	506.4287	65535	64693.9
817.861	508.5839	65535	64694.95
818.0051	510.7386	65535	64693.65
818.1493	512.8927	65535	64690.15
818.2935	515.0461	65535	64690.05
818.4377	517.199	65535	64689.8
818.5818	519.3512	65535	64691.6
818.726	521.5029	65535	64686.85
818.8703	523.6539	65535	64692.1
819.0145	525.8043	65535	64688.85
819.1587	527.9541	65535	64685.55
819.303	530.1033	65535	64688.4
819.4472	532.2519	65535	64686
819.5915	534.3999	65535	64684.45
819.7357	536.5472	65535	64685.5
819.88	538.694	65535	64687.75
820.0243	540.8401	65535	64683.6
820.1686	542.9856	65535	64681.45
820.3129	545.1305	65535	64682.35
820.4572	547.2748	65535	64679.2
820.6016	549.4185	65535	64679.3
820.7459	551.5615	65535	64680.8
820.8902	553.704	65535	64682.8
821.0346	555.8458	65535	64685
821.1789	557.987	65535	64684.4
821.3233	560.1276	65535	64684.1
821.4677	562.2675	65535	64684.7
821.6121	564.4069	65535	64682.4
821.7565	566.5456	65535	64681.95
821.9009	568.6837	65535	64682.2
822.0453	570.8212	65535	64684
822.1897	572.958	65535	64679.9
822.3342	575.0942	65535	64682.75
822.4786	577.2299	65535	64681.05
822.6231	579.3648	65535	64681.1
822.7675	581.4992	65535	64681.9
822.912	583.6329	65535	64680.25
823.0565	585.766	65535	64678.7
823.201	587.8985	65535	64679.15
823.3454	590.0304	65535	64654.9
823.4899	592.1616	65535	64677.2
823.6345	594.2922	65535	64673.75
823.779	596.4222	65535	64676.5
823.9235	598.5515	65535	64675
824.068	600.6802	65535	64676.7
824.2126	602.8083	65535	64674.45
824.3571	604.9358	65535	64675.3
824.5017	607.0626	65535	64673.8
824.6462	609.1888	65535	64673.95
824.7908	611.3144	65535	64673.05
824.9354	613.4393	65535	64673.6
825.08	615.5636	65535	64672.55
825.2246	617.6873	65535	64674.15
825.3692	619.8103	65535	64670.85
825.5138	621.9327	65535	64669.55
825.6584	624.0544	65535	64672.6
825.803	626.1756	65535	64673.55
825.9477	628.2961	65535	64671.45
826.0923	630.4159	65535	64669.35
826.237	632.5351	65535	64671.5
826.3816	634.6537	65535	64671.5
826.5263	636.7716	65535	64669.65
826.6709	638.8889	65535	64670.45
826.8156	641.0056	65535	64666.7
826.9603	643.1216	65535	64667.2
827.105	645.237	65535	64666.45
827.2497	647.3518	65535	64664.7
827.3944	649.4659	65535	64672
827.5391	651.5793	65535	64669.8
827.6838	653.6922	65535	64669.3
827.8285	655.8043	65535	64667.65
827.9733	657.9159	65535	64664.2
828.118	660.0268	65535	64665.5
828.2627	662.137	65535	64665
828.4075	664.2466	65535	64664.25
828.5522	666.3556	65535	64666.4
828.697	668.4639	65535	64664.5
828.8418	670.5716	65535	64668.7
828.9865	672.6786	65535	64664.35
829.1313	674.785	65535	64663.15
829.2761	676.8907	65535	64663.4
829.4209	678.9958	65535	64665.15
829.5657	681.1002	65535	64661.1
829.7105	683.204	65535	64658.55
829.8553	685.3072	65535	64659.05
830.0001	687.4097	65535	64663.8
830.1449	689.5115	65535	64659.4
830.2898	691.6127	65535	64660.85
830.4346	693.7132	65535	64661.55
830.5794	695.8131	65535	64651.55
830.7243	697.9123	65535	64657.95
830.8691	700.0109	65535	64659.55
831.014	702.1089	65535	64661.25
831.1588	704.2061	65535	64659.35
831.3037	706.3028	65535	64657.95
831.4486	708.3987	65535	64659.35
831.5935	710.4941	65535	64661.5
831.7383	712.5887	65535	64659
831.8832	714.6827	65535	64654.85
832.0281	716.7761	65535	64658.15
832.173	718.8688	65535	64658.2
832.3179	720.9608	65535	64658.3
832.4628	723.0522	65535	64654.9
832.6077	725.1429	65535	64659.75
832.7527	727.233	65535	64655.35
832.8976	729.3224	65535	64656.15
833.0425	731.4112	65535	64656.3
833.1874	733.4993	65535	64654
833.3324	735.5867	65535	64654.8
833.4773	737.6735	65535	64653.4
833.6222	739.7596	65535	64653.25
833.7672	741.845	65535	64653.5
833.9122	743.9298	65535	64654.7
834.0571	746.014	65535	64656.55
834.2021	748.0974	65535	64655.4
834.347	750.1802	65535	64653.05
834.492	752.2624	65535	64656.05
834.637	754.3439	65535	64654.1
834.782	756.4247	65535	64645.65
834.9269	758.5048	65535	64653.15
835.0719	760.5843	65535	64653.15
835.2169	762.6631	65535	64653.2
835.3619	764.7413	65535	64653.05
835.5069	766.8188	65535	64650.9
835.6519	768.8956	65535	64651.5
835.7969	770.9718	65535	64651.95
835.9419	773.0473	65535	64654.7
836.0869	775.1221	65535	64650.5
836.232	777.1962	65535	64653.35
836.377	779.2697	65535	64649.4
836.522	781.3426	65535	64633
836.667	783.4147	65535	64651
836.8121	785.4862	65535	64654.65
836.9571	787.557	65535	64651.15
837.1021	789.6271	65535	64651.5
837.2472	791.6966	65535	64652.65
837.3922	793.7654	65535	64649.75
837.5373	795.8335	65535	64650.85
837.6823	797.901	65535	64654.35
837.8274	799.9678	65535	64650
837.9724	802.0339	65535	64653.4
838.1175	804.0993	65535	64641.65
838.2626	806.1641	65535	64649.75
838.4076	808.2282	65535	64649.6
838.5527	810.2916	65535	64647.95
838.6978	812.3544	65535	64652.85
838.8428	814.4164	65535	64649.55
838.9879	816.4778	65535	64649.85
839.133	818.5385	65535	64653.2
839.2781	820.5986	65535	64649.75
839.4232	822.658	65535	64647.4
839.5682	824.7166	65535	64652.1
839.7133	826.7747	65535	64647.6
839.8584	828.832	65535	64648.35
840.0035	830.8886	65535	64647.15
840.1486	832.9446	65535	64648.55
840.2937	834.9999	65535	64650.85
840.4388	837.0545	65535	64643.45
840.5839	839.1085	65535	64649.85
840.729	841.1618	65535	64645.35
840.8741	843.2143	65535	64648.95
841.0192	845.2662	65535	64649.35
841.1643	847.3175	65535	64648.8
841.3095	849.368	65535	64646.95
841.4546	851.4179	65535	64646.95
841.5997	853.467	65535	64648.55
841.7448	855.5155	65535	64647.9
841.8899	857.5633	65535	64647.85
842.0351	859.6105	65535	64648.9
842.1802	861.6569	65535	64646.9
842.3253	863.7027	65535	64646.25
842.4704	865.7478	65535	64646.45
842.6156	867.7922	65535	64649.05
842.7607	869.8359	65535	64646.85
842.9058	871.8789	65535	64644.7
843.0509	873.9212	65535	64615.8
843.1961	875.9629	65535	64645.7
843.3412	878.0039	65535	64645.25
843.4863	880.0441	65535	64649.55
843.6315	882.0837	65535	64647.6
843.7766	884.1226	65535	64647.05
843.9218	886.1609	65535	64645.25
844.0669	888.1984	65535	64648.45
844.212	890.2352	65535	64649.15
844.3572	892.2714	65535	64641.75
844.5023	894.3069	65535	64645.55
844.6475	896.3416	65535	64646.15
844.7926	898.3757	65535	64648.25
844.9377	900.4091	65535	64644.15
845.0829	902.4418	65535	64638.45
845.228	904.4739	65535	64643.15
845.3732	906.5052	65535	64645.3
845.5183	908.5358	65535	64645.6
845.6635	910.5658	65535	64642.45
845.8086	912.595	65535	64643.5
845.9538	914.6236	65535	64645.35
846.0989	916.6515	65535	64644.6
846.2441	918.6786	65535	64642.25
846.3892	920.7051	65535	64640.95
846.5344	922.7309	65535	64644.1
846.6795	924.756	65535	64643.65
846.8246	926.7804	65535	64642
846.9698	928.8041	65535	64639.95
847.1149	930.8272	65535	64642.7
847.2601	932.8495	65535	64640.25
847.4052	934.8711	65535	64641.3
847.5504	936.892	65535	64644.1
847.6955	938.9123	65535	64642.7
847.8407	940.9318	65535	64643.1
847.9858	942.9506	65535	64642.2
848.131	944.9688	65535	64641.55
848.2761	946.9862	65535	64643.25
848.4213	949.003	65535	64643.8
848.5664	951.019	65535	64642.1
848.7115	953.0344	65535	64644.4
848.8567	955.0491	65535	64642.35
849.0018	957.063	65535	64641.45
849.147	959.0763	65535	64643.1
849.2921	961.0888	65535	64641.6
849.4373	963.1007	65535	64641.6
849.5824	965.1119	65535	64642.85
849.7275	967.1223	65535	64643.35
849.8727	969.1321	65535	64644.15
850.0178	971.1412	65535	64643.8
850.1629	973.1495	65535	64645.6
850.3081	975.1572	65535	64605.6
850.4532	977.1641	65535	64641.85
850.5983	979.1704	65535	64641.3
850.7435	981.1759	65535	64637.65
850.8886	983.1808	65535	64640.2
851.0337	985.1849	65535	64632.5
851.1788	987.1884	65535	64639.45
851.324	989.1911	65535	64640.25
851.4691	991.1932	65535	64641.85
851.6142	993.1945	65535	64645.6
851.7593	995.1951	65535	64640.85
851.9045	997.1951	65535	64637.05
852.0496	999.1943	65535	64642.85
852.1947	1001.1928	65535	64642.35
852.3398	1003.1906	65535	64642.5
852.4849	1005.1877	65535	64638
852.63	1007.1841	65535	64638.7
852.7751	1009.1798	65535	64644.4
852.9202	1011.1748	65535	64645.15
853.0653	1013.1691	65535	64641.65
853.2104	1015.1627	65535	64640.25
853.3555	1017.1556	65535	64641.3
853.5006	1019.1477	65535	64641.15
853.6457	1021.1392	65535	64641.45
853.7908	1023.1299	65535	64642.45
853.9359	1025.12	65535	64640.6
854.081	1027.1093	65535	64644.1
854.2261	1029.0979	65535	64641.85
854.3712	1031.0859	65535	64642.85
854.5163	1033.0731	65535	64643.8
854.6613	1035.0596	65535	64642.35
854.8064	1037.0454	65535	64640.35
854.9515	1039.0304	65535	64641.65
855.0965	1041.0148	65535	64641.2
855.2416	1042.9985	65535	64641.05
855.3867	1044.9814	65535	64643.45
855.5317	1046.9636	65535	64639.8
855.6768	1048.9452	65535	64643.15
855.8219	1050.926	65535	64642.55
855.9669	1052.9061	65535	64642.25
856.112	1054.8855	65535	64640.25
856.257	1056.8642	65535	64643.25
856.4021	1058.8421	65535	64638.5
856.5471	1060.8194	65535	64641.5
856.6921	1062.7959	65535	64641.05
856.8372	1064.7717	65535	64639.75
856.9822	1066.7469	65535	64639.5
857.1272	1068.7213	65535	64639.85
857.2723	1070.695	65535	64641.15
857.4173	1072.6679	65535	64638.55
857.5623	1074.6402	65535	64640.45
857.7073	1076.6117	65535	64638.55
857.8523	1078.5826	65535	64640.15
857.9973	1080.5527	65535	64637.2
858.1423	1082.5221	65535	64639.85
858.2873	1084.4908	65535	64641.45
858.4323	1086.4587	65535	64639.7
858.5773	1088.426	65535	64641.2
858.7223	1090.3925	65535	64635.4
858.8673	1092.3584	65535	64642.1
859.0123	1094.3235	65535	64642.55
859.1573	1096.2879	65535	64640.45
859.3022	1098.2515	65535	64641.6
859.4472	1100.2145	65535	64641.15
859.5922	1102.1767	65535	64638.15
859.7371	1104.1382	65535	64640
859.8821	1106.099	65535	64638.05
860.027	1108.0591	65535	64643.35
860.172	1110.0185	65535	64638.8
860.3169	1111.9771	65535	64641.7
860.4619	1113.9351	65535	64639.9
860.6068	1115.8923	65535	64639.7
860.7517	1117.8488	65535	64637.55
860.8967	1119.8045	65535	64639.35
861.0416	1121.7596	65535	64638.9
861.1865	1123.7139	65535	64641.05
861.3314	1125.6675	65535	64640.1
861.4763	1127.6204	65535	64640.15
861.6212	1129.5726	65535	64637.7
861.7661	1131.524	65535	64642.6
861.911	1133.4748	65535	64640.35
862.0559	1135.4248	65535	64635.45
862.2008	1137.3741	65535	64640.45
862.3457	1139.3226	65535	64640.05
862.4905	1141.2705	65535	64639.2
862.6354	1143.2176	65535	64635.3
862.7803	1145.164	65535	64640.6
862.9251	1147.1097	65535	64637.55
863.07	1149.0546	65535	64638.9
863.2148	1150.9989	65535	64639.6
863.3597	1152.9424	65535	64641.15
863.5045	1154.8852	65535	64638.5
863.6493	1156.8272	65535	64640.25
863.7942	1158.7686	65535	64632.35
863.939	1160.7092	65535	64637.5
864.0838	1162.6491	65535	64638.15
864.2286	1164.5883	65535	64639.5
864.3734	1166.5267	65535	64639.3
864.5182	1168.4644	65535	64639.7
864.663	1170.4014	65535	64636.6
864.8078	1172.3377	65535	64642
864.9526	1174.2732	65535	64640.95
865.0974	1176.2081	65535	64639.6
865.2421	1178.1421	65535	64634.3
865.3869	1180.0755	65535	64639.55
865.5317	1182.0082	65535	64639.75
865.6764	1183.9401	65535	64639.25
865.8212	1185.8713	65535	64640.3
865.9659	1187.8017	65535	64640.8
866.1106	1189.7315	65535	64641.55
866.2554	1191.6605	65535	64614.5
866.4001	1193.5888	65535	64641.1
866.5448	1195.5163	65535	64639.55
866.6895	1197.4432	65535	64638.15
866.8342	1199.3693	65535	64639.25
866.9789	1201.2947	65535	64637.3
867.1236	1203.2193	65535	64640
867.2683	1205.1432	65535	64637.9
867.413	1207.0664	65535	64641.7
867.5576	1208.9889	65535	64638.75
867.7023	1210.9106	65535	64641.35
867.847	1212.8316	65535	64641.65
867.9916	1214.7519	65535	64628.5
868.1363	1216.6715	65535	64639.6
868.2809	1218.5903	65535	64640.75
868.4255	1220.5084	65535	64640.1
868.5701	1222.4257	65535	64639
868.7148	1224.3424	65535	64640.9
868.8594	1226.2583	65535	64635.8
869.004	1228.1735	65535	64637.9
869.1486	1230.0879	65535	64640.65
869.2932	1232.0016	65535	64640.45
869.4377	1233.9146	65535	64636.85
869.5823	1235.8269	65535	64641.6
869.7269	1237.7384	65535	64638.65
869.8715	1239.6492	65535	64640.35
870.016	1241.5592	65535	64641.1
870.1606	1243.4686	65535	64639.7
870.3051	1245.3772	65535	64640.55
870.4496	1247.285	65535	64638.8
870.5941	1249.1922	65535	64638.65
870.7387	1251.0986	65535	64641.65
870.8832	1253.0042	65535	64637.75
871.0277	1254.9092	65535	64640
871.1722	1256.8134	65535	64640.05
871.3167	1258.7169	65535	64639.15
871.4611	1260.6196	65535	64640.5
871.6056	1262.5216	65535	64636.95
871.7501	1264.4229	65535	64641.55
871.8945	1266.3234	65535	64640.7
872.039	1268.2232	65535	64638.35
872.1834	1270.1223	65535	64638.85
872.3278	1272.0207	65535	64639.3
872.4723	1273.9183	65535	64633.8
872.6167	1275.8151	65535	64639.9
872.7611	1277.7113	65535	64639.8
872.9055	1279.6067	65535	64642.5
873.0499	1281.5014	65535	64638.2
873.1943	1283.3953	65535	64637.6
873.3386	1285.2885	65535	64640.35
873.483	1287.181	65535	64637.95
873.6274	1289.0727	65535	64642.15
873.7717	1290.9637	65535	64637.6
873.9161	1292.854	65535	64641.7
874.0604	1294.7435	65535	64638.4
874.2047	1296.6323	65535	64639.8
874.349	1298.5204	65535	64637.5
874.4933	1300.4077	65535	64638.65
874.6376	1302.2943	65535	64640.25
874.7819	1304.1802	65535	64639.25
874.9262	1306.0653	65535	64638.35
875.0705	1307.9497	65535	64638.95
875.2147	1309.8333	65535	64639.5
875.359	1311.7162	65535	64638.25
875.5032	1313.5984	65535	64636.65
875.6475	1315.4798	65535	64622.95
875.7917	1317.3605	65535	64625.05
875.9359	1319.2405	65535	64636.8
876.0801	1321.1197	65535	64636.9
876.2243	1322.9982	65535	64634.75
876.3685	1324.876	65535	64640.7
876.5127	1326.753	65535	64638.4
876.6569	1328.6293	65535	64637.45
876.801	1330.5048	65535	64638.8
876.9452	1332.3796	65535	64641.65
877.0893	1334.2537	65535	64612.6
877.2335	1336.127	65535	64638.5
877.3776	1337.9996	65535	64640.75
877.5217	1339.8714	65535	64638.55
877.6658	1341.7426	65535	64594.7
877.8099	1343.6129	65535	64638.05
877.954	1345.4826	65535	64637.5
878.0981	1347.3515	65535	64637.65
878.2422	1349.2196	65535	64637.95
878.3862	1351.087	65535	64638.75
878.5303	1352.9537	65535	64639.1
878.6743	1354.8197	65535	64638.9
878.8184	1356.6849	65535	64639.05
878.9624	1358.5493	65535	64637.55
879.1064	1360.4131	65535	64640.3
879.2504	1362.276	65535	64639.65
879.3944	1364.1383	65535	64638.7
879.5384	1365.9998	65535	64633.95
879.6823	1367.8606	65535	64639.65
879.8263	1369.7206	65535	64637.85
879.9702	1371.5799	65535	64637.55
880.1142	1373.4384	65535	64638.7
880.2581	1375.2962	65535	64636.8
880.402	1377.1533	65535	64637.45
880.5459	1379.0096	65535	64636.75
880.6898	1380.8652	65535	64637.8
880.8337	1382.7201	65535	64638.45
880.9776	1384.5742	65535	64640.55
881.1215	1386.4275	65535	64636.05
881.2653	1388.2802	65535	64639.2
881.4092	1390.132	65535	64639.8
881.553	1391.9832	65535	64638.3
881.6968	1393.8336	65535	64639.15
881.8406	1395.6832	65535	64637.7
881.9844	1397.5322	65535	64639.9
882.1282	1399.3803	65535	64633.55
882.272	1401.2278	65535	64637.8
882.4158	1403.0745	65535	64639.55
882.5595	1404.9204	65535	64642.25
882.7033	1406.7656	65535	64639.45
882.847	1408.6101	65535	64639.1
882.9908	1410.4538	65535	64639
883.1345	1412.2968	65535	64638.55
883.2782	1414.139	65535	64636.55
883.4219	1415.9805	65535	64639.4
883.5656	1417.8213	65535	64632.55
883.7092	1419.6613	65535	64640.6
883.8529	1421.5006	65535	64636.9
883.9965	1423.3391	65535	64639.65
884.1402	1425.1769	65535	64639.15
884.2838	1427.0139	65535	64638.3
884.4274	1428.8502	65535	64637.85
884.571	1430.6858	65535	64640.75
884.7146	1432.5206	65535	64638.7
884.8582	1434.3547	65535	64638.95
885.0018	1436.188	65535	64638.6
885.1453	1438.0206	65535	64639.3
885.2889	1439.8524	65535	64638.9
885.4324	1441.6835	65535	64637.75
885.5759	1443.5139	65535	64635.55
885.7194	1445.3435	65535	64638.95
885.8629	1447.1724	65535	64637.65
886.0064	1449.0005	65535	64640.3
886.1499	1450.8279	65535	64636.55
886.2933	1452.6545	65535	64642.05
886.4368	1454.4804	65535	64639.4
886.5802	1456.3056	65535	64631.3
886.7237	1458.13	65535	64637.8
886.8671	1459.9536	65535	64637.55
887.0105	1461.7766	65535	64639.45
887.1539	1463.5987	65535	64637.9
887.2972	1465.4202	65535	64637.65
887.4406	1467.2409	65535	64638.8
887.584	1469.0608	65535	64640.9
887.7273	1470.88	65535	64638.9
887.8706	1472.6984	65535	64641.25
888.0139	1474.5161	65535	64636.7
888.1572	1476.3331	65535	64638.4
888.3005	1478.1493	65535	64640.7
888.4438	1479.9648	65535	64640.8
888.5871	1481.7795	65535	64639.55
888.7303	1483.5935	65535	64640.95
888.8736	1485.4067	65535	64638.9
889.0168	1487.2192	65535	64640.7
889.16	1489.031	65535	64637.85
889.3032	1490.842	65535	64639.2
889.4464	1492.6522	65535	64637.95
889.5896	1494.4618	65535	64638.35
889.7327	1496.2705	65535	64639.95
889.8759	1498.0785	65535	64636.75
890.019	1499.8858	65535	64638.6
890.1622	1501.6924	65535	64639.35
890.3053	1503.4981	65535	64638.5
890.4484	1505.3032	65535	64641.65
890.5914	1507.1075	65535	64640.25
890.7345	1508.911	65535	64639.9
890.8776	1510.7138	65535	64638.05
891.0206	1512.5159	65535	64641.15
891.1637	1514.3172	65535	64640.2
891.3067	1516.1178	65535	64639.6
891.4497	1517.9176	65535	64637.25
891.5927	1519.7166	65535	64640.95
891.7357	1521.515	65535	64634.3
891.8786	1523.3126	65535	64638.75
892.0216	1525.1094	65535	64637.9
892.1645	1526.9055	65535	64640.4
892.3074	1528.7008	65535	64640.5
892.4503	1530.4954	65535	64633.8
892.5932	1532.2893	65535	64642
892.7361	1534.0824	65535	64633.7
892.879	1535.8747	65535	64639.3
893.0218	1537.6663	65535	64638.15
893.1647	1539.4572	65535	64639.9
893.3075	1541.2473	65535	64641.45
893.4503	1543.0367	65535	64640.6
893.5931	1544.8253	65535	64636.55
893.7359	1546.6132	65535	64637.75
893.8787	1548.4003	65535	64628.05
894.0214	1550.1867	65535	64632.2
894.1642	1551.9723	65535	64634.45
894.3069	1553.7572	65535	64640.25
894.4496	1555.5414	65535	64639.6
894.5923	1557.3247	65535	64639.1
894.735	1559.1074	65535	64642.7
894.8777	1560.8893	65535	64641.5
895.0204	1562.6705	65535	64638.55
895.163	1564.4509	65535	64639.6
895.3056	1566.2305	65535	64640.25
895.4482	1568.0094	65535	64643.35
895.5908	1569.7876	65535	64639.85
895.7334	1571.565	65535	64639.9
895.876	1573.3417	65535	64640.4
896.0186	1575.1176	65535	64640.65
896.1611	1576.8928	65535	64640.95
896.3036	1578.6672	65535	64640.3
896.4461	1580.4409	65535	64642.55
896.5886	1582.2138	65535	64637.3
896.7311	1583.986	65535	64638.55
896.8736	1585.7575	65528.1	64634.4
897.0161	1587.5282	65535	64642.15
897.1585	1589.2981	65533.25	64640.95
897.3009	1591.0673	65517.5	64621.55
897.4433	1592.8358	65490.2	64599.15
897.5857	1594.6035	65511.9	64616.3
897.7281	1596.3704	65514.55	64620.85
897.8705	1598.1366	65440.9	64546.75
898.0128	1599.9021	65342.8	64450.4
898.1551	1601.6668	65472.9	64576.95
898.2975	1603.4308	65416.85	64522.9
898.4398	1605.194	65415.35	64516.3
898.5821	1606.9564	65181.85	64287.25
898.7243	1608.7182	65341.4	64444.25
898.8666	1610.4791	65201.8	64309.1
899.0088	1612.2394	65348.3	64455.9
899.1511	1613.9988	65110.85	64217.15
899.2933	1615.7576	65353.7	64458.85
899.4355	1617.5156	65338.25	64440.95
899.5776	1619.2728	65472.5	64577.6
899.7198	1621.0293	65165.3	64274
899.862	1622.785	65180.4	64281.4
900.0041	1624.54	65308.65	64412.45
900.1462	1626.2942	65102.6	64207.85
900.2883	1628.0477	64650.05	63754.45
900.4304	1629.8005	64136.75	63240.8
900.5725	1631.5525	64670.5	63778.95
900.7145	1633.3037	63844.5	62951.8
900.8566	1635.0542	63714.25	62821.8
900.9986	1636.804	64141.25	63247.55
901.1406	1638.553	63133.1	62158.05
901.2826	1640.3013	63481.85	62587.15
901.4245	1642.0488	62808.8	61913.35
901.5665	1643.7955	63341	62448.45
901.7085	1645.5416	62813.1	61918.1
901.8504	1647.2868	62257.95	61364
901.9923	1649.0313	63150.5	62257.55
902.1342	1650.7751	62642.35	61747.15
902.2761	1652.5181	62275.2	61384.4
902.4179	1654.2604	62351.4	61459.8
902.5598	1656.0019	62703.55	61811.2
902.7016	1657.7427	62459.05	61565.45
902.8434	1659.4828	63057.5	62165.5
902.9852	1661.222	62513	61618.55
903.127	1662.9606	63190.9	62298.35
903.2687	1664.6984	62231.2	61338.6
903.4105	1666.4354	62497.85	61604.55
903.5522	1668.1717	61289.05	60396.9
903.6939	1669.9072	60383.9	59491.5
903.8356	1671.642	60260.3	59365.75
903.9773	1673.3761	59928.6	59035.85
904.119	1675.1094	59660.65	58769.9
904.2606	1676.8419	58864.6	57973
904.4022	1678.5737	58864.2	57972.3
904.5439	1680.3048	58561.5	57668.65
904.6855	1682.0351	58212.7	57320.25
904.827	1683.7646	57880.6	56984.75
904.9686	1685.4934	58025.9	57134.65
905.1101	1687.2215	56906.2	56013
905.2517	1688.9488	57636.7	56744.9
905.3932	1690.6754	55952	55059.9
905.5347	1692.4012	56576.7	55684.65
905.6761	1694.1263	56534.6	55643
905.8176	1695.8506	56117.2	55222.35
905.9591	1697.5742	56001.45	55109.45
906.1005	1699.297	55729	54834.5
906.2419	1701.0191	55601.1	54709.35
906.3833	1702.7404	54944.1	54052.95
906.5246	1704.461	54722.5	53828.65
906.666	1706.1808	54695.7	53801.25
906.8073	1707.8999	54550.6	53654.8
906.9487	1709.6182	54275.35	53382.75
907.09	1711.3358	54185.45	53292.95
907.2313	1713.0527	53936.85	53047.25
907.3725	1714.7688	53920.85	53026.1
907.5138	1716.4841	53226.3	52332.7
907.655	1718.1987	53390.95	52493.85
907.7962	1719.9126	53130.55	52242.2
907.9374	1721.6257	53005.2	52112.4
908.0786	1723.338	53086.55	52192.75
908.2198	1725.0496	52365.2	51473.1
908.3609	1726.7605	52301.9	51408.45
908.502	1728.4706	52091.15	51197.55
908.6431	1730.18	51901.75	51007.65
908.7842	1731.8886	51807.45	50917.1
908.9253	1733.5964	51580.1	50668.6
909.0664	1735.3036	51556.7	50663.9
909.2074	1737.0099	51376.95	50486.15
909.3484	1738.7156	51092.15	50201.6
909.4894	1740.4204	50800.35	49906.3
909.6304	1742.1246	50850.4	49955.75
909.7714	1743.8279	50657.8	49767.5
909.9123	1745.5306	50575.7	49682.5
910.0532	1747.2325	50173	49281.4
910.1941	1748.9336	50069.9	49178.6
910.335	1750.634	49875.15	48980.5
910.4759	1752.3336	49849.3	48957.5
910.6168	1754.0325	49605.4	48714.2
910.7576	1755.7307	49637.7	48747.7
910.8984	1757.4281	49423.4	48532.9
911.0392	1759.1247	49456.9	48555.7
911.18	1760.8206	49169.45	48272.2
911.3208	1762.5158	49009.75	48115.65
911.4615	1764.2102	48871.2	47979.05
911.6022	1765.9039	48705.2	47813.9
911.7429	1767.5968	48538.15	47646.2
911.8836	1769.289	48398	47506.35
912.0243	1770.9804	48309.25	47417.85
912.1649	1772.6711	48275.2	47385.75
912.3056	1774.361	48017.3	47125.5
912.4462	1776.0502	47920.05	47029
912.5868	1777.7386	47726.75	46832.1
912.7274	1779.4263	47601.05	46709.25
912.8679	1781.1132	47537.1	46643.55
913.0084	1782.7994	47282.65	46390
913.149	1784.4849	47212.35	46322.4
913.2895	1786.1696	46994.4	46096.8
913.4299	1787.8535	46871.4	45981
913.5704	1789.5367	46731.9	45840.95
913.7108	1791.2192	46650.95	45759.9
913.8513	1792.9009	46489.5	45566.2
913.9917	1794.5818	46402.6	45507.45
914.132	1796.2621	46224.15	45334.2
914.2724	1797.9415	46120.75	45229.85
914.4128	1799.6202	45927.95	45038.9
914.5531	1801.2982	45801.1	44909.75
914.6934	1802.9755	45719.35	44827.2
914.8337	1804.6519	45582.55	44691.2
914.9739	1806.3277	45337.65	44446.3
915.1142	1808.0027	45061.7	44170.5
915.2544	1809.6769	45110.3	44218.6
915.3946	1811.3504	44967.65	44074.6
915.5348	1813.0231	44778.75	43888.35
915.675	1814.6951	44717.45	43824.85
915.8151	1816.3664	44650.55	43758.05
915.9553	1818.0369	44544.6	43652.4
916.0954	1819.7067	44342.9	43451.35
916.2355	1821.3757	44230.5	43338.05
916.3755	1823.044	44128.85	43237.5
916.5156	1824.7115	44017.9	43127.75
916.6556	1826.3783	43795.3	42904.65
916.7956	1828.0443	43673.65	42784.65
916.9356	1829.7096	43522.9	42629.3
917.0756	1831.3741	43493.95	42601.6
917.2155	1833.0379	43354.1	42462
917.3555	1834.701	43125.15	42233.2
917.4954	1836.3633	43141.35	42248.35
917.6353	1838.0248	42958.45	42066.3
917.7751	1839.6856	42881.2	41989.45
917.915	1841.3457	42787.55	41898.45
918.0548	1843.005	42648.15	41757.4
918.1946	1844.6636	42591.8	41699.8
918.3344	1846.3214	42420.5	41528.75
918.4742	1847.9785	42353.15	41461.55
918.6139	1849.6349	42251.65	41357.85
918.7537	1851.2904	42183.8	41284.05
918.8934	1852.9453	41985.75	41095.8
919.0331	1854.5994	41867.1	40973.8
919.1727	1856.2528	41891.95	40996.05
919.3124	1857.9054	41679.45	40786.25
919.452	1859.5572	41639.75	40749.35
919.5916	1861.2083	41442.7	40550.85
919.7312	1862.8587	41432.5	40542.35
919.8708	1864.5084	41280.15	40389.7
920.0103	1866.1572	41105	40213.4
920.1498	1867.8054	40942.8	40051.25
920.2893	1869.4528	40851.95	39960.75
920.4288	1871.0994	40753.6	39862.85
920.5683	1872.7453	40647.85	39754.9
920.7077	1874.3905	40536.75	39640.65
920.8471	1876.0349	40355.55	39464.4
920.9865	1877.6786	40338.2	39445.95
921.1259	1879.3215	40307.9	39417.65
921.2653	1880.9637	40177.15	39285.15
921.4046	1882.6051	40073.95	39182.95
921.5439	1884.2458	39963.7	39069.5
921.6832	1885.8858	39721.6	38826.65
921.8225	1887.525	39704.75	38813.35
921.9617	1889.1634	39504.3	38613.55
922.101	1890.8011	39349	38457.4
922.2402	1892.4381	39240.05	38348.55
922.3794	1894.0743	39258.4	38368.85
922.5185	1895.7098	39122.45	38231.9
922.6577	1897.3446	39028.55	38135.1
922.7968	1898.9786	38863.4	37968.05
922.9359	1900.6118	38722.8	37833.35
923.075	1902.2443	38524.65	37630.7
923.214	1903.8761	38436.65	37548
923.3531	1905.5071	38199.05	37309.45
923.4921	1907.1374	38081.05	37188.3
923.6311	1908.7669	38025.35	37134.75
923.77	1910.3957	37929.35	37038.05
923.909	1912.0237	37705.2	36814.25
924.0479	1913.651	37610.3	36717.05
924.1868	1915.2776	37506.35	36616.35
924.3257	1916.9034	37324.4	36434.1
924.4646	1918.5285	37154.95	36265.25
924.6034	1920.1528	36969.65	36077.55
924.7422	1921.7764	36906.05	36014.1
924.881	1923.3992	36767.65	35877
925.0198	1925.0213	36486.25	35594.75
925.1586	1926.6427	36352.5	35463.15
925.2973	1928.2633	36362.4	35357.75
925.436	1929.8832	36145.25	35252.05
925.5747	1931.5023	35950.05	35057.65
925.7134	1933.1207	35888	34996.45
925.852	1934.7383	35815.9	34923.35
925.9906	1936.3552	35667.65	34777.75
926.1292	1937.9714	35581.1	34690.95
926.2678	1939.5868	35379.6	34486.05
926.4064	1941.2015	35176.4	34284.7
926.5449	1942.8154	35100.2	34209.9
926.6834	1944.4286	34901.2	34009.85
926.8219	1946.041	34703.6	33793.7
926.9604	1947.6528	34539.05	33642.95
927.0988	1949.2637	34502.55	33613.85
927.2372	1950.8739	34353.7	33461.65
927.3756	1952.4834	34276.2	33383.8
927.514	1954.0921	34163.85	33273.1
927.6523	1955.7001	34002.75	33107.5
927.7907	1957.3074	33921.95	33031.8
927.929	1958.9139	33750.15	32861
928.0673	1960.5197	33675.15	32782.5
928.2055	1962.1247	33495.4	32604.5
928.3438	1963.729	33301.65	32412.5
928.482	1965.3325	33200.4	32285.65
928.6202	1966.9353	33076.8	32189.2
928.7584	1968.5374	32954.85	32064.3
928.8965	1970.1387	32890.25	31997.7
929.0346	1971.7393	32714.95	31824.05
929.1727	1973.3392	32649.8	31757.45
929.3108	1974.9383	32467.55	31575.85
929.4489	1976.5366	32332.3	31441.45
929.5869	1978.1342	32274.15	31384.05
929.7249	1979.7311	32212	31320.6
929.8629	1981.3273	32085.75	31195.5
930.0009	1982.9227	31929.2	31037.25
930.1388	1984.5173	31819.2	30925.2
930.2767	1986.1112	31665	30775.9
930.4146	1987.7044	31584.9	30693.6
930.5525	1989.2968	31508.45	30617.2
930.6904	1990.8885	31377.4	30482.65
930.8282	1992.4795	31305.35	30413.2
930.966	1994.0697	31176.4	30284.65
931.1038	1995.6592	31040.9	30150.25
931.2415	1997.2479	30967.55	30075.75
931.3793	1998.8359	30894.45	30004.4
931.517	2000.4232	30730.25	29838.75
931.6547	2002.0097	30567.45	29677.25
931.7923	2003.5955	30443.25	29552.05
931.93	2005.1805	30426.5	29534.25
932.0676	2006.7648	30313.5	29424.3
932.2052	2008.3484	30238.95	29347.45
932.3427	2009.9312	30195.4	29302.8
932.4803	2011.5133	30050.4	29161.3
932.6178	2013.0946	29941.35	29050.8
932.7553	2014.6752	29882.15	28992.3
932.8928	2016.2551	29819.6	28928.95
933.0302	2017.8342	29621.15	28730.3
933.1676	2019.4126	29526.6	28635.4
933.305	2020.9902	29373.7	28483.5
933.4424	2022.5672	29336.85	28443.9
933.5798	2024.1433	29212	28314.65
933.7171	2025.7188	29104.55	28214.75
933.8544	2027.2935	29019.75	28129.6
933.9917	2028.8674	28914.5	28026.1
934.129	2030.4406	28840.5	27952.65
934.2662	2032.0131	28671.55	27780
934.4034	2033.5849	28567.65	27667.4
934.5406	2035.1559	28458.8	27569.4
934.6778	2036.7261	28445.75	27554.4
934.8149	2038.2957	28326.8	27436
934.952	2039.8645	28266.7	27376.95
935.0891	2041.4325	28283.25	27389.9
935.2262	2042.9998	28097.9	27209.6
935.3632	2044.5664	28041.2	27148.65
935.5002	2046.1323	27987.05	27095.85
935.6372	2047.6974	27796.45	26906.9
935.7742	2049.2617	27725.7	26835.55
935.9111	2050.8254	27750.6	26840.3
936.048	2052.3883	27667.1	26774.05
936.1849	2053.9504	27556.35	26666.7
936.3218	2055.5118	27486.9	26594
936.4586	2057.0725	27360.5	26464.35
936.5955	2058.6325	27312	26421.45
936.7323	2060.1917	27127.1	26236.95
936.869	2061.7502	27020.75	26127.15
937.0058	2063.3079	26935.05	26045.1
937.1425	2064.8649	26882.15	25987
937.2792	2066.4212	26765.3	25872.15
937.4159	2067.9767	26703.95	25813.3
937.5525	2069.5315	26553.55	25664.55
937.6891	2071.0856	26449.25	25558.7
937.8257	2072.6389	26355.95	25462.7
937.9623	2074.1915	26229.45	25340.6
938.0989	2075.7433	26084.55	25193.2
938.2354	2077.2945	26011.2	25121.75
938.3719	2078.8448	25951.25	25061.3
938.5084	2080.3945	25867.95	24977.5
938.6448	2081.9434	25846.4	24957.75
938.7812	2083.4916	25718.75	24828.2
938.9176	2085.039	25632.9	24740.35
939.054	2086.5857	25517.8	24626
939.1903	2088.1317	25467.8	24576.15
939.3267	2089.677	25396.2	24506.3
939.463	2091.2215	25269.45	24379
939.5992	2092.7652	25230.35	24337.25
939.7355	2094.3083	25117.25	24225.75
939.8717	2095.8506	25112.45	24221.85
940.0079	2097.3921	25055.3	24165.15
940.1441	2098.933	24928.3	24038.75
940.2802	2100.4731	24909.05	24019.2
940.4163	2102.0124	24884.05	23985.95
940.5524	2103.5511	24767.9	23878.15
940.6885	2105.089	24708.15	23818.55
940.8245	2106.6261	24630.6	23740.25
940.9606	2108.1626	24532.7	23642.15
941.0965	2109.6983	24519.7	23603.85
941.2325	2111.2332	24382.45	23490.05
941.3684	2112.7675	24332.45	23441.5
941.5044	2114.301	24232.7	23339.9
941.6403	2115.8337	24184.5	23292.05
941.7761	2117.3657	24126.25	23235.5
941.912	2118.897	24057.45	23166.55
942.0478	2120.4276	23930.3	23034.05
942.1835	2121.9575	23808.6	22916.85
942.3193	2123.4866	23820.05	22914.95
942.455	2125.0149	23710.95	22816.85
942.5907	2126.5426	23619.15	22728.7
942.7264	2128.0695	23591.15	22695.35
942.8621	2129.5956	23458.15	22567.2
942.9977	2131.1211	23480.6	22583.15
943.1333	2132.6458	23364.9	22473.55
943.2689	2134.1698	23331.6	22440.25
943.4044	2135.693	23202.55	22310
943.54	2137.2155	23137.15	22242.6
943.6755	2138.7373	23100.05	22207.45
943.8109	2140.2584	22997.5	22106.05
943.9464	2141.7787	22925.45	22028.55
944.0818	2143.2983	22811.95	21923.25
944.2172	2144.8171	22701.65	21813
944.3526	2146.3353	22577.95	21684.75
944.4879	2147.8527	22517.9	21627.95
944.6232	2149.3693	22512.75	21621.3
944.7585	2150.8853	22419.8	21528.15
944.8938	2152.4005	22322.25	21430.75
945.029	2153.9149	22272.95	21381
945.1642	2155.4287	22222.9	21333.85
945.2994	2156.9417	22154.15	21263
945.4346	2158.454	22073.15	21178.9
945.5697	2159.9655	21979.5	21090.4
945.7048	2161.4764	21972.9	21082.05
945.8399	2162.9865	21892.65	21001.35
945.9749	2164.4958	21834.3	20942.3
946.1099	2166.0045	21744.5	20851.55
946.2449	2167.5124	21702.8	20810.4
946.3799	2169.0195	21652.3	20761.9
946.5148	2170.526	21618.65	20726.75
946.6498	2172.0317	21535.85	20644.45
946.7846	2173.5367	21458	20565.6
946.9195	2175.0409	21374.5	20484.65
947.0543	2176.5445	21362.25	20471.9
947.1891	2178.0473	21230.7	20340.2
947.3239	2179.5494	21175.35	20280.6
947.4587	2181.0507	21059.3	20167.65
947.5934	2182.5513	20995.5	20104.95
947.7281	2184.0512	20930.05	20035.95
947.8628	2185.5504	20859.05	19968.9
947.9974	2187.0488	20765.5	19875.7
948.132	2188.5465	20719.55	19827.95
948.2666	2190.0435	20631.9	19741.05
948.4012	2191.5397	20546.6	19656.6
948.5357	2193.0353	20489.9	19601.4
948.6702	2194.5301	20346.4	19456.4
948.8047	2196.0241	20264.55	19373.9
948.9392	2197.5175	20232.35	19341.55
949.0736	2199.0101	20163.3	19269.2
949.208	2200.502	20048.8	19157.45
949.3424	2201.9931	19938.6	19048
949.4767	2203.4835	19886.65	18994.1
949.611	2204.9733	19812.75	18914.7
949.7453	2206.4622	19800.5	18909.25
949.8796	2207.9505	19711.85	18818.75
950.0138	2209.438	19616.65	18728.6
950.148	2210.9248	19539.45	18647.75
950.2822	2212.4109	19482.5	18593.35
950.4164	2213.8962	19432.45	18539.65
950.5505	2215.3809	19372.4	18479.4
950.6846	2216.8648	19293.85	18404.55
950.8186	2218.3479	19233.2	18337.35
950.9527	2219.8304	19159.35	18266.1
951.0867	2221.3121	19073.7	18181.65
951.2207	2222.7931	19001.4	18112.2
951.3546	2224.2733	18955.3	18065.1
951.4886	2225.7529	18845.8	17954.3
951.6225	2227.2317	18787.45	17892.7
951.7563	2228.7098	18773.65	17882.35
951.8902	2230.1872	18675.65	17785.7
952.024	2231.6638	18628.25	17737.55
952.1578	2233.1397	18547.45	17651.45
952.2916	2234.6149	18477.65	17585.85
952.4253	2236.0894	18424.85	17533.75
952.559	2237.5632	18372.55	17470.5
952.6927	2239.0362	18260.95	17370.25
952.8263	2240.5085	18232.25	17339.8
952.9599	2241.9801	18120.5	17229.25
953.0935	2243.4509	18083.4	17195.05
953.2271	2244.921	18026.85	17136.5
953.3606	2246.3904	17954.65	17061.65
953.4941	2247.8591	17856.45	16965.55
953.6276	2249.3271	17800.05	16907.95
953.7611	2250.7943	17744.6	16852.7
953.8945	2252.2608	17675.5	16784.8
954.0279	2253.7266	17662.7	16772
954.1612	2255.1917	17590.65	16700.55
954.2946	2256.656	17549.85	16656.55
954.4279	2258.1197	17456.55	16565.95
954.5612	2259.5826	17419.4	16526.1
954.6944	2261.0447	17373.1	16480.55
954.8276	2262.5062	17282.65	16389.95
954.9608	2263.9669	17274.45	16381.45
955.094	2265.4269	17226.15	16335.95
955.2271	2266.8862	17159.55	16268.05
955.3602	2268.3448	17101.75	16209.85
955.4933	2269.8026	17081.2	16188.9
955.6264	2271.2598	16981.55	16089.1
955.7594	2272.7162	16929.55	16038.75
955.8924	2274.1719	16890.1	15997.8
956.0253	2275.6268	16803.55	15911.1
956.1583	2277.0811	16791.95	15900.8
956.2912	2278.5346	16743.45	15852.7
956.4241	2279.9874	16701.95	15813.95
956.5569	2281.4395	16647.5	15756.4
956.6897	2282.8908	16564.9	15669.95
956.8225	2284.3414	16539.1	15644.45
956.9553	2285.7914	16474.75	15584.8
957.088	2287.2406	16402.05	15506.7
957.2207	2288.689	16343.1	15451.75
957.3534	2290.1368	16304.8	15412.8
957.486	2291.5838	16274.3	15382.2
957.6186	2293.0302	16190.65	15298.8
957.7512	2294.4758	16108.25	15218.15
957.8838	2295.9206	16042.05	15148.2
958.0163	2297.3648	16008.45	15118.9
958.1488	2298.8082	15980.15	15086.4
958.2813	2300.251	15935.95	15044.15
958.4137	2301.693	15860.95	14966.3
958.5461	2303.1343	15851.65	14961.35
958.6785	2304.5748	15790.55	14898.5
958.8108	2306.0147	15710	14818.65
958.9432	2307.4538	15671.9	14780.1
959.0754	2308.8922	15629.25	14739.4
959.2077	2310.3299	15575.35	14685.6
959.3399	2311.7669	15495.05	14606.35
959.4721	2313.2031	15457.4	14563.6
959.6043	2314.6387	15370.6	14480.35
959.7365	2316.0735	15341.9	14452.25
959.8686	2317.5076	15310.65	14418.6
960.0006	2318.941	15280.35	14390.25
960.1327	2320.3737	15214.8	14324.55
960.2647	2321.8056	15157.15	14264.35
960.3967	2323.2369	15102.5	14211.45
960.5287	2324.6674	15073.4	14180.2
960.6606	2326.0972	14997.3	14105.05
960.7925	2327.5263	14920.75	14028.8
960.9244	2328.9547	14900.05	14008.3
961.0562	2330.3823	14856.8	13965.8
961.1881	2331.8092	14807.6	13913.3
961.3198	2333.2355	14746.25	13854.6
961.4516	2334.661	14702.05	13812.2
961.5833	2336.0858	14671.15	13778.05
961.715	2337.5098	14628.35	13737.15
961.8467	2338.9332	14618.1	13724.8
961.9783	2340.3558	14535.25	13641.7
962.1099	2341.7778	14486.1	13594.5
962.2415	2343.199	14406.9	13512.95
962.373	2344.6195	14371	13479.9
962.5045	2346.0393	14374.95	13484.2
962.636	2347.4583	14333.65	13442.55
962.7675	2348.8767	14270.75	13380.8
962.8989	2350.2943	14239	13347.75
963.0303	2351.7113	14235.65	13345.05
963.1617	2353.1275	14100.6	13206.9
963.293	2354.543	14092.6	13194.65
963.4243	2355.9578	14043.65	13151.8
963.5556	2357.3718	13956.4	13065.6
963.6868	2358.7852	13870.8	12977.65
963.818	2360.1978	13831.45	12939.9
963.9492	2361.6098	13831.85	12942.75
964.0803	2363.021	13795.95	12902.85
964.2114	2364.4315	13705.5	12813.75
964.3425	2365.8413	13662.65	12771.35
964.4736	2367.2504	13610.35	12719.7
964.6046	2368.6587	13515.95	12625.5
964.7356	2370.0664	13476.35	12586.45
964.8666	2371.4733	13422.5	12532.9
964.9975	2372.8795	13396.15	12507.2
965.1284	2374.285	13349.95	12459.9
965.2593	2375.6899	13259.9	12372.05
965.3901	2377.0939	13208.35	12319.65
965.5209	2378.4973	13131.9	12241.75
965.6517	2379.9	13097.75	12207.55
965.7825	2381.3019	13033.85	12144.25
965.9132	2382.7032	13009.85	12120.25
966.0439	2384.1037	12967.45	12078.7
966.1745	2385.5035	12903.6	12011.05
966.3051	2386.9027	12859.75	11969.5
966.4357	2388.3011	12844.15	11948.3
966.5663	2389.6987	12789.35	11898.35
966.6968	2391.0957	12761.6	11872.45
966.8273	2392.492	12694.05	11802.75
966.9578	2393.8876	12619.6	11729.2
967.0882	2395.2824	12570.6	11682.6
967.2186	2396.6765	12503.6	11613.1
967.349	2398.07	12442.05	11553.95
967.4793	2399.4627	12428.25	11537.65
967.6097	2400.8547	12382.85	11492.1
967.7399	2402.246	12324.45	11428
967.8702	2403.6366	12268.55	11376.3
968.0004	2405.0265	12223.15	11334.25
968.1306	2406.4156	12180.35	11286.65
968.2607	2407.8041	12138.2	11244.35
968.3909	2409.1918	12097.5	11206.1
968.521	2410.5789	12020.9	11129.75
968.651	2411.9652	11983.7	11090.8
968.781	2413.3508	11927.9	11035.95
968.911	2414.7358	11869.95	10979.9
969.041	2416.12	11841.9	10952.2
969.1709	2417.5035	11798.45	10909.05
969.3008	2418.8863	11766.2	10875.85
969.4307	2420.2684	11717.35	10828.15
969.5606	2421.6497	11676.05	10786
969.6904	2423.0304	11576.25	10685.75
969.8201	2424.4104	11581.7	10690.35
969.9499	2425.7896	11537.1	10644.05
970.0796	2427.1682	11502.65	10612.35
970.2093	2428.546	11482.1	10590.7
970.3389	2429.9232	11441.4	10552.2
970.4685	2431.2996	11417	10525.5
970.5981	2432.6753	11369.25	10480.85
970.7277	2434.0503	11328	10439.2
970.8572	2435.4246	11270.3	10379.9
970.9867	2436.7982	11221.2	10331.45
971.1161	2438.1711	11194.45	10304.35
971.2456	2439.5433	11169.25	10279.8
971.375	2440.9148	11110.45	10220.15
971.5043	2442.2856	11071.85	10182.25
971.6336	2443.6557	11037.4	10146.65
971.7629	2445.025	10982.95	10092.05
971.8922	2446.3937	10961.7	10069.95
972.0214	2447.7617	10911.6	10021.15
972.1506	2449.1289	10894.85	10005.8
972.2798	2450.4955	10866.7	9972.3
972.4089	2451.8613	10830.65	9940.4
972.538	2453.2265	10807.05	9916.25
972.6671	2454.5909	10773.8	9883.1
972.7961	2455.9546	10751.5	9862.65
972.9251	2457.3177	10688.05	9798.7
973.0541	2458.68	10684.65	9793.7
973.1831	2460.0416	10651.95	9762.55
973.312	2461.4025	10643.8	9750.85
973.4408	2462.7627	10609.25	9705.35
973.5697	2464.1222	10559.4	9668.9
973.6985	2465.4811	10538	9646.35
973.8273	2466.8392	10473.8	9583.25
973.956	2468.1966	10447.3	9556.05
974.0847	2469.5533	10443.95	9552.7
974.2134	2470.9093	10421.7	9529.75
974.3421	2472.2645	10363.2	9472.15
974.4707	2473.6191	10354.3	9463.2
974.5993	2474.973	10275.95	9386.55
974.7278	2476.3262	10246.25	9356.1
974.8563	2477.6787	10204.7	9315.6
974.9848	2479.0305	10178.1	9287.25
975.1132	2480.3816	10150.6	9256.8
975.2417	2481.7319	10082.45	9191.25
975.37	2483.0816	10054.1	9161.4
975.4984	2484.4306	10028.95	9139.65
975.6267	2485.7789	9982.05	9092.25
975.755	2487.1264	9941.35	9050.35
975.8833	2488.4733	9858.05	8969.4
976.0115	2489.8195	9878.15	8969.6
976.1397	2491.165	9803.3	8909.45
976.2678	2492.5097	9802.15	8909.9
976.3959	2493.8538	9734.55	8844.25
976.524	2495.1972	9682.7	8795.75
976.6521	2496.5398	9659.85	8767.7
976.7801	2497.8818	9637.15	8745
976.9081	2499.2231	9609.5	8718.7
977.036	2500.5637	9579.8	8687.1
977.164	2501.9035	9521.8	8628.1
977.2918	2503.2427	9500.3	8605.75
977.4197	2504.5812	9464.55	8575.35
977.5475	2505.919	9429.45	8535.7
977.6753	2507.256	9434.55	8544
977.8031	2508.5924	9371.95	8481.95
977.9308	2509.9281	9325.9	8429.1
978.0585	2511.2631	9280.5	8390.1
978.1861	2512.5974	9277.25	8387.4
978.3137	2513.9309	9211.55	8320.8
978.4413	2515.2638	9228.1	8303.8
978.5689	2516.596	9187.2	8296.9
978.6964	2517.9275	9116.35	8224.8
978.8239	2519.2583	9078.6	8186.35
978.9513	2520.5884	9057.15	8166.15
979.0788	2521.9178	9022	8130.75
979.2062	2523.2465	9008.95	8120.4
979.3335	2524.5745	8964.4	8074.05
979.4608	2525.9018	8943.9	8053.5
979.5881	2527.2284	8895.6	8004.85
979.7154	2528.5543	8889.5	7997.85
979.8426	2529.8796	8850.7	7959.95
979.9698	2531.2041	8842.45	7950.55
980.0969	2532.5279	8825.65	7937.45
980.224	2533.851	8799.45	7909.25
980.3511	2535.1735	8757.3	7866.95
980.4781	2536.4952	8725.3	7835.85
980.6052	2537.8163	8722.25	7829.7
980.7321	2539.1366	8678.95	7791.4
980.8591	2540.4562	8651.05	7758.7
980.986	2541.7752	8637.5	7747.9
981.1129	2543.0935	8622.4	7731.2
981.2397	2544.411	8617.1	7725.7
981.3665	2545.7279	8574.9	7685.8
981.4933	2547.0441	8564.8	7674.3
981.62	2548.3596	8544.5	7652.65
981.7467	2549.6744	8505.5	7613.65
981.8734	2550.9885	8490.35	7596.6
982.0001	2552.3019	8466.85	7577.5
982.1267	2553.6146	8418.55	7529
982.2532	2554.9266	8394.4	7502.65
982.3798	2556.2379	8379.65	7486.3
982.5063	2557.5485	8362.1	7471.2
982.6327	2558.8585	8338.4	7441.3
982.7592	2560.1677	8314.75	7418.9
982.8856	2561.4762	8283.35	7391.05
983.0119	2562.7841	8282.95	7389.25
983.1383	2564.0913	8261.45	7370.3
983.2646	2565.3977	8230.35	7340.3
983.3908	2566.7035	8205.05	7315.25
983.517	2568.0086	8209.15	7317
983.6432	2569.313	8184.65	7293.05
983.7694	2570.6167	8178.95	7283.4
983.8955	2571.9197	8131.1	7240.95
984.0216	2573.222	8125.55	7233.15
984.1476	2574.5236	8111.9	7221.6
984.2737	2575.8246	8091.5	7198.75
984.3996	2577.1248	8045.85	7152.9
984.5256	2578.4244	8042.2	7153.25
984.6515	2579.7232	8032.75	7140.75
984.7774	2581.0214	8021.8	7103.35
984.9032	2582.3189	7988.4	7097.65
985.029	2583.6157	7968.3	7074.05
985.1548	2584.9118	7952.7	7062.15
985.2806	2586.2072	7904.5	7014.7
985.4063	2587.5019	7904.75	7014.45
985.5319	2588.7959	7882.7	6992.1
985.6576	2590.0893	7874.25	6980.95
985.7832	2591.3819	7890.95	7001.55
985.9087	2592.6739	7812.1	6923.05
986.0343	2593.9652	7787.5	6895.15
986.1597	2595.2557	7759.4	6868.3
986.2852	2596.5456	7744.05	6851.2
986.4106	2597.8348	7715.05	6826.35
986.536	2599.1234	7689.4	6798.5
986.6614	2600.4112	7665.75	6774.35
986.7867	2601.6983	7627.3	6733.2
986.912	2602.9848	7605.85	6713.1
987.0372	2604.2705	7566.5	6669.9
987.1624	2605.5556	7550.5	6661.65
987.2876	2606.84	7541.85	6651.5
987.4128	2608.1237	7496.9	6605.4
987.5379	2609.4067	7462.3	6570.5
987.6629	2610.689	7441.2	6542
987.788	2611.9707	7417.95	6524.1
987.913	2613.2516	7410.95	6516.25
988.0379	2614.5319	7358.35	6467.45
988.1629	2615.8115	7326.95	6436.25
988.2878	2617.0903	7303.85	6409.9
988.4126	2618.3685	7261	6371.85
988.5375	2619.6461	7239.25	6345.5
988.6622	2620.9229	7230.5	6339.9
988.787	2622.199	7204.2	6313
988.9117	2623.4745	7205.7	6313.65
989.0364	2624.7493	7167.4	6277.05
989.161	2626.0234	7104.8	6214.25
989.2857	2627.2968	7102.6	6211.6
989.4102	2628.5695	7080.7	6189
989.5348	2629.8415	7037.15	6146.1
989.6593	2631.1128	7048.25	6154.9
989.7837	2632.3835	6993.9	6102.2
989.9082	2633.6535	6945.95	6056.6
990.0326	2634.9228	6915.15	6024.05
990.1569	2636.1914	6910.9	6021.25
990.2812	2637.4593	6894.85	5998.7
990.4055	2638.7265	6869.4	5975.95
990.5298	2639.9931	6853.35	5962
990.654	2641.259	6842.8	5950.6
990.7782	2642.5242	6837	5944.9
990.9023	2643.7887	6811.65	5921
991.0264	2645.0525	6792.75	5899.85
991.1505	2646.3156	6757.85	5866.55
991.2745	2647.5781	6729.2	5839.7
991.3985	2648.8398	6700.9	5809.9
991.5225	2650.1009	6686.45	5786.15
991.6464	2651.3613	6653.15	5762.05
991.7703	2652.6211	6642.75	5749.8
991.8942	2653.8801	6601.75	5711.55
992.018	2655.1385	6591.5	5698.15
992.1418	2656.3961	6574.2	5683.2
992.2655	2657.6531	6571.05	5680.85
992.3892	2658.9094	6559.05	5668.65
992.5129	2660.1651	6532.25	5643.35
992.6366	2661.42	6521.15	5630.65
992.7602	2662.6743	6510.85	5617.9
992.8837	2663.9279	6491.5	5601.7
993.0073	2665.1808	6472.9	5581.85
993.1307	2666.433	6441.85	5548.35
993.2542	2667.6846	6434.9	5546.9
993.3776	2668.9354	6416.5	5522.8
993.501	2670.1856	6393.15	5501.5
993.6244	2671.4351	6368.4	5477.55
993.7477	2672.6839	6354.15	5459.65
993.8709	2673.9321	6355.8	5464.4
993.9942	2675.1795	6320.55	5429.8
994.1174	2676.4263	6308	5418.6
994.2405	2677.6724	6290.95	5402.5
994.3637	2678.9179	6289.55	5398.55
994.4868	2680.1626	6265.75	5375.45
994.6098	2681.4067	6247.1	5355.15
994.7328	2682.6501	6232.5	5340.35
994.8558	2683.8928	6203.55	5311.95
994.9788	2685.1348	6170.55	5281.2
995.1017	2686.3761	6139.1	5248.15
995.2245	2687.6168	6112.35	5222.1
995.3474	2688.8568	6114.75	5223.05
995.4702	2690.0961	6083.05	5193.85
995.5929	2691.3348	6073.45	5184.65
995.7156	2692.5727	6051.8	5161.9
995.8383	2693.81	6016.8	5126.2
995.961	2695.0466	6026.8	5137
996.0836	2696.2826	5982.25	5089.05
996.2062	2697.5178	5971.4	5078.3
996.3287	2698.7524	5947.6	5056.9
996.4512	2699.9863	5936	5042.95
996.5737	2701.2195	5915.2	5024.1
996.6961	2702.452	5923.3	5032.4
996.8185	2703.6839	5887	4995.65
996.9408	2704.9151	5866.25	4977.35
997.0631	2706.1456	5847.25	4954.9
997.1854	2707.3755	5851.8	4960
997.3077	2708.6046	5831.45	4939.3
997.4299	2709.8331	5818.35	4928.15
997.552	2711.0609	5795.3	4905
997.6742	2712.2881	5787.35	4895.95
997.7963	2713.5145	5770.85	4878.5
997.9183	2714.7403	5759.05	4867.9
998.0403	2715.9654	5758.2	4866.35
998.1623	2717.1899	5763.85	4858.5
998.2842	2718.4136	5744.9	4854.85
998.4062	2719.6367	5728.95	4838
998.528	2720.8591	5722	4822.05
998.6498	2722.0809	5719.4	4828.6
998.7716	2723.3019	5690.65	4797.75
998.8934	2724.5223	5690.35	4797.5
999.0151	2725.7421	5684.4	4791.1
999.1368	2726.9611	5672.75	4780.4
999.2584	2728.1795	5635.35	4740.15
999.38	2729.3972	5622.1	4731.1
999.5016	2730.6142	5585.35	4686.75
999.6231	2731.8306	5542.95	4649.6
999.7446	2733.0462	5516.05	4623.1
999.8661	2734.2612	5511.05	4615.6
999.9875	2735.4756	5467.95	4575
1000.1089	2736.6892	5431.2	4540.9
1000.2302	2737.9022	5379.15	4490.6
1000.3515	2739.1145	5355.5	4464.65
1000.4728	2740.3262	5343.15	4444.65
1000.594	2741.5372	5310.2	4420.35
1000.7152	2742.7475	5274.25	4383.35
1000.8363	2743.9571	5251.65	4360.1
1000.9575	2745.1661	5242.4	4347.4
1001.0785	2746.3744	5201.5	4310
1001.1996	2747.582	5191.45	4298.9
1001.3206	2748.7889	5161.35	4268.8
1001.4415	2749.9952	5142.55	4253.5
1001.5625	2751.2008	5131.65	4238.9
1001.6833	2752.4057	5113.5	4221.6
1001.8042	2753.61	5084.15	4193
1001.925	2754.8136	5063.65	4170.25
1002.0458	2756.0165	5049.25	4158.05
1002.1665	2757.2188	5030.1	4141.6
1002.2872	2758.4204	5012.9	4120.4
1002.4078	2759.6213	4997.95	4103.1
1002.5285	2760.8215	4993.25	4097.9
1002.649	2762.0211	4973.75	4079.05
1002.7696	2763.22	4960.4	4065.75
1002.8901	2764.4182	4943.1	4050.5
1003.0106	2765.6158	4938.75	4048.5
1003.131	2766.8127	4903.15	4012.2
1003.2514	2768.009	4878.95	3988.65
1003.3717	2769.2045	4867.05	3974.6
1003.492	2770.3994	4865.35	3971.2
1003.6123	2771.5936	4855.1	3964.45
1003.7325	2772.7872	4841.5	3951.55
1003.8527	2773.9801	4797.35	3905.7
1003.9729	2775.1723	4805.55	3897.4
1004.093	2776.3639	4768.3	3876.35
1004.2131	2777.5548	4753.55	3859.95
1004.3331	2778.745	4758.35	3865.9
1004.4531	2779.9346	4741	3851.25
1004.5731	2781.1235	4724.35	3833.6
1004.693	2782.3117	4717.05	3825.85
1004.8129	2783.4992	4708.35	3816.05
1004.9328	2784.6861	4683.4	3791
1005.0526	2785.8723	4689.7	3799.15
1005.1723	2787.0579	4680.6	3787.85
1005.2921	2788.2428	4666.35	3777.25
1005.4118	2789.427	4662	3772.75
1005.5314	2790.6106	4660	3767.2
1005.651	2791.7935	4646.4	3755.75
1005.7706	2792.9757	4636.55	3744.65
1005.8902	2794.1573	4647.65	3754.95
1006.0097	2795.3382	4630.4	3741
1006.1291	2796.5184	4624.75	3736.85
1006.2485	2797.698	4633.3	3740.75
1006.3679	2798.8769	4638.2	3748.3
1006.4873	2800.0551	4649.9	3757.65
1006.6066	2801.2327	4654.6	3760.3
1006.7258	2802.4096	4639.4	3749.25
1006.8451	2803.5859	4654.05	3762.25
1006.9642	2804.7615	4637.85	3746.65
1007.0834	2805.9364	4652.25	3761.15
1007.2025	2807.1106	4674.6	3784.15
1007.3216	2808.2842	4704.8	3812.4
1007.4406	2809.4572	4728.85	3838.25
1007.5596	2810.6294	4750.35	3859.9
1007.6785	2811.801	4771.85	3882.25
1007.7975	2812.972	4788.8	3899.55
1007.9163	2814.1423	4828.8	3938.25
1008.0352	2815.3119	4856.75	3965.35
1008.154	2816.4808	4890.2	3999.3
1008.2727	2817.6491	4938.65	4048.1
1008.3914	2818.8167	4965.65	4077.8
1008.5101	2819.9837	5022.4	4126.55
1008.6288	2821.15	5052.8	4161.7
1008.7474	2822.3157	5085.25	4194.95
1008.8659	2823.4807	5112.45	4221.45
1008.9844	2824.645	5164.7	4273.15
1009.1029	2825.8086	5191.95	4302.5
1009.2214	2826.9716	5205.35	4314.35
1009.3398	2828.134	5247.55	4357.05
1009.4581	2829.2957	5255.3	4364.9
1009.5764	2830.4567	5268.05	4378.4
1009.6947	2831.617	5313.05	4422.45
1009.813	2832.7767	5335.85	4446.35
1009.9312	2833.9358	5334.3	4443.9
1010.0493	2835.0941	5288.1	4395.15
1010.1675	2836.2519	5259.1	4368.05
1010.2855	2837.4089	5252.3	4360
1010.4036	2838.5653	5209.85	4318.3
1010.5216	2839.7211	5211.4	4321.65
1010.6396	2840.8761	5200.3	4311.2
1010.7575	2842.0306	5208	4319.3
1010.8754	2843.1843	5246.25	4355.95
1010.9932	2844.3374	5289.2	4396.95
1011.111	2845.4899	5331.95	4440.15
1011.2288	2846.6417	5402.9	4511.55
1011.3465	2847.7928	5464.25	4574.5
1011.4642	2848.9433	5541.85	4653.65
1011.5818	2850.0931	5619.9	4730.35
1011.6995	2851.2422	5691.9	4799.9
1011.817	2852.3907	5762.95	4870.9
1011.9345	2853.5385	5832.25	4940.1
1012.052	2854.6857	5860.2	4942.75
1012.1695	2855.8323	5876.75	4985.8
1012.2869	2856.9781	5922.3	5032.7
1012.4042	2858.1233	5966.05	5077.2
1012.5216	2859.2679	6002.45	5111.75
1012.6389	2860.4118	6036.5	5147.7
1012.7561	2861.555	6066	5170.3
1012.8733	2862.6976	6083.05	5190.5
1012.9905	2863.8395	6081.05	5192.35
1013.1076	2864.9808	6113.9	5223.25
1013.2247	2866.1214	6122.95	5233.6
1013.3417	2867.2614	6124.95	5233.6
1013.4587	2868.4007	6106.4	5214.9
1013.5757	2869.5393	6134.8	5242.9
1013.6926	2870.6773	6127	5233.7
1013.8095	2871.8146	6131.3	5236.8
1013.9263	2872.9513	6106.8	5215.6
1014.0431	2874.0874	6102.1	5212.95
1014.1599	2875.2227	6082.15	5193
1014.2766	2876.3574	6046.6	5154.75
1014.3933	2877.4915	6015.05	5124.6
1014.51	2878.6249	5969.8	5077.65
1014.6266	2879.7577	5927.3	5032.9
1014.7431	2880.8898	5903.4	5003.75
1014.8596	2882.0212	5882.2	4992.4
1014.9761	2883.152	5869.6	4979.4
1015.0925	2884.2821	5830.25	4940.6
1015.2089	2885.4116	5821.1	4931.3
1015.3253	2886.5405	5799.5	4909.95
1015.4416	2887.6686	5803.8	4908.1
1015.5579	2888.7962	5799.85	4911
1015.6741	2889.923	5813.45	4923.4
1015.7903	2891.0493	5796.9	4906.2
1015.9065	2892.1748	5796.2	4907.55
1016.0226	2893.2997	5803.25	4911.05
1016.1387	2894.424	5816.45	4926.4
1016.2547	2895.5476	5806.55	4918.15
1016.3707	2896.6706	5825.65	4937.15
1016.4866	2897.7929	5838.85	4948.4
1016.6025	2898.9145	5850.95	4960.45
1016.7184	2900.0355	5860.95	4970.15
1016.8342	2901.1559	5904.45	5013.45
1016.95	2902.2756	5925.6	5033.7
1017.0658	2903.3946	5941.15	5050.6
1017.1815	2904.513	5962.9	5069.25
1017.2971	2905.6308	5995.25	5106.2
1017.4127	2906.7479	5988.85	5097.45
1017.5283	2907.8643	6019	5128.7
1017.6439	2908.9801	6028.05	5137.65
1017.7594	2910.0953	6035.1	5144.45
1017.8748	2911.2098	5999.65	5104.9
1017.9902	2912.3236	5978.4	5077.9
1018.1056	2913.4368	5973.1	5077.85
1018.2209	2914.5494	5931.85	5042.2
1018.3362	2915.6613	5897.65	5000.7
1018.4515	2916.7725	5873.45	4981.55
1018.5667	2917.8831	5832	4941.15
1018.6819	2918.9931	5789.8	4897.65
1018.797	2920.1024	5770.8	4879.2
1018.9121	2921.211	5739.4	4849.3
1019.0271	2922.319	5710.45	4817.4
1019.1421	2923.4264	5677.45	4786.45
1019.2571	2924.5331	5651.05	4760.15
1019.372	2925.6391	5617.25	4727.75
1019.4869	2926.7445	5609.2	4721.3
1019.6017	2927.8493	5592.7	4700.95
1019.7165	2928.9534	5566.8	4675.6
1019.8313	2930.0569	5581.85	4688.65
1019.946	2931.1597	5559	4667.8
1020.0606	2932.2619	5533.9	4644.75
1020.1753	2933.3634	5531.15	4640.05
1020.2899	2934.4643	5511.7	4614.65
1020.4044	2935.5645	5477.35	4579.8
1020.5189	2936.6641	5426.8	4531.85
1020.6334	2937.763	5377.7	4487.8
1020.7478	2938.8613	5321.6	4430.9
1020.8622	2939.959	5267.5	4372.65
1020.9765	2941.056	5177.85	4288.9
1021.0908	2942.1523	5105.45	4212.9
1021.2051	2943.248	5005.45	4116.1
1021.3193	2944.3431	4877.05	3986.35
1021.4334	2945.4375	4780	3889.8
1021.5476	2946.5313	4666.45	3777.7
1021.6617	2947.6244	4547.9	3658.65
1021.7757	2948.7169	4441.8	3551.85
1021.8897	2949.8087	4332.85	3441.75
1022.0037	2950.8999	4239.2	3346.65
1022.1176	2951.9904	4135.6	3246.35
1022.2315	2953.0803	4063.5	3172.65
1022.3453	2954.1696	3998.6	3107.75
1022.4591	2955.2582	3928.95	3038
1022.5728	2956.3462	3876.15	2987.1
1022.6865	2957.4335	3837.6	2944.95
1022.8002	2958.5202	3779.2	2886.45
1022.9138	2959.6062	3747	2856.5
1023.0274	2960.6916	3713.2	2823
1023.141	2961.7764	3684.2	2794.95
1023.2545	2962.8605	3666.35	2775.8
1023.3679	2963.9439	3653.9	2762.85
1023.4813	2965.0267	3617.3	2725.2
1023.5947	2966.1089	3625.35	2711
1023.708	2967.1905	3604.3	2714.85
1023.8213	2968.2714	3592.5	2702.6
1023.9346	2969.3516	3594.2	2704.35
1024.0478	2970.4312	3573.6	2678.25
1024.1609	2971.5102	3571.2	2681.05
1024.274	2972.5885	3547.25	2657.55
1024.3871	2973.6662	3549.55	2652.95
1024.5002	2974.7432	3540.4	2649.3
1024.6132	2975.8196	3527.9	2637.55
1024.7261	2976.8954	3506.45	2618.3
1024.839	2977.9705	3481.65	2591.45
1024.9519	2979.045	3475.75	2588.2
1025.0647	2980.1188	3444.8	2556.35
1025.1775	2981.192	3430.15	2540.9
1025.2902	2982.2645	3392.35	2502.95
1025.4029	2983.3364	3348.5	2457.6
1025.5156	2984.4077	3312.85	2421.3
1025.6282	2985.4783	3300.65	2405.9
1025.7407	2986.5483	3249.6	2361.1
1025.8532	2987.6177	3210.1	2322.5
1025.9657	2988.6864	3167.2	2275.15
1026.0782	2989.7545	3138.7	2246.2
1026.1906	2990.8219	3098.3	2209.1
1026.3029	2991.8887	3071.55	2181.4
1026.4152	2992.9548	3023.7	2134.9
1026.5275	2994.0204	2993.75	2104.65
1026.6397	2995.0852	2950.9	2063.25
1026.7519	2996.1495	2918.45	2025.8
1026.864	2997.2131	2901.6	2010.15
1026.9761	2998.276	2868.85	1978.3
1027.0882	2999.3383	2838.05	1947.75
1027.2002	3000.4	2808.55	1918.8
1027.3122	3001.4611	2797.9	1904.95
1027.4241	3002.5215	2775.15	1884.15
1027.536	3003.5812	2755.3	1865.75
1027.6478	3004.6404	2745.4	1856.45
1027.7596	3005.6989	2735.6	1843.8
1027.8714	3006.7567	2715.75	1826.15
1027.9831	3007.8139	2709.45	1797.75
1028.0947	3008.8705	2695.75	1805.7
1028.2064	3009.9264	2682.95	1789.55
1028.3179	3010.9818	2675.55	1786.8
1028.4295	3012.0364	2650.45	1759.65
1028.541	3013.0905	2657.05	1766.45
1028.6524	3014.1439	2649.2	1759.05
1028.7638	3015.1966	2645.85	1755.8
1028.8752	3016.2487	2636	1745.8
1028.9865	3017.3002	2632.1	1734.25
1029.0978	3018.3511	2600.2	1710.7
1029.209	3019.4013	2613.4	1723.7
1029.3202	3020.4509	2619.65	1731.55
1029.4314	3021.4998	2604.65	1714.6
1029.5425	3022.5481	2608.25	1717.45
1029.6535	3023.5958	2600.35	1711.8
1029.7645	3024.6428	2601.35	1709.45
1029.8755	3025.6892	2585.2	1696.55
1029.9864	3026.735	2585.2	1696.45
1030.0973	3027.7802	2582.25	1691.4
1030.2082	3028.8247	2572.6	1682.2
1030.319	3029.8685	2567.45	1676.95
1030.4297	3030.9118	2571.75	1680.95
1030.5404	3031.9544	2564	1673.9
1030.6511	3032.9963	2565.35	1676.45
1030.7617	3034.0376	2562.65	1674.15
1030.8723	3035.0783	2560.25	1668.95
1030.9829	3036.1184	2559.9	1668.75
1031.0934	3037.1578	2555.6	1665.7
1031.2038	3038.1966	2557.1	1664.95
1031.3142	3039.2348	2557.35	1667.8
1031.4246	3040.2723	2553.8	1653.4
1031.5349	3041.3092	2536.3	1647.25
1031.6452	3042.3455	2531.2	1642.95
1031.7554	3043.3811	2525.15	1634.2
1031.8656	3044.4161	2515.35	1624.95
1031.9758	3045.4505	2510.2	1620.5
1032.0859	3046.4842	2493.9	1603.55
1032.1959	3047.5173	2471.8	1582.75
1032.3059	3048.5498	2469.85	1578.75
1032.4159	3049.5816	2465.75	1575.1
1032.5258	3050.6128	2444.7	1553.5
1032.6357	3051.6434	2440.25	1549.1
1032.7455	3052.6734	2432.7	1542.6
1032.8553	3053.7027	2425.45	1537.35
1032.9651	3054.7314	2400.95	1513.3
1033.0748	3055.7594	2384.75	1494.3
1033.1845	3056.7868	2388.25	1497.4
1033.2941	3057.8136	2389.75	1499.45
1033.4037	3058.8398	2361.25	1472.7
1033.5132	3059.8653	2352.95	1463.1
1033.6227	3060.8902	2354.7	1463.5
1033.7321	3061.9145	2339.55	1450
1033.8415	3062.9381	2326.45	1438.9
1033.9509	3063.9612	2336.5	1432.3
1034.0602	3064.9835	2317.15	1425.95
1034.1694	3066.0053	2303.2	1414.2
1034.2787	3067.0264	2283.8	1394.25
1034.3878	3068.0469	2268.6	1377
1034.497	3069.0668	2264.35	1372.1
1034.6061	3070.086	2255.25	1366.15
1034.7151	3071.1046	2245.1	1354.75
1034.8241	3072.1226	2232.75	1340.5
1034.9331	3073.1399	2221.05	1329.95
1035.042	3074.1567	2196.55	1305.85
1035.1508	3075.1727	2185.1	1292.65
1035.2597	3076.1882	2172.45	1281.8
1035.3684	3077.203	2173.2	1283.35
1035.4772	3078.2173	2152.85	1263.45
1035.5859	3079.2308	2138.1	1244.5
1035.6945	3080.2438	2127.1	1235.65
1035.8031	3081.2561	2117.35	1224.6
1035.9117	3082.2678	2092.85	1202.4
1036.0202	3083.2789	2097.5	1206.9
1036.1286	3084.2893	2082.9	1193.05
1036.2371	3085.2991	2075.4	1185.3
1036.3454	3086.3083	2060.05	1167.1
1036.4538	3087.3169	2053.3	1160.3
1036.562	3088.3248	2041.8	1150.1
1036.6703	3089.3321	2035.8	1143.8
1036.7785	3090.3388	2017.6	1130.2
1036.8866	3091.3449	2018.7	1129.45
1036.9948	3092.3503	2019.3	1126.3
1037.1028	3093.3551	2003.35	1115.95
1037.2108	3094.3593	1997.3	1108.05
1037.3188	3095.3629	1989.65	1099.55
1037.4267	3096.3658	1987.65	1097.55
1037.5346	3097.3681	1978.1	1087.8
1037.6425	3098.3698	1969.1	1078.1
1037.7503	3099.3708	1972.7	1075.7
1037.858	3100.3713	1948.2	1057.35
1037.9657	3101.3711	1945.2	1055.4
1038.0734	3102.3702	2047.85	1042.5
1038.181	3103.3688	1939.1	1048.25
1038.2886	3104.3667	1928.85	1040.65
1038.3961	3105.364	1921.95	1034.45
1038.5036	3106.3607	1915.65	1024.45
1038.611	3107.3568	1904.35	1012.25
1038.7184	3108.3522	1892.2	1002.95
1038.8257	3109.347	1893.3	1003.1
1038.933	3110.3412	1889.75	994.7
1039.0403	3111.3348	1884.85	996.65
1039.1475	3112.3277	1871.75	983.15
1039.2547	3113.32	1861.75	973.6
1039.3618	3114.3117	1866.7	975.2
1039.4689	3115.3028	1852.55	963.25
1039.5759	3116.2932	1862.15	971.2
1039.6829	3117.2831	1853.15	957.3
1039.7898	3118.2723	1838.3	948.25
1039.8967	3119.2608	1838.5	948.6
1040.0035	3120.2488	1831.5	940.25
1040.1103	3121.2361	1825	935.35
1040.2171	3122.2229	1814.75	927.5
1040.3238	3123.209	1811.95	919.95
1040.4305	3124.1944	1807.9	921.65
1040.5371	3125.1793	1795.05	904
1040.6437	3126.1635	1804.45	915.25
1040.7502	3127.1471	1795.2	907
1040.8567	3128.1301	1793.1	905.9
1040.9631	3129.1125	1783	894.7
1041.0695	3130.0942	1780.55	892
1041.1759	3131.0753	1793.1	895.4
1041.2822	3132.0558	1771.8	878.3
1041.3884	3133.0357	1767.8	877.1
1041.4946	3134.015	1759.45	868.15
1041.6008	3134.9936	1762.7	871.4
1041.7069	3135.9716	1773.4	862.85
1041.813	3136.949	1762.75	873.3
1041.919	3137.9258	1748.55	851.85
1042.025	3138.902	1744.25	849.6
1042.1309	3139.8775	1741.6	852.1
1042.2368	3140.8524	1737.55	849
1042.3427	3141.8267	1733.9	842.85
1042.4485	3142.8004	1728.9	838.6
1042.5542	3143.7735	1727.7	833.25
1042.6599	3144.7459	1721.1	828.35
1042.7656	3145.7178	1721.6	832
1042.8712	3146.689	1697.6	809.25
1042.9768	3147.6596	1708.55	819.6
1043.0823	3148.6295	1699.2	809.75
1043.1878	3149.5989	1702.05	811.8
1043.2932	3150.5676	1691.5	802.9
1043.3986	3151.5357	1682.1	794.25
1043.5039	3152.5032	1680.35	791.5
1043.6092	3153.4701	1680.75	792.35
1043.7145	3154.4364	1680.35	788.45
1043.8197	3155.402	1668.35	778.85
1043.9248	3156.367	1662.95	774.05
1044.03	3157.3315	1698.05	764.55
1044.135	3158.2952	1643.3	754.05
1044.24	3159.2584	1645.9	756.05
1044.345	3160.221	1648.15	757.6
1044.4499	3161.1829	1648.35	758.5
1044.5548	3162.1442	1638.3	750.45
1044.6596	3163.105	1632.25	743.3
1044.7644	3164.065	1621.75	731.85
1044.8692	3165.0245	1625.95	734.05
1044.9739	3165.9834	1614.2	724.8
1045.0785	3166.9416	1609.6	719.4
1045.1831	3167.8993	1614.5	725.8
1045.2877	3168.8563	1611.15	719.6
1045.3922	3169.8127	1598.5	709.3
1045.4966	3170.7684	1597.95	707.95
1045.6011	3171.7236	1602.3	710.65
1045.7054	3172.6782	1591.1	701.45
1045.8098	3173.6321	1592.8	703.2
1045.914	3174.5854	1580.75	687.15
1046.0183	3175.5381	1577.3	689.15
1046.1224	3176.4902	1569.9	680.05
1046.2266	3177.4417	1566.45	677.5
1046.3307	3178.3926	1560.8	672.25
1046.4347	3179.3428	1554.05	665.3
1046.5387	3180.2924	1556.45	667.95
1046.6427	3181.2415	1557.4	666.65
1046.7466	3182.1899	1550.95	660.75
1046.8504	3183.1377	1548.95	657.25
1046.9542	3184.0848	1544.9	652.15
1047.058	3185.0314	1544.25	654.95
1047.1617	3185.9773	1537.25	648
1047.2654	3186.9227	1532.45	643.55
1047.369	3187.8674	1544.5	655
1047.4726	3188.8115	1530.85	635.75
1047.5761	3189.755	1527.05	636.5
1047.6796	3190.6979	1516.75	628.15
1047.783	3191.6402	1517.9	629.65
1047.8864	3192.5818	1510.45	621.25
1047.9898	3193.5229	1529.25	627.85
1048.0931	3194.4633	1509.3	620.15
1048.1963	3195.4031	1507.2	616.45
1048.2995	3196.3423	1509.55	619.95
1048.4027	3197.2809	1501.85	612.95
1048.5058	3198.2189	1497.25	607.55
1048.6089	3199.1563	1493.6	598.4
1048.7119	3200.0931	1489.9	600.05
1048.8148	3201.0292	1489.55	599.8
1048.9178	3201.9648	1478.3	589.65
1049.0206	3202.8997	1481.2	588.45
1049.1235	3203.834	1475.7	586.45
1049.2262	3204.7677	1476.15	588.1
1049.329	3205.7008	1479.6	590.15
1049.4317	3206.6333	1465.2	578.65
1049.5343	3207.5652	1465.6	572.8
1049.6369	3208.4964	1469.15	578.8
1049.7394	3209.4271	1456.15	567.75
1049.8419	3210.3571	1459.75	570.15
1049.9444	3211.2865	1463.75	573.4
1050.0468	3212.2154	1454.4	564.1
1050.1491	3213.1436	1451.5	556.85
1050.2514	3214.0712	1458.35	562.65
1050.3537	3214.9982	1439.9	549.9
1050.4559	3215.9246	1443.85	553.9
1050.5581	3216.8503	1429.65	541.1
1050.6602	3217.7755	1437.45	547.65
1050.7623	3218.7001	1438.9	550.8
1050.8643	3219.624	1434.35	545
1050.9663	3220.5473	1429.25	539.15
1051.0682	3221.4701	1424	533.05
1051.1701	3222.3922	1418.35	527.9
1051.2719	3223.3137	1413.9	524.05
1051.3737	3224.2346	1421.5	530.4
1051.4754	3225.1549	1416.1	528.5
1051.5771	3226.0746	1409	519.8
1051.6788	3226.9937	1403.15	512.25
1051.7804	3227.9121	1402.9	513.3
1051.8819	3228.83	1404.2	515.15
1051.9834	3229.7473	1401.3	511.05
1052.0849	3230.6639	1399	509.85
1052.1863	3231.5799	1384.7	497.25
1052.2876	3232.4954	1390.2	499.7
1052.3889	3233.4102	1386.55	497.15
1052.4902	3234.3244	1384.7	495.75
1052.5914	3235.238	1386.9	496.15
1052.6926	3236.151	1395	484.65
1052.7937	3237.0634	1370.6	483.45
1052.8948	3237.9752	1369.4	479.8
1052.9958	3238.8864	1376.55	486.8
1053.0968	3239.797	1364.95	476.65
1053.1977	3240.7069	1362.35	473.25
1053.2986	3241.6163	1371	479.55
1053.3994	3242.5251	1349	458.9
1053.5002	3243.4332	1354.85	466.1
1053.6009	3244.3408	1353.05	463.4
1053.7016	3245.2477	1346.75	456.7
1053.8022	3246.154	1353.35	464.9
1053.9028	3247.0598	1348.45	458.8
1054.0034	3247.9649	1339.9	450.8
1054.1039	3248.8694	1345.4	456.45
1054.2043	3249.7733	1341.9	453.8
1054.3047	3250.6766	1334.15	444.25
1054.4051	3251.5793	1325.3	433.85
1054.5054	3252.4814	1323.1	433.25
1054.6056	3253.3829	1315.85	426.95
1054.7058	3254.2838	1317.9	427.95
1054.806	3255.1841	1315.8	427.6
1054.9061	3256.0838	1315.55	427.75
1055.0061	3256.9829	1316.85	429
1055.1062	3257.8814	1305.85	416.65
1055.2061	3258.7792	1307.8	415.75
1055.306	3259.6765	1298.85	407.5
1055.4059	3260.5731	1291.45	401.6
1055.5057	3261.4692	1286.8	396.55
1055.6055	3262.3647	1288.6	399.4
1055.7052	3263.2595	1279.1	388.15
1055.8049	3264.1538	1277.05	389.75
1055.9045	3265.0474	1277.2	387.95
1056.0041	3265.9404	1265.7	379.75
1056.1036	3266.8329	1256.65	369.1
1056.2031	3267.7247	1263.8	366
1056.3025	3268.616	1246.25	356.7
1056.4019	3269.5066	1232.3	341
1056.5013	3270.3966	1228.9	335.4
1056.6005	3271.286	1216.5	328.25
