Software Version:	3.9.2.0
Unit SN:	10000200
Spectrometer SN:	6960
Date:	3/6/2024 10:31:05 AM
Data Line Index:	25
Spectral Points:	2048
Integration time (ms):	125
Averages:	20
Delay (ms):	30
Sequence Number:	1
Processing:	dark subtract
Laser Power (mW):	305
Laser Current (mA):	825
Laser Diode Temp (C):	25.1
Laser Case Temp (C):	26.3
System Temp (C):	26.1
Spectrometer Temp (C):	23.5
CCD Temp (C):	-0.002
Secondary Temp (C):	20.007
Heatsink Temp (C):	21.496
CCDPCB Temp (C):	36.274
SecondaryPCB Temp (C):	30.115

Wavelength	RamanShift	Raw Counts	Dark Subtracted
787.061	30.1047	1117.2	705.3
787.2016	32.3739	1149.5	738.5
787.3422	34.6426	1182.55	768.75
787.4828	36.9109	1230.2	815.7
787.6235	39.1787	1286.75	868.4
787.7642	41.4461	1349.8	926.6
787.9049	43.7131	1411.2	986.45
788.0456	45.9796	1463.7	1035.6
788.1863	48.2456	1545.05	1112.6
788.3271	50.5112	1600.05	1163.2
788.4679	52.7764	1672.55	1234.65
788.6087	55.0411	1751.15	1309.2
788.7496	57.3054	1828.65	1379.8
788.8904	59.5692	1918.2	1469
789.0313	61.8326	2013.2	1561.3
789.1722	64.0955	2112	1655.9
789.3132	66.3579	2237.2	1776.95
789.4541	68.6199	2387.35	1924.15
789.5951	70.8815	2637	2168.35
789.7361	73.1426	3174.5	2703.25
789.8771	75.4032	4491.75	4015.65
790.0181	77.6634	7866.65	7383.9
790.1592	79.9231	16822.45	16335.45
790.3003	82.1824	54143.9	53646
790.4414	84.4412	65535	65021.55
790.5825	86.6995	65535	64996.95
790.7237	88.9574	65535	64975.4
790.8648	91.2148	65535	64960.2
791.006	93.4717	65535	64947.2
791.1472	95.7282	65535	64940.95
791.2885	97.9842	65535	64940.75
791.4297	100.2398	65535	64939.7
791.571	102.4949	65535	64933.15
791.7123	104.7495	65535	64932.1
791.8536	107.0036	65535	64926.7
791.9949	109.2573	65535	64931.95
792.1363	111.5105	65535	64927.95
792.2777	113.7632	65535	64928
792.4191	116.0154	65535	64916.85
792.5605	118.2672	65535	64925.45
792.7019	120.5185	65535	64921
792.8434	122.7693	65535	64917
792.9849	125.0197	65535	64916.9
793.1264	127.2696	65535	64910.9
793.2679	129.519	65535	64908.8
793.4094	131.7679	65535	64905.8
793.551	134.0163	65535	64903.05
793.6926	136.2642	65535	64901.55
793.8342	138.5117	65535	64890.15
793.9758	140.7587	65535	64895.45
794.1175	143.0052	65535	64888.05
794.2591	145.2512	65535	64893.6
794.4008	147.4967	65535	64893.85
794.5425	149.7417	65535	64887.9
794.6842	151.9863	65535	64886.05
794.826	154.2304	65535	64879
794.9677	156.4739	65535	64873.35
795.1095	158.717	65535	64877.8
795.2513	160.9596	65535	64872
795.3931	163.2017	65535	64871.9
795.535	165.4433	65535	64866.8
795.6768	167.6844	65535	64868.15
795.8187	169.925	65535	64862.95
795.9606	172.1651	65535	64861.45
796.1025	174.4047	65535	64856.15
796.2445	176.6439	65535	64852
796.3864	178.8825	65535	64850.55
796.5284	181.1206	65535	64846.5
796.6704	183.3582	65535	64844.6
796.8124	185.5954	65535	64843.7
796.9544	187.832	65535	64839.45
797.0965	190.0681	65535	64833.9
797.2386	192.3037	65535	64833.5
797.3806	194.5388	65535	64831.25
797.5228	196.7734	65535	64828.65
797.6649	199.0075	65535	64824.85
797.807	201.2411	65535	64822.65
797.9492	203.4742	65535	64824.75
798.0914	205.7068	65535	64820.8
798.2336	207.9389	65535	64817.95
798.3758	210.1704	65535	64815.35
798.518	212.4015	65535	64821.9
798.6603	214.632	65535	64833.3
798.8025	216.862	65535	64839.55
798.9448	219.0915	65535	64841.65
799.0871	221.3205	65535	64836.5
799.2294	223.549	65535	64841.15
799.3718	225.777	65535	64841.3
799.5141	228.0044	65535	64836.85
799.6565	230.2314	65535	64835.25
799.7989	232.4578	65535	64833.2
799.9413	234.6837	65535	64823.4
800.0837	236.909	65535	64821.3
800.2262	239.1339	65535	64794.15
800.3687	241.3582	65535	64813.3
800.5111	243.582	65535	64780.5
800.6536	245.8053	65535	64793.05
800.7961	248.0281	65535	64795.3
800.9387	250.2503	65535	64795.6
801.0812	252.472	65535	64791.25
801.2238	254.6932	65535	64789.5
801.3664	256.9139	65535	64789.8
801.509	259.134	65535	64784.9
801.6516	261.3536	65535	64785.65
801.7942	263.5727	65535	64784.15
801.9369	265.7912	65535	64788.6
802.0795	268.0092	65535	64784.8
802.2222	270.2267	65535	64781.75
802.3649	272.4436	65535	64785.65
802.5076	274.6601	65535	64775.45
802.6504	276.8759	65535	64777.35
802.7931	279.0913	65535	64775.1
802.9359	281.3061	65535	64771.35
803.0787	283.5204	65535	64773.3
803.2215	285.7341	65535	64767.7
803.3643	287.9473	65535	64760.35
803.5071	290.16	65535	64766.1
803.6499	292.3721	65535	64772.5
803.7928	294.5837	65535	64771.35
803.9357	296.7947	65535	64771.45
804.0786	299.0052	65535	64769.15
804.2215	301.2152	65535	64762.4
804.3644	303.4246	65535	64770.75
804.5074	305.6334	65535	64767.6
804.6503	307.8418	65535	64762.9
804.7933	310.0495	65535	64765.7
804.9363	312.2568	65535	64764.65
805.0793	314.4635	65535	64762.45
805.2223	316.6696	65535	64760.15
805.3653	318.8752	65535	64753.95
805.5084	321.0802	65535	64757.75
805.6514	323.2847	65535	64756.1
805.7945	325.4887	65535	64756.5
805.9376	327.692	65535	64757.5
806.0807	329.8949	65535	64752.9
806.2238	332.0972	65535	64752.35
806.367	334.2989	65535	64749.05
806.5101	336.5001	65535	64747.6
806.6533	338.7007	65535	64747.9
806.7965	340.9008	65535	64745.65
806.9397	343.1003	65535	64742.8
807.0829	345.2992	65535	64742.75
807.2261	347.4976	65535	64743.55
807.3693	349.6955	65535	64743.05
807.5126	351.8927	65535	64739.95
807.6559	354.0895	65535	64726
807.7991	356.2856	65535	64736.55
807.9424	358.4812	65535	64738.45
808.0857	360.6763	65535	64735.35
808.2291	362.8707	65535	64734
808.3724	365.0646	65535	64732.7
808.5158	367.258	65535	64730.55
808.6591	369.4508	65535	64725.1
808.8025	371.643	65535	64726.15
808.9459	373.8346	65535	64724.75
809.0893	376.0257	65535	64722.9
809.2327	378.2162	65535	64722.8
809.3762	380.4062	65535	64719.25
809.5196	382.5956	65535	64718.5
809.6631	384.7844	65535	64720.15
809.8066	386.9726	65535	64724.6
809.9501	389.1603	65535	64731
810.0936	391.3474	65535	64687.95
810.2371	393.5339	65535	64727.75
810.3806	395.7199	65535	64729.55
810.5241	397.9052	65535	64728.65
810.6677	400.09	65535	64730.9
810.8113	402.2743	65535	64731.4
810.9548	404.4579	65535	64726.75
811.0984	406.641	65535	64725.6
811.2421	408.8235	65535	64725.4
811.3857	411.0054	65535	64720.35
811.5293	413.1868	65535	64716.5
811.673	415.3675	65535	64718.15
811.8166	417.5477	65535	64715.65
811.9603	419.7273	65535	64714
812.104	421.9064	65535	64705.9
812.2477	424.0848	65535	64707.25
812.3914	426.2627	65535	64711.2
812.5351	428.4399	65535	64709.35
812.6788	430.6166	65535	64704.65
812.8226	432.7928	65535	64707.15
812.9663	434.9683	65535	64705.05
813.1101	437.1432	65535	64703.55
813.2539	439.3176	65535	64702.2
813.3977	441.4914	65535	64703.7
813.5415	443.6645	65535	64703.7
813.6853	445.8371	65535	64700.35
813.8291	448.0091	65535	64702.95
813.973	450.1806	65535	64702.55
814.1168	452.3514	65535	64701.1
814.2607	454.5216	65535	64692.75
814.4046	456.6913	65535	64699.7
814.5485	458.8603	65535	64700.7
814.6924	461.0288	65535	64700.9
814.8363	463.1967	65535	64700.7
814.9802	465.3639	65535	64697.4
815.1241	467.5306	65535	64692.8
815.2681	469.6967	65535	64696.25
815.412	471.8622	65535	64698.5
815.556	474.0271	65535	64698.2
815.7	476.1914	65535	64696.25
815.844	478.3551	65535	64697.75
815.988	480.5182	65535	64695.45
816.132	482.6807	65535	64694.2
816.276	484.8426	65535	64698.85
816.4201	487.0039	65535	64693.8
816.5641	489.1647	65535	64690.65
816.7082	491.3248	65535	64691.4
816.8522	493.4843	65535	64693.85
816.9963	495.6432	65535	64691.55
817.1404	497.8015	65535	64688.75
817.2845	499.9592	65535	64691.1
817.4286	502.1163	65535	64689.9
817.5727	504.2728	65535	64689.45
817.7168	506.4287	65535	64689.55
817.861	508.5839	65535	64690
818.0051	510.7386	65535	64688.75
818.1493	512.8927	65535	64686.8
818.2935	515.0461	65535	64687.4
818.4377	517.199	65535	64684.35
818.5818	519.3512	65535	64686.8
818.726	521.5029	65535	64677.5
818.8703	523.6539	65535	64686
819.0145	525.8043	65535	64682.7
819.1587	527.9541	65535	64683.75
819.303	530.1033	65535	64685.85
819.4472	532.2519	65535	64683.05
819.5915	534.3999	65535	64681.05
819.7357	536.5472	65535	64680.55
819.88	538.694	65535	64681.65
820.0243	540.8401	65535	64681.7
820.1686	542.9856	65535	64678.7
820.3129	545.1305	65535	64677.8
820.4572	547.2748	65535	64676.95
820.6016	549.4185	65535	64671.7
820.7459	551.5615	65535	64678.8
820.8902	553.704	65535	64679.85
821.0346	555.8458	65535	64678.35
821.1789	557.987	65535	64679.75
821.3233	560.1276	65535	64672.4
821.4677	562.2675	65535	64676
821.6121	564.4069	65535	64681.75
821.7565	566.5456	65535	64677.15
821.9009	568.6837	65535	64677.9
822.0453	570.8212	65535	64678.1
822.1897	572.958	65535	64672.45
822.3342	575.0942	65535	64678.7
822.4786	577.2299	65535	64673.8
822.6231	579.3648	65535	64678.4
822.7675	581.4992	65535	64674.9
822.912	583.6329	65535	64680.7
823.0565	585.766	65535	64676.55
823.201	587.8985	65535	64678.05
823.3454	590.0304	65535	64652.25
823.4899	592.1616	65535	64669.55
823.6345	594.2922	65535	64674.55
823.779	596.4222	65535	64669.3
823.9235	598.5515	65535	64670.45
824.068	600.6802	65535	64672.45
824.2126	602.8083	65535	64671.2
824.3571	604.9358	65535	64670.95
824.5017	607.0626	65535	64672.15
824.6462	609.1888	65535	64668.45
824.7908	611.3144	65535	64670.25
824.9354	613.4393	65535	64666.75
825.08	615.5636	65535	64671.7
825.2246	617.6873	65535	64669.4
825.3692	619.8103	65535	64663.7
825.5138	621.9327	65535	64666.85
825.6584	624.0544	65535	64671.15
825.803	626.1756	65535	64669.6
825.9477	628.2961	65535	64666.85
826.0923	630.4159	65535	64667.25
826.237	632.5351	65535	64668
826.3816	634.6537	65535	64667.75
826.5263	636.7716	65535	64663.5
826.6709	638.8889	65535	64664.55
826.8156	641.0056	65535	64661.6
826.9603	643.1216	65535	64666.35
827.105	645.237	65535	64660.1
827.2497	647.3518	65535	64663.25
827.3944	649.4659	65535	64664.5
827.5391	651.5793	65535	64662.75
827.6838	653.6922	65535	64666.25
827.8285	655.8043	65535	64662.35
827.9733	657.9159	65535	64662.35
828.118	660.0268	65535	64661.8
828.2627	662.137	65535	64660.75
828.4075	664.2466	65535	64659.15
828.5522	666.3556	65535	64663.55
828.697	668.4639	65535	64658.3
828.8418	670.5716	65535	64663.5
828.9865	672.6786	65535	64659.85
829.1313	674.785	65535	64659.15
829.2761	676.8907	65535	64657.65
829.4209	678.9958	65535	64661.7
829.5657	681.1002	65535	64659
829.7105	683.204	65535	64655.3
829.8553	685.3072	65535	64657.35
830.0001	687.4097	65535	64659.85
830.1449	689.5115	65535	64653.9
830.2898	691.6127	65535	64659.7
830.4346	693.7132	65535	64655.9
830.5794	695.8131	65535	64647.8
830.7243	697.9123	65535	64656.95
830.8691	700.0109	65535	64655.55
831.014	702.1089	65535	64657.6
831.1588	704.2061	65535	64658.4
831.3037	706.3028	65535	64654.95
831.4486	708.3987	65535	64656.4
831.5935	710.4941	65535	64655.5
831.7383	712.5887	65535	64654.8
831.8832	714.6827	65535	64655.1
832.0281	716.7761	65535	64653.45
832.173	718.8688	65535	64655
832.3179	720.9608	65535	64648.65
832.4628	723.0522	65535	64650.6
832.6077	725.1429	65535	64654.3
832.7527	727.233	65535	64651.8
832.8976	729.3224	65535	64653.4
833.0425	731.4112	65535	64651.85
833.1874	733.4993	65535	64652.3
833.3324	735.5867	65535	64653.25
833.4773	737.6735	65535	64652.75
833.6222	739.7596	65535	64652.6
833.7672	741.845	65535	64651.3
833.9122	743.9298	65535	64651.7
834.0571	746.014	65535	64652.25
834.2021	748.0974	65535	64650.45
834.347	750.1802	65535	64650.6
834.492	752.2624	65535	64649.15
834.637	754.3439	65535	64652.05
834.782	756.4247	65535	64639.4
834.9269	758.5048	65535	64649.65
835.0719	760.5843	65535	64651.3
835.2169	762.6631	65535	64649.15
835.3619	764.7413	65535	64651.05
835.5069	766.8188	65535	64651.05
835.6519	768.8956	65535	64650.6
835.7969	770.9718	65535	64647.45
835.9419	773.0473	65535	64651.9
836.0869	775.1221	65535	64651
836.232	777.1962	65535	64647.75
836.377	779.2697	65535	64647.55
836.522	781.3426	65535	64629.55
836.667	783.4147	65535	64646.8
836.8121	785.4862	65535	64648.85
836.9571	787.557	65535	64647.7
837.1021	789.6271	65535	64646.1
837.2472	791.6966	65535	64650.85
837.3922	793.7654	65535	64650.85
837.5373	795.8335	65535	64647.4
837.6823	797.901	65535	64649.6
837.8274	799.9678	65535	64644.8
837.9724	802.0339	65535	64649.8
838.1175	804.0993	65535	64639.35
838.2626	806.1641	65535	64647.05
838.4076	808.2282	65535	64648.15
838.5527	810.2916	65535	64643.3
838.6978	812.3544	65535	64649.5
838.8428	814.4164	65535	64649.55
838.9879	816.4778	65535	64646.05
839.133	818.5385	65535	64646.15
839.2781	820.5986	65535	64647.6
839.4232	822.658	65535	64645.8
839.5682	824.7166	65535	64644.65
839.7133	826.7747	65535	64646.4
839.8584	828.832	65535	64647.8
840.0035	830.8886	65535	64644.2
840.1486	832.9446	65535	64643.95
840.2937	834.9999	65535	64647.25
840.4388	837.0545	65535	64638.2
840.5839	839.1085	65535	64645.85
840.729	841.1618	65535	64642
840.8741	843.2143	65535	64645.8
841.0192	845.2662	65535	64643.75
841.1643	847.3175	65535	64645.95
841.3095	849.368	65535	64645.8
841.4546	851.4179	65535	64645.1
841.5997	853.467	65535	64644.4
841.7448	855.5155	65535	64646.15
841.8899	857.5633	65535	64644.55
842.0351	859.6105	65535	64645.95
842.1802	861.6569	65535	64647.1
842.3253	863.7027	65535	64645.45
842.4704	865.7478	65535	64644.35
842.6156	867.7922	65535	64644.25
842.7607	869.8359	65535	64644.5
842.9058	871.8789	65535	64643.8
843.0509	873.9212	65535	64611.65
843.1961	875.9629	65535	64644.3
843.3412	878.0039	65535	64642.75
843.4863	880.0441	65535	64646.75
843.6315	882.0837	65535	64641.45
843.7766	884.1226	65535	64641.05
843.9218	886.1609	65535	64645.1
844.0669	888.1984	65535	64641.5
844.212	890.2352	65535	64645.05
844.3572	892.2714	65535	64637.7
844.5023	894.3069	65535	64643.5
844.6475	896.3416	65535	64642.8
844.7926	898.3757	65535	64641.35
844.9377	900.4091	65535	64641.75
845.0829	902.4418	65535	64636.65
845.228	904.4739	65535	64640.05
845.3732	906.5052	65535	64641.85
845.5183	908.5358	65535	64645
845.6635	910.5658	65535	64640.8
845.8086	912.595	65535	64643
845.9538	914.6236	65535	64642.65
846.0989	916.6515	65535	64644.35
846.2441	918.6786	65535	64639.35
846.3892	920.7051	65535	64642.25
846.5344	922.7309	65535	64642.55
846.6795	924.756	65535	64639.25
846.8246	926.7804	65535	64639.6
846.9698	928.8041	65535	64639
847.1149	930.8272	65535	64642.95
847.2601	932.8495	65535	64641.25
847.4052	934.8711	65535	64638.55
847.5504	936.892	65535	64641.6
847.6955	938.9123	65535	64641.25
847.8407	940.9318	65535	64641.1
847.9858	942.9506	65535	64638.85
848.131	944.9688	65535	64641.65
848.2761	946.9862	65535	64641.3
848.4213	949.003	65535	64639.3
848.5664	951.019	65535	64641.65
848.7115	953.0344	65535	64640.4
848.8567	955.0491	65535	64639.55
849.0018	957.063	65535	64641.55
849.147	959.0763	65535	64640.55
849.2921	961.0888	65535	64640
849.4373	963.1007	65535	64643.05
849.5824	965.1119	65535	64642.8
849.7275	967.1223	65535	64643.2
849.8727	969.1321	65535	64639.8
850.0178	971.1412	65535	64638.7
850.1629	973.1495	65535	64640.6
850.3081	975.1572	65535	64605.4
850.4532	977.1641	65535	64640.6
850.5983	979.1704	65535	64640.9
850.7435	981.1759	65535	64637.3
850.8886	983.1808	65535	64639.4
851.0337	985.1849	65535	64631.7
851.1788	987.1884	65535	64637.15
851.324	989.1911	65535	64635.45
851.4691	991.1932	65535	64639.1
851.6142	993.1945	65535	64638.05
851.7593	995.1951	65535	64640.75
851.9045	997.1951	65535	64634.15
852.0496	999.1943	65535	64639.85
852.1947	1001.1928	65535	64638.2
852.3398	1003.1906	65535	64641.65
852.4849	1005.1877	65535	64638.75
852.63	1007.1841	65535	64639.75
852.7751	1009.1798	65535	64638.35
852.9202	1011.1748	65535	64640.5
853.0653	1013.1691	65535	64639.15
853.2104	1015.1627	65535	64638.4
853.3555	1017.1556	65535	64640.6
853.5006	1019.1477	65535	64640.55
853.6457	1021.1392	65535	64639.7
853.7908	1023.1299	65535	64641.85
853.9359	1025.12	65535	64638.45
854.081	1027.1093	65535	64643.55
854.2261	1029.0979	65535	64642.95
854.3712	1031.0859	65535	64639.35
854.5163	1033.0731	65535	64641.25
854.6613	1035.0596	65535	64638.2
854.8064	1037.0454	65535	64639.3
854.9515	1039.0304	65535	64640.7
855.0965	1041.0148	65535	64639.35
855.2416	1042.9985	65535	64638
855.3867	1044.9814	65535	64640.15
855.5317	1046.9636	65535	64638.05
855.6768	1048.9452	65535	64642.8
855.8219	1050.926	65535	64640.7
855.9669	1052.9061	65535	64641.5
856.112	1054.8855	65535	64639.15
856.257	1056.8642	65535	64638.9
856.4021	1058.8421	65535	64639.25
856.5471	1060.8194	65535	64637.2
856.6921	1062.7959	65535	64639.8
856.8372	1064.7717	65535	64639.4
856.9822	1066.7469	65535	64638.65
857.1272	1068.7213	65535	64635.6
857.2723	1070.695	65535	64640.25
857.4173	1072.6679	65535	64638.65
857.5623	1074.6402	65535	64640.1
857.7073	1076.6117	65535	64633.15
857.8523	1078.5826	65535	64638.8
857.9973	1080.5527	65535	64635.85
858.1423	1082.5221	65535	64637.9
858.2873	1084.4908	65535	64640.05
858.4323	1086.4587	65535	64639.15
858.5773	1088.426	65535	64639.45
858.7223	1090.3925	65535	64634.15
858.8673	1092.3584	65535	64639.85
859.0123	1094.3235	65535	64640.2
859.1573	1096.2879	65535	64637.45
859.3022	1098.2515	65535	64637.65
859.4472	1100.2145	65535	64640.1
859.5922	1102.1767	65535	64635.75
859.7371	1104.1382	65535	64639.15
859.8821	1106.099	65535	64637.15
860.027	1108.0591	65535	64638.4
860.172	1110.0185	65535	64638.2
860.3169	1111.9771	65535	64640.4
860.4619	1113.9351	65535	64641.05
860.6068	1115.8923	65535	64636.25
860.7517	1117.8488	65535	64637.7
860.8967	1119.8045	65535	64638.7
861.0416	1121.7596	65535	64637.35
861.1865	1123.7139	65535	64638.7
861.3314	1125.6675	65535	64640.6
861.4763	1127.6204	65535	64639.6
861.6212	1129.5726	65535	64637.3
861.7661	1131.524	65535	64639.95
861.911	1133.4748	65535	64639.9
862.0559	1135.4248	65535	64637.4
862.2008	1137.3741	65535	64639.7
862.3457	1139.3226	65535	64638.3
862.4905	1141.2705	65535	64638.1
862.6354	1143.2176	65535	64636.5
862.7803	1145.164	65535	64634.65
862.9251	1147.1097	65535	64638.5
863.07	1149.0546	65535	64635.6
863.2148	1150.9989	65535	64635.9
863.3597	1152.9424	65535	64639.1
863.5045	1154.8852	65535	64635.3
863.6493	1156.8272	65535	64639.2
863.7942	1158.7686	65535	64633.15
863.939	1160.7092	65535	64635.7
864.0838	1162.6491	65535	64641.15
864.2286	1164.5883	65535	64639.1
864.3734	1166.5267	65535	64637.25
864.5182	1168.4644	65535	64638.1
864.663	1170.4014	65535	64632.35
864.8078	1172.3377	65535	64639.45
864.9526	1174.2732	65535	64638.25
865.0974	1176.2081	65535	64637.25
865.2421	1178.1421	65535	64634.55
865.3869	1180.0755	65535	64636.8
865.5317	1182.0082	65535	64638.95
865.6764	1183.9401	65535	64636.45
865.8212	1185.8713	65535	64642.45
865.9659	1187.8017	65535	64641.9
866.1106	1189.7315	65535	64638.15
866.2554	1191.6605	65535	64611.95
866.4001	1193.5888	65535	64638.85
866.5448	1195.5163	65535	64639.4
866.6895	1197.4432	65535	64636.85
866.8342	1199.3693	65535	64638
866.9789	1201.2947	65535	64639.1
867.1236	1203.2193	65535	64638.85
867.2683	1205.1432	65535	64638.5
867.413	1207.0664	65535	64637.95
867.5576	1208.9889	65535	64633
867.7023	1210.9106	65535	64638.75
867.847	1212.8316	65535	64639.35
867.9916	1214.7519	65535	64630.35
868.1363	1216.6715	65535	64639.95
868.2809	1218.5903	65535	64639.75
868.4255	1220.5084	65535	64637.75
868.5701	1222.4257	65535	64636.9
868.7148	1224.3424	65535	64638.6
868.8594	1226.2583	65535	64637.25
869.004	1228.1735	65535	64637.15
869.1486	1230.0879	65535	64639.3
869.2932	1232.0016	65535	64639.1
869.4377	1233.9146	65535	64635.05
869.5823	1235.8269	65535	64640.75
869.7269	1237.7384	65535	64639.1
869.8715	1239.6492	65535	64640.75
870.016	1241.5592	65535	64637.65
870.1606	1243.4686	65535	64638.35
870.3051	1245.3772	65535	64637.95
870.4496	1247.285	65535	64634.7
870.5941	1249.1922	65535	64638.4
870.7387	1251.0986	65535	64639.3
870.8832	1253.0042	65535	64638.95
871.0277	1254.9092	65535	64640.35
871.1722	1256.8134	65535	64639.85
871.3167	1258.7169	65535	64635.85
871.4611	1260.6196	65535	64639.65
871.6056	1262.5216	65535	64637.3
871.7501	1264.4229	65535	64640.35
871.8945	1266.3234	65535	64636.25
872.039	1268.2232	65535	64638.55
872.1834	1270.1223	65535	64637.15
872.3278	1272.0207	65535	64639.75
872.4723	1273.9183	65535	64633
872.6167	1275.8151	65535	64638.65
872.7611	1277.7113	65535	64637.45
872.9055	1279.6067	65535	64639.55
873.0499	1281.5014	65535	64634.95
873.1943	1283.3953	65535	64637.7
873.3386	1285.2885	65535	64640.5
873.483	1287.181	65535	64639.7
873.6274	1289.0727	65535	64640.6
873.7717	1290.9637	65535	64637.95
873.9161	1292.854	65535	64640.65
874.0604	1294.7435	65535	64636.2
874.2047	1296.6323	65535	64639.7
874.349	1298.5204	65535	64636.05
874.4933	1300.4077	65535	64636.15
874.6376	1302.2943	65535	64638.95
874.7819	1304.1802	65535	64639.8
874.9262	1306.0653	65535	64637.85
875.0705	1307.9497	65535	64639.4
875.2147	1309.8333	65535	64638.2
875.359	1311.7162	65535	64637.9
875.5032	1313.5984	65535	64637.45
875.6475	1315.4798	65535	64636.5
875.7917	1317.3605	65535	64622.85
875.9359	1319.2405	65535	64637.55
876.0801	1321.1197	65535	64637.9
876.2243	1322.9982	65535	64635.7
876.3685	1324.876	65535	64639.25
876.5127	1326.753	65535	64638
876.6569	1328.6293	65535	64634.75
876.801	1330.5048	65535	64634.95
876.9452	1332.3796	65535	64639.65
877.0893	1334.2537	65535	64615.8
877.2335	1336.127	65535	64638.85
877.3776	1337.9996	65535	64639.2
877.5217	1339.8714	65535	64638.5
877.6658	1341.7426	65535	64593.8
877.8099	1343.6129	65535	64638.05
877.954	1345.4826	65535	64638.1
878.0981	1347.3515	65535	64636.5
878.2422	1349.2196	65535	64635.4
878.3862	1351.087	65535	64638.7
878.5303	1352.9537	65535	64637.55
878.6743	1354.8197	65535	64640.2
878.8184	1356.6849	65535	64637.9
878.9624	1358.5493	65535	64639
879.1064	1360.4131	65535	64639.4
879.2504	1362.276	65535	64640.5
879.3944	1364.1383	65535	64636.9
879.5384	1365.9998	65535	64632.05
879.6823	1367.8606	65535	64635.55
879.8263	1369.7206	65535	64639.5
879.9702	1371.5799	65535	64635.95
880.1142	1373.4384	65535	64636.95
880.2581	1375.2962	65535	64638.15
880.402	1377.1533	65535	64636.9
880.5459	1379.0096	65535	64636.9
880.6898	1380.8652	65535	64638.1
880.8337	1382.7201	65535	64640.9
880.9776	1384.5742	65535	64637.15
881.1215	1386.4275	65535	64637.15
881.2653	1388.2802	65535	64638.35
881.4092	1390.132	65535	64637.9
881.553	1391.9832	65535	64638.1
881.6968	1393.8336	65535	64638.35
881.8406	1395.6832	65535	64636.35
881.9844	1397.5322	65535	64638.55
882.1282	1399.3803	65535	64633.4
882.272	1401.2278	65535	64635.65
882.4158	1403.0745	65535	64641.05
882.5595	1404.9204	65535	64639.95
882.7033	1406.7656	65535	64636.6
882.847	1408.6101	65535	64636.8
882.9908	1410.4538	65535	64638.85
883.1345	1412.2968	65535	64638.2
883.2782	1414.139	65535	64638.45
883.4219	1415.9805	65535	64639.1
883.5656	1417.8213	65535	64630.6
883.7092	1419.6613	65535	64640.05
883.8529	1421.5006	65535	64638.75
883.9965	1423.3391	65535	64635
884.1402	1425.1769	65535	64636.3
884.2838	1427.0139	65535	64639.45
884.4274	1428.8502	65535	64638.2
884.571	1430.6858	65535	64641.35
884.7146	1432.5206	65535	64639.75
884.8582	1434.3547	65535	64639.6
885.0018	1436.188	65535	64641.7
885.1453	1438.0206	65535	64640.4
885.2889	1439.8524	65535	64639.75
885.4324	1441.6835	65535	64636.1
885.5759	1443.5139	65535	64634.6
885.7194	1445.3435	65535	64637.1
885.8629	1447.1724	65535	64638.75
886.0064	1449.0005	65535	64640
886.1499	1450.8279	65535	64636
886.2933	1452.6545	65535	64639
886.4368	1454.4804	65535	64640.85
886.5802	1456.3056	65535	64632
886.7237	1458.13	65535	64639.65
886.8671	1459.9536	65535	64638.8
887.0105	1461.7766	65535	64640.65
887.1539	1463.5987	65535	64638.2
887.2972	1465.4202	65535	64638.8
887.4406	1467.2409	65535	64638.5
887.584	1469.0608	65535	64638.6
887.7273	1470.88	65535	64638.8
887.8706	1472.6984	65535	64641.4
888.0139	1474.5161	65535	64637.45
888.1572	1476.3331	65535	64640.7
888.3005	1478.1493	65535	64639.35
888.4438	1479.9648	65535	64639.95
888.5871	1481.7795	65535	64639.65
888.7303	1483.5935	65535	64639.15
888.8736	1485.4067	65535	64641.5
889.0168	1487.2192	65535	64639.35
889.16	1489.031	65535	64635.9
889.3032	1490.842	65535	64639.1
889.4464	1492.6522	65535	64640.3
889.5896	1494.4618	65535	64639.15
889.7327	1496.2705	65535	64639.05
889.8759	1498.0785	65535	64638.85
890.019	1499.8858	65535	64637.45
890.1622	1501.6924	65535	64639.35
890.3053	1503.4981	65535	64639.45
890.4484	1505.3032	65535	64639.25
890.5914	1507.1075	65535	64638.95
890.7345	1508.911	65535	64641.05
890.8776	1510.7138	65535	64638.15
891.0206	1512.5159	65535	64639.75
891.1637	1514.3172	65535	64638.75
891.3067	1516.1178	65535	64640.45
891.4497	1517.9176	65535	64637.3
891.5927	1519.7166	65535	64638.35
891.7357	1521.515	65535	64632.8
891.8786	1523.3126	65535	64640.05
892.0216	1525.1094	65535	64637.6
892.1645	1526.9055	65535	64638.85
892.3074	1528.7008	65535	64640.25
892.4503	1530.4954	65535	64635.3
892.5932	1532.2893	65535	64640.25
892.7361	1534.0824	65535	64634.9
892.879	1535.8747	65535	64640.4
893.0218	1537.6663	65535	64638.95
893.1647	1539.4572	65535	64638
893.3075	1541.2473	65535	64640.3
893.4503	1543.0367	65535	64641.15
893.5931	1544.8253	65535	64636.65
893.7359	1546.6132	65535	64636.6
893.8787	1548.4003	65535	64631.35
894.0214	1550.1867	65535	64631.2
894.1642	1551.9723	65535	64634.35
894.3069	1553.7572	65535	64639.9
894.4496	1555.5414	65535	64639.3
894.5923	1557.3247	65535	64642.9
894.735	1559.1074	65535	64641.25
894.8777	1560.8893	65535	64640.5
895.0204	1562.6705	65535	64638.3
895.163	1564.4509	65535	64641.35
895.3056	1566.2305	65535	64642.65
895.4482	1568.0094	65535	64639.7
895.5908	1569.7876	65535	64642.6
895.7334	1571.565	65535	64640.95
895.876	1573.3417	65535	64640.85
896.0186	1575.1176	65535	64641.65
896.1611	1576.8928	65535	64639.9
896.3036	1578.6672	65535	64641.15
896.4461	1580.4409	65535	64642.8
896.5886	1582.2138	65535	64639.65
896.7311	1583.986	65535	64640.65
896.8736	1585.7575	65535	64642.6
897.0161	1587.5282	65535	64641.9
897.1585	1589.2981	65535	64645
897.3009	1591.0673	65535	64643.95
897.4433	1592.8358	65535	64642.35
897.5857	1594.6035	65535	64637.8
897.7281	1596.3704	65535	64642.4
897.8705	1598.1366	65535	64642.05
898.0128	1599.9021	65535	64642.2
898.1551	1601.6668	65535	64638.95
898.2975	1603.4308	65535	64641.65
898.4398	1605.194	65535	64636
898.5821	1606.9564	65535	64645.4
898.7243	1608.7182	65535	64640.3
898.8666	1610.4791	65535	64643.9
899.0088	1612.2394	65535	64643.15
899.1511	1613.9988	65535	64642.4
899.2933	1615.7576	65535	64642.75
899.4355	1617.5156	65535	64636.25
899.5776	1619.2728	65535	64643.4
899.7198	1621.0293	65535	64643.15
899.862	1622.785	65535	64639.4
900.0041	1624.54	65535	64639.6
900.1462	1626.2942	65535	64641.65
900.2883	1628.0477	65535	64638.85
900.4304	1629.8005	65535	64640.05
900.5725	1631.5525	65535	64641.8
900.7145	1633.3037	65535	64641.7
900.8566	1635.0542	65535	64643
900.9986	1636.804	65535	64641.45
901.1406	1638.553	65535	64552.85
901.2826	1640.3013	65535	64642.25
901.4245	1642.0488	65535	64640.55
901.5665	1643.7955	65535	64645.35
901.7085	1645.5416	65535	64645.7
901.8504	1647.2868	65535	64643.05
901.9923	1649.0313	65535	64643.05
902.1342	1650.7751	65535	64639.6
902.2761	1652.5181	65535	64643.95
902.4179	1654.2604	65535	64641.2
902.5598	1656.0019	65535	64644.25
902.7016	1657.7427	65535	64642.6
902.8434	1659.4828	65535	64642.8
902.9852	1661.222	65535	64641.3
903.127	1662.9606	65535	64645
903.2687	1664.6984	65535	64643.4
903.4105	1666.4354	65535	64640.75
903.5522	1668.1717	65535	64642.55
903.6939	1669.9072	65534.5	64641.95
903.8356	1671.642	65535	64641.05
903.9773	1673.3761	65535	64644.75
904.119	1675.1094	65535	64644.85
904.2606	1676.8419	65513.45	64621.75
904.4022	1678.5737	65526.3	64635.1
904.5439	1680.3048	65518.85	64626.45
904.6855	1682.0351	65504.5	64614.15
904.827	1683.7646	65491.65	64598
904.9686	1685.4934	65517.9	64625.5
905.1101	1687.2215	65421.15	64529.95
905.2517	1688.9488	65487.45	64597.25
905.3932	1690.6754	65350.7	64458.55
905.5347	1692.4012	65419.15	64527.1
905.6761	1694.1263	65442.2	64550.1
905.8176	1695.8506	65377.55	64487.15
905.9591	1697.5742	65394.7	64503.9
906.1005	1699.297	65371.9	64478.9
906.2419	1701.0191	65390.35	64498.75
906.3833	1702.7404	65302	64411.05
906.5246	1704.461	65245.85	64354.1
906.666	1706.1808	65341.25	64449.8
906.8073	1707.8999	65306.85	64415.95
906.9487	1709.6182	65283.25	64393
907.09	1711.3358	65270.25	64378.9
907.2313	1713.0527	65242.85	64354.1
907.3725	1714.7688	65267.6	64371.65
907.5138	1716.4841	65033.35	64139.8
907.655	1718.1987	65126.75	64231.95
907.7962	1719.9126	65054.05	64164.05
907.9374	1721.6257	65149.85	64256.25
908.0786	1723.338	65124.6	64233.25
908.2198	1725.0496	64636.7	63742.9
908.3609	1726.7605	64768.95	63877.9
908.502	1728.4706	64587.8	63695.75
908.6431	1730.18	64876.9	63984.75
908.7842	1731.8886	64504.25	63612.35
908.9253	1733.5964	64358.8	63462.45
909.0664	1735.3036	64746.45	63850.8
909.2074	1737.0099	64462.95	63572.5
909.3484	1738.7156	64203.4	63314.05
909.4894	1740.4204	64135.55	63243.5
909.6304	1742.1246	64251.45	63358.95
909.7714	1743.8279	64344.2	63452.9
909.9123	1745.5306	64266.35	63374
910.0532	1747.2325	63362.9	62473.55
910.1941	1748.9336	63391.55	62501.8
910.335	1750.634	63696.4	62803.75
910.4759	1752.3336	63956.5	63065.85
910.6168	1754.0325	63273.6	62383.4
910.7576	1755.7307	63917.25	63029
910.8984	1757.4281	63025.4	62133.45
911.0392	1759.1247	63675.4	62776.05
911.18	1760.8206	62782.9	61886.95
911.3208	1762.5158	62937.05	62043.05
911.4615	1764.2102	63097	62207.2
911.6022	1765.9039	62962.15	62072.6
911.7429	1767.5968	62729.75	61839.65
911.8836	1769.289	62578.45	61689.6
912.0243	1770.9804	62762.45	61869.1
912.1649	1772.6711	62548.1	61658.95
912.3056	1774.361	62394.05	61502.85
912.4462	1776.0502	62432.55	61540.65
912.5868	1777.7386	61707.85	60816.1
912.7274	1779.4263	62127.45	61234.85
912.8679	1781.1132	62096.85	61208.25
913.0084	1782.7994	61942.5	61051.45
913.149	1784.4849	61998.25	61109.75
913.2895	1786.1696	61079.4	60183.55
913.4299	1787.8535	61590.4	60700.65
913.5704	1789.5367	61748.75	60858.55
913.7108	1791.2192	61154.9	60263
913.8513	1792.9009	60797.8	59877.6
913.9917	1794.5818	61269	60375.6
914.132	1796.2621	60775.7	59887.3
914.2724	1797.9415	60824	59932.1
914.4128	1799.6202	60728.5	59839.45
914.5531	1801.2982	60787.2	59897.9
914.6934	1802.9755	60164.65	59272.9
914.8337	1804.6519	59945.35	59054.1
914.9739	1806.3277	60866.25	59977.55
915.1142	1808.0027	59457.75	58570.45
915.2544	1809.6769	59915.3	59024.8
915.3946	1811.3504	60032.95	59143.4
915.5348	1813.0231	58928.15	58038.55
915.675	1814.6951	59611.8	58721.2
915.8151	1816.3664	59145.4	58254.2
915.9553	1818.0369	59200.45	58308.75
916.0954	1819.7067	58916.1	58027.35
916.2355	1821.3757	59571.35	58680.8
916.3755	1823.044	58668.4	57776.45
916.5156	1824.7115	58192.05	57301.4
916.6556	1826.3783	58479	57589.7
916.7956	1828.0443	58491.1	57601.05
916.9356	1829.7096	58119.45	57229.05
917.0756	1831.3741	57517.35	56624.45
917.2155	1833.0379	57837.55	56947.9
917.3555	1834.701	57802.25	56908.9
917.4954	1836.3633	57330.25	56440.45
917.6353	1838.0248	57542.65	56649.4
917.7751	1839.6856	57361.3	56471.05
917.915	1841.3457	56848.45	55962.1
918.0548	1843.005	57420.95	56533.1
918.1946	1844.6636	57001.4	56113.4
918.3344	1846.3214	56371.25	55480.65
918.4742	1847.9785	56572.75	55682.2
918.6139	1849.6349	56496.9	55604.95
918.7537	1851.2904	56865.85	55966.85
918.8934	1852.9453	56068.2	55178.4
919.0331	1854.5994	56278.65	55386.3
919.1727	1856.2528	56328.8	55433.05
919.3124	1857.9054	55837.15	54947.8
919.452	1859.5572	55629.9	54739.55
919.5916	1861.2083	55757.25	54864.9
919.7312	1862.8587	56278.15	55387.3
919.8708	1864.5084	55020.1	54127.65
920.0103	1866.1572	55479.15	54589.2
920.1498	1867.8054	54834.9	53943.1
920.2893	1869.4528	55207.6	54318.3
920.4288	1871.0994	54590.45	53702.7
920.5683	1872.7453	54657.15	53765.5
920.7077	1874.3905	54795	53897.8
920.8471	1876.0349	54323.6	53431.8
920.9865	1877.6786	54565.95	53674.85
921.1259	1879.3215	54153.25	53264.65
921.2653	1880.9637	54528.15	53636.7
921.4046	1882.6051	54068.2	53179.2
921.5439	1884.2458	53818.85	52926.6
921.6832	1885.8858	53599.8	52708.2
921.8225	1887.525	53698.65	52808.85
921.9617	1889.1634	53470.85	52579.4
922.101	1890.8011	53298.45	52407.75
922.2402	1892.4381	52812.45	51924
922.3794	1894.0743	53296.55	52406.95
922.5185	1895.7098	52888.95	51999.45
922.6577	1897.3446	52592.15	51699.4
922.7968	1898.9786	52660.6	51767
922.9359	1900.6118	52432.35	51545.15
923.075	1902.2443	52076.15	51184.5
923.214	1903.8761	52271.05	51381.85
923.3531	1905.5071	51949.9	51058.2
923.4921	1907.1374	51386.45	50497.25
923.6311	1908.7669	51549.7	50658.85
923.77	1910.3957	51687.1	50796.55
923.909	1912.0237	51167.15	50278.8
924.0479	1913.651	51047.7	50158.05
924.1868	1915.2776	50800.25	49911.8
924.3257	1916.9034	50737.15	49848.35
924.4646	1918.5285	50439.1	49550.65
924.6034	1920.1528	50342.6	49452.05
924.7422	1921.7764	50263.05	49374.65
924.881	1923.3992	50093.35	49203.95
925.0198	1925.0213	49694.85	48803.3
925.1586	1926.6427	49441.45	48552.4
925.2973	1928.2633	49484.55	48517.7
925.436	1929.8832	49266.15	48374.55
925.5747	1931.5023	49071.45	48182.4
925.7134	1933.1207	48860.75	47971.8
925.852	1934.7383	48854.25	47963.6
925.9906	1936.3552	48609.6	47721.6
926.1292	1937.9714	48536.8	47646.1
926.2678	1939.5868	48356.2	47465.85
926.4064	1941.2015	47995.45	47105.9
926.5449	1942.8154	47840.3	46950.3
926.6834	1944.4286	47694.6	46803.55
926.8219	1946.041	47521.25	46612.2
926.9604	1947.6528	47245.75	46352.15
927.0988	1949.2637	47145.45	46256.65
927.2372	1950.8739	46964.2	46074.85
927.3756	1952.4834	46927.8	46039.25
927.514	1954.0921	46858.6	45968.1
927.6523	1955.7001	46614.25	45720.85
927.7907	1957.3074	46499.1	45611.2
927.929	1958.9139	46288.15	45399.85
928.0673	1960.5197	46189.6	45299.45
928.2055	1962.1247	46019.15	45131.15
928.3438	1963.729	45739.1	44851.15
928.482	1965.3325	45576.75	44664.2
928.6202	1966.9353	45532.5	44645
928.7584	1968.5374	45266.2	44376.05
928.8965	1970.1387	45137.9	44248.35
929.0346	1971.7393	44992.9	44104.05
929.1727	1973.3392	44861.95	43974.5
929.3108	1974.9383	44661.7	43772.2
929.4489	1976.5366	44463.95	43575.2
929.5869	1978.1342	44427.55	43537.65
929.7249	1979.7311	44306.15	43415
929.8629	1981.3273	44115.95	43224.05
930.0009	1982.9227	43935.1	43043.85
930.1388	1984.5173	43795.05	42906.75
930.2767	1986.1112	43576	42686.05
930.4146	1987.7044	43553.5	42668.55
930.5525	1989.2968	43349.5	42459.75
930.6904	1990.8885	43288.9	42397.4
930.8282	1992.4795	43179.15	42288.8
930.966	1994.0697	43005.55	42116.9
931.1038	1995.6592	42851.4	41962.7
931.2415	1997.2479	42729.75	41841.85
931.3793	1998.8359	42558.8	41669.5
931.517	2000.4232	42434.05	41545.55
931.6547	2002.0097	42274.2	41385.2
931.7923	2003.5955	42093.45	41205.25
931.93	2005.1805	42063.1	41174.45
932.0676	2006.7648	41849.8	40960.7
932.2052	2008.3484	41721.15	40829.8
932.3427	2009.9312	41798.1	40907.05
932.4803	2011.5133	41531.75	40643.75
932.6178	2013.0946	41430.05	40539.8
932.7553	2014.6752	41306.9	40420
932.8928	2016.2551	41223	40335.3
933.0302	2017.8342	40978.45	40091.4
933.1676	2019.4126	40920.3	40032.5
933.305	2020.9902	40731.9	39844.55
933.4424	2022.5672	40713.5	39823.35
933.5798	2024.1433	40498.7	39604.55
933.7171	2025.7188	40426.5	39538.15
933.8544	2027.2935	40306.85	39417.55
933.9917	2028.8674	40106.75	39218.95
934.129	2030.4406	39981.35	39092.7
934.2662	2032.0131	39794.9	38906.7
934.4034	2033.5849	39707.15	38812.15
934.5406	2035.1559	39623.5	38735.95
934.6778	2036.7261	39554.65	38665.95
934.8149	2038.2957	39431.15	38543.5
934.952	2039.8645	39358.25	38470.3
935.0891	2041.4325	39359.9	38468.2
935.2262	2042.9998	39118.8	38230.2
935.3632	2044.5664	39041.1	38151.4
935.5002	2046.1323	38937.25	38048.15
935.6372	2047.6974	38815.5	37928.3
935.7742	2049.2617	38670.1	37780.3
935.9111	2050.8254	38656.8	37765.35
936.048	2052.3883	38578.85	37691.1
936.1849	2053.9504	38417.8	37528.85
936.3218	2055.5118	38277.4	37388
936.4586	2057.0725	38133.9	37241.3
936.5955	2058.6325	38034.4	37144.2
936.7323	2060.1917	37887.75	36999.45
936.869	2061.7502	37777.6	36885.4
937.0058	2063.3079	37632.75	36745.6
937.1425	2064.8649	37540.8	36647.45
937.2792	2066.4212	37438.55	36548.7
937.4159	2067.9767	37302.95	36415.3
937.5525	2069.5315	37140.1	36251.95
937.6891	2071.0856	36960.3	36070.55
937.8257	2072.6389	36838.75	35950.05
937.9623	2074.1915	36701.85	35815.75
938.0989	2075.7433	36503.7	35612.25
938.2354	2077.2945	36438.45	35551.15
938.3719	2078.8448	36288.15	35398.75
938.5084	2080.3945	36234.85	35346.65
938.6448	2081.9434	36132.9	35243.95
938.7812	2083.4916	36036.7	35148.8
938.9176	2085.039	35841.3	34951.1
939.054	2086.5857	35823.25	34932.3
939.1903	2088.1317	35719.7	34832.2
939.3267	2089.677	35606	34716.4
939.463	2091.2215	35452.35	34565.5
939.5992	2092.7652	35356.1	34467.55
939.7355	2094.3083	35284.9	34394.95
939.8717	2095.8506	35205.2	34317.1
940.0079	2097.3921	35227.95	34341.9
940.1441	2098.933	35076.55	34189.8
940.2802	2100.4731	35005.4	34118.25
940.4163	2102.0124	34884.9	33989.1
940.5524	2103.5511	34766.55	33875.6
940.6885	2105.089	34715.55	33826.95
940.8245	2106.6261	34672.2	33783.75
940.9606	2108.1626	34511.75	33623.4
941.0965	2109.6983	34488	33568.95
941.2325	2111.2332	34363.1	33474.2
941.3684	2112.7675	34279.1	33388.95
941.5044	2114.301	34121.85	33230.95
941.6403	2115.8337	34101.5	33214.15
941.7761	2117.3657	34013.4	33125.6
941.912	2118.897	33934.05	33045.15
942.0478	2120.4276	33762	32867.35
942.1835	2121.9575	33594.4	32705.3
942.3193	2123.4866	33624.05	32721.9
942.455	2125.0149	33505.95	32613.45
942.5907	2126.5426	33320.25	32431.25
942.7264	2128.0695	33212.75	32319.1
942.8621	2129.5956	33150.35	32264.85
942.9977	2131.1211	33131.05	32237.25
943.1333	2132.6458	32942.25	32053.1
943.2689	2134.1698	32891.85	32003.75
943.4044	2135.693	32790.25	31898.65
943.54	2137.2155	32722.45	31830.7
943.6755	2138.7373	32675.4	31785.9
943.8109	2140.2584	32551.7	31663.9
943.9464	2141.7787	32392.6	31497.15
944.0818	2143.2983	32222.35	31334
944.2172	2144.8171	32067.3	31180.3
944.3526	2146.3353	31987.6	31097.45
944.4879	2147.8527	31887.55	30998.95
944.6232	2149.3693	31838.75	30951.75
944.7585	2150.8853	31733.8	30845.85
944.8938	2152.4005	31601.7	30711.9
945.029	2153.9149	31539.25	30650
945.1642	2155.4287	31450	30562.45
945.2994	2156.9417	31322.45	30433.05
945.4346	2158.454	31252.4	30360.9
945.5697	2159.9655	31235.65	30344.95
945.7048	2161.4764	31177.55	30289.65
945.8399	2162.9865	31079.75	30191.35
945.9749	2164.4958	30929.1	30039.55
946.1099	2166.0045	30814.5	29924.4
946.2449	2167.5124	30794.95	29905.4
946.3799	2169.0195	30668.35	29778.75
946.5148	2170.526	30637.95	29748.75
946.6498	2172.0317	30532.7	29643.85
946.7846	2173.5367	30445.15	29557.4
946.9195	2175.0409	30365.4	29476.9
947.0543	2176.5445	30354.95	29467.85
947.1891	2178.0473	30126.5	29236.45
947.3239	2179.5494	30056.95	29164.4
947.4587	2181.0507	29921.5	29030.65
947.5934	2182.5513	29870.5	28980.4
947.7281	2184.0512	29797.15	28909
947.8628	2185.5504	29715.35	28828.65
947.9974	2187.0488	29535.45	28647.3
948.132	2188.5465	29419.6	28531.15
948.2666	2190.0435	29294.25	28404.95
948.4012	2191.5397	29193.75	28305.8
948.5357	2193.0353	29153.9	28266.55
948.6702	2194.5301	28946.8	28058.2
948.8047	2196.0241	28892.7	28003.9
948.9392	2197.5175	28805.9	27916.55
949.0736	2199.0101	28698.9	27807.05
949.208	2200.502	28540.2	27651.4
949.3424	2201.9931	28427.8	27538.6
949.4767	2203.4835	28314.6	27424.1
949.611	2204.9733	28273.25	27379.55
949.7453	2206.4622	28190.45	27303.6
949.8796	2207.9505	28079.45	27188.1
950.0138	2209.438	27924.55	27039.1
950.148	2210.9248	27894.75	27005.25
950.2822	2212.4109	27790.4	26902.75
950.4164	2213.8962	27696.75	26806.2
950.5505	2215.3809	27609.6	26719.95
950.6846	2216.8648	27569.25	26678.75
950.8186	2218.3479	27481.95	26587.9
950.9527	2219.8304	27334.05	26442.6
951.0867	2221.3121	27199.6	26309.15
951.2207	2222.7931	27162.8	26275.2
951.3546	2224.2733	27014.65	26126.9
951.4886	2225.7529	26942.55	26053.5
951.6225	2227.2317	26845	25952.6
951.7563	2228.7098	26827.4	25939.3
951.8902	2230.1872	26683.85	25794.55
952.024	2231.6638	26626.2	25738.55
952.1578	2233.1397	26502.05	25608.05
952.2916	2234.6149	26413	25524.45
952.4253	2236.0894	26322.6	25433.3
952.559	2237.5632	26276.1	25385.75
952.6927	2239.0362	26160.7	25272.2
952.8263	2240.5085	26094.35	25205.65
952.9599	2241.9801	25980.4	25090.1
953.0935	2243.4509	25935.45	25047.5
953.2271	2244.921	25806.3	24919.4
953.3606	2246.3904	25687.9	24795.5
953.4941	2247.8591	25607.05	24717.6
953.6276	2249.3271	25545.9	24656.2
953.7611	2250.7943	25447.1	24556.85
953.8945	2252.2608	25323.45	24432.65
954.0279	2253.7266	25317.2	24429.85
954.1612	2255.1917	25228.95	24340.25
954.2946	2256.656	25111.5	24221.65
954.4279	2258.1197	25028.8	24142.15
954.5612	2259.5826	24992.4	24101.25
954.6944	2261.0447	24935.4	24044.15
954.8276	2262.5062	24816.65	23928.8
954.9608	2263.9669	24792.85	23902.1
955.094	2265.4269	24697.6	23809.3
955.2271	2266.8862	24604.55	23718.1
955.3602	2268.3448	24584.15	23695.5
955.4933	2269.8026	24510.35	23621.5
955.6264	2271.2598	24427.95	23539.05
955.7594	2272.7162	24336.2	23447.3
955.8924	2274.1719	24270.4	23381.1
956.0253	2275.6268	24200.6	23311.3
956.1583	2277.0811	24138.2	23249.25
956.2912	2278.5346	24066.75	23179.5
956.4241	2279.9874	24009.35	23118.95
956.5569	2281.4395	23961.45	23073.55
956.6897	2282.8908	23819.1	22927.55
956.8225	2284.3414	23812.3	22921.65
956.9553	2285.7914	23704.15	22816.45
957.088	2287.2406	23636.5	22746.2
957.2207	2288.689	23537.1	22649.65
957.3534	2290.1368	23475	22584.15
957.486	2291.5838	23399.05	22508.5
957.6186	2293.0302	23357.1	22467.4
957.7512	2294.4758	23230.45	22340.95
957.8838	2295.9206	23119.35	22226.5
958.0163	2297.3648	23053.4	22164.5
958.1488	2298.8082	23041.8	22153.2
958.2813	2300.251	22944.85	22059.15
958.4137	2301.693	22859.95	21970
958.5461	2303.1343	22859.95	21971.1
958.6785	2304.5748	22780.8	21892.35
958.8108	2306.0147	22688.3	21799.15
958.9432	2307.4538	22605.45	21713.8
959.0754	2308.8922	22525.3	21636.85
959.2077	2310.3299	22477.35	21589.6
959.3399	2311.7669	22394.3	21508.3
959.4721	2313.2031	22316.55	21427.35
959.6043	2314.6387	22188.5	21299.15
959.7365	2316.0735	22111.9	21223.05
959.8686	2317.5076	22079.25	21189.25
960.0006	2318.941	22021.4	21133.4
960.1327	2320.3737	21934.6	21044.75
960.2647	2321.8056	21860.2	20968.7
960.3967	2323.2369	21815.5	20927.05
960.5287	2324.6674	21798.05	20906.1
960.6606	2326.0972	21703.65	20812.3
960.7925	2327.5263	21563.85	20676.7
960.9244	2328.9547	21534.6	20645.8
961.0562	2330.3823	21456.2	20568.25
961.1881	2331.8092	21456.4	20565
961.3198	2333.2355	21365.95	20475.95
961.4516	2334.661	21285.95	20397.05
961.5833	2336.0858	21230.3	20339.85
961.715	2337.5098	21183.65	20295.35
961.8467	2338.9332	21144.3	20255.9
961.9783	2340.3558	21039.6	20147.55
962.1099	2341.7778	20983.6	20092.6
962.2415	2343.199	20894	20005
962.373	2344.6195	20824.15	19937.95
962.5045	2346.0393	20768.7	19880.6
962.636	2347.4583	20740.5	19850.25
962.7675	2348.8767	20635.95	19747.2
962.8989	2350.2943	20579	19689
963.0303	2351.7113	20591.85	19701.5
963.1617	2353.1275	20480.7	19591.3
963.293	2354.543	20417.05	19523.4
963.4243	2355.9578	20378.8	19489.65
963.5556	2357.3718	20221	19333.5
963.6868	2358.7852	20131.6	19241.2
963.818	2360.1978	20072.8	19182.6
963.9492	2361.6098	20024.8	19138.6
964.0803	2363.021	19924.95	19032.7
964.2114	2364.4315	19932.25	19044.5
964.3425	2365.8413	19835.2	18945.7
964.4736	2367.2504	19746.1	18859.7
964.6046	2368.6587	19676.65	18789.85
964.7356	2370.0664	19568.75	18681.25
964.8666	2371.4733	19471.15	18583.5
964.9975	2372.8795	19462.95	18572.95
965.1284	2374.285	19363.7	18476.75
965.2593	2375.6899	19233.65	18347.15
965.3901	2377.0939	19181.95	18293.9
965.5209	2378.4973	19117.35	18229.35
965.6517	2379.9	19051.55	18162.5
965.7825	2381.3019	18994.25	18105.4
965.9132	2382.7032	18942.15	18054.9
966.0439	2384.1037	18905	18018.3
966.1745	2385.5035	18813.4	17923.65
966.3051	2386.9027	18743.6	17856.65
966.4357	2388.3011	18677.45	17786.7
966.5663	2389.6987	18641.2	17752.75
966.6968	2391.0957	18552.4	17665.35
966.8273	2392.492	18466.25	17579.4
966.9578	2393.8876	18367.2	17480.75
967.0882	2395.2824	18293.15	17404.4
967.2186	2396.6765	18203.05	17316.9
967.349	2398.07	18122.5	17235.95
967.4793	2399.4627	18100.1	17210.35
967.6097	2400.8547	18044.75	17158.95
967.7399	2402.246	17956.75	17062.45
967.8702	2403.6366	17891.75	17003.75
968.0004	2405.0265	17809.6	16922.45
968.1306	2406.4156	17759.45	16866.95
968.2607	2407.8041	17685.35	16792.5
968.3909	2409.1918	17608.4	16716.5
968.521	2410.5789	17548.25	16659.45
968.651	2411.9652	17456.7	16564
968.781	2413.3508	17395.1	16504.6
968.911	2414.7358	17335.55	16446.45
969.041	2416.12	17255.15	16366.75
969.1709	2417.5035	17213.85	16328.5
969.3008	2418.8863	17168.4	16278.8
969.4307	2420.2684	17122.05	16235.05
969.5606	2421.6497	17045.05	16154.85
969.6904	2423.0304	16931.75	16044.6
969.8201	2424.4104	16890	15999.15
969.9499	2425.7896	16815.75	15925.35
970.0796	2427.1682	16780.4	15893.35
970.2093	2428.546	16703.45	15815.7
970.3389	2429.9232	16702.3	15814.15
970.4685	2431.2996	16680.95	15793.55
970.5981	2432.6753	16638.75	15750.5
970.7277	2434.0503	16566.05	15678.5
970.8572	2435.4246	16491.5	15604.7
970.9867	2436.7982	16413.85	15523
971.1161	2438.1711	16363.5	15477.35
971.2456	2439.5433	16308.5	15418.95
971.375	2440.9148	16259.85	15367.1
971.5043	2442.2856	16148.65	15259.55
971.6336	2443.6557	16141.35	15250.8
971.7629	2445.025	16077.3	15189.7
971.8922	2446.3937	16034.8	15145.75
972.0214	2447.7617	15968.3	15079.35
972.1506	2449.1289	15940.35	15051.15
972.2798	2450.4955	15900.4	15009.4
972.4089	2451.8613	15823	14935.7
972.538	2453.2265	15783.55	14894.5
972.6671	2454.5909	15751.5	14862.65
972.7961	2455.9546	15701.85	14815.2
972.9251	2457.3177	15617.9	14730.3
973.0541	2458.68	15588.7	14699.45
973.1831	2460.0416	15546.15	14657.8
973.312	2461.4025	15532.5	14643.45
973.4408	2462.7627	15492.6	14591.9
973.5697	2464.1222	15427.45	14539.95
973.6985	2465.4811	15392.75	14505.2
973.8273	2466.8392	15329.65	14441.65
973.956	2468.1966	15269.05	14376.7
974.0847	2469.5533	15256.05	14366.4
974.2134	2470.9093	15228.3	14338.45
974.3421	2472.2645	15145.3	14253.75
974.4707	2473.6191	15106.5	14219.95
974.5993	2474.973	15020.5	14132.45
974.7278	2476.3262	15007	14118.5
974.8563	2477.6787	14977.25	14088.5
974.9848	2479.0305	14868.9	13982.7
975.1132	2480.3816	14841	13951.3
975.2417	2481.7319	14759.6	13870.7
975.37	2483.0816	14680.6	13790.3
975.4984	2484.4306	14638.85	13750
975.6267	2485.7789	14582.85	13694.85
975.755	2487.1264	14512.85	13623
975.8833	2488.4733	14436.05	13549.3
976.0115	2489.8195	14409.6	13508.1
976.1397	2491.165	14334.95	13442.4
976.2678	2492.5097	14305.6	13416.25
976.3959	2493.8538	14205.85	13317.35
976.524	2495.1972	14169.15	13280.6
976.6521	2496.5398	14088.7	13201
976.7801	2497.8818	14076.05	13186.55
976.9081	2499.2231	14028.05	13141.1
977.036	2500.5637	13978.2	13087.95
977.164	2501.9035	13898.2	13006.65
977.2918	2503.2427	13886.4	12995.75
977.4197	2504.5812	13853.45	12964.3
977.5475	2505.919	13826	12937.4
977.6753	2507.256	13787.1	12898.4
977.8031	2508.5924	13709.15	12822
977.9308	2509.9281	13671.35	12775.5
978.0585	2511.2631	13654.75	12766.3
978.1861	2512.5974	13590.15	12702.45
978.3137	2513.9309	13533.85	12645
978.4413	2515.2638	13493	12577.95
978.5689	2516.596	13457.95	12568.15
978.6964	2517.9275	13373.05	12483.3
978.8239	2519.2583	13331.75	12442.75
978.9513	2520.5884	13287.3	12398.1
979.0788	2521.9178	13233.75	12345.35
979.2062	2523.2465	13162.15	12274.65
979.3335	2524.5745	13106.45	12218.8
979.4608	2525.9018	13079.7	12190.25
979.5881	2527.2284	13052.95	12167.3
979.7154	2528.5543	13017.05	12128.35
979.8426	2529.8796	12975.55	12087.7
979.9698	2531.2041	12942.05	12055.25
980.0969	2532.5279	12914.35	12024.6
980.224	2533.851	12885.6	11996.4
980.3511	2535.1735	12829.95	11942.65
980.4781	2536.4952	12796.65	11907.85
980.6052	2537.8163	12780.9	11893.3
980.7321	2539.1366	12738.55	11849.95
980.8591	2540.4562	12689.95	11801.7
980.986	2541.7752	12668.15	11779.9
981.1129	2543.0935	12636.35	11748.85
981.2397	2544.411	12598.05	11708.95
981.3665	2545.7279	12563.7	11677.1
981.4933	2547.0441	12540.3	11653.8
981.62	2548.3596	12515.85	11625.2
981.7467	2549.6744	12497.1	11609.7
981.8734	2550.9885	12431.55	11535.2
982.0001	2552.3019	12387.25	11499.25
982.1267	2553.6146	12372.35	11483.4
982.2532	2554.9266	12295.8	11406.05
982.3798	2556.2379	12275.25	11386.95
982.5063	2557.5485	12281.3	11394.4
982.6327	2558.8585	12225.95	11330.6
982.7592	2560.1677	12236.3	11343.3
982.8856	2561.4762	12164.55	11276.8
983.0119	2562.7841	12146.7	11253.9
983.1383	2564.0913	12109.5	11222.25
983.2646	2565.3977	12088.35	11198.2
983.3908	2566.7035	12050.45	11162.35
983.517	2568.0086	12040.85	11148.95
983.6432	2569.313	12031.3	11141.2
983.7694	2570.6167	11972.2	11080.45
983.8955	2571.9197	11920.55	11033.45
984.0216	2573.222	11939.1	11048.35
984.1476	2574.5236	11881.25	10993.35
984.2737	2575.8246	11842.3	10951.25
984.3996	2577.1248	11820.4	10930.8
984.5256	2578.4244	11804.25	10916.2
984.6515	2579.7232	11783.95	10896.25
984.7774	2581.0214	11756.15	10842.35
984.9032	2582.3189	11740.95	10851.75
985.029	2583.6157	11717.25	10825
985.1548	2584.9118	11667.55	10777.85
985.2806	2586.2072	11620.6	10735.15
985.4063	2587.5019	11595.15	10707.55
985.5319	2588.7959	11579.35	10691.7
985.6576	2590.0893	11559.85	10671.85
985.7832	2591.3819	11512.3	10624.15
985.9087	2592.6739	11424.85	10536.65
986.0343	2593.9652	11422.15	10532.35
986.1597	2595.2557	11371.8	10482.3
986.2852	2596.5456	11340.3	10450.45
986.4106	2597.8348	11297.6	10410.3
986.536	2599.1234	11252.65	10367.5
986.6614	2600.4112	11201.8	10313.8
986.7867	2601.6983	11176.85	10285.65
986.912	2602.9848	11125.55	10236.95
987.0372	2604.2705	11075.8	10179.5
987.1624	2605.5556	11074.75	10186.4
987.2876	2606.84	11037.4	10151.3
987.4128	2608.1237	10972.85	10082.9
987.5379	2609.4067	10927.35	10040.2
987.6629	2610.689	10903.6	10006.4
987.788	2611.9707	10854.75	9963.3
987.913	2613.2516	10823.2	9931.4
988.0379	2614.5319	10769.85	9882.05
988.1629	2615.8115	10720.55	9831.35
988.2878	2617.0903	10674.05	9784.35
988.4126	2618.3685	10650.3	9760.2
988.5375	2619.6461	10601.05	9710.7
988.6622	2620.9229	10572.35	9683.85
988.787	2622.199	10551.55	9662.15
988.9117	2623.4745	10528.55	9639.75
989.0364	2624.7493	10497	9608.4
989.161	2626.0234	10438.2	9551.65
989.2857	2627.2968	10392.3	9505.2
989.4102	2628.5695	10347.05	9458.75
989.5348	2629.8415	10289.95	9402.6
989.6593	2631.1128	10270	9379.45
989.7837	2632.3835	10215	9326.8
989.9082	2633.6535	10190.3	9303.25
990.0326	2634.9228	10139.85	9252.95
990.1569	2636.1914	10116.3	9228.85
990.2812	2637.4593	10096.1	9206.5
990.4055	2638.7265	10035.25	9143.65
990.5298	2639.9931	10010.1	9121.9
990.654	2641.259	9999.05	9108.7
990.7782	2642.5242	9971.55	9083.6
990.9023	2643.7887	9919.9	9031.3
991.0264	2645.0525	9906.55	9020.9
991.1505	2646.3156	9843.7	8954.4
991.2745	2647.5781	9827.1	8940.05
991.3985	2648.8398	9769.4	8882.5
991.5225	2650.1009	9755	8858.85
991.6464	2651.3613	9708.95	8820.45
991.7703	2652.6211	9707.1	8816
991.8942	2653.8801	9646.95	8760.3
992.018	2655.1385	9651.85	8762.4
992.1418	2656.3961	9620.95	8732.25
992.2655	2657.6531	9615.95	8728.15
992.3892	2658.9094	9583.25	8694.9
992.5129	2660.1651	9548	8660.7
992.6366	2661.42	9526.6	8637.5
992.7602	2662.6743	9502.05	8614.1
992.8837	2663.9279	9461.45	8574.4
993.0073	2665.1808	9424.85	8537.5
993.1307	2666.433	9394	8504.5
993.2542	2667.6846	9384.9	8497.95
993.3776	2668.9354	9345.75	8453.65
993.501	2670.1856	9326.85	8437.45
993.6244	2671.4351	9310.3	8423.5
993.7477	2672.6839	9307	8415.95
993.8709	2673.9321	9230.35	8343.2
993.9942	2675.1795	9244.35	8355.5
994.1174	2676.4263	9167.7	8279.1
994.2405	2677.6724	9156.45	8268.75
994.3637	2678.9179	9135.15	8246.95
994.4868	2680.1626	9095.5	8207.05
994.6098	2681.4067	9069.75	8180.4
994.7328	2682.6501	9046.65	8159.35
994.8558	2683.8928	9018.35	8130.05
994.9788	2685.1348	8992	8104.7
995.1017	2686.3761	8942.1	8055.45
995.2245	2687.6168	8900.45	8012.75
995.3474	2688.8568	8899.7	8012
995.4702	2690.0961	8839.85	7953.1
995.5929	2691.3348	8845.65	7954.75
995.7156	2692.5727	8803	7916.95
995.8383	2693.81	8781.7	7893.2
995.961	2695.0466	8745.9	7860.05
996.0836	2696.2826	8743.65	7853
996.2062	2697.5178	8730.9	7839.65
996.3287	2698.7524	8693.75	7805.3
996.4512	2699.9863	8654.9	7765.7
996.5737	2701.2195	8611.4	7724.4
996.6961	2702.452	8590.5	7699.8
996.8185	2703.6839	8568.15	7679.4
996.9408	2704.9151	8533.1	7646.5
997.0631	2706.1456	8516.4	7627.6
997.1854	2707.3755	8490.15	7599.95
997.3077	2708.6046	8472.5	7581.8
997.4299	2709.8331	8440.55	7551.35
997.552	2711.0609	8374.25	7488.7
997.6742	2712.2881	8371.15	7484.45
997.7963	2713.5145	8351.75	7463.05
997.9183	2714.7403	8343.25	7455.75
998.0403	2715.9654	8316.3	7425.75
998.1623	2717.1899	8301.7	7400.5
998.2842	2718.4136	8292.15	7405
998.4062	2719.6367	8271.95	7384.2
998.528	2720.8591	8237.75	7343.3
998.6498	2722.0809	8201.2	7312.25
998.7716	2723.3019	8201.95	7310.85
998.8934	2724.5223	8168.2	7280.55
999.0151	2725.7421	8136.7	7247.05
999.1368	2726.9611	8123.4	7233.5
999.2584	2728.1795	8111.55	7218.8
999.38	2729.3972	8064.5	7177.5
999.5016	2730.6142	8013.9	7115.6
999.6231	2731.8306	7968.8	7081
999.7446	2733.0462	7918.55	7028.85
999.8661	2734.2612	7880.9	6987.2
999.9875	2735.4756	7850.2	6961.35
1000.1089	2736.6892	7797.5	6908.9
1000.2302	2737.9022	7747.65	6861.5
1000.3515	2739.1145	7721.3	6833.5
1000.4728	2740.3262	7693.65	6795.45
1000.594	2741.5372	7646.3	6759.05
1000.7152	2742.7475	7630.7	6742.4
1000.8363	2743.9571	7594.4	6706.25
1000.9575	2745.1661	7546.2	6653.8
1001.0785	2746.3744	7540.05	6650.8
1001.1996	2747.582	7503.3	6614.55
1001.3206	2748.7889	7460.75	6571
1001.4415	2749.9952	7421.35	6535
1001.5625	2751.2008	7417.9	6531
1001.6833	2752.4057	7396.65	6507.05
1001.8042	2753.61	7366.35	6475.65
1001.925	2754.8136	7353.8	6463.8
1002.0458	2756.0165	7320.95	6432.55
1002.1665	2757.2188	7267.3	6380.2
1002.2872	2758.4204	7249.6	6362.95
1002.4078	2759.6213	7234.7	6344.5
1002.5285	2760.8215	7224.9	6332.5
1002.649	2762.0211	7190.6	6302.5
1002.7696	2763.22	7145.95	6256.4
1002.8901	2764.4182	7134.25	6245.8
1003.0106	2765.6158	7117.4	6227.55
1003.131	2766.8127	7090.5	6202.6
1003.2514	2768.009	7070.7	6181.15
1003.3717	2769.2045	7037.05	6147.8
1003.492	2770.3994	7040.85	6150.75
1003.6123	2771.5936	6994.15	6105.8
1003.7325	2772.7872	6990.45	6103.35
1003.8527	2773.9801	6951	6061.2
1003.9729	2775.1723	6930.7	6028.1
1004.093	2776.3639	6888.55	6001.5
1004.2131	2777.5548	6846.5	5957
1004.3331	2778.745	6840.35	5951.55
1004.4531	2779.9346	6808	5920.95
1004.5731	2781.1235	6824.05	5934.4
1004.693	2782.3117	6787.4	5899.6
1004.8129	2783.4992	6773.35	5885
1004.9328	2784.6861	6755.4	5867.4
1005.0526	2785.8723	6737.6	5847.5
1005.1723	2787.0579	6689.3	5799.8
1005.2921	2788.2428	6687.9	5800.55
1005.4118	2789.427	6677.3	5790.25
1005.5314	2790.6106	6663.1	5776.45
1005.651	2791.7935	6640.6	5750.75
1005.7706	2792.9757	6609.9	5723.6
1005.8902	2794.1573	6590.95	5701
1006.0097	2795.3382	6589.15	5701.55
1006.1291	2796.5184	6584.8	5700.1
1006.2485	2797.698	6567.85	5677.4
1006.3679	2798.8769	6560.45	5674.45
1006.4873	2800.0551	6553.3	5666.35
1006.6066	2801.2327	6530.15	5639.5
1006.7258	2802.4096	6546.2	5657.25
1006.8451	2803.5859	6528.35	5639.35
1006.9642	2804.7615	6519.75	5631.55
1007.0834	2805.9364	6518.65	5630.85
1007.2025	2807.1106	6520	5633.8
1007.3216	2808.2842	6530.35	5641.75
1007.4406	2809.4572	6535.3	5646.85
1007.5596	2810.6294	6563.55	5674.05
1007.6785	2811.801	6579.55	5693.65
1007.7975	2812.972	6605.4	5717.7
1007.9163	2814.1423	6624.8	5738.8
1008.0352	2815.3119	6653.2	5765.75
1008.154	2816.4808	6670.55	5784.65
1008.2727	2817.6491	6699.1	5811.25
1008.3914	2818.8167	6724.9	5837.3
1008.5101	2819.9837	6795	5901.9
1008.6288	2821.15	6770.75	5880.95
1008.7474	2822.3157	6794.55	5907.9
1008.8659	2823.4807	6850.25	5962.25
1008.9844	2824.645	6853.05	5962.95
1009.1029	2825.8086	6873.85	5986.8
1009.2214	2826.9716	6910.45	6023.15
1009.3398	2828.134	6945.2	6057.55
1009.4581	2829.2957	6952.8	6065.7
1009.5764	2830.4567	6967.85	6081.45
1009.6947	2831.617	6959.1	6071.65
1009.813	2832.7767	6977.55	6089.95
1009.9312	2833.9358	6966.2	6080
1010.0493	2835.0941	6959.2	6069.3
1010.1675	2836.2519	6913.6	6026.35
1010.2855	2837.4089	6887.4	5999
1010.4036	2838.5653	6877.25	5989.2
1010.5216	2839.7211	6867	5981.25
1010.6396	2840.8761	6841.7	5953.7
1010.7575	2842.0306	6852.45	5964.95
1010.8754	2843.1843	6859.15	5973.1
1010.9932	2844.3374	6895	6008
1011.111	2845.4899	6940.75	6051.95
1011.2288	2846.6417	6969.7	6082.75
1011.3465	2847.7928	7053.1	6166.25
1011.4642	2848.9433	7096.75	6209.55
1011.5818	2850.0931	7142.85	6258.05
1011.6995	2851.2422	7193.25	6305
1011.817	2852.3907	7259	6371.05
1011.9345	2853.5385	7297.05	6405.9
1012.052	2854.6857	7352.95	6439.6
1012.1695	2855.8323	7366.4	6480.45
1012.2869	2856.9781	7394.4	6509.05
1012.4042	2858.1233	7404	6516.4
1012.5216	2859.2679	7410.65	6521.3
1012.6389	2860.4118	7471.3	6581.8
1012.7561	2861.555	7498.9	6606.05
1012.8733	2862.6976	7505.65	6615.9
1012.9905	2863.8395	7511.3	6626.65
1013.1076	2864.9808	7508.3	6620.75
1013.2247	2866.1214	7515.8	6630.8
1013.3417	2867.2614	7526.05	6637.8
1013.4587	2868.4007	7497	6607.25
1013.5757	2869.5393	7476.4	6586
1013.6926	2870.6773	7490.15	6598.65
1013.8095	2871.8146	7469.75	6578.8
1013.9263	2872.9513	7461	6572
1014.0431	2874.0874	7435.85	6548.7
1014.1599	2875.2227	7445.9	6559.15
1014.2766	2876.3574	7391.55	6505.25
1014.3933	2877.4915	7369.45	6482.6
1014.51	2878.6249	7295.1	6407.95
1014.6266	2879.7577	7263.9	6374.45
1014.7431	2880.8898	7218	6318.6
1014.8596	2882.0212	7194.45	6307.85
1014.9761	2883.152	7147.75	6260.55
1015.0925	2884.2821	7122.9	6237.15
1015.2089	2885.4116	7098.05	6210.2
1015.3253	2886.5405	7085.85	6198.25
1015.4416	2887.6686	7083.85	6192.05
1015.5579	2888.7962	7060.6	6173.55
1015.6741	2889.923	7050.1	6164.1
1015.7903	2891.0493	7040.6	6155.3
1015.9065	2892.1748	7041.9	6154.65
1016.0226	2893.2997	7025.25	6135.4
1016.1387	2894.424	7015.85	6129.5
1016.2547	2895.5476	7019.55	6130.9
1016.3707	2896.6706	7030.8	6143.95
1016.4866	2897.7929	7039.75	6151.25
1016.6025	2898.9145	7038.8	6152.1
1016.7184	2900.0355	7036.55	6149.55
1016.8342	2901.1559	7086.6	6197.4
1016.95	2902.2756	7089	6201.05
1017.0658	2903.3946	7084.4	6197.15
1017.1815	2904.513	7094.65	6203.2
1017.2971	2905.6308	7106.5	6218.45
1017.4127	2906.7479	7118.45	6230.4
1017.5283	2907.8643	7107.1	6219.35
1017.6439	2908.9801	7123.7	6235.65
1017.7594	2910.0953	7102.5	6215.1
1017.8748	2911.2098	7072.35	6182.3
1017.9902	2912.3236	7063.35	6168.9
1018.1056	2913.4368	7056.6	6166.35
1018.2209	2914.5494	7002.35	6114.85
1018.3362	2915.6613	6972.25	6077.75
1018.4515	2916.7725	6943.3	6053.2
1018.5667	2917.8831	6877.3	5990.35
1018.6819	2918.9931	6848.9	5959.8
1018.797	2920.1024	6799.15	5910.6
1018.9121	2921.211	6779.95	5893.5
1019.0271	2922.319	6758.15	5871.05
1019.1421	2923.4264	6721.65	5832.55
1019.2571	2924.5331	6685.6	5798
1019.372	2925.6391	6666.8	5778.8
1019.4869	2926.7445	6642.2	5755.85
1019.6017	2927.8493	6624.15	5738.5
1019.7165	2928.9534	6612.15	5724.8
1019.8313	2930.0569	6588.4	5697.55
1019.946	2931.1597	6567	5677.1
1020.0606	2932.2619	6536.75	5649.55
1020.1753	2933.3634	6563.75	5677.3
1020.2899	2934.4643	6545.35	5651.2
1020.4044	2935.5645	6507.15	5614.6
1020.5189	2936.6641	6453.3	5560.25
1020.6334	2937.763	6398.35	5510
1020.7478	2938.8613	6343.05	5455
1020.8622	2939.959	6287.75	5393.7
1020.9765	2941.056	6209	5321.15
1021.0908	2942.1523	6101.7	5212.05
1021.2051	2943.248	6022.85	5135.95
1021.3193	2944.3431	5937.05	5048.55
1021.4334	2945.4375	5818.55	4929.15
1021.5476	2946.5313	5705.4	4819.6
1021.6617	2947.6244	5592.45	4704.4
1021.7757	2948.7169	5480.35	4592.65
1021.8897	2949.8087	5395.2	4510
1022.0037	2950.8999	5291.6	4405.65
1022.1176	2951.9904	5191.5	4304.75
1022.2315	2953.0803	5105.15	4217.65
1022.3453	2954.1696	5044.45	4154.95
1022.4591	2955.2582	4981.75	4095
1022.5728	2956.3462	4914.55	4026
1022.6865	2957.4335	4871.4	3984.4
1022.8002	2958.5202	4817.4	3927.75
1022.9138	2959.6062	4769.25	3881.7
1023.0274	2960.6916	4755	3868.65
1023.141	2961.7764	4719	3830.9
1023.2545	2962.8605	4685.8	3796.8
1023.3679	2963.9439	4664.65	3777.35
1023.4813	2965.0267	4630.75	3742.45
1023.5947	2966.1089	4644.5	3735.1
1023.708	2967.1905	4601	3713.7
1023.8213	2968.2714	4577	3691
1023.9346	2969.3516	4576.8	3688.65
1024.0478	2970.4312	4560.6	3664.1
1024.1609	2971.5102	4555.2	3667.4
1024.274	2972.5885	4534.1	3646.7
1024.3871	2973.6662	4541.75	3648.35
1024.5002	2974.7432	4515.85	3630.1
1024.6132	2975.8196	4498.15	3610
1024.7261	2976.8954	4477.5	3591.2
1024.839	2977.9705	4440.05	3553.4
1024.9519	2979.045	4436.95	3551.15
1025.0647	2980.1188	4392.45	3503.1
1025.1775	2981.192	4375.6	3488.45
1025.2902	2982.2645	4336.8	3448.85
1025.4029	2983.3364	4310.65	3423
1025.5156	2984.4077	4279.75	3393
1025.6282	2985.4783	4234.1	3340.7
1025.7407	2986.5483	4173.8	3287.7
1025.8532	2987.6177	4138.85	3253.35
1025.9657	2988.6864	4115.85	3228.55
1026.0782	2989.7545	4069.25	3180.1
1026.1906	2990.8219	4011.95	3122.1
1026.3029	2991.8887	3984.55	3093.05
1026.4152	2992.9548	3951.5	3063.45
1026.5275	2994.0204	3906.65	3018.55
1026.6397	2995.0852	3882.1	2998.6
1026.7519	2996.1495	3835.2	2947.2
1026.864	2997.2131	3815.55	2929.35
1026.9761	2998.276	3787.4	2899.85
1027.0882	2999.3383	3758.45	2868.5
1027.2002	3000.4	3726.2	2838.3
1027.3122	3001.4611	3687.7	2799.25
1027.4241	3002.5215	3669.85	2782.05
1027.536	3003.5812	3651	2763.45
1027.6478	3004.6404	3618.1	2729.5
1027.7596	3005.6989	3614.1	2725.5
1027.8714	3006.7567	3583.9	2696.55
1027.9831	3007.8139	3595.6	2688
1028.0947	3008.8705	3558.85	2671.1
1028.2064	3009.9264	3543.95	2653.4
1028.3179	3010.9818	3525.1	2637.2
1028.4295	3012.0364	3521.35	2633.85
1028.541	3013.0905	3515.55	2628.15
1028.6524	3014.1439	3505.8	2617.65
1028.7638	3015.1966	3480.3	2593.15
1028.8752	3016.2487	3464.1	2577.4
1028.9865	3017.3002	3454.75	2560.75
1029.0978	3018.3511	3465.05	2576.7
1029.209	3019.4013	3464.85	2577.45
1029.3202	3020.4509	3432.3	2544.55
1029.4314	3021.4998	3428.95	2542.75
1029.5425	3022.5481	3420.45	2532.6
1029.6535	3023.5958	3414.45	2525.65
1029.7645	3024.6428	3396.25	2506.8
1029.8755	3025.6892	3381.95	2495.75
1029.9864	3026.735	3397	2509.95
1030.0973	3027.7802	3375.4	2489.8
1030.2082	3028.8247	3375.4	2487.9
1030.319	3029.8685	3343.95	2455.7
1030.4297	3030.9118	3351	2462.15
1030.5404	3031.9544	3328.05	2442.3
1030.6511	3032.9963	3341.05	2451.45
1030.7617	3034.0376	3330.1	2442.2
1030.8723	3035.0783	3321.85	2430.25
1030.9829	3036.1184	3307.5	2418.8
1031.0934	3037.1578	3323.9	2437.9
1031.2038	3038.1966	3291.5	2403.45
1031.3142	3039.2348	3295.4	2409.1
1031.4246	3040.2723	3285.55	2390.05
1031.5349	3041.3092	3271.1	2384.2
1031.6452	3042.3455	3268.5	2381.25
1031.7554	3043.3811	3253.15	2365.35
1031.8656	3044.4161	3247.75	2358.65
1031.9758	3045.4505	3226.7	2340.7
1032.0859	3046.4842	3222.8	2335.4
1032.1959	3047.5173	3218.3	2332.25
1032.3059	3048.5498	3203.8	2317.7
1032.4159	3049.5816	3168.65	2280.95
1032.5258	3050.6128	3166.45	2278.5
1032.6357	3051.6434	3171.9	2283.65
1032.7455	3052.6734	3154.3	2266.05
1032.8553	3053.7027	3139.75	2252
1032.9651	3054.7314	3113.75	2227.9
1033.0748	3055.7594	3103.45	2218.3
1033.1845	3056.7868	3104.3	2214.6
1033.2941	3057.8136	3080.3	2193.4
1033.4037	3058.8398	3061.65	2175.15
1033.5132	3059.8653	3052.2	2165.6
1033.6227	3060.8902	3043.3	2155.8
1033.7321	3061.9145	3024.9	2136.5
1033.8415	3062.9381	3026.25	2139.15
1033.9509	3063.9612	3024.65	2121.35
1034.0602	3064.9835	2997.8	2110.25
1034.1694	3066.0053	2976	2085.8
1034.2787	3067.0264	2965.3	2077.2
1034.3878	3068.0469	2960.15	2071.35
1034.497	3069.0668	2959.85	2071.25
1034.6061	3070.086	2932.15	2043.45
1034.7151	3071.1046	2927.35	2040.2
1034.8241	3072.1226	2914.8	2026.5
1034.9331	3073.1399	2882.6	1995.95
1035.042	3074.1567	2874.65	1989
1035.1508	3075.1727	2855.75	1967.8
1035.2597	3076.1882	2828.5	1942
1035.3684	3077.203	2823.9	1938.1
1035.4772	3078.2173	2814	1926
1035.5859	3079.2308	2808.35	1917
1035.6945	3080.2438	2784.95	1895.75
1035.8031	3081.2561	2779	1889.6
1035.9117	3082.2678	2762.35	1876.05
1036.0202	3083.2789	2756.3	1868.15
1036.1286	3084.2893	2752.9	1867.7
1036.2371	3085.2991	2716.8	1828.7
1036.3454	3086.3083	2709.1	1817.55
1036.4538	3087.3169	2700.45	1811.65
1036.562	3088.3248	2690.75	1801.95
1036.6703	3089.3321	2682.95	1796
1036.7785	3090.3388	2672	1786.1
1036.8866	3091.3449	2659.45	1771.65
1036.9948	3092.3503	2644.7	1756.4
1037.1028	3093.3551	2635.4	1751.45
1037.2108	3094.3593	2622.5	1737.15
1037.3188	3095.3629	2612.8	1725
1037.4267	3096.3658	2603.5	1714.85
1037.5346	3097.3681	2598.6	1712.9
1037.6425	3098.3698	2582.4	1693.15
1037.7503	3099.3708	2580.35	1685.5
1037.858	3100.3713	2557.4	1669.25
1037.9657	3101.3711	2551.65	1664.5
1038.0734	3102.3702	2651.8	1626.8
1038.181	3103.3688	2556.8	1666.05
1038.2886	3104.3667	2519.15	1633.5
1038.3961	3105.364	2517.4	1629.85
1038.5036	3106.3607	2496.15	1608.75
1038.611	3107.3568	2496.45	1607.6
1038.7184	3108.3522	2486.85	1600.4
1038.8257	3109.347	2467.5	1579.25
1038.933	3110.3412	2465.85	1575.55
1039.0403	3111.3348	2464.85	1575.85
1039.1475	3112.3277	2438.6	1551.95
1039.2547	3113.32	2437.8	1550.7
1039.3618	3114.3117	2435.8	1548
1039.4689	3115.3028	2424.15	1537.15
1039.5759	3116.2932	2412.75	1523.3
1039.6829	3117.2831	2410.9	1518.8
1039.7898	3118.2723	2395.7	1510.25
1039.8967	3119.2608	2390.45	1503.9
1040.0035	3120.2488	2387	1500.9
1040.1103	3121.2361	2360.7	1470.4
1040.2171	3122.2229	2354.35	1467
1040.3238	3123.209	2351.1	1461.45
1040.4305	3124.1944	2353.1	1466.2
1040.5371	3125.1793	2342.75	1452.4
1040.6437	3126.1635	2331.35	1443.75
1040.7502	3127.1471	2316.2	1431.1
1040.8567	3128.1301	2314.55	1427.95
1040.9631	3129.1125	2310.05	1424.35
1041.0695	3130.0942	2301	1415
1041.1759	3131.0753	2298.7	1403.4
1041.2822	3132.0558	2285.75	1395.6
1041.3884	3133.0357	2273.85	1385.05
1041.4946	3134.015	2275.7	1389.45
1041.6008	3134.9936	2268.15	1381.3
1041.7069	3135.9716	2274.95	1365.6
1041.813	3136.949	2263.1	1375
1041.919	3137.9258	2247.45	1354.15
1042.025	3138.902	2250.1	1354.75
1042.1309	3139.8775	2240.9	1355
1042.2368	3140.8524	2224.9	1337.85
1042.3427	3141.8267	2223.9	1335.85
1042.4485	3142.8004	2221.45	1334.9
1042.5542	3143.7735	2216.75	1326.05
1042.6599	3144.7459	2217.45	1329.9
1042.7656	3145.7178	2206.85	1317.9
1042.8712	3146.689	2193.15	1305.55
1042.9768	3147.6596	2194.35	1306.5
1043.0823	3148.6295	2171.2	1282.85
1043.1878	3149.5989	2177.15	1290.6
1043.2932	3150.5676	2161.15	1273.9
1043.3986	3151.5357	2160.7	1274.25
1043.5039	3152.5032	2141.25	1257.35
1043.6092	3153.4701	2153.4	1266.35
1043.7145	3154.4364	2133.5	1243.1
1043.8197	3155.402	2124.7	1237.85
1043.9248	3156.367	2134.1	1246.8
1044.03	3157.3315	2154.7	1223.25
1044.135	3158.2952	2121.35	1234.05
1044.24	3159.2584	2094.75	1210.7
1044.345	3160.221	2079.25	1191.65
1044.4499	3161.1829	2096.2	1211.15
1044.5548	3162.1442	2067.75	1181.45
1044.6596	3163.105	2069.4	1184.35
1044.7644	3164.065	2064.65	1178.6
1044.8692	3165.0245	2065.15	1174.9
1044.9739	3165.9834	2048.2	1161.55
1045.0785	3166.9416	2038.75	1152.2
1045.1831	3167.8993	2044.8	1157.45
1045.2877	3168.8563	2033.85	1145.3
1045.3922	3169.8127	2018.1	1132.95
1045.4966	3170.7684	2021.45	1133.8
1045.6011	3171.7236	2019.5	1135.2
1045.7054	3172.6782	2003.8	1116.75
1045.8098	3173.6321	2009.65	1121.45
1045.914	3174.5854	2004.95	1111.7
1046.0183	3175.5381	1989.4	1103.25
1046.1224	3176.4902	1987.5	1101.1
1046.2266	3177.4417	1969.4	1083.1
1046.3307	3178.3926	1972.05	1084.1
1046.4347	3179.3428	1956.4	1071
1046.5387	3180.2924	1949.9	1062
1046.6427	3181.2415	1957.95	1072.55
1046.7466	3182.1899	1945	1056.5
1046.8504	3183.1377	1935.9	1048.7
1046.9542	3184.0848	1934.35	1044.2
1047.058	3185.0314	1930.6	1043.2
1047.1617	3185.9773	1921.2	1034.15
1047.2654	3186.9227	1917.3	1030.9
1047.369	3187.8674	1911.95	1024.45
1047.4726	3188.8115	1899.55	1008.8
1047.5761	3189.755	1900.75	1013.9
1047.6796	3190.6979	1898.55	1013.05
1047.783	3191.6402	1895.95	1008.5
1047.8864	3192.5818	1893.3	1008.45
1047.9898	3193.5229	1899.65	988.9
1048.0931	3194.4633	1876.3	988.35
1048.1963	3195.4031	1877.95	991.1
1048.2995	3196.3423	1864.75	978.9
1048.4027	3197.2809	1870.45	982.95
1048.5058	3198.2189	1864.25	975.95
1048.6089	3199.1563	1866.3	972.25
1048.7119	3200.0931	1842.15	957
1048.8148	3201.0292	1838.75	951.35
1048.9178	3201.9648	1837.3	949.95
1049.0206	3202.8997	1829.85	939.1
1049.1235	3203.834	1819.55	933
1049.2262	3204.7677	1822.95	937.5
1049.329	3205.7008	1819.95	933.1
1049.4317	3206.6333	1810.45	925.6
1049.5343	3207.5652	1811.35	922.95
1049.6369	3208.4964	1809.7	921.15
1049.7394	3209.4271	1794.6	909.25
1049.8419	3210.3571	1795.8	908.8
1049.9444	3211.2865	1787.5	899.65
1050.0468	3212.2154	1783.75	896.55
1050.1491	3213.1436	1786.6	897.1
1050.2514	3214.0712	1782.75	890.35
1050.3537	3214.9982	1772.65	886
1050.4559	3215.9246	1762.2	873.85
1050.5581	3216.8503	1760.35	871.45
1050.6602	3217.7755	1758.35	869.45
1050.7623	3218.7001	1755.3	868.1
1050.8643	3219.624	1752.6	865.9
1050.9663	3220.5473	1754.4	866.8
1051.0682	3221.4701	1735.1	847.75
1051.1701	3222.3922	1739.45	850.25
1051.2719	3223.3137	1729.25	842.3
1051.3737	3224.2346	1726	839.25
1051.4754	3225.1549	1725.75	838.2
1051.5771	3226.0746	1715.65	830.5
1051.6788	3226.9937	1719.65	833.6
1051.7804	3227.9121	1707.45	819.65
1051.8819	3228.83	1705.95	821.15
1051.9834	3229.7473	1706.9	819.3
1052.0849	3230.6639	1698.5	813.5
1052.1863	3231.5799	1693.85	807.55
1052.2876	3232.4954	1689.35	802.9
1052.3889	3233.4102	1687.45	800.6
1052.4902	3234.3244	1674.9	787.75
1052.5914	3235.238	1671	785.05
1052.6926	3236.151	1687.85	778.1
1052.7937	3237.0634	1668.45	783.45
1052.8948	3237.9752	1666.4	780.2
1052.9958	3238.8864	1662.4	775.95
1053.0968	3239.797	1649.3	763.25
1053.1977	3240.7069	1643.95	757.05
1053.2986	3241.6163	1647.05	759.3
1053.3994	3242.5251	1632.05	746.5
1053.5002	3243.4332	1641.5	755.9
1053.6009	3244.3408	1631.25	744.6
1053.7016	3245.2477	1623.75	737.95
1053.8022	3246.154	1620.4	731.4
1053.9028	3247.0598	1613.8	726.25
1054.0034	3247.9649	1607.45	720.3
1054.1039	3248.8694	1605.9	719.05
1054.2043	3249.7733	1600.8	715.25
1054.3047	3250.6766	1598.8	712.7
1054.4051	3251.5793	1592.65	705.95
1054.5054	3252.4814	1588.9	705.3
1054.6056	3253.3829	1579.3	693
1054.7058	3254.2838	1583.05	697.5
1054.806	3255.1841	1574.65	688.8
1054.9061	3256.0838	1565.35	678
1055.0061	3256.9829	1563.1	677.05
1055.1062	3257.8814	1565.7	677
1055.2061	3258.7792	1555.2	664.45
1055.306	3259.6765	1542.7	655.25
1055.4059	3260.5731	1534.05	647.85
1055.5057	3261.4692	1533.85	648.5
1055.6055	3262.3647	1529.85	643.65
1055.7052	3263.2595	1515.3	630.3
1055.8049	3264.1538	1505.45	617.75
1055.9045	3265.0474	1495.5	609.2
1056.0041	3265.9404	1486.15	599.4
1056.1036	3266.8329	1477.5	591
1056.2031	3267.7247	1473.05	576.55
1056.3025	3268.616	1456.9	569.8
1056.4019	3269.5066	1436.7	550
1056.5013	3270.3966	1424.2	535.15
1056.6005	3271.286	1403.3	518.75
