Software Version:	3.9.2.0
Unit SN:	10000200
Spectrometer SN:	6960
Date:	3/6/2024 10:28:44 AM
Data Line Index:	25
Spectral Points:	2048
Integration time (ms):	125
Averages:	20
Delay (ms):	30
Sequence Number:	1
Processing:	dark subtract
Laser Power (mW):	300
Laser Current (mA):	826
Laser Diode Temp (C):	25.1
Laser Case Temp (C):	26.1
System Temp (C):	25.9
Spectrometer Temp (C):	23.3
CCD Temp (C):	0.002
Secondary Temp (C):	20.006
Heatsink Temp (C):	21.405
CCDPCB Temp (C):	35.84
SecondaryPCB Temp (C):	29.271

Wavelength	RamanShift	Raw Counts	Dark Subtracted
787.061	30.1047	1092.65	678.9
787.2016	32.3739	1118.85	708.25
787.3422	34.6426	1169.05	758.65
787.4828	36.9109	1208.25	795.55
787.6235	39.1787	1262.65	846.3
787.7642	41.4461	1329.15	908.05
787.9049	43.7131	1382.2	956.05
788.0456	45.9796	1447.25	1019.7
788.1863	48.2456	1507.35	1075.7
788.3271	50.5112	1569.2	1132.1
788.4679	52.7764	1635.3	1197.65
788.6087	55.0411	1708.65	1268.4
788.7496	57.3054	1786.85	1340.8
788.8904	59.5692	1878.05	1429.45
789.0313	61.8326	1965.25	1513.6
789.1722	64.0955	2064.1	1607.95
789.3132	66.3579	2183.5	1721.35
789.4541	68.6199	2332.1	1867.25
789.5951	70.8815	2563.35	2096.3
789.7361	73.1426	3087.1	2616.1
789.8771	75.4032	4374.2	3894.85
790.0181	77.6634	7696.2	7214.5
790.1592	79.9231	16398.95	15910.75
790.3003	82.1824	52416.1	51914.65
790.4414	84.4412	65535	65013.7
790.5825	86.6995	65535	64981.55
790.7237	88.9574	65535	64957.9
790.8648	91.2148	65535	64938.6
791.006	93.4717	65535	64930.2
791.1472	95.7282	65535	64921.55
791.2885	97.9842	65535	64918
791.4297	100.2398	65535	64914.6
791.571	102.4949	65535	64911.2
791.7123	104.7495	65535	64904.7
791.8536	107.0036	65535	64908.35
791.9949	109.2573	65535	64911.45
792.1363	111.5105	65535	64906.75
792.2777	113.7632	65535	64905.2
792.4191	116.0154	65535	64892.4
792.5605	118.2672	65535	64900.6
792.7019	120.5185	65535	64898.9
792.8434	122.7693	65535	64894.8
792.9849	125.0197	65535	64892.5
793.1264	127.2696	65535	64883.9
793.2679	129.519	65535	64884.5
793.4094	131.7679	65535	64880.85
793.551	134.0163	65535	64878.1
793.6926	136.2642	65535	64876.05
793.8342	138.5117	65535	64866.95
793.9758	140.7587	65535	64871.05
794.1175	143.0052	65535	64868
794.2591	145.2512	65535	64867.95
794.4008	147.4967	65535	64867.3
794.5425	149.7417	65535	64861.9
794.6842	151.9863	65535	64862.15
794.826	154.2304	65535	64857.9
794.9677	156.4739	65535	64853.55
795.1095	158.717	65535	64855.85
795.2513	160.9596	65535	64849.1
795.3931	163.2017	65535	64846.65
795.535	165.4433	65535	64846
795.6768	167.6844	65535	64841.75
795.8187	169.925	65535	64844.25
795.9606	172.1651	65535	64836.85
796.1025	174.4047	65535	64830.45
796.2445	176.6439	65535	64836
796.3864	178.8825	65535	64826.45
796.5284	181.1206	65535	64827.05
796.6704	183.3582	65535	64817.75
796.8124	185.5954	65535	64820.5
796.9544	187.832	65535	64814.85
797.0965	190.0681	65535	64813.35
797.2386	192.3037	65535	64813.15
797.3806	194.5388	65535	64806.55
797.5228	196.7734	65535	64808.3
797.6649	199.0075	65535	64803.3
797.807	201.2411	65535	64797.95
797.9492	203.4742	65535	64804.75
798.0914	205.7068	65535	64801.25
798.2336	207.9389	65535	64794.8
798.3758	210.1704	65535	64794.3
798.518	212.4015	65535	64801.25
798.6603	214.632	65535	64809.8
798.8025	216.862	65535	64814.15
798.9448	219.0915	65535	64815.9
799.0871	221.3205	65535	64813
799.2294	223.549	65535	64816.95
799.3718	225.777	65535	64817.8
799.5141	228.0044	65535	64811.3
799.6565	230.2314	65535	64812.05
799.7989	232.4578	65535	64809
799.9413	234.6837	65535	64798.25
800.0837	236.909	65535	64798.85
800.2262	239.1339	65535	64774.65
800.3687	241.3582	65535	64788.05
800.5111	243.582	65535	64756.1
800.6536	245.8053	65535	64772.75
800.7961	248.0281	65535	64775.6
800.9387	250.2503	65535	64771.3
801.0812	252.472	65535	64770.55
801.2238	254.6932	65535	64767.9
801.3664	256.9139	65535	64771.45
801.509	259.134	65535	64763.7
801.6516	261.3536	65535	64763.35
801.7942	263.5727	65535	64763.85
801.9369	265.7912	65535	64765.15
802.0795	268.0092	65535	64762.75
802.2222	270.2267	65535	64761.5
802.3649	272.4436	65535	64765.1
802.5076	274.6601	65535	64750.65
802.6504	276.8759	65535	64759.35
802.7931	279.0913	65535	64753.75
802.9359	281.3061	65535	64753.7
803.0787	283.5204	65535	64752.1
803.2215	285.7341	65535	64747.65
803.3643	287.9473	65535	64736
803.5071	290.16	65535	64743
803.6499	292.3721	65535	64750.95
803.7928	294.5837	65535	64749.15
803.9357	296.7947	65535	64748.35
804.0786	299.0052	65535	64749.75
804.2215	301.2152	65535	64744.3
804.3644	303.4246	65535	64745
804.5074	305.6334	65535	64749.8
804.6503	307.8418	65535	64743.45
804.7933	310.0495	65535	64745.5
804.9363	312.2568	65535	64741.35
805.0793	314.4635	65535	64740.4
805.2223	316.6696	65535	64739.8
805.3653	318.8752	65535	64727.9
805.5084	321.0802	65535	64738.25
805.6514	323.2847	65535	64736.15
805.7945	325.4887	65535	64733.65
805.9376	327.692	65535	64735.1
806.0807	329.8949	65535	64736.3
806.2238	332.0972	65535	64731.85
806.367	334.2989	65535	64725.45
806.5101	336.5001	65535	64730.85
806.6533	338.7007	65535	64727.55
806.7965	340.9008	65535	64726.55
806.9397	343.1003	65535	64723.75
807.0829	345.2992	65535	64723.15
807.2261	347.4976	65535	64722.6
807.3693	349.6955	65535	64714.05
807.5126	351.8927	65535	64715.85
807.6559	354.0895	65535	64706.95
807.7991	356.2856	65535	64713.85
807.9424	358.4812	65535	64715.1
808.0857	360.6763	65535	64715.15
808.2291	362.8707	65535	64712.05
808.3724	365.0646	65535	64710.15
808.5158	367.258	65535	64709.95
808.6591	369.4508	65535	64702.8
808.8025	371.643	65535	64706.45
808.9459	373.8346	65535	64705.45
809.0893	376.0257	65535	64700.8
809.2327	378.2162	65535	64701.95
809.3762	380.4062	65535	64703.35
809.5196	382.5956	65535	64702.55
809.6631	384.7844	65535	64706.2
809.8066	386.9726	65535	64708.15
809.9501	389.1603	65535	64709.25
810.0936	391.3474	65535	64666.45
810.2371	393.5339	65535	64709
810.3806	395.7199	65535	64710.25
810.5241	397.9052	65535	64710.8
810.6677	400.09	65535	64708.7
810.8113	402.2743	65535	64706.95
810.9548	404.4579	65535	64707.65
811.0984	406.641	65535	64702.65
811.2421	408.8235	65535	64700.9
811.3857	411.0054	65535	64704.2
811.5293	413.1868	65535	64696.8
811.673	415.3675	65535	64695.3
811.8166	417.5477	65535	64694.45
811.9603	419.7273	65535	64690.3
812.104	421.9064	65535	64682.95
812.2477	424.0848	65535	64688.8
812.3914	426.2627	65535	64692.85
812.5351	428.4399	65535	64687.6
812.6788	430.6166	65535	64686.5
812.8226	432.7928	65535	64687.45
812.9663	434.9683	65535	64683.65
813.1101	437.1432	65535	64685.6
813.2539	439.3176	65535	64687.4
813.3977	441.4914	65535	64686.85
813.5415	443.6645	65535	64685.05
813.6853	445.8371	65535	64683
813.8291	448.0091	65535	64683.65
813.973	450.1806	65535	64683.1
814.1168	452.3514	65535	64681.85
814.2607	454.5216	65535	64673.5
814.4046	456.6913	65535	64679.15
814.5485	458.8603	65535	64680.1
814.6924	461.0288	65535	64685.6
814.8363	463.1967	65535	64686.2
814.9802	465.3639	65535	64681.65
815.1241	467.5306	65535	64682.9
815.2681	469.6967	65535	64682.6
815.412	471.8622	65535	64682.25
815.556	474.0271	65535	64680.6
815.7	476.1914	65535	64678.6
815.844	478.3551	65535	64680.35
815.988	480.5182	65535	64675.45
816.132	482.6807	65535	64680.85
816.276	484.8426	65535	64681.7
816.4201	487.0039	65535	64680
816.5641	489.1647	65535	64677.45
816.7082	491.3248	65535	64674.85
816.8522	493.4843	65535	64675.35
816.9963	495.6432	65535	64675.65
817.1404	497.8015	65535	64671.9
817.2845	499.9592	65535	64670.15
817.4286	502.1163	65535	64674
817.5727	504.2728	65535	64671.35
817.7168	506.4287	65535	64678.2
817.861	508.5839	65535	64672.55
818.0051	510.7386	65535	64671.35
818.1493	512.8927	65535	64669.05
818.2935	515.0461	65535	64670.3
818.4377	517.199	65535	64668.15
818.5818	519.3512	65535	64670.05
818.726	521.5029	65535	64663.15
818.8703	523.6539	65535	64667.65
819.0145	525.8043	65535	64666.35
819.1587	527.9541	65535	64666.8
819.303	530.1033	65535	64666.25
819.4472	532.2519	65535	64667.65
819.5915	534.3999	65535	64666.15
819.7357	536.5472	65535	64666.75
819.88	538.694	65535	64664.15
820.0243	540.8401	65535	64659.85
820.1686	542.9856	65535	64659.4
820.3129	545.1305	65535	64656.9
820.4572	547.2748	65535	64657.55
820.6016	549.4185	65535	64657.85
820.7459	551.5615	65535	64657.95
820.8902	553.704	65535	64659.15
821.0346	555.8458	65535	64661.9
821.1789	557.987	65535	64658.4
821.3233	560.1276	65535	64657.05
821.4677	562.2675	65535	64661.6
821.6121	564.4069	65535	64663.55
821.7565	566.5456	65535	64663.75
821.9009	568.6837	65535	64662.6
822.0453	570.8212	65535	64663.35
822.1897	572.958	65535	64659.9
822.3342	575.0942	65535	64661.35
822.4786	577.2299	65535	64659.5
822.6231	579.3648	65535	64660.65
822.7675	581.4992	65535	64664.65
822.912	583.6329	65535	64666.3
823.0565	585.766	65535	64660.95
823.201	587.8985	65535	64664.4
823.3454	590.0304	65535	64634.6
823.4899	592.1616	65535	64654.4
823.6345	594.2922	65535	64658.55
823.779	596.4222	65535	64653.75
823.9235	598.5515	65535	64653.4
824.068	600.6802	65535	64655.7
824.2126	602.8083	65535	64653.1
824.3571	604.9358	65535	64653.05
824.5017	607.0626	65535	64650.05
824.6462	609.1888	65535	64649.15
824.7908	611.3144	65535	64650.8
824.9354	613.4393	65535	64652.2
825.08	615.5636	65535	64654.1
825.2246	617.6873	65535	64652.4
825.3692	619.8103	65535	64645.65
825.5138	621.9327	65535	64652.55
825.6584	624.0544	65535	64653.8
825.803	626.1756	65535	64651.05
825.9477	628.2961	65535	64649.1
826.0923	630.4159	65535	64648.15
826.237	632.5351	65535	64649.8
826.3816	634.6537	65535	64649.95
826.5263	636.7716	65535	64646.9
826.6709	638.8889	65535	64648.7
826.8156	641.0056	65535	64646.55
826.9603	643.1216	65535	64647.2
827.105	645.237	65535	64644.75
827.2497	647.3518	65535	64650.85
827.3944	649.4659	65535	64650.75
827.5391	651.5793	65535	64648.1
827.6838	653.6922	65535	64646.75
827.8285	655.8043	65535	64645.85
827.9733	657.9159	65535	64646.35
828.118	660.0268	65535	64644.65
828.2627	662.137	65535	64648.05
828.4075	664.2466	65535	64645.05
828.5522	666.3556	65535	64646.8
828.697	668.4639	65535	64643.45
828.8418	670.5716	65535	64644.9
828.9865	672.6786	65535	64646.55
829.1313	674.785	65535	64642.65
829.2761	676.8907	65535	64643.55
829.4209	678.9958	65535	64645.6
829.5657	681.1002	65535	64644.9
829.7105	683.204	65535	64637.45
829.8553	685.3072	65535	64640.8
830.0001	687.4097	65535	64643.45
830.1449	689.5115	65535	64641
830.2898	691.6127	65535	64644.65
830.4346	693.7132	65535	64642.25
830.5794	695.8131	65535	64633.8
830.7243	697.9123	65535	64636.75
830.8691	700.0109	65535	64641.05
831.014	702.1089	65535	64642.15
831.1588	704.2061	65535	64643.35
831.3037	706.3028	65535	64640.65
831.4486	708.3987	65535	64638.95
831.5935	710.4941	65535	64636.05
831.7383	712.5887	65535	64642.4
831.8832	714.6827	65535	64636.1
832.0281	716.7761	65535	64639.95
832.173	718.8688	65535	64639.2
832.3179	720.9608	65535	64633.85
832.4628	723.0522	65535	64633.6
832.6077	725.1429	65535	64638.15
832.7527	727.233	65535	64638.25
832.8976	729.3224	65535	64636.85
833.0425	731.4112	65535	64637.75
833.1874	733.4993	65535	64635.35
833.3324	735.5867	65535	64636.95
833.4773	737.6735	65535	64635.45
833.6222	739.7596	65535	64636.7
833.7672	741.845	65535	64638.5
833.9122	743.9298	65535	64635.4
834.0571	746.014	65535	64638.05
834.2021	748.0974	65535	64632.8
834.347	750.1802	65535	64634.3
834.492	752.2624	65535	64633.8
834.637	754.3439	65535	64631.05
834.782	756.4247	65535	64626.85
834.9269	758.5048	65535	64634.7
835.0719	760.5843	65535	64634.75
835.2169	762.6631	65535	64633.4
835.3619	764.7413	65535	64635.15
835.5069	766.8188	65535	64632.25
835.6519	768.8956	65535	64631.4
835.7969	770.9718	65535	64632
835.9419	773.0473	65535	64635.1
836.0869	775.1221	65535	64634.7
836.232	777.1962	65535	64632.05
836.377	779.2697	65535	64630.35
836.522	781.3426	65535	64618.4
836.667	783.4147	65535	64632.1
836.8121	785.4862	65535	64634.2
836.9571	787.557	65535	64635.15
837.1021	789.6271	65535	64634.4
837.2472	791.6966	65535	64633.5
837.3922	793.7654	65535	64632.95
837.5373	795.8335	65535	64634.85
837.6823	797.901	65535	64629.25
837.8274	799.9678	65535	64632.05
837.9724	802.0339	65535	64631.9
838.1175	804.0993	65535	64621.95
838.2626	806.1641	65535	64632.35
838.4076	808.2282	65535	64632.45
838.5527	810.2916	65535	64630.7
838.6978	812.3544	65535	64633.55
838.8428	814.4164	65535	64634.15
838.9879	816.4778	65535	64628.2
839.133	818.5385	65535	64632.45
839.2781	820.5986	65535	64630.15
839.4232	822.658	65535	64629.55
839.5682	824.7166	65535	64634.15
839.7133	826.7747	65535	64631.45
839.8584	828.832	65535	64630.1
840.0035	830.8886	65535	64629.2
840.1486	832.9446	65535	64629.65
840.2937	834.9999	65535	64632.6
840.4388	837.0545	65535	64627.05
840.5839	839.1085	65535	64629.25
840.729	841.1618	65535	64626.75
840.8741	843.2143	65535	64631.8
841.0192	845.2662	65535	64630.4
841.1643	847.3175	65535	64631.75
841.3095	849.368	65535	64629.6
841.4546	851.4179	65535	64633.4
841.5997	853.467	65535	64629.1
841.7448	855.5155	65535	64630.1
841.8899	857.5633	65535	64631.5
842.0351	859.6105	65535	64632.25
842.1802	861.6569	65535	64629.4
842.3253	863.7027	65535	64629.25
842.4704	865.7478	65535	64628.6
842.6156	867.7922	65535	64628.8
842.7607	869.8359	65535	64628.6
842.9058	871.8789	65535	64629.3
843.0509	873.9212	65535	64598.7
843.1961	875.9629	65535	64628.4
843.3412	878.0039	65535	64628.65
843.4863	880.0441	65535	64632.5
843.6315	882.0837	65535	64631.35
843.7766	884.1226	65535	64625.05
843.9218	886.1609	65535	64632.3
844.0669	888.1984	65535	64626.75
844.212	890.2352	65535	64630.8
844.3572	892.2714	65535	64623.2
844.5023	894.3069	65535	64627.5
844.6475	896.3416	65535	64627.25
844.7926	898.3757	65535	64627.55
844.9377	900.4091	65535	64625.55
845.0829	902.4418	65535	64623.6
845.228	904.4739	65535	64626.9
845.3732	906.5052	65535	64626.05
845.5183	908.5358	65535	64629.7
845.6635	910.5658	65535	64628.25
845.8086	912.595	65535	64627.25
845.9538	914.6236	65535	64627.3
846.0989	916.6515	65535	64627.65
846.2441	918.6786	65535	64626.9
846.3892	920.7051	65535	64623.05
846.5344	922.7309	65535	64627.3
846.6795	924.756	65535	64626.05
846.8246	926.7804	65535	64623.3
846.9698	928.8041	65535	64622.45
847.1149	930.8272	65535	64625.7
847.2601	932.8495	65535	64624.75
847.4052	934.8711	65535	64625.55
847.5504	936.892	65535	64630
847.6955	938.9123	65535	64624.45
847.8407	940.9318	65535	64625
847.9858	942.9506	65535	64626.15
848.131	944.9688	65535	64626.1
848.2761	946.9862	65535	64628.7
848.4213	949.003	65535	64625.65
848.5664	951.019	65535	64625.45
848.7115	953.0344	65535	64627
848.8567	955.0491	65535	64626.5
849.0018	957.063	65535	64626.85
849.147	959.0763	65535	64627.55
849.2921	961.0888	65535	64625.8
849.4373	963.1007	65535	64627.95
849.5824	965.1119	65535	64626.15
849.7275	967.1223	65535	64627.15
849.8727	969.1321	65535	64631.2
850.0178	971.1412	65535	64626.85
850.1629	973.1495	65535	64629.05
850.3081	975.1572	65535	64594.7
850.4532	977.1641	65535	64623.3
850.5983	979.1704	65535	64625.7
850.7435	981.1759	65535	64621.15
850.8886	983.1808	65535	64623.85
851.0337	985.1849	65535	64615.95
851.1788	987.1884	65535	64624.2
851.324	989.1911	65535	64625.8
851.4691	991.1932	65535	64626.55
851.6142	993.1945	65535	64627.9
851.7593	995.1951	65535	64622.8
851.9045	997.1951	65535	64616.65
852.0496	999.1943	65535	64624.8
852.1947	1001.1928	65535	64623
852.3398	1003.1906	65535	64626.6
852.4849	1005.1877	65535	64627.45
852.63	1007.1841	65535	64624.45
852.7751	1009.1798	65535	64626.8
852.9202	1011.1748	65535	64628.95
853.0653	1013.1691	65535	64626.6
853.2104	1015.1627	65535	64625.4
853.3555	1017.1556	65535	64625.15
853.5006	1019.1477	65535	64628.55
853.6457	1021.1392	65535	64629.5
853.7908	1023.1299	65535	64629.05
853.9359	1025.12	65535	64628.95
854.081	1027.1093	65535	64629.9
854.2261	1029.0979	65535	64636.9
854.3712	1031.0859	65535	64634.3
854.5163	1033.0731	65535	64627.5
854.6613	1035.0596	65535	64630.45
854.8064	1037.0454	65535	64625.05
854.9515	1039.0304	65535	64625.05
855.0965	1041.0148	65535	64626.55
855.2416	1042.9985	65535	64627.65
855.3867	1044.9814	65535	64626.25
855.5317	1046.9636	65535	64625.95
855.6768	1048.9452	65535	64627.75
855.8219	1050.926	65535	64629.05
855.9669	1052.9061	65535	64629.55
856.112	1054.8855	65535	64626.5
856.257	1056.8642	65535	64628.55
856.4021	1058.8421	65535	64623.1
856.5471	1060.8194	65535	64627.8
856.6921	1062.7959	65535	64625
856.8372	1064.7717	65535	64625.1
856.9822	1066.7469	65535	64627.7
857.1272	1068.7213	65535	64625.3
857.2723	1070.695	65535	64626.75
857.4173	1072.6679	65535	64626.8
857.5623	1074.6402	65535	64624.6
857.7073	1076.6117	65535	64621.5
857.8523	1078.5826	65535	64625.05
857.9973	1080.5527	65535	64623.35
858.1423	1082.5221	65535	64625.75
858.2873	1084.4908	65535	64626.15
858.4323	1086.4587	65535	64627.25
858.5773	1088.426	65535	64626.25
858.7223	1090.3925	65535	64621.6
858.8673	1092.3584	65535	64625.5
859.0123	1094.3235	65535	64628.75
859.1573	1096.2879	65535	64624.55
859.3022	1098.2515	65535	64628.1
859.4472	1100.2145	65535	64625.55
859.5922	1102.1767	65535	64625.1
859.7371	1104.1382	65535	64627.25
859.8821	1106.099	65535	64625.55
860.027	1108.0591	65535	64626.55
860.172	1110.0185	65535	64623.95
860.3169	1111.9771	65535	64624.25
860.4619	1113.9351	65535	64626.65
860.6068	1115.8923	65535	64626.7
860.7517	1117.8488	65535	64628.35
860.8967	1119.8045	65535	64627.85
861.0416	1121.7596	65535	64626.05
861.1865	1123.7139	65535	64628.35
861.3314	1125.6675	65535	64627.3
861.4763	1127.6204	65535	64628.65
861.6212	1129.5726	65535	64625
861.7661	1131.524	65535	64628.8
861.911	1133.4748	65535	64628.35
862.0559	1135.4248	65535	64624.85
862.2008	1137.3741	65535	64626.35
862.3457	1139.3226	65535	64626.85
862.4905	1141.2705	65535	64629.9
862.6354	1143.2176	65535	64619
862.7803	1145.164	65535	64623.3
862.9251	1147.1097	65535	64624.65
863.07	1149.0546	65535	64625.7
863.2148	1150.9989	65535	64626.65
863.3597	1152.9424	65535	64625.95
863.5045	1154.8852	65535	64626.65
863.6493	1156.8272	65535	64625.15
863.7942	1158.7686	65535	64621.1
863.939	1160.7092	65535	64626.6
864.0838	1162.6491	65535	64625.65
864.2286	1164.5883	65535	64625.9
864.3734	1166.5267	65535	64625.05
864.5182	1168.4644	65535	64627.1
864.663	1170.4014	65535	64621.2
864.8078	1172.3377	65535	64626.85
864.9526	1174.2732	65535	64630.45
865.0974	1176.2081	65535	64627.5
865.2421	1178.1421	65535	64625
865.3869	1180.0755	65535	64627.8
865.5317	1182.0082	65535	64629.7
865.6764	1183.9401	65535	64626.85
865.8212	1185.8713	65535	64630.4
865.9659	1187.8017	65535	64631
866.1106	1189.7315	65535	64631
866.2554	1191.6605	65535	64603.05
866.4001	1193.5888	65535	64628.8
866.5448	1195.5163	65535	64628.3
866.6895	1197.4432	65535	64627.2
866.8342	1199.3693	65535	64627.75
866.9789	1201.2947	65535	64624.9
867.1236	1203.2193	65535	64625.55
867.2683	1205.1432	65535	64627.85
867.413	1207.0664	65535	64628.1
867.5576	1208.9889	65535	64623.35
867.7023	1210.9106	65535	64628.05
867.847	1212.8316	65535	64627.55
867.9916	1214.7519	65535	64617.9
868.1363	1216.6715	65535	64630.5
868.2809	1218.5903	65535	64629.65
868.4255	1220.5084	65535	64627.05
868.5701	1222.4257	65535	64627.9
868.7148	1224.3424	65535	64628.5
868.8594	1226.2583	65535	64626.75
869.004	1228.1735	65535	64626.6
869.1486	1230.0879	65535	64627.15
869.2932	1232.0016	65535	64627.65
869.4377	1233.9146	65535	64624.2
869.5823	1235.8269	65535	64628.4
869.7269	1237.7384	65535	64625.95
869.8715	1239.6492	65535	64628
870.016	1241.5592	65535	64628.05
870.1606	1243.4686	65535	64627.5
870.3051	1245.3772	65535	64628.15
870.4496	1247.285	65535	64629.1
870.5941	1249.1922	65535	64629.65
870.7387	1251.0986	65535	64628
870.8832	1253.0042	65535	64627.5
871.0277	1254.9092	65535	64627.9
871.1722	1256.8134	65535	64628.45
871.3167	1258.7169	65535	64629.15
871.4611	1260.6196	65535	64630.7
871.6056	1262.5216	65535	64629.3
871.7501	1264.4229	65535	64629.75
871.8945	1266.3234	65535	64629.85
872.039	1268.2232	65535	64628.6
872.1834	1270.1223	65535	64626.8
872.3278	1272.0207	65535	64626.7
872.4723	1273.9183	65535	64622.65
872.6167	1275.8151	65535	64632.35
872.7611	1277.7113	65535	64627.25
872.9055	1279.6067	65535	64628.5
873.0499	1281.5014	65535	64626.4
873.1943	1283.3953	65535	64624.75
873.3386	1285.2885	65535	64626.7
873.483	1287.181	65535	64626.95
873.6274	1289.0727	65535	64630.9
873.7717	1290.9637	65535	64630.1
873.9161	1292.854	65535	64629.6
874.0604	1294.7435	65535	64628.2
874.2047	1296.6323	65535	64626.3
874.349	1298.5204	65535	64625.55
874.4933	1300.4077	65535	64626.4
874.6376	1302.2943	65535	64628.9
874.7819	1304.1802	65535	64628.7
874.9262	1306.0653	65535	64627.75
875.0705	1307.9497	65535	64628.85
875.2147	1309.8333	65535	64628.6
875.359	1311.7162	65535	64629.4
875.5032	1313.5984	65535	64626.6
875.6475	1315.4798	65535	64628.5
875.7917	1317.3605	65535	64613.05
875.9359	1319.2405	65535	64624.75
876.0801	1321.1197	65535	64628.65
876.2243	1322.9982	65535	64624.25
876.3685	1324.876	65535	64629.65
876.5127	1326.753	65535	64629.9
876.6569	1328.6293	65535	64628.15
876.801	1330.5048	65535	64624.45
876.9452	1332.3796	65535	64629.25
877.0893	1334.2537	65535	64605.6
877.2335	1336.127	65535	64630.65
877.3776	1337.9996	65535	64629.25
877.5217	1339.8714	65535	64627.05
877.6658	1341.7426	65535	64584.8
877.8099	1343.6129	65535	64626.5
877.954	1345.4826	65535	64628
878.0981	1347.3515	65535	64626.3
878.2422	1349.2196	65535	64626.1
878.3862	1351.087	65535	64628.35
878.5303	1352.9537	65535	64628.65
878.6743	1354.8197	65535	64629.6
878.8184	1356.6849	65535	64627.9
878.9624	1358.5493	65535	64628.2
879.1064	1360.4131	65535	64629.7
879.2504	1362.276	65535	64627.65
879.3944	1364.1383	65535	64627.45
879.5384	1365.9998	65535	64621.4
879.6823	1367.8606	65535	64628.9
879.8263	1369.7206	65535	64628.5
879.9702	1371.5799	65535	64624.3
880.1142	1373.4384	65535	64625.85
880.2581	1375.2962	65535	64628.1
880.402	1377.1533	65535	64629.55
880.5459	1379.0096	65535	64628.3
880.6898	1380.8652	65535	64631.25
880.8337	1382.7201	65535	64632.05
880.9776	1384.5742	65535	64629
881.1215	1386.4275	65535	64628.3
881.2653	1388.2802	65535	64628.75
881.4092	1390.132	65535	64627.6
881.553	1391.9832	65535	64628.2
881.6968	1393.8336	65535	64628
881.8406	1395.6832	65535	64626.2
881.9844	1397.5322	65535	64631.15
882.1282	1399.3803	65535	64625.65
882.272	1401.2278	65535	64628.15
882.4158	1403.0745	65535	64630.5
882.5595	1404.9204	65535	64630.45
882.7033	1406.7656	65535	64629.15
882.847	1408.6101	65535	64625.85
882.9908	1410.4538	65535	64629.3
883.1345	1412.2968	65535	64629.5
883.2782	1414.139	65535	64627.15
883.4219	1415.9805	65535	64631.5
883.5656	1417.8213	65535	64622.2
883.7092	1419.6613	65535	64630.85
883.8529	1421.5006	65535	64629.45
883.9965	1423.3391	65535	64628.15
884.1402	1425.1769	65535	64629.35
884.2838	1427.0139	65535	64626.6
884.4274	1428.8502	65535	64629
884.571	1430.6858	65535	64629.75
884.7146	1432.5206	65535	64629.15
884.8582	1434.3547	65535	64630.7
885.0018	1436.188	65535	64632
885.1453	1438.0206	65535	64628.55
885.2889	1439.8524	65535	64629.85
885.4324	1441.6835	65535	64629.45
885.5759	1443.5139	65535	64627.45
885.7194	1445.3435	65535	64630.55
885.8629	1447.1724	65535	64630.05
886.0064	1449.0005	65535	64630.05
886.1499	1450.8279	65535	64627.45
886.2933	1452.6545	65535	64630.6
886.4368	1454.4804	65535	64631.15
886.5802	1456.3056	65535	64623.3
886.7237	1458.13	65535	64632.05
886.8671	1459.9536	65535	64630.65
887.0105	1461.7766	65535	64631.55
887.1539	1463.5987	65535	64628.05
887.2972	1465.4202	65535	64632.3
887.4406	1467.2409	65535	64628.2
887.584	1469.0608	65535	64631.15
887.7273	1470.88	65535	64628.9
887.8706	1472.6984	65535	64630.9
888.0139	1474.5161	65535	64628.65
888.1572	1476.3331	65535	64633.2
888.3005	1478.1493	65535	64629.25
888.4438	1479.9648	65535	64630.8
888.5871	1481.7795	65535	64630.4
888.7303	1483.5935	65535	64630.45
888.8736	1485.4067	65535	64631
889.0168	1487.2192	65535	64628.6
889.16	1489.031	65535	64627.55
889.3032	1490.842	65535	64631.4
889.4464	1492.6522	65535	64628.6
889.5896	1494.4618	65535	64629.3
889.7327	1496.2705	65535	64630.75
889.8759	1498.0785	65535	64629.5
890.019	1499.8858	65535	64628.8
890.1622	1501.6924	65535	64631.2
890.3053	1503.4981	65535	64632.7
890.4484	1505.3032	65535	64631.6
890.5914	1507.1075	65535	64630.3
890.7345	1508.911	65535	64630.9
890.8776	1510.7138	65535	64630.4
891.0206	1512.5159	65535	64631.4
891.1637	1514.3172	65535	64631.45
891.3067	1516.1178	65535	64633.25
891.4497	1517.9176	65535	64628.8
891.5927	1519.7166	65535	64632.25
891.7357	1521.515	65535	64625.25
891.8786	1523.3126	65535	64632.15
892.0216	1525.1094	65535	64629.5
892.1645	1526.9055	65535	64634.8
892.3074	1528.7008	65535	64631.25
892.4503	1530.4954	65535	64628.05
892.5932	1532.2893	65535	64633.6
892.7361	1534.0824	65535	64627.95
892.879	1535.8747	65535	64633.8
893.0218	1537.6663	65535	64631.95
893.1647	1539.4572	65535	64630.7
893.3075	1541.2473	65535	64631.75
893.4503	1543.0367	65535	64632.4
893.5931	1544.8253	65535	64629.35
893.7359	1546.6132	65535	64630.8
893.8787	1548.4003	65535	64619.5
894.0214	1550.1867	65535	64623.95
894.1642	1551.9723	65535	64628.15
894.3069	1553.7572	65535	64631.25
894.4496	1555.5414	65535	64633.35
894.5923	1557.3247	65535	64632.15
894.735	1559.1074	65535	64636.35
894.8777	1560.8893	65535	64633.45
895.0204	1562.6705	65535	64634.55
895.163	1564.4509	65535	64634.35
895.3056	1566.2305	65535	64635.05
895.4482	1568.0094	65535	64634.45
895.5908	1569.7876	65535	64633.65
895.7334	1571.565	65535	64635.4
895.876	1573.3417	65535	64634.15
896.0186	1575.1176	65535	64635.2
896.1611	1576.8928	65535	64636.75
896.3036	1578.6672	65535	64636.95
896.4461	1580.4409	65535	64639.2
896.5886	1582.2138	65535	64636.45
896.7311	1583.986	65535	64636.2
896.8736	1585.7575	65535	64636
897.0161	1587.5282	65535	64636.05
897.1585	1589.2981	65535	64638.05
897.3009	1591.0673	65535	64637.1
897.4433	1592.8358	65535	64637.2
897.5857	1594.6035	65535	64634.7
897.7281	1596.3704	65535	64634.3
897.8705	1598.1366	65535	64635.95
898.0128	1599.9021	65535	64636.6
898.1551	1601.6668	65535	64633.95
898.2975	1603.4308	65535	64634.45
898.4398	1605.194	65535	64631.65
898.5821	1606.9564	65535	64637.75
898.7243	1608.7182	65535	64634.2
898.8666	1610.4791	65535	64639.05
899.0088	1612.2394	65535	64639.75
899.1511	1613.9988	65535	64640.6
899.2933	1615.7576	65535	64639.05
899.4355	1617.5156	65535	64632.5
899.5776	1619.2728	65535	64635.9
899.7198	1621.0293	65535	64635.05
899.862	1622.785	65535	64632.65
900.0041	1624.54	65535	64636.5
900.1462	1626.2942	65535	64637.9
900.2883	1628.0477	65535	64636.05
900.4304	1629.8005	65535	64636.35
900.5725	1631.5525	65535	64637.85
900.7145	1633.3037	65535	64638.5
900.8566	1635.0542	65535	64637.3
900.9986	1636.804	65535	64636.65
901.1406	1638.553	65535	64549.9
901.2826	1640.3013	65535	64635.8
901.4245	1642.0488	65535	64636.05
901.5665	1643.7955	65535	64640.05
901.7085	1645.5416	65535	64638.95
901.8504	1647.2868	65535	64640.2
901.9923	1649.0313	65535	64638.45
902.1342	1650.7751	65535	64636.45
902.2761	1652.5181	65535	64640
902.4179	1654.2604	65535	64638.25
902.5598	1656.0019	65535	64637.9
902.7016	1657.7427	65535	64640.5
902.8434	1659.4828	65535	64640.4
902.9852	1661.222	65535	64638.25
903.127	1662.9606	65535	64639.3
903.2687	1664.6984	65535	64636.5
903.4105	1666.4354	65535	64635.35
903.5522	1668.1717	65535	64637
903.6939	1669.9072	65535	64639.1
903.8356	1671.642	65535	64637.6
903.9773	1673.3761	65535	64639.75
904.119	1675.1094	65532.9	64636.2
904.2606	1676.8419	65491.3	64595.85
904.4022	1678.5737	65519.65	64622.65
904.5439	1680.3048	65504.8	64606.05
904.6855	1682.0351	65486.2	64589.7
904.827	1683.7646	65457.45	64559.3
904.9686	1685.4934	65506.25	64610.1
905.1101	1687.2215	65274.15	64378.95
905.2517	1688.9488	65481.25	64587.25
905.3932	1690.6754	65054.45	64159.5
905.5347	1692.4012	65277.85	64381.5
905.6761	1694.1263	65361.45	64467.15
905.8176	1695.8506	65130.55	64233.2
905.9591	1697.5742	65186.2	64289.15
906.1005	1699.297	65113.45	64217.65
906.2419	1701.0191	65180.65	64283.75
906.3833	1702.7404	64880.95	63987.9
906.5246	1704.461	64785.55	63887.15
906.666	1706.1808	65019.55	64123.2
906.8073	1707.8999	64882.8	63984.45
906.9487	1709.6182	64843.7	63948.5
907.09	1711.3358	64821.9	63927.4
907.2313	1713.0527	64800.95	63908.7
907.3725	1714.7688	64815.75	63913.6
907.5138	1716.4841	64486.95	63589.3
907.655	1718.1987	64613.85	63711.7
907.7962	1719.9126	64523.7	63630.5
907.9374	1721.6257	64628.8	63732.7
908.0786	1723.338	64618.15	63723.95
908.2198	1725.0496	64214.7	63319.05
908.3609	1726.7605	64269.3	63376.05
908.502	1728.4706	64111.6	63217.25
908.6431	1730.18	64304.95	63408.3
908.7842	1731.8886	64077.2	63182.05
908.9253	1733.5964	63971.55	63071.1
909.0664	1735.3036	64208.2	63310.4
909.2074	1737.0099	64010.45	63114.9
909.3484	1738.7156	63853.8	62961.25
909.4894	1740.4204	63773.25	62876.25
909.6304	1742.1246	63867.2	62970.25
909.7714	1743.8279	63911.15	63016.6
909.9123	1745.5306	63872.75	62978.55
910.0532	1747.2325	63292.6	62398.55
910.1941	1748.9336	63342.65	62449.7
910.335	1750.634	63492.45	62596.4
910.4759	1752.3336	63641.9	62748.65
910.6168	1754.0325	63179.45	62286.5
910.7576	1755.7307	63609.65	62716.8
910.8984	1757.4281	63054.15	62159
911.0392	1759.1247	63451.8	62547.7
911.18	1760.8206	62828.25	61928.25
911.3208	1762.5158	62895.6	61996.85
911.4615	1764.2102	63040.7	62146.4
911.6022	1765.9039	62936.1	62041.35
911.7429	1767.5968	62792.6	61899.05
911.8836	1769.289	62674	61782.05
912.0243	1770.9804	62821.25	61924.7
912.1649	1772.6711	62652	61757.25
912.3056	1774.361	62502.4	61607.75
912.4462	1776.0502	62583.8	61687.9
912.5868	1777.7386	61938.9	61042.05
912.7274	1779.4263	62283.4	61390.4
912.8679	1781.1132	62263.25	61369.65
913.0084	1782.7994	62129.8	61233.5
913.149	1784.4849	62176.15	61281.6
913.2895	1786.1696	61376.15	60475.1
913.4299	1787.8535	61868.15	60976.1
913.5704	1789.5367	61931.9	61039.55
913.7108	1791.2192	61441.85	60548.95
913.8513	1792.9009	61095.5	60172.45
913.9917	1794.5818	61477.5	60581.4
914.132	1796.2621	61044.3	60152.1
914.2724	1797.9415	61106.85	60210.7
914.4128	1799.6202	60996.9	60102.35
914.5531	1801.2982	60995.85	60101.9
914.6934	1802.9755	60471.95	59578.35
914.8337	1804.6519	60320.8	59425.7
914.9739	1806.3277	61096.9	60203.25
915.1142	1808.0027	59898.5	59006.35
915.2544	1809.6769	60284.15	59389.75
915.3946	1811.3504	60416.15	59522.35
915.5348	1813.0231	59433.45	58542.1
915.675	1814.6951	60057.45	59164.75
915.8151	1816.3664	59678.5	58782.4
915.9553	1818.0369	59690	58793.8
916.0954	1819.7067	59415.45	58521.25
916.2355	1821.3757	59975.15	59081.05
916.3755	1823.044	59183.5	58288.35
916.5156	1824.7115	58755.85	57862.55
916.6556	1826.3783	59018.65	58127.2
916.7956	1828.0443	59062.25	58168.65
916.9356	1829.7096	58722.2	57826.35
917.0756	1831.3741	58014.6	57116.4
917.2155	1833.0379	58434.2	57541.4
917.3555	1834.701	58379.5	57484.95
917.4954	1836.3633	57825.9	56931.05
917.6353	1838.0248	58127.55	57231.85
917.7751	1839.6856	57928.95	57036.4
917.915	1841.3457	57391.5	56500.15
918.0548	1843.005	58070.35	57177.75
918.1946	1844.6636	57603.55	56711.55
918.3344	1846.3214	56880.8	55989.4
918.4742	1847.9785	57104.5	56211.55
918.6139	1849.6349	57003	56107.45
918.7537	1851.2904	57537.85	56633.75
918.8934	1852.9453	56630.5	55736.25
919.0331	1854.5994	56972.35	56075.25
919.1727	1856.2528	56898.25	55998.75
919.3124	1857.9054	56365.65	55472.2
919.452	1859.5572	56166.3	55274.25
919.5916	1861.2083	56358.75	55464.7
919.7312	1862.8587	56887.65	55994.5
919.8708	1864.5084	55570.55	54677.35
920.0103	1866.1572	56084.75	55190.7
920.1498	1867.8054	55367.9	54473.25
920.2893	1869.4528	55763.15	54869.9
920.4288	1871.0994	55184.3	54290.25
920.5683	1872.7453	55145.35	54251.05
920.7077	1874.3905	55374.3	54472.85
920.8471	1876.0349	54774.9	53880.2
920.9865	1877.6786	55202.7	54309.5
921.1259	1879.3215	54744.4	53853.65
921.2653	1880.9637	55166.75	54273.75
921.4046	1882.6051	54676.2	53783.55
921.5439	1884.2458	54380.9	53484.9
921.6832	1885.8858	54060.3	53166.05
921.8225	1887.525	54262.15	53370
921.9617	1889.1634	54069.35	53177.55
922.101	1890.8011	53849.9	52956.15
922.2402	1892.4381	53346.1	52454.4
922.3794	1894.0743	53791.65	52898.5
922.5185	1895.7098	53434.8	52543.9
922.6577	1897.3446	53108.15	52214.05
922.7968	1898.9786	53201.5	52304.3
922.9359	1900.6118	52931.95	52040.7
923.075	1902.2443	52593.55	51698.95
923.214	1903.8761	52884.3	51992.2
923.3531	1905.5071	52484.6	51589.6
923.4921	1907.1374	51862.65	50966.2
923.6311	1908.7669	52069.6	51175.45
923.77	1910.3957	52296.1	51404.55
923.909	1912.0237	51681.75	50788.8
924.0479	1913.651	51543.5	50648.95
924.1868	1915.2776	51381.95	50490.6
924.3257	1916.9034	51311.7	50421.2
924.4646	1918.5285	51011.3	50120.1
924.6034	1920.1528	50957.65	50064.75
924.7422	1921.7764	50812.95	49919.75
924.881	1923.3992	50635.9	49743.9
925.0198	1925.0213	50342.5	49451.25
925.1586	1926.6427	49981	49088.55
925.2973	1928.2633	50104.65	49129.8
925.436	1929.8832	49867.6	48973.45
925.5747	1931.5023	49715.1	48821.6
925.7134	1933.1207	49426.2	48533.4
925.852	1934.7383	49475.2	48582.35
925.9906	1936.3552	49202.7	48311.3
926.1292	1937.9714	49112.45	48220.15
926.2678	1939.5868	49022.95	48126.7
926.4064	1941.2015	48539.8	47644.65
926.5449	1942.8154	48308.05	47412.8
926.6834	1944.4286	48279.6	47387.25
926.8219	1946.041	48110	47197.85
926.9604	1947.6528	47834.1	46935.95
927.0988	1949.2637	47723.85	46832.05
927.2372	1950.8739	47560.6	46667.95
927.3756	1952.4834	47509.85	46616.45
927.514	1954.0921	47435.55	46544.8
927.6523	1955.7001	47153.8	46254.85
927.7907	1957.3074	47110.25	46218.55
927.929	1958.9139	46847.2	45954.8
928.0673	1960.5197	46735.15	45842.55
928.2055	1962.1247	46539.7	45648.25
928.3438	1963.729	46355.25	45464.75
928.482	1965.3325	46159.65	45246.05
928.6202	1966.9353	46090.9	45199.25
928.7584	1968.5374	45845.55	44954.5
928.8965	1970.1387	45700.25	44807.15
929.0346	1971.7393	45558.45	44665.8
929.1727	1973.3392	45400.8	44509.5
929.3108	1974.9383	45194.2	44301.9
929.4489	1976.5366	45016.65	44124.85
929.5869	1978.1342	45002.35	44110
929.7249	1979.7311	44814.4	43921.85
929.8629	1981.3273	44687.45	43794.95
930.0009	1982.9227	44513.15	43619.9
930.1388	1984.5173	44374.55	43484.9
930.2767	1986.1112	44190.55	43299.75
930.4146	1987.7044	44151.4	43260.1
930.5525	1989.2968	43927.7	43035.25
930.6904	1990.8885	43888.5	42994.8
930.8282	1992.4795	43729.5	42836.6
930.966	1994.0697	43530.9	42641.15
931.1038	1995.6592	43432.6	42542.45
931.2415	1997.2479	43228.05	42336.3
931.3793	1998.8359	43112.95	42222.4
931.517	2000.4232	42998.4	42107.15
931.6547	2002.0097	42876.55	41988.55
931.7923	2003.5955	42610.85	41720.3
931.93	2005.1805	42554.25	41663.05
932.0676	2006.7648	42448.35	41559.7
932.2052	2008.3484	42324.9	41434.3
932.3427	2009.9312	42354.25	41462.65
932.4803	2011.5133	42095.1	41205.25
932.6178	2013.0946	41998.1	41107.8
932.7553	2014.6752	41938.55	41049.9
932.8928	2016.2551	41806.15	40913.7
933.0302	2017.8342	41620.65	40730.55
933.1676	2019.4126	41474.9	40586.15
933.305	2020.9902	41218.85	40328.5
933.4424	2022.5672	41206.05	40316.85
933.5798	2024.1433	41061.9	40167.05
933.7171	2025.7188	40971.95	40083
933.8544	2027.2935	40824.4	39934.6
933.9917	2028.8674	40690.65	39801.8
934.129	2030.4406	40539.4	39651.95
934.2662	2032.0131	40354.65	39466.3
934.4034	2033.5849	40225	39329.25
934.5406	2035.1559	40181.65	39292.7
934.6778	2036.7261	40111.45	39221
934.8149	2038.2957	39983.15	39092.9
934.952	2039.8645	39823.35	38931.7
935.0891	2041.4325	39841.55	38947.6
935.2262	2042.9998	39694.6	38806.5
935.3632	2044.5664	39573	38681.9
935.5002	2046.1323	39448.95	38559.9
935.6372	2047.6974	39292.7	38403.9
935.7742	2049.2617	39232.4	38342.25
935.9111	2050.8254	39141.3	38247.45
936.048	2052.3883	39123.45	38230.15
936.1849	2053.9504	38951.35	38058.8
936.3218	2055.5118	38794	37902.85
936.4586	2057.0725	38695.25	37800.55
936.5955	2058.6325	38604.55	37712.5
936.7323	2060.1917	38409.8	37521
936.869	2061.7502	38286.35	37393.95
937.0058	2063.3079	38158.7	37270.45
937.1425	2064.8649	38047.4	37154.7
937.2792	2066.4212	37962.6	37074.05
937.4159	2067.9767	37884.1	36995.75
937.5525	2069.5315	37651.3	36760.05
937.6891	2071.0856	37461.85	36571.15
937.8257	2072.6389	37333.45	36440.5
937.9623	2074.1915	37226.65	36338.25
938.0989	2075.7433	37016.65	36124.95
938.2354	2077.2945	36975.55	36088.1
938.3719	2078.8448	36817	35927.15
938.5084	2080.3945	36655.25	35764.75
938.6448	2081.9434	36661.95	35770.75
938.7812	2083.4916	36534.8	35643.7
938.9176	2085.039	36388.05	35494.45
939.054	2086.5857	36315.35	35421.8
939.1903	2088.1317	36230.35	35337.65
939.3267	2089.677	36118	35226.85
939.463	2091.2215	36010.4	35119.35
939.5992	2092.7652	35895.85	35003.75
939.7355	2094.3083	35802.6	34910.7
939.8717	2095.8506	35750.75	34861.95
940.0079	2097.3921	35668.9	34779.65
940.1441	2098.933	35576.25	34686.85
940.2802	2100.4731	35490.55	34600.1
940.4163	2102.0124	35435.05	34537.7
940.5524	2103.5511	35319.9	34427.55
940.6885	2105.089	35231.65	34339.75
940.8245	2106.6261	35134.25	34239.7
940.9606	2108.1626	35056.4	34165.4
941.0965	2109.6983	34970.15	34052.6
941.2325	2111.2332	34828.4	33936.2
941.3684	2112.7675	34726.1	33835.25
941.5044	2114.301	34585.65	33693.6
941.6403	2115.8337	34558	33667.35
941.7761	2117.3657	34465.9	33574.95
941.912	2118.897	34440.8	33548
942.0478	2120.4276	34297.75	33398.25
942.1835	2121.9575	34108.95	33218.5
942.3193	2123.4866	34084.85	33177.85
942.455	2125.0149	33984.45	33090.55
942.5907	2126.5426	33802.9	32915.15
942.7264	2128.0695	33783.3	32890.1
942.8621	2129.5956	33689.15	32800
942.9977	2131.1211	33621.75	32727.4
943.1333	2132.6458	33500.45	32610.1
943.2689	2134.1698	33462.85	32570.8
943.4044	2135.693	33351.9	32458.55
943.54	2137.2155	33241.9	32348.75
943.6755	2138.7373	33186.1	32295.2
943.8109	2140.2584	33044.9	32154.7
943.9464	2141.7787	32884.75	31988.75
944.0818	2143.2983	32767.8	31880
944.2172	2144.8171	32595	31705.75
944.3526	2146.3353	32534.3	31642.75
944.4879	2147.8527	32400.45	31512.35
944.6232	2149.3693	32382.95	31490.9
944.7585	2150.8853	32258.6	31366.75
944.8938	2152.4005	32072.5	31181.55
945.029	2153.9149	32040.55	31149.55
945.1642	2155.4287	31902.5	31012.8
945.2994	2156.9417	31904.9	31013.8
945.4346	2158.454	31778	30885.85
945.5697	2159.9655	31649.9	30758.45
945.7048	2161.4764	31603.85	30713.4
945.8399	2162.9865	31512.55	30624.15
945.9749	2164.4958	31424.7	30533.8
946.1099	2166.0045	31289.4	30394.95
946.2449	2167.5124	31258.65	30366.65
946.3799	2169.0195	31130.8	30239.9
946.5148	2170.526	31165.15	30274.9
946.6498	2172.0317	30986.65	30094.95
946.7846	2173.5367	30914.85	30024.25
946.9195	2175.0409	30843.1	29953.65
947.0543	2176.5445	30780.35	29889.6
947.1891	2178.0473	30687.3	29796.3
947.3239	2179.5494	30529.15	29633.45
947.4587	2181.0507	30416.2	29523.3
947.5934	2182.5513	30334.8	29444.8
947.7281	2184.0512	30253.8	29364.6
947.8628	2185.5504	30144.85	29256.1
947.9974	2187.0488	29992.8	29101.15
948.132	2188.5465	29880.1	28990.3
948.2666	2190.0435	29789.7	28898
948.4012	2191.5397	29686	28794.75
948.5357	2193.0353	29569.7	28681.5
948.6702	2194.5301	29395.3	28503.55
948.8047	2196.0241	29336.85	28443.95
948.9392	2197.5175	29236.35	28344.6
949.0736	2199.0101	29105.2	28208.8
949.208	2200.502	29002.8	28112.95
949.3424	2201.9931	28897.1	28006.6
949.4767	2203.4835	28753.85	27862.7
949.611	2204.9733	28695.05	27800
949.7453	2206.4622	28662.85	27771.95
949.8796	2207.9505	28482.5	27590.05
950.0138	2209.438	28384.9	27495.35
950.148	2210.9248	28318.95	27426.75
950.2822	2212.4109	28241.55	27351.8
950.4164	2213.8962	28141.85	27248.45
950.5505	2215.3809	28042.85	27150.2
950.6846	2216.8648	28004.2	27113.3
950.8186	2218.3479	27878.3	26982.2
950.9527	2219.8304	27766.5	26874.05
951.0867	2221.3121	27629.4	26735.3
951.2207	2222.7931	27610.35	26720.05
951.3546	2224.2733	27494.95	26603.8
951.4886	2225.7529	27392.05	26500.55
951.6225	2227.2317	27320.3	26426.65
951.7563	2228.7098	27264.15	26374
951.8902	2230.1872	27126.35	26236.65
952.024	2231.6638	27080.4	26191.25
952.1578	2233.1397	26958.2	26062.15
952.2916	2234.6149	26895.4	26006.75
952.4253	2236.0894	26706.2	25815.85
952.559	2237.5632	26722.15	25831.9
952.6927	2239.0362	26583.4	25691
952.8263	2240.5085	26559.45	25667.6
952.9599	2241.9801	26445.2	25554.75
953.0935	2243.4509	26335.7	25445.2
953.2271	2244.921	26246.25	25353.65
953.3606	2246.3904	26120.25	25227.45
953.4941	2247.8591	26044.5	25151.35
953.6276	2249.3271	25973.55	25084.1
953.7611	2250.7943	25880.5	24990.1
953.8945	2252.2608	25766.15	24875.8
954.0279	2253.7266	25701.75	24812.5
954.1612	2255.1917	25641.65	24752.85
954.2946	2256.656	25531.95	24641.9
954.4279	2258.1197	25437.45	24548.45
954.5612	2259.5826	25421.05	24529
954.6944	2261.0447	25368.1	24474.4
954.8276	2262.5062	25204.55	24310.4
954.9608	2263.9669	25195.95	24302.35
955.094	2265.4269	25136.4	24246.55
955.2271	2266.8862	25035.4	24143.9
955.3602	2268.3448	24993.65	24104.1
955.4933	2269.8026	24922.2	24031.15
955.6264	2271.2598	24787.5	23899.65
955.7594	2272.7162	24747.2	23858.5
955.8924	2274.1719	24684.85	23794.4
956.0253	2275.6268	24572.95	23682.45
956.1583	2277.0811	24535.95	23643.1
956.2912	2278.5346	24418.5	23526.15
956.4241	2279.9874	24396.45	23506.55
956.5569	2281.4395	24352.15	23461.5
956.6897	2282.8908	24210.95	23316
956.8225	2284.3414	24196.3	23304.05
956.9553	2285.7914	24128.95	23239.75
957.088	2287.2406	24017.15	23125.2
957.2207	2288.689	23960.05	23069.35
957.3534	2290.1368	23866.15	22974.8
957.486	2291.5838	23782	22887.85
957.6186	2293.0302	23713	22818.85
957.7512	2294.4758	23626.3	22736.2
957.8838	2295.9206	23530.6	22635.5
958.0163	2297.3648	23446.45	22555.25
958.1488	2298.8082	23435.85	22544.65
958.2813	2300.251	23366.2	22476.15
958.4137	2301.693	23261.05	22368.5
958.5461	2303.1343	23258.8	22366.35
958.6785	2304.5748	23175.6	22285.2
958.8108	2306.0147	23075.75	22184.35
958.9432	2307.4538	22988.05	22095.15
959.0754	2308.8922	22914.4	22025.15
959.2077	2310.3299	22874.15	21985.25
959.3399	2311.7669	22744.35	21857.15
959.4721	2313.2031	22666.95	21777.6
959.6043	2314.6387	22574.7	21682.9
959.7365	2316.0735	22514.15	21624.4
959.8686	2317.5076	22478.75	21587.65
960.0006	2318.941	22451	21560.8
960.1327	2320.3737	22329.7	21437.75
960.2647	2321.8056	22273.45	21380
960.3967	2323.2369	22179.9	21289.45
960.5287	2324.6674	22129.9	21239.2
960.6606	2326.0972	22055.35	21162
960.7925	2327.5263	21998.1	21108.5
960.9244	2328.9547	21863	20970.2
961.0562	2330.3823	21839.7	20949.3
961.1881	2331.8092	21785.45	20890.9
961.3198	2333.2355	21654.15	20762.55
961.4516	2334.661	21648.55	20758.5
961.5833	2336.0858	21612.3	20720.7
961.715	2337.5098	21572.15	20681.5
961.8467	2338.9332	21506.45	20614.15
961.9783	2340.3558	21390.6	20496.5
962.1099	2341.7778	21352.8	20462.65
962.2415	2343.199	21271.8	20378.7
962.373	2344.6195	21192.7	20303.85
962.5045	2346.0393	21141.2	20250.9
962.636	2347.4583	21147.2	20255.15
962.7675	2348.8767	21039.85	20148.2
962.8989	2350.2943	20956.9	20065.7
963.0303	2351.7113	20941.5	20049.45
963.1617	2353.1275	20835.9	19945.15
963.293	2354.543	20806	19907
963.4243	2355.9578	20727.05	19834.85
963.5556	2357.3718	20562.1	19672.4
963.6868	2358.7852	20516.1	19620.5
963.818	2360.1978	20432.8	19543.55
963.9492	2361.6098	20408.55	19517.2
964.0803	2363.021	20312.65	19418.8
964.2114	2364.4315	20282.55	19392.15
964.3425	2365.8413	20222.55	19330.5
964.4736	2367.2504	20145.55	19255.75
964.6046	2368.6587	20010.25	19118.55
964.7356	2370.0664	19946.35	19056.2
964.8666	2371.4733	19880.4	18989.3
964.9975	2372.8795	19824.9	18934.65
965.1284	2374.285	19737.75	18847.5
965.2593	2375.6899	19624.7	18736.35
965.3901	2377.0939	19571.25	18682.05
965.5209	2378.4973	19466.75	18576.35
965.6517	2379.9	19422	18530.5
965.7825	2381.3019	19361.7	18470.4
965.9132	2382.7032	19256.8	18367.85
966.0439	2384.1037	19267.45	18379.3
966.1745	2385.5035	19176.85	18286.65
966.3051	2386.9027	19072	18183.15
966.4357	2388.3011	19059.75	18164.7
966.5663	2389.6987	19018.15	18127.15
966.6968	2391.0957	18911.25	18019.75
966.8273	2392.492	18825.25	17935.15
966.9578	2393.8876	18682.6	17792.7
967.0882	2395.2824	18647.55	17758.1
967.2186	2396.6765	18580.5	17692.8
967.349	2398.07	18462.3	17572.7
967.4793	2399.4627	18442.1	17549.85
967.6097	2400.8547	18407.5	17515.6
967.7399	2402.246	18320.05	17423.9
967.8702	2403.6366	18234.7	17344.4
968.0004	2405.0265	18110.7	17222.05
968.1306	2406.4156	18066.95	17174.05
968.2607	2407.8041	18007.95	17116.15
968.3909	2409.1918	17951	17057.35
968.521	2410.5789	17848.75	16959.75
968.651	2411.9652	17822.2	16930.4
968.781	2413.3508	17753.85	16863.35
968.911	2414.7358	17650.5	16759.7
969.041	2416.12	17585.3	16696.3
969.1709	2417.5035	17538.45	16647.9
969.3008	2418.8863	17468.35	16578
969.4307	2420.2684	17444	16555.15
969.5606	2421.6497	17348.95	16458.3
969.6904	2423.0304	17266.45	16377.35
969.8201	2424.4104	17221.3	16331.3
969.9499	2425.7896	17130.9	16240.45
970.0796	2427.1682	17093.7	16205.3
970.2093	2428.546	17045.6	16154.05
970.3389	2429.9232	16998.6	16107.7
970.4685	2431.2996	16994.5	16104.95
970.5981	2432.6753	16944.25	16056.4
970.7277	2434.0503	16906.95	16016
970.8572	2435.4246	16826.85	15938.1
970.9867	2436.7982	16740.05	15848.55
971.1161	2438.1711	16716.9	15826.8
971.2456	2439.5433	16645.25	15753.2
971.375	2440.9148	16542.7	15646.45
971.5043	2442.2856	16472.6	15581.65
971.6336	2443.6557	16438.5	15548.45
971.7629	2445.025	16361.25	15471.05
971.8922	2446.3937	16350.45	15460.1
972.0214	2447.7617	16281.15	15390
972.1506	2449.1289	16276.7	15385.95
972.2798	2450.4955	16196.4	15305.3
972.4089	2451.8613	16144.25	15254.6
972.538	2453.2265	16088.8	15200.65
972.6671	2454.5909	16054.75	15164.4
972.7961	2455.9546	16034.55	15143.35
972.9251	2457.3177	15944.9	15055.1
973.0541	2458.68	15890.65	14998.5
973.1831	2460.0416	15896.05	15005.1
973.312	2461.4025	15840.2	14948
973.4408	2462.7627	15800.05	14897.8
973.5697	2464.1222	15746.05	14859.35
973.6985	2465.4811	15669.25	14778.45
973.8273	2466.8392	15623.95	14734.5
973.956	2468.1966	15584.25	14691.65
974.0847	2469.5533	15571.35	14679.5
974.2134	2470.9093	15490.9	14601.8
974.3421	2472.2645	15438.15	14546.4
974.4707	2473.6191	15369.95	14480.25
974.5993	2474.973	15304.5	14413.8
974.7278	2476.3262	15299.8	14406.85
974.8563	2477.6787	15193.85	14303.55
974.9848	2479.0305	15111	14220.35
975.1132	2480.3816	15115	14222.4
975.2417	2481.7319	15017.25	14128.55
975.37	2483.0816	14951.3	14058.25
975.4984	2484.4306	14920	14029.55
975.6267	2485.7789	14863.5	13975.55
975.755	2487.1264	14794.9	13904.45
975.8833	2488.4733	14751.4	13864.65
976.0115	2489.8195	14690.9	13793.3
976.1397	2491.165	14635.65	13741.55
976.2678	2492.5097	14580.35	13688.6
976.3959	2493.8538	14552.15	13661.75
976.524	2495.1972	14448.5	13557.85
976.6521	2496.5398	14387.55	13497.35
976.7801	2497.8818	14354.8	13464.25
976.9081	2499.2231	14310.55	13419.55
977.036	2500.5637	14241.85	13350
977.164	2501.9035	14190.05	13299.55
977.2918	2503.2427	14157.1	13263.05
977.4197	2504.5812	14089.1	13199.15
977.5475	2505.919	14082.55	13191.5
977.6753	2507.256	14028.95	13140.15
977.8031	2508.5924	13972.9	13083.35
977.9308	2509.9281	13921.9	13024.05
978.0585	2511.2631	13891.65	13000.6
978.1861	2512.5974	13856.65	12965.55
978.3137	2513.9309	13787.3	12896.6
978.4413	2515.2638	13764.95	12848.85
978.5689	2516.596	13719.95	12830.1
978.6964	2517.9275	13620.95	12729.85
978.8239	2519.2583	13607.1	12716.1
978.9513	2520.5884	13521.15	12629.25
979.0788	2521.9178	13459.1	12567.8
979.2062	2523.2465	13433.05	12543.9
979.3335	2524.5745	13354.4	12464.05
979.4608	2525.9018	13325.55	12436
979.5881	2527.2284	13316.9	12428.8
979.7154	2528.5543	13268.85	12380.5
979.8426	2529.8796	13229.5	12338.95
979.9698	2531.2041	13203.8	12311.95
980.0969	2532.5279	13160.2	12272
980.224	2533.851	13147.5	12256.7
980.3511	2535.1735	13084.5	12195.3
980.4781	2536.4952	13043.8	12156.25
980.6052	2537.8163	13028.2	12136.6
980.7321	2539.1366	12956.1	12066.9
980.8591	2540.4562	12948.1	12055.65
980.986	2541.7752	12916.55	12027.15
981.1129	2543.0935	12879.05	11989.55
981.2397	2544.411	12866.3	11973.15
981.3665	2545.7279	12820	11930.6
981.4933	2547.0441	12771.15	11880.2
981.62	2548.3596	12791.75	11899.15
981.7467	2549.6744	12755.9	11866.4
981.8734	2550.9885	12700.95	11802.2
982.0001	2552.3019	12644.05	11753.85
982.1267	2553.6146	12626.1	11737
982.2532	2554.9266	12573.75	11682.6
982.3798	2556.2379	12532.45	11640.25
982.5063	2557.5485	12512.15	11622.35
982.6327	2558.8585	12490.35	11593.55
982.7592	2560.1677	12472.4	11578.55
982.8856	2561.4762	12408.4	11517.45
983.0119	2562.7841	12395.45	11503.8
983.1383	2564.0913	12340.25	11449.9
983.2646	2565.3977	12348.4	11459.1
983.3908	2566.7035	12300.4	11408.35
983.517	2568.0086	12277.8	11386
983.6432	2569.313	12244.05	11352.45
983.7694	2570.6167	12220.55	11325.5
983.8955	2571.9197	12158.55	11268.2
984.0216	2573.222	12158.9	11266.1
984.1476	2574.5236	12132.3	11239.65
984.2737	2575.8246	12076.75	11183.7
984.3996	2577.1248	12066.05	11171.4
984.5256	2578.4244	12035.75	11146.75
984.6515	2579.7232	12019.45	11130.8
984.7774	2581.0214	12031.55	11117
984.9032	2582.3189	11953	11064.35
985.029	2583.6157	11940.8	11045.05
985.1548	2584.9118	11905	11014.8
985.2806	2586.2072	11866.25	10976.75
985.4063	2587.5019	11829.2	10939.4
985.5319	2588.7959	11775.55	10887.35
985.6576	2590.0893	11786.5	10893.2
985.7832	2591.3819	11732.15	10841.95
985.9087	2592.6739	11665.95	10777.75
986.0343	2593.9652	11654.65	10762.75
986.1597	2595.2557	11627.85	10737.75
986.2852	2596.5456	11585.4	10692.95
986.4106	2597.8348	11533.85	10643.8
986.536	2599.1234	11486.1	10596.95
986.6614	2600.4112	11440.35	10548.3
986.7867	2601.6983	11399.65	10506.95
986.912	2602.9848	11368.55	10476.8
987.0372	2604.2705	11315	10420.05
987.1624	2605.5556	11291.7	10401.7
987.2876	2606.84	11235.65	10344.35
987.4128	2608.1237	11195.75	10305
987.5379	2609.4067	11161.65	10271.35
987.6629	2610.689	11110.25	10211.2
987.788	2611.9707	11080.55	10187.45
987.913	2613.2516	11027.7	10131.85
988.0379	2614.5319	10971.25	10081.6
988.1629	2615.8115	10934.35	10043.25
988.2878	2617.0903	10896.75	10006.1
988.4126	2618.3685	10841.5	9948.85
988.5375	2619.6461	10821.35	9931.55
988.6622	2620.9229	10780.05	9892.15
988.787	2622.199	10775.3	9883.6
988.9117	2623.4745	10729	9838.65
989.0364	2624.7493	10701.6	9813.05
989.161	2626.0234	10646.15	9756
989.2857	2627.2968	10603.4	9711.85
989.4102	2628.5695	10562.15	9670.2
989.5348	2629.8415	10501.5	9609.85
989.6593	2631.1128	10452.15	9561.55
989.7837	2632.3835	10417.55	9526.8
989.9082	2633.6535	10395.25	9505.4
990.0326	2634.9228	10365.7	9476.1
990.1569	2636.1914	10334	9445.2
990.2812	2637.4593	10279.45	9384.15
990.4055	2638.7265	10238.15	9346.65
990.5298	2639.9931	10192.7	9301.95
990.654	2641.259	10198.2	9307
990.7782	2642.5242	10175.9	9283.2
990.9023	2643.7887	10156.35	9266.5
991.0264	2645.0525	10101.6	9212.65
991.1505	2646.3156	10055.45	9163.6
991.2745	2647.5781	10037	9148
991.3985	2648.8398	9961.6	9070.75
991.5225	2650.1009	9987.3	9057.7
991.6464	2651.3613	9909.15	9018.5
991.7703	2652.6211	9886.1	8995.25
991.8942	2653.8801	9851	8963
992.018	2655.1385	9832.65	8941.45
992.1418	2656.3961	9814.4	8922.45
992.2655	2657.6531	9795.35	8906
992.3892	2658.9094	9772.35	8882.1
992.5129	2660.1651	9732.35	8845.2
992.6366	2661.42	9706.9	8816.4
992.7602	2662.6743	9697.7	8806.75
992.8837	2663.9279	9671	8781.6
993.0073	2665.1808	9615.25	8725.1
993.1307	2666.433	9565.6	8674.35
993.2542	2667.6846	9565.55	8676.55
993.3776	2668.9354	9550.35	8656.7
993.501	2670.1856	9486.85	8597.8
993.6244	2671.4351	9480.8	8590.3
993.7477	2672.6839	9467.8	8577.85
993.8709	2673.9321	9426.95	8537.2
993.9942	2675.1795	9392.85	8501.3
994.1174	2676.4263	9354.35	8464.7
994.2405	2677.6724	9325.7	8437.55
994.3637	2678.9179	9314.7	8425.75
994.4868	2680.1626	9292.25	8404.4
994.6098	2681.4067	9271	8379.75
994.7328	2682.6501	9229.7	8339.65
994.8558	2683.8928	9219.85	8329.4
994.9788	2685.1348	9173.3	8284
995.1017	2686.3761	9122.65	8233.45
995.2245	2687.6168	9106.25	8216.1
995.3474	2688.8568	9055.95	8166.4
995.4702	2690.0961	9019.3	8131.35
995.5929	2691.3348	9032.8	8143.4
995.7156	2692.5727	8984.25	8093.7
995.8383	2693.81	8939.8	8049.75
995.961	2695.0466	8936.45	8047.2
996.0836	2696.2826	8903.25	8011
996.2062	2697.5178	8872.2	7977.75
996.3287	2698.7524	8844.55	7955.4
996.4512	2699.9863	8830.6	7938.65
996.5737	2701.2195	8789.15	7899.55
996.6961	2702.452	8759.65	7868.05
996.8185	2703.6839	8733.3	7842.75
996.9408	2704.9151	8710.25	7820.75
997.0631	2706.1456	8663.6	7773.9
997.1854	2707.3755	8638.1	7748.5
997.3077	2708.6046	8629.2	7735.95
997.4299	2709.8331	8615.85	7725.8
997.552	2711.0609	8581.55	7691
997.6742	2712.2881	8562.4	7673.5
997.7963	2713.5145	8513.15	7620.15
997.9183	2714.7403	8504.65	7615.2
998.0403	2715.9654	8477.6	7587.35
998.1623	2717.1899	8463.65	7560.35
998.2842	2718.4136	8433.85	7545.8
998.4062	2719.6367	8412.75	7524.2
998.528	2720.8591	8413.45	7515.4
998.6498	2722.0809	8399.25	7510.7
998.7716	2723.3019	8347.45	7455.1
998.8934	2724.5223	8322.95	7433.9
999.0151	2725.7421	8309.8	7418.6
999.1368	2726.9611	8282.6	7389.75
999.2584	2728.1795	8265.65	7371.9
999.38	2729.3972	8211.7	7322.2
999.5016	2730.6142	8148.5	7255.7
999.6231	2731.8306	8113.4	7223.65
999.7446	2733.0462	8088.75	7196.4
999.8661	2734.2612	8041.1	7148.25
999.9875	2735.4756	7999.3	7107.7
1000.1089	2736.6892	7942.65	7050.4
1000.2302	2737.9022	7923.15	7036.1
1000.3515	2739.1145	7859.75	6968.75
1000.4728	2740.3262	7823.85	6927.05
1000.594	2741.5372	7785.35	6897.05
1000.7152	2742.7475	7757.2	6868
1000.8363	2743.9571	7747	6854.9
1000.9575	2745.1661	7704.85	6809.15
1001.0785	2746.3744	7694.05	6804.1
1001.1996	2747.582	7658.25	6769.6
1001.3206	2748.7889	7603.05	6710.85
1001.4415	2749.9952	7584.4	6696.6
1001.5625	2751.2008	7554.8	6663.8
1001.6833	2752.4057	7542.15	6650.55
1001.8042	2753.61	7519.05	6627.5
1001.925	2754.8136	7488.15	6597
1002.0458	2756.0165	7454	6564
1002.1665	2757.2188	7405.3	6515.7
1002.2872	2758.4204	7397.55	6508.45
1002.4078	2759.6213	7344.9	6452
1002.5285	2760.8215	7362.8	6467.7
1002.649	2762.0211	7308.3	6416.85
1002.7696	2763.22	7301.3	6408.95
1002.8901	2764.4182	7293.7	6404.3
1003.0106	2765.6158	7266.15	6375.55
1003.131	2766.8127	7239.75	6349.7
1003.2514	2768.009	7210.15	6322.3
1003.3717	2769.2045	7202.1	6311.55
1003.492	2770.3994	7159.05	6267.75
1003.6123	2771.5936	7142.8	6251.65
1003.7325	2772.7872	7106.6	6216.15
1003.8527	2773.9801	7083.45	6192.7
1003.9729	2775.1723	7071.2	6164.25
1004.093	2776.3639	7013.8	6125.65
1004.2131	2777.5548	7000.25	6109.75
1004.3331	2778.745	6985	6095.5
1004.4531	2779.9346	6953.7	6065.4
1004.5731	2781.1235	6947.15	6057.75
1004.693	2782.3117	6925.15	6036.05
1004.8129	2783.4992	6902.7	6011.85
1004.9328	2784.6861	6872.7	5982.35
1005.0526	2785.8723	6859	5970.1
1005.1723	2787.0579	6826.3	5937.5
1005.2921	2788.2428	6826.95	5937.65
1005.4118	2789.427	6790.65	5902.15
1005.5314	2790.6106	6771.75	5881.9
1005.651	2791.7935	6758.65	5870.3
1005.7706	2792.9757	6756.35	5868.1
1005.8902	2794.1573	6729.65	5839.95
1006.0097	2795.3382	6711.95	5823.35
1006.1291	2796.5184	6703.3	5813.45
1006.2485	2797.698	6699.8	5809.9
1006.3679	2798.8769	6681.25	5791.1
1006.4873	2800.0551	6677.25	5786.45
1006.6066	2801.2327	6650.85	5758
1006.7258	2802.4096	6650.8	5762.1
1006.8451	2803.5859	6649.25	5759.4
1006.9642	2804.7615	6633.7	5744.05
1007.0834	2805.9364	6648.45	5759.9
1007.2025	2807.1106	6649.25	5760.85
1007.3216	2808.2842	6633.55	5743.9
1007.4406	2809.4572	6651.8	5761.3
1007.5596	2810.6294	6670.25	5781.15
1007.6785	2811.801	6684.75	5795.65
1007.7975	2812.972	6696.7	5810
1007.9163	2814.1423	6706.3	5816.95
1008.0352	2815.3119	6736.9	5847.25
1008.154	2816.4808	6755.7	5866.85
1008.2727	2817.6491	6773.5	5883.85
1008.3914	2818.8167	6811.6	5923.05
1008.5101	2819.9837	6840.3	5947.2
1008.6288	2821.15	6855.9	5965.7
1008.7474	2822.3157	6880.5	5993.35
1008.8659	2823.4807	6908.2	6017.95
1008.9844	2824.645	6930.25	6040
1009.1029	2825.8086	6957.85	6068.95
1009.2214	2826.9716	6988.8	6098.8
1009.3398	2828.134	7025.55	6138.05
1009.4581	2829.2957	7047.5	6157
1009.5764	2830.4567	7058.3	6170.7
1009.6947	2831.617	7074.2	6183.75
1009.813	2832.7767	7066.15	6178.1
1009.9312	2833.9358	7040.6	6152.35
1010.0493	2835.0941	7018.4	6127.65
1010.1675	2836.2519	6993.4	6104.6
1010.2855	2837.4089	6944.55	6055
1010.4036	2838.5653	6948.95	6060.65
1010.5216	2839.7211	6929.75	6041.5
1010.6396	2840.8761	6932.55	6043.8
1010.7575	2842.0306	6941	6054.15
1010.8754	2843.1843	6974.65	6085.6
1010.9932	2844.3374	6965.8	6077.7
1011.111	2845.4899	6989	6098.8
1011.2288	2846.6417	7063	6174.8
1011.3465	2847.7928	7092.6	6204.3
1011.4642	2848.9433	7146.6	6257.8
1011.5818	2850.0931	7209.35	6319.1
1011.6995	2851.2422	7261.1	6370.8
1011.817	2852.3907	7316.6	6428
1011.9345	2853.5385	7357	6466.4
1012.052	2854.6857	7405.5	6506.5
1012.1695	2855.8323	7404.8	6516.15
1012.2869	2856.9781	7422.55	6534.05
1012.4042	2858.1233	7464.2	6577.1
1012.5216	2859.2679	7489.5	6599.9
1012.6389	2860.4118	7509.25	6621.1
1012.7561	2861.555	7547.75	6654.65
1012.8733	2862.6976	7554.85	6665.85
1012.9905	2863.8395	7563.65	6673.75
1013.1076	2864.9808	7580.95	6692.25
1013.2247	2866.1214	7571.4	6683.4
1013.3417	2867.2614	7562.5	6671.35
1013.4587	2868.4007	7557.55	6664.45
1013.5757	2869.5393	7553.25	6660.05
1013.6926	2870.6773	7527.25	6634.8
1013.8095	2871.8146	7544.1	6651.75
1013.9263	2872.9513	7501.2	6610.75
1014.0431	2874.0874	7488.2	6598.8
1014.1599	2875.2227	7448.65	6560.45
1014.2766	2876.3574	7412.4	6523.75
1014.3933	2877.4915	7384.05	6495.95
1014.51	2878.6249	7350.15	6461.1
1014.6266	2879.7577	7299.5	6409.5
1014.7431	2880.8898	7248.4	6349.15
1014.8596	2882.0212	7219.45	6330
1014.9761	2883.152	7184.7	6294.8
1015.0925	2884.2821	7162.7	6275.15
1015.2089	2885.4116	7134.7	6244.9
1015.3253	2886.5405	7116.8	6227.95
1015.4416	2887.6686	7103.55	6210.9
1015.5579	2888.7962	7078.15	6191
1015.6741	2889.923	7088.55	6200.8
1015.7903	2891.0493	7089.9	6200.45
1015.9065	2892.1748	7068.05	6179.65
1016.0226	2893.2997	7060.8	6171.9
1016.1387	2894.424	7071.45	6184.6
1016.2547	2895.5476	7037.4	6148.85
1016.3707	2896.6706	7066.4	6179.6
1016.4866	2897.7929	7074.9	6186.5
1016.6025	2898.9145	7059.8	6170.75
1016.7184	2900.0355	7084.7	6197.25
1016.8342	2901.1559	7101.65	6211.85
1016.95	2902.2756	7090.2	6198.9
1017.0658	2903.3946	7108.4	6219.75
1017.1815	2904.513	7102.85	6211.4
1017.2971	2905.6308	7117	6228.85
1017.4127	2906.7479	7114.8	6226.4
1017.5283	2907.8643	7119.45	6227.9
1017.6439	2908.9801	7123.05	6235.4
1017.7594	2910.0953	7114.9	6225.8
1017.8748	2911.2098	7101	6209.8
1017.9902	2912.3236	7089.05	6193.8
1018.1056	2913.4368	7064.5	6172.3
1018.2209	2914.5494	7021.55	6132.1
1018.3362	2915.6613	6958.3	6064.5
1018.4515	2916.7725	6921.45	6031.1
1018.5667	2917.8831	6901.3	6011.3
1018.6819	2918.9931	6857.4	5966.5
1018.797	2920.1024	6817.55	5927.15
1018.9121	2921.211	6800.25	5912.5
1019.0271	2922.319	6779.25	5889.9
1019.1421	2923.4264	6733.65	5845.4
1019.2571	2924.5331	6696.2	5808.75
1019.372	2925.6391	6695.95	5808.35
1019.4869	2926.7445	6648.5	5762.4
1019.6017	2927.8493	6651.4	5762.1
1019.7165	2928.9534	6592.35	5703.45
1019.8313	2930.0569	6593.9	5701.15
1019.946	2931.1597	6612.05	5721.15
1020.0606	2932.2619	6568.7	5680.6
1020.1753	2933.3634	6579.9	5690.5
1020.2899	2934.4643	6568.7	5673.65
1020.4044	2935.5645	6528.75	5634
1020.5189	2936.6641	6463.95	5569.45
1020.6334	2937.763	6422.6	5533.15
1020.7478	2938.8613	6364.25	5475.45
1020.8622	2939.959	6316.1	5423.55
1020.9765	2941.056	6226.4	5337.9
1021.0908	2942.1523	6147.4	5257.15
1021.2051	2943.248	6062.9	5173.5
1021.3193	2944.3431	5965.8	5078.45
1021.4334	2945.4375	5860	4970.7
1021.5476	2946.5313	5752	4863.6
1021.6617	2947.6244	5638.6	4749.55
1021.7757	2948.7169	5519.7	4631.55
1021.8897	2949.8087	5433.15	4544.75
1022.0037	2950.8999	5340.45	4451.7
1022.1176	2951.9904	5220.85	4333.35
1022.2315	2953.0803	5150.95	4260.95
1022.3453	2954.1696	5093.85	4205.75
1022.4591	2955.2582	5036.15	4148.55
1022.5728	2956.3462	4966.85	4077.35
1022.6865	2957.4335	4923.45	4033
1022.8002	2958.5202	4879.15	3989
1022.9138	2959.6062	4825.35	3935.75
1023.0274	2960.6916	4796.55	3906.8
1023.141	2961.7764	4771.3	3883.65
1023.2545	2962.8605	4735.65	3846.15
1023.3679	2963.9439	4720.75	3832.45
1023.4813	2965.0267	4680.5	3788.65
1023.5947	2966.1089	4691.35	3776.4
1023.708	2967.1905	4646.65	3758.85
1023.8213	2968.2714	4617.75	3731.7
1023.9346	2969.3516	4625.75	3735.65
1024.0478	2970.4312	4617.8	3722.4
1024.1609	2971.5102	4595.5	3708.5
1024.274	2972.5885	4558.85	3671.3
1024.3871	2973.6662	4573.4	3681
1024.5002	2974.7432	4568.05	3680.35
1024.6132	2975.8196	4544.3	3656.4
1024.7261	2976.8954	4507.8	3620.45
1024.839	2977.9705	4494.45	3604
1024.9519	2979.045	4481.05	3593
1025.0647	2980.1188	4455.05	3568.1
1025.1775	2981.192	4399.9	3512.95
1025.2902	2982.2645	4375.55	3487.6
1025.4029	2983.3364	4372.9	3483.05
1025.5156	2984.4077	4300.75	3412.8
1025.6282	2985.4783	4298.1	3403.9
1025.7407	2986.5483	4251.25	3363.65
1025.8532	2987.6177	4206.9	3316.85
1025.9657	2988.6864	4180.95	3293.05
1026.0782	2989.7545	4127.95	3238.2
1026.1906	2990.8219	4089.55	3202.35
1026.3029	2991.8887	4041.4	3150.3
1026.4152	2992.9548	4011.55	3120.9
1026.5275	2994.0204	3977.7	3090
1026.6397	2995.0852	3928.95	3042.75
1026.7519	2996.1495	3892.65	3003.3
1026.864	2997.2131	3867.25	2978.15
1026.9761	2998.276	3838.85	2950.05
1027.0882	2999.3383	3791.1	2902.4
1027.2002	3000.4	3769.6	2881.75
1027.3122	3001.4611	3756.7	2866.9
1027.4241	3002.5215	3733.15	2844.45
1027.536	3003.5812	3709.3	2820.45
1027.6478	3004.6404	3678.2	2789.15
1027.7596	3005.6989	3672.25	2782.45
1027.8714	3006.7567	3652.3	2765.7
1027.9831	3007.8139	3643.15	2732.8
1028.0947	3008.8705	3613.65	2726.25
1028.2064	3009.9264	3583	2692.35
1028.3179	3010.9818	3583.15	2694.35
1028.4295	3012.0364	3573.3	2684.5
1028.541	3013.0905	3549.25	2659.9
1028.6524	3014.1439	3553.3	2662.95
1028.7638	3015.1966	3526.55	2638.15
1028.8752	3016.2487	3518.55	2630.2
1028.9865	3017.3002	3508.7	2617.55
1029.0978	3018.3511	3500.55	2615
1029.209	3019.4013	3484.3	2597.2
1029.3202	3020.4509	3487.75	2599.7
1029.4314	3021.4998	3474.55	2588.2
1029.5425	3022.5481	3461.7	2573.15
1029.6535	3023.5958	3449.3	2562.85
1029.7645	3024.6428	3448.7	2559.5
1029.8755	3025.6892	3434.8	2547.05
1029.9864	3026.735	3436.75	2549.4
1030.0973	3027.7802	3414.2	2523.95
1030.2082	3028.8247	3399.75	2511.05
1030.319	3029.8685	3388.25	2498.65
1030.4297	3030.9118	3396.85	2507.2
1030.5404	3031.9544	3371	2482.4
1030.6511	3032.9963	3367.5	2479.55
1030.7617	3034.0376	3371.7	2481.8
1030.8723	3035.0783	3358.3	2468.1
1030.9829	3036.1184	3348.6	2459.85
1031.0934	3037.1578	3362.95	2476.15
1031.2038	3038.1966	3349.4	2461.2
1031.3142	3039.2348	3326.25	2439.2
1031.4246	3040.2723	3330.9	2432.6
1031.5349	3041.3092	3315.45	2427.7
1031.6452	3042.3455	3287.1	2400.3
1031.7554	3043.3811	3301.45	2413.8
1031.8656	3044.4161	3287.65	2398.45
1031.9758	3045.4505	3280.4	2395.25
1032.0859	3046.4842	3263.15	2372.1
1032.1959	3047.5173	3243.75	2355.3
1032.3059	3048.5498	3233.65	2347
1032.4159	3049.5816	3214.25	2325.5
1032.5258	3050.6128	3213.45	2324.95
1032.6357	3051.6434	3214.6	2326.05
1032.7455	3052.6734	3190.6	2302.25
1032.8553	3053.7027	3178.35	2291.3
1032.9651	3054.7314	3155.9	2267.15
1033.0748	3055.7594	3136.25	2247.45
1033.1845	3056.7868	3129.45	2239.05
1033.2941	3057.8136	3127.85	2239.9
1033.4037	3058.8398	3105.9	2218.2
1033.5132	3059.8653	3104.85	2218.7
1033.6227	3060.8902	3083.55	2195.5
1033.7321	3061.9145	3084.75	2194.6
1033.8415	3062.9381	3060.6	2172.9
1033.9509	3063.9612	3070.7	2166.75
1034.0602	3064.9835	3042.9	2153.7
1034.1694	3066.0053	3034.7	2146.35
1034.2787	3067.0264	3019.1	2131.5
1034.3878	3068.0469	3008.45	2119.65
1034.497	3069.0668	2994	2104.35
1034.6061	3070.086	2976.35	2090.15
1034.7151	3071.1046	2966.9	2078.75
1034.8241	3072.1226	2932.75	2043.7
1034.9331	3073.1399	2928.1	2039.9
1035.042	3074.1567	2925.95	2038.55
1035.1508	3075.1727	2901.1	2011.15
1035.2597	3076.1882	2891.05	2002.35
1035.3684	3077.203	2883.8	1996.15
1035.4772	3078.2173	2870.2	1978.8
1035.5859	3079.2308	2849.9	1957.6
1035.6945	3080.2438	2840.15	1948.95
1035.8031	3081.2561	2823.4	1935.5
1035.9117	3082.2678	2800.95	1912.55
1036.0202	3083.2789	2789.2	1900.95
1036.1286	3084.2893	2782.6	1894.25
1036.2371	3085.2991	2768	1877.05
1036.3454	3086.3083	2761.75	1868.7
1036.4538	3087.3169	2738.2	1849.6
1036.562	3088.3248	2731.45	1841.9
1036.6703	3089.3321	2731.85	1843.25
1036.7785	3090.3388	2709.15	1822
1036.8866	3091.3449	2687.6	1799.4
1036.9948	3092.3503	2688.65	1799.25
1037.1028	3093.3551	2675.1	1787.5
1037.2108	3094.3593	2666.1	1780.75
1037.3188	3095.3629	2661	1773.9
1037.4267	3096.3658	2643.7	1755.65
1037.5346	3097.3681	2642.8	1753
1037.6425	3098.3698	2626.1	1738.4
1037.7503	3099.3708	2625	1731.1
1037.858	3100.3713	2600.65	1712.55
1037.9657	3101.3711	2604.05	1714.75
1038.0734	3102.3702	2705.4	1686.8
1038.181	3103.3688	2582.35	1692.4
1038.2886	3104.3667	2552.7	1666.6
1038.3961	3105.364	2555.4	1667.3
1038.5036	3106.3607	2544.9	1656.45
1038.611	3107.3568	2529.55	1640.15
1038.7184	3108.3522	2514.55	1626.25
1038.8257	3109.347	2514.3	1624.6
1038.933	3110.3412	2503.8	1611.35
1039.0403	3111.3348	2487.95	1601
1039.1475	3112.3277	2479.6	1591.7
1039.2547	3113.32	2470.65	1582.55
1039.3618	3114.3117	2471.5	1583.9
1039.4689	3115.3028	2466	1578.35
1039.5759	3116.2932	2460.85	1570.9
1039.6829	3117.2831	2445	1549.9
1039.7898	3118.2723	2426.05	1537.8
1039.8967	3119.2608	2426.9	1538.25
1040.0035	3120.2488	2408.75	1519.1
1040.1103	3121.2361	2415.05	1526.1
1040.2171	3122.2229	2380.9	1493.2
1040.3238	3123.209	2395.6	1507.95
1040.4305	3124.1944	2383.05	1495.9
1040.5371	3125.1793	2372.75	1483.25
1040.6437	3126.1635	2367.1	1479.45
1040.7502	3127.1471	2349.85	1462.15
1040.8567	3128.1301	2355.5	1466.95
1040.9631	3129.1125	2348.05	1460.85
1041.0695	3130.0942	2336.05	1448
1041.1759	3131.0753	2337.5	1439.9
1041.2822	3132.0558	2329.15	1438.35
1041.3884	3133.0357	2314.25	1423.95
1041.4946	3134.015	2314.7	1426.05
1041.6008	3134.9936	2294.75	1403.9
1041.7069	3135.9716	2312.55	1405.1
1041.813	3136.949	2298.1	1408.2
1041.919	3137.9258	2283.1	1390.3
1042.025	3138.902	2281	1387.95
1042.1309	3139.8775	2265.45	1376.9
1042.2368	3140.8524	2256.65	1369.6
1042.3427	3141.8267	2254.3	1366.7
1042.4485	3142.8004	2250.8	1364.1
1042.5542	3143.7735	2262.95	1370.45
1042.6599	3144.7459	2243.25	1351.8
1042.7656	3145.7178	2246.6	1358.6
1042.8712	3146.689	2225.9	1338.15
1042.9768	3147.6596	2225.3	1334.75
1043.0823	3148.6295	2210.5	1322.1
1043.1878	3149.5989	2202.15	1314.65
1043.2932	3150.5676	2183.3	1297.25
1043.3986	3151.5357	2190.6	1305.45
1043.5039	3152.5032	2172.9	1285.9
1043.6092	3153.4701	2176.65	1289.3
1043.7145	3154.4364	2169.95	1280.4
1043.8197	3155.402	2155.35	1266.75
1043.9248	3156.367	2160.05	1270.8
1044.03	3157.3315	2186.35	1257.2
1044.135	3158.2952	2139.45	1250.9
1044.24	3159.2584	2128.7	1241.95
1044.345	3160.221	2119.75	1232.95
1044.4499	3161.1829	2110.8	1222.3
1044.5548	3162.1442	2113.6	1226.05
1044.6596	3163.105	2109.6	1219.05
1044.7644	3164.065	2087.1	1201.35
1044.8692	3165.0245	2090.85	1198.2
1044.9739	3165.9834	2082.05	1195.95
1045.0785	3166.9416	2073.25	1186.35
1045.1831	3167.8993	2065.95	1178.15
1045.2877	3168.8563	2058.5	1169.05
1045.3922	3169.8127	2057.2	1171.45
1045.4966	3170.7684	2050.5	1164.55
1045.6011	3171.7236	2046.15	1160.2
1045.7054	3172.6782	2038.05	1149.75
1045.8098	3173.6321	2039.45	1150.95
1045.914	3174.5854	2023.3	1130.85
1046.0183	3175.5381	2023.2	1134.75
1046.1224	3176.4902	2016.7	1130
1046.2266	3177.4417	2007.2	1122.9
1046.3307	3178.3926	2012.4	1126.25
1046.4347	3179.3428	1994.05	1108.45
1046.5387	3180.2924	1990.15	1101.85
1046.6427	3181.2415	1975.8	1088.9
1046.7466	3182.1899	1975.25	1087.2
1046.8504	3183.1377	1970.55	1082.45
1046.9542	3184.0848	1966.2	1074.95
1047.058	3185.0314	1960.7	1070.8
1047.1617	3185.9773	1951.85	1063.75
1047.2654	3186.9227	1946.45	1059.2
1047.369	3187.8674	1945.15	1057.7
1047.4726	3188.8115	1932.85	1041.8
1047.5761	3189.755	1932.45	1044.15
1047.6796	3190.6979	1928.15	1040.9
1047.783	3191.6402	1918.7	1032.05
1047.8864	3192.5818	1922.55	1036.25
1047.9898	3193.5229	1930.3	1021.6
1048.0931	3194.4633	1911.25	1022.7
1048.1963	3195.4031	1897.95	1010.45
1048.2995	3196.3423	1901.85	1014.35
1048.4027	3197.2809	1888.45	1001.8
1048.5058	3198.2189	1882.85	996.3
1048.6089	3199.1563	1887.35	993.2
1048.7119	3200.0931	1873.85	985.6
1048.8148	3201.0292	1863.8	976.95
1048.9178	3201.9648	1856.75	968.6
1049.0206	3202.8997	1862.5	973.6
1049.1235	3203.834	1855.2	968.3
1049.2262	3204.7677	1845.3	958.75
1049.329	3205.7008	1843.1	955
1049.4317	3206.6333	1833.15	947
1049.5343	3207.5652	1836	946.65
1049.6369	3208.4964	1833.65	944.05
1049.7394	3209.4271	1825.75	939.6
1049.8419	3210.3571	1819.65	932.85
1049.9444	3211.2865	1821.75	934
1050.0468	3212.2154	1809.7	921.3
1050.1491	3213.1436	1819.3	928.55
1050.2514	3214.0712	1811.1	916.3
1050.3537	3214.9982	1797.9	911.65
1050.4559	3215.9246	1786.35	899.25
1050.5581	3216.8503	1784.3	900.6
1050.6602	3217.7755	1784.95	898.35
1050.7623	3218.7001	1780.25	893.55
1050.8643	3219.624	1777.15	889.85
1050.9663	3220.5473	1774.7	888.55
1051.0682	3221.4701	1767.1	876.45
1051.1701	3222.3922	1753.55	863.1
1051.2719	3223.3137	1761.25	874.35
1051.3737	3224.2346	1752.25	865.85
1051.4754	3225.1549	1742.2	854.95
1051.5771	3226.0746	1740.1	853
1051.6788	3226.9937	1729.2	842.3
1051.7804	3227.9121	1738.65	852.5
1051.8819	3228.83	1733.35	846.45
1051.9834	3229.7473	1724.6	835.25
1052.0849	3230.6639	1729.75	844.15
1052.1863	3231.5799	1719.4	831.9
1052.2876	3232.4954	1705.9	818.2
1052.3889	3233.4102	1703.2	816.05
1052.4902	3234.3244	1703.15	817.3
1052.5914	3235.238	1691.2	803.95
1052.6926	3236.151	1713.75	801.5
1052.7937	3237.0634	1683.15	796.05
1052.8948	3237.9752	1678	791.75
1052.9958	3238.8864	1679.4	792.25
1053.0968	3239.797	1677.95	791.35
1053.1977	3240.7069	1677.3	789.3
1053.2986	3241.6163	1661.1	773.25
1053.3994	3242.5251	1657.75	770.35
1053.5002	3243.4332	1660.6	773.15
1053.6009	3244.3408	1640.4	753.85
1053.7016	3245.2477	1645.95	757.35
1053.8022	3246.154	1643.3	755.5
1053.9028	3247.0598	1640.05	752
1054.0034	3247.9649	1627.15	738.15
1054.1039	3248.8694	1630.8	743.65
1054.2043	3249.7733	1619.45	731.7
1054.3047	3250.6766	1612.5	724
1054.4051	3251.5793	1603.85	716.75
1054.5054	3252.4814	1605.1	717.85
1054.6056	3253.3829	1593.8	706.3
1054.7058	3254.2838	1602.4	714.65
1054.806	3255.1841	1593.15	706.1
1054.9061	3256.0838	1594.95	709.5
1055.0061	3256.9829	1580.75	695.45
1055.1062	3257.8814	1576.9	688.85
1055.2061	3258.7792	1570.2	680.45
1055.306	3259.6765	1559.6	669.05
1055.4059	3260.5731	1555.4	668.55
1055.5057	3261.4692	1544	655.2
1055.6055	3262.3647	1540.9	651.3
1055.7052	3263.2595	1521.95	635.3
1055.8049	3264.1538	1520.85	633.25
1055.9045	3265.0474	1507.8	619.8
1056.0041	3265.9404	1505.35	618.2
1056.1036	3266.8329	1490.35	602.95
1056.2031	3267.7247	1491.7	592.75
1056.3025	3268.616	1468	581
1056.4019	3269.5066	1456.2	569.35
1056.5013	3270.3966	1439.35	549.65
1056.6005	3271.286	1422.3	535.95
