Software Version:	3.9.2.0
Unit SN:	10000200
Spectrometer SN:	6960
Date:	3/6/2024 10:20:06 AM
Data Line Index:	25
Spectral Points:	2048
Integration time (ms):	125
Averages:	20
Delay (ms):	30
Sequence Number:	1
Processing:	dark subtract
Laser Power (mW):	305
Laser Current (mA):	826
Laser Diode Temp (C):	25.1
Laser Case Temp (C):	25.4
System Temp (C):	25.2
Spectrometer Temp (C):	22.7
CCD Temp (C):	0.01
Secondary Temp (C):	20.007
Heatsink Temp (C):	20.535
CCDPCB Temp (C):	34.295
SecondaryPCB Temp (C):	26.858

Wavelength	RamanShift	Raw Counts	Dark Subtracted
787.061	30.1047	1063.6	653.95
787.2016	32.3739	1095.9	688.55
787.3422	34.6426	1135.55	727.55
787.4828	36.9109	1174.35	763.2
787.6235	39.1787	1233.65	818.9
787.7642	41.4461	1283.3	864.05
787.9049	43.7131	1331.9	909.3
788.0456	45.9796	1393.5	968.05
788.1863	48.2456	1455.1	1025.4
788.3271	50.5112	1524.35	1092.35
788.4679	52.7764	1579.9	1145.7
788.6087	55.0411	1653.15	1213.7
788.7496	57.3054	1724.6	1276
788.8904	59.5692	1809.6	1361
789.0313	61.8326	1896.65	1446
789.1722	64.0955	1986.7	1532.6
789.3132	66.3579	2105.45	1644.4
789.4541	68.6199	2252.45	1788.15
789.5951	70.8815	2502	2034.65
789.7361	73.1426	3018.1	2546
789.8771	75.4032	4335.45	3860.9
790.0181	77.6634	7712.6	7233.05
790.1592	79.9231	16602.45	16116.35
790.3003	82.1824	51912.3	51414.15
790.4414	84.4412	65535	65018.05
790.5825	86.6995	65535	64991.2
790.7237	88.9574	65535	64966.65
790.8648	91.2148	65535	64950.5
791.006	93.4717	65535	64941.2
791.1472	95.7282	65535	64933.4
791.2885	97.9842	65535	64932.1
791.4297	100.2398	65535	64925.65
791.571	102.4949	65535	64926.15
791.7123	104.7495	65535	64918.9
791.8536	107.0036	65535	64925.5
791.9949	109.2573	65535	64922.35
792.1363	111.5105	65535	64922.1
792.2777	113.7632	65535	64917.45
792.4191	116.0154	65535	64904
792.5605	118.2672	65535	64912.45
792.7019	120.5185	65535	64910.3
792.8434	122.7693	65535	64908.35
792.9849	125.0197	65535	64900.45
793.1264	127.2696	65535	64900.75
793.2679	129.519	65535	64898.95
793.4094	131.7679	65535	64894.1
793.551	134.0163	65535	64890.8
793.6926	136.2642	65535	64887.85
793.8342	138.5117	65535	64879.6
793.9758	140.7587	65535	64890.55
794.1175	143.0052	65535	64881.05
794.2591	145.2512	65535	64881.75
794.4008	147.4967	65535	64876.2
794.5425	149.7417	65535	64876.4
794.6842	151.9863	65535	64872.85
794.826	154.2304	65535	64870.1
794.9677	156.4739	65535	64863.25
795.1095	158.717	65535	64866.5
795.2513	160.9596	65535	64861.9
795.3931	163.2017	65535	64857.4
795.535	165.4433	65535	64858.45
795.6768	167.6844	65535	64854.7
795.8187	169.925	65535	64853.85
795.9606	172.1651	65535	64850.5
796.1025	174.4047	65535	64844.75
796.2445	176.6439	65535	64848.5
796.3864	178.8825	65535	64840.35
796.5284	181.1206	65535	64838.45
796.6704	183.3582	65535	64831.3
796.8124	185.5954	65535	64829.3
796.9544	187.832	65535	64826.4
797.0965	190.0681	65535	64827.1
797.2386	192.3037	65535	64821.9
797.3806	194.5388	65535	64817.5
797.5228	196.7734	65535	64811.8
797.6649	199.0075	65535	64815.1
797.807	201.2411	65535	64813.95
797.9492	203.4742	65535	64813.25
798.0914	205.7068	65535	64809.3
798.2336	207.9389	65535	64809.4
798.3758	210.1704	65535	64808.6
798.518	212.4015	65535	64816.3
798.6603	214.632	65535	64821.95
798.8025	216.862	65535	64828.4
798.9448	219.0915	65535	64831
799.0871	221.3205	65535	64823.75
799.2294	223.549	65535	64830
799.3718	225.777	65535	64831.85
799.5141	228.0044	65535	64822.6
799.6565	230.2314	65535	64825.3
799.7989	232.4578	65535	64816.95
799.9413	234.6837	65535	64809.85
800.0837	236.909	65535	64808.95
800.2262	239.1339	65535	64785.4
800.3687	241.3582	65535	64799.3
800.5111	243.582	65535	64767.6
800.6536	245.8053	65535	64782.85
800.7961	248.0281	65535	64785.4
800.9387	250.2503	65535	64783.35
801.0812	252.472	65535	64781.5
801.2238	254.6932	65535	64781.5
801.3664	256.9139	65535	64782.5
801.509	259.134	65535	64774.7
801.6516	261.3536	65535	64776.45
801.7942	263.5727	65535	64774.9
801.9369	265.7912	65535	64774.9
802.0795	268.0092	65535	64775.5
802.2222	270.2267	65535	64774.2
802.3649	272.4436	65535	64776.4
802.5076	274.6601	65535	64761.85
802.6504	276.8759	65535	64768.95
802.7931	279.0913	65535	64766.35
802.9359	281.3061	65535	64766.5
803.0787	283.5204	65535	64765.95
803.2215	285.7341	65535	64758.4
803.3643	287.9473	65535	64748.2
803.5071	290.16	65535	64756.6
803.6499	292.3721	65535	64758.9
803.7928	294.5837	65535	64759.85
803.9357	296.7947	65535	64761.15
804.0786	299.0052	65535	64757.7
804.2215	301.2152	65535	64757.85
804.3644	303.4246	65535	64760.85
804.5074	305.6334	65535	64760.25
804.6503	307.8418	65535	64757.5
804.7933	310.0495	65535	64752.4
804.9363	312.2568	65535	64752.85
805.0793	314.4635	65535	64752.25
805.2223	316.6696	65535	64751.2
805.3653	318.8752	65535	64737.75
805.5084	321.0802	65535	64748.6
805.6514	323.2847	65535	64746.2
805.7945	325.4887	65535	64746.05
805.9376	327.692	65535	64744.55
806.0807	329.8949	65535	64742.55
806.2238	332.0972	65535	64742.15
806.367	334.2989	65535	64738.15
806.5101	336.5001	65535	64738.05
806.6533	338.7007	65535	64739.2
806.7965	340.9008	65535	64735.95
806.9397	343.1003	65535	64734.55
807.0829	345.2992	65535	64736.85
807.2261	347.4976	65535	64734.5
807.3693	349.6955	65535	64728.1
807.5126	351.8927	65535	64733.9
807.6559	354.0895	65535	64717.2
807.7991	356.2856	65535	64726.25
807.9424	358.4812	65535	64725.55
808.0857	360.6763	65535	64725.7
808.2291	362.8707	65535	64724.2
808.3724	365.0646	65535	64718.7
808.5158	367.258	65535	64719.9
808.6591	369.4508	65535	64711.25
808.8025	371.643	65535	64715
808.9459	373.8346	65535	64716.85
809.0893	376.0257	65535	64708.55
809.2327	378.2162	65535	64713.2
809.3762	380.4062	65535	64709.15
809.5196	382.5956	65535	64708.7
809.6631	384.7844	65535	64716
809.8066	386.9726	65535	64713.95
809.9501	389.1603	65535	64717.85
810.0936	391.3474	65535	64673.65
810.2371	393.5339	65535	64720.4
810.3806	395.7199	65535	64720.6
810.5241	397.9052	65535	64721.65
810.6677	400.09	65535	64716.75
810.8113	402.2743	65535	64717.45
810.9548	404.4579	65535	64718.75
811.0984	406.641	65535	64713.4
811.2421	408.8235	65535	64713.1
811.3857	411.0054	65535	64711.75
811.5293	413.1868	65535	64711
811.673	415.3675	65535	64705.65
811.8166	417.5477	65535	64706.1
811.9603	419.7273	65535	64703.45
812.104	421.9064	65535	64695.3
812.2477	424.0848	65535	64701.75
812.3914	426.2627	65535	64700.5
812.5351	428.4399	65535	64701.2
812.6788	430.6166	65535	64696.3
812.8226	432.7928	65535	64693.7
812.9663	434.9683	65535	64694.25
813.1101	437.1432	65535	64694.4
813.2539	439.3176	65535	64695.2
813.3977	441.4914	65535	64694.4
813.5415	443.6645	65535	64693.45
813.6853	445.8371	65535	64691.25
813.8291	448.0091	65535	64696.8
813.973	450.1806	65535	64695.35
814.1168	452.3514	65535	64689.45
814.2607	454.5216	65535	64683.2
814.4046	456.6913	65535	64687.05
814.5485	458.8603	65535	64692.1
814.6924	461.0288	65535	64691.35
814.8363	463.1967	65535	64691.7
814.9802	465.3639	65535	64690.85
815.1241	467.5306	65535	64687.5
815.2681	469.6967	65535	64691.45
815.412	471.8622	65535	64688.7
815.556	474.0271	65535	64690.9
815.7	476.1914	65535	64685.7
815.844	478.3551	65535	64688.55
815.988	480.5182	65535	64687.75
816.132	482.6807	65535	64686.85
816.276	484.8426	65535	64689.4
816.4201	487.0039	65535	64687.05
816.5641	489.1647	65535	64682.15
816.7082	491.3248	65535	64684.85
816.8522	493.4843	65535	64686.7
816.9963	495.6432	65535	64682.95
817.1404	497.8015	65535	64676.75
817.2845	499.9592	65535	64683.4
817.4286	502.1163	65535	64680.35
817.5727	504.2728	65535	64679.6
817.7168	506.4287	65535	64681
817.861	508.5839	65535	64681.55
818.0051	510.7386	65535	64680.4
818.1493	512.8927	65535	64675.05
818.2935	515.0461	65535	64677.65
818.4377	517.199	65535	64677.65
818.5818	519.3512	65535	64677.5
818.726	521.5029	65535	64672.5
818.8703	523.6539	65535	64675.7
819.0145	525.8043	65535	64673.9
819.1587	527.9541	65535	64670.9
819.303	530.1033	65535	64673.05
819.4472	532.2519	65535	64671.65
819.5915	534.3999	65535	64671.9
819.7357	536.5472	65535	64671.1
819.88	538.694	65535	64669.45
820.0243	540.8401	65535	64669.85
820.1686	542.9856	65535	64667.3
820.3129	545.1305	65535	64668.85
820.4572	547.2748	65535	64666.9
820.6016	549.4185	65535	64662.2
820.7459	551.5615	65535	64668.4
820.8902	553.704	65535	64665.55
821.0346	555.8458	65535	64668
821.1789	557.987	65535	64669.65
821.3233	560.1276	65535	64665.7
821.4677	562.2675	65535	64670.7
821.6121	564.4069	65535	64670.35
821.7565	566.5456	65535	64666.1
821.9009	568.6837	65535	64668.2
822.0453	570.8212	65535	64668.5
822.1897	572.958	65535	64667.3
822.3342	575.0942	65535	64668.6
822.4786	577.2299	65535	64670.25
822.6231	579.3648	65535	64668.5
822.7675	581.4992	65535	64669.45
822.912	583.6329	65535	64669.15
823.0565	585.766	65535	64670.3
823.201	587.8985	65535	64668.05
823.3454	590.0304	65535	64645.5
823.4899	592.1616	65535	64660.8
823.6345	594.2922	65535	64665.15
823.779	596.4222	65535	64662.1
823.9235	598.5515	65535	64663.3
824.068	600.6802	65535	64660.4
824.2126	602.8083	65535	64666.15
824.3571	604.9358	65535	64658.6
824.5017	607.0626	65535	64659.85
824.6462	609.1888	65535	64657.85
824.7908	611.3144	65535	64659.3
824.9354	613.4393	65535	64657.95
825.08	615.5636	65535	64658.75
825.2246	617.6873	65535	64660.7
825.3692	619.8103	65535	64658.15
825.5138	621.9327	65535	64657.8
825.6584	624.0544	65535	64661.1
825.803	626.1756	65535	64658.15
825.9477	628.2961	65535	64657.25
826.0923	630.4159	65535	64656.8
826.237	632.5351	65535	64656.5
826.3816	634.6537	65535	64656.5
826.5263	636.7716	65535	64656.1
826.6709	638.8889	65535	64653.65
826.8156	641.0056	65535	64653.9
826.9603	643.1216	65535	64654.85
827.105	645.237	65535	64651.3
827.2497	647.3518	65535	64655.45
827.3944	649.4659	65535	64656.35
827.5391	651.5793	65535	64654.75
827.6838	653.6922	65535	64656.85
827.8285	655.8043	65535	64653.4
827.9733	657.9159	65535	64650.75
828.118	660.0268	65535	64649.75
828.2627	662.137	65535	64650.2
828.4075	664.2466	65535	64650.65
828.5522	666.3556	65535	64651.45
828.697	668.4639	65535	64649.6
828.8418	670.5716	65535	64655.6
828.9865	672.6786	65535	64652.15
829.1313	674.785	65535	64649.7
829.2761	676.8907	65535	64654.15
829.4209	678.9958	65535	64653.6
829.5657	681.1002	65535	64649.85
829.7105	683.204	65535	64647.4
829.8553	685.3072	65535	64648.05
830.0001	687.4097	65535	64646.5
830.1449	689.5115	65535	64645.9
830.2898	691.6127	65535	64651.9
830.4346	693.7132	65535	64646.75
830.5794	695.8131	65535	64624.7
830.7243	697.9123	65535	64649.8
830.8691	700.0109	65535	64646.6
831.014	702.1089	65535	64650.15
831.1588	704.2061	65535	64646.6
831.3037	706.3028	65535	64645
831.4486	708.3987	65535	64647.05
831.5935	710.4941	65535	64645.5
831.7383	712.5887	65535	64646.1
831.8832	714.6827	65535	64642.25
832.0281	716.7761	65535	64647.8
832.173	718.8688	65535	64645.35
832.3179	720.9608	65535	64637
832.4628	723.0522	65535	64640.2
832.6077	725.1429	65535	64644.15
832.7527	727.233	65535	64643
832.8976	729.3224	65535	64643.55
833.0425	731.4112	65535	64643.2
833.1874	733.4993	65535	64642.35
833.3324	735.5867	65535	64641.5
833.4773	737.6735	65535	64643.05
833.6222	739.7596	65535	64640.95
833.7672	741.845	65535	64642.2
833.9122	743.9298	65535	64639.65
834.0571	746.014	65535	64642.15
834.2021	748.0974	65535	64640
834.347	750.1802	65535	64642.15
834.492	752.2624	65535	64643.35
834.637	754.3439	65535	64640.1
834.782	756.4247	65535	64629.5
834.9269	758.5048	65535	64640.95
835.0719	760.5843	65535	64641.4
835.2169	762.6631	65535	64642.05
835.3619	764.7413	65535	64643.25
835.5069	766.8188	65535	64639.2
835.6519	768.8956	65535	64640.5
835.7969	770.9718	65535	64639.7
835.9419	773.0473	65535	64639.85
836.0869	775.1221	65535	64642.5
836.232	777.1962	65535	64640.85
836.377	779.2697	65535	64639.1
836.522	781.3426	65535	64622.05
836.667	783.4147	65535	64636.5
836.8121	785.4862	65535	64640.3
836.9571	787.557	65535	64639.95
837.1021	789.6271	65535	64639
837.2472	791.6966	65535	64639.7
837.3922	793.7654	65535	64640.85
837.5373	795.8335	65535	64639.35
837.6823	797.901	65535	64640.8
837.8274	799.9678	65535	64635.55
837.9724	802.0339	65535	64641.5
838.1175	804.0993	65535	64629.45
838.2626	806.1641	65535	64636.55
838.4076	808.2282	65535	64639.75
838.5527	810.2916	65535	64635.6
838.6978	812.3544	65535	64640.1
838.8428	814.4164	65535	64638.35
838.9879	816.4778	65535	64632.05
839.133	818.5385	65535	64637.2
839.2781	820.5986	65535	64636.85
839.4232	822.658	65535	64638.35
839.5682	824.7166	65535	64638.15
839.7133	826.7747	65535	64636.75
839.8584	828.832	65535	64636.9
840.0035	830.8886	65535	64632.65
840.1486	832.9446	65535	64634.55
840.2937	834.9999	65535	64639.25
840.4388	837.0545	65535	64635.1
840.5839	839.1085	65535	64634
840.729	841.1618	65535	64633.65
840.8741	843.2143	65535	64637.25
841.0192	845.2662	65535	64637.05
841.1643	847.3175	65535	64636.8
841.3095	849.368	65535	64637.75
841.4546	851.4179	65535	64636.35
841.5997	853.467	65535	64636.75
841.7448	855.5155	65535	64637.4
841.8899	857.5633	65535	64636.2
842.0351	859.6105	65535	64637.45
842.1802	861.6569	65535	64634.6
842.3253	863.7027	65535	64635.4
842.4704	865.7478	65535	64634.75
842.6156	867.7922	65535	64637.45
842.7607	869.8359	65535	64634.8
842.9058	871.8789	65535	64635.15
843.0509	873.9212	65535	64603.3
843.1961	875.9629	65535	64632.55
843.3412	878.0039	65535	64634.55
843.4863	880.0441	65535	64637.3
843.6315	882.0837	65535	64635.7
843.7766	884.1226	65535	64635.7
843.9218	886.1609	65535	64634.3
844.0669	888.1984	65535	64635.75
844.212	890.2352	65535	64638.75
844.3572	892.2714	65535	64632.95
844.5023	894.3069	65535	64636.65
844.6475	896.3416	65535	64634.5
844.7926	898.3757	65535	64635.45
844.9377	900.4091	65535	64632.5
845.0829	902.4418	65535	64630.25
845.228	904.4739	65535	64631.2
845.3732	906.5052	65535	64631.35
845.5183	908.5358	65535	64633
845.6635	910.5658	65535	64632.7
845.8086	912.595	65535	64634.8
845.9538	914.6236	65535	64631.3
846.0989	916.6515	65535	64633.55
846.2441	918.6786	65535	64633.4
846.3892	920.7051	65535	64633.25
846.5344	922.7309	65535	64633.4
846.6795	924.756	65535	64634.6
846.8246	926.7804	65535	64632.3
846.9698	928.8041	65535	64630.55
847.1149	930.8272	65535	64634.05
847.2601	932.8495	65535	64631
847.4052	934.8711	65535	64630.6
847.5504	936.892	65535	64632.15
847.6955	938.9123	65535	64629.5
847.8407	940.9318	65535	64634.35
847.9858	942.9506	65535	64633.45
848.131	944.9688	65535	64631.1
848.2761	946.9862	65535	64631.95
848.4213	949.003	65535	64631.6
848.5664	951.019	65535	64631.4
848.7115	953.0344	65535	64631.5
848.8567	955.0491	65535	64632.9
849.0018	957.063	65535	64632.6
849.147	959.0763	65535	64634.65
849.2921	961.0888	65535	64632.45
849.4373	963.1007	65535	64630.6
849.5824	965.1119	65535	64633.5
849.7275	967.1223	65535	64632.65
849.8727	969.1321	65535	64634.15
850.0178	971.1412	65535	64634.25
850.1629	973.1495	65535	64634
850.3081	975.1572	65535	64601.05
850.4532	977.1641	65535	64631.7
850.5983	979.1704	65535	64633.2
850.7435	981.1759	65535	64630.4
850.8886	983.1808	65535	64631.65
851.0337	985.1849	65535	64621.05
851.1788	987.1884	65535	64631.8
851.324	989.1911	65535	64628.35
851.4691	991.1932	65535	64630.75
851.6142	993.1945	65535	64632.15
851.7593	995.1951	65535	64633.9
851.9045	997.1951	65535	64624.75
852.0496	999.1943	65535	64632.45
852.1947	1001.1928	65535	64631.75
852.3398	1003.1906	65535	64630.8
852.4849	1005.1877	65535	64631.45
852.63	1007.1841	65535	64631.15
852.7751	1009.1798	65535	64635.3
852.9202	1011.1748	65535	64630.55
853.0653	1013.1691	65535	64632.95
853.2104	1015.1627	65535	64632.75
853.3555	1017.1556	65535	64632.45
853.5006	1019.1477	65535	64630
853.6457	1021.1392	65535	64633.55
853.7908	1023.1299	65535	64634.2
853.9359	1025.12	65535	64634.15
854.081	1027.1093	65535	64636.3
854.2261	1029.0979	65535	64638.5
854.3712	1031.0859	65535	64633.6
854.5163	1033.0731	65535	64634.7
854.6613	1035.0596	65535	64635.3
854.8064	1037.0454	65535	64632.7
854.9515	1039.0304	65535	64633.7
855.0965	1041.0148	65535	64632.35
855.2416	1042.9985	65535	64632.75
855.3867	1044.9814	65535	64633.4
855.5317	1046.9636	65535	64630.55
855.6768	1048.9452	65535	64632.2
855.8219	1050.926	65535	64631.6
855.9669	1052.9061	65535	64633.3
856.112	1054.8855	65535	64633.1
856.257	1056.8642	65535	64633.55
856.4021	1058.8421	65535	64629.8
856.5471	1060.8194	65535	64632.9
856.6921	1062.7959	65535	64632.5
856.8372	1064.7717	65535	64631.75
856.9822	1066.7469	65535	64633.45
857.1272	1068.7213	65535	64628.7
857.2723	1070.695	65535	64632.95
857.4173	1072.6679	65535	64633
857.5623	1074.6402	65535	64633.7
857.7073	1076.6117	65535	64628.2
857.8523	1078.5826	65535	64633.2
857.9973	1080.5527	65535	64628.15
858.1423	1082.5221	65535	64633.4
858.2873	1084.4908	65535	64631.55
858.4323	1086.4587	65535	64631.4
858.5773	1088.426	65535	64632.5
858.7223	1090.3925	65535	64626.25
858.8673	1092.3584	65535	64631.55
859.0123	1094.3235	65535	64632.35
859.1573	1096.2879	65535	64630.45
859.3022	1098.2515	65535	64632.85
859.4472	1100.2145	65535	64633.85
859.5922	1102.1767	65535	64630.3
859.7371	1104.1382	65535	64631.25
859.8821	1106.099	65535	64629.4
860.027	1108.0591	65535	64629.85
860.172	1110.0185	65535	64632.65
860.3169	1111.9771	65535	64634.5
860.4619	1113.9351	65535	64633.5
860.6068	1115.8923	65535	64634.4
860.7517	1117.8488	65535	64628.35
860.8967	1119.8045	65535	64629.85
861.0416	1121.7596	65535	64632.1
861.1865	1123.7139	65535	64633.8
861.3314	1125.6675	65535	64631.25
861.4763	1127.6204	65535	64633.15
861.6212	1129.5726	65535	64629.95
861.7661	1131.524	65535	64632.65
861.911	1133.4748	65535	64631.95
862.0559	1135.4248	65535	64629.15
862.2008	1137.3741	65535	64632.5
862.3457	1139.3226	65535	64630.45
862.4905	1141.2705	65535	64634.05
862.6354	1143.2176	65535	64628.25
862.7803	1145.164	65535	64630.5
862.9251	1147.1097	65535	64632.95
863.07	1149.0546	65535	64631.05
863.2148	1150.9989	65535	64630.85
863.3597	1152.9424	65535	64633.3
863.5045	1154.8852	65535	64631.2
863.6493	1156.8272	65535	64632.7
863.7942	1158.7686	65535	64625.1
863.939	1160.7092	65535	64630.35
864.0838	1162.6491	65535	64630.5
864.2286	1164.5883	65535	64630.6
864.3734	1166.5267	65535	64631.5
864.5182	1168.4644	65535	64631.8
864.663	1170.4014	65535	64627.55
864.8078	1172.3377	65535	64635.55
864.9526	1174.2732	65535	64632.1
865.0974	1176.2081	65535	64636.3
865.2421	1178.1421	65535	64627.85
865.3869	1180.0755	65535	64634.3
865.5317	1182.0082	65535	64631.8
865.6764	1183.9401	65535	64631.9
865.8212	1185.8713	65535	64635.3
865.9659	1187.8017	65535	64633.95
866.1106	1189.7315	65535	64637.85
866.2554	1191.6605	65535	64606.45
866.4001	1193.5888	65535	64634.95
866.5448	1195.5163	65535	64634.05
866.6895	1197.4432	65535	64633.35
866.8342	1199.3693	65535	64634.4
866.9789	1201.2947	65535	64631.1
867.1236	1203.2193	65535	64631.55
867.2683	1205.1432	65535	64632.85
867.413	1207.0664	65535	64633.6
867.5576	1208.9889	65535	64630.35
867.7023	1210.9106	65535	64634.9
867.847	1212.8316	65535	64634.2
867.9916	1214.7519	65535	64625.1
868.1363	1216.6715	65535	64633.6
868.2809	1218.5903	65535	64630.95
868.4255	1220.5084	65535	64633.4
868.5701	1222.4257	65535	64632.7
868.7148	1224.3424	65535	64634.15
868.8594	1226.2583	65535	64629.05
869.004	1228.1735	65535	64632.65
869.1486	1230.0879	65535	64630.35
869.2932	1232.0016	65535	64632.85
869.4377	1233.9146	65535	64630.35
869.5823	1235.8269	65535	64632.3
869.7269	1237.7384	65535	64633.85
869.8715	1239.6492	65535	64634.2
870.016	1241.5592	65535	64633.15
870.1606	1243.4686	65535	64632.6
870.3051	1245.3772	65535	64634.35
870.4496	1247.285	65535	64631.65
870.5941	1249.1922	65535	64634.75
870.7387	1251.0986	65535	64635
870.8832	1253.0042	65535	64632.2
871.0277	1254.9092	65535	64634.95
871.1722	1256.8134	65535	64632.55
871.3167	1258.7169	65535	64632.45
871.4611	1260.6196	65535	64636.2
871.6056	1262.5216	65535	64630.95
871.7501	1264.4229	65535	64632.6
871.8945	1266.3234	65535	64633.9
872.039	1268.2232	65535	64633.1
872.1834	1270.1223	65535	64633
872.3278	1272.0207	65535	64633.1
872.4723	1273.9183	65535	64626.4
872.6167	1275.8151	65535	64632.95
872.7611	1277.7113	65535	64633.45
872.9055	1279.6067	65535	64634.85
873.0499	1281.5014	65535	64630.6
873.1943	1283.3953	65535	64634.45
873.3386	1285.2885	65535	64636.25
873.483	1287.181	65535	64633.3
873.6274	1289.0727	65535	64635.2
873.7717	1290.9637	65535	64634.05
873.9161	1292.854	65535	64633.25
874.0604	1294.7435	65535	64633.35
874.2047	1296.6323	65535	64631.9
874.349	1298.5204	65535	64629.65
874.4933	1300.4077	65535	64631
874.6376	1302.2943	65535	64633.55
874.7819	1304.1802	65535	64635.4
874.9262	1306.0653	65535	64632.05
875.0705	1307.9497	65535	64634.6
875.2147	1309.8333	65535	64634.25
875.359	1311.7162	65535	64632.1
875.5032	1313.5984	65535	64631.3
875.6475	1315.4798	65535	64622.2
875.7917	1317.3605	65535	64619
875.9359	1319.2405	65535	64631.95
876.0801	1321.1197	65535	64630.6
876.2243	1322.9982	65535	64631.1
876.3685	1324.876	65535	64632.7
876.5127	1326.753	65535	64633.4
876.6569	1328.6293	65535	64631.35
876.801	1330.5048	65535	64629.75
876.9452	1332.3796	65535	64632.95
877.0893	1334.2537	65535	64610.4
877.2335	1336.127	65535	64632.6
877.3776	1337.9996	65535	64634
877.5217	1339.8714	65535	64632.85
877.6658	1341.7426	65535	64590.75
877.8099	1343.6129	65535	64631.8
877.954	1345.4826	65535	64635.1
878.0981	1347.3515	65535	64630.1
878.2422	1349.2196	65535	64632
878.3862	1351.087	65535	64633.45
878.5303	1352.9537	65535	64630.25
878.6743	1354.8197	65535	64634.15
878.8184	1356.6849	65535	64633.15
878.9624	1358.5493	65535	64632.7
879.1064	1360.4131	65535	64636.6
879.2504	1362.276	65535	64634.1
879.3944	1364.1383	65535	64634.95
879.5384	1365.9998	65535	64628.9
879.6823	1367.8606	65535	64630.5
879.8263	1369.7206	65535	64633.45
879.9702	1371.5799	65535	64633.15
880.1142	1373.4384	65535	64634
880.2581	1375.2962	65535	64630.4
880.402	1377.1533	65535	64633.75
880.5459	1379.0096	65535	64634.1
880.6898	1380.8652	65535	64633.7
880.8337	1382.7201	65535	64633.8
880.9776	1384.5742	65535	64634.55
881.1215	1386.4275	65535	64632.3
881.2653	1388.2802	65535	64637.9
881.4092	1390.132	65535	64634.35
881.553	1391.9832	65535	64634.2
881.6968	1393.8336	65535	64631.1
881.8406	1395.6832	65535	64631.3
881.9844	1397.5322	65535	64633.75
882.1282	1399.3803	65535	64627.25
882.272	1401.2278	65535	64633.2
882.4158	1403.0745	65535	64635.55
882.5595	1404.9204	65535	64636.6
882.7033	1406.7656	65535	64636.35
882.847	1408.6101	65535	64633.35
882.9908	1410.4538	65535	64635.1
883.1345	1412.2968	65535	64632.35
883.2782	1414.139	65535	64633.05
883.4219	1415.9805	65535	64633.7
883.5656	1417.8213	65535	64628.3
883.7092	1419.6613	65535	64634.4
883.8529	1421.5006	65535	64636.35
883.9965	1423.3391	65535	64635.45
884.1402	1425.1769	65535	64634.15
884.2838	1427.0139	65535	64631.25
884.4274	1428.8502	65535	64634.35
884.571	1430.6858	65535	64635.1
884.7146	1432.5206	65535	64632.95
884.8582	1434.3547	65535	64636.75
885.0018	1436.188	65535	64633.1
885.1453	1438.0206	65535	64633.45
885.2889	1439.8524	65535	64633.05
885.4324	1441.6835	65535	64632.55
885.5759	1443.5139	65535	64629.7
885.7194	1445.3435	65535	64633.85
885.8629	1447.1724	65535	64634.8
886.0064	1449.0005	65535	64636.35
886.1499	1450.8279	65535	64632.55
886.2933	1452.6545	65535	64633.4
886.4368	1454.4804	65535	64635.25
886.5802	1456.3056	65535	64628.4
886.7237	1458.13	65535	64636.2
886.8671	1459.9536	65535	64633.05
887.0105	1461.7766	65535	64635.8
887.1539	1463.5987	65535	64634.85
887.2972	1465.4202	65535	64636.05
887.4406	1467.2409	65535	64635.8
887.584	1469.0608	65535	64635.55
887.7273	1470.88	65535	64635.4
887.8706	1472.6984	65535	64632.15
888.0139	1474.5161	65535	64634.2
888.1572	1476.3331	65535	64633.75
888.3005	1478.1493	65535	64633.6
888.4438	1479.9648	65535	64636.1
888.5871	1481.7795	65535	64635.8
888.7303	1483.5935	65535	64636.7
888.8736	1485.4067	65535	64635.35
889.0168	1487.2192	65535	64634.05
889.16	1489.031	65535	64634.7
889.3032	1490.842	65535	64635.1
889.4464	1492.6522	65535	64636.25
889.5896	1494.4618	65535	64634.45
889.7327	1496.2705	65535	64633.65
889.8759	1498.0785	65535	64632.75
890.019	1499.8858	65535	64635.2
890.1622	1501.6924	65535	64634.4
890.3053	1503.4981	65535	64634.35
890.4484	1505.3032	65535	64632.85
890.5914	1507.1075	65535	64633.8
890.7345	1508.911	65535	64635.35
890.8776	1510.7138	65535	64632.55
891.0206	1512.5159	65535	64634.95
891.1637	1514.3172	65535	64634.55
891.3067	1516.1178	65535	64638.75
891.4497	1517.9176	65535	64633.25
891.5927	1519.7166	65535	64636.15
891.7357	1521.515	65535	64631.55
891.8786	1523.3126	65535	64635.15
892.0216	1525.1094	65535	64633.7
892.1645	1526.9055	65535	64637.5
892.3074	1528.7008	65535	64634.75
892.4503	1530.4954	65535	64635.9
892.5932	1532.2893	65535	64637.35
892.7361	1534.0824	65535	64633.25
892.879	1535.8747	65535	64639.5
893.0218	1537.6663	65535	64636.6
893.1647	1539.4572	65535	64633.9
893.3075	1541.2473	65535	64635.1
893.4503	1543.0367	65535	64636.55
893.5931	1544.8253	65535	64632.4
893.7359	1546.6132	65535	64635.9
893.8787	1548.4003	65535	64629.25
894.0214	1550.1867	65535	64627
894.1642	1551.9723	65535	64632.9
894.3069	1553.7572	65535	64636.5
894.4496	1555.5414	65535	64639.2
894.5923	1557.3247	65535	64636.55
894.735	1559.1074	65535	64637.55
894.8777	1560.8893	65535	64638.6
895.0204	1562.6705	65535	64636.2
895.163	1564.4509	65535	64639.2
895.3056	1566.2305	65535	64639.2
895.4482	1568.0094	65535	64640.9
895.5908	1569.7876	65535	64636.9
895.7334	1571.565	65535	64638.55
895.876	1573.3417	65535	64639.1
896.0186	1575.1176	65535	64640.3
896.1611	1576.8928	65535	64638.25
896.3036	1578.6672	65535	64640.5
896.4461	1580.4409	65535	64641.35
896.5886	1582.2138	65535	64636.3
896.7311	1583.986	65535	64640.6
896.8736	1585.7575	65535	64639.8
897.0161	1587.5282	65535	64639.5
897.1585	1589.2981	65535	64640.25
897.3009	1591.0673	65535	64640.95
897.4433	1592.8358	65535	64640.85
897.5857	1594.6035	65535	64638.1
897.7281	1596.3704	65535	64638.25
897.8705	1598.1366	65535	64638.8
898.0128	1599.9021	65535	64638.7
898.1551	1601.6668	65535	64637.75
898.2975	1603.4308	65535	64638.5
898.4398	1605.194	65535	64632.65
898.5821	1606.9564	65535	64641.05
898.7243	1608.7182	65535	64638.1
898.8666	1610.4791	65535	64641.05
899.0088	1612.2394	65535	64642.25
899.1511	1613.9988	65535	64639.65
899.2933	1615.7576	65535	64641.4
899.4355	1617.5156	65535	64636.1
899.5776	1619.2728	65535	64639.75
899.7198	1621.0293	65535	64640.8
899.862	1622.785	65535	64634.65
900.0041	1624.54	65535	64637.9
900.1462	1626.2942	65535	64638.8
900.2883	1628.0477	65525.85	64628.1
900.4304	1629.8005	65503.5	64608.7
900.5725	1631.5525	65533.55	64637.05
900.7145	1633.3037	65501.85	64608.7
900.8566	1635.0542	65495.45	64601.8
900.9986	1636.804	65520.65	64624.75
901.1406	1638.553	65430.25	64453.5
901.2826	1640.3013	65492.4	64596.95
901.4245	1642.0488	65418.35	64523.75
901.5665	1643.7955	65491.85	64598.65
901.7085	1645.5416	65446.65	64551.55
901.8504	1647.2868	65344.65	64451.75
901.9923	1649.0313	65478.55	64583.3
902.1342	1650.7751	65415.8	64520.25
902.2761	1652.5181	65366.1	64475.55
902.4179	1654.2604	65364.7	64470.05
902.5598	1656.0019	65362.4	64470.85
902.7016	1657.7427	65324.65	64430.7
902.8434	1659.4828	65407.8	64513.5
902.9852	1661.222	65288.2	64393.25
903.127	1662.9606	65423.15	64529.95
903.2687	1664.6984	65251.3	64357.4
903.4105	1666.4354	65354.35	64459.15
903.5522	1668.1717	65186.75	64292.5
903.6939	1669.9072	65015.9	64123.15
903.8356	1671.642	65028.5	64133.5
903.9773	1673.3761	64981.55	64088.95
904.119	1675.1094	64954	64060.75
904.2606	1676.8419	64830.8	63939.65
904.4022	1678.5737	64893	63999.9
904.5439	1680.3048	64825.55	63933.1
904.6855	1682.0351	64752.1	63858.25
904.827	1683.7646	64708.65	63811.05
904.9686	1685.4934	64754	63860.5
905.1101	1687.2215	64529.4	63634.55
905.2517	1688.9488	64706.6	63815.1
905.3932	1690.6754	64334.95	63441.85
905.5347	1692.4012	64534.1	63639.85
905.6761	1694.1263	64545	63653.65
905.8176	1695.8506	64407.2	63515.5
905.9591	1697.5742	64440.45	63549
906.1005	1699.297	64386.8	63492.9
906.2419	1701.0191	64413.95	63521.9
906.3833	1702.7404	64152.4	63260.15
906.5246	1704.461	64055.25	63161.5
906.666	1706.1808	64266.3	63370.5
906.8073	1707.8999	64136.7	63241.85
906.9487	1709.6182	64070	63178.1
907.09	1711.3358	64033.1	63141.2
907.2313	1713.0527	63991	63099.55
907.3725	1714.7688	64016.05	63118.4
907.5138	1716.4841	63670.1	62774.8
907.655	1718.1987	63830	62931.4
907.7962	1719.9126	63712.1	62820.5
907.9374	1721.6257	63813.5	62918.7
908.0786	1723.338	63794.15	62901.2
908.2198	1725.0496	63319.4	62425.65
908.3609	1726.7605	63397.95	62506.3
908.502	1728.4706	63243.3	62349.4
908.6431	1730.18	63425.25	62531.5
908.7842	1731.8886	63217.1	62325.9
908.9253	1733.5964	63091.45	62193.45
909.0664	1735.3036	63337.15	62444
909.2074	1737.0099	63168.7	62276.65
909.3484	1738.7156	62962.85	62070.75
909.4894	1740.4204	62890.1	61996.1
909.6304	1742.1246	62995.85	62102.8
909.7714	1743.8279	63030.6	62139.45
909.9123	1745.5306	62979.2	62086.65
910.0532	1747.2325	62387.65	61495.05
910.1941	1748.9336	62436.95	61546.8
910.335	1750.634	62536.35	61641.95
910.4759	1752.3336	62681.6	61790.15
910.6168	1754.0325	62279	61389.4
910.7576	1755.7307	62638.6	61748.6
910.8984	1757.4281	62147.5	61256.8
911.0392	1759.1247	62510.2	61610.35
911.18	1760.8206	61978.1	61082.3
911.3208	1762.5158	62017.6	61122.15
911.4615	1764.2102	62124.6	61234.3
911.6022	1765.9039	62058.6	61167
911.7429	1767.5968	61888.05	60996.2
911.8836	1769.289	61795.05	60903.25
912.0243	1770.9804	61861.9	60968.45
912.1649	1772.6711	61765.25	60874.5
912.3056	1774.361	61652.1	60760.5
912.4462	1776.0502	61615.65	60723.5
912.5868	1777.7386	61243.6	60350.3
912.7274	1779.4263	61424.65	60532
912.8679	1781.1132	61429.5	60539.2
913.0084	1782.7994	61305.2	60413.55
913.149	1784.4849	61348.7	60456.95
913.2895	1786.1696	60832.45	59933.15
913.4299	1787.8535	61093.25	60203.2
913.5704	1789.5367	61140.95	60250.5
913.7108	1791.2192	60820.05	59931.7
913.8513	1792.9009	60645.1	59724.25
913.9917	1794.5818	60833.5	59937.55
914.132	1796.2621	60567.3	59674.8
914.2724	1797.9415	60597.55	59706.05
914.4128	1799.6202	60524.7	59631.7
914.5531	1801.2982	60530.6	59639.6
914.6934	1802.9755	60179.4	59287.55
914.8337	1804.6519	60128.25	59236.8
914.9739	1806.3277	60511.5	59620.45
915.1142	1808.0027	59772	58881.65
915.2544	1809.6769	59995.15	59104.15
915.3946	1811.3504	60076.45	59184.25
915.5348	1813.0231	59488.6	58597.1
915.675	1814.6951	59860.15	58969.85
915.8151	1816.3664	59655.7	58763.1
915.9553	1818.0369	59658.3	58765.8
916.0954	1819.7067	59480.95	58589.5
916.2355	1821.3757	59733.8	58842.65
916.3755	1823.044	59267.85	58377.3
916.5156	1824.7115	59024.2	58132.8
916.6556	1826.3783	59129.55	58240.15
916.7956	1828.0443	59122.9	58232.7
916.9356	1829.7096	58929.2	58036.9
917.0756	1831.3741	58569.35	57672.55
917.2155	1833.0379	58783.6	57892.05
917.3555	1834.701	58777.9	57883.9
917.4954	1836.3633	58424.1	57532
917.6353	1838.0248	58617.95	57726.1
917.7751	1839.6856	58504.55	57613.6
917.915	1841.3457	58132.45	57242.85
918.0548	1843.005	58468.15	57576.15
918.1946	1844.6636	58249.2	57359.8
918.3344	1846.3214	57760.45	56866.7
918.4742	1847.9785	57879.3	56990.6
918.6139	1849.6349	57789.8	56898.15
918.7537	1851.2904	58128.35	57228
918.8934	1852.9453	57520.55	56628
919.0331	1854.5994	57683.05	56790.55
919.1727	1856.2528	57695.45	56798.85
919.3124	1857.9054	57384.2	56492.65
919.452	1859.5572	57169.9	56280.1
919.5916	1861.2083	57339.9	56447.55
919.7312	1862.8587	57706.5	56815.2
919.8708	1864.5084	56678.65	55787.9
920.0103	1866.1572	57136.45	56246.1
920.1498	1867.8054	56486.3	55595.3
920.2893	1869.4528	56768.85	55877.1
920.4288	1871.0994	56346.45	55454.7
920.5683	1872.7453	56291.5	55398.3
920.7077	1874.3905	56498.3	55601.2
920.8471	1876.0349	56080.05	55186.6
920.9865	1877.6786	56379.5	55484.8
921.1259	1879.3215	55949.85	55058.65
921.2653	1880.9637	56363.2	55472
921.4046	1882.6051	55928.7	55038.3
921.5439	1884.2458	55720.5	54828
921.6832	1885.8858	55374.55	54483.2
921.8225	1887.525	55646.9	54754.6
921.9617	1889.1634	55502.65	54608.35
922.101	1890.8011	55222.05	54331.85
922.2402	1892.4381	54677.2	53785.85
922.3794	1894.0743	55259.2	54370.4
922.5185	1895.7098	54866.9	53976.45
922.6577	1897.3446	54535.8	53644.25
922.7968	1898.9786	54604.2	53710.3
922.9359	1900.6118	54276.3	53386.4
923.075	1902.2443	53987.4	53095.05
923.214	1903.8761	54348.1	53459.2
923.3531	1905.5071	53924.65	53035.05
923.4921	1907.1374	53200.65	52308.25
923.6311	1908.7669	53542.45	52653.8
923.77	1910.3957	53760.05	52867.3
923.909	1912.0237	53102.8	52211.1
924.0479	1913.651	52786.65	51894.1
924.1868	1915.2776	52677.1	51787.05
924.3257	1916.9034	52715.85	51827.8
924.4646	1918.5285	52395.1	51507.45
924.6034	1920.1528	52363	51471.15
924.7422	1921.7764	52237.05	51345.55
924.881	1923.3992	52104	51214.6
925.0198	1925.0213	51742.25	50852
925.1586	1926.6427	51272.3	50382.75
925.2973	1928.2633	51448.6	50476.75
925.436	1929.8832	51306.8	50412.95
925.5747	1931.5023	51140.3	50251.35
925.7134	1933.1207	50682.1	49793.95
925.852	1934.7383	50860.4	49969.55
925.9906	1936.3552	50502.35	49613.45
926.1292	1937.9714	50430.25	49537.35
926.2678	1939.5868	50353.25	49461.35
926.4064	1941.2015	49938.55	49046.2
926.5449	1942.8154	49552.6	48661.8
926.6834	1944.4286	49645.1	48755.1
926.8219	1946.041	49604.9	48696.65
926.9604	1947.6528	49275.45	48381.9
927.0988	1949.2637	49057.6	48168
927.2372	1950.8739	48828.75	47937.05
927.3756	1952.4834	48893.35	48003.45
927.514	1954.0921	48763.35	47872.7
927.6523	1955.7001	48455.75	47562.4
927.7907	1957.3074	48463.3	47573.85
927.929	1958.9139	48041.9	47150.5
928.0673	1960.5197	48111	47218
928.2055	1962.1247	47906.1	47017.9
928.3438	1963.729	47635.15	46746.8
928.482	1965.3325	47480.05	46569
928.6202	1966.9353	47457.4	46567.35
928.7584	1968.5374	47105.45	46214.85
928.8965	1970.1387	46964.9	46075.7
929.0346	1971.7393	46898.1	46006.9
929.1727	1973.3392	46698.35	45807.9
929.3108	1974.9383	46469.15	45579.45
929.4489	1976.5366	46266.8	45376.45
929.5869	1978.1342	46256.5	45364.3
929.7249	1979.7311	46123.5	45232.1
929.8629	1981.3273	45979.2	45088.7
930.0009	1982.9227	45765.75	44875.3
930.1388	1984.5173	45752.65	44866.45
930.2767	1986.1112	45465.25	44576.3
930.4146	1987.7044	45543.65	44655.55
930.5525	1989.2968	45095.65	44204.25
930.6904	1990.8885	45177.7	44284.75
930.8282	1992.4795	44958.6	44067.55
930.966	1994.0697	44828.1	43937.5
931.1038	1995.6592	44660.5	43771.6
931.2415	1997.2479	44560.15	43670.85
931.3793	1998.8359	44437.75	43548.35
931.517	2000.4232	44167.1	43277.2
931.6547	2002.0097	44131.65	43242.85
931.7923	2003.5955	43959.7	43069.2
931.93	2005.1805	43825.2	42935.55
932.0676	2006.7648	43720.8	42833.05
932.2052	2008.3484	43567.5	42677.05
932.3427	2009.9312	43618	42725.7
932.4803	2011.5133	43437.15	42549.7
932.6178	2013.0946	43221.8	42334.45
932.7553	2014.6752	43146.1	42256.85
932.8928	2016.2551	43002.45	42112.25
933.0302	2017.8342	42868.9	41979
933.1676	2019.4126	42660.65	41773.55
933.305	2020.9902	42474.25	41587.95
933.4424	2022.5672	42391.75	41504.65
933.5798	2024.1433	42294.15	41399.1
933.7171	2025.7188	42179.65	41291.85
933.8544	2027.2935	42018.1	41127.2
933.9917	2028.8674	41873.45	40985.25
934.129	2030.4406	41706.65	40820.55
934.2662	2032.0131	41585.95	40697.25
934.4034	2033.5849	41431.55	40537.85
934.5406	2035.1559	41355.05	40467.3
934.6778	2036.7261	41281.85	40394.95
934.8149	2038.2957	41178.25	40289.15
934.952	2039.8645	41098.15	40211.55
935.0891	2041.4325	41121.15	40228.5
935.2262	2042.9998	40926.05	40036.3
935.3632	2044.5664	40727.45	39837.05
935.5002	2046.1323	40625.55	39737.85
935.6372	2047.6974	40475.1	39587.2
935.7742	2049.2617	40387.85	39499.35
935.9111	2050.8254	40387.85	39493.7
936.048	2052.3883	40241.8	39351.8
936.1849	2053.9504	40152.3	39263.2
936.3218	2055.5118	39984.05	39093.8
936.4586	2057.0725	39791.85	38900.6
936.5955	2058.6325	39731	38842.05
936.7323	2060.1917	39632.8	38744.1
936.869	2061.7502	39486.55	38594.85
937.0058	2063.3079	39358.1	38470.25
937.1425	2064.8649	39178.15	38287.65
937.2792	2066.4212	39147.65	38256.65
937.4159	2067.9767	39059.15	38171.85
937.5525	2069.5315	38834.7	37946.15
937.6891	2071.0856	38660.8	37773.2
937.8257	2072.6389	38533.05	37644
937.9623	2074.1915	38326.05	37439.5
938.0989	2075.7433	38167.35	37277.45
938.2354	2077.2945	38077.5	37190
938.3719	2078.8448	37943.85	37054.65
938.5084	2080.3945	37838.65	36949.05
938.6448	2081.9434	37804.85	36915.9
938.7812	2083.4916	37626.1	36736.9
938.9176	2085.039	37480.45	36589.2
939.054	2086.5857	37435.8	36545.95
939.1903	2088.1317	37363.6	36476.6
939.3267	2089.677	37294.35	36404.45
939.463	2091.2215	37161.85	36271.75
939.5992	2092.7652	37041.8	36149.9
939.7355	2094.3083	36972.45	36082
939.8717	2095.8506	36839.35	35951.05
940.0079	2097.3921	36849	35959.65
940.1441	2098.933	36684.4	35797.55
940.2802	2100.4731	36588.5	35701.75
940.4163	2102.0124	36534.3	35638.6
940.5524	2103.5511	36491.35	35600.9
940.6885	2105.089	36346.1	35457.05
940.8245	2106.6261	36244.6	35355.75
940.9606	2108.1626	36143.05	35252.75
941.0965	2109.6983	36125.05	35208
941.2325	2111.2332	35972.2	35082.3
941.3684	2112.7675	35840.75	34952.3
941.5044	2114.301	35757.9	34867.1
941.6403	2115.8337	35757.45	34868.45
941.7761	2117.3657	35581.95	34694.1
941.912	2118.897	35500.8	34611.45
942.0478	2120.4276	35331.05	34435.35
942.1835	2121.9575	35192.9	34303.1
942.3193	2123.4866	35204.2	34300.5
942.455	2125.0149	35060.15	34167.8
942.5907	2126.5426	34857.4	33969.85
942.7264	2128.0695	34824.6	33932.55
942.8621	2129.5956	34749.55	33861.6
942.9977	2131.1211	34669.95	33777.45
943.1333	2132.6458	34576.15	33686.75
943.2689	2134.1698	34456.8	33567.55
943.4044	2135.693	34365.25	33473.75
943.54	2137.2155	34317.4	33427
943.6755	2138.7373	34216.05	33326.3
943.8109	2140.2584	34127.8	33237.65
943.9464	2141.7787	33973.7	33080.15
944.0818	2143.2983	33788.5	32902.7
944.2172	2144.8171	33644.7	32756.5
944.3526	2146.3353	33566.95	32676.1
944.4879	2147.8527	33401.95	32513.4
944.6232	2149.3693	33378.05	32487
944.7585	2150.8853	33316	32425.6
944.8938	2152.4005	33115.3	32225.45
945.029	2153.9149	33063.25	32174.65
945.1642	2155.4287	32957.75	32069.45
945.2994	2156.9417	32917	32027.15
945.4346	2158.454	32769.95	31878.45
945.5697	2159.9655	32699.9	31811.3
945.7048	2161.4764	32719.75	31831.9
945.8399	2162.9865	32525.2	31634.7
945.9749	2164.4958	32431.15	31542
946.1099	2166.0045	32323.4	31429.25
946.2449	2167.5124	32289.75	31401.05
946.3799	2169.0195	32189.5	31300.3
946.5148	2170.526	32160.05	31269.2
946.6498	2172.0317	32043	31154
946.7846	2173.5367	31917.85	31027.65
946.9195	2175.0409	31850.75	30961.6
947.0543	2176.5445	31837.9	30947.9
947.1891	2178.0473	31709.25	30821.15
947.3239	2179.5494	31533.45	30639.7
947.4587	2181.0507	31476.8	30586.5
947.5934	2182.5513	31353.75	30466.05
947.7281	2184.0512	31242.6	30353.2
947.8628	2185.5504	31154.3	30266.05
947.9974	2187.0488	30968.2	30078.1
948.132	2188.5465	30884.2	29997.45
948.2666	2190.0435	30773.75	29885.25
948.4012	2191.5397	30676.6	29786.8
948.5357	2193.0353	30545.8	29658.05
948.6702	2194.5301	30402.7	29512.8
948.8047	2196.0241	30302.45	29411.45
948.9392	2197.5175	30254.85	29367
949.0736	2199.0101	30107.05	29213.2
949.208	2200.502	29972.4	29083.5
949.3424	2201.9931	29892.35	29003.4
949.4767	2203.4835	29749.6	28858.35
949.611	2204.9733	29684.45	28789.4
949.7453	2206.4622	29631.45	28740.45
949.8796	2207.9505	29486.95	28597.25
950.0138	2209.438	29340.8	28451.35
950.148	2210.9248	29324.35	28434
950.2822	2212.4109	29159	28271.45
950.4164	2213.8962	29096.75	28205.4
950.5505	2215.3809	29006.5	28117.35
950.6846	2216.8648	28909.75	28018.4
950.8186	2218.3479	28807.35	27913.55
950.9527	2219.8304	28676.4	27784
951.0867	2221.3121	28587.85	27696.5
951.2207	2222.7931	28499.45	27612.9
951.3546	2224.2733	28364.6	27475.2
951.4886	2225.7529	28267.45	27378.35
951.6225	2227.2317	28232.35	27342.05
951.7563	2228.7098	28174	27285.35
951.8902	2230.1872	28018.75	27129.35
952.024	2231.6638	27941.8	27052.8
952.1578	2233.1397	27828.3	26933.15
952.2916	2234.6149	27776.4	26887.3
952.4253	2236.0894	27668.2	26778.65
952.559	2237.5632	27581.75	26691.75
952.6927	2239.0362	27486.1	26597.3
952.8263	2240.5085	27405.1	26517.95
952.9599	2241.9801	27309.95	26419.9
953.0935	2243.4509	27214.2	26325.8
953.2271	2244.921	27116.6	26226.95
953.3606	2246.3904	27018.15	26124.3
953.4941	2247.8591	26913.85	26024.4
953.6276	2249.3271	26891	26003.75
953.7611	2250.7943	26786.75	25895.8
953.8945	2252.2608	26675.95	25787.75
954.0279	2253.7266	26567.25	25680
954.1612	2255.1917	26536	25648
954.2946	2256.656	26375.75	25486.4
954.4279	2258.1197	26340.7	25450.7
954.5612	2259.5826	26227.1	25335.35
954.6944	2261.0447	26190.8	25299.6
954.8276	2262.5062	26078	25188.6
954.9608	2263.9669	26078.35	25188.8
955.094	2265.4269	25982.9	25095.3
955.2271	2266.8862	25890	25000.35
955.3602	2268.3448	25844.9	24955.25
955.4933	2269.8026	25802.4	24914.05
955.6264	2271.2598	25687.85	24800.7
955.7594	2272.7162	25603.2	24714.7
955.8924	2274.1719	25502.1	24611.8
956.0253	2275.6268	25452.75	24563.6
956.1583	2277.0811	25387.9	24495.5
956.2912	2278.5346	25290.6	24402.5
956.4241	2279.9874	25253.6	24363.05
956.5569	2281.4395	25217.15	24329.35
956.6897	2282.8908	25075.45	24182.4
956.8225	2284.3414	25049.5	24159
956.9553	2285.7914	24943.75	24054.85
957.088	2287.2406	24843.45	23951.9
957.2207	2288.689	24807.2	23918.05
957.3534	2290.1368	24704.45	23813.65
957.486	2291.5838	24615.55	23724.15
957.6186	2293.0302	24551.1	23659.3
957.7512	2294.4758	24418.25	23526.75
957.8838	2295.9206	24333.85	23443.2
958.0163	2297.3648	24320.4	23431.25
958.1488	2298.8082	24246.9	23358
958.2813	2300.251	24124.35	23236.3
958.4137	2301.693	24079.85	23187.3
958.5461	2303.1343	24062.05	23172.45
958.6785	2304.5748	23964.3	23074.15
958.8108	2306.0147	23870.9	22980.75
958.9432	2307.4538	23814.1	22922.35
959.0754	2308.8922	23727.5	22838.25
959.2077	2310.3299	23642.8	22754.8
959.3399	2311.7669	23571.7	22683.7
959.4721	2313.2031	23498.4	22609.55
959.6043	2314.6387	23426.55	22537.95
959.7365	2316.0735	23268.5	22379.95
959.8686	2317.5076	23271.4	22380.7
960.0006	2318.941	23174.65	22284.2
960.1327	2320.3737	23165.85	22277.25
960.2647	2321.8056	23070.25	22178.25
960.3967	2323.2369	22972.35	22083.3
960.5287	2324.6674	22936.15	22043.85
960.6606	2326.0972	22845.25	21952.25
960.7925	2327.5263	22744.3	21854.35
960.9244	2328.9547	22698	21810.9
961.0562	2330.3823	22638.4	21750.65
961.1881	2331.8092	22618.3	21726.7
961.3198	2333.2355	22505.55	21615
961.4516	2334.661	22455.85	21564.5
961.5833	2336.0858	22383.25	21492.95
961.715	2337.5098	22301.5	21411.55
961.8467	2338.9332	22290.85	21400
961.9783	2340.3558	22192.5	21299.05
962.1099	2341.7778	22132.9	21243.6
962.2415	2343.199	22046.6	21156.65
962.373	2344.6195	21965.3	21077.2
962.5045	2346.0393	21893	21003.95
962.636	2347.4583	21871.05	20981.7
962.7675	2348.8767	21752.85	20861.7
962.8989	2350.2943	21687.6	20794.85
963.0303	2351.7113	21651.3	20760.95
963.1617	2353.1275	21586.05	20696.7
963.293	2354.543	21520	20621.95
963.4243	2355.9578	21447.75	20557.75
963.5556	2357.3718	21306.55	20416.8
963.6868	2358.7852	21234.5	20342.7
963.818	2360.1978	21152.1	20264.9
963.9492	2361.6098	21119.65	20233.2
964.0803	2363.021	21048.4	20156.85
964.2114	2364.4315	20987.2	20097.5
964.3425	2365.8413	20920.4	20030.1
964.4736	2367.2504	20842.55	19953.3
964.6046	2368.6587	20767.75	19880.25
964.7356	2370.0664	20633.7	19743.95
964.8666	2371.4733	20644.25	19755.95
964.9975	2372.8795	20537.1	19649.65
965.1284	2374.285	20470.1	19581.15
965.2593	2375.6899	20377.1	19488.85
965.3901	2377.0939	20276.4	19388.05
965.5209	2378.4973	20203.3	19315.7
965.6517	2379.9	20101.15	19211.05
965.7825	2381.3019	20031.35	19143.35
965.9132	2382.7032	20011.7	19123.85
966.0439	2384.1037	19957.35	19069.75
966.1745	2385.5035	19871.9	18982.55
966.3051	2386.9027	19806.1	18917.8
966.4357	2388.3011	19768.1	18877.55
966.5663	2389.6987	19683.8	18795.05
966.6968	2391.0957	19643.6	18754.25
966.8273	2392.492	19534.35	18647.6
966.9578	2393.8876	19428.8	18542.3
967.0882	2395.2824	19352.55	18462.7
967.2186	2396.6765	19286.65	18399.15
967.349	2398.07	19209	18321.6
967.4793	2399.4627	19210.95	18323.05
967.6097	2400.8547	19120.85	18230.8
967.7399	2402.246	19043.8	18149.7
967.8702	2403.6366	18913.7	18022.65
968.0004	2405.0265	18849.8	17962.05
968.1306	2406.4156	18800.25	17907.15
968.2607	2407.8041	18699.25	17808.4
968.3909	2409.1918	18617.05	17725.85
968.521	2410.5789	18561.25	17673.1
968.651	2411.9652	18496.55	17604.95
968.781	2413.3508	18438.1	17548.75
968.911	2414.7358	18367	17478.1
969.041	2416.12	18280.1	17390.5
969.1709	2417.5035	18241.25	17354.95
969.3008	2418.8863	18152.9	17263.1
969.4307	2420.2684	18111.85	17221.55
969.5606	2421.6497	18003.35	17114.5
969.6904	2423.0304	17901.3	17012.35
969.8201	2424.4104	17880.75	16991.3
969.9499	2425.7896	17818.2	16928.35
970.0796	2427.1682	17788.25	16901.45
970.2093	2428.546	17738	16847.85
970.3389	2429.9232	17666.2	16776.35
970.4685	2431.2996	17661.2	16772.45
970.5981	2432.6753	17582.4	16692.45
970.7277	2434.0503	17526.3	16638.25
970.8572	2435.4246	17453.65	16564
970.9867	2436.7982	17380.35	16487.4
971.1161	2438.1711	17335.65	16448.65
971.2456	2439.5433	17287.55	16397.55
971.375	2440.9148	17222.05	16328.8
971.5043	2442.2856	17128.5	16239.3
971.6336	2443.6557	17084.55	16194.25
971.7629	2445.025	17047.35	16157.2
971.8922	2446.3937	17004.25	16114.35
972.0214	2447.7617	16938.5	16048.75
972.1506	2449.1289	16904.7	16016.75
972.2798	2450.4955	16852.6	15961.65
972.4089	2451.8613	16793.15	15905.5
972.538	2453.2265	16748.8	15859.45
972.6671	2454.5909	16678.1	15788.2
972.7961	2455.9546	16629.85	15742.45
972.9251	2457.3177	16565.1	15677.2
973.0541	2458.68	16510.85	15622.05
973.1831	2460.0416	16483.95	15594.9
973.312	2461.4025	16457.9	15566.85
973.4408	2462.7627	16417.8	15517.8
973.5697	2464.1222	16350.05	15461.45
973.6985	2465.4811	16281.95	15391.8
973.8273	2466.8392	16229.6	15340.1
973.956	2468.1966	16189.35	15298.75
974.0847	2469.5533	16168	15275.85
974.2134	2470.9093	16142.75	15251.4
974.3421	2472.2645	16014.6	15123.55
974.4707	2473.6191	15990.5	15102.2
974.5993	2474.973	15931.8	15043.8
974.7278	2476.3262	15858.35	14967.85
974.8563	2477.6787	15817.95	14929.75
974.9848	2479.0305	15719.7	14832
975.1132	2480.3816	15690.55	14801.15
975.2417	2481.7319	15604.2	14715.25
975.37	2483.0816	15525.55	14636.05
975.4984	2484.4306	15507.75	14618.85
975.6267	2485.7789	15450.15	14561.3
975.755	2487.1264	15372.35	14483.95
975.8833	2488.4733	15322.95	14434.7
976.0115	2489.8195	15278.1	14383.9
976.1397	2491.165	15224.15	14332.25
976.2678	2492.5097	15188.25	14296.95
976.3959	2493.8538	15091.75	14204.15
976.524	2495.1972	15024.15	14133.95
976.6521	2496.5398	14943.5	14054.05
976.7801	2497.8818	14938.2	14046.85
976.9081	2499.2231	14874.6	13983.95
977.036	2500.5637	14807.05	13916.75
977.164	2501.9035	14779.3	13889.3
977.2918	2503.2427	14695.35	13803.05
977.4197	2504.5812	14678.25	13790.8
977.5475	2505.919	14658.7	13767.2
977.6753	2507.256	14623.25	13736
977.8031	2508.5924	14516.3	13626.1
977.9308	2509.9281	14488.5	13595.4
978.0585	2511.2631	14420.1	13533.55
978.1861	2512.5974	14440.45	13551.95
978.3137	2513.9309	14363.25	13476.45
978.4413	2515.2638	14288.05	13374.5
978.5689	2516.596	14274.4	13386.3
978.6964	2517.9275	14173.6	13284.1
978.8239	2519.2583	14148.2	13258.5
978.9513	2520.5884	14049.35	13159.25
979.0788	2521.9178	14017.5	13127.6
979.2062	2523.2465	13988.45	13100.85
979.3335	2524.5745	13925.65	13038.65
979.4608	2525.9018	13858.1	12968.65
979.5881	2527.2284	13808.8	12921.9
979.7154	2528.5543	13810.85	12923.25
979.8426	2529.8796	13747.55	12858.85
979.9698	2531.2041	13696.05	12807.15
980.0969	2532.5279	13693.05	12805.05
980.224	2533.851	13654.6	12765.05
980.3511	2535.1735	13581.6	12695.75
980.4781	2536.4952	13556.5	12667.65
980.6052	2537.8163	13523.4	12633.65
980.7321	2539.1366	13486.95	12597.7
980.8591	2540.4562	13395.9	12507.15
980.986	2541.7752	13419.55	12530.4
981.1129	2543.0935	13435.8	12546.55
981.2397	2544.411	13365.3	12476.9
981.3665	2545.7279	13301.05	12411.55
981.4933	2547.0441	13332.85	12444.3
981.62	2548.3596	13288.5	12398.8
981.7467	2549.6744	13236.8	12347.25
981.8734	2550.9885	13153.1	12256.85
982.0001	2552.3019	13172	12281.9
982.1267	2553.6146	13145.4	12255.75
982.2532	2554.9266	13077.8	12189.15
982.3798	2556.2379	13008.65	12117.55
982.5063	2557.5485	13000.25	12112.65
982.6327	2558.8585	12986.5	12089.15
982.7592	2560.1677	12947.9	12054.45
982.8856	2561.4762	12911.2	12022.35
983.0119	2562.7841	12905.25	12012.5
983.1383	2564.0913	12821.65	11934.3
983.2646	2565.3977	12842.3	11954.4
983.3908	2566.7035	12766.3	11877.45
983.517	2568.0086	12782.5	11893.1
983.6432	2569.313	12720.4	11829.95
983.7694	2570.6167	12701.15	11809.5
983.8955	2571.9197	12670.45	11783.4
984.0216	2573.222	12643.5	11750.85
984.1476	2574.5236	12600.3	11712.15
984.2737	2575.8246	12577.65	11686.35
984.3996	2577.1248	12552.4	11662.65
984.5256	2578.4244	12529.4	11641.9
984.6515	2579.7232	12524.8	11635.55
984.7774	2581.0214	12497.15	11583.15
984.9032	2582.3189	12467.55	11579
985.029	2583.6157	12407.15	11513.7
985.1548	2584.9118	12369.5	11481
985.2806	2586.2072	12340.85	11452.3
985.4063	2587.5019	12283.45	11394.9
985.5319	2588.7959	12253.7	11364.65
985.6576	2590.0893	12256.9	11365.75
985.7832	2591.3819	12234.35	11347.6
985.9087	2592.6739	12146.6	11256.85
986.0343	2593.9652	12138.7	11251.2
986.1597	2595.2557	12086.7	11198.5
986.2852	2596.5456	12046.25	11155.15
986.4106	2597.8348	11973	11085.35
986.536	2599.1234	11958	11068.7
986.6614	2600.4112	11896.1	11005.85
986.7867	2601.6983	11849.2	10958.9
986.912	2602.9848	11823.8	10933.7
987.0372	2604.2705	11752.65	10858.15
987.1624	2605.5556	11737.75	10848.4
987.2876	2606.84	11672.45	10784.9
987.4128	2608.1237	11627.65	10739.6
987.5379	2609.4067	11598.3	10710.25
987.6629	2610.689	11568.85	10673.9
987.788	2611.9707	11519.7	10627.3
987.913	2613.2516	11487.1	10593.4
988.0379	2614.5319	11416.35	10527.15
988.1629	2615.8115	11360.75	10470.4
988.2878	2617.0903	11342.75	10455.3
988.4126	2618.3685	11293	10402.15
988.5375	2619.6461	11242.65	10354.1
988.6622	2620.9229	11224.55	10334.95
988.787	2622.199	11190.8	10300.25
988.9117	2623.4745	11162.95	10272.9
989.0364	2624.7493	11115.05	10227.45
989.161	2626.0234	11062.75	10174.3
989.2857	2627.2968	11018.6	10130.2
989.4102	2628.5695	10980.4	10090.75
989.5348	2629.8415	10946.8	10059.45
989.6593	2631.1128	10867.8	9977.85
989.7837	2632.3835	10838.05	9950.5
989.9082	2633.6535	10789.5	9901.75
990.0326	2634.9228	10762.2	9874.2
990.1569	2636.1914	10722.35	9835.75
990.2812	2637.4593	10716.25	9820.7
990.4055	2638.7265	10637.25	9749.65
990.5298	2639.9931	10606.05	9720.05
990.654	2641.259	10589.4	9699.65
990.7782	2642.5242	10569.3	9681.95
990.9023	2643.7887	10514.55	9626.45
991.0264	2645.0525	10502	9612.55
991.1505	2646.3156	10447.95	9558.5
991.2745	2647.5781	10416.15	9528.65
991.3985	2648.8398	10369.8	9482.35
991.5225	2650.1009	10356.05	9432.7
991.6464	2651.3613	10309.75	9419.1
991.7703	2652.6211	10287.2	9398.85
991.8942	2653.8801	10256.25	9369.45
992.018	2655.1385	10241.35	9351.55
992.1418	2656.3961	10191.45	9305
992.2655	2657.6531	10189.95	9301.1
992.3892	2658.9094	10141	9252.5
992.5129	2660.1651	10131.25	9243.45
992.6366	2661.42	10087.4	9198.35
992.7602	2662.6743	10078.5	9189.65
992.8837	2663.9279	10031.1	9144.05
993.0073	2665.1808	10011.75	9123
993.1307	2666.433	9979.7	9091.25
993.2542	2667.6846	9918.5	9031.05
993.3776	2668.9354	9894.8	9003.55
993.501	2670.1856	9891.85	9000.9
993.6244	2671.4351	9849.1	8961.75
993.7477	2672.6839	9826	8937.85
993.8709	2673.9321	9791.2	8903.75
993.9942	2675.1795	9783.55	8894.8
994.1174	2676.4263	9718.3	8830.65
994.2405	2677.6724	9716.05	8830.9
994.3637	2678.9179	9671.8	8782.05
994.4868	2680.1626	9633.05	8744.8
994.6098	2681.4067	9625.8	8738.55
994.7328	2682.6501	9585.85	8696.65
994.8558	2683.8928	9568.5	8681
994.9788	2685.1348	9493.95	8606.45
995.1017	2686.3761	9464.6	8577.6
995.2245	2687.6168	9443.2	8555.35
995.3474	2688.8568	9404.8	8517
995.4702	2690.0961	9365.55	8478.8
995.5929	2691.3348	9346.15	8455.9
995.7156	2692.5727	9337.8	8449.75
995.8383	2693.81	9292.2	8404.3
995.961	2695.0466	9275.25	8388.65
996.0836	2696.2826	9252.15	8363.15
996.2062	2697.5178	9221.45	8331
996.3287	2698.7524	9159.2	8269.85
996.4512	2699.9863	9170.05	8280.15
996.5737	2701.2195	9131.85	8244.25
996.6961	2702.452	9122.15	8233.3
996.8185	2703.6839	9076.4	8188
996.9408	2704.9151	9065.35	8176.5
997.0631	2706.1456	9027.7	8142.4
997.1854	2707.3755	8987.85	8098.75
997.3077	2708.6046	8965.7	8077.05
997.4299	2709.8331	8942.15	8054.4
997.552	2711.0609	8912.7	8023.9
997.6742	2712.2881	8869.65	7982.1
997.7963	2713.5145	8830.75	7940.6
997.9183	2714.7403	8845.05	7958.85
998.0403	2715.9654	8789.5	7900.9
998.1623	2717.1899	8758.5	7867.55
998.2842	2718.4136	8729.35	7841.95
998.4062	2719.6367	8726.05	7837.35
998.528	2720.8591	8711.45	7817.5
998.6498	2722.0809	8668.75	7779
998.7716	2723.3019	8645.7	7754.45
998.8934	2724.5223	8615.25	7725.15
999.0151	2725.7421	8600.4	7710.95
999.1368	2726.9611	8569.6	7679.05
999.2584	2728.1795	8552.1	7659.05
999.38	2729.3972	8502	7614.75
999.5016	2730.6142	8470.4	7575.25
999.6231	2731.8306	8428.45	7539.3
999.7446	2733.0462	8367.6	7477.35
999.8661	2734.2612	8344.25	7453.15
999.9875	2735.4756	8300	7410.3
1000.1089	2736.6892	8224.75	7335.45
1000.2302	2737.9022	8203.45	7316
1000.3515	2739.1145	8171.8	7284.3
1000.4728	2740.3262	8135.15	7239
1000.594	2741.5372	8087.9	7200.65
1000.7152	2742.7475	8056.85	7168.45
1000.8363	2743.9571	8032.9	7145.25
1000.9575	2745.1661	7997.7	7106.4
1001.0785	2746.3744	7984.2	7095.2
1001.1996	2747.582	7947.6	7059.15
1001.3206	2748.7889	7911.05	7019.15
1001.4415	2749.9952	7886.05	6999.2
1001.5625	2751.2008	7835.75	6945.7
1001.6833	2752.4057	7827.2	6936.2
1001.8042	2753.61	7798.75	6908.6
1001.925	2754.8136	7763.35	6872.25
1002.0458	2756.0165	7753.2	6866.4
1002.1665	2757.2188	7703.95	6816.35
1002.2872	2758.4204	7687.8	6801.4
1002.4078	2759.6213	7643.9	6755.05
1002.5285	2760.8215	7622.3	6729.95
1002.649	2762.0211	7607.6	6717.3
1002.7696	2763.22	7565.3	6674
1002.8901	2764.4182	7541.95	6652.35
1003.0106	2765.6158	7534.2	6645.6
1003.131	2766.8127	7515.45	6627.85
1003.2514	2768.009	7457.6	6572.1
1003.3717	2769.2045	7452.65	6562.55
1003.492	2770.3994	7427.95	6537.45
1003.6123	2771.5936	7393.8	6504
1003.7325	2772.7872	7376.75	6487.8
1003.8527	2773.9801	7354.8	6464.5
1003.9729	2775.1723	7326.5	6420.6
1004.093	2776.3639	7296.75	6408.8
1004.2131	2777.5548	7261.9	6373.2
1004.3331	2778.745	7238.6	6348.2
1004.4531	2779.9346	7213.85	6324.35
1004.5731	2781.1235	7211	6322.9
1004.693	2782.3117	7178.85	6292
1004.8129	2783.4992	7158.55	6271.05
1004.9328	2784.6861	7114.75	6226.6
1005.0526	2785.8723	7113.35	6221.3
1005.1723	2787.0579	7101.3	6213.3
1005.2921	2788.2428	7081.05	6193.4
1005.4118	2789.427	7051.15	6165.15
1005.5314	2790.6106	7032	6143.95
1005.651	2791.7935	7017.75	6128.25
1005.7706	2792.9757	6992.25	6105.5
1005.8902	2794.1573	6948.4	6057.95
1006.0097	2795.3382	6958.5	6070.9
1006.1291	2796.5184	6937.05	6051.4
1006.2485	2797.698	6911.05	6021.15
1006.3679	2798.8769	6897	6009.45
1006.4873	2800.0551	6901.65	6012.55
1006.6066	2801.2327	6854.05	5963.4
1006.7258	2802.4096	6843.35	5955.3
1006.8451	2803.5859	6824.95	5937.3
1006.9642	2804.7615	6822.55	5934.7
1007.0834	2805.9364	6835.05	5947.35
1007.2025	2807.1106	6809.95	5922.85
1007.3216	2808.2842	6835.85	5948.55
1007.4406	2809.4572	6827.05	5938.55
1007.5596	2810.6294	6823.85	5935.7
1007.6785	2811.801	6839.85	5953.25
1007.7975	2812.972	6849.3	5962.5
1007.9163	2814.1423	6869.1	5979.55
1008.0352	2815.3119	6863.65	5976.9
1008.154	2816.4808	6892.95	6006
1008.2727	2817.6491	6937.95	6048.15
1008.3914	2818.8167	6943.1	6056.65
1008.5101	2819.9837	6981.85	6090.25
1008.6288	2821.15	7006.1	6118.35
1008.7474	2822.3157	7010.1	6121.85
1008.8659	2823.4807	7036.25	6149.05
1008.9844	2824.645	7098	6208.05
1009.1029	2825.8086	7120.5	6235.35
1009.2214	2826.9716	7121.25	6233.45
1009.3398	2828.134	7156.35	6269.3
1009.4581	2829.2957	7175.5	6287.6
1009.5764	2830.4567	7196.1	6310.65
1009.6947	2831.617	7202	6314.25
1009.813	2832.7767	7200.25	6312.15
1009.9312	2833.9358	7193	6305.95
1010.0493	2835.0941	7156.35	6268.55
1010.1675	2836.2519	7137.75	6250.75
1010.2855	2837.4089	7123.9	6234.5
1010.4036	2838.5653	7084.55	6198.15
1010.5216	2839.7211	7063.7	6176.4
1010.6396	2840.8761	7056.15	6166.55
1010.7575	2842.0306	7030.85	6144.45
1010.8754	2843.1843	7042.55	6154.5
1010.9932	2844.3374	7064.25	6177.35
1011.111	2845.4899	7092.95	6206.5
1011.2288	2846.6417	7114.6	6228.7
1011.3465	2847.7928	7161.5	6273.4
1011.4642	2848.9433	7194.4	6307.15
1011.5818	2850.0931	7225.85	6338.45
1011.6995	2851.2422	7281.25	6391.45
1011.817	2852.3907	7321.85	6432.6
1011.9345	2853.5385	7368.75	6477.85
1012.052	2854.6857	7393.95	6496.9
1012.1695	2855.8323	7392.25	6505.1
1012.2869	2856.9781	7424.95	6537.5
1012.4042	2858.1233	7444.35	6556
1012.5216	2859.2679	7480.75	6591.9
1012.6389	2860.4118	7498.15	6611.4
1012.7561	2861.555	7518.8	6626.6
1012.8733	2862.6976	7553.35	6663.8
1012.9905	2863.8395	7539.25	6651.4
1013.1076	2864.9808	7522.9	6636.15
1013.2247	2866.1214	7532.05	6644.7
1013.3417	2867.2614	7522.35	6634.7
1013.4587	2868.4007	7510.15	6620
1013.5757	2869.5393	7523.15	6632.3
1013.6926	2870.6773	7513.65	6624
1013.8095	2871.8146	7525.25	6636.15
1013.9263	2872.9513	7499.85	6612.35
1014.0431	2874.0874	7438.95	6550.1
1014.1599	2875.2227	7428.85	6541.95
1014.2766	2876.3574	7388.65	6502.4
1014.3933	2877.4915	7340	6451.75
1014.51	2878.6249	7301.55	6415
1014.6266	2879.7577	7263.65	6374.7
1014.7431	2880.8898	7228.75	6329.3
1014.8596	2882.0212	7211.75	6323.55
1014.9761	2883.152	7167.55	6278.2
1015.0925	2884.2821	7143.25	6256.1
1015.2089	2885.4116	7089.15	6203.6
1015.3253	2886.5405	7083.65	6195.5
1015.4416	2887.6686	7076.05	6185.7
1015.5579	2888.7962	7075.3	6190.9
1015.6741	2889.923	7044.85	6159.2
1015.7903	2891.0493	7023.15	6136.65
1015.9065	2892.1748	7026.6	6137.3
1016.0226	2893.2997	7017.65	6129.65
1016.1387	2894.424	7003	6117.05
1016.2547	2895.5476	7010.6	6123.6
1016.3707	2896.6706	7003.85	6115.6
1016.4866	2897.7929	6990.9	6102.45
1016.6025	2898.9145	7011.45	6125.45
1016.7184	2900.0355	7009.05	6121.1
1016.8342	2901.1559	7013.95	6127.1
1016.95	2902.2756	7029.95	6141.3
1017.0658	2903.3946	7019.35	6133.6
1017.1815	2904.513	7033.2	6143.65
1017.2971	2905.6308	7027	6140.55
1017.4127	2906.7479	7039	6150.75
1017.5283	2907.8643	7047.85	6160.85
1017.6439	2908.9801	7045.3	6157.7
1017.7594	2910.0953	7012.6	6124.9
1017.8748	2911.2098	6989.55	6100.15
1017.9902	2912.3236	6998.65	6103.6
1018.1056	2913.4368	6948.1	6057.5
1018.2209	2914.5494	6922.6	6034.6
1018.3362	2915.6613	6899.55	6007.4
1018.4515	2916.7725	6827.3	5934.25
1018.5667	2917.8831	6815.55	5928.75
1018.6819	2918.9931	6760.15	5870.9
1018.797	2920.1024	6743	5854.1
1018.9121	2921.211	6697.85	5809.05
1019.0271	2922.319	6679.5	5792.3
1019.1421	2923.4264	6654.85	5766.85
1019.2571	2924.5331	6605.8	5719.35
1019.372	2925.6391	6591.75	5707
1019.4869	2926.7445	6566.5	5679.9
1019.6017	2927.8493	6538.35	5651.15
1019.7165	2928.9534	6543.05	5655.65
1019.8313	2930.0569	6522.9	5631.85
1019.946	2931.1597	6536.6	5646.5
1020.0606	2932.2619	6493.1	5606.15
1020.1753	2933.3634	6501.65	5614.15
1020.2899	2934.4643	6511.55	5618.25
1020.4044	2935.5645	6475.15	5582.65
1020.5189	2936.6641	6441.2	5549.05
1020.6334	2937.763	6372.75	5485.65
1020.7478	2938.8613	6320.65	5433.35
1020.8622	2939.959	6285.65	5393.45
1020.9765	2941.056	6191.45	5303.9
1021.0908	2942.1523	6124.7	5236.7
1021.2051	2943.248	6040.55	5153.3
1021.3193	2944.3431	5952.95	5067.25
1021.4334	2945.4375	5848.8	4960.85
1021.5476	2946.5313	5753.8	4866.5
1021.6617	2947.6244	5666.85	4779.4
1021.7757	2948.7169	5567.95	4679.25
1021.8897	2949.8087	5468.75	4582.55
1022.0037	2950.8999	5366.55	4480.2
1022.1176	2951.9904	5296.55	4410.7
1022.2315	2953.0803	5230.55	4341.8
1022.3453	2954.1696	5147.95	4260.5
1022.4591	2955.2582	5099.25	4214.55
1022.5728	2956.3462	5044.95	4158.9
1022.6865	2957.4335	4976.35	4087.95
1022.8002	2958.5202	4932.85	4043.6
1022.9138	2959.6062	4901.15	4014.2
1023.0274	2960.6916	4879.85	3992.5
1023.141	2961.7764	4845.7	3957.35
1023.2545	2962.8605	4804.7	3916.55
1023.3679	2963.9439	4779.35	3891
1023.4813	2965.0267	4786.6	3895.9
1023.5947	2966.1089	4754.7	3843.65
1023.708	2967.1905	4716.55	3830.1
1023.8213	2968.2714	4701.85	3817.65
1023.9346	2969.3516	4676.5	3790.05
1024.0478	2970.4312	4665.1	3771.6
1024.1609	2971.5102	4658.25	3768.6
1024.274	2972.5885	4639.2	3752.55
1024.3871	2973.6662	4641.7	3750.5
1024.5002	2974.7432	4622.65	3735.25
1024.6132	2975.8196	4593.3	3706.75
1024.7261	2976.8954	4581.75	3694.1
1024.839	2977.9705	4570.55	3684.65
1024.9519	2979.045	4553.05	3666.2
1025.0647	2980.1188	4499.2	3611.5
1025.1775	2981.192	4481.2	3597.35
1025.2902	2982.2645	4455.1	3568.8
1025.4029	2983.3364	4416.25	3528.6
1025.5156	2984.4077	4399.5	3511.9
1025.6282	2985.4783	4353	3461.65
1025.7407	2986.5483	4321.7	3434.55
1025.8532	2987.6177	4302.7	3417.65
1025.9657	2988.6864	4261.6	3373.65
1026.0782	2989.7545	4225.9	3339
1026.1906	2990.8219	4185.65	3298.65
1026.3029	2991.8887	4146.9	3257.35
1026.4152	2992.9548	4100.95	3214.45
1026.5275	2994.0204	4074	3188
1026.6397	2995.0852	4038.9	3153
1026.7519	2996.1495	3976.9	3090.8
1026.864	2997.2131	3948.1	3062.15
1026.9761	2998.276	3935	3048.9
1027.0882	2999.3383	3904.8	3018.6
1027.2002	3000.4	3877.1	2988.6
1027.3122	3001.4611	3855.45	2967
1027.4241	3002.5215	3829.65	2943.15
1027.536	3003.5812	3800.9	2914.5
1027.6478	3004.6404	3777.35	2890.8
1027.7596	3005.6989	3764.25	2876.8
1027.8714	3006.7567	3746.85	2858.55
1027.9831	3007.8139	3753.55	2844.4
1028.0947	3008.8705	3699.8	2812.75
1028.2064	3009.9264	3701.15	2810.4
1028.3179	3010.9818	3678.95	2793.25
1028.4295	3012.0364	3671.8	2783.2
1028.541	3013.0905	3655.9	2769.6
1028.6524	3014.1439	3635.2	2749.4
1028.7638	3015.1966	3627.15	2740.85
1028.8752	3016.2487	3609.1	2723.25
1028.9865	3017.3002	3599.1	2708.75
1029.0978	3018.3511	3582.3	2695.6
1029.209	3019.4013	3579.7	2693.7
1029.3202	3020.4509	3571.55	2684.55
1029.4314	3021.4998	3561.7	2676.85
1029.5425	3022.5481	3546.85	2659.75
1029.6535	3023.5958	3531.3	2645.4
1029.7645	3024.6428	3517.95	2631.5
1029.8755	3025.6892	3499.85	2613.05
1029.9864	3026.735	3500.5	2613.7
1030.0973	3027.7802	3492.45	2606.85
1030.2082	3028.8247	3464.45	2576.35
1030.319	3029.8685	3465.1	2577.55
1030.4297	3030.9118	3453.9	2567.05
1030.5404	3031.9544	3446.25	2561.4
1030.6511	3032.9963	3449.9	2563.9
1030.7617	3034.0376	3442.35	2555.5
1030.8723	3035.0783	3425.8	2535.75
1030.9829	3036.1184	3411.9	2522.15
1031.0934	3037.1578	3422.35	2535.7
1031.2038	3038.1966	3399.25	2509.3
1031.3142	3039.2348	3399.65	2512.95
1031.4246	3040.2723	3406.6	2511.75
1031.5349	3041.3092	3394.25	2509.2
1031.6452	3042.3455	3366.85	2479
1031.7554	3043.3811	3359.85	2472.55
1031.8656	3044.4161	3353.8	2466.65
1031.9758	3045.4505	3342.7	2457.5
1032.0859	3046.4842	3330.45	2442.35
1032.1959	3047.5173	3317.45	2430.85
1032.3059	3048.5498	3288.9	2401.45
1032.4159	3049.5816	3282.05	2395.4
1032.5258	3050.6128	3281.5	2393.1
1032.6357	3051.6434	3263.4	2376.5
1032.7455	3052.6734	3271	2382.95
1032.8553	3053.7027	3244.8	2357.75
1032.9651	3054.7314	3236.9	2350.3
1033.0748	3055.7594	3222.7	2336.05
1033.1845	3056.7868	3216.9	2329.75
1033.2941	3057.8136	3202.95	2316.85
1033.4037	3058.8398	3184	2298.7
1033.5132	3059.8653	3150.45	2263
1033.6227	3060.8902	3152.1	2265
1033.7321	3061.9145	3157.95	2273.1
1033.8415	3062.9381	3134.2	2248.05
1033.9509	3063.9612	3138.35	2234.95
1034.0602	3064.9835	3107.5	2220.55
1034.1694	3066.0053	3099.65	2210.55
1034.2787	3067.0264	3099.5	2213.05
1034.3878	3068.0469	3089.7	2202.85
1034.497	3069.0668	3062.9	2175.95
1034.6061	3070.086	3061	2175.05
1034.7151	3071.1046	3033.75	2146.6
1034.8241	3072.1226	3023.55	2137.75
1034.9331	3073.1399	3008.35	2122.35
1035.042	3074.1567	3003.1	2117.55
1035.1508	3075.1727	2982.05	2094.1
1035.2597	3076.1882	2975	2089.25
1035.3684	3077.203	2954.65	2067.8
1035.4772	3078.2173	2943.6	2055
1035.5859	3079.2308	2942.15	2053
1035.6945	3080.2438	2927.4	2038.8
1035.8031	3081.2561	2895.2	2007.35
1035.9117	3082.2678	2887.35	2000.6
1036.0202	3083.2789	2883.55	1996.45
1036.1286	3084.2893	2868.55	1981.75
1036.2371	3085.2991	2849.45	1963.75
1036.3454	3086.3083	2855.4	1963.25
1036.4538	3087.3169	2832.85	1945
1036.562	3088.3248	2814.3	1925.2
1036.6703	3089.3321	2815.8	1929.6
1036.7785	3090.3388	2791.85	1904.55
1036.8866	3091.3449	2783	1895.35
1036.9948	3092.3503	2784.35	1895.55
1037.1028	3093.3551	2765.4	1879
1037.2108	3094.3593	2744.55	1859.4
1037.3188	3095.3629	2746.9	1860.7
1037.4267	3096.3658	2740.85	1852.95
1037.5346	3097.3681	2718.25	1832.15
1037.6425	3098.3698	2716.9	1827.55
1037.7503	3099.3708	2707.1	1814.45
1037.858	3100.3713	2691.75	1806.3
1037.9657	3101.3711	2680.55	1791.3
1038.0734	3102.3702	2782.7	1753.9
1038.181	3103.3688	2678.75	1789.7
1038.2886	3104.3667	2648.4	1763.6
1038.3961	3105.364	2637.8	1751.6
1038.5036	3106.3607	2616.8	1727.8
1038.611	3107.3568	2610.2	1723.45
1038.7184	3108.3522	2605.7	1719.95
1038.8257	3109.347	2599.95	1713.4
1038.933	3110.3412	2595.15	1706.2
1039.0403	3111.3348	2573.65	1685.3
1039.1475	3112.3277	2566.9	1680.9
1039.2547	3113.32	2554.2	1666.2
1039.3618	3114.3117	2556.1	1670.15
1039.4689	3115.3028	2540.6	1655.9
1039.5759	3116.2932	2526.7	1639.3
1039.6829	3117.2831	2507.05	1615.8
1039.7898	3118.2723	2501.45	1613.45
1039.8967	3119.2608	2503.25	1615.55
1040.0035	3120.2488	2475.85	1589.75
1040.1103	3121.2361	2474.65	1588.05
1040.2171	3122.2229	2464.9	1577.95
1040.3238	3123.209	2471.95	1583.3
1040.4305	3124.1944	2453.3	1567.75
1040.5371	3125.1793	2451.85	1564.2
1040.6437	3126.1635	2430.4	1545.5
1040.7502	3127.1471	2431.85	1543.95
1040.8567	3128.1301	2417.95	1530.05
1040.9631	3129.1125	2424.2	1538.45
1041.0695	3130.0942	2408.05	1521.5
1041.1759	3131.0753	2410	1514.1
1041.2822	3132.0558	2389.45	1501.55
1041.3884	3133.0357	2381.85	1495.5
1041.4946	3134.015	2389.05	1501.4
1041.6008	3134.9936	2374.3	1485.2
1041.7069	3135.9716	2372.65	1463.85
1041.813	3136.949	2362.95	1476.95
1041.919	3137.9258	2353.55	1461.95
1042.025	3138.902	2339.6	1448
1042.1309	3139.8775	2329.1	1443.05
1042.2368	3140.8524	2331.25	1444.3
1042.3427	3141.8267	2331.3	1442.5
1042.4485	3142.8004	2325.1	1439.85
1042.5542	3143.7735	2333.25	1439.25
1042.6599	3144.7459	2311.35	1422.05
1042.7656	3145.7178	2303.5	1414.7
1042.8712	3146.689	2290.85	1404.65
1042.9768	3147.6596	2290.15	1404
1043.0823	3148.6295	2274.4	1388.25
1043.1878	3149.5989	2271.75	1384.15
1043.2932	3150.5676	2259.05	1372
1043.3986	3151.5357	2247.9	1364.45
1043.5039	3152.5032	2251.8	1367.75
1043.6092	3153.4701	2251.6	1365.7
1043.7145	3154.4364	2238.4	1350.4
1043.8197	3155.402	2221.7	1336.6
1043.9248	3156.367	2224.2	1337.55
1044.03	3157.3315	2247.2	1318.8
1044.135	3158.2952	2204.6	1316
1044.24	3159.2584	2187.25	1301.6
1044.345	3160.221	2181.45	1294.1
1044.4499	3161.1829	2178.35	1290.65
1044.5548	3162.1442	2170.35	1283.3
1044.6596	3163.105	2161.25	1274.85
1044.7644	3164.065	2158.45	1272.2
1044.8692	3165.0245	2150.5	1262.9
1044.9739	3165.9834	2146.05	1262.15
1045.0785	3166.9416	2136.95	1249.7
1045.1831	3167.8993	2131.55	1244.35
1045.2877	3168.8563	2122.15	1235.05
1045.3922	3169.8127	2110.25	1224.8
1045.4966	3170.7684	2117.8	1229.95
1045.6011	3171.7236	2100.4	1211.85
1045.7054	3172.6782	2093.7	1207.75
1045.8098	3173.6321	2088.05	1201.45
1045.914	3174.5854	2089.45	1197.6
1046.0183	3175.5381	2075.8	1187.3
1046.1224	3176.4902	2080.7	1195.95
1046.2266	3177.4417	2065.3	1178.3
1046.3307	3178.3926	2053.3	1167.2
1046.4347	3179.3428	2045.9	1161
1046.5387	3180.2924	2043.1	1157.2
1046.6427	3181.2415	2037.3	1150.85
1046.7466	3182.1899	2041.4	1153.3
1046.8504	3183.1377	2021.1	1134.75
1046.9542	3184.0848	2028.8	1140.9
1047.058	3185.0314	2021.1	1135.4
1047.1617	3185.9773	1999.05	1113.65
1047.2654	3186.9227	2004.05	1115.45
1047.369	3187.8674	1995.6	1109.35
1047.4726	3188.8115	1994.25	1103.6
1047.5761	3189.755	1986.35	1099.3
1047.6796	3190.6979	1982.5	1095.65
1047.783	3191.6402	1974.9	1089.35
1047.8864	3192.5818	1962.9	1077
1047.9898	3193.5229	1977.5	1074.35
1048.0931	3194.4633	1965.75	1078.65
1048.1963	3195.4031	1950.35	1063.6
1048.2995	3196.3423	1939.65	1051.75
1048.4027	3197.2809	1946.75	1060.75
1048.5058	3198.2189	1934.95	1048.95
1048.6089	3199.1563	1943.25	1040.5
1048.7119	3200.0931	1923.55	1038.55
1048.8148	3201.0292	1919.1	1033.8
1048.9178	3201.9648	1907.7	1020.8
1049.0206	3202.8997	1911.25	1022.4
1049.1235	3203.834	1905.25	1020.05
1049.2262	3204.7677	1898.35	1012.75
1049.329	3205.7008	1884.65	994.5
1049.4317	3206.6333	1890.75	1004.9
1049.5343	3207.5652	1876.5	987.85
1049.6369	3208.4964	1874.2	986.55
1049.7394	3209.4271	1874.3	988.55
1049.8419	3210.3571	1862.4	977.75
1049.9444	3211.2865	1868.4	980.45
1050.0468	3212.2154	1854.8	968.5
1050.1491	3213.1436	1856	966.65
1050.2514	3214.0712	1857.4	964.25
1050.3537	3214.9982	1837.4	949.55
1050.4559	3215.9246	1837.05	949.75
1050.5581	3216.8503	1833.65	948.45
1050.6602	3217.7755	1829.65	940.3
1050.7623	3218.7001	1823.35	935.5
1050.8643	3219.624	1826.05	939.8
1050.9663	3220.5473	1815	928
1051.0682	3221.4701	1807.5	920.25
1051.1701	3222.3922	1799.75	911.6
1051.2719	3223.3137	1804.3	919.3
1051.3737	3224.2346	1793	908.95
1051.4754	3225.1549	1791.5	905
1051.5771	3226.0746	1783.3	899.1
1051.6788	3226.9937	1777.75	891.15
1051.7804	3227.9121	1774.25	889.25
1051.8819	3228.83	1761.75	875.75
1051.9834	3229.7473	1759.35	871.05
1052.0849	3230.6639	1762.65	875.4
1052.1863	3231.5799	1755.05	867.15
1052.2876	3232.4954	1748.1	861.95
1052.3889	3233.4102	1744.25	856.85
1052.4902	3234.3244	1732	846.05
1052.5914	3235.238	1734.55	849.5
1052.6926	3236.151	1758.25	848.45
1052.7937	3237.0634	1724.75	839.95
1052.8948	3237.9752	1724.9	837.8
1052.9958	3238.8864	1716.8	831.35
1053.0968	3239.797	1708.6	822.3
1053.1977	3240.7069	1703.35	816.95
1053.2986	3241.6163	1701.1	813.1
1053.3994	3242.5251	1693.45	808.25
1053.5002	3243.4332	1696.15	811.45
1053.6009	3244.3408	1677.7	790.65
1053.7016	3245.2477	1682.05	795.3
1053.8022	3246.154	1678.3	792.1
1053.9028	3247.0598	1666.15	778.65
1054.0034	3247.9649	1669.45	782.6
1054.1039	3248.8694	1667.2	781.4
1054.2043	3249.7733	1662.45	777.35
1054.3047	3250.6766	1649.5	762.7
1054.4051	3251.5793	1651.35	763.35
1054.5054	3252.4814	1640.7	754.85
1054.6056	3253.3829	1637.25	750.7
1054.7058	3254.2838	1629.8	742.3
1054.806	3255.1841	1629	742.8
1054.9061	3256.0838	1626.4	740.8
1055.0061	3256.9829	1617.15	733.7
1055.1062	3257.8814	1607.3	720.1
1055.2061	3258.7792	1599.85	712.15
1055.306	3259.6765	1597.45	707.7
1055.4059	3260.5731	1589.45	703.4
1055.5057	3261.4692	1578.95	691.05
1055.6055	3262.3647	1576.75	689.45
1055.7052	3263.2595	1556.65	670.8
1055.8049	3264.1538	1555.7	669.55
1055.9045	3265.0474	1542.9	655.75
1056.0041	3265.9404	1528.6	641.9
1056.1036	3266.8329	1526	640.1
1056.2031	3267.7247	1517.25	619.8
1056.3025	3268.616	1495.05	608.55
1056.4019	3269.5066	1480.65	593.4
1056.5013	3270.3966	1470.6	583.4
1056.6005	3271.286	1446.8	563.2
