Software Version:	3.9.2.0
Unit SN:	10000200
Spectrometer SN:	6960
Date:	3/6/2024 9:44:47 AM
Data Line Index:	25
Spectral Points:	2048
Integration time (ms):	125
Averages:	20
Delay (ms):	30
Sequence Number:	1
Processing:	dark subtract
Laser Power (mW):	305
Laser Current (mA):	823
Laser Diode Temp (C):	25.1
Laser Case Temp (C):	24.1
System Temp (C):	23.9
Spectrometer Temp (C):	21.5
CCD Temp (C):	-0.016
Secondary Temp (C):	20.01
Heatsink Temp (C):	17.76
CCDPCB Temp (C):	30.56
SecondaryPCB Temp (C):	25.736

Wavelength	RamanShift	Raw Counts	Dark Subtracted
787.061	30.1047	459.3	50.15
787.2016	32.3739	458.2	50.95
787.3422	34.6426	464.5	60.7
787.4828	36.9109	469.55	61.55
787.6235	39.1787	476.15	64.5
787.7642	41.4461	482.45	67.45
787.9049	43.7131	492.85	73.5
788.0456	45.9796	498.5	77.55
788.1863	48.2456	505.2	78.7
788.3271	50.5112	512.15	82.7
788.4679	52.7764	522.7	89.6
788.6087	55.0411	529.55	94
788.7496	57.3054	542.1	100.85
788.8904	59.5692	550.2	107.3
789.0313	61.8326	556.2	111.8
789.1722	64.0955	570.85	120.1
789.3132	66.3579	582.3	128.6
789.4541	68.6199	600.5	145.05
789.5951	70.8815	631	170.75
789.7361	73.1426	686.4	221.2
789.8771	75.4032	821.65	352.15
790.0181	77.6634	1175.2	701.95
790.1592	79.9231	2004.25	1527.2
790.3003	82.1824	3751.45	3269.2
790.4414	84.4412	6835.6	6345.4
790.5825	86.6995	10955.4	10457
790.7237	88.9574	15019.65	14513.25
790.8648	91.2148	18024.8	17509.35
791.006	93.4717	19661.1	19138.7
791.1472	95.7282	20384.3	19860.3
791.2885	97.9842	20767.05	20240.5
791.4297	100.2398	20892.7	20365.4
791.571	102.4949	20939.1	20409.85
791.7123	104.7495	20964.75	20432.05
791.8536	107.0036	20953.65	20417.65
791.9949	109.2573	20958	20424.4
792.1363	111.5105	20976.4	20439.65
792.2777	113.7632	20974.25	20432.6
792.4191	116.0154	20987.4	20438.05
792.5605	118.2672	21079.05	20534.9
792.7019	120.5185	21055.6	20512.45
792.8434	122.7693	21075.65	20527.45
792.9849	125.0197	21160.05	20607.6
793.1264	127.2696	21165.3	20612
793.2679	129.519	21234	20675.75
793.4094	131.7679	21285.9	20726
793.551	134.0163	21336.65	20773.3
793.6926	136.2642	21366.9	20798
793.8342	138.5117	21413.55	20843.95
793.9758	140.7587	21404.3	20831.65
794.1175	143.0052	21418.6	20842.85
794.2591	145.2512	21391.05	20814.55
794.4008	147.4967	21410.1	20833.35
794.5425	149.7417	21401.3	20820.7
794.6842	151.9863	21391.5	20809.55
794.826	154.2304	21389.85	20803.1
794.9677	156.4739	21381	20788.25
795.1095	158.717	21441.3	20849.45
795.2513	160.9596	21446.25	20847
795.3931	163.2017	21416.9	20815.75
795.535	165.4433	21471.25	20868.8
795.6768	167.6844	21479.85	20874.65
795.8187	169.925	21461.25	20853.85
795.9606	172.1651	21433.35	20821.4
796.1025	174.4047	21457.15	20842.2
796.2445	176.6439	21466.6	20848.6
796.3864	178.8825	21415.55	20796.85
796.5284	181.1206	21519.3	20892.8
796.6704	183.3582	21506.35	20877.4
796.8124	185.5954	21531.85	20901.9
796.9544	187.832	21545.55	20912.9
797.0965	190.0681	21603.65	20968.85
797.2386	192.3037	21622.75	20982.1
797.3806	194.5388	21640.75	20996.05
797.5228	196.7734	21682.15	21039.15
797.6649	199.0075	21805.15	21158.45
797.807	201.2411	21881.35	21233.65
797.9492	203.4742	21916.2	21267.9
798.0914	205.7068	22018.45	21367.9
798.2336	207.9389	22042.85	21391.3
798.3758	210.1704	22090.35	21439.95
798.518	212.4015	22078.15	21437.95
798.6603	214.632	22114.65	21484.35
798.8025	216.862	22148.25	21519.1
798.9448	219.0915	22143.35	21508.5
799.0871	221.3205	22188.15	21551.8
799.2294	223.549	22275.7	21645.45
799.3718	225.777	22302.7	21672.1
799.5141	228.0044	22301.15	21661.65
799.6565	230.2314	22392.25	21750.5
799.7989	232.4578	22396.75	21751.6
799.9413	234.6837	22405.05	21750.15
800.0837	236.909	22430.05	21773.95
800.2262	239.1339	22468.1	21788
800.3687	241.3582	22485.1	21820.15
800.5111	243.582	22485.8	21789.45
800.6536	245.8053	22530.95	21848.3
800.7961	248.0281	22525.9	21848.5
800.9387	250.2503	22511.75	21830.65
801.0812	252.472	22545.6	21862.35
801.2238	254.6932	22584.8	21902.8
801.3664	256.9139	22557.3	21877.15
801.509	259.134	22602.75	21913.8
801.6516	261.3536	22599.45	21914.65
801.7942	263.5727	22669.65	21981.5
801.9369	265.7912	22626.7	21938.7
802.0795	268.0092	22740.5	22050.75
802.2222	270.2267	22747.05	22057.95
802.3649	272.4436	22775.35	22085.15
802.5076	274.6601	22796.2	22095.3
802.6504	276.8759	22825.5	22128.35
802.7931	279.0913	22828	22130.5
802.9359	281.3061	22831.6	22132.3
803.0787	283.5204	22885.25	22184.95
803.2215	285.7341	22927.7	22223.1
803.3643	287.9473	22972	22256
803.5071	290.16	22923.1	22214.6
803.6499	292.3721	22951.3	22247.65
803.7928	294.5837	22910.4	22206.75
803.9357	296.7947	22877	22172.7
804.0786	299.0052	22869.3	22164.7
804.2215	301.2152	22823.35	22117.35
804.3644	303.4246	22855.1	22150.2
804.5074	305.6334	22811.8	22104.2
804.6503	307.8418	22822.9	22110.35
804.7933	310.0495	22803.8	22091.2
804.9363	312.2568	22794.7	22083.35
805.0793	314.4635	22721.25	22004.95
805.2223	316.6696	22664.55	21947
805.3653	318.8752	22598.05	21871.35
805.5084	321.0802	22577.65	21854.75
805.6514	323.2847	22598.5	21876.2
805.7945	325.4887	22536	21811.25
805.9376	327.692	22557.35	21830.9
806.0807	329.8949	22656.45	21930.85
806.2238	332.0972	22627.95	21901.35
806.367	334.2989	22629.85	21899.95
806.5101	336.5001	22593.3	21860.05
806.6533	338.7007	22595.9	21866.4
806.7965	340.9008	22597.1	21866.2
806.9397	343.1003	22569.7	21833.5
807.0829	345.2992	22565.1	21829.85
807.2261	347.4976	22511.9	21775.2
807.3693	349.6955	22512.5	21774.5
807.5126	351.8927	22579.2	21839.6
807.6559	354.0895	22504.9	21751.35
807.7991	356.2856	22525.65	21781.75
807.9424	358.4812	22447.7	21703.3
808.0857	360.6763	22531.7	21782.95
808.2291	362.8707	22473.25	21724.3
808.3724	365.0646	22506.4	21754.65
808.5158	367.258	22495.45	21744.7
808.6591	369.4508	22417	21661.35
808.8025	371.643	22453.45	21697.3
808.9459	373.8346	22412.9	21655.95
809.0893	376.0257	22396.55	21634.45
809.2327	378.2162	22382.95	21622.5
809.3762	380.4062	22376.4	21618.95
809.5196	382.5956	22334.6	21580.1
809.6631	384.7844	22321.7	21571.05
809.8066	386.9726	22232.35	21482.4
809.9501	389.1603	22216.45	21467.05
810.0936	391.3474	22182.65	21391.5
810.2371	393.5339	22128.65	21373.1
810.3806	395.7199	22051.8	21300.1
810.5241	397.9052	22109.65	21356.55
810.6677	400.09	22086.95	21332.35
810.8113	402.2743	22105.85	21352.55
810.9548	404.4579	22102.7	21345.6
811.0984	406.641	22187	21428.1
811.2421	408.8235	22177.9	21414.95
811.3857	411.0054	22197.9	21435.05
811.5293	413.1868	22310	21544.2
811.673	415.3675	22302.1	21529.9
811.8166	417.5477	22336.8	21566.65
811.9603	419.7273	22263.7	21488.9
812.104	421.9064	22161.75	21380.7
812.2477	424.0848	22056.05	21282.55
812.3914	426.2627	21945.6	21170.25
812.5351	428.4399	21876.25	21101.5
812.6788	430.6166	21831.45	21049.15
812.8226	432.7928	21790.05	21007.35
812.9663	434.9683	21719.5	20936.35
813.1101	437.1432	21669.45	20888.95
813.2539	439.3176	21575.65	20796
813.3977	441.4914	21474	20695.2
813.5415	443.6645	21512.65	20731.15
813.6853	445.8371	21393.5	20612.5
813.8291	448.0091	21324.15	20539.95
813.973	450.1806	21277.15	20494.9
814.1168	452.3514	21229.8	20442.5
814.2607	454.5216	21233.2	20440.25
814.4046	456.6913	21123.1	20335.25
814.5485	458.8603	21170.1	20384
814.6924	461.0288	21167.25	20381.5
814.8363	463.1967	21091.85	20308.05
814.9802	465.3639	21113.75	20325.7
815.1241	467.5306	21093.05	20305.65
815.2681	469.6967	21040.9	20254.5
815.412	471.8622	20954.1	20167.7
815.556	474.0271	20973.25	20186.8
815.7	476.1914	20933.5	20142
815.844	478.3551	20946.25	20156.45
815.988	480.5182	20927.6	20138.25
816.132	482.6807	20930.05	20138.3
816.276	484.8426	20943.55	20152.75
816.4201	487.0039	21013.7	20224
816.5641	489.1647	21029.35	20234.7
816.7082	491.3248	21061.15	20265.1
816.8522	493.4843	21012.65	20219.4
816.9963	495.6432	21044.3	20252.05
817.1404	497.8015	20979.25	20180.6
817.2845	499.9592	20961.1	20162.35
817.4286	502.1163	20902.05	20102.75
817.5727	504.2728	20818	20016.55
817.7168	506.4287	20881.8	20085.6
817.861	508.5839	20769.15	19969.5
818.0051	510.7386	20782.4	19982.85
818.1493	512.8927	20777.05	19972.9
818.2935	515.0461	20823.2	20020.15
818.4377	517.199	20809.5	20007.6
818.5818	519.3512	20773.85	19968.05
818.726	521.5029	20844.4	20033.5
818.8703	523.6539	20812.7	20008.8
819.0145	525.8043	20782.6	19975.95
819.1587	527.9541	20739.95	19929.05
819.303	530.1033	20677.7	19867.2
819.4472	532.2519	20653.35	19843.4
819.5915	534.3999	20629.1	19818.6
819.7357	536.5472	20597.55	19787.1
819.88	538.694	20585	19772.9
820.0243	540.8401	20569.1	19756.65
820.1686	542.9856	20577.25	19763.95
820.3129	545.1305	20529.9	19713.8
820.4572	547.2748	20610.15	19796.7
820.6016	549.4185	20562.25	19746
820.7459	551.5615	20536.3	19721.05
820.8902	553.704	20550.85	19734.65
821.0346	555.8458	20490.45	19678
821.1789	557.987	20463.45	19648.95
821.3233	560.1276	20494.25	19679.3
821.4677	562.2675	20540.2	19726.6
821.6121	564.4069	20526.55	19712.95
821.7565	566.5456	20509.05	19698.15
821.9009	568.6837	20502.2	19689.85
822.0453	570.8212	20375.65	19565.1
822.1897	572.958	20332.5	19515.45
822.3342	575.0942	20275.7	19462
822.4786	577.2299	20199.95	19383.25
822.6231	579.3648	20121.4	19307.8
822.7675	581.4992	20036.65	19224.5
822.912	583.6329	19966.3	19152.25
823.0565	585.766	19969.15	19152.7
823.201	587.8985	19940.85	19125.4
823.3454	590.0304	19928.75	19097.05
823.4899	592.1616	19908.85	19085.7
823.6345	594.2922	19848.25	19026.2
823.779	596.4222	19791.45	18970.05
823.9235	598.5515	19716.35	18892
824.068	600.6802	19651.1	18828.2
824.2126	602.8083	19557.6	18735.1
824.3571	604.9358	19545.15	18719.95
824.5017	607.0626	19493	18668.2
824.6462	609.1888	19480.4	18650.75
824.7908	611.3144	19462.85	18635.8
824.9354	613.4393	19428.9	18601.2
825.08	615.5636	19459.75	18631.6
825.2246	617.6873	19458.5	18630.55
825.3692	619.8103	19509.45	18679.6
825.5138	621.9327	19458.4	18627.75
825.6584	624.0544	19411	18584.25
825.803	626.1756	19353.95	18527.45
825.9477	628.2961	19308.2	18478.25
826.0923	630.4159	19283	18453
826.237	632.5351	19285.1	18453.9
826.3816	634.6537	19238.5	18407.8
826.5263	636.7716	19213.3	18379.85
826.6709	638.8889	19193.95	18360.9
826.8156	641.0056	19217.2	18387.1
826.9603	643.1216	19207.75	18372.7
827.105	645.237	19231.45	18397.8
827.2497	647.3518	19162.45	18330.1
827.3944	649.4659	19135	18303.4
827.5391	651.5793	19115.5	18283.2
827.6838	653.6922	19049.85	18217.25
827.8285	655.8043	18998.4	18164.2
827.9733	657.9159	19007	18171.5
828.118	660.0268	18948.15	18111.1
828.2627	662.137	18882.3	18046.8
828.4075	664.2466	18882.2	18043.85
828.5522	666.3556	18897.4	18063.3
828.697	668.4639	18823.85	17986.45
828.8418	670.5716	18863.9	18028.3
828.9865	672.6786	18835.3	17995.25
829.1313	674.785	18768.7	17927.45
829.2761	676.8907	18707.95	17867.85
829.4209	678.9958	18720.1	17881.75
829.5657	681.1002	18655.9	17815.7
829.7105	683.204	18623.9	17780
829.8553	685.3072	18634.15	17791.05
830.0001	687.4097	18605.4	17766.1
830.1449	689.5115	18586.45	17744.35
830.2898	691.6127	18566.55	17726.25
830.4346	693.7132	18539.5	17701.05
830.5794	695.8131	18562.6	17699.6
830.7243	697.9123	18518.5	17674.45
830.8691	700.0109	18480.8	17636.95
831.014	702.1089	18432.85	17590.3
831.1588	704.2061	18429.9	17587.15
831.3037	706.3028	18422.7	17576.55
831.4486	708.3987	18413.65	17571.7
831.5935	710.4941	18389.5	17544.1
831.7383	712.5887	18372.05	17527.65
831.8832	714.6827	18396.3	17548.65
832.0281	716.7761	18362.85	17517.45
832.173	718.8688	18344.2	17499.1
832.3179	720.9608	18342.15	17490.15
832.4628	723.0522	18326.9	17475.25
832.6077	725.1429	18305.5	17457.8
832.7527	727.233	18325.05	17478.7
832.8976	729.3224	18363.6	17514.45
833.0425	731.4112	18307.05	17458
833.1874	733.4993	18264.95	17413.55
833.3324	735.5867	18210	17360.95
833.4773	737.6735	18155.35	17303.3
833.6222	739.7596	18087.75	17234.9
833.7672	741.845	18040.35	17191.8
833.9122	743.9298	18023.7	17169.3
834.0571	746.014	18007.15	17157.65
834.2021	748.0974	17955.85	17100.7
834.347	750.1802	17932.8	17080.55
834.492	752.2624	17893.65	17041.35
834.637	754.3439	17766.6	16913
834.782	756.4247	17743.75	16882.35
834.9269	758.5048	17701.35	16849.05
835.0719	760.5843	17666	16811.3
835.2169	762.6631	17639	16783.6
835.3619	764.7413	17634.85	16780.15
835.5069	766.8188	17636.5	16781
835.6519	768.8956	17610.1	16755.8
835.7969	770.9718	17672.15	16818.4
835.9419	773.0473	17579.25	16726.45
836.0869	775.1221	17558.3	16704
836.232	777.1962	17537.8	16682.7
836.377	779.2697	17493.85	16638.55
836.522	781.3426	17502.4	16626.95
836.667	783.4147	17487.1	16630
836.8121	785.4862	17464.75	16608.55
836.9571	787.557	17417.55	16560.4
837.1021	789.6271	17336.45	16478.75
837.2472	791.6966	17232.6	16376.6
837.3922	793.7654	17139.9	16284.75
837.5373	795.8335	17119.95	16264.5
837.6823	797.901	17052.3	16194.85
837.8274	799.9678	17035.35	16177.95
837.9724	802.0339	16987.3	16130
838.1175	804.0993	17000.6	16132.6
838.2626	806.1641	16940.6	16081.85
838.4076	808.2282	16867.5	16008.2
838.5527	810.2916	16877.75	16018.15
838.6978	812.3544	16840	15982.6
838.8428	814.4164	16763.2	15907.45
838.9879	816.4778	16819.3	15960.15
839.133	818.5385	16762.2	15903
839.2781	820.5986	16752.6	15894.05
839.4232	822.658	16804.95	15943.9
839.5682	824.7166	16751.3	15892.7
839.7133	826.7747	16844.75	15983.05
839.8584	828.832	16843.55	15982.95
840.0035	830.8886	16803.65	15941.35
840.1486	832.9446	16775.7	15913.15
840.2937	834.9999	16741.35	15882.6
840.4388	837.0545	16714.05	15849.45
840.5839	839.1085	16627.3	15763.4
840.729	841.1618	16561.7	15697.2
840.8741	843.2143	16542.4	15680.65
841.0192	845.2662	16461.9	15601.5
841.1643	847.3175	16443.6	15580.15
841.3095	849.368	16400.5	15538.15
841.4546	851.4179	16356.5	15494.35
841.5997	853.467	16301	15438.4
841.7448	855.5155	16267.4	15403.45
841.8899	857.5633	16244.55	15379.5
842.0351	859.6105	16206.85	15343.2
842.1802	861.6569	16194.2	15331
842.3253	863.7027	16170.5	15305.5
842.4704	865.7478	16162.75	15299.8
842.6156	867.7922	16109.45	15244.95
842.7607	869.8359	16096.8	15230.95
842.9058	871.8789	16077.5	15214
843.0509	873.9212	16100.25	15202.7
843.1961	875.9629	16014.25	15150.2
843.3412	878.0039	16041.1	15176.6
843.4863	880.0441	15991.75	15126.55
843.6315	882.0837	16002.25	15136.4
843.7766	884.1226	15978.75	15112.3
843.9218	886.1609	16007.75	15144.4
844.0669	888.1984	16046.35	15184
844.212	890.2352	16077.15	15210.55
844.3572	892.2714	16040.65	15172.25
844.5023	894.3069	16006.6	15138.75
844.6475	896.3416	15945.3	15076
844.7926	898.3757	15913.9	15046.1
844.9377	900.4091	15886.3	15018
845.0829	902.4418	15817.65	14945.1
845.228	904.4739	15787	14918.75
845.3732	906.5052	15784.15	14917.8
845.5183	908.5358	15740.25	14874.7
845.6635	910.5658	15714.35	14843.35
845.8086	912.595	15657.35	14787.45
845.9538	914.6236	15620.25	14751.15
846.0989	916.6515	15578.85	14709.45
846.2441	918.6786	15541.95	14672.85
846.3892	920.7051	15532.9	14661.05
846.5344	922.7309	15549	14682.1
846.6795	924.756	15444.4	14576.65
846.8246	926.7804	15473.35	14602.65
846.9698	928.8041	15356.8	14487.45
847.1149	930.8272	15382.25	14511.7
847.2601	932.8495	15309.25	14436.7
847.4052	934.8711	15293.2	14423.3
847.5504	936.892	15240.85	14369.7
847.6955	938.9123	15231	14359.3
847.8407	940.9318	15167.75	14297.6
847.9858	942.9506	15164.95	14292.4
848.131	944.9688	15105.75	14237.25
848.2761	946.9862	15069.8	14197.65
848.4213	949.003	15013.8	14142.75
848.5664	951.019	14954.25	14081.8
848.7115	953.0344	14907.45	14035.85
848.8567	955.0491	14886.1	14011.75
849.0018	957.063	14869	13996.4
849.147	959.0763	14899.95	14030.15
849.2921	961.0888	14802.65	13930.15
849.4373	963.1007	14821.1	13951.05
849.5824	965.1119	14826.3	13958.55
849.7275	967.1223	14789.6	13916.8
849.8727	969.1321	14744.75	13875.4
850.0178	971.1412	14726.8	13856.5
850.1629	973.1495	14670.45	13797.35
850.3081	975.1572	14700.35	13781.25
850.4532	977.1641	14646.05	13774.15
850.5983	979.1704	14617.1	13743.8
850.7435	981.1759	14565.85	13688.8
850.8886	983.1808	14588	13713.75
851.0337	985.1849	14554.85	13670.45
851.1788	987.1884	14488.1	13611.6
851.324	989.1911	14456.95	13580.45
851.4691	991.1932	14418.05	13543.1
851.6142	993.1945	14400.6	13526.65
851.7593	995.1951	14316.85	13443.2
851.9045	997.1951	14292.35	13413.85
852.0496	999.1943	14238.3	13364.75
852.1947	1001.1928	14168.15	13296.3
852.3398	1003.1906	14112.9	13238.45
852.4849	1005.1877	14130.05	13255.7
852.63	1007.1841	14099.05	13224.7
852.7751	1009.1798	14079	13204.55
852.9202	1011.1748	14015.7	13140.7
853.0653	1013.1691	13957.4	13080.35
853.2104	1015.1627	13884.1	13010.65
853.3555	1017.1556	13791.95	12918.5
853.5006	1019.1477	13771.7	12896.55
853.6457	1021.1392	13665	12794
853.7908	1023.1299	13618.5	12745.1
853.9359	1025.12	13571.7	12697.55
854.081	1027.1093	13522.65	12651.1
854.2261	1029.0979	13516.3	12647.45
854.3712	1031.0859	13472.6	12603.1
854.5163	1033.0731	13435.1	12560.45
854.6613	1035.0596	13394.7	12522.65
854.8064	1037.0454	13329.1	12455.2
854.9515	1039.0304	13301.5	12425.9
855.0965	1041.0148	13236.45	12361.95
855.2416	1042.9985	13226.65	12351.1
855.3867	1044.9814	13179.6	12305.35
855.5317	1046.9636	13137.3	12258.8
855.6768	1048.9452	13089.85	12214.05
855.8219	1050.926	13078.25	12204.15
855.9669	1052.9061	13051.25	12176.35
856.112	1054.8855	13014.85	12139.8
856.257	1056.8642	12987.45	12109.9
856.4021	1058.8421	12977	12096.4
856.5471	1060.8194	12936.45	12057.6
856.6921	1062.7959	12913.25	12035.9
856.8372	1064.7717	12899	12020
856.9822	1066.7469	12860	11980.9
857.1272	1068.7213	12861	11981.5
857.2723	1070.695	12848.15	11971.4
857.4173	1072.6679	12779.45	11902.45
857.5623	1074.6402	12781.65	11905.35
857.7073	1076.6117	12792.2	11908.95
857.8523	1078.5826	12752.8	11875
857.9973	1080.5527	12714.8	11834.05
858.1423	1082.5221	12675.55	11798.15
858.2873	1084.4908	12607.3	11729.05
858.4323	1086.4587	12577.55	11699.9
858.5773	1088.426	12533.15	11653.25
858.7223	1090.3925	12461.7	11579.9
858.8673	1092.3584	12488.95	11611.7
859.0123	1094.3235	12440.75	11565.3
859.1573	1096.2879	12456.2	11577.45
859.3022	1098.2515	12417	11539.3
859.4472	1100.2145	12427.35	11549.45
859.5922	1102.1767	12372.5	11490.5
859.7371	1104.1382	12405.95	11526.15
859.8821	1106.099	12411.5	11531.15
860.027	1108.0591	12389.25	11512.2
860.172	1110.0185	12409.5	11528.6
860.3169	1111.9771	12405.85	11527.25
860.4619	1113.9351	12375.15	11495.95
860.6068	1115.8923	12345.1	11465.9
860.7517	1117.8488	12357.6	11475.9
860.8967	1119.8045	12297.9	11419.7
861.0416	1121.7596	12214.2	11337.85
861.1865	1123.7139	12105.7	11228.5
861.3314	1125.6675	12066.1	11189.15
861.4763	1127.6204	12083.25	11204.3
861.6212	1129.5726	12029.35	11148.15
861.7661	1131.524	12018.75	11137.65
861.911	1133.4748	11998.9	11120.75
862.0559	1135.4248	11922.35	11040.95
862.2008	1137.3741	11872.6	10992.55
862.3457	1139.3226	11833.8	10953.1
862.4905	1141.2705	11846.2	10967.7
862.6354	1143.2176	11775.6	10888.65
862.7803	1145.164	11784.85	10901.35
862.9251	1147.1097	11753.4	10873.3
863.07	1149.0546	11711.05	10830
863.2148	1150.9989	11715.75	10837.7
863.3597	1152.9424	11668.3	10787.25
863.5045	1154.8852	11641.2	10763.35
863.6493	1156.8272	11646.05	10767.15
863.7942	1158.7686	11659.5	10774.4
863.939	1160.7092	11596.35	10714.65
864.0838	1162.6491	11547.4	10665.85
864.2286	1164.5883	11542.8	10664
864.3734	1166.5267	11536.65	10654.75
864.5182	1168.4644	11523.8	10643.9
864.663	1170.4014	11521.55	10636.85
864.8078	1172.3377	11550.4	10672.05
864.9526	1174.2732	11543.65	10666.3
865.0974	1176.2081	11603.1	10723.3
865.2421	1178.1421	11634.6	10749.45
865.3869	1180.0755	11683.15	10802.45
865.5317	1182.0082	11686.2	10805.9
865.6764	1183.9401	11645.85	10764.75
865.8212	1185.8713	11570.2	10690.75
865.9659	1187.8017	11486.1	10606.6
866.1106	1189.7315	11432.75	10554.25
866.2554	1191.6605	11302.1	10422.6
866.4001	1193.5888	11236.3	10359.8
866.5448	1195.5163	11204.1	10322.45
866.6895	1197.4432	11142.2	10262.7
866.8342	1199.3693	11105.5	10226.4
866.9789	1201.2947	11068.3	10177.85
867.1236	1203.2193	11023.55	10142.55
867.2683	1205.1432	11017.75	10134.8
867.413	1207.0664	10967.55	10088.9
867.5576	1208.9889	10944.65	10060.2
867.7023	1210.9106	10887.9	10006.6
867.847	1212.8316	10867	9985.75
867.9916	1214.7519	10846.9	9954.55
868.1363	1216.6715	10830.7	9950.25
868.2809	1218.5903	10833.55	9952.7
868.4255	1220.5084	10808.6	9927.85
868.5701	1222.4257	10818.1	9938.3
868.7148	1224.3424	10747.55	9868.75
868.8594	1226.2583	10731.9	9845.85
869.004	1228.1735	10736.1	9853.25
869.1486	1230.0879	10693.85	9810.85
869.2932	1232.0016	10690.6	9809.5
869.4377	1233.9146	10692.4	9809.85
869.5823	1235.8269	10684.4	9803.75
869.7269	1237.7384	10676.85	9796.1
869.8715	1239.6492	10622.95	9741.9
870.016	1241.5592	10628.3	9744.9
870.1606	1243.4686	10628.15	9746.65
870.3051	1245.3772	10667.5	9786.4
870.4496	1247.285	10692.4	9810.05
870.5941	1249.1922	10705.25	9822.5
870.7387	1251.0986	10751.5	9870.25
870.8832	1253.0042	10738.6	9858.85
871.0277	1254.9092	10772.35	9891.15
871.1722	1256.8134	10804.55	9924.8
871.3167	1258.7169	10866.35	9982.05
871.4611	1260.6196	10841.1	9958.6
871.6056	1262.5216	10841.35	9955.6
871.7501	1264.4229	10829.5	9945
871.8945	1266.3234	10796.75	9914.95
872.039	1268.2232	10740.85	9856.3
872.1834	1270.1223	10690.95	9806.6
872.3278	1272.0207	10665.4	9783.75
872.4723	1273.9183	10629.45	9739.6
872.6167	1275.8151	10630	9750.15
872.7611	1277.7113	10636.3	9751.2
872.9055	1279.6067	10638.05	9756.8
873.0499	1281.5014	10702.95	9817.35
873.1943	1283.3953	10809.8	9924.8
873.3386	1285.2885	10913.8	10031.2
873.483	1287.181	10969.55	10085.55
873.6274	1289.0727	11003.05	10120.9
873.7717	1290.9637	10968.35	10085.3
873.9161	1292.854	10936.9	10051.5
874.0604	1294.7435	10822.35	9938.05
874.2047	1296.6323	10762.05	9877.65
874.349	1298.5204	10682	9794.95
874.4933	1300.4077	10642.1	9758.4
874.6376	1302.2943	10599.2	9714.25
874.7819	1304.1802	10577.3	9695
874.9262	1306.0653	10507.75	9623.05
875.0705	1307.9497	10492.65	9608.45
875.2147	1309.8333	10460.8	9579.8
875.359	1311.7162	10450.75	9568.1
875.5032	1313.5984	10406.45	9520.5
875.6475	1315.4798	10355.65	9462.15
875.7917	1317.3605	10359.6	9459.9
875.9359	1319.2405	10350.95	9466
876.0801	1321.1197	10307.55	9420.2
876.2243	1322.9982	10264.15	9376.45
876.3685	1324.876	10212.25	9330.2
876.5127	1326.753	10137.8	9253.55
876.6569	1328.6293	10100.95	9218.15
876.801	1330.5048	10025.15	9138.95
876.9452	1332.3796	9952.05	9070.9
877.0893	1334.2537	9927.75	9019.4
877.2335	1336.127	9873	8988.85
877.3776	1337.9996	9852.45	8969.15
877.5217	1339.8714	9818.3	8933.3
877.6658	1341.7426	9781.6	8856.1
877.8099	1343.6129	9754	8869.7
877.954	1345.4826	9738.1	8853.1
878.0981	1347.3515	9746.1	8858.75
878.2422	1349.2196	9703.9	8818.1
878.3862	1351.087	9688.55	8804.6
878.5303	1352.9537	9690.65	8805.8
878.6743	1354.8197	9680	8796
878.8184	1356.6849	9693.05	8810.1
878.9624	1358.5493	9670.5	8787.45
879.1064	1360.4131	9657.85	8774.15
879.2504	1362.276	9640.2	8755.65
879.3944	1364.1383	9657.65	8773.85
879.5384	1365.9998	9653.9	8765.65
879.6823	1367.8606	9620.15	8735.75
879.8263	1369.7206	9597.95	8713.2
879.9702	1371.5799	9560.1	8672.85
880.1142	1373.4384	9523.1	8638.05
880.2581	1375.2962	9499.45	8615.2
880.402	1377.1533	9451.1	8567.05
880.5459	1379.0096	9382.7	8497.9
880.6898	1380.8652	9329.85	8447.25
880.8337	1382.7201	9302.35	8417.5
880.9776	1384.5742	9227.7	8342.1
881.1215	1386.4275	9182.4	8297.55
881.2653	1388.2802	9132.75	8250.25
881.4092	1390.132	9093.6	8210.5
881.553	1391.9832	9108.05	8221.65
881.6968	1393.8336	9053.4	8169.35
881.8406	1395.6832	9049.2	8161.4
881.9844	1397.5322	9028.4	8143.45
882.1282	1399.3803	8982.55	8094.5
882.272	1401.2278	8924.45	8038.05
882.4158	1403.0745	8915.85	8032.35
882.5595	1404.9204	8861.95	7977.8
882.7033	1406.7656	8858.3	7973.25
882.847	1408.6101	8825.65	7940.55
882.9908	1410.4538	8800.95	7914.5
883.1345	1412.2968	8771.85	7889.3
883.2782	1414.139	8750.35	7865.5
883.4219	1415.9805	8751.05	7868.7
883.5656	1417.8213	8734.65	7829.35
883.7092	1419.6613	8690.4	7806.5
883.8529	1421.5006	8675.9	7790.8
883.9965	1423.3391	8670.75	7787.25
884.1402	1425.1769	8684.9	7799.35
884.2838	1427.0139	8720.2	7834.75
884.4274	1428.8502	8752.05	7867.3
884.571	1430.6858	8769.85	7886.5
884.7146	1432.5206	8738.9	7854.45
884.8582	1434.3547	8747.2	7861.9
885.0018	1436.188	8731.25	7845.85
885.1453	1438.0206	8704.2	7819.2
885.2889	1439.8524	8646.55	7763.6
885.4324	1441.6835	8664.1	7778.95
885.5759	1443.5139	8649.9	7760.75
885.7194	1445.3435	8629.95	7746.35
885.8629	1447.1724	8595.8	7712.25
886.0064	1449.0005	8607.45	7721.55
886.1499	1450.8279	8577.3	7690.1
886.2933	1452.6545	8582.55	7697.3
886.4368	1454.4804	8580.15	7696.95
886.5802	1456.3056	8556.2	7664.7
886.7237	1458.13	8525.3	7644.6
886.8671	1459.9536	8517.45	7632
887.0105	1461.7766	8461.85	7579.75
887.1539	1463.5987	8405.45	7522.7
887.2972	1465.4202	8380.55	7493.75
887.4406	1467.2409	8312.25	7427.15
887.584	1469.0608	8296.75	7411.85
887.7273	1470.88	8271.6	7386.85
887.8706	1472.6984	8242.3	7359.3
888.0139	1474.5161	8173.25	7287.6
888.1572	1476.3331	8168.6	7284.5
888.3005	1478.1493	8157.2	7271.95
888.4438	1479.9648	8160.95	7275.1
888.5871	1481.7795	8125.45	7241.45
888.7303	1483.5935	8105.35	7218.8
888.8736	1485.4067	8090.35	7205.6
889.0168	1487.2192	8105.55	7219.55
889.16	1489.031	8098	7210.85
889.3032	1490.842	8063.1	7178.7
889.4464	1492.6522	8059	7175.95
889.5896	1494.4618	8020.45	7136
889.7327	1496.2705	8000.3	7114.85
889.8759	1498.0785	7989.4	7103.9
890.019	1499.8858	7937.25	7051.05
890.1622	1501.6924	7927.2	7044.75
890.3053	1503.4981	7916.85	7030
890.4484	1505.3032	7879.25	6994.75
890.5914	1507.1075	7863.15	6978.95
890.7345	1508.911	7865.7	6982.15
890.8776	1510.7138	7830.05	6942
891.0206	1512.5159	7807.2	6924.05
891.1637	1514.3172	7781.05	6898.35
891.3067	1516.1178	7756	6871.6
891.4497	1517.9176	7737.1	6850
891.5927	1519.7166	7732.4	6848.8
891.7357	1521.515	7676.9	6785.45
891.8786	1523.3126	7665.25	6782.6
892.0216	1525.1094	7650.6	6763.1
892.1645	1526.9055	7613.45	6731.3
892.3074	1528.7008	7589.95	6705.3
892.4503	1530.4954	7543.2	6658.85
892.5932	1532.2893	7528.8	6646.3
892.7361	1534.0824	7469.65	6582.05
892.879	1535.8747	7461.15	6578.25
893.0218	1537.6663	7437.3	6553.75
893.1647	1539.4572	7418.6	6532.2
893.3075	1541.2473	7394.65	6510.7
893.4503	1543.0367	7365.95	6482.25
893.5931	1544.8253	7364.25	6473.55
893.7359	1546.6132	7337.6	6452.05
893.8787	1548.4003	7321.9	6427.85
894.0214	1550.1867	7287.35	6393.45
894.1642	1551.9723	7274	6383.95
894.3069	1553.7572	7259.95	6373.35
894.4496	1555.5414	7247	6363.1
894.5923	1557.3247	7233.25	6351.6
894.735	1559.1074	7232.35	6349.3
894.8777	1560.8893	7239.1	6358.25
895.0204	1562.6705	7223.7	6339.8
895.163	1564.4509	7223.9	6340.65
895.3056	1566.2305	7212.2	6330.75
895.4482	1568.0094	7227.35	6346.95
895.5908	1569.7876	7189	6305.9
895.7334	1571.565	7175.1	6290.9
895.876	1573.3417	7174.7	6292.15
896.0186	1575.1176	7128.65	6246
896.1611	1576.8928	7143.2	6259.45
896.3036	1578.6672	7105.1	6223.65
896.4461	1580.4409	7108.35	6227.45
896.5886	1582.2138	7091.05	6206.25
896.7311	1583.986	7106.45	6225.35
896.8736	1585.7575	7135.5	6253.75
897.0161	1587.5282	7115.5	6236.45
897.1585	1589.2981	7128.2	6246.95
897.3009	1591.0673	7092.5	6209.85
897.4433	1592.8358	7079.05	6200.2
897.5857	1594.6035	7072.05	6187.6
897.7281	1596.3704	7016.7	6133.75
897.8705	1598.1366	7013.9	6131.4
898.0128	1599.9021	6988.25	6106.55
898.1551	1601.6668	6917.5	6030.5
898.2975	1603.4308	6872.4	5989.3
898.4398	1605.194	6877.6	5991.35
898.5821	1606.9564	6864.75	5983.2
898.7243	1608.7182	6897.3	6015.1
898.8666	1610.4791	6918.55	6039.15
899.0088	1612.2394	6929.55	6050.6
899.1511	1613.9988	6985.8	6105.05
899.2933	1615.7576	7033.85	6152
899.4355	1617.5156	7060.85	6174.3
899.5776	1619.2728	7012.25	6128.85
899.7198	1621.0293	6924.65	6041.95
899.862	1622.785	6846.15	5961.55
900.0041	1624.54	6722	5835.45
900.1462	1626.2942	6627.2	5744.35
900.2883	1628.0477	6548.65	5664.8
900.4304	1629.8005	6476.95	5591.15
900.5725	1631.5525	6409.15	5528.5
900.7145	1633.3037	6347.25	5464.15
900.8566	1635.0542	6351.15	5470.05
900.9986	1636.804	6288.1	5406.25
901.1406	1638.553	6305.85	5333.9
901.2826	1640.3013	6218.95	5337.8
901.4245	1642.0488	6153.25	5270.7
901.5665	1643.7955	6155.2	5277.3
901.7085	1645.5416	6131.95	5251.65
901.8504	1647.2868	6100	5216.4
901.9923	1649.0313	6074.1	5194.25
902.1342	1650.7751	6063.6	5177.4
902.2761	1652.5181	6047.55	5168.5
902.4179	1654.2604	5987	5103.75
902.5598	1656.0019	5999.3	5118.3
902.7016	1657.7427	5985.1	5101.95
902.8434	1659.4828	5991	5109.75
902.9852	1661.222	6003.3	5118.35
903.127	1662.9606	5992	5110.05
903.2687	1664.6984	5997.65	5115.1
903.4105	1666.4354	5993.15	5111.85
903.5522	1668.1717	5971.15	5086.9
903.6939	1669.9072	5890.6	5009.95
903.8356	1671.642	5861.6	4976.35
903.9773	1673.3761	5832.6	4949.65
904.119	1675.1094	5795.1	4913.95
904.2606	1676.8419	5740.85	4859.65
904.4022	1678.5737	5710.55	4826.15
904.5439	1680.3048	5681.15	4800.5
904.6855	1682.0351	5641.6	4758.9
904.827	1683.7646	5617.9	4730.85
904.9686	1685.4934	5605.8	4724.85
905.1101	1687.2215	5591.8	4711.35
905.2517	1688.9488	5515.4	4635.6
905.3932	1690.6754	5522.25	4640.7
905.5347	1692.4012	5502	4619.3
905.6761	1694.1263	5491.3	4609.4
905.8176	1695.8506	5469.65	4586.65
905.9591	1697.5742	5452.2	4571.45
906.1005	1699.297	5422.3	4539.6
906.2419	1701.0191	5390.15	4509.7
906.3833	1702.7404	5398.55	4517.25
906.5246	1704.461	5368.6	4483.5
906.666	1706.1808	5350.3	4465.45
906.8073	1707.8999	5322.45	4438.75
906.9487	1709.6182	5301.6	4421.45
907.09	1711.3358	5300.4	4419.3
907.2313	1713.0527	5267.45	4388.2
907.3725	1714.7688	5264.05	4377.5
907.5138	1716.4841	5239.55	4357.45
907.655	1718.1987	5240.5	4353.9
907.7962	1719.9126	5213.6	4333.1
907.9374	1721.6257	5201.65	4316.5
908.0786	1723.338	5197.2	4316.55
908.2198	1725.0496	5165.05	4284.2
908.3609	1726.7605	5177.75	4295.75
908.502	1728.4706	5150.85	4267.95
908.6431	1730.18	5129.1	4244.8
908.7842	1731.8886	5145.75	4265.75
908.9253	1733.5964	5127.45	4241.65
909.0664	1735.3036	5098.85	4215.75
909.2074	1737.0099	5104.15	4222.6
909.3484	1738.7156	5103.3	4225.15
909.4894	1740.4204	5072.8	4188.75
909.6304	1742.1246	5061.4	4178.45
909.7714	1743.8279	5078.85	4195.05
909.9123	1745.5306	5066.85	4185.1
910.0532	1747.2325	5041.8	4160.5
910.1941	1748.9336	5049.65	4169.65
910.335	1750.634	5018.7	4136.3
910.4759	1752.3336	5014.15	4132.1
910.6168	1754.0325	5014.3	4135.05
910.7576	1755.7307	5007.5	4126.1
910.8984	1757.4281	5011.65	4130.4
911.0392	1759.1247	5033.25	4141
911.18	1760.8206	5009.75	4123.75
911.3208	1762.5158	5006.6	4121.4
911.4615	1764.2102	4978.3	4097.6
911.6022	1765.9039	4972.95	4090.75
911.7429	1767.5968	4947.15	4065.85
911.8836	1769.289	4929.15	4049.3
912.0243	1770.9804	4933.5	4051.45
912.1649	1772.6711	4910.6	4029.25
912.3056	1774.361	4913.75	4032.2
912.4462	1776.0502	4915	4032.85
912.5868	1777.7386	4899.2	4014.5
912.7274	1779.4263	4880.6	3997.35
912.8679	1781.1132	4879.15	3996.6
913.0084	1782.7994	4864.45	3981.6
913.149	1784.4849	4859.55	3979.25
913.2895	1786.1696	4859.4	3959.95
913.4299	1787.8535	4825.45	3945
913.5704	1789.5367	4819.6	3940.2
913.7108	1791.2192	4827.25	3945.65
913.8513	1792.9009	4810.65	3900
913.9917	1794.5818	4807.05	3923.65
914.132	1796.2621	4787.25	3906.15
914.2724	1797.9415	4763.65	3880.5
914.4128	1799.6202	4766.55	3884.1
914.5531	1801.2982	4738.45	3856.9
914.6934	1802.9755	4731.3	3849.25
914.8337	1804.6519	4731.2	3847.3
914.9739	1806.3277	4714.4	3833.5
915.1142	1808.0027	4710.6	3831.05
915.2544	1809.6769	4717.85	3838.05
915.3946	1811.3504	4691.7	3808.25
915.5348	1813.0231	4683.05	3801.55
915.675	1814.6951	4665.2	3785.15
915.8151	1816.3664	4670.1	3787.85
915.9553	1818.0369	4654.1	3772.1
916.0954	1819.7067	4637.05	3759.85
916.2355	1821.3757	4616.45	3735
916.3755	1823.044	4623.35	3741.7
916.5156	1824.7115	4632.35	3750.45
916.6556	1826.3783	4599.85	3721.4
916.7956	1828.0443	4587.05	3706.65
916.9356	1829.7096	4581.25	3698.9
917.0756	1831.3741	4584.5	3699.65
917.2155	1833.0379	4572.8	3691.45
917.3555	1834.701	4577.55	3695.35
917.4954	1836.3633	4548.35	3668.45
917.6353	1838.0248	4528	3645.9
917.7751	1839.6856	4527.7	3647.95
917.915	1841.3457	4529.7	3649.8
918.0548	1843.005	4529.7	3649.25
918.1946	1844.6636	4498.95	3618.85
918.3344	1846.3214	4490.4	3609.6
918.4742	1847.9785	4497.45	3616.7
918.6139	1849.6349	4485.35	3603.35
918.7537	1851.2904	4475.3	3587.7
918.8934	1852.9453	4465.95	3582.3
919.0331	1854.5994	4451.25	3564.8
919.1727	1856.2528	4448.7	3562.45
919.3124	1857.9054	4445.1	3563.75
919.452	1859.5572	4429.15	3549.4
919.5916	1861.2083	4424.1	3540.85
919.7312	1862.8587	4419.8	3537.45
919.8708	1864.5084	4415.6	3532.05
920.0103	1866.1572	4407.1	3527.95
920.1498	1867.8054	4397	3514.55
920.2893	1869.4528	4393.3	3510.4
920.4288	1871.0994	4376.7	3493.05
920.5683	1872.7453	4380	3496.35
920.7077	1874.3905	4364.75	3476.95
920.8471	1876.0349	4350.4	3467.6
920.9865	1877.6786	4362.5	3477.05
921.1259	1879.3215	4332.65	3449.85
921.2653	1880.9637	4332.2	3448.6
921.4046	1882.6051	4336	3453.25
921.5439	1884.2458	4306.5	3423.9
921.6832	1885.8858	4305.6	3422.5
921.8225	1887.525	4311.7	3430.5
921.9617	1889.1634	4269.8	3388.9
922.101	1890.8011	4271.15	3389.45
922.2402	1892.4381	4278.2	3396.8
922.3794	1894.0743	4271.75	3391.55
922.5185	1895.7098	4254.25	3372.75
922.6577	1897.3446	4255.35	3373
922.7968	1898.9786	4240.55	3353.2
922.9359	1900.6118	4227.6	3347.95
923.075	1902.2443	4211.8	3328.65
923.214	1903.8761	4213.35	3331.75
923.3531	1905.5071	4188.05	3305.1
923.4921	1907.1374	4188.05	3303.1
923.6311	1908.7669	4195.1	3314.65
923.77	1910.3957	4170.05	3291.05
923.909	1912.0237	4151.05	3269.35
924.0479	1913.651	4141.05	3256.75
924.1868	1915.2776	4142.4	3260.25
924.3257	1916.9034	4131.35	3249.85
924.4646	1918.5285	4124.3	3245
924.6034	1920.1528	4098.6	3217.7
924.7422	1921.7764	4094.8	3211.8
924.881	1923.3992	4081.05	3199.4
925.0198	1925.0213	4065.05	3182.6
925.1586	1926.6427	4046.65	3165.4
925.2973	1928.2633	4222.6	3126.3
925.436	1929.8832	4076.8	3193.45
925.5747	1931.5023	4036.75	3154.45
925.7134	1933.1207	4026.95	3145.55
925.852	1934.7383	4004.25	3122.3
925.9906	1936.3552	3987.15	3104.05
926.1292	1937.9714	4005.8	3124.3
926.2678	1939.5868	3992.35	3110.9
926.4064	1941.2015	3963.6	3082.15
926.5449	1942.8154	3969.3	3087
926.6834	1944.4286	3942.9	3061.8
926.8219	1946.041	3949.9	3047.65
926.9604	1947.6528	3928.1	3041.8
927.0988	1949.2637	3917.2	3037.2
927.2372	1950.8739	3909.3	3026.5
927.3756	1952.4834	3912	3030.1
927.514	1954.0921	3902.15	3018.05
927.6523	1955.7001	3898.5	3012.6
927.7907	1957.3074	3885.85	3004.6
927.929	1958.9139	3872.85	2993.8
928.0673	1960.5197	3876.5	2994.2
928.2055	1962.1247	3867.7	2988.5
928.3438	1963.729	3846.95	2965.5
928.482	1965.3325	3854.05	2948.65
928.6202	1966.9353	3831.5	2953.45
928.7584	1968.5374	3815.55	2932.85
928.8965	1970.1387	3810.35	2931.55
929.0346	1971.7393	3803.4	2921.75
929.1727	1973.3392	3793.15	2914.45
929.3108	1974.9383	3781.15	2900.75
929.4489	1976.5366	3770.75	2890.7
929.5869	1978.1342	3772.75	2891.65
929.7249	1979.7311	3772.75	2890.45
929.8629	1981.3273	3749.4	2868.4
930.0009	1982.9227	3735.35	2853.95
930.1388	1984.5173	3739.35	2860.65
930.2767	1986.1112	3724	2844.95
930.4146	1987.7044	3714.8	2836.85
930.5525	1989.2968	3728.25	2847.85
930.6904	1990.8885	3722.7	2840.6
930.8282	1992.4795	3713.1	2831.95
930.966	1994.0697	3699.25	2819.75
931.1038	1995.6592	3695.65	2814.7
931.2415	1997.2479	3679.3	2798.3
931.3793	1998.8359	3667.95	2790.55
931.517	2000.4232	3661.4	2781.7
931.6547	2002.0097	3654.1	2777.65
931.7923	2003.5955	3640.8	2760.25
931.93	2005.1805	3645.55	2763.75
932.0676	2006.7648	3640.8	2762.65
932.2052	2008.3484	3642.55	2763.05
932.3427	2009.9312	3629.3	2746.95
932.4803	2011.5133	3625.9	2747.05
932.6178	2013.0946	3618	2738.5
932.7553	2014.6752	3602.45	2724.9
932.8928	2016.2551	3605.85	2727.95
933.0302	2017.8342	3588.3	2709.1
933.1676	2019.4126	3580.2	2701.75
933.305	2020.9902	3577.55	2699.85
933.4424	2022.5672	3569.65	2689.35
933.5798	2024.1433	3574	2690.75
933.7171	2025.7188	3560.5	2683.95
933.8544	2027.2935	3559.7	2680
933.9917	2028.8674	3546.85	2667.35
934.129	2030.4406	3534.55	2657.85
934.2662	2032.0131	3517.1	2640.65
934.4034	2033.5849	3521.6	2637.9
934.5406	2035.1559	3517.3	2640.6
934.6778	2036.7261	3508.4	2629.95
934.8149	2038.2957	3521.7	2642.5
934.952	2039.8645	3520.8	2642.65
935.0891	2041.4325	3510.5	2629.35
935.2262	2042.9998	3501.7	2625.5
935.3632	2044.5664	3503.75	2622.05
935.5002	2046.1323	3483.2	2604.95
935.6372	2047.6974	3478.95	2600.65
935.7742	2049.2617	3483	2604.5
935.9111	2050.8254	3486.15	2602.85
936.048	2052.3883	3481.15	2602.45
936.1849	2053.9504	3477.7	2596.5
936.3218	2055.5118	3459.4	2579.1
936.4586	2057.0725	3462.7	2579.35
936.5955	2058.6325	3452.45	2573.5
936.7323	2060.1917	3443.15	2565.25
936.869	2061.7502	3446.8	2566.15
937.0058	2063.3079	3425.2	2546.9
937.1425	2064.8649	3433.15	2552.65
937.2792	2066.4212	3423.25	2544.5
937.4159	2067.9767	3430.55	2553.1
937.5525	2069.5315	3407.8	2529.4
937.6891	2071.0856	3414.35	2535.05
937.8257	2072.6389	3401.95	2521.3
937.9623	2074.1915	3390.95	2516.1
938.0989	2075.7433	3389.65	2508.7
938.2354	2077.2945	3374.8	2496.55
938.3719	2078.8448	3375.8	2496.3
938.5084	2080.3945	3353.7	2474.5
938.6448	2081.9434	3382.1	2502.55
938.7812	2083.4916	3366.95	2486.4
938.9176	2085.039	3363.15	2482
939.054	2086.5857	3343	2462.85
939.1903	2088.1317	3350.85	2469.2
939.3267	2089.677	3353.55	2472.4
939.463	2091.2215	3333.55	2456.95
939.5992	2092.7652	3333.75	2452.25
939.7355	2094.3083	3332.45	2451.95
939.8717	2095.8506	3341.3	2463.5
940.0079	2097.3921	3312.55	2434.05
940.1441	2098.933	3311.35	2431.55
940.2802	2100.4731	3320	2439.6
940.4163	2102.0124	3327.5	2430.3
940.5524	2103.5511	3307.15	2427.15
940.6885	2105.089	3306.5	2425.8
940.8245	2106.6261	3298.3	2418.35
940.9606	2108.1626	3292.65	2412.85
941.0965	2109.6983	3306.95	2399.7
941.2325	2111.2332	3295.1	2415.35
941.3684	2112.7675	3274.6	2393.95
941.5044	2114.301	3276.75	2397.75
941.6403	2115.8337	3279.3	2400.1
941.7761	2117.3657	3271.2	2393.7
941.912	2118.897	3276.55	2395.35
942.0478	2120.4276	3276.4	2391.7
942.1835	2121.9575	3257.75	2380.1
942.3193	2123.4866	3252.4	2368.75
942.455	2125.0149	3239.55	2357.35
942.5907	2126.5426	3235.7	2356.65
942.7264	2128.0695	3244.4	2364.75
942.8621	2129.5956	3233.6	2355.55
942.9977	2131.1211	3224.8	2342.3
943.1333	2132.6458	3232.15	2354.4
943.2689	2134.1698	3211.15	2331.3
943.4044	2135.693	3212.3	2330.95
943.54	2137.2155	3213.55	2331.3
943.6755	2138.7373	3206.45	2325.05
943.8109	2140.2584	3202.7	2323.55
943.9464	2141.7787	3201.15	2317.75
944.0818	2143.2983	3192.5	2314.65
944.2172	2144.8171	3170.1	2293.9
944.3526	2146.3353	3177.25	2297.1
944.4879	2147.8527	3162.3	2283.3
944.6232	2149.3693	3168.8	2289.2
944.7585	2150.8853	3167.85	2287.5
944.8938	2152.4005	3146.85	2268.8
945.029	2153.9149	3147.55	2267.6
945.1642	2155.4287	3138.65	2258.8
945.2994	2156.9417	3141.05	2259.65
945.4346	2158.454	3133.25	2253.7
945.5697	2159.9655	3131.15	2253.95
945.7048	2161.4764	3120.95	2241.85
945.8399	2162.9865	3128.85	2250.95
945.9749	2164.4958	3121.4	2241.2
946.1099	2166.0045	3106.4	2224.05
946.2449	2167.5124	3109.35	2230.1
946.3799	2169.0195	3100.3	2222.9
946.5148	2170.526	3099.45	2219.75
946.6498	2172.0317	3090.95	2211.6
946.7846	2173.5367	3092.45	2211.8
946.9195	2175.0409	3075.8	2196.35
947.0543	2176.5445	3085.8	2207.95
947.1891	2178.0473	3077.35	2198.55
947.3239	2179.5494	3058.55	2175.9
947.4587	2181.0507	3066.1	2186.35
947.5934	2182.5513	3055.15	2175.65
947.7281	2184.0512	3051.4	2173.3
947.8628	2185.5504	3029.5	2149.95
947.9974	2187.0488	3024.15	2145
948.132	2188.5465	3035.1	2156.1
948.2666	2190.0435	3025.2	2145.8
948.4012	2191.5397	3005.55	2126.1
948.5357	2193.0353	3009.55	2130.5
948.6702	2194.5301	2988.4	2107.95
948.8047	2196.0241	2977.75	2098.05
948.9392	2197.5175	2986.15	2107.65
949.0736	2199.0101	2979.25	2095.1
949.208	2200.502	2966.6	2089.35
949.3424	2201.9931	2950.65	2071.05
949.4767	2203.4835	2967.15	2086.2
949.611	2204.9733	2954.85	2070.9
949.7453	2206.4622	2951.1	2071.85
949.8796	2207.9505	2940.6	2057.85
950.0138	2209.438	2928.45	2051.5
950.148	2210.9248	2926.55	2046
950.2822	2212.4109	2917.45	2038.7
950.4164	2213.8962	2915.55	2032.9
950.5505	2215.3809	2908	2027.35
950.6846	2216.8648	2907.15	2025.55
950.8186	2218.3479	2897.45	2012.5
950.9527	2219.8304	2884.35	2002.55
951.0867	2221.3121	2871.15	1990.05
951.2207	2222.7931	2876.45	1996.4
951.3546	2224.2733	2868.65	1989.9
951.4886	2225.7529	2871.6	1992.45
951.6225	2227.2317	2855.4	1972.75
951.7563	2228.7098	2853.5	1974.05
951.8902	2230.1872	2851.95	1973.75
952.024	2231.6638	2837.35	1959.95
952.1578	2233.1397	2829.7	1944.8
952.2916	2234.6149	2825.45	1948.1
952.4253	2236.0894	2824.1	1945.05
952.559	2237.5632	2832.3	1945.25
952.6927	2239.0362	2800.9	1921.8
952.8263	2240.5085	2800.35	1919.55
952.9599	2241.9801	2797.3	1915.85
953.0935	2243.4509	2797.75	1918.25
953.2271	2244.921	2792.3	1912.05
953.3606	2246.3904	2780.9	1901.2
953.4941	2247.8591	2774.35	1894.3
953.6276	2249.3271	2769.35	1888.6
953.7611	2250.7943	2751.25	1871.65
953.8945	2252.2608	2749.75	1870.7
954.0279	2253.7266	2747.35	1867.35
954.1612	2255.1917	2748.75	1869.5
954.2946	2256.656	2737.1	1856.85
954.4279	2258.1197	2729.15	1849.35
954.5612	2259.5826	2726.7	1844.5
954.6944	2261.0447	2730.75	1851.3
954.8276	2262.5062	2712.9	1830.95
954.9608	2263.9669	2725.45	1843.55
955.094	2265.4269	2716.3	1838.65
955.2271	2266.8862	2709.6	1830.7
955.3602	2268.3448	2699.9	1822.15
955.4933	2269.8026	2706.95	1827.45
955.6264	2271.2598	2695.45	1817.15
955.7594	2272.7162	2681.8	1804.4
955.8924	2274.1719	2678.75	1798.75
956.0253	2275.6268	2679.45	1801.2
956.1583	2277.0811	2671.3	1790.55
956.2912	2278.5346	2662.2	1783.2
956.4241	2279.9874	2670.4	1790.6
956.5569	2281.4395	2653.9	1775.75
956.6897	2282.8908	2649.55	1765.5
956.8225	2284.3414	2647.45	1766.75
956.9553	2285.7914	2640.4	1763.05
957.088	2287.2406	2642.8	1762.75
957.2207	2288.689	2638.4	1758.6
957.3534	2290.1368	2627.05	1746.9
957.486	2291.5838	2615.3	1732.6
957.6186	2293.0302	2616.9	1735.75
957.7512	2294.4758	2603.65	1725.15
957.8838	2295.9206	2601.85	1719.9
958.0163	2297.3648	2603.35	1723.35
958.1488	2298.8082	2587.45	1707.85
958.2813	2300.251	2581.55	1702.65
958.4137	2301.693	2580.7	1697.85
958.5461	2303.1343	2586.55	1705.95
958.6785	2304.5748	2579.05	1699.5
958.8108	2306.0147	2565.05	1685.25
958.9432	2307.4538	2567.25	1684.85
959.0754	2308.8922	2567.2	1690.35
959.2077	2310.3299	2557.15	1677.35
959.3399	2311.7669	2543.1	1664
959.4721	2313.2031	2541.1	1663.05
959.6043	2314.6387	2538.5	1658.95
959.7365	2316.0735	2519.75	1638.05
959.8686	2317.5076	2529.4	1648.7
960.0006	2318.941	2520	1640.25
960.1327	2320.3737	2510.55	1631.7
960.2647	2321.8056	2521.65	1638.6
960.3967	2323.2369	2502.45	1620.9
960.5287	2324.6674	2506.65	1625.25
960.6606	2326.0972	2493.65	1612.15
960.7925	2327.5263	2488.8	1611.2
960.9244	2328.9547	2498.1	1617.45
961.0562	2330.3823	2501.5	1622.05
961.1881	2331.8092	2490.65	1608.8
961.3198	2333.2355	2479.35	1601
961.4516	2334.661	2472.4	1591.75
961.5833	2336.0858	2464.45	1581.5
961.715	2337.5098	2463.3	1583.45
961.8467	2338.9332	2454.6	1572.7
961.9783	2340.3558	2456.35	1572.45
962.1099	2341.7778	2434.75	1555.75
962.2415	2343.199	2432.65	1551.35
962.373	2344.6195	2427	1548.7
962.5045	2346.0393	2420.35	1540.75
962.636	2347.4583	2422.9	1543.5
962.7675	2348.8767	2420.15	1537.65
962.8989	2350.2943	2419.9	1537.65
963.0303	2351.7113	2402.35	1520.65
963.1617	2353.1275	2411	1531.4
963.293	2354.543	2405.35	1517.75
963.4243	2355.9578	2392.55	1511.4
963.5556	2357.3718	2377.65	1496.4
963.6868	2358.7852	2381.2	1496.5
963.818	2360.1978	2377.4	1497.2
963.9492	2361.6098	2362.35	1484.35
964.0803	2363.021	2363.4	1480.75
964.2114	2364.4315	2363.4	1484.05
964.3425	2365.8413	2352.55	1472.55
964.4736	2367.2504	2346.35	1466.95
964.6046	2368.6587	2334.05	1453.6
964.7356	2370.0664	2339.95	1459.95
964.8666	2371.4733	2322.35	1440.6
964.9975	2372.8795	2317.6	1438.05
965.1284	2374.285	2316.5	1435.7
965.2593	2375.6899	2311.8	1430.8
965.3901	2377.0939	2298.5	1419.05
965.5209	2378.4973	2304.8	1424.6
965.6517	2379.9	2292.8	1412.65
965.7825	2381.3019	2285	1404.65
965.9132	2382.7032	2280.2	1401.2
966.0439	2384.1037	2275	1396.6
966.1745	2385.5035	2273.9	1392.3
966.3051	2386.9027	2273.25	1393.9
966.4357	2388.3011	2270.85	1388.3
966.5663	2389.6987	2263.55	1381.55
966.6968	2391.0957	2243.1	1364.8
966.8273	2392.492	2233.65	1353.35
966.9578	2393.8876	2221.45	1342.05
967.0882	2395.2824	2225.8	1345.7
967.2186	2396.6765	2225.35	1345.05
967.349	2398.07	2225.1	1344.45
967.4793	2399.4627	2214.75	1330.95
967.6097	2400.8547	2216.7	1336.6
967.7399	2402.246	2207.3	1318.55
967.8702	2403.6366	2193.7	1313.15
968.0004	2405.0265	2187.95	1307.2
968.1306	2406.4156	2192.3	1308.5
968.2607	2407.8041	2183.45	1300.15
968.3909	2409.1918	2180.2	1294.85
968.521	2410.5789	2175.7	1294.55
968.651	2411.9652	2166.2	1282.65
968.781	2413.3508	2152.45	1272
968.911	2414.7358	2153	1271.15
969.041	2416.12	2148.35	1270.55
969.1709	2417.5035	2148.7	1269.2
969.3008	2418.8863	2147.95	1267.35
969.4307	2420.2684	2126.7	1243.85
969.5606	2421.6497	2129.65	1246.7
969.6904	2423.0304	2130.45	1249.8
969.8201	2424.4104	2120.85	1238.65
969.9499	2425.7896	2111.85	1230.05
970.0796	2427.1682	2107.75	1227.75
970.2093	2428.546	2106.75	1224.7
970.3389	2429.9232	2108.45	1227.35
970.4685	2431.2996	2112.95	1231.7
970.5981	2432.6753	2094	1215.1
970.7277	2434.0503	2092.5	1210.9
970.8572	2435.4246	2091.75	1210.9
970.9867	2436.7982	2084.2	1204.2
971.1161	2438.1711	2082.8	1202.75
971.2456	2439.5433	2074.3	1193.7
971.375	2440.9148	2077.4	1190.8
971.5043	2442.2856	2075.9	1196.85
971.6336	2443.6557	2064.55	1182.3
971.7629	2445.025	2061.65	1179.05
971.8922	2446.3937	2063.75	1181.3
972.0214	2447.7617	2051.75	1172.6
972.1506	2449.1289	2060.15	1180
972.2798	2450.4955	2035.45	1151.4
972.4089	2451.8613	2043.55	1162.65
972.538	2453.2265	2036.9	1157.35
972.6671	2454.5909	2039.9	1159.45
972.7961	2455.9546	2029.9	1148.55
972.9251	2457.3177	2029.75	1148.2
973.0541	2458.68	2029.25	1147.65
973.1831	2460.0416	2018.8	1135.95
973.312	2461.4025	2017.6	1134.75
973.4408	2462.7627	2020.95	1128.8
973.5697	2464.1222	2004.4	1125
973.6985	2465.4811	2013.45	1132.45
973.8273	2466.8392	2004	1124.6
973.956	2468.1966	2003.25	1119.2
974.0847	2469.5533	1991.95	1109.35
974.2134	2470.9093	1995.85	1114.3
974.3421	2472.2645	1991.2	1108
974.4707	2473.6191	1994.8	1113.5
974.5993	2474.973	1981.7	1101.8
974.7278	2476.3262	1980.35	1096.2
974.8563	2477.6787	1965.4	1084.85
974.9848	2479.0305	1970.4	1091.4
975.1132	2480.3816	1967.15	1086.1
975.2417	2481.7319	1950	1070.65
975.37	2483.0816	1957.35	1074.25
975.4984	2484.4306	1948.9	1066.85
975.6267	2485.7789	1952.25	1072.95
975.755	2487.1264	1944.55	1063.7
975.8833	2488.4733	1930.25	1051.05
976.0115	2489.8195	1931.45	1043.1
976.1397	2491.165	1930	1047.15
976.2678	2492.5097	1928.25	1046.85
976.3959	2493.8538	1918.95	1038.65
976.524	2495.1972	1919.65	1039.9
976.6521	2496.5398	1913.95	1030.55
976.7801	2497.8818	1914.9	1034.05
976.9081	2499.2231	1910.95	1031.75
977.036	2500.5637	1910.1	1025.85
977.164	2501.9035	1903.65	1021.7
977.2918	2503.2427	1895.6	1010.2
977.4197	2504.5812	1889.5	1007.85
977.5475	2505.919	1883.8	1000.85
977.6753	2507.256	1886.1	1005.4
977.8031	2508.5924	1890.1	1008.4
977.9308	2509.9281	1880.05	993.15
978.0585	2511.2631	1870.65	991.8
978.1861	2512.5974	1870.55	993.05
978.3137	2513.9309	1869.15	987.85
978.4413	2515.2638	1887.5	977.95
978.5689	2516.596	1863.75	982.9
978.6964	2517.9275	1856.15	974.25
978.8239	2519.2583	1850.4	970.5
978.9513	2520.5884	1853.3	969
979.0788	2521.9178	1850.8	971.2
979.2062	2523.2465	1837.65	955.85
979.3335	2524.5745	1840.1	958.05
979.4608	2525.9018	1832.7	952.8
979.5881	2527.2284	1820.85	940.9
979.7154	2528.5543	1835.6	956.05
979.8426	2529.8796	1820.2	937.95
979.9698	2531.2041	1810.45	929.45
980.0969	2532.5279	1814.5	935.95
980.224	2533.851	1811.85	929.65
980.3511	2535.1735	1809.45	929.3
980.4781	2536.4952	1809.75	928.75
980.6052	2537.8163	1804.8	924.55
980.7321	2539.1366	1801.4	921.6
980.8591	2540.4562	1799.4	917.05
980.986	2541.7752	1804.55	923.3
981.1129	2543.0935	1800.2	919.25
981.2397	2544.411	1792.95	910.15
981.3665	2545.7279	1787.85	910.15
981.4933	2547.0441	1777.6	897.15
981.62	2548.3596	1792.1	909.75
981.7467	2549.6744	1784.45	904.2
981.8734	2550.9885	1787.45	897.6
982.0001	2552.3019	1771.05	891.15
982.1267	2553.6146	1774.95	891.55
982.2532	2554.9266	1766.9	886.7
982.3798	2556.2379	1766.15	883
982.5063	2557.5485	1765.05	884.15
982.6327	2558.8585	1771.75	885.25
982.7592	2560.1677	1763.95	879.4
982.8856	2561.4762	1761.35	882.15
983.0119	2562.7841	1759.05	875.9
983.1383	2564.0913	1757.7	878.4
983.2646	2565.3977	1758.55	877.9
983.3908	2566.7035	1748.35	868.15
983.517	2568.0086	1745.85	864
983.6432	2569.313	1746.35	863.95
983.7694	2570.6167	1747.8	863.3
983.8955	2571.9197	1745	865.35
984.0216	2573.222	1743.05	858.8
984.1476	2574.5236	1737.95	857.6
984.2737	2575.8246	1740.8	856.3
984.3996	2577.1248	1729.75	847.7
984.5256	2578.4244	1719.7	839.6
984.6515	2579.7232	1726.05	846.4
984.7774	2581.0214	1741.6	835.1
984.9032	2582.3189	1720.2	841.65
985.029	2583.6157	1730.55	843.3
985.1548	2584.9118	1717.75	838.95
985.2806	2586.2072	1713.3	833.05
985.4063	2587.5019	1702.9	820.05
985.5319	2588.7959	1700.1	818.2
985.6576	2590.0893	1702.9	818.75
985.7832	2591.3819	1704.45	824
985.9087	2592.6739	1701.55	824.05
986.0343	2593.9652	1692.9	809.7
986.1597	2595.2557	1696.1	815.55
986.2852	2596.5456	1697.1	813.75
986.4106	2597.8348	1683.3	804.4
986.536	2599.1234	1688.2	807.8
986.6614	2600.4112	1683.85	802.15
986.7867	2601.6983	1670.65	787.9
986.912	2602.9848	1668.05	790.1
987.0372	2604.2705	1677.6	792.2
987.1624	2605.5556	1664.4	783.3
987.2876	2606.84	1662.5	782.05
987.4128	2608.1237	1656.1	775.55
987.5379	2609.4067	1660.35	780.1
987.6629	2610.689	1663.8	775.4
987.788	2611.9707	1640.55	756.7
987.913	2613.2516	1650.1	763.15
988.0379	2614.5319	1642.6	763
988.1629	2615.8115	1636.15	753.1
988.2878	2617.0903	1638.95	756.65
988.4126	2618.3685	1629.45	747.4
988.5375	2619.6461	1626.25	746.6
988.6622	2620.9229	1622.55	742.1
988.787	2622.199	1620.9	739.2
988.9117	2623.4745	1625.05	744.35
989.0364	2624.7493	1615.25	736.05
989.161	2626.0234	1613.85	734.8
989.2857	2627.2968	1613.55	733.85
989.4102	2628.5695	1606.85	724.15
989.5348	2629.8415	1594.75	713.75
989.6593	2631.1128	1605.2	724.2
989.7837	2632.3835	1594.55	714.4
989.9082	2633.6535	1585.15	706.45
990.0326	2634.9228	1591.15	712.55
990.1569	2636.1914	1577.85	699.75
990.2812	2637.4593	1591.1	705.6
990.4055	2638.7265	1582.9	701.45
990.5298	2639.9931	1577	694.35
990.654	2641.259	1571.25	689.5
990.7782	2642.5242	1566.55	685.5
990.9023	2643.7887	1568.15	686.45
991.0264	2645.0525	1564.5	683.9
991.1505	2646.3156	1555.25	674.95
991.2745	2647.5781	1558.05	679.3
991.3985	2648.8398	1553.9	675.05
991.5225	2650.1009	1569.9	680.75
991.6464	2651.3613	1558.65	678.45
991.7703	2652.6211	1543.8	663.55
991.8942	2653.8801	1551.4	674.65
992.018	2655.1385	1541	656.75
992.1418	2656.3961	1547.15	667.75
992.2655	2657.6531	1543.1	662.55
992.3892	2658.9094	1542.35	661.75
992.5129	2660.1651	1538.95	659.75
992.6366	2661.42	1534	655.1
992.7602	2662.6743	1538.9	657.85
992.8837	2663.9279	1530.3	652.3
993.0073	2665.1808	1527.3	646.8
993.1307	2666.433	1530.9	648.5
993.2542	2667.6846	1524.25	643.5
993.3776	2668.9354	1521.5	638.35
993.501	2670.1856	1525.7	644.8
993.6244	2671.4351	1517.8	638.6
993.7477	2672.6839	1516.15	634.55
993.8709	2673.9321	1511.45	630.3
993.9942	2675.1795	1505.05	624.4
994.1174	2676.4263	1506.05	627.45
994.2405	2677.6724	1496.75	619.65
994.3637	2678.9179	1501.05	621.65
994.4868	2680.1626	1493.5	614.25
994.6098	2681.4067	1496.9	617.15
994.7328	2682.6501	1497.9	617.15
994.8558	2683.8928	1495.2	613.25
994.9788	2685.1348	1492.45	614.4
995.1017	2686.3761	1489.45	611.1
995.2245	2687.6168	1488.1	607.15
995.3474	2688.8568	1483.1	601.85
995.4702	2690.0961	1485.45	607.6
995.5929	2691.3348	1478.45	598.05
995.7156	2692.5727	1476	595.45
995.8383	2693.81	1477.6	597.8
995.961	2695.0466	1476	596.65
996.0836	2696.2826	1466.05	585.65
996.2062	2697.5178	1488.5	588.05
996.3287	2698.7524	1467.2	588.5
996.4512	2699.9863	1464.75	584.4
996.5737	2701.2195	1464.95	587.15
996.6961	2702.452	1466.85	581.7
996.8185	2703.6839	1458.6	580
996.9408	2704.9151	1448.05	568.7
997.0631	2706.1456	1449.15	569.2
997.1854	2707.3755	1447.8	568
997.3077	2708.6046	1459.35	577.35
997.4299	2709.8331	1453.55	573.95
997.552	2711.0609	1444.15	565.05
997.6742	2712.2881	1445	566.35
997.7963	2713.5145	1433.1	551.35
997.9183	2714.7403	1443.2	565.15
998.0403	2715.9654	1426.65	546.75
998.1623	2717.1899	1445.1	550.35
998.2842	2718.4136	1435.5	555.2
998.4062	2719.6367	1424.6	545.2
998.528	2720.8591	1437	548.55
998.6498	2722.0809	1426.15	546.95
998.7716	2723.3019	1421.9	538.6
998.8934	2724.5223	1427.4	546.45
999.0151	2725.7421	1417.8	535.9
999.1368	2726.9611	1415.05	533.35
999.2584	2728.1795	1419.6	535.85
999.38	2729.3972	1405.9	526.4
999.5016	2730.6142	1414.4	521
999.6231	2731.8306	1409.05	528.95
999.7446	2733.0462	1400.8	519.25
999.8661	2734.2612	1400.05	516
999.9875	2735.4756	1399.4	517.9
1000.1089	2736.6892	1400.9	519.9
1000.2302	2737.9022	1384.05	504.85
1000.3515	2739.1145	1392.3	513.75
1000.4728	2740.3262	1392.85	503.65
1000.594	2741.5372	1382.1	503.35
1000.7152	2742.7475	1385.55	504.75
1000.8363	2743.9571	1377	497
1000.9575	2745.1661	1383.6	499.85
1001.0785	2746.3744	1380.45	500.95
1001.1996	2747.582	1370.4	491.75
1001.3206	2748.7889	1374.05	492.8
1001.4415	2749.9952	1363	483.65
1001.5625	2751.2008	1362.05	480.25
1001.6833	2752.4057	1369.65	489.05
1001.8042	2753.61	1361.95	479.3
1001.925	2754.8136	1360.85	481.4
1002.0458	2756.0165	1359.55	481.3
1002.1665	2757.2188	1355.4	476.5
1002.2872	2758.4204	1351.75	472.1
1002.4078	2759.6213	1351.4	469.5
1002.5285	2760.8215	1358.05	474.35
1002.649	2762.0211	1352.45	473.4
1002.7696	2763.22	1347.55	465.1
1002.8901	2764.4182	1344.4	465.75
1003.0106	2765.6158	1347.5	465.7
1003.131	2766.8127	1335.35	455.6
1003.2514	2768.009	1333.25	455.2
1003.3717	2769.2045	1338.75	460.25
1003.492	2770.3994	1333.15	453.15
1003.6123	2771.5936	1327.05	447.8
1003.7325	2772.7872	1326.65	447.15
1003.8527	2773.9801	1323.85	443.2
1003.9729	2775.1723	1335.1	438.35
1004.093	2776.3639	1328.5	450.8
1004.2131	2777.5548	1325.3	441.7
1004.3331	2778.745	1322.1	441.6
1004.4531	2779.9346	1312.05	431.6
1004.5731	2781.1235	1323.95	443.5
1004.693	2782.3117	1311.5	433.05
1004.8129	2783.4992	1308.05	430.15
1004.9328	2784.6861	1308.95	431.1
1005.0526	2785.8723	1312.55	432.05
1005.1723	2787.0579	1305.35	426.4
1005.2921	2788.2428	1304.95	425.5
1005.4118	2789.427	1302.4	424.1
1005.5314	2790.6106	1304.3	422.95
1005.651	2791.7935	1296.9	416
1005.7706	2792.9757	1295.55	418.6
1005.8902	2794.1573	1294.55	415.35
1006.0097	2795.3382	1288.6	412.05
1006.1291	2796.5184	1297.45	419.05
1006.2485	2797.698	1296.1	414.9
1006.3679	2798.8769	1288.75	409.35
1006.4873	2800.0551	1288.35	409.1
1006.6066	2801.2327	1283.6	400.2
1006.7258	2802.4096	1281.1	402.4
1006.8451	2803.5859	1277.6	397.35
1006.9642	2804.7615	1276.9	397.2
1007.0834	2805.9364	1276.4	394.8
1007.2025	2807.1106	1272.85	395.6
1007.3216	2808.2842	1280.55	400.45
1007.4406	2809.4572	1274.8	398.25
1007.5596	2810.6294	1279.45	398.5
1007.6785	2811.801	1272.45	394.6
1007.7975	2812.972	1269.6	391.45
1007.9163	2814.1423	1272.5	392.45
1008.0352	2815.3119	1275.45	396.05
1008.154	2816.4808	1274.1	397.2
1008.2727	2817.6491	1269.75	389.25
1008.3914	2818.8167	1275.25	398.75
1008.5101	2819.9837	1277.85	393.05
1008.6288	2821.15	1279.2	401.25
1008.7474	2822.3157	1279.85	401.6
1008.8659	2823.4807	1285.05	405.1
1008.9844	2824.645	1285.45	406.45
1009.1029	2825.8086	1291.8	414.1
1009.2214	2826.9716	1295.2	415.15
1009.3398	2828.134	1298.6	420.45
1009.4581	2829.2957	1311.15	431.45
1009.5764	2830.4567	1300	422.75
1009.6947	2831.617	1311.1	429.75
1009.813	2832.7767	1313.1	436.2
1009.9312	2833.9358	1304.9	426.35
1010.0493	2835.0941	1310.65	428.3
1010.1675	2836.2519	1302.55	425.2
1010.2855	2837.4089	1309.35	430.85
1010.4036	2838.5653	1293.65	414.4
1010.5216	2839.7211	1294.75	418.05
1010.6396	2840.8761	1289.45	407.75
1010.7575	2842.0306	1285.75	408.9
1010.8754	2843.1843	1287.05	408.7
1010.9932	2844.3374	1289.6	410.5
1011.111	2845.4899	1287.8	409.15
1011.2288	2846.6417	1286.75	406.5
1011.3465	2847.7928	1289.45	409.35
1011.4642	2848.9433	1289	411.05
1011.5818	2850.0931	1286.8	407.2
1011.6995	2851.2422	1292.25	412.2
1011.817	2852.3907	1301.7	419.95
1011.9345	2853.5385	1291.5	412.15
1012.052	2854.6857	1300	408.7
1012.1695	2855.8323	1290.5	413.55
1012.2869	2856.9781	1285.1	405.35
1012.4042	2858.1233	1289.05	409.4
1012.5216	2859.2679	1290.25	409.1
1012.6389	2860.4118	1296.55	418.1
1012.7561	2861.555	1305.1	421.65
1012.8733	2862.6976	1294.95	416.3
1012.9905	2863.8395	1292.65	412.35
1013.1076	2864.9808	1289.9	411.05
1013.2247	2866.1214	1296.4	418
1013.3417	2867.2614	1292.25	413.35
1013.4587	2868.4007	1292.35	409.2
1013.5757	2869.5393	1299.85	419
1013.6926	2870.6773	1293.1	411.6
1013.8095	2871.8146	1295.2	413.85
1013.9263	2872.9513	1291.25	408.75
1014.0431	2874.0874	1294.7	416.25
1014.1599	2875.2227	1294.85	415.85
1014.2766	2876.3574	1290.4	410.8
1014.3933	2877.4915	1291.05	411.85
1014.51	2878.6249	1291.1	410.45
1014.6266	2879.7577	1291.3	412.05
1014.7431	2880.8898	1301.25	410.35
1014.8596	2882.0212	1288.8	412.15
1014.9761	2883.152	1289.4	409.05
1015.0925	2884.2821	1294.6	416.5
1015.2089	2885.4116	1286.9	409.7
1015.3253	2886.5405	1295.55	419
1015.4416	2887.6686	1288.4	404.5
1015.5579	2888.7962	1286.2	409.15
1015.6741	2889.923	1284.4	406.75
1015.7903	2891.0493	1286	408.05
1015.9065	2892.1748	1285.65	407
1016.0226	2893.2997	1282.75	403.35
1016.1387	2894.424	1280.55	403.05
1016.2547	2895.5476	1278.55	398.75
1016.3707	2896.6706	1273.25	396.55
1016.4866	2897.7929	1278.65	399.45
1016.6025	2898.9145	1279	400.25
1016.7184	2900.0355	1277.55	399
1016.8342	2901.1559	1275.75	395.15
1016.95	2902.2756	1272.2	394.95
1017.0658	2903.3946	1269.95	391
1017.1815	2904.513	1273.2	392.15
1017.2971	2905.6308	1272.7	395.95
1017.4127	2906.7479	1260.95	379.35
1017.5283	2907.8643	1266.05	387.1
1017.6439	2908.9801	1266.25	389
1017.7594	2910.0953	1264.3	386.1
1017.8748	2911.2098	1261.7	378.8
1017.9902	2912.3236	1268.2	377.6
1018.1056	2913.4368	1257.9	377.2
1018.2209	2914.5494	1254	376
1018.3362	2915.6613	1263.35	377.95
1018.4515	2916.7725	1253.45	372.05
1018.5667	2917.8831	1246.3	366.35
1018.6819	2918.9931	1249.45	366.4
1018.797	2920.1024	1243.05	362.65
1018.9121	2921.211	1240.6	362.9
1019.0271	2922.319	1233.75	355.55
1019.1421	2923.4264	1238.1	361.1
1019.2571	2924.5331	1234.6	356.95
1019.372	2925.6391	1228	350.95
1019.4869	2926.7445	1226.9	347
1019.6017	2927.8493	1229.55	350.7
1019.7165	2928.9534	1233.5	353
1019.8313	2930.0569	1237.1	354.75
1019.946	2931.1597	1238.75	361.05
1020.0606	2932.2619	1231.3	353.05
1020.1753	2933.3634	1232.7	353.4
1020.2899	2934.4643	1241.55	356.45
1020.4044	2935.5645	1239.7	354.15
1020.5189	2936.6641	1235.6	353.1
1020.6334	2937.763	1234.75	355.9
1020.7478	2938.8613	1234	354.85
1020.8622	2939.959	1235.35	350.35
1020.9765	2941.056	1219.75	341.2
1021.0908	2942.1523	1218.05	337.8
1021.2051	2943.248	1210.55	332.4
1021.3193	2944.3431	1201.5	322.7
1021.4334	2945.4375	1198.25	319.05
1021.5476	2946.5313	1192.1	313.25
1021.6617	2947.6244	1185.85	306.5
1021.7757	2948.7169	1181.7	302.6
1021.8897	2949.8087	1175.95	298.45
1022.0037	2950.8999	1165.3	286.4
1022.1176	2951.9904	1164.75	285.5
1022.2315	2953.0803	1151.75	273.2
1022.3453	2954.1696	1157.5	278.75
1022.4591	2955.2582	1150.6	272.75
1022.5728	2956.3462	1145.5	264.4
1022.6865	2957.4335	1146.95	268
1022.8002	2958.5202	1143.1	263
1022.9138	2959.6062	1145.1	265.4
1023.0274	2960.6916	1143.3	264.55
1023.141	2961.7764	1143.8	264.45
1023.2545	2962.8605	1138.15	256.6
1023.3679	2963.9439	1134.25	257.1
1023.4813	2965.0267	1141.55	263.65
1023.5947	2966.1089	1167.6	265.5
1023.708	2967.1905	1133.5	257.1
1023.8213	2968.2714	1132.85	254.05
1023.9346	2969.3516	1130.4	252.6
1024.0478	2970.4312	1141.1	252.85
1024.1609	2971.5102	1134.15	256.7
1024.274	2972.5885	1130.55	253.3
1024.3871	2973.6662	1131.8	247.3
1024.5002	2974.7432	1125.65	248.1
1024.6132	2975.8196	1127.85	247.9
1024.7261	2976.8954	1120.35	243.7
1024.839	2977.9705	1126.65	249
1024.9519	2979.045	1124.6	245.15
1025.0647	2980.1188	1125.5	247.55
1025.1775	2981.192	1119.95	242.15
1025.2902	2982.2645	1123.05	244.3
1025.4029	2983.3364	1114.95	235.7
1025.5156	2984.4077	1114.7	236
1025.6282	2985.4783	1117.6	233.65
1025.7407	2986.5483	1114.2	236.7
1025.8532	2987.6177	1108.05	232.35
1025.9657	2988.6864	1107.25	229.35
1026.0782	2989.7545	1105.2	223.55
1026.1906	2990.8219	1104	225.45
1026.3029	2991.8887	1100.1	221.1
1026.4152	2992.9548	1101.25	221.65
1026.5275	2994.0204	1088.55	210.45
1026.6397	2995.0852	1089.35	212
1026.7519	2996.1495	1085.85	206.75
1026.864	2997.2131	1088.8	210.45
1026.9761	2998.276	1087.1	208.85
1027.0882	2999.3383	1080	201.25
1027.2002	3000.4	1076.85	196
1027.3122	3001.4611	1074.65	196.3
1027.4241	3002.5215	1074.8	195.1
1027.536	3003.5812	1073.15	195
1027.6478	3004.6404	1070.85	194.75
1027.7596	3005.6989	1069.95	190.05
1027.8714	3006.7567	1068.9	190.9
1027.9831	3007.8139	1088.15	186.95
1028.0947	3008.8705	1063.55	184.85
1028.2064	3009.9264	1067.75	185.65
1028.3179	3010.9818	1064.55	184.6
1028.4295	3012.0364	1063.05	182.6
1028.541	3013.0905	1063.8	186.25
1028.6524	3014.1439	1063.85	182.4
1028.7638	3015.1966	1062.6	184.7
1028.8752	3016.2487	1058.75	180.05
1028.9865	3017.3002	1068.25	182.3
1029.0978	3018.3511	1057.75	182.15
1029.209	3019.4013	1058.9	180.1
1029.3202	3020.4509	1054.45	178
1029.4314	3021.4998	1052.8	174.05
1029.5425	3022.5481	1057.95	179.15
1029.6535	3023.5958	1052.25	174
1029.7645	3024.6428	1054.4	176.35
1029.8755	3025.6892	1053.95	175.4
1029.9864	3026.735	1055	175.75
1030.0973	3027.7802	1054.35	175.75
1030.2082	3028.8247	1051.7	171.75
1030.319	3029.8685	1052.8	175.15
1030.4297	3030.9118	1045.5	165.65
1030.5404	3031.9544	1044.35	165.6
1030.6511	3032.9963	1049.4	170.4
1030.7617	3034.0376	1045.65	166.75
1030.8723	3035.0783	1049.15	168.75
1030.9829	3036.1184	1043.25	166.2
1031.0934	3037.1578	1046.8	168.95
1031.2038	3038.1966	1047.45	167.65
1031.3142	3039.2348	1042.4	165
1031.4246	3040.2723	1049.75	162.05
1031.5349	3041.3092	1037.2	161.65
1031.6452	3042.3455	1039.7	161.5
1031.7554	3043.3811	1042.55	165.25
1031.8656	3044.4161	1041.35	162.45
1031.9758	3045.4505	1041.35	163.55
1032.0859	3046.4842	1036.75	159.15
1032.1959	3047.5173	1036.35	159
1032.3059	3048.5498	1034.9	157.75
1032.4159	3049.5816	1039.35	161.2
1032.5258	3050.6128	1039	160.05
1032.6357	3051.6434	1040.25	161.2
1032.7455	3052.6734	1034.95	155.9
1032.8553	3053.7027	1036.05	157.6
1032.9651	3054.7314	1035.4	158.45
1033.0748	3055.7594	1034.95	159.3
1033.1845	3056.7868	1034.3	153.35
1033.2941	3057.8136	1036.3	156.75
1033.4037	3058.8398	1030.5	153.15
1033.5132	3059.8653	1031.8	152.05
1033.6227	3060.8902	1029.55	153.8
1033.7321	3061.9145	1030.9	151
1033.8415	3062.9381	1030.45	152.2
1033.9509	3063.9612	1045.15	151.25
1034.0602	3064.9835	1031.3	154.25
1034.1694	3066.0053	1030.75	149.4
1034.2787	3067.0264	1029.7	151.75
1034.3878	3068.0469	1028.2	148.5
1034.497	3069.0668	1034.4	153.05
1034.6061	3070.086	1026.1	149.3
1034.7151	3071.1046	1024	146.5
1034.8241	3072.1226	1026.8	149.8
1034.9331	3073.1399	1026.5	149.45
1035.042	3074.1567	1025.2	147.45
1035.1508	3075.1727	1021.9	141.15
1035.2597	3076.1882	1025.9	148.3
1035.3684	3077.203	1016.75	138.95
1035.4772	3078.2173	1020.4	140.8
1035.5859	3079.2308	1026.05	144.65
1035.6945	3080.2438	1018.45	136
1035.8031	3081.2561	1014.8	136.55
1035.9117	3082.2678	1018.65	141.1
1036.0202	3083.2789	1018.25	142.45
1036.1286	3084.2893	1016.85	140.55
1036.2371	3085.2991	1014.9	138.5
1036.3454	3086.3083	1017.35	135.1
1036.4538	3087.3169	1012.55	131.9
1036.562	3088.3248	1012.95	133.7
1036.6703	3089.3321	1010.7	130.3
1036.7785	3090.3388	1008.7	131.35
1036.8866	3091.3449	1006.55	128.05
1036.9948	3092.3503	1012.75	130.4
1037.1028	3093.3551	1004.85	129.35
1037.2108	3094.3593	1009.5	130.8
1037.3188	3095.3629	1002.85	125.3
1037.4267	3096.3658	1007.05	127.95
1037.5346	3097.3681	1007.55	129.2
1037.6425	3098.3698	1006.9	126.05
1037.7503	3099.3708	1012.7	128.5
1037.858	3100.3713	1003.85	127.15
1037.9657	3101.3711	1005.75	127.9
1038.0734	3102.3702	1140.95	125.35
1038.181	3103.3688	1007.5	128.95
1038.2886	3104.3667	1002.8	125
1038.3961	3105.364	995.1	117.5
1038.5036	3106.3607	1003.85	123.85
1038.611	3107.3568	1002.75	124
1038.7184	3108.3522	998.75	122.05
1038.8257	3109.347	998.65	120.15
1038.933	3110.3412	999.6	118.75
1039.0403	3111.3348	994	116.25
1039.1475	3112.3277	996.5	117.5
1039.2547	3113.32	990.55	113.4
1039.3618	3114.3117	994.05	115.75
1039.4689	3115.3028	990.1	112.4
1039.5759	3116.2932	993.75	114.9
1039.6829	3117.2831	996.35	114.1
1039.7898	3118.2723	990.05	112.9
1039.8967	3119.2608	987.4	108.2
1040.0035	3120.2488	987.45	108.9
1040.1103	3121.2361	987.8	110.75
1040.2171	3122.2229	986	108.55
1040.3238	3123.209	985.8	107.5
1040.4305	3124.1944	985.85	108
1040.5371	3125.1793	988.2	110.05
1040.6437	3126.1635	986.45	108.75
1040.7502	3127.1471	982.4	104
1040.8567	3128.1301	983	105.35
1040.9631	3129.1125	980.55	104.4
1041.0695	3130.0942	983.9	104.9
1041.1759	3131.0753	994.6	107.05
1041.2822	3132.0558	987.5	108.3
1041.3884	3133.0357	984.8	106.05
1041.4946	3134.015	980.8	102.9
1041.6008	3134.9936	978.6	97.55
1041.7069	3135.9716	1001.5	102.25
1041.813	3136.949	982.05	103.45
1041.919	3137.9258	984.15	99.3
1042.025	3138.902	983.15	99.5
1042.1309	3139.8775	977.45	97.5
1042.2368	3140.8524	975.15	97.65
1042.3427	3141.8267	978.6	97.65
1042.4485	3142.8004	976.4	98.2
1042.5542	3143.7735	981.2	96.95
1042.6599	3144.7459	979.6	97.5
1042.7656	3145.7178	979	101.7
1042.8712	3146.689	975	99.15
1042.9768	3147.6596	978	97.15
1043.0823	3148.6295	975.2	98.45
1043.1878	3149.5989	973.35	95
1043.2932	3150.5676	973.65	96.45
1043.3986	3151.5357	972.45	95.65
1043.5039	3152.5032	966.85	90.45
1043.6092	3153.4701	972.95	95.2
1043.7145	3154.4364	971.9	89.45
1043.8197	3155.402	969.2	93.45
1043.9248	3156.367	973	94.2
1044.03	3157.3315	1006	88.2
1044.135	3158.2952	968.75	92.6
1044.24	3159.2584	969.85	91.15
1044.345	3160.221	969.15	90.95
1044.4499	3161.1829	966.85	87.7
1044.5548	3162.1442	966.15	89.85
1044.6596	3163.105	965.65	87.2
1044.7644	3164.065	966.2	87.8
1044.8692	3165.0245	970.15	90.65
1044.9739	3165.9834	963.4	86.65
1045.0785	3166.9416	962.55	83.65
1045.1831	3167.8993	967.2	88.95
1045.2877	3168.8563	963.95	85.2
1045.3922	3169.8127	963.75	84.95
1045.4966	3170.7684	964.05	86.25
1045.6011	3171.7236	963.95	83
1045.7054	3172.6782	963.1	85.6
1045.8098	3173.6321	962.9	82.55
1045.914	3174.5854	965.85	83.25
1046.0183	3175.5381	961.95	86
1046.1224	3176.4902	960.3	80.45
1046.2266	3177.4417	959.1	80.9
1046.3307	3178.3926	957.9	80.05
1046.4347	3179.3428	956.9	80.85
1046.5387	3180.2924	958.35	81.85
1046.6427	3181.2415	958.35	81.1
1046.7466	3182.1899	962.35	85
1046.8504	3183.1377	959	81.95
1046.9542	3184.0848	959.35	77.35
1047.058	3185.0314	955.55	78.45
1047.1617	3185.9773	956.3	76.35
1047.2654	3186.9227	957.95	80.65
1047.369	3187.8674	952.8	73.9
1047.4726	3188.8115	955.1	73.05
1047.5761	3189.755	955.15	79.4
1047.6796	3190.6979	949.45	71.15
1047.783	3191.6402	953.1	76.2
1047.8864	3192.5818	952.9	73.35
1047.9898	3193.5229	957.55	73.75
1048.0931	3194.4633	949.1	71.7
1048.1963	3195.4031	951.2	73.05
1048.2995	3196.3423	953.75	75.95
1048.4027	3197.2809	947.7	69.95
1048.5058	3198.2189	950.1	71.4
1048.6089	3199.1563	966.7	73.85
1048.7119	3200.0931	947.95	71.65
1048.8148	3201.0292	946.5	68.3
1048.9178	3201.9648	953.2	74.7
1049.0206	3202.8997	952.45	69
1049.1235	3203.834	949	69.95
1049.2262	3204.7677	948.15	70.3
1049.329	3205.7008	949.4	72.6
1049.4317	3206.6333	947.8	73.35
1049.5343	3207.5652	948.35	67.55
1049.6369	3208.4964	947.8	69.45
1049.7394	3209.4271	945.45	66.15
1049.8419	3210.3571	946.25	68.85
1049.9444	3211.2865	948.65	68.35
1050.0468	3212.2154	945.9	65.2
1050.1491	3213.1436	948.4	68.5
1050.2514	3214.0712	947.5	62.25
1050.3537	3214.9982	943.9	66.35
1050.4559	3215.9246	942.05	62.9
1050.5581	3216.8503	944.05	65.15
1050.6602	3217.7755	944.05	67.2
1050.7623	3218.7001	944.4	65.75
1050.8643	3219.624	940	64.4
1050.9663	3220.5473	942.05	64.55
1051.0682	3221.4701	941.5	62.55
1051.1701	3222.3922	945.8	68
1051.2719	3223.3137	940.65	62.3
1051.3737	3224.2346	940.55	62.85
1051.4754	3225.1549	941.35	62.65
1051.5771	3226.0746	939.3	61.15
1051.6788	3226.9937	939.1	61.9
1051.7804	3227.9121	939.05	62.35
1051.8819	3228.83	939.9	62.75
1051.9834	3229.7473	940.45	64.4
1052.0849	3230.6639	936.95	58.35
1052.1863	3231.5799	939.7	62.1
1052.2876	3232.4954	939.35	60.7
1052.3889	3233.4102	937.95	60.25
1052.4902	3234.3244	939.5	60.2
1052.5914	3235.238	937.65	59.45
1052.6926	3236.151	961.45	60
1052.7937	3237.0634	934.4	59.6
1052.8948	3237.9752	936	58.05
1052.9958	3238.8864	935.2	57.75
1053.0968	3239.797	937.5	57.5
1053.1977	3240.7069	935.15	56.4
1053.2986	3241.6163	936.3	57.3
1053.3994	3242.5251	931.45	52.95
1053.5002	3243.4332	930.7	54.25
1053.6009	3244.3408	934.6	56.8
1053.7016	3245.2477	935.05	59.15
1053.8022	3246.154	935.8	57
1053.9028	3247.0598	933.3	53.3
1054.0034	3247.9649	933.3	54.55
1054.1039	3248.8694	932.05	53.35
1054.2043	3249.7733	930.75	53.65
1054.3047	3250.6766	928.1	50.15
1054.4051	3251.5793	929.95	51.75
1054.5054	3252.4814	930.15	54.05
1054.6056	3253.3829	930.5	54.45
1054.7058	3254.2838	928.65	50.8
1054.806	3255.1841	928.4	51.65
1054.9061	3256.0838	928.45	50.1
1055.0061	3256.9829	927.75	48.1
1055.1062	3257.8814	928	47.65
1055.2061	3258.7792	930	50.25
1055.306	3259.6765	930.35	51.5
1055.4059	3260.5731	925.15	49.7
1055.5057	3261.4692	926.75	47
1055.6055	3262.3647	924.6	45.45
1055.7052	3263.2595	926.6	49.25
1055.8049	3264.1538	925.3	47.9
1055.9045	3265.0474	922.5	43.1
1056.0041	3265.9404	922.4	44.5
1056.1036	3266.8329	919.9	43.7
1056.2031	3267.7247	931.75	43.55
1056.3025	3268.616	916.5	42.05
1056.4019	3269.5066	919.4	41.45
1056.5013	3270.3966	919.45	40.5
1056.6005	3271.286	915.35	38.2
