Software Version:	3.9.2.0
Unit SN:	10000200
Spectrometer SN:	6960
Date:	3/6/2024 9:28:14 AM
Data Line Index:	25
Spectral Points:	2048
Integration time (ms):	125
Averages:	20
Delay (ms):	30
Sequence Number:	1
Processing:	dark subtract
Laser Power (mW):	300
Laser Current (mA):	820
Laser Diode Temp (C):	25.1
Laser Case Temp (C):	23.3
System Temp (C):	23
Spectrometer Temp (C):	20.8
CCD Temp (C):	-0.065
Secondary Temp (C):	20.007
Heatsink Temp (C):	17.656
CCDPCB Temp (C):	30.004
SecondaryPCB Temp (C):	25.213

Wavelength	RamanShift	Raw Counts	Dark Subtracted
787.061	30.1047	537.75	131
787.2016	32.3739	538.85	133.1
787.3422	34.6426	550.95	143.95
787.4828	36.9109	558.9	150.6
787.6235	39.1787	573.4	162.8
787.7642	41.4461	587.2	167.8
787.9049	43.7131	599.1	179.3
788.0456	45.9796	613.85	192.9
788.1863	48.2456	629.5	202.9
788.3271	50.5112	641.15	210.65
788.4679	52.7764	661.6	227.7
788.6087	55.0411	673.1	236.4
788.7496	57.3054	691.35	250.05
788.8904	59.5692	707.55	265.15
789.0313	61.8326	735.85	288.4
789.1722	64.0955	749.55	300.4
789.3132	66.3579	779.95	325.35
789.4541	68.6199	813.45	356.1
789.5951	70.8815	880.1	417.95
789.7361	73.1426	1000.9	535.9
789.8771	75.4032	1325.55	857.65
790.0181	77.6634	2120.1	1648.2
790.1592	79.9231	4035.05	3559.9
790.3003	82.1824	8240.55	7760.05
790.4414	84.4412	15658.3	15171.5
790.5825	86.6995	25757.7	25261.95
790.7237	88.9574	35292.45	34789.75
790.8648	91.2148	42442.1	41937.1
791.006	93.4717	45662.7	45153.05
791.1472	95.7282	47137.15	46623.3
791.2885	97.9842	47707	47193.9
791.4297	100.2398	48153.4	47638.8
791.571	102.4949	47830.9	47309.6
791.7123	104.7495	48376.7	47853.15
791.8536	107.0036	47986.85	47462.4
791.9949	109.2573	48789.4	48266.6
792.1363	111.5105	48078.25	47552.45
792.2777	113.7632	48725.2	48198.9
792.4191	116.0154	48857.9	48317.9
792.5605	118.2672	49252.55	48722.55
792.7019	120.5185	49248.4	48711.85
792.8434	122.7693	49299.1	48759.4
792.9849	125.0197	48901.8	48358.35
793.1264	127.2696	49958.9	49412.35
793.2679	129.519	50019.25	49472
793.4094	131.7679	50431.7	49879
793.551	134.0163	49093.35	48539.65
793.6926	136.2642	49724.65	49167.35
793.8342	138.5117	50726.1	50164.65
793.9758	140.7587	50423.35	49859.65
794.1175	143.0052	50588.3	50023.3
794.2591	145.2512	49849.4	49285.9
794.4008	147.4967	50832.5	50264.25
794.5425	149.7417	50473.95	49905.05
794.6842	151.9863	50641.85	50067.6
794.826	154.2304	49864.4	49285
794.9677	156.4739	50643.6	50059.85
795.1095	158.717	51042.45	50458.6
795.2513	160.9596	50788.35	50200
795.3931	163.2017	50126.85	49536
795.535	165.4433	51016	50423.95
795.6768	167.6844	50622.05	50028
795.8187	169.925	51089.35	50492.05
795.9606	172.1651	50867.1	50265.15
796.1025	174.4047	50757.9	50152.2
796.2445	176.6439	51001.35	50393.8
796.3864	178.8825	51052.9	50443.65
796.5284	181.1206	51411.8	50797.75
796.6704	183.3582	51486.85	50868.85
796.8124	185.5954	50996	50377.3
796.9544	187.832	51302.3	50680.55
797.0965	190.0681	50971.3	50346.3
797.2386	192.3037	51823.25	51194.15
797.3806	194.5388	52612.95	51982.8
797.5228	196.7734	50814.75	50182.4
797.6649	199.0075	52364.1	51732.95
797.807	201.2411	51949.75	51316.45
797.9492	203.4742	52802.85	52165.2
798.0914	205.7068	52695.25	52053.2
798.2336	207.9389	52652.25	52010.9
798.3758	210.1704	52518.15	51886.2
798.518	212.4015	53311.25	52687.15
798.6603	214.632	52213.9	51595.45
798.8025	216.862	53234.85	52613.4
798.9448	219.0915	53113.35	52492.95
799.0871	221.3205	52776.35	52151
799.2294	223.549	53554.4	52932.95
799.3718	225.777	53480.65	52860.4
799.5141	228.0044	53723.65	53092.65
799.6565	230.2314	53521.05	52887.95
799.7989	232.4578	53503.55	52866.4
799.9413	234.6837	53627.5	52982.7
800.0837	236.909	55083.4	54437.55
800.2262	239.1339	53114.3	52444.15
800.3687	241.3582	53983.65	53329.25
800.5111	243.582	54012.3	53329.05
800.6536	245.8053	54147.5	53474.25
800.7961	248.0281	54149	53479.65
800.9387	250.2503	54517.2	53847.9
801.0812	252.472	53946.5	53276
801.2238	254.6932	54298.65	53627.45
801.3664	256.9139	54078.4	53404.8
801.509	259.134	55472.65	54795.05
801.6516	261.3536	53788.4	53114.05
801.7942	263.5727	54924.85	54249
801.9369	265.7912	54324.2	53646.95
802.0795	268.0092	54576.35	53898.1
802.2222	270.2267	54731.2	54050.5
802.3649	272.4436	54181.85	53500.75
802.5076	274.6601	54809.65	54117.65
802.6504	276.8759	55169.8	54481.5
802.7931	279.0913	54961.2	54274.05
802.9359	281.3061	54877.8	54191.75
803.0787	283.5204	55109.6	54419.05
803.2215	285.7341	54943.3	54248.7
803.3643	287.9473	55707.35	55001.9
803.5071	290.16	55061.6	54364.3
803.6499	292.3721	55620.9	54928.8
803.7928	294.5837	54769	54074.35
803.9357	296.7947	54420.35	53728.25
804.0786	299.0052	55340.75	54646.35
804.2215	301.2152	54840.15	54143.05
804.3644	303.4246	55622.75	54928.2
804.5074	305.6334	55578.7	54883
804.6503	307.8418	54666.3	53965.5
804.7933	310.0495	55060.4	54360.3
804.9363	312.2568	54821.7	54120.1
805.0793	314.4635	54852.85	54149
805.2223	316.6696	55128.4	54423.5
805.3653	318.8752	55598.7	54883.55
805.5084	321.0802	54064.55	53357.45
805.6514	323.2847	54633.1	53924.15
805.7945	325.4887	54804.45	54095.15
805.9376	327.692	54394.05	53682.55
806.0807	329.8949	54861.7	54149.2
806.2238	332.0972	54566	53850.75
806.367	334.2989	54886.1	54168.65
806.5101	336.5001	55581.5	54863.25
806.6533	338.7007	54381.35	53663.5
806.7965	340.9008	54880.4	54161.55
806.9397	343.1003	54986.35	54262.65
807.0829	345.2992	55438.45	54712.95
807.2261	347.4976	54746.2	54022.1
807.3693	349.6955	54979.8	54250.2
807.5126	351.8927	54600.45	53870.5
807.6559	354.0895	55181.15	54440.1
807.7991	356.2856	54947.65	54215.2
807.9424	358.4812	55441.65	54709.9
808.0857	360.6763	54740.25	54003.2
808.2291	362.8707	55196.35	54457.95
808.3724	365.0646	54826.9	54085.15
808.5158	367.258	54898.3	54155.75
808.6591	369.4508	54446.8	53700.15
808.8025	371.643	55014.85	54270.3
808.9459	373.8346	54794.2	54047.3
809.0893	376.0257	54787.95	54040.8
809.2327	378.2162	54581.9	53833.25
809.3762	380.4062	54127.9	53378.95
809.5196	382.5956	54463.35	53715.2
809.6631	384.7844	54567.75	53825.75
809.8066	386.9726	54673.2	53931.6
809.9501	389.1603	54827.35	54086.45
810.0936	391.3474	54068.6	53281.75
810.2371	393.5339	54769.7	54025.6
810.3806	395.7199	53902.65	53162.05
810.5241	397.9052	54009.4	53267.4
810.6677	400.09	54239.8	53494.4
810.8113	402.2743	54510.5	53764.85
810.9548	404.4579	54187.25	53442
811.0984	406.641	54014.45	53263.05
811.2421	408.8235	54392.15	53640.85
811.3857	411.0054	54287.2	53531.3
811.5293	413.1868	54292.05	53534.5
811.673	415.3675	54288.15	53526.8
811.8166	417.5477	54272	53508.5
811.9603	419.7273	54150.15	53385.95
812.104	421.9064	53980.8	53211.1
812.2477	424.0848	54124.8	53362.35
812.3914	426.2627	54302	53537.1
812.5351	428.4399	53572.4	52807.55
812.6788	430.6166	53244.25	52477.95
812.8226	432.7928	53740.2	52969.1
812.9663	434.9683	53198.75	52428.6
813.1101	437.1432	53279.55	52505.9
813.2539	439.3176	53582.4	52811.55
813.3977	441.4914	52868	52096.65
813.5415	443.6645	52950.3	52176.1
813.6853	445.8371	52955.6	52182.05
813.8291	448.0091	52602.35	51829.7
813.973	450.1806	52490.5	51716.35
814.1168	452.3514	52416.2	51639.7
814.2607	454.5216	52181.95	51395.4
814.4046	456.6913	52261.25	51482.85
814.5485	458.8603	52372.55	51595.9
814.6924	461.0288	52009.05	51230.95
814.8363	463.1967	52283.9	51505.1
814.9802	465.3639	52388.4	51608.35
815.1241	467.5306	51642.9	50862.05
815.2681	469.6967	51843.1	51063.85
815.412	471.8622	51934.2	51155.5
815.556	474.0271	51775.7	50994.75
815.7	476.1914	51813.75	51029.4
815.844	478.3551	51769.35	50986.45
815.988	480.5182	52117.55	51334.45
816.132	482.6807	51647.15	50861.9
816.276	484.8426	51779.6	50995.4
816.4201	487.0039	52181.5	51395.6
816.5641	489.1647	52065.85	51282.25
816.7082	491.3248	51615.15	50830.3
816.8522	493.4843	52021.1	51234.35
816.9963	495.6432	52056.85	51271.4
817.1404	497.8015	51473	50683.7
817.2845	499.9592	51780.95	50993.15
817.4286	502.1163	51691.05	50901
817.5727	504.2728	51565.95	50772.05
817.7168	506.4287	51670.4	50880.8
817.861	508.5839	51309.25	50518.85
818.0051	510.7386	51472.2	50681.45
818.1493	512.8927	51561.95	50760.85
818.2935	515.0461	51430.1	50635.6
818.4377	517.199	51610.3	50817.4
818.5818	519.3512	51535.05	50739.65
818.726	521.5029	51272.1	50469
818.8703	523.6539	51511.9	50716.75
819.0145	525.8043	51051.35	50252.2
819.1587	527.9541	51305.4	50505.25
819.303	530.1033	51172.7	50370.9
819.4472	532.2519	50950.9	50150.3
819.5915	534.3999	51074.1	50272.9
819.7357	536.5472	51252.9	50451
819.88	538.694	50697.6	49896.2
820.0243	540.8401	51027.5	50226.75
820.1686	542.9856	50939	50135.25
820.3129	545.1305	50965.25	50161.05
820.4572	547.2748	50891.75	50088.5
820.6016	549.4185	50863.25	50057.25
820.7459	551.5615	50978.55	50175
820.8902	553.704	50915.8	50110.85
821.0346	555.8458	50653.7	49848.15
821.1789	557.987	50724.55	49920.45
821.3233	560.1276	50773.55	49968.7
821.4677	562.2675	50694.75	49889.8
821.6121	564.4069	50676.8	49872.7
821.7565	566.5456	50748.85	49942.05
821.9009	568.6837	50470.3	49665.15
822.0453	570.8212	50464.35	49656.85
822.1897	572.958	50077.7	49268.55
822.3342	575.0942	50188.9	49381.3
822.4786	577.2299	49931.2	49121
822.6231	579.3648	49853	49042.75
822.7675	581.4992	49566	48755.35
822.912	583.6329	49450.35	48641.3
823.0565	585.766	49407.8	48600.6
823.201	587.8985	49440.85	48631.5
823.3454	590.0304	49079.5	48244.25
823.4899	592.1616	49245.4	48428.95
823.6345	594.2922	49072.05	48258.75
823.779	596.4222	48925.25	48110.2
823.9235	598.5515	48870.55	48054.85
824.068	600.6802	48755.05	47940.85
824.2126	602.8083	48485.15	47669.5
824.3571	604.9358	48447.5	47629.4
824.5017	607.0626	48363.4	47547.8
824.6462	609.1888	48273.55	47453.6
824.7908	611.3144	48313.45	47494.6
824.9354	613.4393	48161.85	47343.55
825.08	615.5636	48145.95	47325.75
825.2246	617.6873	48142.85	47324.7
825.3692	619.8103	48187.5	47367.85
825.5138	621.9327	48131.15	47308.6
825.6584	624.0544	48069.05	47247.5
825.803	626.1756	47909.2	47088.75
825.9477	628.2961	47892.95	47071.15
826.0923	630.4159	47730.15	46908.95
826.237	632.5351	47746.35	46921.45
826.3816	634.6537	47776.1	46950.95
826.5263	636.7716	47541.2	46715.65
826.6709	638.8889	47597	46773.25
826.8156	641.0056	47617.4	46794.45
826.9603	643.1216	47540.15	46714.75
827.105	645.237	47614.05	46786.7
827.2497	647.3518	47410.9	46587.3
827.3944	649.4659	47378.55	46552.7
827.5391	651.5793	47332.05	46507.1
827.6838	653.6922	47226.85	46404.55
827.8285	655.8043	47133.5	46308.1
827.9733	657.9159	47178.9	46350.7
828.118	660.0268	46834.55	46005
828.2627	662.137	46876.7	46048
828.4075	664.2466	46868.75	46039.45
828.5522	666.3556	46859	46031.55
828.697	668.4639	46698.45	45865.4
828.8418	670.5716	46753.55	45925.2
828.9865	672.6786	46715.7	45882.85
829.1313	674.785	46440.45	45607.65
829.2761	676.8907	46390.5	45557.05
829.4209	678.9958	46356.35	45525
829.5657	681.1002	46262.05	45429.8
829.7105	683.204	46157.9	45321.85
829.8553	685.3072	46116.35	45282.45
830.0001	687.4097	45968.6	45134.45
830.1449	689.5115	45992.05	45157.3
830.2898	691.6127	45979.85	45147
830.4346	693.7132	45861.75	45027.1
830.5794	695.8131	45928.7	45074.1
830.7243	697.9123	45927.45	45089.3
830.8691	700.0109	45833.75	44997.9
831.014	702.1089	45754.65	44920.05
831.1588	704.2061	45684.75	44849.55
831.3037	706.3028	45727.5	44892.15
831.4486	708.3987	45638.85	44802.1
831.5935	710.4941	45531.65	44694.35
831.7383	712.5887	45513.7	44673.2
831.8832	714.6827	45487.65	44645.05
832.0281	716.7761	45456.8	44618.9
832.173	718.8688	45400.7	44559.4
832.3179	720.9608	45284.45	44442.5
832.4628	723.0522	45310.75	44468.9
832.6077	725.1429	45131.9	44292.75
832.7527	727.233	45216	44376.95
832.8976	729.3224	45143.3	44302.45
833.0425	731.4112	45017.35	44174.05
833.1874	733.4993	44973.05	44128.4
833.3324	735.5867	44838.8	43994.9
833.4773	737.6735	44750.8	43908.25
833.6222	739.7596	44597.8	43755.7
833.7672	741.845	44532.8	43689.35
833.9122	743.9298	44355.1	43511.55
834.0571	746.014	44333.45	43487.6
834.2021	748.0974	44317.3	43472.8
834.347	750.1802	44212.55	43366.85
834.492	752.2624	44014.7	43170.65
834.637	754.3439	43885.85	43038
834.782	756.4247	43751.9	42896.25
834.9269	758.5048	43631.7	42786
835.0719	760.5843	43519.1	42674.25
835.2169	762.6631	43403.75	42557.8
835.3619	764.7413	43345.1	42501.55
835.5069	766.8188	43344.9	42497.3
835.6519	768.8956	43210.7	42361.4
835.7969	770.9718	43253.15	42404.1
835.9419	773.0473	43055.2	42207.4
836.0869	775.1221	42951.95	42106.1
836.232	777.1962	42840.9	41993.75
836.377	779.2697	42849.1	41999.25
836.522	781.3426	42753.9	41894.3
836.667	783.4147	42687.85	41838.65
836.8121	785.4862	42675.95	41830.45
836.9571	787.557	42551.95	41703.3
837.1021	789.6271	42410.3	41563.25
837.2472	791.6966	42227.6	41378.65
837.3922	793.7654	42039.4	41189.3
837.5373	795.8335	42003.9	41154.6
837.6823	797.901	41848.25	41000.05
837.8274	799.9678	41829.45	40976.7
837.9724	802.0339	41726.55	40878.1
838.1175	804.0993	41731.7	40873.1
838.2626	806.1641	41570.95	40720.1
838.4076	808.2282	41444.8	40595.15
838.5527	810.2916	41378.4	40523.1
838.6978	812.3544	41320.05	40471.15
838.8428	814.4164	41214.4	40362.45
838.9879	816.4778	41312.05	40460.45
839.133	818.5385	41166.7	40314.85
839.2781	820.5986	41178.05	40325.9
839.4232	822.658	41104.3	40249.85
839.5682	824.7166	40997.75	40146.65
839.7133	826.7747	41152.05	40300.25
839.8584	828.832	41081.75	40227.65
840.0035	830.8886	40924.65	40069.1
840.1486	832.9446	40883.6	40029.2
840.2937	834.9999	40784.05	39931.65
840.4388	837.0545	40744.45	39884.6
840.5839	839.1085	40612.05	39755.45
840.729	841.1618	40495.65	39638.05
840.8741	843.2143	40342.65	39487.15
841.0192	845.2662	40202.8	39345
841.1643	847.3175	40163.55	39309.05
841.3095	849.368	40054.75	39200.3
841.4546	851.4179	39985.1	39130.2
841.5997	853.467	39837.05	38981
841.7448	855.5155	39771.2	38912.45
841.8899	857.5633	39720.25	38862.2
842.0351	859.6105	39650.95	38795.75
842.1802	861.6569	39578.05	38721.15
842.3253	863.7027	39478.05	38621.85
842.4704	865.7478	39477.15	38618.2
842.6156	867.7922	39384.2	38526.75
842.7607	869.8359	39279	38422.4
842.9058	871.8789	39222.35	38364.6
843.0509	873.9212	39225.35	38338.55
843.1961	875.9629	38996.3	38139.05
843.3412	878.0039	39048.9	38188.5
843.4863	880.0441	39011.6	38154.4
843.6315	882.0837	39006.85	38147.65
843.7766	884.1226	38901.75	38042.3
843.9218	886.1609	38911.15	38052.75
844.0669	888.1984	38949.75	38093.85
844.212	890.2352	39009.75	38152.75
844.3572	892.2714	38910	38048.1
844.5023	894.3069	38830.95	37970.2
844.6475	896.3416	38619.85	37757
844.7926	898.3757	38630.1	37770.8
844.9377	900.4091	38517.75	37656
845.0829	902.4418	38490.1	37623.55
845.228	904.4739	38313.7	37451.65
845.3732	906.5052	38316.05	37457.5
845.5183	908.5358	38220.9	37360.9
845.6635	910.5658	38140.25	37277.9
845.8086	912.595	38084.3	37222.7
845.9538	914.6236	37922.3	37060.9
846.0989	916.6515	37857.45	36996.9
846.2441	918.6786	37767.6	36903.55
846.3892	920.7051	37703.2	36837.2
846.5344	922.7309	37770.1	36908.75
846.6795	924.756	37585.65	36721.95
846.8246	926.7804	37538.3	36674.15
846.9698	928.8041	37303.95	36440.1
847.1149	930.8272	37318.25	36455.05
847.2601	932.8495	37136.55	36269.65
847.4052	934.8711	37146.45	36282.7
847.5504	936.892	36923.6	36059.95
847.6955	938.9123	36860	35995.9
847.8407	940.9318	36839.55	35977.7
847.9858	942.9506	36661.05	35795.1
848.131	944.9688	36538	35674.9
848.2761	946.9862	36457.8	35593.4
848.4213	949.003	36255.1	35392.4
848.5664	951.019	36232	35367.45
848.7115	953.0344	36088.5	35222.65
848.8567	955.0491	35980.8	35115.65
849.0018	957.063	35967.4	35103.15
849.147	959.0763	35983.4	35120.4
849.2921	961.0888	35824	34956.35
849.4373	963.1007	35823.3	34958.05
849.5824	965.1119	35811.15	34949.05
849.7275	967.1223	35696.95	34834.15
849.8727	969.1321	35633.9	34770.85
850.0178	971.1412	35560.9	34696.05
850.1629	973.1495	35468	34603.4
850.3081	975.1572	35499.95	34588.15
850.4532	977.1641	35451.6	34586.45
850.5983	979.1704	35278.85	34411.4
850.7435	981.1759	35174.05	34306.35
850.8886	983.1808	35180	34312.7
851.0337	985.1849	35061.55	34189.5
851.1788	987.1884	34945.95	34076.5
851.324	989.1911	34877.7	34007.55
851.4691	991.1932	34804	33935.65
851.6142	993.1945	34636	33768.55
851.7593	995.1951	34449.4	33582.6
851.9045	997.1951	34475.2	33602.65
852.0496	999.1943	34314.05	33446.7
852.1947	1001.1928	34165.65	33297.95
852.3398	1003.1906	34065.3	33197.15
852.4849	1005.1877	33989.75	33120.2
852.63	1007.1841	33873.5	33007.9
852.7751	1009.1798	33768.05	32900.95
852.9202	1011.1748	33668.7	32802.05
853.0653	1013.1691	33554.45	32685.2
853.2104	1015.1627	33425.4	32556.6
853.3555	1017.1556	33195.8	32327.55
853.5006	1019.1477	33084.8	32214.9
853.6457	1021.1392	32887.25	32021.25
853.7908	1023.1299	32802.55	31934.85
853.9359	1025.12	32682.45	31812.75
854.081	1027.1093	32566.55	31700.4
854.2261	1029.0979	32478.25	31610.2
854.3712	1031.0859	32355.6	31487.75
854.5163	1033.0731	32271.35	31402.85
854.6613	1035.0596	32169.3	31301.45
854.8064	1037.0454	31963.8	31094.6
854.9515	1039.0304	31939.65	31069.15
855.0965	1041.0148	31804.25	30934.3
855.2416	1042.9985	31680	30808.3
855.3867	1044.9814	31671.1	30800.65
855.5317	1046.9636	31460.95	30589.6
855.6768	1048.9452	31366.85	30499.8
855.8219	1050.926	31340.05	30471.6
855.9669	1052.9061	31221.15	30352.1
856.112	1054.8855	31152.2	30281.45
856.257	1056.8642	31153.4	30283.25
856.4021	1058.8421	31126.05	30251.4
856.5471	1060.8194	30977.95	30107.65
856.6921	1062.7959	30910.65	30037
856.8372	1064.7717	30837.1	29966.05
856.9822	1066.7469	30819.65	29946.8
857.1272	1068.7213	30745.25	29872
857.2723	1070.695	30734	29861.95
857.4173	1072.6679	30555.55	29683.7
857.5623	1074.6402	30572.55	29701.95
857.7073	1076.6117	30521.4	29645.25
857.8523	1078.5826	30529.3	29656.55
857.9973	1080.5527	30380.8	29505.9
858.1423	1082.5221	30244.35	29371.85
858.2873	1084.4908	30170.9	29298
858.4323	1086.4587	30021.1	29146.85
858.5773	1088.426	30025.2	29153.55
858.7223	1090.3925	29886.1	29010.05
858.8673	1092.3584	29863.25	28989.7
859.0123	1094.3235	29692.5	28821.4
859.1573	1096.2879	29641.35	28768.15
859.3022	1098.2515	29665.7	28793.25
859.4472	1100.2145	29603.05	28731.25
859.5922	1102.1767	29575.05	28700.95
859.7371	1104.1382	29554	28683.55
859.8821	1106.099	29500.6	28627.1
860.027	1108.0591	29413.35	28541.45
860.172	1110.0185	29361.5	28488
860.3169	1111.9771	29372.9	28502.3
860.4619	1113.9351	29278.8	28405.25
860.6068	1115.8923	29282.15	28407.75
860.7517	1117.8488	29258.85	28384.75
860.8967	1119.8045	29084.85	28211.4
861.0416	1121.7596	29026.15	28152.45
861.1865	1123.7139	28776.1	27904.25
861.3314	1125.6675	28680.3	27807
861.4763	1127.6204	28695.25	27821.5
861.6212	1129.5726	28595	27719.95
861.7661	1131.524	28568.65	27698.65
861.911	1133.4748	28543.6	27669.1
862.0559	1135.4248	28378	27501.35
862.2008	1137.3741	28294.65	27419.4
862.3457	1139.3226	28195.15	27321.85
862.4905	1141.2705	28215.35	27342.5
862.6354	1143.2176	28029.45	27151.8
862.7803	1145.164	28016	27142.2
862.9251	1147.1097	27975.95	27101.25
863.07	1149.0546	27971.7	27096.1
863.2148	1150.9989	27915	27038.8
863.3597	1152.9424	27874.9	26998.95
863.5045	1154.8852	27812.15	26936.75
863.6493	1156.8272	27785.25	26910.45
863.7942	1158.7686	27753.95	26871.6
863.939	1160.7092	27632.85	26758.9
864.0838	1162.6491	27534.65	26654.85
864.2286	1164.5883	27523.5	26649.4
864.3734	1166.5267	27456.8	26580.4
864.5182	1168.4644	27466.75	26589.95
864.663	1170.4014	27360.15	26480.4
864.8078	1172.3377	27427.35	26555.05
864.9526	1174.2732	27446.5	26573.95
865.0974	1176.2081	27432.6	26560
865.2421	1178.1421	27479.15	26600.6
865.3869	1180.0755	27519.35	26644.95
865.5317	1182.0082	27477.45	26601.9
865.6764	1183.9401	27480.35	26605.55
865.8212	1185.8713	27319.3	26442.2
865.9659	1187.8017	27176.9	26303.25
866.1106	1189.7315	27095.65	26222.5
866.2554	1191.6605	26835.9	25958.45
866.4001	1193.5888	26690.6	25815.4
866.5448	1195.5163	26613.85	25737.75
866.6895	1197.4432	26531.75	25652.3
866.8342	1199.3693	26439.95	25562.7
866.9789	1201.2947	26323.4	25445.25
867.1236	1203.2193	26207.4	25332.7
867.2683	1205.1432	26185.1	25308.3
867.413	1207.0664	26099.1	25222
867.5576	1208.9889	26082.1	25203.2
867.7023	1210.9106	25906.9	25033.2
867.847	1212.8316	25836.25	24960.55
867.9916	1214.7519	25810.9	24924.8
868.1363	1216.6715	25738.3	24861.5
868.2809	1218.5903	25667.3	24790
868.4255	1220.5084	25613	24735.9
868.5701	1222.4257	25678.55	24800.75
868.7148	1224.3424	25546.1	24670.8
868.8594	1226.2583	25530.75	24651.35
869.004	1228.1735	25410.9	24533.4
869.1486	1230.0879	25321.6	24443.55
869.2932	1232.0016	25323.1	24445.75
869.4377	1233.9146	25282.8	24402.5
869.5823	1235.8269	25220.65	24343.35
869.7269	1237.7384	25168.1	24292.5
869.8715	1239.6492	25085.8	24208.4
870.016	1241.5592	25071	24193.3
870.1606	1243.4686	25057.7	24180.35
870.3051	1245.3772	25058.85	24183.35
870.4496	1247.285	25040.45	24161.5
870.5941	1249.1922	24991.65	24113.9
870.7387	1251.0986	25039.95	24163.4
870.8832	1253.0042	24979.25	24100.4
871.0277	1254.9092	25019.15	24142.85
871.1722	1256.8134	25044.7	24168.55
871.3167	1258.7169	25104.3	24226.05
871.4611	1260.6196	25082.05	24204.55
871.6056	1262.5216	25138.05	24258.25
871.7501	1264.4229	25031.65	24152.45
871.8945	1266.3234	25019.75	24141.45
872.039	1268.2232	24932.1	24053.4
872.1834	1270.1223	24837.95	23960.5
872.3278	1272.0207	24764.35	23885.8
872.4723	1273.9183	24733.8	23847.55
872.6167	1275.8151	24667.75	23791.75
872.7611	1277.7113	24656.05	23775.75
872.9055	1279.6067	24610.85	23733
873.0499	1281.5014	24686.35	23804.05
873.1943	1283.3953	24795.6	23914.1
873.3386	1285.2885	24996.35	24118.9
873.483	1287.181	25081.2	24201.95
873.6274	1289.0727	25168.8	24291.65
873.7717	1290.9637	25100.1	24220.9
873.9161	1292.854	24972.65	24094.2
874.0604	1294.7435	24791.95	23911.25
874.2047	1296.6323	24671.25	23790.6
874.349	1298.5204	24541.3	23657.45
874.4933	1300.4077	24440.1	23559.25
874.6376	1302.2943	24351.35	23472.2
874.7819	1304.1802	24320.95	23442.2
874.9262	1306.0653	24237.45	23357.9
875.0705	1307.9497	24220	23339.95
875.2147	1309.8333	24188.8	23311.2
875.359	1311.7162	24109.85	23228.35
875.5032	1313.5984	24087.35	23205.15
875.6475	1315.4798	23968.4	23076.35
875.7917	1317.3605	23924.55	23042.3
875.9359	1319.2405	23929.65	23050.7
876.0801	1321.1197	23901.4	23017.95
876.2243	1322.9982	23860.05	22975.25
876.3685	1324.876	23867.55	22990.1
876.5127	1326.753	23699.15	22819.7
876.6569	1328.6293	23656.9	22776.7
876.801	1330.5048	23542.05	22659.15
876.9452	1332.3796	23381.95	22502.95
877.0893	1334.2537	23330.8	22429.55
877.2335	1336.127	23268.75	22389.3
877.3776	1337.9996	23207.85	22329
877.5217	1339.8714	23127.05	22247.15
877.6658	1341.7426	23057.4	22135.1
877.8099	1343.6129	23036.3	22157.05
877.954	1345.4826	22959.15	22079.1
878.0981	1347.3515	22979.9	22097.35
878.2422	1349.2196	22880.75	21999.9
878.3862	1351.087	22847.95	21966.65
878.5303	1352.9537	22856.2	21975.3
878.6743	1354.8197	22871.5	21991
878.8184	1356.6849	22813.8	21933.7
878.9624	1358.5493	22764.05	21884.65
879.1064	1360.4131	22743.2	21863.95
879.2504	1362.276	22714.05	21833.95
879.3944	1364.1383	22704.8	21825.2
879.5384	1365.9998	22685.7	21799.8
879.6823	1367.8606	22570.95	21691.35
879.8263	1369.7206	22547	21667.9
879.9702	1371.5799	22477.6	21596.6
880.1142	1373.4384	22428.85	21550.05
880.2581	1375.2962	22421.05	21540.7
880.402	1377.1533	22273.55	21394.5
880.5459	1379.0096	22120.8	21242.15
880.6898	1380.8652	22057.05	21174.5
880.8337	1382.7201	22007.55	21127.3
880.9776	1384.5742	21864.55	20983.45
881.1215	1386.4275	21765.2	20884.35
881.2653	1388.2802	21702.05	20822.35
881.4092	1390.132	21621.4	20739.8
881.553	1391.9832	21605.25	20725
881.6968	1393.8336	21486.85	20607.1
881.8406	1395.6832	21422.3	20539.5
881.9844	1397.5322	21370.1	20491.25
882.1282	1399.3803	21306.25	20420.7
882.272	1401.2278	21182.65	20300.55
882.4158	1403.0745	21134.6	20253.05
882.5595	1404.9204	21018.15	20139.95
882.7033	1406.7656	20978.25	20098.55
882.847	1408.6101	20873.7	19993.2
882.9908	1410.4538	20812.9	19932.15
883.1345	1412.2968	20782.6	19902.7
883.2782	1414.139	20702.45	19820.8
883.4219	1415.9805	20691.7	19812.45
883.5656	1417.8213	20606	19703.85
883.7092	1419.6613	20513.95	19632.35
883.8529	1421.5006	20521.4	19637.9
883.9965	1423.3391	20487.9	19607.05
884.1402	1425.1769	20460.55	19578.9
884.2838	1427.0139	20480.45	19599.65
884.4274	1428.8502	20504.35	19619.9
884.571	1430.6858	20503.2	19623
884.7146	1432.5206	20451.85	19570.45
884.8582	1434.3547	20439.1	19558.9
885.0018	1436.188	20409	19527.95
885.1453	1438.0206	20342.15	19458.45
885.2889	1439.8524	20314.9	19432.7
885.4324	1441.6835	20284.4	19402.95
885.5759	1443.5139	20226.9	19342.1
885.7194	1445.3435	20164.9	19283.5
885.8629	1447.1724	20143.75	19263.95
886.0064	1449.0005	20116.65	19233.5
886.1499	1450.8279	20071.85	19189.9
886.2933	1452.6545	20038.15	19158.85
886.4368	1454.4804	20036.85	19156.65
886.5802	1456.3056	19979.25	19089.55
886.7237	1458.13	19921.95	19039.65
886.8671	1459.9536	19942.3	19060.8
887.0105	1461.7766	19863.9	18983.8
887.1539	1463.5987	19797.15	18916.25
887.2972	1465.4202	19695.55	18813.5
887.4406	1467.2409	19595.4	18712.15
887.584	1469.0608	19585.8	18705.95
887.7273	1470.88	19521.8	18639.75
887.8706	1472.6984	19470.4	18590.65
888.0139	1474.5161	19379.1	18495.75
888.1572	1476.3331	19304.9	18424.7
888.3005	1478.1493	19299.1	18416.6
888.4438	1479.9648	19281	18400.3
888.5871	1481.7795	19227.65	18344.2
888.7303	1483.5935	19185.7	18305.1
888.8736	1485.4067	19154.55	18274.55
889.0168	1487.2192	19142.8	18262.9
889.16	1489.031	19125	18242.55
889.3032	1490.842	19076.9	18195.6
889.4464	1492.6522	19061.8	18179.75
889.5896	1494.4618	19027.35	18141.45
889.7327	1496.2705	18986.35	18103.95
889.8759	1498.0785	18944.55	18061.9
890.019	1499.8858	18872.3	17989
890.1622	1501.6924	18803.9	17923.3
890.3053	1503.4981	18789.5	17908.75
890.4484	1505.3032	18751.35	17869.15
890.5914	1507.1075	18739.85	17858
890.7345	1508.911	18674.4	17792.7
890.8776	1510.7138	18666.7	17784.05
891.0206	1512.5159	18567.25	17685.2
891.1637	1514.3172	18559.75	17678.4
891.3067	1516.1178	18441	17560.75
891.4497	1517.9176	18466.55	17583.45
891.5927	1519.7166	18358.05	17478.9
891.7357	1521.515	18324.05	17437.15
891.8786	1523.3126	18259.35	17377.25
892.0216	1525.1094	18252.7	17368.25
892.1645	1526.9055	18192.55	17312.7
892.3074	1528.7008	18124.1	17243.2
892.4503	1530.4954	17997.55	17110.55
892.5932	1532.2893	17959.55	17078.15
892.7361	1534.0824	17851.9	16965.3
892.879	1535.8747	17825.2	16944.25
893.0218	1537.6663	17768.2	16883.9
893.1647	1539.4572	17709.05	16824.95
893.3075	1541.2473	17684.25	16800.55
893.4503	1543.0367	17631.7	16752
893.5931	1544.8253	17532.3	16644.9
893.7359	1546.6132	17545.45	16660.7
893.8787	1548.4003	17446.8	16554.05
894.0214	1550.1867	17405.1	16513.85
894.1642	1551.9723	17384.8	16497.65
894.3069	1553.7572	17338.75	16457.3
894.4496	1555.5414	17262.65	16380.25
894.5923	1557.3247	17252.4	16370
894.735	1559.1074	17244.05	16364.2
894.8777	1560.8893	17168.55	16286.1
895.0204	1562.6705	17162.75	16280.5
895.163	1564.4509	17106.8	16224.75
895.3056	1566.2305	17093.95	16213.5
895.4482	1568.0094	17090.8	16211.4
895.5908	1569.7876	17089.9	16211.4
895.7334	1571.565	17021.75	16139.8
895.876	1573.3417	16981.35	16099.6
896.0186	1575.1176	16928.2	16046.2
896.1611	1576.8928	16908.75	16026.95
896.3036	1578.6672	16851.05	15970.35
896.4461	1580.4409	16839.3	15960.25
896.5886	1582.2138	16821.6	15939.75
896.7311	1583.986	16769.45	15887.9
896.8736	1585.7575	16762.15	15880
897.0161	1587.5282	16733.4	15854.05
897.1585	1589.2981	16775.15	15894.55
897.3009	1591.0673	16673.45	15792.35
897.4433	1592.8358	16679.5	15800.2
897.5857	1594.6035	16646.45	15761.85
897.7281	1596.3704	16554.25	15674.2
897.8705	1598.1366	16464.2	15582.5
898.0128	1599.9021	16402.1	15523.4
898.1551	1601.6668	16314.55	15430.8
898.2975	1603.4308	16230.05	15348.45
898.4398	1605.194	16189.2	15300.85
898.5821	1606.9564	16140.2	15258.55
898.7243	1608.7182	16145.75	15260.4
898.8666	1610.4791	16153.9	15273.9
899.0088	1612.2394	16172.65	15293.1
899.1511	1613.9988	16191.65	15310.6
899.2933	1615.7576	16277.85	15399.85
899.4355	1617.5156	16302.7	15416.05
899.5776	1619.2728	16241.4	15362.3
899.7198	1621.0293	16147.1	15268
899.862	1622.785	16030	15146.05
900.0041	1624.54	15831.1	14946.85
900.1462	1626.2942	15722.2	14840.4
900.2883	1628.0477	15515.05	14630.4
900.4304	1629.8005	15412.35	14525.95
900.5725	1631.5525	15311.4	14430.4
900.7145	1633.3037	15229.1	14348.35
900.8566	1635.0542	15165.95	14284.05
900.9986	1636.804	15072.55	14192.45
901.1406	1638.553	15101.2	14130.6
901.2826	1640.3013	14955.3	14073.3
901.4245	1642.0488	14864.85	13982.35
901.5665	1643.7955	14815.8	13934.15
901.7085	1645.5416	14763.05	13882.15
901.8504	1647.2868	14713.5	13831.95
901.9923	1649.0313	14671.3	13791.2
902.1342	1650.7751	14594.5	13709.6
902.2761	1652.5181	14553.5	13674.35
902.4179	1654.2604	14559.45	13675.85
902.5598	1656.0019	14491.2	13609.95
902.7016	1657.7427	14465.4	13584.3
902.8434	1659.4828	14469.95	13589.35
902.9852	1661.222	14425.85	13542.45
903.127	1662.9606	14407.65	13525.75
903.2687	1664.6984	14423.4	13543.25
903.4105	1666.4354	14419.55	13536.65
903.5522	1668.1717	14346.65	13466.75
903.6939	1669.9072	14259.7	13377.6
903.8356	1671.642	14198.25	13313.2
903.9773	1673.3761	14111.8	13231
904.119	1675.1094	14049.3	13168
904.2606	1676.8419	13955.35	13074.1
904.4022	1678.5737	13850.25	12968.4
904.5439	1680.3048	13820.5	12938.15
904.6855	1682.0351	13765.9	12885.85
904.827	1683.7646	13682.8	12797.55
904.9686	1685.4934	13648.65	12769.55
905.1101	1687.2215	13591.9	12709.85
905.2517	1688.9488	13490.6	12609.25
905.3932	1690.6754	13448.85	12567.3
905.5347	1692.4012	13423.3	12541.1
905.6761	1694.1263	13399.95	12520.65
905.8176	1695.8506	13329.65	12448.1
905.9591	1697.5742	13306.2	12423.7
906.1005	1699.297	13238.5	12357.35
906.2419	1701.0191	13187.75	12307.55
906.3833	1702.7404	13131.65	12252.15
906.5246	1704.461	13052.15	12170
906.666	1706.1808	13010.15	12128.95
906.8073	1707.8999	12925.15	12041.95
906.9487	1709.6182	12923.6	12042.7
907.09	1711.3358	12906.1	12024.1
907.2313	1713.0527	12846.3	11966.45
907.3725	1714.7688	12797.8	11912.05
907.5138	1716.4841	12748.6	11865.25
907.655	1718.1987	12749.4	11863.5
907.7962	1719.9126	12694	11811.85
907.9374	1721.6257	12638.15	11753.45
908.0786	1723.338	12623.35	11742.65
908.2198	1725.0496	12567.4	11684.7
908.3609	1726.7605	12532.4	11650.35
908.502	1728.4706	12509.65	11628
908.6431	1730.18	12451.9	11569.35
908.7842	1731.8886	12416.85	11535.85
908.9253	1733.5964	12445.55	11544.1
909.0664	1735.3036	12376.15	11491.05
909.2074	1737.0099	12348.1	11466.55
909.3484	1738.7156	12341.7	11462.85
909.4894	1740.4204	12285.2	11399.7
909.6304	1742.1246	12289.55	11407
909.7714	1743.8279	12243.75	11364.05
909.9123	1745.5306	12244.15	11362.65
910.0532	1747.2325	12190.65	11308.95
910.1941	1748.9336	12192.4	11310.4
910.335	1750.634	12123.9	11241
910.4759	1752.3336	12087.3	11206.2
910.6168	1754.0325	12119.2	11240.35
910.7576	1755.7307	12056.6	11174.8
910.8984	1757.4281	12084.75	11202.85
911.0392	1759.1247	12056.2	11165
911.18	1760.8206	12003.5	11116.25
911.3208	1762.5158	12008.15	11122.85
911.4615	1764.2102	11987.7	11106.3
911.6022	1765.9039	11917.75	11036.1
911.7429	1767.5968	11912.95	11031.7
911.8836	1769.289	11875.3	10993.35
912.0243	1770.9804	11851.9	10971.45
912.1649	1772.6711	11849.65	10970
912.3056	1774.361	11786.85	10903.8
912.4462	1776.0502	11805.4	10924.7
912.5868	1777.7386	11731.75	10847.2
912.7274	1779.4263	11733.7	10854.55
912.8679	1781.1132	11717.05	10834.1
913.0084	1782.7994	11680.55	10797.05
913.149	1784.4849	11642.55	10759.65
913.2895	1786.1696	11632.2	10731.1
913.4299	1787.8535	11588	10707.85
913.5704	1789.5367	11561.05	10679.75
913.7108	1791.2192	11533.85	10653.5
913.8513	1792.9009	11500.75	10602.9
913.9917	1794.5818	11497.05	10614.8
914.132	1796.2621	11414.1	10534.15
914.2724	1797.9415	11385.65	10504.25
914.4128	1799.6202	11346	10465.45
914.5531	1801.2982	11354.05	10471
914.6934	1802.9755	11320.7	10440
914.8337	1804.6519	11301.2	10417.1
914.9739	1806.3277	11241.35	10361.7
915.1142	1808.0027	11233.55	10351.1
915.2544	1809.6769	11183.8	10304.65
915.3946	1811.3504	11157.35	10275.05
915.5348	1813.0231	11135.95	10254.25
915.675	1814.6951	11115.25	10230.05
915.8151	1816.3664	11119.25	10236.25
915.9553	1818.0369	11084.2	10203.7
916.0954	1819.7067	11052.1	10170.95
916.2355	1821.3757	11013.9	10132.85
916.3755	1823.044	11039.7	10159.1
916.5156	1824.7115	10963.15	10078.95
916.6556	1826.3783	10941.05	10059.75
916.7956	1828.0443	10915.25	10035.85
916.9356	1829.7096	10885.65	10002.75
917.0756	1831.3741	10893.9	10009.95
917.2155	1833.0379	10844.25	9966.05
917.3555	1834.701	10824.15	9941.9
917.4954	1836.3633	10806	9925.1
917.6353	1838.0248	10775.7	9893.3
917.7751	1839.6856	10744.5	9862.45
917.915	1841.3457	10749.4	9870.4
918.0548	1843.005	10738.15	9856.55
918.1946	1844.6636	10690.4	9810.75
918.3344	1846.3214	10656	9772.05
918.4742	1847.9785	10649.2	9770.5
918.6139	1849.6349	10584.8	9702.45
918.7537	1851.2904	10608.1	9716.1
918.8934	1852.9453	10568.25	9687.35
919.0331	1854.5994	10524.55	9640.95
919.1727	1856.2528	10529.5	9643.25
919.3124	1857.9054	10507.95	9624.6
919.452	1859.5572	10490.1	9610.45
919.5916	1861.2083	10459.9	9577.6
919.7312	1862.8587	10455.5	9575.5
919.8708	1864.5084	10407.05	9523.95
920.0103	1866.1572	10383.55	9502.75
920.1498	1867.8054	10358.6	9477.75
920.2893	1869.4528	10348.1	9466.8
920.4288	1871.0994	10303.25	9423.05
920.5683	1872.7453	10289.1	9407.4
920.7077	1874.3905	10271.25	9385.15
920.8471	1876.0349	10220.95	9338.25
920.9865	1877.6786	10229.25	9346.4
921.1259	1879.3215	10205.65	9324.7
921.2653	1880.9637	10161.15	9277.95
921.4046	1882.6051	10189.1	9308.55
921.5439	1884.2458	10135.7	9252.75
921.6832	1885.8858	10123.45	9242.7
921.8225	1887.525	10094.25	9210.15
921.9617	1889.1634	10051.5	9170.2
922.101	1890.8011	10028.8	9145.15
922.2402	1892.4381	10003.5	9123.95
922.3794	1894.0743	10010.35	9129.15
922.5185	1895.7098	10005.55	9124.75
922.6577	1897.3446	9958.8	9075.6
922.7968	1898.9786	9944.2	9058.1
922.9359	1900.6118	9924	9042.95
923.075	1902.2443	9860.85	8975.45
923.214	1903.8761	9865.9	8984.15
923.3531	1905.5071	9812.65	8929.6
923.4921	1907.1374	9769.75	8889
923.6311	1908.7669	9763.65	8880.45
923.77	1910.3957	9753.4	8871.4
923.909	1912.0237	9693.15	8812.05
924.0479	1913.651	9679.15	8795.75
924.1868	1915.2776	9651.55	8772.05
924.3257	1916.9034	9616.05	8732.4
924.4646	1918.5285	9591.85	8711.25
924.6034	1920.1528	9533.05	8650.6
924.7422	1921.7764	9529.3	8646.55
924.881	1923.3992	9508.4	8627.95
925.0198	1925.0213	9427.1	8544.65
925.1586	1926.6427	9407.85	8528.15
925.2973	1928.2633	9557.1	8466.35
925.436	1929.8832	9377.3	8492
925.5747	1931.5023	9330.9	8448.5
925.7134	1933.1207	9299.55	8418.5
925.852	1934.7383	9282.35	8399.15
925.9906	1936.3552	9228.6	8346.15
926.1292	1937.9714	9225.85	8343.5
926.2678	1939.5868	9204.25	8321.8
926.4064	1941.2015	9148.95	8266.4
926.5449	1942.8154	9125.75	8241.25
926.6834	1944.4286	9096.1	8213.4
926.8219	1946.041	9064.95	8160.6
926.9604	1947.6528	9026.85	8139.35
927.0988	1949.2637	9042.25	8161.8
927.2372	1950.8739	8980.25	8099.05
927.3756	1952.4834	8957.35	8074.25
927.514	1954.0921	8973.1	8092.9
927.6523	1955.7001	8908.1	8021.3
927.7907	1957.3074	8888.2	8008.8
927.929	1958.9139	8874.4	7992
928.0673	1960.5197	8846.3	7963.05
928.2055	1962.1247	8803.85	7923.25
928.3438	1963.729	8742.7	7861.7
928.482	1965.3325	8755.2	7851.5
928.6202	1966.9353	8729.25	7847.05
928.7584	1968.5374	8694.4	7813.25
928.8965	1970.1387	8693.5	7810.9
929.0346	1971.7393	8653.35	7772.4
929.1727	1973.3392	8623.05	7741.6
929.3108	1974.9383	8591.55	7709.65
929.4489	1976.5366	8533.8	7654.95
929.5869	1978.1342	8544.55	7663.95
929.7249	1979.7311	8527.95	7645.05
929.8629	1981.3273	8490.15	7608.75
930.0009	1982.9227	8489	7605.75
930.1388	1984.5173	8467	7586.4
930.2767	1986.1112	8436.15	7554.65
930.4146	1987.7044	8406.15	7526.75
930.5525	1989.2968	8387.4	7504.4
930.6904	1990.8885	8368.4	7484.35
930.8282	1992.4795	8357.25	7475.05
930.966	1994.0697	8324.15	7443.5
931.1038	1995.6592	8270.3	7390.95
931.2415	1997.2479	8268.35	7385.4
931.3793	1998.8359	8258.35	7376.85
931.517	2000.4232	8229.25	7347
931.6547	2002.0097	8203	7324.05
931.7923	2003.5955	8150.85	7270.15
931.93	2005.1805	8148.15	7264.35
932.0676	2006.7648	8147.05	7268.2
932.2052	2008.3484	8126.3	7244.5
932.3427	2009.9312	8113.1	7230.85
932.4803	2011.5133	8086.4	7207.15
932.6178	2013.0946	8066.6	7186.55
932.7553	2014.6752	8044.95	7168.15
932.8928	2016.2551	8024.75	7142.4
933.0302	2017.8342	7998.55	7118.75
933.1676	2019.4126	7972.4	7091.5
933.305	2020.9902	7925.75	7046.45
933.4424	2022.5672	7943.85	7061.35
933.5798	2024.1433	7954.85	7068.6
933.7171	2025.7188	7894.05	7015.7
933.8544	2027.2935	7885.3	7004.55
933.9917	2028.8674	7853.55	6974.2
934.129	2030.4406	7832.8	6953.25
934.2662	2032.0131	7790.85	6911
934.4034	2033.5849	7788.25	6902.6
934.5406	2035.1559	7763.4	6885.7
934.6778	2036.7261	7764.55	6883.7
934.8149	2038.2957	7747.1	6867.05
934.952	2039.8645	7734.1	6854.9
935.0891	2041.4325	7730.55	6846.55
935.2262	2042.9998	7676.6	6796.75
935.3632	2044.5664	7685.6	6801.75
935.5002	2046.1323	7653.15	6772.3
935.6372	2047.6974	7637.25	6758
935.7742	2049.2617	7629.9	6748.45
935.9111	2050.8254	7630.4	6728.4
936.048	2052.3883	7620.25	6739.5
936.1849	2053.9504	7586.5	6706.3
936.3218	2055.5118	7595.5	6715.1
936.4586	2057.0725	7540.6	6655.3
936.5955	2058.6325	7535.7	6654.8
936.7323	2060.1917	7499.15	6619.35
936.869	2061.7502	7500.9	6617.65
937.0058	2063.3079	7471.8	6593.05
937.1425	2064.8649	7454.1	6571.75
937.2792	2066.4212	7454.15	6572.9
937.4159	2067.9767	7422.65	6542.75
937.5525	2069.5315	7395	6515
937.6891	2071.0856	7355.35	6474.7
937.8257	2072.6389	7344.85	6464.15
937.9623	2074.1915	7328.75	6449.7
938.0989	2075.7433	7294.6	6412
938.2354	2077.2945	7296.7	6416.95
938.3719	2078.8448	7277.85	6398.55
938.5084	2080.3945	7253.2	6371.6
938.6448	2081.9434	7230.9	6351.8
938.7812	2083.4916	7217.2	6338.35
938.9176	2085.039	7211.95	6328.65
939.054	2086.5857	7187.8	6307.05
939.1903	2088.1317	7182.3	6299.3
939.3267	2089.677	7177	6296.05
939.463	2091.2215	7142.5	6262.65
939.5992	2092.7652	7145.3	6265.45
939.7355	2094.3083	7113.25	6232.75
939.8717	2095.8506	7109.95	6230.4
940.0079	2097.3921	7117.8	6237.4
940.1441	2098.933	7078.5	6197.65
940.2802	2100.4731	7080.2	6200.8
940.4163	2102.0124	7072.35	6172.95
940.5524	2103.5511	7056.25	6177.85
940.6885	2105.089	7033.65	6152.25
940.8245	2106.6261	7024.55	6143.9
940.9606	2108.1626	7010.2	6127.5
941.0965	2109.6983	6997.6	6088.1
941.2325	2111.2332	6991.5	6110.4
941.3684	2112.7675	6979.95	6098.05
941.5044	2114.301	6945.35	6064.05
941.6403	2115.8337	6948.4	6067.6
941.7761	2117.3657	6936.2	6055.9
941.912	2118.897	6919.3	6037.35
942.0478	2120.4276	6885	6001.15
942.1835	2121.9575	6883.2	6003.3
942.3193	2123.4866	6880.25	5996.8
942.455	2125.0149	6851.7	5968.75
942.5907	2126.5426	6831.85	5949.95
942.7264	2128.0695	6808.25	5923.95
942.8621	2129.5956	6794.8	5917.5
942.9977	2131.1211	6797.85	5909.95
943.1333	2132.6458	6756.9	5876.9
943.2689	2134.1698	6754.25	5873.25
943.4044	2135.693	6738.5	5855.95
943.54	2137.2155	6724.25	5841.85
943.6755	2138.7373	6706.2	5824.8
943.8109	2140.2584	6695.6	5818.1
943.9464	2141.7787	6690.65	5803.55
944.0818	2143.2983	6669.25	5789.35
944.2172	2144.8171	6615	5736.15
944.3526	2146.3353	6613.95	5733.05
944.4879	2147.8527	6593.35	5713.7
944.6232	2149.3693	6586.9	5705.95
944.7585	2150.8853	6566.85	5686.15
944.8938	2152.4005	6538.55	5658.6
945.029	2153.9149	6527.65	5647.6
945.1642	2155.4287	6532.4	5651.05
945.2994	2156.9417	6507.6	5627.1
945.4346	2158.454	6486.25	5603.75
945.5697	2159.9655	6494.05	5614.5
945.7048	2161.4764	6467.25	5586.2
945.8399	2162.9865	6436.4	5556.8
945.9749	2164.4958	6438.55	5556.7
946.1099	2166.0045	6385	5503.5
946.2449	2167.5124	6404.05	5524.65
946.3799	2169.0195	6393.9	5513.3
946.5148	2170.526	6382.85	5500.05
946.6498	2172.0317	6346.7	5468.25
946.7846	2173.5367	6343.15	5462.45
946.9195	2175.0409	6315	5433.7
947.0543	2176.5445	6338.1	5458.65
947.1891	2178.0473	6300.15	5419.4
947.3239	2179.5494	6264.1	5380.9
947.4587	2181.0507	6235.7	5354.65
947.5934	2182.5513	6243.85	5363.75
947.7281	2184.0512	6243.9	5363.8
947.8628	2185.5504	6235.25	5355.85
947.9974	2187.0488	6172.15	5292.75
948.132	2188.5465	6177.95	5297.55
948.2666	2190.0435	6155.65	5275.45
948.4012	2191.5397	6127.9	5246.9
948.5357	2193.0353	6109.4	5228.8
948.6702	2194.5301	6096.35	5215.75
948.8047	2196.0241	6060.4	5178.55
948.9392	2197.5175	6071.3	5191.35
949.0736	2199.0101	6049.55	5166.55
949.208	2200.502	6019.95	5141.95
949.3424	2201.9931	5988.2	5108.75
949.4767	2203.4835	5980.2	5098.1
949.611	2204.9733	5973.6	5089.75
949.7453	2206.4622	5959.25	5078.55
949.8796	2207.9505	5942.4	5058.7
950.0138	2209.438	5899.1	5020.2
950.148	2210.9248	5879.1	4997.1
950.2822	2212.4109	5886.6	5008.7
950.4164	2213.8962	5844.85	4960.6
950.5505	2215.3809	5848.25	4966.3
950.6846	2216.8648	5840.45	4959.55
950.8186	2218.3479	5844.6	4959.15
950.9527	2219.8304	5791.05	4907.7
951.0867	2221.3121	5784.25	4903.35
951.2207	2222.7931	5779.9	4897.7
951.3546	2224.2733	5748.25	4867.7
951.4886	2225.7529	5728.4	4846.9
951.6225	2227.2317	5716.1	4832.15
951.7563	2228.7098	5715.3	4834.95
951.8902	2230.1872	5680.75	4798.15
952.024	2231.6638	5654.15	4775
952.1578	2233.1397	5662.65	4774.75
952.2916	2234.6149	5634.45	4753.8
952.4253	2236.0894	5625.1	4743.4
952.559	2237.5632	5618.95	4736.4
952.6927	2239.0362	5587.9	4706.3
952.8263	2240.5085	5575.8	4696.2
952.9599	2241.9801	5566.3	4685.25
953.0935	2243.4509	5536.6	4656.05
953.2271	2244.921	5515.55	4635.15
953.3606	2246.3904	5498.2	4614.55
953.4941	2247.8591	5484.65	4605.65
953.6276	2249.3271	5485.1	4604.8
953.7611	2250.7943	5454	4571.95
953.8945	2252.2608	5439	4560.05
954.0279	2253.7266	5432.35	4552.2
954.1612	2255.1917	5409.45	4529.25
954.2946	2256.656	5410.05	4529.1
954.4279	2258.1197	5369.25	4489.15
954.5612	2259.5826	5368.1	4485.5
954.6944	2261.0447	5374.25	4492.9
954.8276	2262.5062	5340.5	4456.65
954.9608	2263.9669	5348.05	4467.6
955.094	2265.4269	5306.85	4427.35
955.2271	2266.8862	5282.45	4400.4
955.3602	2268.3448	5285.15	4404.6
955.4933	2269.8026	5278.1	4398.35
955.6264	2271.2598	5267.8	4387.45
955.7594	2272.7162	5250.65	4370.05
955.8924	2274.1719	5231.85	4353.2
956.0253	2275.6268	5231.75	4349.9
956.1583	2277.0811	5217.25	4333.8
956.2912	2278.5346	5200.4	4322.05
956.4241	2279.9874	5203.2	4321.45
956.5569	2281.4395	5171.5	4292.55
956.6897	2282.8908	5157.2	4272.3
956.8225	2284.3414	5172.5	4291.8
956.9553	2285.7914	5120	4240.65
957.088	2287.2406	5123.25	4242.35
957.2207	2288.689	5112.15	4229.75
957.3534	2290.1368	5104.65	4224.15
957.486	2291.5838	5094.6	4210.25
957.6186	2293.0302	5064.35	4183.4
957.7512	2294.4758	5047.3	4166.3
957.8838	2295.9206	5044.45	4159.85
958.0163	2297.3648	5027.1	4148.8
958.1488	2298.8082	5022.5	4140.3
958.2813	2300.251	5013	4133.75
958.4137	2301.693	4988.5	4106.9
958.5461	2303.1343	4993.65	4114.5
958.6785	2304.5748	4972.1	4093.15
958.8108	2306.0147	4942.85	4062.1
958.9432	2307.4538	4951.5	4068.6
959.0754	2308.8922	4932.15	4052.3
959.2077	2310.3299	4912.55	4033.05
959.3399	2311.7669	4877.6	3997.4
959.4721	2313.2031	4891	4009.65
959.6043	2314.6387	4854.55	3973.3
959.7365	2316.0735	4848.4	3970.05
959.8686	2317.5076	4865.7	3985.65
960.0006	2318.941	4847.15	3966.9
960.1327	2320.3737	4822.85	3942.75
960.2647	2321.8056	4819.5	3936.2
960.3967	2323.2369	4813.05	3932.4
960.5287	2324.6674	4795.4	3912.9
960.6606	2326.0972	4775.15	3893.25
960.7925	2327.5263	4766.45	3889.85
960.9244	2328.9547	4737.7	3856.65
961.0562	2330.3823	4734.7	3854.5
961.1881	2331.8092	4743.55	3859.95
961.3198	2333.2355	4706.9	3827.25
961.4516	2334.661	4704.6	3823.15
961.5833	2336.0858	4695.05	3812.05
961.715	2337.5098	4661.25	3782.4
961.8467	2338.9332	4670.75	3789.1
961.9783	2340.3558	4642.85	3758.4
962.1099	2341.7778	4618.9	3737.25
962.2415	2343.199	4631.95	3749.3
962.373	2344.6195	4629.9	3748.9
962.5045	2346.0393	4604.25	3724.35
962.636	2347.4583	4607.5	3726.2
962.7675	2348.8767	4572.35	3692.4
962.8989	2350.2943	4562.45	3679.4
963.0303	2351.7113	4558.35	3677.25
963.1617	2353.1275	4550.2	3668.8
963.293	2354.543	4534.65	3644.1
963.4243	2355.9578	4516	3636.25
963.5556	2357.3718	4498.35	3617.6
963.6868	2358.7852	4470.1	3586.6
963.818	2360.1978	4470.85	3590.95
963.9492	2361.6098	4458.8	3575.75
964.0803	2363.021	4459.85	3575.9
964.2114	2364.4315	4438.15	3558.45
964.3425	2365.8413	4445.35	3559.15
964.4736	2367.2504	4421.4	3541.95
964.6046	2368.6587	4409.5	3527.7
964.7356	2370.0664	4381.8	3502.5
964.8666	2371.4733	4374.3	3493.35
964.9975	2372.8795	4354.6	3474.55
965.1284	2374.285	4356	3476.15
965.2593	2375.6899	4334.25	3454.5
965.3901	2377.0939	4328.6	3447.85
965.5209	2378.4973	4309.45	3428.65
965.6517	2379.9	4300.75	3417.6
965.7825	2381.3019	4288.1	3407.05
965.9132	2382.7032	4266.95	3386.55
966.0439	2384.1037	4272.25	3392.1
966.1745	2385.5035	4261.6	3379.1
966.3051	2386.9027	4227.65	3346.35
966.4357	2388.3011	4229.1	3343.85
966.5663	2389.6987	4220.65	3337.6
966.6968	2391.0957	4211.25	3330.55
966.8273	2392.492	4190.9	3308.05
966.9578	2393.8876	4182.85	3301.4
967.0882	2395.2824	4152.45	3272.55
967.2186	2396.6765	4138.9	3258.05
967.349	2398.07	4116.35	3233.9
967.4793	2399.4627	4121.05	3239
967.6097	2400.8547	4096.75	3217.3
967.7399	2402.246	4100.2	3213.6
967.8702	2403.6366	4071.8	3192.25
968.0004	2405.0265	4056.15	3176.65
968.1306	2406.4156	4067.9	3182.85
968.2607	2407.8041	4039.35	3156.2
968.3909	2409.1918	4024.15	3139.95
968.521	2410.5789	4004	3121.2
968.651	2411.9652	3990.7	3106.1
968.781	2413.3508	3989.8	3107.8
968.911	2414.7358	3990.75	3107.85
969.041	2416.12	3961.2	3079.7
969.1709	2417.5035	3965.25	3084.75
969.3008	2418.8863	3925.7	3045.05
969.4307	2420.2684	3932.05	3049.65
969.5606	2421.6497	3906.2	3024.65
969.6904	2423.0304	3899.8	3019.2
969.8201	2424.4104	3881.3	2999.7
969.9499	2425.7896	3871.7	2988.65
970.0796	2427.1682	3867.7	2989.15
970.2093	2428.546	3840.7	2957.05
970.3389	2429.9232	3831.6	2951.1
970.4685	2431.2996	3831.75	2952.9
970.5981	2432.6753	3833.15	2951.6
970.7277	2434.0503	3806.45	2924.85
970.8572	2435.4246	3803.6	2923.45
970.9867	2436.7982	3789.05	2906.3
971.1161	2438.1711	3775.6	2895.65
971.2456	2439.5433	3772.7	2889.65
971.375	2440.9148	3764.35	2878.65
971.5043	2442.2856	3734.6	2854.15
971.6336	2443.6557	3736.4	2853.15
971.7629	2445.025	3724.75	2844.15
971.8922	2446.3937	3711.6	2828.95
972.0214	2447.7617	3706.15	2823.7
972.1506	2449.1289	3693.6	2812.7
972.2798	2450.4955	3705.25	2820.45
972.4089	2451.8613	3688.95	2809.1
972.538	2453.2265	3671.7	2791.65
972.6671	2454.5909	3667.5	2785.25
972.7961	2455.9546	3658.25	2779.3
972.9251	2457.3177	3635.75	2756.25
973.0541	2458.68	3640.4	2758.25
973.1831	2460.0416	3631.75	2749.6
973.312	2461.4025	3636.55	2754.35
973.4408	2462.7627	3610.25	2713.95
973.5697	2464.1222	3604.4	2723.5
973.6985	2465.4811	3596.9	2716.65
973.8273	2466.8392	3578.75	2697.45
973.956	2468.1966	3580.35	2697.55
974.0847	2469.5533	3573.9	2690
974.2134	2470.9093	3552.15	2670.35
974.3421	2472.2645	3551.85	2669.7
974.4707	2473.6191	3538.1	2657.05
974.5993	2474.973	3519.4	2637.7
974.7278	2476.3262	3522.45	2640.6
974.8563	2477.6787	3504.15	2624.6
974.9848	2479.0305	3499.25	2620.8
975.1132	2480.3816	3485.65	2603.4
975.2417	2481.7319	3481.9	2600.9
975.37	2483.0816	3457.45	2576.2
975.4984	2484.4306	3456.75	2575.35
975.6267	2485.7789	3454.8	2575.95
975.755	2487.1264	3432.55	2548
975.8833	2488.4733	3421.65	2539.5
976.0115	2489.8195	3418.7	2528.85
976.1397	2491.165	3396.75	2512.2
976.2678	2492.5097	3395.5	2510.6
976.3959	2493.8538	3380.2	2498.65
976.524	2495.1972	3365.55	2484.55
976.6521	2496.5398	3360.2	2476.95
976.7801	2497.8818	3355.85	2472.85
976.9081	2499.2231	3345.65	2465.3
977.036	2500.5637	3323.55	2439.05
977.164	2501.9035	3320.25	2438.6
977.2918	2503.2427	3307.5	2420.2
977.4197	2504.5812	3315.4	2433.7
977.5475	2505.919	3314.5	2431.3
977.6753	2507.256	3285.35	2403.65
977.8031	2508.5924	3269.75	2388.35
977.9308	2509.9281	3275.5	2387.15
978.0585	2511.2631	3260.2	2379.7
978.1861	2512.5974	3258.15	2378.35
978.3137	2513.9309	3253.25	2372.8
978.4413	2515.2638	3258.5	2349.35
978.5689	2516.596	3217.6	2337.6
978.6964	2517.9275	3210.7	2327.5
978.8239	2519.2583	3208.65	2326.4
978.9513	2520.5884	3194.45	2311.4
979.0788	2521.9178	3177.4	2294.8
979.2062	2523.2465	3184.1	2303.25
979.3335	2524.5745	3164.55	2284.2
979.4608	2525.9018	3160.85	2280.35
979.5881	2527.2284	3151.95	2269.3
979.7154	2528.5543	3134.45	2255.95
979.8426	2529.8796	3137.4	2257.25
979.9698	2531.2041	3131.75	2248.55
980.0969	2532.5279	3122.1	2243.1
980.224	2533.851	3131.05	2249.45
980.3511	2535.1735	3122.75	2240.95
980.4781	2536.4952	3106	2224.05
980.6052	2537.8163	3090.95	2207.75
980.7321	2539.1366	3089.55	2210.35
980.8591	2540.4562	3074.45	2191.95
980.986	2541.7752	3086.45	2205.5
981.1129	2543.0935	3069.75	2188.75
981.2397	2544.411	3064.6	2181.95
981.3665	2545.7279	3051.85	2171.6
981.4933	2547.0441	3042.7	2160.85
981.62	2548.3596	3043.3	2160.25
981.7467	2549.6744	3031.8	2150.1
981.8734	2550.9885	3024.55	2134
982.0001	2552.3019	3019.35	2141.8
982.1267	2553.6146	3023.9	2142.45
982.2532	2554.9266	3005.9	2124.45
982.3798	2556.2379	2996.05	2114.55
982.5063	2557.5485	3006.25	2126.9
982.6327	2558.8585	2997.05	2109
982.7592	2560.1677	2994.05	2110
982.8856	2561.4762	2978.35	2096
983.0119	2562.7841	2979.85	2096.75
983.1383	2564.0913	2967.95	2087.45
983.2646	2565.3977	2963.35	2083.6
983.3908	2566.7035	2955.5	2072.15
983.517	2568.0086	2959.8	2077.05
983.6432	2569.313	2961.75	2080.5
983.7694	2570.6167	2943.3	2058.75
983.8955	2571.9197	2931.3	2050.75
984.0216	2573.222	2936.55	2052.2
984.1476	2574.5236	2932.6	2050.4
984.2737	2575.8246	2916.05	2031.55
984.3996	2577.1248	2930.05	2045
984.5256	2578.4244	2906.65	2026.85
984.6515	2579.7232	2911.9	2030.8
984.7774	2581.0214	2919.9	2013.85
984.9032	2582.3189	2897.4	2017
985.029	2583.6157	2890.6	2004.95
985.1548	2584.9118	2876.65	1995.5
985.2806	2586.2072	2876.45	1996.75
985.4063	2587.5019	2867.3	1986.15
985.5319	2588.7959	2864.6	1983.4
985.6576	2590.0893	2857.85	1975.75
985.7832	2591.3819	2846.35	1966.05
985.9087	2592.6739	2846.5	1968.1
986.0343	2593.9652	2832.7	1950.15
986.1597	2595.2557	2820.9	1940.2
986.2852	2596.5456	2809.55	1929.15
986.4106	2597.8348	2804.8	1925.2
986.536	2599.1234	2796.65	1916.05
986.6614	2600.4112	2801.75	1920.4
986.7867	2601.6983	2784.5	1899.6
986.912	2602.9848	2783.9	1901.05
987.0372	2604.2705	2778	1888.5
987.1624	2605.5556	2766.25	1883.9
987.2876	2606.84	2752.85	1869.85
987.4128	2608.1237	2740.35	1858.15
987.5379	2609.4067	2728.5	1847.6
987.6629	2610.689	2729.7	1839.65
987.788	2611.9707	2719.55	1835.45
987.913	2613.2516	2714.1	1828
988.0379	2614.5319	2703.65	1823.6
988.1629	2615.8115	2685.8	1803.75
988.2878	2617.0903	2691.8	1810
988.4126	2618.3685	2674	1791.05
988.5375	2619.6461	2675.85	1794.55
988.6622	2620.9229	2667.85	1785.75
988.787	2622.199	2662.3	1779.1
988.9117	2623.4745	2654.5	1773.9
989.0364	2624.7493	2656.5	1776.55
989.161	2626.0234	2639.75	1758.15
989.2857	2627.2968	2633.5	1754.1
989.4102	2628.5695	2628.1	1744.4
989.5348	2629.8415	2602.45	1721.65
989.6593	2631.1128	2606.95	1725.8
989.7837	2632.3835	2606.6	1725.35
989.9082	2633.6535	2588.15	1708.05
990.0326	2634.9228	2587.6	1707.35
990.1569	2636.1914	2584.9	1703.5
990.2812	2637.4593	2579.3	1693.7
990.4055	2638.7265	2557.95	1675.1
990.5298	2639.9931	2555	1674.85
990.654	2641.259	2556.2	1674.95
990.7782	2642.5242	2536.65	1654.25
990.9023	2643.7887	2547.75	1665.65
991.0264	2645.0525	2526.4	1644.5
991.1505	2646.3156	2525.2	1641.8
991.2745	2647.5781	2525.65	1645.4
991.3985	2648.8398	2514.5	1632.8
991.5225	2650.1009	2538.45	1620.1
991.6464	2651.3613	2517.65	1634.9
991.7703	2652.6211	2496.5	1616.35
991.8942	2653.8801	2481.1	1599.2
992.018	2655.1385	2480	1597.1
992.1418	2656.3961	2473.25	1592.85
992.2655	2657.6531	2460.95	1580.8
992.3892	2658.9094	2462.9	1581.95
992.5129	2660.1651	2469.1	1588.45
992.6366	2661.42	2465.3	1584.85
992.7602	2662.6743	2460.8	1578.9
992.8837	2663.9279	2437.3	1555.85
993.0073	2665.1808	2440.2	1558.85
993.1307	2666.433	2436.7	1555.35
993.2542	2667.6846	2425.6	1543.4
993.3776	2668.9354	2430.55	1547.7
993.501	2670.1856	2421.5	1538.65
993.6244	2671.4351	2423.65	1542.9
993.7477	2672.6839	2403.2	1520.1
993.8709	2673.9321	2402.15	1522.95
993.9942	2675.1795	2395.5	1514.75
994.1174	2676.4263	2394.7	1514.6
994.2405	2677.6724	2377.5	1496.4
994.3637	2678.9179	2368.6	1488.55
994.4868	2680.1626	2369.25	1487.2
994.6098	2681.4067	2366.4	1487.1
994.7328	2682.6501	2352.85	1470
994.8558	2683.8928	2347.1	1467.2
994.9788	2685.1348	2341.65	1461.75
995.1017	2686.3761	2336.35	1454.4
995.2245	2687.6168	2335.05	1456.45
995.3474	2688.8568	2335.85	1455.35
995.4702	2690.0961	2329.9	1449.7
995.5929	2691.3348	2330.95	1450.3
995.7156	2692.5727	2318.95	1438.75
995.8383	2693.81	2313.7	1432.45
995.961	2695.0466	2303.35	1423.15
996.0836	2696.2826	2290.9	1406.85
996.2062	2697.5178	2312.25	1409.75
996.3287	2698.7524	2288	1405.25
996.4512	2699.9863	2291.45	1407.6
996.5737	2701.2195	2276.75	1399.2
996.6961	2702.452	2276.5	1393.5
996.8185	2703.6839	2264.65	1382.75
996.9408	2704.9151	2261.35	1382.1
997.0631	2706.1456	2253.8	1370.45
997.1854	2707.3755	2253.75	1370.25
997.3077	2708.6046	2258.65	1374.75
997.4299	2709.8331	2241.3	1360
997.552	2711.0609	2227.4	1346.55
997.6742	2712.2881	2226.35	1343.6
997.7963	2713.5145	2227.85	1344.8
997.9183	2714.7403	2209.9	1331.35
998.0403	2715.9654	2215.95	1336.4
998.1623	2717.1899	2219.25	1324.4
998.2842	2718.4136	2205.4	1324.45
998.4062	2719.6367	2201.25	1322.35
998.528	2720.8591	2190.25	1300.75
998.6498	2722.0809	2192.35	1311.65
998.7716	2723.3019	2183.8	1300.8
998.8934	2724.5223	2182.6	1301.45
999.0151	2725.7421	2174.05	1292.9
999.1368	2726.9611	2175.85	1291.55
999.2584	2728.1795	2161.15	1277.05
999.38	2729.3972	2156.45	1276.65
999.5016	2730.6142	2159.55	1266.75
999.6231	2731.8306	2144.25	1260.85
999.7446	2733.0462	2139.4	1255.5
999.8661	2734.2612	2135.65	1250.15
999.9875	2735.4756	2117.4	1233.45
1000.1089	2736.6892	2115.95	1233.9
1000.2302	2737.9022	2100.4	1223.65
1000.3515	2739.1145	2096.3	1214.75
1000.4728	2740.3262	2109.4	1220.6
1000.594	2741.5372	2095.4	1217.55
1000.7152	2742.7475	2084.9	1202.15
1000.8363	2743.9571	2086.75	1205.5
1000.9575	2745.1661	2084.2	1198.85
1001.0785	2746.3744	2076	1193.95
1001.1996	2747.582	2059.25	1178.5
1001.3206	2748.7889	2056.05	1171.8
1001.4415	2749.9952	2053	1172.95
1001.5625	2751.2008	2055.1	1173.3
1001.6833	2752.4057	2059.95	1178.15
1001.8042	2753.61	2050.15	1169.75
1001.925	2754.8136	2034.75	1150.1
1002.0458	2756.0165	2035.6	1156.6
1002.1665	2757.2188	2029.35	1149.55
1002.2872	2758.4204	2017.3	1137.2
1002.4078	2759.6213	2013.45	1131.15
1002.5285	2760.8215	2019	1134.05
1002.649	2762.0211	2014.75	1134.5
1002.7696	2763.22	2010.9	1125.15
1002.8901	2764.4182	2003.15	1118.95
1003.0106	2765.6158	1998.2	1118.5
1003.131	2766.8127	1992.9	1111.05
1003.2514	2768.009	1986.25	1107
1003.3717	2769.2045	1978.85	1097.65
1003.492	2770.3994	1969.5	1086.45
1003.6123	2771.5936	1983.25	1101.85
1003.7325	2772.7872	1969.75	1089.55
1003.8527	2773.9801	1967.5	1085.85
1003.9729	2775.1723	1955.35	1060.8
1004.093	2776.3639	1943.75	1063
1004.2131	2777.5548	1950.35	1069.4
1004.3331	2778.745	1945.25	1060.6
1004.4531	2779.9346	1936.3	1056.2
1004.5731	2781.1235	1933.5	1052.65
1004.693	2782.3117	1918.35	1038.5
1004.8129	2783.4992	1923.75	1043.25
1004.9328	2784.6861	1921.75	1041.35
1005.0526	2785.8723	1924.85	1043.95
1005.1723	2787.0579	1921.9	1041.35
1005.2921	2788.2428	1907.3	1024.85
1005.4118	2789.427	1897.75	1018.45
1005.5314	2790.6106	1898.65	1017.2
1005.651	2791.7935	1895.25	1015.4
1005.7706	2792.9757	1881.75	1002.25
1005.8902	2794.1573	1886.5	1004.45
1006.0097	2795.3382	1884.35	1005.65
1006.1291	2796.5184	1877.3	997.3
1006.2485	2797.698	1878	994.85
1006.3679	2798.8769	1874	994.6
1006.4873	2800.0551	1866.35	984.15
1006.6066	2801.2327	1860.35	978.75
1006.7258	2802.4096	1855.3	974.85
1006.8451	2803.5859	1855.6	973.15
1006.9642	2804.7615	1849.95	969.5
1007.0834	2805.9364	1847.5	965.6
1007.2025	2807.1106	1835.8	956.25
1007.3216	2808.2842	1836.3	955.05
1007.4406	2809.4572	1832.1	950.65
1007.5596	2810.6294	1840.5	959.6
1007.6785	2811.801	1825.7	945.85
1007.7975	2812.972	1824.75	945.35
1007.9163	2814.1423	1816.15	936.15
1008.0352	2815.3119	1815.3	932.6
1008.154	2816.4808	1829.5	951.2
1008.2727	2817.6491	1816.9	935.25
1008.3914	2818.8167	1819.4	939.85
1008.5101	2819.9837	1826.45	942.15
1008.6288	2821.15	1818.4	936.4
1008.7474	2822.3157	1826.55	946.85
1008.8659	2823.4807	1820.4	940.2
1008.9844	2824.645	1831.1	950.55
1009.1029	2825.8086	1838.5	958.1
1009.2214	2826.9716	1840.65	960.35
1009.3398	2828.134	1843.65	964.9
1009.4581	2829.2957	1850.5	968.9
1009.5764	2830.4567	1856.35	976.15
1009.6947	2831.617	1852.3	970.95
1009.813	2832.7767	1849.2	967.8
1009.9312	2833.9358	1849.4	969.85
1010.0493	2835.0941	1845.6	963.75
1010.1675	2836.2519	1844.7	963.55
1010.2855	2837.4089	1840.95	959.95
1010.4036	2838.5653	1824.2	942.6
1010.5216	2839.7211	1819.6	941.1
1010.6396	2840.8761	1825.55	943.05
1010.7575	2842.0306	1815.45	934.6
1010.8754	2843.1843	1811.4	929.6
1010.9932	2844.3374	1802.9	922.65
1011.111	2845.4899	1807.5	927.6
1011.2288	2846.6417	1806.25	927.65
1011.3465	2847.7928	1803.55	922.5
1011.4642	2848.9433	1796.65	916.7
1011.5818	2850.0931	1801.95	921.75
1011.6995	2851.2422	1808.25	924.95
1011.817	2852.3907	1798.1	917.35
1011.9345	2853.5385	1793.75	912
1012.052	2854.6857	1796.05	906.6
1012.1695	2855.8323	1787	905.75
1012.2869	2856.9781	1790	908.5
1012.4042	2858.1233	1788.5	907.4
1012.5216	2859.2679	1795.8	913.85
1012.6389	2860.4118	1790.6	910.3
1012.7561	2861.555	1791.5	906
1012.8733	2862.6976	1785.3	902.75
1012.9905	2863.8395	1789.9	910.15
1013.1076	2864.9808	1791.1	911.05
1013.2247	2866.1214	1784.25	904.35
1013.3417	2867.2614	1783.75	903.85
1013.4587	2868.4007	1789.25	906.6
1013.5757	2869.5393	1787.4	905.55
1013.6926	2870.6773	1783.4	899.6
1013.8095	2871.8146	1789.1	905.55
1013.9263	2872.9513	1783.25	900.5
1014.0431	2874.0874	1765.15	885.75
1014.1599	2875.2227	1763.2	883.2
1014.2766	2876.3574	1767.85	887.05
1014.3933	2877.4915	1765.25	886.3
1014.51	2878.6249	1768.15	889.8
1014.6266	2879.7577	1760.95	878.35
1014.7431	2880.8898	1767.85	877.25
1014.8596	2882.0212	1762.5	884
1014.9761	2883.152	1763.25	882.4
1015.0925	2884.2821	1764.85	885.15
1015.2089	2885.4116	1758.05	877.55
1015.3253	2886.5405	1753.65	873.6
1015.4416	2887.6686	1756.9	873.25
1015.5579	2888.7962	1749.6	870.65
1015.6741	2889.923	1744.25	863.85
1015.7903	2891.0493	1737.3	859.6
1015.9065	2892.1748	1744.3	864.95
1016.0226	2893.2997	1736.45	857
1016.1387	2894.424	1737.4	858.4
1016.2547	2895.5476	1733.6	852.3
1016.3707	2896.6706	1733.45	856.2
1016.4866	2897.7929	1721.55	839.85
1016.6025	2898.9145	1722	841.05
1016.7184	2900.0355	1715.65	832.6
1016.8342	2901.1559	1716.15	835.35
1016.95	2902.2756	1710.05	831.55
1017.0658	2903.3946	1704.05	824.4
1017.1815	2904.513	1699.8	817.35
1017.2971	2905.6308	1692.65	814.75
1017.4127	2906.7479	1694.85	812.7
1017.5283	2907.8643	1695.15	814.35
1017.6439	2908.9801	1678.35	797.8
1017.7594	2910.0953	1682.3	801.25
1017.8748	2911.2098	1679.1	796.65
1017.9902	2912.3236	1685.4	797.35
1018.1056	2913.4368	1680.4	800.65
1018.2209	2914.5494	1673.45	793.9
1018.3362	2915.6613	1667.25	780.3
1018.4515	2916.7725	1660.95	778
1018.5667	2917.8831	1649.6	767.25
1018.6819	2918.9931	1650.35	766.7
1018.797	2920.1024	1641.9	759.4
1018.9121	2921.211	1643.8	762.65
1019.0271	2922.319	1650.75	769.95
1019.1421	2923.4264	1630.75	751.25
1019.2571	2924.5331	1637.65	757.55
1019.372	2925.6391	1627.9	748.75
1019.4869	2926.7445	1628.65	751.6
1019.6017	2927.8493	1621.85	741
1019.7165	2928.9534	1632.3	751.25
1019.8313	2930.0569	1625.5	742.15
1019.946	2931.1597	1613.85	732.65
1020.0606	2932.2619	1611.8	728.8
1020.1753	2933.3634	1628.7	748.4
1020.2899	2934.4643	1636.15	748.5
1020.4044	2935.5645	1623.3	736.6
1020.5189	2936.6641	1621.05	736.3
1020.6334	2937.763	1618.6	738.35
1020.7478	2938.8613	1604.15	724.1
1020.8622	2939.959	1619.6	735.75
1020.9765	2941.056	1603.35	722
1021.0908	2942.1523	1591.55	710.35
1021.2051	2943.248	1594.4	713.45
1021.3193	2944.3431	1572.15	690.6
1021.4334	2945.4375	1561.15	679.9
1021.5476	2946.5313	1553.95	674.7
1021.6617	2947.6244	1541.55	663.45
1021.7757	2948.7169	1531.15	649.15
1021.8897	2949.8087	1526.15	648.6
1022.0037	2950.8999	1518.65	636.65
1022.1176	2951.9904	1509.8	629.45
1022.2315	2953.0803	1502.75	622.25
1022.3453	2954.1696	1496.5	616.1
1022.4591	2955.2582	1489.25	608.95
1022.5728	2956.3462	1486.45	608.2
1022.6865	2957.4335	1479.4	600
1022.8002	2958.5202	1474.7	594.05
1022.9138	2959.6062	1473.4	594
1023.0274	2960.6916	1479.7	600.9
1023.141	2961.7764	1468.6	589.3
1023.2545	2962.8605	1479.7	598.6
1023.3679	2963.9439	1470.1	590.2
1023.4813	2965.0267	1467.8	584.7
1023.5947	2966.1089	1492	589.4
1023.708	2967.1905	1459	580.35
1023.8213	2968.2714	1450.95	572.5
1023.9346	2969.3516	1450.95	570.55
1024.0478	2970.4312	1454.65	566.3
1024.1609	2971.5102	1438.95	558.8
1024.274	2972.5885	1442.2	562.7
1024.3871	2973.6662	1442.75	556.45
1024.5002	2974.7432	1449.25	569.65
1024.6132	2975.8196	1436.4	556.1
1024.7261	2976.8954	1434.05	554.4
1024.839	2977.9705	1432.35	553.5
1024.9519	2979.045	1436.95	556.55
1025.0647	2980.1188	1419.6	540.55
1025.1775	2981.192	1424.25	544.35
1025.2902	2982.2645	1416.6	535.1
1025.4029	2983.3364	1420.05	539.9
1025.5156	2984.4077	1401.35	521.1
1025.6282	2985.4783	1408.6	523.9
1025.7407	2986.5483	1400.2	521.2
1025.8532	2987.6177	1401	522.7
1025.9657	2988.6864	1394.05	514.95
1026.0782	2989.7545	1393.55	512.35
1026.1906	2990.8219	1389.9	512.15
1026.3029	2991.8887	1384.2	502.95
1026.4152	2992.9548	1384.35	503.25
1026.5275	2994.0204	1377.95	499.7
1026.6397	2995.0852	1369.75	490.5
1026.7519	2996.1495	1373.7	491.9
1026.864	2997.2131	1359.5	478.65
1026.9761	2998.276	1358.6	476.8
1027.0882	2999.3383	1351.1	471.65
1027.2002	3000.4	1355.3	476.25
1027.3122	3001.4611	1345.7	465.3
1027.4241	3002.5215	1350.55	470.65
1027.536	3003.5812	1342	462.3
1027.6478	3004.6404	1336.6	457.5
1027.7596	3005.6989	1334.5	452.1
1027.8714	3006.7567	1333.2	453.3
1027.9831	3007.8139	1351.15	447.65
1028.0947	3008.8705	1326.85	446.65
1028.2064	3009.9264	1319.8	437.15
1028.3179	3010.9818	1322.6	442.55
1028.4295	3012.0364	1317.45	437.2
1028.541	3013.0905	1318.6	440.4
1028.6524	3014.1439	1315.8	434.9
1028.7638	3015.1966	1309.95	431.45
1028.8752	3016.2487	1311.45	431.1
1028.9865	3017.3002	1312.9	427.6
1029.0978	3018.3511	1309.6	432.6
1029.209	3019.4013	1306.8	425.85
1029.3202	3020.4509	1306.45	426.9
1029.4314	3021.4998	1301.05	420.1
1029.5425	3022.5481	1297.65	418.85
1029.6535	3023.5958	1300.8	421
1029.7645	3024.6428	1295.35	415.75
1029.8755	3025.6892	1288.1	409.9
1029.9864	3026.735	1293.3	413.35
1030.0973	3027.7802	1286.6	405.1
1030.2082	3028.8247	1281.9	404.05
1030.319	3029.8685	1294.75	415.15
1030.4297	3030.9118	1280.6	399.9
1030.5404	3031.9544	1285.55	407.3
1030.6511	3032.9963	1281.2	399.3
1030.7617	3034.0376	1280	398.65
1030.8723	3035.0783	1285.3	405
1030.9829	3036.1184	1278.55	397.6
1031.0934	3037.1578	1273.95	395.05
1031.2038	3038.1966	1274.65	393.4
1031.3142	3039.2348	1267.7	389.8
1031.4246	3040.2723	1279.85	389.05
1031.5349	3041.3092	1267.45	389.55
1031.6452	3042.3455	1264.9	383.35
1031.7554	3043.3811	1266.75	387.65
1031.8656	3044.4161	1262.15	381.3
1031.9758	3045.4505	1263.15	384.85
1032.0859	3046.4842	1261.7	380.95
1032.1959	3047.5173	1256.45	376.6
1032.3059	3048.5498	1251.5	371.4
1032.4159	3049.5816	1261	382.2
1032.5258	3050.6128	1256.1	375.5
1032.6357	3051.6434	1255.3	372.15
1032.7455	3052.6734	1257.4	377.45
1032.8553	3053.7027	1247.7	367.25
1032.9651	3054.7314	1245.85	366.2
1033.0748	3055.7594	1248.6	370.95
1033.1845	3056.7868	1252	370.3
1033.2941	3057.8136	1251.75	373.5
1033.4037	3058.8398	1247.05	368.45
1033.5132	3059.8653	1244.65	365.3
1033.6227	3060.8902	1240.25	361.55
1033.7321	3061.9145	1241.6	360.85
1033.8415	3062.9381	1242.65	362.65
1033.9509	3063.9612	1254.4	358.05
1034.0602	3064.9835	1238.25	357.6
1034.1694	3066.0053	1241.3	358.5
1034.2787	3067.0264	1232.75	352.4
1034.3878	3068.0469	1240.8	361.7
1034.497	3069.0668	1233.3	351.6
1034.6061	3070.086	1225.75	345.5
1034.7151	3071.1046	1229.75	350.1
1034.8241	3072.1226	1235.35	353.35
1034.9331	3073.1399	1222.4	345.35
1035.042	3074.1567	1227.95	348.3
1035.1508	3075.1727	1221.65	338.7
1035.2597	3076.1882	1218.65	337.05
1035.3684	3077.203	1218.9	336.55
1035.4772	3078.2173	1211.9	332.4
1035.5859	3079.2308	1214.8	329.65
1035.6945	3080.2438	1213.8	333
1035.8031	3081.2561	1210.35	330.7
1035.9117	3082.2678	1213.05	332.35
1036.0202	3083.2789	1209.05	328.35
1036.1286	3084.2893	1205.8	326.95
1036.2371	3085.2991	1201.3	322.55
1036.3454	3086.3083	1206.35	322.6
1036.4538	3087.3169	1207.6	327.25
1036.562	3088.3248	1196.45	314.55
1036.6703	3089.3321	1197.45	315.45
1036.7785	3090.3388	1188.85	309.95
1036.8866	3091.3449	1190.75	310.3
1036.9948	3092.3503	1191.2	307.65
1037.1028	3093.3551	1189.45	310.6
1037.2108	3094.3593	1188.1	307.25
1037.3188	3095.3629	1187.3	307.6
1037.4267	3096.3658	1186.15	302.05
1037.5346	3097.3681	1184.6	303.9
1037.6425	3098.3698	1182.8	301.75
1037.7503	3099.3708	1185.85	300.55
1037.858	3100.3713	1179.9	300.2
1037.9657	3101.3711	1180.75	300.3
1038.0734	3102.3702	1309.3	293.95
1038.181	3103.3688	1180.55	297.4
1038.2886	3104.3667	1168.9	290.55
1038.3961	3105.364	1169.25	289.55
1038.5036	3106.3607	1167.05	287.8
1038.611	3107.3568	1167.3	286
1038.7184	3108.3522	1160.4	281.9
1038.8257	3109.347	1163.8	282.3
1038.933	3110.3412	1163.7	280.15
1039.0403	3111.3348	1158	278.05
1039.1475	3112.3277	1156	278.15
1039.2547	3113.32	1153.25	272.9
1039.3618	3114.3117	1156.9	277
1039.4689	3115.3028	1154.3	273.05
1039.5759	3116.2932	1154.7	272.55
1039.6829	3117.2831	1153.65	269.25
1039.7898	3118.2723	1145.65	266.15
1039.8967	3119.2608	1146.5	266.1
1040.0035	3120.2488	1143.15	262.85
1040.1103	3121.2361	1144.1	262.9
1040.2171	3122.2229	1143.9	263.85
1040.3238	3123.209	1140.8	260.65
1040.4305	3124.1944	1136.1	258.05
1040.5371	3125.1793	1139.05	257.35
1040.6437	3126.1635	1142.9	262.6
1040.7502	3127.1471	1134.2	254.55
1040.8567	3128.1301	1134.8	254.45
1040.9631	3129.1125	1136.6	258.05
1041.0695	3130.0942	1131.55	251.45
1041.1759	3131.0753	1145.75	256.3
1041.2822	3132.0558	1130.85	249.65
1041.3884	3133.0357	1132.15	252
1041.4946	3134.015	1126.6	247.7
1041.6008	3134.9936	1125.65	245.1
1041.7069	3135.9716	1145.35	243.55
1041.813	3136.949	1127.75	248.8
1041.919	3137.9258	1133.85	245.85
1042.025	3138.902	1130.2	244.25
1042.1309	3139.8775	1121.8	242.25
1042.2368	3140.8524	1116.3	235.55
1042.3427	3141.8267	1119.2	238.85
1042.4485	3142.8004	1116.9	236.85
1042.5542	3143.7735	1122.8	238.2
1042.6599	3144.7459	1120.9	241.15
1042.7656	3145.7178	1116.1	235.1
1042.8712	3146.689	1117.85	238.55
1042.9768	3147.6596	1110.4	228
1043.0823	3148.6295	1118.1	237
1043.1878	3149.5989	1115.1	236.05
1043.2932	3150.5676	1109.45	230.1
1043.3986	3151.5357	1108.9	230.5
1043.5039	3152.5032	1104.9	226.7
1043.6092	3153.4701	1104.9	224.6
1043.7145	3154.4364	1107.65	224.9
1043.8197	3155.402	1097.9	218.5
1043.9248	3156.367	1104.95	223.5
1044.03	3157.3315	1137.5	217.05
1044.135	3158.2952	1099.05	220
1044.24	3159.2584	1098.4	220.95
1044.345	3160.221	1094.85	212
1044.4499	3161.1829	1099.25	219.05
1044.5548	3162.1442	1097.55	217.25
1044.6596	3163.105	1090.25	210.7
1044.7644	3164.065	1091.1	210.75
1044.8692	3165.0245	1094.6	211.85
1044.9739	3165.9834	1083.65	205.4
1045.0785	3166.9416	1084.9	204.25
1045.1831	3167.8993	1086.5	205.75
1045.2877	3168.8563	1087.35	206.1
1045.3922	3169.8127	1086.1	206.9
1045.4966	3170.7684	1082.7	204.15
1045.6011	3171.7236	1082.2	202.05
1045.7054	3172.6782	1083.15	203.35
1045.8098	3173.6321	1085.8	206.2
1045.914	3174.5854	1084.95	200.45
1046.0183	3175.5381	1079.15	199.7
1046.1224	3176.4902	1069.85	188.15
1046.2266	3177.4417	1076.55	196.25
1046.3307	3178.3926	1074.65	195.7
1046.4347	3179.3428	1071.9	193.05
1046.5387	3180.2924	1073.3	192.6
1046.6427	3181.2415	1071.55	191.35
1046.7466	3182.1899	1077.6	195.8
1046.8504	3183.1377	1069.9	191.1
1046.9542	3184.0848	1074.95	192.35
1047.058	3185.0314	1065.2	185
1047.1617	3185.9773	1060.2	180.2
1047.2654	3186.9227	1066.7	183.6
1047.369	3187.8674	1064.2	183.75
1047.4726	3188.8115	1067.15	183.15
1047.5761	3189.755	1065.25	185.25
1047.6796	3190.6979	1060.55	181.1
1047.783	3191.6402	1059.15	179.35
1047.8864	3192.5818	1063.95	184.3
1047.9898	3193.5229	1068	181.4
1048.0931	3194.4633	1058.1	177.05
1048.1963	3195.4031	1056.75	178.2
1048.2995	3196.3423	1057.3	176.45
1048.4027	3197.2809	1052.7	172.15
1048.5058	3198.2189	1055.3	175.7
1048.6089	3199.1563	1062.65	177.75
1048.7119	3200.0931	1052.95	174.5
1048.8148	3201.0292	1050.35	169.45
1048.9178	3201.9648	1053.25	173.4
1049.0206	3202.8997	1054.7	172.4
1049.1235	3203.834	1050.65	170
1049.2262	3204.7677	1050.95	171.4
1049.329	3205.7008	1047.85	164.45
1049.4317	3206.6333	1049.3	168.4
1049.5343	3207.5652	1046.7	165.75
1049.6369	3208.4964	1041.25	162.5
1049.7394	3209.4271	1046.45	169.25
1049.8419	3210.3571	1043.55	164.75
1049.9444	3211.2865	1040.15	158.3
1050.0468	3212.2154	1043.65	164.85
1050.1491	3213.1436	1045.35	161.55
1050.2514	3214.0712	1046.5	159.75
1050.3537	3214.9982	1032.15	151.85
1050.4559	3215.9246	1040.9	160.1
1050.5581	3216.8503	1035.6	155.4
1050.6602	3217.7755	1037.65	158.6
1050.7623	3218.7001	1035.4	156.05
1050.8643	3219.624	1037.4	158.4
1050.9663	3220.5473	1035.25	155.5
1051.0682	3221.4701	1037.1	155.6
1051.1701	3222.3922	1035.3	155.25
1051.2719	3223.3137	1031.4	151
1051.3737	3224.2346	1031.8	152.35
1051.4754	3225.1549	1026.65	146.9
1051.5771	3226.0746	1027.65	149.4
1051.6788	3226.9937	1027.75	145.7
1051.7804	3227.9121	1026.65	147.5
1051.8819	3228.83	1027.45	146.4
1051.9834	3229.7473	1026.9	146
1052.0849	3230.6639	1022.6	141.6
1052.1863	3231.5799	1023.85	144.8
1052.2876	3232.4954	1027.45	145.65
1052.3889	3233.4102	1020	143.7
1052.4902	3234.3244	1020.65	140.25
1052.5914	3235.238	1022	141.3
1052.6926	3236.151	1043.85	139.3
1052.7937	3237.0634	1022.45	144.5
1052.8948	3237.9752	1017.45	137.95
1052.9958	3238.8864	1018.6	139.7
1053.0968	3239.797	1015.5	135.85
1053.1977	3240.7069	1014.55	133.9
1053.2986	3241.6163	1017.35	134.4
1053.3994	3242.5251	1014.65	136.6
1053.5002	3243.4332	1008.8	129.3
1053.6009	3244.3408	1013.3	132.75
1053.7016	3245.2477	1012.55	134.6
1053.8022	3246.154	1011.55	129.3
1053.9028	3247.0598	1009.95	128.8
1054.0034	3247.9649	1008.65	126.9
1054.1039	3248.8694	1009.95	129.95
1054.2043	3249.7733	1008.35	127.5
1054.3047	3250.6766	1004.45	124.15
1054.4051	3251.5793	1005.25	123
1054.5054	3252.4814	1007.05	129.15
1054.6056	3253.3829	1001.45	120.1
1054.7058	3254.2838	1007.25	127.65
1054.806	3255.1841	1002.75	122
1054.9061	3256.0838	1003.8	127.05
1055.0061	3256.9829	1002.15	123.4
1055.1062	3257.8814	1001.35	118.8
1055.2061	3258.7792	1003.25	121.95
1055.306	3259.6765	1002.1	120.4
1055.4059	3260.5731	997.3	116.6
1055.5057	3261.4692	993.65	113.15
1055.6055	3262.3647	995.7	114.3
1055.7052	3263.2595	993.9	114.85
1055.8049	3264.1538	989.9	110.75
1055.9045	3265.0474	990.25	107.65
1056.0041	3265.9404	990.4	111.8
1056.1036	3266.8329	984.85	104.35
1056.2031	3267.7247	995.95	105.85
1056.3025	3268.616	981.5	101.7
1056.4019	3269.5066	978.3	97.85
1056.5013	3270.3966	977.3	94.1
1056.6005	3271.286	971.6	92.05
