Software Version:	3.9.2.0
Unit SN:	10000200
Spectrometer SN:	6960
Date:	3/6/2024 10:19:14 AM
Data Line Index:	25
Spectral Points:	2048
Integration time (ms):	125
Averages:	20
Delay (ms):	30
Sequence Number:	1
Processing:	dark subtract
Laser Power (mW):	300
Laser Current (mA):	826
Laser Diode Temp (C):	25.1
Laser Case Temp (C):	25.3
System Temp (C):	25.1
Spectrometer Temp (C):	22.6
CCD Temp (C):	0.004
Secondary Temp (C):	20.004
Heatsink Temp (C):	20.427
CCDPCB Temp (C):	32.883
SecondaryPCB Temp (C):	26.558

Wavelength	RamanShift	Raw Counts	Dark Subtracted
787.061	30.1047	1062.6	650.9
787.2016	32.3739	1097.65	688.8
787.3422	34.6426	1123.3	714.4
787.4828	36.9109	1173.95	761.75
787.6235	39.1787	1224.95	809.45
787.7642	41.4461	1276.6	856.6
787.9049	43.7131	1333.05	909.85
788.0456	45.9796	1391.65	966.4
788.1863	48.2456	1446.1	1015.9
788.3271	50.5112	1513.7	1079.6
788.4679	52.7764	1578.9	1143.9
788.6087	55.0411	1646	1204.55
788.7496	57.3054	1719.2	1274.65
788.8904	59.5692	1791.55	1346.25
789.0313	61.8326	1884.8	1436.05
789.1722	64.0955	1980.45	1526.5
789.3132	66.3579	2097.75	1640.4
789.4541	68.6199	2234.25	1773.4
789.5951	70.8815	2478.85	2012.3
789.7361	73.1426	2989.8	2516.35
789.8771	75.4032	4285.85	3810.55
790.0181	77.6634	7645.65	7167.35
790.1592	79.9231	16509.1	16025.75
790.3003	82.1824	51486.25	50989
790.4414	84.4412	65230.7	64713.8
790.5825	86.6995	65535	64990.9
790.7237	88.9574	65535	64968.45
790.8648	91.2148	65535	64952.9
791.006	93.4717	65535	64941.35
791.1472	95.7282	65535	64936.65
791.2885	97.9842	65535	64934.6
791.4297	100.2398	65535	64925.35
791.571	102.4949	65535	64926.1
791.7123	104.7495	65535	64922.35
791.8536	107.0036	65535	64923.35
791.9949	109.2573	65535	64922.55
792.1363	111.5105	65535	64921.45
792.2777	113.7632	65535	64919.6
792.4191	116.0154	65535	64910.3
792.5605	118.2672	65535	64914.75
792.7019	120.5185	65535	64916.1
792.8434	122.7693	65535	64909.75
792.9849	125.0197	65535	64904.95
793.1264	127.2696	65535	64900.05
793.2679	129.519	65535	64894.75
793.4094	131.7679	65535	64893.35
793.551	134.0163	65535	64893.35
793.6926	136.2642	65535	64888.4
793.8342	138.5117	65535	64881.35
793.9758	140.7587	65535	64889.4
794.1175	143.0052	65535	64882.85
794.2591	145.2512	65535	64881.9
794.4008	147.4967	65535	64884.55
794.5425	149.7417	65535	64879.8
794.6842	151.9863	65535	64873.95
794.826	154.2304	65535	64872
794.9677	156.4739	65535	64864.55
795.1095	158.717	65535	64864.85
795.2513	160.9596	65535	64864
795.3931	163.2017	65535	64861.45
795.535	165.4433	65535	64858.35
795.6768	167.6844	65535	64855
795.8187	169.925	65535	64856.2
795.9606	172.1651	65535	64848.35
796.1025	174.4047	65535	64845.9
796.2445	176.6439	65535	64845.9
796.3864	178.8825	65535	64841.8
796.5284	181.1206	65535	64837.2
796.6704	183.3582	65535	64836.6
796.8124	185.5954	65535	64831.75
796.9544	187.832	65535	64827.2
797.0965	190.0681	65535	64828.55
797.2386	192.3037	65535	64825.5
797.3806	194.5388	65535	64819.7
797.5228	196.7734	65535	64817.6
797.6649	199.0075	65535	64818.75
797.807	201.2411	65535	64814
797.9492	203.4742	65535	64814.35
798.0914	205.7068	65535	64811.65
798.2336	207.9389	65535	64808.75
798.3758	210.1704	65535	64810.75
798.518	212.4015	65535	64825.35
798.6603	214.632	65535	64828.45
798.8025	216.862	65535	64831.9
798.9448	219.0915	65535	64828.7
799.0871	221.3205	65535	64824.65
799.2294	223.549	65535	64831.5
799.3718	225.777	65535	64831.8
799.5141	228.0044	65535	64822.8
799.6565	230.2314	65535	64823.5
799.7989	232.4578	65535	64820.1
799.9413	234.6837	65535	64813.5
800.0837	236.909	65535	64811.4
800.2262	239.1339	65535	64784.75
800.3687	241.3582	65535	64801.15
800.5111	243.582	65535	64767.75
800.6536	245.8053	65535	64784.1
800.7961	248.0281	65535	64785.4
800.9387	250.2503	65535	64784.1
801.0812	252.472	65535	64782
801.2238	254.6932	65535	64783.2
801.3664	256.9139	65535	64784
801.509	259.134	65535	64774.95
801.6516	261.3536	65535	64779.4
801.7942	263.5727	65535	64773.55
801.9369	265.7912	65535	64777.4
802.0795	268.0092	65535	64776
802.2222	270.2267	65535	64778.2
802.3649	272.4436	65535	64775.75
802.5076	274.6601	65535	64767
802.6504	276.8759	65535	64769.1
802.7931	279.0913	65535	64768.95
802.9359	281.3061	65535	64769.25
803.0787	283.5204	65535	64763.4
803.2215	285.7341	65535	64760.05
803.3643	287.9473	65535	64748.15
803.5071	290.16	65535	64755.55
803.6499	292.3721	65535	64763.15
803.7928	294.5837	65535	64763.6
803.9357	296.7947	65535	64761.85
804.0786	299.0052	65535	64761.2
804.2215	301.2152	65535	64759.85
804.3644	303.4246	65535	64759.8
804.5074	305.6334	65535	64759.7
804.6503	307.8418	65535	64753.8
804.7933	310.0495	65535	64752.8
804.9363	312.2568	65535	64756.9
805.0793	314.4635	65535	64758.4
805.2223	316.6696	65535	64748.65
805.3653	318.8752	65535	64742.85
805.5084	321.0802	65535	64748.35
805.6514	323.2847	65535	64744.95
805.7945	325.4887	65535	64750.75
805.9376	327.692	65535	64745.7
806.0807	329.8949	65535	64744.9
806.2238	332.0972	65535	64745.15
806.367	334.2989	65535	64738.6
806.5101	336.5001	65535	64742.15
806.6533	338.7007	65535	64740.15
806.7965	340.9008	65535	64739.2
806.9397	343.1003	65535	64737.65
807.0829	345.2992	65535	64735.55
807.2261	347.4976	65535	64731.7
807.3693	349.6955	65535	64729.05
807.5126	351.8927	65535	64733.3
807.6559	354.0895	65535	64717.85
807.7991	356.2856	65535	64729.7
807.9424	358.4812	65535	64725.6
808.0857	360.6763	65535	64724
808.2291	362.8707	65535	64725.2
808.3724	365.0646	65535	64720.6
808.5158	367.258	65535	64720.7
808.6591	369.4508	65535	64715.4
808.8025	371.643	65535	64715.9
808.9459	373.8346	65535	64714.85
809.0893	376.0257	65535	64716.55
809.2327	378.2162	65535	64714.3
809.3762	380.4062	65535	64712.5
809.5196	382.5956	65535	64713.85
809.6631	384.7844	65535	64722.25
809.8066	386.9726	65535	64718.2
809.9501	389.1603	65535	64722.55
810.0936	391.3474	65535	64684.05
810.2371	393.5339	65535	64719.55
810.3806	395.7199	65535	64726.35
810.5241	397.9052	65535	64723.15
810.6677	400.09	65535	64718.2
810.8113	402.2743	65535	64718.25
810.9548	404.4579	65535	64720.05
811.0984	406.641	65535	64713.7
811.2421	408.8235	65535	64715.3
811.3857	411.0054	65535	64712.3
811.5293	413.1868	65535	64710.2
811.673	415.3675	65535	64708.3
811.8166	417.5477	65535	64705.55
811.9603	419.7273	65535	64702
812.104	421.9064	65535	64693.65
812.2477	424.0848	65535	64701.95
812.3914	426.2627	65535	64701.8
812.5351	428.4399	65535	64700.15
812.6788	430.6166	65535	64699.55
812.8226	432.7928	65535	64696.45
812.9663	434.9683	65535	64693.3
813.1101	437.1432	65535	64691.85
813.2539	439.3176	65535	64696.4
813.3977	441.4914	65535	64698.3
813.5415	443.6645	65535	64695.4
813.6853	445.8371	65535	64693.05
813.8291	448.0091	65535	64697.4
813.973	450.1806	65535	64689.15
814.1168	452.3514	65535	64690.9
814.2607	454.5216	65535	64686.15
814.4046	456.6913	65535	64688.75
814.5485	458.8603	65535	64691.75
814.6924	461.0288	65535	64695.7
814.8363	463.1967	65535	64693
814.9802	465.3639	65535	64691.15
815.1241	467.5306	65535	64691.7
815.2681	469.6967	65535	64689.15
815.412	471.8622	65535	64693.25
815.556	474.0271	65535	64691.4
815.7	476.1914	65535	64689.2
815.844	478.3551	65535	64689
815.988	480.5182	65535	64688.55
816.132	482.6807	65535	64688.95
816.276	484.8426	65535	64688.2
816.4201	487.0039	65535	64687.05
816.5641	489.1647	65535	64685.3
816.7082	491.3248	65535	64685.35
816.8522	493.4843	65535	64685.8
816.9963	495.6432	65535	64687.05
817.1404	497.8015	65535	64681.4
817.2845	499.9592	65535	64683.75
817.4286	502.1163	65535	64680.5
817.5727	504.2728	65535	64683.75
817.7168	506.4287	65535	64682.1
817.861	508.5839	65535	64684.7
818.0051	510.7386	65535	64681.15
818.1493	512.8927	65535	64677.1
818.2935	515.0461	65535	64675.65
818.4377	517.199	65535	64677.85
818.5818	519.3512	65535	64678.8
818.726	521.5029	65535	64671.3
818.8703	523.6539	65535	64678.85
819.0145	525.8043	65535	64674.1
819.1587	527.9541	65535	64670.2
819.303	530.1033	65535	64674.45
819.4472	532.2519	65535	64675.65
819.5915	534.3999	65535	64672.1
819.7357	536.5472	65535	64677.65
819.88	538.694	65535	64673.05
820.0243	540.8401	65535	64675.5
820.1686	542.9856	65535	64670.8
820.3129	545.1305	65535	64671.05
820.4572	547.2748	65535	64670.85
820.6016	549.4185	65535	64669.55
820.7459	551.5615	65535	64668.85
820.8902	553.704	65535	64670
821.0346	555.8458	65535	64668.1
821.1789	557.987	65535	64671.65
821.3233	560.1276	65535	64668.15
821.4677	562.2675	65535	64669.25
821.6121	564.4069	65535	64667.3
821.7565	566.5456	65535	64671.75
821.9009	568.6837	65535	64670.4
822.0453	570.8212	65535	64668.9
822.1897	572.958	65535	64667.45
822.3342	575.0942	65535	64669.2
822.4786	577.2299	65535	64665.6
822.6231	579.3648	65535	64667.35
822.7675	581.4992	65535	64670.8
822.912	583.6329	65535	64670.45
823.0565	585.766	65535	64670.2
823.201	587.8985	65535	64672.05
823.3454	590.0304	65535	64643.15
823.4899	592.1616	65535	64664.6
823.6345	594.2922	65535	64665.6
823.779	596.4222	65535	64664.55
823.9235	598.5515	65535	64665.1
824.068	600.6802	65535	64661.95
824.2126	602.8083	65535	64664.15
824.3571	604.9358	65535	64662.2
824.5017	607.0626	65535	64665.9
824.6462	609.1888	65535	64663.1
824.7908	611.3144	65535	64660.35
824.9354	613.4393	65535	64661.6
825.08	615.5636	65535	64664.7
825.2246	617.6873	65535	64659.95
825.3692	619.8103	65535	64658.25
825.5138	621.9327	65535	64659.55
825.6584	624.0544	65535	64661.85
825.803	626.1756	65535	64661.6
825.9477	628.2961	65535	64658.95
826.0923	630.4159	65535	64659.75
826.237	632.5351	65535	64655.05
826.3816	634.6537	65535	64657.35
826.5263	636.7716	65535	64656.25
826.6709	638.8889	65535	64656.35
826.8156	641.0056	65535	64655.95
826.9603	643.1216	65535	64656.1
827.105	645.237	65535	64654.8
827.2497	647.3518	65535	64653.85
827.3944	649.4659	65535	64655.9
827.5391	651.5793	65535	64655.55
827.6838	653.6922	65535	64658
827.8285	655.8043	65535	64656.15
827.9733	657.9159	65535	64653.65
828.118	660.0268	65535	64652.45
828.2627	662.137	65535	64653.8
828.4075	664.2466	65535	64650.05
828.5522	666.3556	65535	64653.45
828.697	668.4639	65535	64649.2
828.8418	670.5716	65535	64653.5
828.9865	672.6786	65535	64651.15
829.1313	674.785	65535	64650.15
829.2761	676.8907	65535	64648.45
829.4209	678.9958	65535	64655.1
829.5657	681.1002	65535	64652.75
829.7105	683.204	65535	64648.35
829.8553	685.3072	65535	64650.95
830.0001	687.4097	65535	64653.35
830.1449	689.5115	65535	64651
830.2898	691.6127	65535	64649.6
830.4346	693.7132	65535	64647.6
830.5794	695.8131	65535	64629.85
830.7243	697.9123	65535	64646.9
830.8691	700.0109	65535	64647.45
831.014	702.1089	65535	64649.6
831.1588	704.2061	65535	64648.25
831.3037	706.3028	65535	64649.05
831.4486	708.3987	65535	64650.35
831.5935	710.4941	65535	64647.5
831.7383	712.5887	65535	64647.8
831.8832	714.6827	65535	64642.2
832.0281	716.7761	65535	64647.25
832.173	718.8688	65535	64645.45
832.3179	720.9608	65535	64643.15
832.4628	723.0522	65535	64642.9
832.6077	725.1429	65535	64646.6
832.7527	727.233	65535	64644.65
832.8976	729.3224	65535	64648.85
833.0425	731.4112	65535	64642.2
833.1874	733.4993	65535	64642.85
833.3324	735.5867	65535	64642.8
833.4773	737.6735	65535	64640.85
833.6222	739.7596	65535	64642.05
833.7672	741.845	65535	64642.05
833.9122	743.9298	65535	64644.85
834.0571	746.014	65535	64647.1
834.2021	748.0974	65535	64641.15
834.347	750.1802	65535	64643.7
834.492	752.2624	65535	64645.5
834.637	754.3439	65535	64641.05
834.782	756.4247	65535	64633
834.9269	758.5048	65535	64640.9
835.0719	760.5843	65535	64641.1
835.2169	762.6631	65535	64645.6
835.3619	764.7413	65535	64644.8
835.5069	766.8188	65535	64643
835.6519	768.8956	65535	64640.05
835.7969	770.9718	65535	64643.1
835.9419	773.0473	65535	64641.7
836.0869	775.1221	65535	64642.55
836.232	777.1962	65535	64641.65
836.377	779.2697	65535	64638.7
836.522	781.3426	65535	64623
836.667	783.4147	65535	64640.8
836.8121	785.4862	65535	64644.1
836.9571	787.557	65535	64641.95
837.1021	789.6271	65535	64640.8
837.2472	791.6966	65535	64642.6
837.3922	793.7654	65535	64641.95
837.5373	795.8335	65535	64641.05
837.6823	797.901	65535	64642.9
837.8274	799.9678	65535	64638.75
837.9724	802.0339	65535	64643.55
838.1175	804.0993	65535	64633.2
838.2626	806.1641	65535	64639
838.4076	808.2282	65535	64640.45
838.5527	810.2916	65535	64638.8
838.6978	812.3544	65535	64642.45
838.8428	814.4164	65535	64641.3
838.9879	816.4778	65535	64638.15
839.133	818.5385	65535	64638.6
839.2781	820.5986	65535	64640.1
839.4232	822.658	65535	64634.8
839.5682	824.7166	65535	64640.8
839.7133	826.7747	65535	64639.35
839.8584	828.832	65535	64639.9
840.0035	830.8886	65535	64639.55
840.1486	832.9446	65535	64635.6
840.2937	834.9999	65535	64638
840.4388	837.0545	65535	64634
840.5839	839.1085	65535	64639.15
840.729	841.1618	65535	64637.15
840.8741	843.2143	65535	64637.05
841.0192	845.2662	65535	64638.8
841.1643	847.3175	65535	64639.3
841.3095	849.368	65535	64639.4
841.4546	851.4179	65535	64637.85
841.5997	853.467	65535	64635.35
841.7448	855.5155	65535	64636.45
841.8899	857.5633	65535	64638.3
842.0351	859.6105	65535	64637.05
842.1802	861.6569	65535	64640.15
842.3253	863.7027	65535	64634.15
842.4704	865.7478	65535	64637.9
842.6156	867.7922	65535	64637.45
842.7607	869.8359	65535	64637.75
842.9058	871.8789	65535	64636.25
843.0509	873.9212	65535	64603
843.1961	875.9629	65535	64633.75
843.3412	878.0039	65535	64639.55
843.4863	880.0441	65535	64638.2
843.6315	882.0837	65535	64636.4
843.7766	884.1226	65535	64635.55
843.9218	886.1609	65535	64638.05
844.0669	888.1984	65535	64637.5
844.212	890.2352	65535	64637.2
844.3572	892.2714	65535	64635.85
844.5023	894.3069	65535	64635.25
844.6475	896.3416	65535	64632.95
844.7926	898.3757	65535	64636.6
844.9377	900.4091	65535	64634.2
845.0829	902.4418	65535	64631.7
845.228	904.4739	65535	64633.25
845.3732	906.5052	65535	64633.05
845.5183	908.5358	65535	64636.85
845.6635	910.5658	65535	64631.7
845.8086	912.595	65535	64634.65
845.9538	914.6236	65535	64633.65
846.0989	916.6515	65535	64636.95
846.2441	918.6786	65535	64634.1
846.3892	920.7051	65535	64634.05
846.5344	922.7309	65535	64634.75
846.6795	924.756	65535	64634.75
846.8246	926.7804	65535	64632.15
846.9698	928.8041	65535	64628.4
847.1149	930.8272	65535	64631.05
847.2601	932.8495	65535	64630.75
847.4052	934.8711	65535	64633.95
847.5504	936.892	65535	64631.45
847.6955	938.9123	65535	64632.75
847.8407	940.9318	65535	64635.6
847.9858	942.9506	65535	64633.75
848.131	944.9688	65535	64635.75
848.2761	946.9862	65535	64634.4
848.4213	949.003	65535	64632.75
848.5664	951.019	65535	64633.85
848.7115	953.0344	65535	64632.9
848.8567	955.0491	65535	64633.4
849.0018	957.063	65535	64632.8
849.147	959.0763	65535	64636.25
849.2921	961.0888	65535	64630.75
849.4373	963.1007	65535	64633.7
849.5824	965.1119	65535	64635.55
849.7275	967.1223	65535	64633.75
849.8727	969.1321	65535	64636.1
850.0178	971.1412	65535	64635.1
850.1629	973.1495	65535	64634.5
850.3081	975.1572	65535	64600.4
850.4532	977.1641	65535	64631.9
850.5983	979.1704	65535	64632.6
850.7435	981.1759	65535	64630.35
850.8886	983.1808	65535	64631.65
851.0337	985.1849	65535	64623.35
851.1788	987.1884	65535	64631.35
851.324	989.1911	65535	64631.3
851.4691	991.1932	65535	64632.5
851.6142	993.1945	65535	64633.8
851.7593	995.1951	65535	64633.4
851.9045	997.1951	65535	64627.35
852.0496	999.1943	65535	64631
852.1947	1001.1928	65535	64633.25
852.3398	1003.1906	65535	64635.15
852.4849	1005.1877	65535	64632.9
852.63	1007.1841	65535	64631
852.7751	1009.1798	65535	64634.5
852.9202	1011.1748	65535	64634.05
853.0653	1013.1691	65535	64635.6
853.2104	1015.1627	65535	64634.25
853.3555	1017.1556	65535	64633
853.5006	1019.1477	65535	64630.75
853.6457	1021.1392	65535	64635.25
853.7908	1023.1299	65535	64635.75
853.9359	1025.12	65535	64634.55
854.081	1027.1093	65535	64639.9
854.2261	1029.0979	65535	64638.35
854.3712	1031.0859	65535	64633.45
854.5163	1033.0731	65535	64637.45
854.6613	1035.0596	65535	64633.9
854.8064	1037.0454	65535	64632.1
854.9515	1039.0304	65535	64632.95
855.0965	1041.0148	65535	64633.45
855.2416	1042.9985	65535	64633.95
855.3867	1044.9814	65535	64635.15
855.5317	1046.9636	65535	64633.2
855.6768	1048.9452	65535	64635.8
855.8219	1050.926	65535	64634.35
855.9669	1052.9061	65535	64635.65
856.112	1054.8855	65535	64634.15
856.257	1056.8642	65535	64634.25
856.4021	1058.8421	65535	64628
856.5471	1060.8194	65535	64633.8
856.6921	1062.7959	65535	64634.45
856.8372	1064.7717	65535	64633.75
856.9822	1066.7469	65535	64634.45
857.1272	1068.7213	65535	64630.85
857.2723	1070.695	65535	64634.55
857.4173	1072.6679	65535	64633.65
857.5623	1074.6402	65535	64633.6
857.7073	1076.6117	65535	64627.3
857.8523	1078.5826	65535	64629.9
857.9973	1080.5527	65535	64630.8
858.1423	1082.5221	65535	64632.25
858.2873	1084.4908	65535	64633.05
858.4323	1086.4587	65535	64634.8
858.5773	1088.426	65535	64634.2
858.7223	1090.3925	65535	64628.6
858.8673	1092.3584	65535	64630.75
859.0123	1094.3235	65535	64634.6
859.1573	1096.2879	65535	64629.6
859.3022	1098.2515	65535	64633.9
859.4472	1100.2145	65535	64634.05
859.5922	1102.1767	65535	64633.4
859.7371	1104.1382	65535	64634.3
859.8821	1106.099	65535	64630.85
860.027	1108.0591	65535	64633.75
860.172	1110.0185	65535	64630.55
860.3169	1111.9771	65535	64633.55
860.4619	1113.9351	65535	64631.3
860.6068	1115.8923	65535	64634.35
860.7517	1117.8488	65535	64630.55
860.8967	1119.8045	65535	64634.95
861.0416	1121.7596	65535	64635.85
861.1865	1123.7139	65535	64635
861.3314	1125.6675	65535	64636.25
861.4763	1127.6204	65535	64635.45
861.6212	1129.5726	65535	64631.35
861.7661	1131.524	65535	64635.55
861.911	1133.4748	65535	64635.7
862.0559	1135.4248	65535	64633.2
862.2008	1137.3741	65535	64634.5
862.3457	1139.3226	65535	64631
862.4905	1141.2705	65535	64633.3
862.6354	1143.2176	65535	64627.35
862.7803	1145.164	65535	64632.45
862.9251	1147.1097	65535	64634.8
863.07	1149.0546	65535	64632.45
863.2148	1150.9989	65535	64633.8
863.3597	1152.9424	65535	64630.55
863.5045	1154.8852	65535	64634.05
863.6493	1156.8272	65535	64634.35
863.7942	1158.7686	65535	64627.8
863.939	1160.7092	65535	64634.6
864.0838	1162.6491	65535	64634.1
864.2286	1164.5883	65535	64634.4
864.3734	1166.5267	65535	64634.6
864.5182	1168.4644	65535	64630.9
864.663	1170.4014	65535	64630
864.8078	1172.3377	65535	64636
864.9526	1174.2732	65535	64634.8
865.0974	1176.2081	65535	64635.4
865.2421	1178.1421	65535	64628.3
865.3869	1180.0755	65535	64634.1
865.5317	1182.0082	65535	64633.55
865.6764	1183.9401	65535	64630.8
865.8212	1185.8713	65535	64634.7
865.9659	1187.8017	65535	64633.4
866.1106	1189.7315	65535	64638.25
866.2554	1191.6605	65535	64609.55
866.4001	1193.5888	65535	64635.75
866.5448	1195.5163	65535	64634.05
866.6895	1197.4432	65535	64633.25
866.8342	1199.3693	65535	64635.45
866.9789	1201.2947	65535	64635.1
867.1236	1203.2193	65535	64633.8
867.2683	1205.1432	65535	64635.75
867.413	1207.0664	65535	64633.9
867.5576	1208.9889	65535	64630.35
867.7023	1210.9106	65535	64633.6
867.847	1212.8316	65535	64635.9
867.9916	1214.7519	65535	64624.55
868.1363	1216.6715	65535	64633.95
868.2809	1218.5903	65535	64633.35
868.4255	1220.5084	65535	64635.45
868.5701	1222.4257	65535	64635.75
868.7148	1224.3424	65535	64636.3
868.8594	1226.2583	65535	64627.25
869.004	1228.1735	65535	64634.25
869.1486	1230.0879	65535	64634.1
869.2932	1232.0016	65535	64636.2
869.4377	1233.9146	65535	64634.3
869.5823	1235.8269	65535	64634.45
869.7269	1237.7384	65535	64634.4
869.8715	1239.6492	65535	64635.05
870.016	1241.5592	65535	64634.2
870.1606	1243.4686	65535	64635.7
870.3051	1245.3772	65535	64635.2
870.4496	1247.285	65535	64632.75
870.5941	1249.1922	65535	64633.6
870.7387	1251.0986	65535	64637.2
870.8832	1253.0042	65535	64636.2
871.0277	1254.9092	65535	64635.7
871.1722	1256.8134	65535	64633.8
871.3167	1258.7169	65535	64634.55
871.4611	1260.6196	65535	64634.45
871.6056	1262.5216	65535	64633.4
871.7501	1264.4229	65535	64637
871.8945	1266.3234	65535	64633
872.039	1268.2232	65535	64633.75
872.1834	1270.1223	65535	64633.65
872.3278	1272.0207	65535	64635.05
872.4723	1273.9183	65535	64629.65
872.6167	1275.8151	65535	64636.4
872.7611	1277.7113	65535	64633.7
872.9055	1279.6067	65535	64635.65
873.0499	1281.5014	65535	64631.8
873.1943	1283.3953	65535	64633.4
873.3386	1285.2885	65535	64636.9
873.483	1287.181	65535	64636.5
873.6274	1289.0727	65535	64637.4
873.7717	1290.9637	65535	64633.9
873.9161	1292.854	65535	64634.15
874.0604	1294.7435	65535	64634.85
874.2047	1296.6323	65535	64636.2
874.349	1298.5204	65535	64631.6
874.4933	1300.4077	65535	64634.2
874.6376	1302.2943	65535	64634.7
874.7819	1304.1802	65535	64634.1
874.9262	1306.0653	65535	64632.7
875.0705	1307.9497	65535	64635.05
875.2147	1309.8333	65535	64635.75
875.359	1311.7162	65535	64636.05
875.5032	1313.5984	65535	64631.75
875.6475	1315.4798	65535	64621.6
875.7917	1317.3605	65535	64617.9
875.9359	1319.2405	65535	64631.4
876.0801	1321.1197	65535	64633.45
876.2243	1322.9982	65535	64630.35
876.3685	1324.876	65535	64636.2
876.5127	1326.753	65535	64634.7
876.6569	1328.6293	65535	64633.8
876.801	1330.5048	65535	64634.65
876.9452	1332.3796	65535	64633.45
877.0893	1334.2537	65535	64606.85
877.2335	1336.127	65535	64633.25
877.3776	1337.9996	65535	64635.05
877.5217	1339.8714	65535	64634.75
877.6658	1341.7426	65535	64590.1
877.8099	1343.6129	65535	64636.05
877.954	1345.4826	65535	64634.85
878.0981	1347.3515	65535	64631.5
878.2422	1349.2196	65535	64634.2
878.3862	1351.087	65535	64632.8
878.5303	1352.9537	65535	64632.7
878.6743	1354.8197	65535	64634.7
878.8184	1356.6849	65535	64634.25
878.9624	1358.5493	65535	64632.6
879.1064	1360.4131	65535	64634.95
879.2504	1362.276	65535	64636.35
879.3944	1364.1383	65535	64635.4
879.5384	1365.9998	65535	64629.6
879.6823	1367.8606	65535	64634.2
879.8263	1369.7206	65535	64631.5
879.9702	1371.5799	65535	64633.75
880.1142	1373.4384	65535	64633
880.2581	1375.2962	65535	64632.5
880.402	1377.1533	65535	64635.5
880.5459	1379.0096	65535	64633.55
880.6898	1380.8652	65535	64635.65
880.8337	1382.7201	65535	64634.55
880.9776	1384.5742	65535	64633.45
881.1215	1386.4275	65520.5	64618.1
881.2653	1388.2802	65534.5	64635.05
881.4092	1390.132	65535	64636.75
881.553	1391.9832	65518.65	64615.3
881.6968	1393.8336	65498.5	64598.8
881.8406	1395.6832	65503.4	64601.7
881.9844	1397.5322	65523.65	64624.25
882.1282	1399.3803	65479.4	64576.7
882.272	1401.2278	65498.35	64600.3
882.4158	1403.0745	65467.8	64570
882.5595	1404.9204	65459.25	64563.05
882.7033	1406.7656	65458.5	64556.35
882.847	1408.6101	65411.05	64508.8
882.9908	1410.4538	65435.45	64535.15
883.1345	1412.2968	65430.5	64531.2
883.2782	1414.139	65386.55	64486.75
883.4219	1415.9805	65408.65	64509.75
883.5656	1417.8213	65386.9	64482.1
883.7092	1419.6613	65409.2	64510.75
883.8529	1421.5006	65370.4	64471.55
883.9965	1423.3391	65353.35	64453.7
884.1402	1425.1769	65367.95	64468.7
884.2838	1427.0139	65400.05	64499.55
884.4274	1428.8502	65353	64451.1
884.571	1430.6858	65365.1	64463.1
884.7146	1432.5206	65436.8	64538
884.8582	1434.3547	65368.85	64466.8
885.0018	1436.188	65343.35	64445.6
885.1453	1438.0206	65386.3	64488.7
885.2889	1439.8524	65359.6	64459.5
885.4324	1441.6835	65321.35	64422.55
885.5759	1443.5139	65361.55	64460.15
885.7194	1445.3435	65314.45	64413.55
885.8629	1447.1724	65337.3	64439.15
886.0064	1449.0005	65278.6	64380.5
886.1499	1450.8279	65324.2	64423.85
886.2933	1452.6545	65309.2	64408.6
886.4368	1454.4804	65291.45	64394.4
886.5802	1456.3056	65263.5	64356.45
886.7237	1458.13	65274.65	64375.85
886.8671	1459.9536	65317.25	64420.05
887.0105	1461.7766	65265.65	64368.15
887.1539	1463.5987	65230.55	64331
887.2972	1465.4202	65240.15	64342.55
887.4406	1467.2409	65231.4	64331
887.584	1469.0608	65188.5	64288.15
887.7273	1470.88	65210.75	64312
887.8706	1472.6984	65216.35	64317.6
888.0139	1474.5161	65164.85	64264.35
888.1572	1476.3331	65195.9	64297.8
888.3005	1478.1493	65146.1	64245.9
888.4438	1479.9648	65136.05	64239.8
888.5871	1481.7795	65170.85	64272.15
888.7303	1483.5935	65176.45	64279.1
888.8736	1485.4067	65133.35	64234.05
889.0168	1487.2192	65142.75	64245.6
889.16	1489.031	65131.25	64228.15
889.3032	1490.842	65132.9	64233.05
889.4464	1492.6522	65134.65	64236.65
889.5896	1494.4618	65101.45	64201.05
889.7327	1496.2705	65120.5	64224.35
889.8759	1498.0785	65069.65	64171.6
890.019	1499.8858	65087.1	64188.4
890.1622	1501.6924	65116.75	64217.35
890.3053	1503.4981	65085.75	64187.65
890.4484	1505.3032	65083	64184.65
890.5914	1507.1075	65065.7	64168.25
890.7345	1508.911	65078.45	64182.15
890.8776	1510.7138	65070.3	64171.2
891.0206	1512.5159	65063.85	64166.6
891.1637	1514.3172	64999.75	64103.85
891.3067	1516.1178	65023.15	64126.65
891.4497	1517.9176	65033.7	64131.9
891.5927	1519.7166	65021.95	64123.05
891.7357	1521.515	65006.45	64101.8
891.8786	1523.3126	64997.7	64100
892.0216	1525.1094	65008.75	64108.3
892.1645	1526.9055	64993.95	64098.15
892.3074	1528.7008	64988.75	64092.1
892.4503	1530.4954	64952.55	64053
892.5932	1532.2893	64970.7	64072.85
892.7361	1534.0824	64941.95	64039.7
892.879	1535.8747	64937.95	64040.65
893.0218	1537.6663	64963.8	64066.95
893.1647	1539.4572	64903.15	64005.2
893.3075	1541.2473	64924.6	64026.75
893.4503	1543.0367	64908.1	64012.55
893.5931	1544.8253	64903.55	64002.3
893.7359	1546.6132	64893.55	63994.75
893.8787	1548.4003	64886.8	63978.9
894.0214	1550.1867	64856.9	63949.65
894.1642	1551.9723	64861.2	63959.1
894.3069	1553.7572	64873.5	63974.9
894.4496	1555.5414	64879.25	63983.7
894.5923	1557.3247	64856.3	63958.95
894.735	1559.1074	64857	63962.4
894.8777	1560.8893	64849.65	63954.3
895.0204	1562.6705	64841.35	63945.5
895.163	1564.4509	64824.75	63928.75
895.3056	1566.2305	64825.65	63932.1
895.4482	1568.0094	64843.85	63950.45
895.5908	1569.7876	64841.05	63945.2
895.7334	1571.565	64820.6	63924.5
895.876	1573.3417	64816.1	63921.35
896.0186	1575.1176	64816.9	63921.1
896.1611	1576.8928	64814.05	63917.35
896.3036	1578.6672	64780.15	63886.65
896.4461	1580.4409	64781.25	63889.5
896.5886	1582.2138	64775	63878.15
896.7311	1583.986	64769.55	63872.6
896.8736	1585.7575	64765.75	63870.45
897.0161	1587.5282	64764.2	63870.1
897.1585	1589.2981	64768.55	63872.7
897.3009	1591.0673	64738.7	63843.35
897.4433	1592.8358	64740.9	63848.35
897.5857	1594.6035	64747.5	63853.3
897.7281	1596.3704	64735.1	63839.95
897.8705	1598.1366	64734.9	63841.4
898.0128	1599.9021	64720.05	63825.75
898.1551	1601.6668	64710.85	63813.9
898.2975	1603.4308	64706.1	63808.5
898.4398	1605.194	64709.9	63809.9
898.5821	1606.9564	64695	63802
898.7243	1608.7182	64690.45	63792.2
898.8666	1610.4791	64689.3	63796.9
899.0088	1612.2394	64696.5	63803.55
899.1511	1613.9988	64689.95	63797.1
899.2933	1615.7576	64685.25	63791.6
899.4355	1617.5156	64700.95	63801.95
899.5776	1619.2728	64710.45	63816.6
899.7198	1621.0293	64686.85	63793.9
899.862	1622.785	64682.55	63786.3
900.0041	1624.54	64655.9	63760.55
900.1462	1626.2942	64649.7	63754.4
900.2883	1628.0477	64614.1	63716.85
900.4304	1629.8005	64568.1	63669.6
900.5725	1631.5525	64607.5	63714.55
900.7145	1633.3037	64545.35	63651.65
900.8566	1635.0542	64525.7	63632.4
900.9986	1636.804	64566.35	63673.95
901.1406	1638.553	64487.9	63513.95
901.2826	1640.3013	64491.8	63596.3
901.4245	1642.0488	64450.2	63555.85
901.5665	1643.7955	64498.95	63608.65
901.7085	1645.5416	64451.9	63559.65
901.8504	1647.2868	64422.65	63530.5
901.9923	1649.0313	64480.4	63589.5
902.1342	1650.7751	64435.5	63541.35
902.2761	1652.5181	64407.5	63515.7
902.4179	1654.2604	64412.35	63519.8
902.5598	1656.0019	64410.4	63518.4
902.7016	1657.7427	64402.9	63510.4
902.8434	1659.4828	64447.1	63552.65
902.9852	1661.222	64390.55	63497.75
903.127	1662.9606	64426.95	63534
903.2687	1664.6984	64375.25	63480.8
903.4105	1666.4354	64399.1	63503.85
903.5522	1668.1717	64319.35	63426.4
903.6939	1669.9072	64239.4	63344.15
903.8356	1671.642	64238.85	63345.2
903.9773	1673.3761	64203.25	63309.7
904.119	1675.1094	64178.35	63286
904.2606	1676.8419	64094.55	63202.75
904.4022	1678.5737	64108.05	63215.6
904.5439	1680.3048	64069.95	63177.8
904.6855	1682.0351	64039.15	63145.85
904.827	1683.7646	64009.85	63114.95
904.9686	1685.4934	64042.95	63152.75
905.1101	1687.2215	63869.25	62976.35
905.2517	1688.9488	63983.35	63091.7
905.3932	1690.6754	63643	62749.1
905.5347	1692.4012	63854.4	62962
905.6761	1694.1263	63873.45	62981.45
905.8176	1695.8506	63715.6	62823.4
905.9591	1697.5742	63723.6	62831.2
906.1005	1699.297	63678.3	62787.9
906.2419	1701.0191	63699.1	62807.6
906.3833	1702.7404	63479.3	62587.5
906.5246	1704.461	63388.45	62496.75
906.666	1706.1808	63564.85	62671.75
906.8073	1707.8999	63428.6	62534.05
906.9487	1709.6182	63387.75	62494.95
907.09	1711.3358	63359.65	62466.2
907.2313	1713.0527	63301.9	62411.9
907.3725	1714.7688	63292.4	62394.25
907.5138	1716.4841	62968.5	62076.4
907.655	1718.1987	63107.3	62210.45
907.7962	1719.9126	63023.6	62133.6
907.9374	1721.6257	63106.9	62213.55
908.0786	1723.338	63107.4	62215.25
908.2198	1725.0496	62717.35	61822.95
908.3609	1726.7605	62790.2	61900.15
908.502	1728.4706	62672.4	61780.5
908.6431	1730.18	62803.1	61909.05
908.7842	1731.8886	62599.45	61708.1
908.9253	1733.5964	62491.9	61596.35
909.0664	1735.3036	62694.35	61801.3
909.2074	1737.0099	62521.5	61633.1
909.3484	1738.7156	62347.15	61457.4
909.4894	1740.4204	62293.5	61399.05
909.6304	1742.1246	62367.45	61473.75
909.7714	1743.8279	62422.7	61532.6
909.9123	1745.5306	62376.35	61484.15
910.0532	1747.2325	61934.7	61041.9
910.1941	1748.9336	61968.75	61077.85
910.335	1750.634	62053.35	61161.15
910.4759	1752.3336	62151	61258.8
910.6168	1754.0325	61836.85	60948.65
910.7576	1755.7307	62134.1	61243.7
910.8984	1757.4281	61741.15	60851.05
911.0392	1759.1247	62011.05	61109.95
911.18	1760.8206	61588.2	60690.6
911.3208	1762.5158	61651.05	60755.75
911.4615	1764.2102	61729.7	60836.65
911.6022	1765.9039	61624.45	60734.5
911.7429	1767.5968	61502.05	60610.75
911.8836	1769.289	61433.05	60542
912.0243	1770.9804	61525.95	60633.2
912.1649	1772.6711	61371.6	60479.75
912.3056	1774.361	61284.15	60392.15
912.4462	1776.0502	61283.7	60392.65
912.5868	1777.7386	60861.95	59968.75
912.7274	1779.4263	61105.7	60214.95
912.8679	1781.1132	61099.15	60207.7
913.0084	1782.7994	60985.55	60092.85
913.149	1784.4849	61020	60131.5
913.2895	1786.1696	60431.85	59535.15
913.4299	1787.8535	60766.4	59877.85
913.5704	1789.5367	60819.55	59929.05
913.7108	1791.2192	60471.65	59581.35
913.8513	1792.9009	60217.7	59297.1
913.9917	1794.5818	60496.05	59602.25
914.132	1796.2621	60169.35	59279.9
914.2724	1797.9415	60199.25	59310.6
914.4128	1799.6202	60190.55	59300.2
914.5531	1801.2982	60174.5	59284.65
914.6934	1802.9755	59794.75	58904.95
914.8337	1804.6519	59655.4	58764.65
914.9739	1806.3277	60139.75	59249.35
915.1142	1808.0027	59351.1	58458.55
915.2544	1809.6769	59588.55	58696.6
915.3946	1811.3504	59665.9	58776.05
915.5348	1813.0231	59063.55	58173.9
915.675	1814.6951	59488.7	58600
915.8151	1816.3664	59223.15	58331.5
915.9553	1818.0369	59249.35	58358.3
916.0954	1819.7067	59065.8	58175.35
916.2355	1821.3757	59389.55	58495.8
916.3755	1823.044	58868.65	57978.4
916.5156	1824.7115	58563.65	57671.15
916.6556	1826.3783	58757.15	57867.5
916.7956	1828.0443	58776.65	57887.55
916.9356	1829.7096	58534.5	57644.05
917.0756	1831.3741	58091.9	57197.6
917.2155	1833.0379	58366.6	57475.45
917.3555	1834.701	58275.3	57382.25
917.4954	1836.3633	57983.9	57094.3
917.6353	1838.0248	58176.7	57285.15
917.7751	1839.6856	58018.45	57127.8
917.915	1841.3457	57693.45	56804.2
918.0548	1843.005	58009.5	57118.4
918.1946	1844.6636	57763.95	56875.9
918.3344	1846.3214	57291.45	56401.05
918.4742	1847.9785	57449.55	56559.7
918.6139	1849.6349	57375.3	56484.65
918.7537	1851.2904	57712.75	56813.5
918.8934	1852.9453	57072.75	56180.35
919.0331	1854.5994	57315.7	56420.9
919.1727	1856.2528	57283.95	56387.15
919.3124	1857.9054	56865.9	55974.2
919.452	1859.5572	56661.35	55772.75
919.5916	1861.2083	56902.6	56011.95
919.7312	1862.8587	57258.75	56368.75
919.8708	1864.5084	56155.9	55264.7
920.0103	1866.1572	56647.7	55755.2
920.1498	1867.8054	56016.7	55125
920.2893	1869.4528	56351.55	55460.25
920.4288	1871.0994	55890.15	54999.6
920.5683	1872.7453	55770.75	54881.5
920.7077	1874.3905	56073.35	55175.45
920.8471	1876.0349	55592.9	54701.55
920.9865	1877.6786	55911	55017.7
921.1259	1879.3215	55427.6	54535.75
921.2653	1880.9637	55866.45	54975.2
921.4046	1882.6051	55343.9	54453.7
921.5439	1884.2458	55164.85	54269.7
921.6832	1885.8858	54834.85	53944.95
921.8225	1887.525	55085.9	54194.7
921.9617	1889.1634	54947	54056.35
922.101	1890.8011	54653.05	53762.35
922.2402	1892.4381	54054.75	53165.5
922.3794	1894.0743	54743.8	53853.55
922.5185	1895.7098	54301.95	53413.4
922.6577	1897.3446	53953.15	53062.55
922.7968	1898.9786	54104.6	53210.5
922.9359	1900.6118	53733.7	52844.1
923.075	1902.2443	53446.2	52551.9
923.214	1903.8761	53833.2	52941.8
923.3531	1905.5071	53339.1	52447.25
923.4921	1907.1374	52536.15	51646.1
923.6311	1908.7669	52886.95	51998.45
923.77	1910.3957	53148.15	52258.1
923.909	1912.0237	52515	51624.3
924.0479	1913.651	52262.8	51371.85
924.1868	1915.2776	52112.85	51223.5
924.3257	1916.9034	52059.5	51170.3
924.4646	1918.5285	51830.5	50941.45
924.6034	1920.1528	51810.25	50920.6
924.7422	1921.7764	51613.15	50725.35
924.881	1923.3992	51513.45	50623.85
925.0198	1925.0213	51143.9	50253.55
925.1586	1926.6427	50674	49783.25
925.2973	1928.2633	50889.9	49917.9
925.436	1929.8832	50672.25	49779.6
925.5747	1931.5023	50475.2	49583.9
925.7134	1933.1207	50091.8	49199.6
925.852	1934.7383	50355.85	49465.5
925.9906	1936.3552	49921.15	49031.3
926.1292	1937.9714	49875.4	48986.35
926.2678	1939.5868	49828.05	48937.8
926.4064	1941.2015	49439.45	48546.15
926.5449	1942.8154	49061	48171.4
926.6834	1944.4286	49101.05	48210.7
926.8219	1946.041	49022.3	48113.4
926.9604	1947.6528	48735.45	47841.4
927.0988	1949.2637	48556.9	47665.25
927.2372	1950.8739	48252.45	47362.15
927.3756	1952.4834	48395.1	47504.8
927.514	1954.0921	48248.4	47359
927.6523	1955.7001	47890.85	46996.1
927.7907	1957.3074	47946	47057.25
927.929	1958.9139	47527.15	46639.2
928.0673	1960.5197	47597.65	46706.2
928.2055	1962.1247	47372.2	46483.1
928.3438	1963.729	47097.2	46209.7
928.482	1965.3325	46882.6	45969.8
928.6202	1966.9353	46904.5	46016.35
928.7584	1968.5374	46568	45677.85
928.8965	1970.1387	46369.9	45481.4
929.0346	1971.7393	46337.55	45446.85
929.1727	1973.3392	46185.6	45297.4
929.3108	1974.9383	45959.1	45069.75
929.4489	1976.5366	45749.25	44858.9
929.5869	1978.1342	45769.65	44878.55
929.7249	1979.7311	45639.8	44750.05
929.8629	1981.3273	45496.2	44605.9
930.0009	1982.9227	45290.5	44400.3
930.1388	1984.5173	45196.4	44307.4
930.2767	1986.1112	44935.95	44048.35
930.4146	1987.7044	44946.95	44059.2
930.5525	1989.2968	44576.3	43686.35
930.6904	1990.8885	44675.2	43782.4
930.8282	1992.4795	44480	43589.35
930.966	1994.0697	44335.8	43446.75
931.1038	1995.6592	44185.1	43297.2
931.2415	1997.2479	44006.5	43117.05
931.3793	1998.8359	44001.8	43114.3
931.517	2000.4232	43728.35	42839.45
931.6547	2002.0097	43670.45	42784.4
931.7923	2003.5955	43426	42535.55
931.93	2005.1805	43373.6	42483.95
932.0676	2006.7648	43251.15	42363.65
932.2052	2008.3484	43126.65	42236.4
932.3427	2009.9312	43152.15	42261.05
932.4803	2011.5133	42939.85	42054.4
932.6178	2013.0946	42776.55	41888.3
932.7553	2014.6752	42671.7	41785.7
932.8928	2016.2551	42558.75	41669.85
933.0302	2017.8342	42352	41464.7
933.1676	2019.4126	42147.95	41259.8
933.305	2020.9902	42031.75	41143.9
933.4424	2022.5672	41902.95	41013.95
933.5798	2024.1433	41870.35	40976.95
933.7171	2025.7188	41737.5	40848.55
933.8544	2027.2935	41519.5	40629.35
933.9917	2028.8674	41402.9	40515.55
934.129	2030.4406	41259.5	40374.15
934.2662	2032.0131	41107.1	40220.55
934.4034	2033.5849	40967.15	40072.05
934.5406	2035.1559	40868.9	39981
934.6778	2036.7261	40857.1	39969.7
934.8149	2038.2957	40700.2	39812.65
934.952	2039.8645	40665.65	39775.1
935.0891	2041.4325	40600.85	39707.55
935.2262	2042.9998	40405.35	39514.1
935.3632	2044.5664	40235.75	39340.95
935.5002	2046.1323	40217.6	39323.1
935.6372	2047.6974	40056.3	39158.15
935.7742	2049.2617	39939	39037.4
935.9111	2050.8254	39978.7	39066.15
936.048	2052.3883	39793.8	38877.05
936.1849	2053.9504	39691.65	38768.2
936.3218	2055.5118	39531.95	38600.2
936.4586	2057.0725	39391.55	38448
936.5955	2058.6325	39303.75	38359.95
936.7323	2060.1917	39201.15	38252.55
936.869	2061.7502	39089.9	38134.8
937.0058	2063.3079	38973.55	38023.1
937.1425	2064.8649	38845.15	37892.15
937.2792	2066.4212	38738	37794
937.4159	2067.9767	38673.9	37740.85
937.5525	2069.5315	38485.65	37562.5
937.6891	2071.0856	38267.35	37354.85
937.8257	2072.6389	38097.05	37191.6
937.9623	2074.1915	37930.6	37034.35
938.0989	2075.7433	37722.5	36826.65
938.2354	2077.2945	37685.5	36795.9
938.3719	2078.8448	37506.65	36617.55
938.5084	2080.3945	37413.55	36523.6
938.6448	2081.9434	37344.35	36455.7
938.7812	2083.4916	37205.6	36314.15
938.9176	2085.039	37058.25	36165.75
939.054	2086.5857	36989.25	36098.5
939.1903	2088.1317	36959.6	36071.4
939.3267	2089.677	36824.05	35935.95
939.463	2091.2215	36726.05	35838.65
939.5992	2092.7652	36575.25	35682.85
939.7355	2094.3083	36544.9	35654.45
939.8717	2095.8506	36474.3	35584.85
940.0079	2097.3921	36400.15	35513.3
940.1441	2098.933	36302.65	35412.9
940.2802	2100.4731	36183.25	35295.05
940.4163	2102.0124	36128.9	35232.85
940.5524	2103.5511	36005.75	35117.3
940.6885	2105.089	35915.7	35027.45
940.8245	2106.6261	35843.7	34956.05
940.9606	2108.1626	35677.05	34788.55
941.0965	2109.6983	35644.5	34726.2
941.2325	2111.2332	35508.2	34618.35
941.3684	2112.7675	35451.4	34562.1
941.5044	2114.301	35339.95	34449.95
941.6403	2115.8337	35318.9	34430.95
941.7761	2117.3657	35226.05	34339.5
941.912	2118.897	35095.65	34208.15
942.0478	2120.4276	34959.3	34061.5
942.1835	2121.9575	34743.4	33854.35
942.3193	2123.4866	34799.25	33895.5
942.455	2125.0149	34683.05	33791.4
942.5907	2126.5426	34465.8	33579.75
942.7264	2128.0695	34413.9	33521.4
942.8621	2129.5956	34346.4	33459.3
942.9977	2131.1211	34302.6	33410.8
943.1333	2132.6458	34200.55	33311.2
943.2689	2134.1698	34140	33251.65
943.4044	2135.693	33995.4	33104.65
943.54	2137.2155	33951.2	33058.95
943.6755	2138.7373	33813.6	32925.95
943.8109	2140.2584	33735.65	32847.9
943.9464	2141.7787	33589.05	32696.45
944.0818	2143.2983	33502.6	32616
944.2172	2144.8171	33252.45	32367.05
944.3526	2146.3353	33176.3	32285.65
944.4879	2147.8527	33042.35	32154.45
944.6232	2149.3693	33065.9	32176.8
944.7585	2150.8853	32912.45	32021.45
944.8938	2152.4005	32702.55	31813.4
945.029	2153.9149	32711.25	31824.05
945.1642	2155.4287	32604.15	31715.25
945.2994	2156.9417	32491.1	31601
945.4346	2158.454	32404.9	31514.85
945.5697	2159.9655	32351.45	31463.2
945.7048	2161.4764	32301.85	31413.3
945.8399	2162.9865	32173.25	31283.4
945.9749	2164.4958	32064.25	31175.5
946.1099	2166.0045	31994.55	31101.85
946.2449	2167.5124	31915.75	31027
946.3799	2169.0195	31812.05	30923.9
946.5148	2170.526	31793.4	30905.35
946.6498	2172.0317	31688.55	30799.95
946.7846	2173.5367	31540.3	30653.6
946.9195	2175.0409	31470	30582.55
947.0543	2176.5445	31453	30565.45
947.1891	2178.0473	31309.45	30419.7
947.3239	2179.5494	31169.9	30278.3
947.4587	2181.0507	31096.55	30206.35
947.5934	2182.5513	30976.8	30087.25
947.7281	2184.0512	30928.75	30042.65
947.8628	2185.5504	30798.65	29908.6
947.9974	2187.0488	30586.95	29698.95
948.132	2188.5465	30520.6	29632.05
948.2666	2190.0435	30396.75	29506.7
948.4012	2191.5397	30270.2	29381.35
948.5357	2193.0353	30226.45	29337.05
948.6702	2194.5301	30037.1	29149.4
948.8047	2196.0241	29987.85	29099.35
948.9392	2197.5175	29890.6	28999.6
949.0736	2199.0101	29808.6	28916.15
949.208	2200.502	29603.55	28715.3
949.3424	2201.9931	29489.65	28602.6
949.4767	2203.4835	29364.3	28473.05
949.611	2204.9733	29335.65	28440.5
949.7453	2206.4622	29272.2	28384.1
949.8796	2207.9505	29168.65	28277
950.0138	2209.438	29024.15	28135.9
950.148	2210.9248	28972.5	28084.05
950.2822	2212.4109	28817.7	27931.45
950.4164	2213.8962	28690.7	27800.45
950.5505	2215.3809	28665.45	27776.2
950.6846	2216.8648	28594.15	27705.2
950.8186	2218.3479	28513.1	27618.4
950.9527	2219.8304	28411.15	27520.75
951.0867	2221.3121	28279.55	27390.95
951.2207	2222.7931	28171.9	27283.8
951.3546	2224.2733	28087.5	27199.05
951.4886	2225.7529	27973.3	27082.45
951.6225	2227.2317	27895.6	27005.3
951.7563	2228.7098	27817.7	26931.55
951.8902	2230.1872	27665.7	26776.9
952.024	2231.6638	27675.9	26787
952.1578	2233.1397	27526.35	26632.3
952.2916	2234.6149	27471.65	26583.3
952.4253	2236.0894	27324.95	26435.35
952.559	2237.5632	27252.2	26363.05
952.6927	2239.0362	27151.1	26262.15
952.8263	2240.5085	27093.2	26202.15
952.9599	2241.9801	27030.25	26141.7
953.0935	2243.4509	26925.25	26037.05
953.2271	2244.921	26841.35	25952.45
953.3606	2246.3904	26699	25806.25
953.4941	2247.8591	26621.8	25733.15
953.6276	2249.3271	26554.2	25666.25
953.7611	2250.7943	26420	25530.55
953.8945	2252.2608	26364.35	25475.6
954.0279	2253.7266	26293.15	25405.35
954.1612	2255.1917	26200.55	25310.7
954.2946	2256.656	26120.9	25231.1
954.4279	2258.1197	26048.75	25161.45
954.5612	2259.5826	25986.55	25095.3
954.6944	2261.0447	25943.85	25053.7
954.8276	2262.5062	25805.25	24913.8
954.9608	2263.9669	25737.85	24846.6
955.094	2265.4269	25717.6	24829.55
955.2271	2266.8862	25614.9	24727.1
955.3602	2268.3448	25546.35	24656.45
955.4933	2269.8026	25477.6	24588.2
955.6264	2271.2598	25373.75	24485.9
955.7594	2272.7162	25338.25	24450.5
955.8924	2274.1719	25230.75	24344.3
956.0253	2275.6268	25083.05	24194.75
956.1583	2277.0811	25054.1	24164.55
956.2912	2278.5346	25025.25	24136.65
956.4241	2279.9874	24934.05	24046.15
956.5569	2281.4395	24912.25	24024.2
956.6897	2282.8908	24783.9	23890.8
956.8225	2284.3414	24761.05	23871.6
956.9553	2285.7914	24621	23732.95
957.088	2287.2406	24557.25	23665.6
957.2207	2288.689	24513.9	23624.7
957.3534	2290.1368	24416.5	23527.2
957.486	2291.5838	24376.4	23485.2
957.6186	2293.0302	24278.1	23388.35
957.7512	2294.4758	24129.4	23240.45
957.8838	2295.9206	24033.05	23141.8
958.0163	2297.3648	23996.85	23108.5
958.1488	2298.8082	23943.75	23053.2
958.2813	2300.251	23900.95	23012.8
958.4137	2301.693	23796.2	22905.55
958.5461	2303.1343	23771.75	22881.9
958.6785	2304.5748	23657.7	22768.8
958.8108	2306.0147	23593.7	22704.6
958.9432	2307.4538	23529.15	22637.8
959.0754	2308.8922	23443.4	22555.4
959.2077	2310.3299	23362.85	22475.85
959.3399	2311.7669	23294.95	22407.1
959.4721	2313.2031	23222.55	22332.5
959.6043	2314.6387	23121.35	22233.2
959.7365	2316.0735	23106.4	22217.45
959.8686	2317.5076	22983.25	22093.8
960.0006	2318.941	22925	22036.8
960.1327	2320.3737	22843.15	21954.7
960.2647	2321.8056	22804.2	21915
960.3967	2323.2369	22695.15	21805.75
960.5287	2324.6674	22655.95	21766.8
960.6606	2326.0972	22542.35	21650.45
960.7925	2327.5263	22482.35	21594.6
960.9244	2328.9547	22444.9	21555.5
961.0562	2330.3823	22356.3	21467.35
961.1881	2331.8092	22336.5	21445.2
961.3198	2333.2355	22238.1	21349.9
961.4516	2334.661	22217.5	21329.15
961.5833	2336.0858	22151.35	21260.3
961.715	2337.5098	22039.15	21151.7
961.8467	2338.9332	22042	21150.55
961.9783	2340.3558	21930.85	21037.35
962.1099	2341.7778	21827.05	20939.1
962.2415	2343.199	21768	20877.9
962.373	2344.6195	21733.25	20846.85
962.5045	2346.0393	21652.75	20765.4
962.636	2347.4583	21630.65	20740.3
962.7675	2348.8767	21530.2	20640.55
962.8989	2350.2943	21469.55	20579.35
963.0303	2351.7113	21442.75	20552.2
963.1617	2353.1275	21314.6	20426.3
963.293	2354.543	21265	20368.75
963.4243	2355.9578	21207.45	20319.95
963.5556	2357.3718	21066.65	20177.7
963.6868	2358.7852	20992.75	20102.25
963.818	2360.1978	20938.7	20047.95
963.9492	2361.6098	20891.4	20001.95
964.0803	2363.021	20810.6	19918.7
964.2114	2364.4315	20758.75	19870.55
964.3425	2365.8413	20676.6	19787.15
964.4736	2367.2504	20644.5	19757.2
964.6046	2368.6587	20499.05	19611.2
964.7356	2370.0664	20453.45	19565.05
964.8666	2371.4733	20352.55	19464.4
964.9975	2372.8795	20328.25	19438.9
965.1284	2374.285	20227.15	19338.1
965.2593	2375.6899	20118.15	19230.75
965.3901	2377.0939	20046.75	19158.5
965.5209	2378.4973	19937.55	19049.75
965.6517	2379.9	19914.45	19025.5
965.7825	2381.3019	19855.8	18968.4
965.9132	2382.7032	19737.65	18849.85
966.0439	2384.1037	19718.25	18832.5
966.1745	2385.5035	19647.65	18759.65
966.3051	2386.9027	19577.25	18692
966.4357	2388.3011	19573.05	18683.1
966.5663	2389.6987	19486.95	18598
966.6968	2391.0957	19432	18543.7
966.8273	2392.492	19329.55	18440.6
966.9578	2393.8876	19195.55	18307.65
967.0882	2395.2824	19140.4	18251.7
967.2186	2396.6765	19079.45	18192.1
967.349	2398.07	19002.6	18114.9
967.4793	2399.4627	18964.05	18074.9
967.6097	2400.8547	18936.8	18048.75
967.7399	2402.246	18827.6	17934.3
967.8702	2403.6366	18741.75	17853.65
968.0004	2405.0265	18599.7	17712.8
968.1306	2406.4156	18605.75	17713.65
968.2607	2407.8041	18535.9	17643.9
968.3909	2409.1918	18457.8	17567.75
968.521	2410.5789	18398.7	17509.5
968.651	2411.9652	18308.4	17418.35
968.781	2413.3508	18285.1	17397.5
968.911	2414.7358	18143.7	17254.75
969.041	2416.12	18057.4	17170
969.1709	2417.5035	18053	17165.95
969.3008	2418.8863	17962.2	17074.65
969.4307	2420.2684	17913.1	17024.35
969.5606	2421.6497	17820.6	16931.45
969.6904	2423.0304	17703.1	16815.9
969.8201	2424.4104	17686.8	16800.5
969.9499	2425.7896	17599.3	16708.7
970.0796	2427.1682	17532.9	16644.4
970.2093	2428.546	17522.1	16632.5
970.3389	2429.9232	17495.95	16605.65
970.4685	2431.2996	17426.15	16537.85
970.5981	2432.6753	17394.15	16505.5
970.7277	2434.0503	17352.65	16464.65
970.8572	2435.4246	17226.5	16339.05
970.9867	2436.7982	17198.9	16307.8
971.1161	2438.1711	17167.65	16280.25
971.2456	2439.5433	17115.8	16226.9
971.375	2440.9148	17018.05	16124.05
971.5043	2442.2856	16887.15	15998.9
971.6336	2443.6557	16876.1	15986.45
971.7629	2445.025	16824.1	15933.8
971.8922	2446.3937	16820.2	15931.2
972.0214	2447.7617	16733.1	15845.7
972.1506	2449.1289	16694	15806.15
972.2798	2450.4955	16643.75	15754
972.4089	2451.8613	16601.9	15715.6
972.538	2453.2265	16539.6	15652.9
972.6671	2454.5909	16479.2	15590.3
972.7961	2455.9546	16447.5	15559.75
972.9251	2457.3177	16364.2	15476.4
973.0541	2458.68	16330.15	15440.35
973.1831	2460.0416	16290.7	15400.65
973.312	2461.4025	16279.55	15388.25
973.4408	2462.7627	16218.7	15320.6
973.5697	2464.1222	16156.7	15269.55
973.6985	2465.4811	16145.3	15258.85
973.8273	2466.8392	16047.05	15157.85
973.956	2468.1966	16011.95	15119.8
974.0847	2469.5533	15988.5	15098.25
974.2134	2470.9093	15940.35	15051.4
974.3421	2472.2645	15853.65	14962.95
974.4707	2473.6191	15816.55	14930.45
974.5993	2474.973	15723.05	14834.55
974.7278	2476.3262	15664	14776.7
974.8563	2477.6787	15621	14732.15
974.9848	2479.0305	15586.55	14699.5
975.1132	2480.3816	15542.7	14652.1
975.2417	2481.7319	15484.6	14596.45
975.37	2483.0816	15371.4	14481.35
975.4984	2484.4306	15351.15	14461.05
975.6267	2485.7789	15251.2	14363.6
975.755	2487.1264	15220.45	14332.55
975.8833	2488.4733	15172.3	14287.65
976.0115	2489.8195	15102.6	14208.45
976.1397	2491.165	15048.25	14154.7
976.2678	2492.5097	14982.45	14090.45
976.3959	2493.8538	14919.35	14032.6
976.524	2495.1972	14862.95	13973.7
976.6521	2496.5398	14768.55	13880.6
976.7801	2497.8818	14771.6	13883.35
976.9081	2499.2231	14695.9	13806.35
977.036	2500.5637	14634.45	13745.7
977.164	2501.9035	14605.65	13716.7
977.2918	2503.2427	14592.9	13702.1
977.4197	2504.5812	14522.3	13632.8
977.5475	2505.919	14469.75	13580.35
977.6753	2507.256	14467.15	13580.65
977.8031	2508.5924	14392.1	13503.25
977.9308	2509.9281	14335.85	13442.85
978.0585	2511.2631	14270.25	13384.15
978.1861	2512.5974	14228.95	13341.7
978.3137	2513.9309	14170.8	13282.85
978.4413	2515.2638	14134	13218.8
978.5689	2516.596	14085.4	13198.15
978.6964	2517.9275	14002.7	13111.9
978.8239	2519.2583	13966.2	13076.95
978.9513	2520.5884	13918	13028.2
979.0788	2521.9178	13873.05	12983.55
979.2062	2523.2465	13809.3	12922.35
979.3335	2524.5745	13715.15	12827.45
979.4608	2525.9018	13717.4	12828.7
979.5881	2527.2284	13683.4	12796
979.7154	2528.5543	13591.65	12705.95
979.8426	2529.8796	13608.85	12719.9
979.9698	2531.2041	13558.45	12670.5
980.0969	2532.5279	13553.1	12666.95
980.224	2533.851	13507.45	12618.7
980.3511	2535.1735	13462.65	12573.8
980.4781	2536.4952	13392.05	12504.6
980.6052	2537.8163	13410.3	12521.1
980.7321	2539.1366	13358.15	12471.3
980.8591	2540.4562	13287.95	12398.4
980.986	2541.7752	13286.95	12399.6
981.1129	2543.0935	13248.1	12360.2
981.2397	2544.411	13227.7	12338.4
981.3665	2545.7279	13198.6	12310.8
981.4933	2547.0441	13141.45	12254.35
981.62	2548.3596	13117.55	12228.05
981.7467	2549.6744	13110.2	12223.35
981.8734	2550.9885	13043.55	12146.35
982.0001	2552.3019	13019.1	12130.3
982.1267	2553.6146	12968.8	12080.1
982.2532	2554.9266	12920.5	12032.75
982.3798	2556.2379	12854.6	11963.95
982.5063	2557.5485	12877.65	11991.45
982.6327	2558.8585	12849.3	11954.65
982.7592	2560.1677	12837.4	11945.55
982.8856	2561.4762	12779.5	11890.15
983.0119	2562.7841	12746.05	11854.6
983.1383	2564.0913	12720.45	11833.35
983.2646	2565.3977	12690.45	11801.35
983.3908	2566.7035	12637.75	11750.25
983.517	2568.0086	12640.65	11751.1
983.6432	2569.313	12615.5	11726.1
983.7694	2570.6167	12565.5	11673.35
983.8955	2571.9197	12539.25	11651.05
984.0216	2573.222	12522.45	11631.4
984.1476	2574.5236	12477.15	11588.15
984.2737	2575.8246	12425.4	11533.55
984.3996	2577.1248	12402	11510.05
984.5256	2578.4244	12376.25	11488.55
984.6515	2579.7232	12372.7	11485.15
984.7774	2581.0214	12343.05	11430.5
984.9032	2582.3189	12290.6	11403.15
985.029	2583.6157	12292.45	11400.75
985.1548	2584.9118	12260.85	11372.5
985.2806	2586.2072	12221.6	11336.05
985.4063	2587.5019	12149.25	11262.05
985.5319	2588.7959	12151.7	11263.65
985.6576	2590.0893	12135.95	11246.65
985.7832	2591.3819	12069.9	11182.7
985.9087	2592.6739	12018.75	11130.8
986.0343	2593.9652	12007	11117.15
986.1597	2595.2557	11951.8	11064.55
986.2852	2596.5456	11875.6	10986.45
986.4106	2597.8348	11872	10985.4
986.536	2599.1234	11799.55	10911.6
986.6614	2600.4112	11783.45	10893.3
986.7867	2601.6983	11747.9	10857.7
986.912	2602.9848	11718.9	10828.35
987.0372	2604.2705	11635.5	10740.6
987.1624	2605.5556	11619.75	10730.2
987.2876	2606.84	11561.25	10674.55
987.4128	2608.1237	11508.55	10620
987.5379	2609.4067	11457.85	10570.1
987.6629	2610.689	11442.95	10547.45
987.788	2611.9707	11386.2	10494.7
987.913	2613.2516	11368.4	10476.3
988.0379	2614.5319	11291.1	10404.5
988.1629	2615.8115	11240.85	10351.9
988.2878	2617.0903	11207.25	10318.4
988.4126	2618.3685	11179.3	10292.2
988.5375	2619.6461	11140.05	10253.75
988.6622	2620.9229	11096.5	10208.2
988.787	2622.199	11061.4	10172.85
988.9117	2623.4745	11031.5	10143
989.0364	2624.7493	10993.1	10107.1
989.161	2626.0234	10933.5	10045.8
989.2857	2627.2968	10929.3	10042.75
989.4102	2628.5695	10873.75	9984.85
989.5348	2629.8415	10788.55	9899.9
989.6593	2631.1128	10739.35	9850.15
989.7837	2632.3835	10695.1	9807.25
989.9082	2633.6535	10698	9810.7
990.0326	2634.9228	10630.7	9742.05
990.1569	2636.1914	10607.9	9719.85
990.2812	2637.4593	10584.25	9691.5
990.4055	2638.7265	10507.2	9619.45
990.5298	2639.9931	10501.95	9613.85
990.654	2641.259	10459.55	9571.05
990.7782	2642.5242	10437.45	9549.85
990.9023	2643.7887	10402.4	9512.35
991.0264	2645.0525	10374.95	9487.5
991.1505	2646.3156	10309.9	9421.25
991.2745	2647.5781	10305.6	9417.45
991.3985	2648.8398	10274.1	9386.85
991.5225	2650.1009	10247.8	9324.8
991.6464	2651.3613	10215.6	9328
991.7703	2652.6211	10176.05	9287.9
991.8942	2653.8801	10168	9281.2
992.018	2655.1385	10123.5	9233.35
992.1418	2656.3961	10080.7	9192.35
992.2655	2657.6531	10091.4	9204.5
992.3892	2658.9094	10046.5	9156.85
992.5129	2660.1651	10015.95	9128.05
992.6366	2661.42	9967.55	9079.15
992.7602	2662.6743	9934.4	9045.45
992.8837	2663.9279	9927.4	9039.85
993.0073	2665.1808	9899.35	9012.85
993.1307	2666.433	9852.55	8963.05
993.2542	2667.6846	9830.45	8944.8
993.3776	2668.9354	9814.95	8923.2
993.501	2670.1856	9744.25	8855.1
993.6244	2671.4351	9742.3	8854.05
993.7477	2672.6839	9721.2	8830
993.8709	2673.9321	9695.5	8808.65
993.9942	2675.1795	9655.65	8767.4
994.1174	2676.4263	9634.6	8745.55
994.2405	2677.6724	9613	8726.5
994.3637	2678.9179	9566.55	8678.65
994.4868	2680.1626	9546.8	8660.75
994.6098	2681.4067	9505.35	8616.65
994.7328	2682.6501	9513.9	8625.05
994.8558	2683.8928	9465.95	8577.35
994.9788	2685.1348	9413.8	8527.9
995.1017	2686.3761	9373.9	8487.65
995.2245	2687.6168	9342.2	8456.85
995.3474	2688.8568	9296.45	8408.5
995.4702	2690.0961	9287.35	8399.45
995.5929	2691.3348	9264.1	8374.6
995.7156	2692.5727	9245.1	8357
995.8383	2693.81	9187.85	8301.8
995.961	2695.0466	9154.1	8266.55
996.0836	2696.2826	9156.3	8266.85
996.2062	2697.5178	9131.95	8243.7
996.3287	2698.7524	9098.5	8210.95
996.4512	2699.9863	9081.2	8191.95
996.5737	2701.2195	9032.55	8144.75
996.6961	2702.452	8988.2	8098.3
996.8185	2703.6839	8980.8	8091.7
996.9408	2704.9151	8954.15	8066.95
997.0631	2706.1456	8915.55	8027.25
997.1854	2707.3755	8847.85	7957.6
997.3077	2708.6046	8857.9	7965.25
997.4299	2709.8331	8833.1	7944.2
997.552	2711.0609	8797.2	7908.3
997.6742	2712.2881	8785.9	7898.3
997.7963	2713.5145	8755.55	7865.15
997.9183	2714.7403	8725.55	7839
998.0403	2715.9654	8690.7	7802.85
998.1623	2717.1899	8685.9	7797.15
998.2842	2718.4136	8661.85	7774.95
998.4062	2719.6367	8628.05	7739.05
998.528	2720.8591	8634.45	7739.95
998.6498	2722.0809	8567.5	7679.35
998.7716	2723.3019	8554.4	7664.65
998.8934	2724.5223	8541.75	7654.85
999.0151	2725.7421	8501.8	7612.15
999.1368	2726.9611	8493.2	7603.05
999.2584	2728.1795	8451.05	7558.95
999.38	2729.3972	8422.55	7534.4
999.5016	2730.6142	8375.95	7482.7
999.6231	2731.8306	8316.4	7428.25
999.7446	2733.0462	8307.75	7419.3
999.8661	2734.2612	8265.25	7371.95
999.9875	2735.4756	8208.2	7317.85
1000.1089	2736.6892	8166.85	7279.25
1000.2302	2737.9022	8104.55	7218.2
1000.3515	2739.1145	8072.6	7183.8
1000.4728	2740.3262	8049.7	7156.35
1000.594	2741.5372	7986.6	7100.15
1000.7152	2742.7475	7969.15	7080.55
1000.8363	2743.9571	7937.45	7050.45
1000.9575	2745.1661	7903.45	7011.35
1001.0785	2746.3744	7872.6	6985.7
1001.1996	2747.582	7861.25	6975.1
1001.3206	2748.7889	7834.95	6943.8
1001.4415	2749.9952	7797.1	6911.1
1001.5625	2751.2008	7752.15	6865.9
1001.6833	2752.4057	7712.7	6822.65
1001.8042	2753.61	7693.2	6803.8
1001.925	2754.8136	7676.6	6784.65
1002.0458	2756.0165	7630.95	6742.85
1002.1665	2757.2188	7629.1	6743.55
1002.2872	2758.4204	7604.9	6717.25
1002.4078	2759.6213	7558.2	6669.8
1002.5285	2760.8215	7578.05	6686.65
1002.649	2762.0211	7514.9	6623.25
1002.7696	2763.22	7495.35	6604.1
1002.8901	2764.4182	7480.8	6591
1003.0106	2765.6158	7459.2	6571.35
1003.131	2766.8127	7443.8	6556.35
1003.2514	2768.009	7402.5	6515.8
1003.3717	2769.2045	7360.65	6472.95
1003.492	2770.3994	7350.1	6460.35
1003.6123	2771.5936	7312.15	6421.4
1003.7325	2772.7872	7281.3	6394.6
1003.8527	2773.9801	7243.25	6354.55
1003.9729	2775.1723	7244.45	6341.65
1004.093	2776.3639	7210.7	6324.05
1004.2131	2777.5548	7189.15	6301.75
1004.3331	2778.745	7164.55	6274.7
1004.4531	2779.9346	7141.45	6254.75
1004.5731	2781.1235	7139.7	6252.05
1004.693	2782.3117	7106.3	6219.1
1004.8129	2783.4992	7061.95	6174.85
1004.9328	2784.6861	7053.7	6165.8
1005.0526	2785.8723	7041.5	6153.8
1005.1723	2787.0579	7029.65	6142.5
1005.2921	2788.2428	6997.85	6110
1005.4118	2789.427	6974.75	6087.1
1005.5314	2790.6106	6952.1	6063.95
1005.651	2791.7935	6923.55	6037.85
1005.7706	2792.9757	6909.45	6020.8
1005.8902	2794.1573	6869.7	5982.1
1006.0097	2795.3382	6859.7	5973.1
1006.1291	2796.5184	6853.65	5966.9
1006.2485	2797.698	6827.75	5939.05
1006.3679	2798.8769	6824.95	5936.25
1006.4873	2800.0551	6816.6	5929.55
1006.6066	2801.2327	6786.7	5896.15
1006.7258	2802.4096	6758.05	5871.55
1006.8451	2803.5859	6750.45	5861.9
1006.9642	2804.7615	6738.55	5850.8
1007.0834	2805.9364	6734.45	5848.7
1007.2025	2807.1106	6730.7	5843.55
1007.3216	2808.2842	6731.15	5842.95
1007.4406	2809.4572	6719.8	5831.65
1007.5596	2810.6294	6731.55	5844.45
1007.6785	2811.801	6761.45	5875.8
1007.7975	2812.972	6764.8	5877.95
1007.9163	2814.1423	6791	5904.8
1008.0352	2815.3119	6804.05	5917.8
1008.154	2816.4808	6808.8	5920.65
1008.2727	2817.6491	6845.9	5957.8
1008.3914	2818.8167	6866.45	5979.8
1008.5101	2819.9837	6910.5	6018.65
1008.6288	2821.15	6912.45	6025.75
1008.7474	2822.3157	6907.3	6021.35
1008.8659	2823.4807	6960.8	6074.65
1008.9844	2824.645	6999.15	6111.3
1009.1029	2825.8086	7003.45	6118.1
1009.2214	2826.9716	7033.65	6146.2
1009.3398	2828.134	7059.95	6172.8
1009.4581	2829.2957	7108.25	6220.65
1009.5764	2830.4567	7113.25	6226.35
1009.6947	2831.617	7116.2	6228.45
1009.813	2832.7767	7109.35	6222.15
1009.9312	2833.9358	7080.75	6193.45
1010.0493	2835.0941	7058	6168.1
1010.1675	2836.2519	7050.55	6165.25
1010.2855	2837.4089	7019.9	6132.25
1010.4036	2838.5653	6998.6	6112.35
1010.5216	2839.7211	6972	6086.95
1010.6396	2840.8761	6951.65	6061.45
1010.7575	2842.0306	6948.3	6061.9
1010.8754	2843.1843	6943.3	6057.6
1010.9932	2844.3374	6977.85	6091.65
1011.111	2845.4899	7017.7	6130.1
1011.2288	2846.6417	7038.45	6152.3
1011.3465	2847.7928	7047.8	6161.2
1011.4642	2848.9433	7103	6215.2
1011.5818	2850.0931	7143.75	6255.7
1011.6995	2851.2422	7196.45	6306.85
1011.817	2852.3907	7239.35	6351.5
1011.9345	2853.5385	7273.45	6385.9
1012.052	2854.6857	7290.3	6393.7
1012.1695	2855.8323	7282.95	6397.7
1012.2869	2856.9781	7306.5	6420.05
1012.4042	2858.1233	7320.45	6432.05
1012.5216	2859.2679	7344.25	6459.65
1012.6389	2860.4118	7394.3	6507.55
1012.7561	2861.555	7383.5	6491.65
1012.8733	2862.6976	7406.25	6516.6
1012.9905	2863.8395	7427.7	6539.75
1013.1076	2864.9808	7431	6544.8
1013.2247	2866.1214	7428.75	6543.15
1013.3417	2867.2614	7415.9	6527.95
1013.4587	2868.4007	7435.65	6549
1013.5757	2869.5393	7398	6509.8
1013.6926	2870.6773	7411.3	6522.3
1013.8095	2871.8146	7382.9	6494.45
1013.9263	2872.9513	7390.75	6503.45
1014.0431	2874.0874	7336.75	6450.35
1014.1599	2875.2227	7295.8	6407.35
1014.2766	2876.3574	7282.9	6396.6
1014.3933	2877.4915	7235.15	6347.4
1014.51	2878.6249	7193.55	6307
1014.6266	2879.7577	7161.85	6272.9
1014.7431	2880.8898	7129.15	6230.8
1014.8596	2882.0212	7093.25	6206.25
1014.9761	2883.152	7061.3	6173.9
1015.0925	2884.2821	7046.85	6162.15
1015.2089	2885.4116	7011.85	6126.7
1015.3253	2886.5405	6991.9	6104.55
1015.4416	2887.6686	7001.3	6110.6
1015.5579	2888.7962	6957.2	6071.05
1015.6741	2889.923	6933.7	6047.1
1015.7903	2891.0493	6925.3	6039.95
1015.9065	2892.1748	6926.95	6041.3
1016.0226	2893.2997	6899.7	6010.8
1016.1387	2894.424	6901.3	6016.65
1016.2547	2895.5476	6896.7	6009.55
1016.3707	2896.6706	6918.1	6034.45
1016.4866	2897.7929	6902.85	6014.25
1016.6025	2898.9145	6888.55	6001.8
1016.7184	2900.0355	6894.4	6006.3
1016.8342	2901.1559	6891.45	6002.45
1016.95	2902.2756	6911.05	6024
1017.0658	2903.3946	6920	6033.7
1017.1815	2904.513	6938.65	6048.95
1017.2971	2905.6308	6914.9	6027.85
1017.4127	2906.7479	6910.85	6024.3
1017.5283	2907.8643	6929.8	6041.05
1017.6439	2908.9801	6926.4	6040
1017.7594	2910.0953	6907.65	6022.15
1017.8748	2911.2098	6886.8	5997.45
1017.9902	2912.3236	6876.15	5981.45
1018.1056	2913.4368	6833.8	5944.15
1018.2209	2914.5494	6800.55	5914
1018.3362	2915.6613	6778.45	5884.25
1018.4515	2916.7725	6742.65	5852.5
1018.5667	2917.8831	6715.6	5827.25
1018.6819	2918.9931	6669.7	5779.85
1018.797	2920.1024	6617.6	5729.15
1018.9121	2921.211	6569.35	5682.3
1019.0271	2922.319	6554.35	5667.95
1019.1421	2923.4264	6535.2	5648.6
1019.2571	2924.5331	6514.45	5629.55
1019.372	2925.6391	6495.2	5609.55
1019.4869	2926.7445	6446.95	5560.7
1019.6017	2927.8493	6453	5566.5
1019.7165	2928.9534	6437	5551.1
1019.8313	2930.0569	6433.3	5544.1
1019.946	2931.1597	6426.9	5538.95
1020.0606	2932.2619	6419.35	5532.05
1020.1753	2933.3634	6419.9	5534.1
1020.2899	2934.4643	6393.6	5499.5
1020.4044	2935.5645	6361.4	5469.4
1020.5189	2936.6641	6340.7	5448.5
1020.6334	2937.763	6279.6	5394.85
1020.7478	2938.8613	6240.1	5352.3
1020.8622	2939.959	6186.05	5293.95
1020.9765	2941.056	6105.9	5218.75
1021.0908	2942.1523	6042.65	5154.4
1021.2051	2943.248	5976.6	5088.1
1021.3193	2944.3431	5869.1	4983.5
1021.4334	2945.4375	5779.35	4892.85
1021.5476	2946.5313	5660.9	4774.4
1021.6617	2947.6244	5556.2	4668.85
1021.7757	2948.7169	5473.85	4583.1
1021.8897	2949.8087	5403.65	4516.4
1022.0037	2950.8999	5293.75	4406.95
1022.1176	2951.9904	5215.35	4328.65
1022.2315	2953.0803	5154.3	4266.2
1022.3453	2954.1696	5080.95	4194.3
1022.4591	2955.2582	5030.65	4144.15
1022.5728	2956.3462	4981.9	4095.95
1022.6865	2957.4335	4921	4033.4
1022.8002	2958.5202	4881.25	3994.1
1022.9138	2959.6062	4841.5	3955.5
1023.0274	2960.6916	4823.95	3938.25
1023.141	2961.7764	4772.45	3883.3
1023.2545	2962.8605	4756.85	3868.45
1023.3679	2963.9439	4722.2	3834.6
1023.4813	2965.0267	4693.9	3806.45
1023.5947	2966.1089	4696.6	3784.9
1023.708	2967.1905	4686.45	3800.1
1023.8213	2968.2714	4643.65	3756.25
1023.9346	2969.3516	4633.45	3746.9
1024.0478	2970.4312	4607.5	3713.05
1024.1609	2971.5102	4598.15	3711.5
1024.274	2972.5885	4601.25	3713.25
1024.3871	2973.6662	4589.2	3696.8
1024.5002	2974.7432	4566.05	3680.75
1024.6132	2975.8196	4546.35	3659.05
1024.7261	2976.8954	4524.25	3638.6
1024.839	2977.9705	4505	3619.05
1024.9519	2979.045	4500.3	3614.4
1025.0647	2980.1188	4480.4	3596.5
1025.1775	2981.192	4433.75	3548
1025.2902	2982.2645	4407	3520.2
1025.4029	2983.3364	4377.4	3490.8
1025.5156	2984.4077	4338.45	3451.7
1025.6282	2985.4783	4323.9	3432.45
1025.7407	2986.5483	4270.9	3383.65
1025.8532	2987.6177	4237.7	3353.3
1025.9657	2988.6864	4203.15	3313.8
1026.0782	2989.7545	4178.3	3290.75
1026.1906	2990.8219	4127.1	3242.05
1026.3029	2991.8887	4085.9	3199.25
1026.4152	2992.9548	4054.05	3167.9
1026.5275	2994.0204	4011.8	3123.65
1026.6397	2995.0852	3984.75	3097.2
1026.7519	2996.1495	3951.7	3064.95
1026.864	2997.2131	3913.85	3028.5
1026.9761	2998.276	3902.35	3015.45
1027.0882	2999.3383	3871.05	2984.6
1027.2002	3000.4	3829.7	2943.25
1027.3122	3001.4611	3821	2933.4
1027.4241	3002.5215	3795.95	2908.2
1027.536	3003.5812	3765.95	2880.85
1027.6478	3004.6404	3747.15	2860.1
1027.7596	3005.6989	3725.65	2836.9
1027.8714	3006.7567	3718.45	2831.6
1027.9831	3007.8139	3711.25	2799.5
1028.0947	3008.8705	3672.3	2785.05
1028.2064	3009.9264	3662.35	2772.7
1028.3179	3010.9818	3635.3	2749.2
1028.4295	3012.0364	3631.3	2746.65
1028.541	3013.0905	3621.15	2734.95
1028.6524	3014.1439	3583	2695.5
1028.7638	3015.1966	3586.15	2700.5
1028.8752	3016.2487	3577.7	2693.1
1028.9865	3017.3002	3555.75	2665.9
1029.0978	3018.3511	3552.05	2664.95
1029.209	3019.4013	3545	2656.85
1029.3202	3020.4509	3524.55	2639.8
1029.4314	3021.4998	3515.3	2628.35
1029.5425	3022.5481	3528.8	2642.45
1029.6535	3023.5958	3502.3	2616.85
1029.7645	3024.6428	3493.75	2605.3
1029.8755	3025.6892	3476	2591.85
1029.9864	3026.735	3448.9	2562.7
1030.0973	3027.7802	3459.45	2573.1
1030.2082	3028.8247	3449.3	2562.6
1030.319	3029.8685	3422.9	2535.05
1030.4297	3030.9118	3421.25	2536.4
1030.5404	3031.9544	3410.65	2524.15
1030.6511	3032.9963	3415	2530.25
1030.7617	3034.0376	3395.35	2508.05
1030.8723	3035.0783	3396.65	2507.7
1030.9829	3036.1184	3390.15	2502.55
1031.0934	3037.1578	3385.95	2500.35
1031.2038	3038.1966	3368.7	2480.3
1031.3142	3039.2348	3362.05	2478.2
1031.4246	3040.2723	3364.75	2470.1
1031.5349	3041.3092	3336.85	2452.9
1031.6452	3042.3455	3331.65	2445.85
1031.7554	3043.3811	3316.45	2429.5
1031.8656	3044.4161	3307.95	2420.35
1031.9758	3045.4505	3294.9	2409.25
1032.0859	3046.4842	3293.9	2406.35
1032.1959	3047.5173	3266.15	2381.95
1032.3059	3048.5498	3264.05	2378.2
1032.4159	3049.5816	3247.8	2360.8
1032.5258	3050.6128	3240.9	2352.45
1032.6357	3051.6434	3241.1	2354.7
1032.7455	3052.6734	3213.25	2326
1032.8553	3053.7027	3214.7	2329.5
1032.9651	3054.7314	3211.3	2325.6
1033.0748	3055.7594	3186.35	2300.35
1033.1845	3056.7868	3179.75	2291.75
1033.2941	3057.8136	3157.15	2272.25
1033.4037	3058.8398	3147.45	2260.6
1033.5132	3059.8653	3137.8	2250.35
1033.6227	3060.8902	3123.1	2237.55
1033.7321	3061.9145	3117.45	2228.8
1033.8415	3062.9381	3103.55	2217.35
1033.9509	3063.9612	3104.55	2203.8
1034.0602	3064.9835	3091.05	2204
1034.1694	3066.0053	3075.4	2186.9
1034.2787	3067.0264	3055.55	2171.2
1034.3878	3068.0469	3053.75	2168
1034.497	3069.0668	3040.45	2149.3
1034.6061	3070.086	3032.75	2147.1
1034.7151	3071.1046	3019.2	2130.55
1034.8241	3072.1226	3003.75	2115.55
1034.9331	3073.1399	2986.2	2099.4
1035.042	3074.1567	2983.45	2097.3
1035.1508	3075.1727	2962.5	2074.3
1035.2597	3076.1882	2945	2058.35
1035.3684	3077.203	2924.8	2039.5
1035.4772	3078.2173	2920.25	2032.05
1035.5859	3079.2308	2909.9	2019.9
1035.6945	3080.2438	2899.7	2010.8
1035.8031	3081.2561	2884.65	1998.05
1035.9117	3082.2678	2872.05	1986.9
1036.0202	3083.2789	2854.75	1969.2
1036.1286	3084.2893	2851.85	1964.45
1036.2371	3085.2991	2833.6	1947.9
1036.3454	3086.3083	2827.45	1937.6
1036.4538	3087.3169	2817.8	1929.15
1036.562	3088.3248	2798.15	1910.95
1036.6703	3089.3321	2787.35	1900.25
1036.7785	3090.3388	2775.5	1891.8
1036.8866	3091.3449	2759.65	1872.7
1036.9948	3092.3503	2748.55	1859.65
1037.1028	3093.3551	2739	1854.5
1037.2108	3094.3593	2736.6	1849.8
1037.3188	3095.3629	2724.6	1839
1037.4267	3096.3658	2725.4	1838.05
1037.5346	3097.3681	2698.05	1812.25
1037.6425	3098.3698	2703	1814.7
1037.7503	3099.3708	2689.3	1796.2
1037.858	3100.3713	2662.25	1777.05
1037.9657	3101.3711	2660.55	1774.1
1038.0734	3102.3702	2754.85	1733.45
1038.181	3103.3688	2655.35	1768.35
1038.2886	3104.3667	2622.7	1736.65
1038.3961	3105.364	2618.35	1732.05
1038.5036	3106.3607	2597.5	1709.95
1038.611	3107.3568	2592.2	1703.6
1038.7184	3108.3522	2577.7	1691.75
1038.8257	3109.347	2582.05	1696.2
1038.933	3110.3412	2573.9	1683.35
1039.0403	3111.3348	2555.6	1668.15
1039.1475	3112.3277	2544.75	1657.7
1039.2547	3113.32	2525.1	1638.45
1039.3618	3114.3117	2516.85	1632.3
1039.4689	3115.3028	2518.7	1633.05
1039.5759	3116.2932	2501.05	1613.3
1039.6829	3117.2831	2495.45	1602.7
1039.7898	3118.2723	2482	1595
1039.8967	3119.2608	2468.1	1581.5
1040.0035	3120.2488	2473.4	1588.45
1040.1103	3121.2361	2452	1566
1040.2171	3122.2229	2451.4	1565.15
1040.3238	3123.209	2438	1552.25
1040.4305	3124.1944	2441.25	1555.15
1040.5371	3125.1793	2434.1	1546.4
1040.6437	3126.1635	2423.7	1537.65
1040.7502	3127.1471	2400.3	1513.7
1040.8567	3128.1301	2393.5	1508.55
1040.9631	3129.1125	2409.75	1523.35
1041.0695	3130.0942	2399.6	1514.3
1041.1759	3131.0753	2382.6	1487.7
1041.2822	3132.0558	2380.45	1492.8
1041.3884	3133.0357	2359.5	1474.35
1041.4946	3134.015	2361.6	1473.9
1041.6008	3134.9936	2342.8	1455.6
1041.7069	3135.9716	2365.75	1459
1041.813	3136.949	2343.6	1458.1
1041.919	3137.9258	2341.55	1450.65
1042.025	3138.902	2330.4	1436.6
1042.1309	3139.8775	2336.55	1450.65
1042.2368	3140.8524	2319.1	1433.45
1042.3427	3141.8267	2306.25	1417.1
1042.4485	3142.8004	2310.8	1423.55
1042.5542	3143.7735	2286.45	1394.95
1042.6599	3144.7459	2297.15	1408.6
1042.7656	3145.7178	2297.4	1408.75
1042.8712	3146.689	2282.65	1397
1042.9768	3147.6596	2271.35	1384.1
1043.0823	3148.6295	2255.95	1369.35
1043.1878	3149.5989	2250.05	1363.4
1043.2932	3150.5676	2253.8	1369.05
1043.3986	3151.5357	2232.75	1346.4
1043.5039	3152.5032	2230.1	1345.35
1043.6092	3153.4701	2211.75	1324.5
1043.7145	3154.4364	2217.8	1330
1043.8197	3155.402	2204.4	1318.45
1043.9248	3156.367	2203.4	1316.05
1044.03	3157.3315	2232.3	1303.35
1044.135	3158.2952	2185.15	1298.5
1044.24	3159.2584	2182.65	1296.5
1044.345	3160.221	2165.65	1279.6
1044.4499	3161.1829	2168.15	1280.8
1044.5548	3162.1442	2154.9	1269.6
1044.6596	3163.105	2148.75	1264.6
1044.7644	3164.065	2140.55	1254.2
1044.8692	3165.0245	2140.3	1251.75
1044.9739	3165.9834	2126.1	1240.25
1045.0785	3166.9416	2119.4	1233.7
1045.1831	3167.8993	2127.3	1238.35
1045.2877	3168.8563	2106.7	1221.55
1045.3922	3169.8127	2096.35	1212.55
1045.4966	3170.7684	2091.6	1204.85
1045.6011	3171.7236	2095.1	1208.6
1045.7054	3172.6782	2077.5	1190.65
1045.8098	3173.6321	2079.45	1193.15
1045.914	3174.5854	2065.35	1174.5
1046.0183	3175.5381	2060.45	1171.75
1046.1224	3176.4902	2057	1171.65
1046.2266	3177.4417	2043.65	1157.3
1046.3307	3178.3926	2050.8	1166.15
1046.4347	3179.3428	2033.3	1147.85
1046.5387	3180.2924	2028.15	1141.3
1046.6427	3181.2415	2019.65	1133.95
1046.7466	3182.1899	2018.75	1132.3
1046.8504	3183.1377	2013.05	1127.05
1046.9542	3184.0848	2010.75	1121.6
1047.058	3185.0314	1996.45	1109.95
1047.1617	3185.9773	1998	1110.6
1047.2654	3186.9227	1984.7	1101.1
1047.369	3187.8674	1971.7	1084.8
1047.4726	3188.8115	1973.4	1083.35
1047.5761	3189.755	1972.65	1086.6
1047.6796	3190.6979	1965.9	1081.85
1047.783	3191.6402	1952.15	1066.9
1047.8864	3192.5818	1967.05	1080.4
1047.9898	3193.5229	1966.85	1065.1
1048.0931	3194.4633	1946.1	1058.6
1048.1963	3195.4031	1943.7	1058.25
1048.2995	3196.3423	1928	1042.2
1048.4027	3197.2809	1931.8	1046.8
1048.5058	3198.2189	1924.35	1036.65
1048.6089	3199.1563	1929.35	1027.4
1048.7119	3200.0931	1908.15	1022.95
1048.8148	3201.0292	1911	1025.95
1048.9178	3201.9648	1900.35	1014.2
1049.0206	3202.8997	1891.75	1003.4
1049.1235	3203.834	1898.75	1012
1049.2262	3204.7677	1882.5	996.9
1049.329	3205.7008	1887.5	1000.3
1049.4317	3206.6333	1870.3	985.7
1049.5343	3207.5652	1873.3	985.2
1049.6369	3208.4964	1866.1	980.5
1049.7394	3209.4271	1862.45	977.8
1049.8419	3210.3571	1856.2	969.1
1049.9444	3211.2865	1851.4	964.9
1050.0468	3212.2154	1850.05	961.7
1050.1491	3213.1436	1838.65	951.5
1050.2514	3214.0712	1844.1	951.45
1050.3537	3214.9982	1827.75	942.45
1050.4559	3215.9246	1818.8	933
1050.5581	3216.8503	1817.25	931.95
1050.6602	3217.7755	1818.45	931.7
1050.7623	3218.7001	1817.5	930.5
1050.8643	3219.624	1809.6	922.8
1050.9663	3220.5473	1806.75	919.85
1051.0682	3221.4701	1804.1	917.1
1051.1701	3222.3922	1794.5	907.35
1051.2719	3223.3137	1793.55	906.3
1051.3737	3224.2346	1779.65	892.95
1051.4754	3225.1549	1776.1	891.3
1051.5771	3226.0746	1772.9	887.2
1051.6788	3226.9937	1769.2	883.1
1051.7804	3227.9121	1766.7	879.85
1051.8819	3228.83	1757.25	872.65
1051.9834	3229.7473	1758.2	871.85
1052.0849	3230.6639	1752.3	866.4
1052.1863	3231.5799	1744.95	858.45
1052.2876	3232.4954	1731.7	843.45
1052.3889	3233.4102	1728.8	842.15
1052.4902	3234.3244	1732.8	846.6
1052.5914	3235.238	1716	830.25
1052.6926	3236.151	1742.35	832.35
1052.7937	3237.0634	1719.1	834.85
1052.8948	3237.9752	1701.15	815
1052.9958	3238.8864	1707.2	821.3
1053.0968	3239.797	1699.65	812.75
1053.1977	3240.7069	1696.1	809.55
1053.2986	3241.6163	1693.7	805.2
1053.3994	3242.5251	1676	790.65
1053.5002	3243.4332	1676	790.95
1053.6009	3244.3408	1677	789.4
1053.7016	3245.2477	1662.2	776.45
1053.8022	3246.154	1666.1	779.35
1053.9028	3247.0598	1667.45	783.15
1054.0034	3247.9649	1648.55	763.65
1054.1039	3248.8694	1651.25	764
1054.2043	3249.7733	1647.05	760.8
1054.3047	3250.6766	1629	741.2
1054.4051	3251.5793	1636.6	749.8
1054.5054	3252.4814	1627.65	740.4
1054.6056	3253.3829	1626.7	741.05
1054.7058	3254.2838	1618.75	733.6
1054.806	3255.1841	1619	734.65
1054.9061	3256.0838	1610.55	724.05
1055.0061	3256.9829	1599.4	714.5
1055.1062	3257.8814	1601	711.05
1055.2061	3258.7792	1592.3	706.05
1055.306	3259.6765	1589.9	700.95
1055.4059	3260.5731	1584.1	696.9
1055.5057	3261.4692	1569.55	682.55
1055.6055	3262.3647	1560.3	672.15
1055.7052	3263.2595	1560.4	674.9
1055.8049	3264.1538	1545	661.4
1055.9045	3265.0474	1537	650.35
1056.0041	3265.9404	1524.75	640.4
1056.1036	3266.8329	1512.85	625.5
1056.2031	3267.7247	1511.85	616.5
1056.3025	3268.616	1484.05	596.45
1056.4019	3269.5066	1465.7	579.8
1056.5013	3270.3966	1454.1	566.8
1056.6005	3271.286	1436.8	551.75
