Software Version:	3.9.2.0
Unit SN:	10000200
Spectrometer SN:	6960
Date:	3/6/2024 10:52:47 AM
Data Line Index:	25
Spectral Points:	2048
Integration time (ms):	125
Averages:	20
Delay (ms):	30
Sequence Number:	1
Processing:	dark subtract
Laser Power (mW):	295
Laser Current (mA):	823
Laser Diode Temp (C):	25
Laser Case Temp (C):	27.8
System Temp (C):	27.5
Spectrometer Temp (C):	25.1
CCD Temp (C):	0.002
Secondary Temp (C):	20.01
Heatsink Temp (C):	23.257
CCDPCB Temp (C):	36.629
SecondaryPCB Temp (C):	34.551

Wavelength	RamanShift	Raw Counts	Dark Subtracted
787.061	30.1047	1119	706.2
787.2016	32.3739	1145.2	734.05
787.3422	34.6426	1190.1	777.7
787.4828	36.9109	1239.75	824.55
787.6235	39.1787	1303.3	884.85
787.7642	41.4461	1360.2	937.85
787.9049	43.7131	1408.8	981.45
788.0456	45.9796	1471.05	1040.5
788.1863	48.2456	1554.25	1122.85
788.3271	50.5112	1629.8	1192.2
788.4679	52.7764	1694.5	1254.65
788.6087	55.0411	1761.15	1317.4
788.7496	57.3054	1843.7	1395
788.8904	59.5692	1944.45	1492.25
789.0313	61.8326	2051.3	1594.95
789.1722	64.0955	2151.8	1692.25
789.3132	66.3579	2267.85	1802.15
789.4541	68.6199	2429.9	1962.25
789.5951	70.8815	2670.6	2198.05
789.7361	73.1426	3161.7	2687.15
789.8771	75.4032	4452.2	3973.95
790.0181	77.6634	7692.95	7209.2
790.1592	79.9231	16083.6	15593.25
790.3003	82.1824	52722.8	52224.4
790.4414	84.4412	65535	65019.1
790.5825	86.6995	65535	64994.75
790.7237	88.9574	65535	64974.5
790.8648	91.2148	65535	64956.45
791.006	93.4717	65535	64947
791.1472	95.7282	65535	64945.85
791.2885	97.9842	65535	64938.65
791.4297	100.2398	65535	64934.85
791.571	102.4949	65535	64933.25
791.7123	104.7495	65535	64929.7
791.8536	107.0036	65535	64926.95
791.9949	109.2573	65535	64930.55
792.1363	111.5105	65535	64926.6
792.2777	113.7632	65535	64924.35
792.4191	116.0154	65535	64910.25
792.5605	118.2672	65535	64921
792.7019	120.5185	65535	64918.25
792.8434	122.7693	65535	64919.6
792.9849	125.0197	65535	64911.2
793.1264	127.2696	65535	64911.35
793.2679	129.519	65535	64904.4
793.4094	131.7679	65535	64904
793.551	134.0163	65535	64900.45
793.6926	136.2642	65535	64894.85
793.8342	138.5117	65535	64888.4
793.9758	140.7587	65535	64891.45
794.1175	143.0052	65535	64892
794.2591	145.2512	65535	64889.4
794.4008	147.4967	65535	64891.3
794.5425	149.7417	65535	64888
794.6842	151.9863	65535	64883.85
794.826	154.2304	65535	64881.15
794.9677	156.4739	65535	64871.9
795.1095	158.717	65535	64876.75
795.2513	160.9596	65535	64869.55
795.3931	163.2017	65535	64867.2
795.535	165.4433	65535	64869.2
795.6768	167.6844	65535	64863.8
795.8187	169.925	65535	64862.6
795.9606	172.1651	65535	64858.8
796.1025	174.4047	65535	64854
796.2445	176.6439	65535	64853.1
796.3864	178.8825	65535	64851.65
796.5284	181.1206	65535	64845.2
796.6704	183.3582	65535	64841.2
796.8124	185.5954	65535	64840.85
796.9544	187.832	65535	64838.7
797.0965	190.0681	65535	64834.4
797.2386	192.3037	65535	64830.5
797.3806	194.5388	65535	64832.25
797.5228	196.7734	65535	64825.75
797.6649	199.0075	65535	64825.3
797.807	201.2411	65535	64820
797.9492	203.4742	65535	64818.55
798.0914	205.7068	65535	64817.35
798.2336	207.9389	65535	64818.3
798.3758	210.1704	65535	64813.9
798.518	212.4015	65535	64817.05
798.6603	214.632	65535	64823.4
798.8025	216.862	65535	64827.75
798.9448	219.0915	65535	64831.9
799.0871	221.3205	65535	64830.7
799.2294	223.549	65535	64836.65
799.3718	225.777	65535	64835.5
799.5141	228.0044	65535	64832.15
799.6565	230.2314	65535	64834.2
799.7989	232.4578	65535	64827.85
799.9413	234.6837	65535	64823.7
800.0837	236.909	65535	64821.05
800.2262	239.1339	65535	64796.9
800.3687	241.3582	65535	64809.15
800.5111	243.582	65535	64780.1
800.6536	245.8053	65535	64792.1
800.7961	248.0281	65535	64798.7
800.9387	250.2503	65535	64795.1
801.0812	252.472	65535	64790.85
801.2238	254.6932	65535	64787.3
801.3664	256.9139	65535	64786.15
801.509	259.134	65535	64784.35
801.6516	261.3536	65535	64784.55
801.7942	263.5727	65535	64786.25
801.9369	265.7912	65535	64781.2
802.0795	268.0092	65535	64782.85
802.2222	270.2267	65535	64780.15
802.3649	272.4436	65535	64777.85
802.5076	274.6601	65535	64770.1
802.6504	276.8759	65535	64777.1
802.7931	279.0913	65535	64775.95
802.9359	281.3061	65535	64773.9
803.0787	283.5204	65535	64774.25
803.2215	285.7341	65535	64765.35
803.3643	287.9473	65535	64752.2
803.5071	290.16	65535	64763.15
803.6499	292.3721	65535	64765.85
803.7928	294.5837	65535	64767.65
803.9357	296.7947	65535	64766.05
804.0786	299.0052	65535	64765.85
804.2215	301.2152	65535	64763.05
804.3644	303.4246	65535	64768
804.5074	305.6334	65535	64764.05
804.6503	307.8418	65535	64761.9
804.7933	310.0495	65535	64761.25
804.9363	312.2568	65535	64761.7
805.0793	314.4635	65535	64763.1
805.2223	316.6696	65535	64758
805.3653	318.8752	65535	64747.4
805.5084	321.0802	65535	64756.35
805.6514	323.2847	65535	64755.2
805.7945	325.4887	65535	64755.85
805.9376	327.692	65535	64754.6
806.0807	329.8949	65535	64752.55
806.2238	332.0972	65535	64751.25
806.367	334.2989	65535	64746.2
806.5101	336.5001	65535	64748.8
806.6533	338.7007	65535	64747.15
806.7965	340.9008	65535	64744.7
806.9397	343.1003	65535	64742.85
807.0829	345.2992	65535	64743.75
807.2261	347.4976	65535	64738.15
807.3693	349.6955	65535	64736.7
807.5126	351.8927	65535	64738.2
807.6559	354.0895	65535	64726.3
807.7991	356.2856	65535	64733.3
807.9424	358.4812	65535	64733
808.0857	360.6763	65535	64732.4
808.2291	362.8707	65535	64734.1
808.3724	365.0646	65535	64728.7
808.5158	367.258	65535	64727.7
808.6591	369.4508	65535	64723.4
808.8025	371.643	65535	64725.15
808.9459	373.8346	65535	64721.85
809.0893	376.0257	65535	64719.75
809.2327	378.2162	65535	64716.6
809.3762	380.4062	65535	64721.3
809.5196	382.5956	65535	64714.8
809.6631	384.7844	65535	64717.65
809.8066	386.9726	65535	64717.8
809.9501	389.1603	65535	64718.5
810.0936	391.3474	65535	64680.05
810.2371	393.5339	65535	64720.3
810.3806	395.7199	65535	64723.3
810.5241	397.9052	65535	64727.75
810.6677	400.09	65535	64726.9
810.8113	402.2743	65535	64726.9
810.9548	404.4579	65535	64727.15
811.0984	406.641	65535	64726.55
811.2421	408.8235	65535	64723.9
811.3857	411.0054	65535	64722.55
811.5293	413.1868	65535	64719.7
811.673	415.3675	65535	64717
811.8166	417.5477	65535	64718.65
811.9603	419.7273	65535	64714.8
812.104	421.9064	65535	64703.95
812.2477	424.0848	65535	64713.6
812.3914	426.2627	65535	64706.35
812.5351	428.4399	65535	64705.7
812.6788	430.6166	65535	64702.3
812.8226	432.7928	65535	64706.3
812.9663	434.9683	65535	64704.3
813.1101	437.1432	65535	64698.4
813.2539	439.3176	65535	64700.8
813.3977	441.4914	65535	64700.55
813.5415	443.6645	65535	64699.25
813.6853	445.8371	65535	64700.65
813.8291	448.0091	65535	64698.9
813.973	450.1806	65535	64700.35
814.1168	452.3514	65535	64695.2
814.2607	454.5216	65535	64689.65
814.4046	456.6913	65535	64694.8
814.5485	458.8603	65535	64696.55
814.6924	461.0288	65535	64697.95
814.8363	463.1967	65535	64698.8
814.9802	465.3639	65535	64693.65
815.1241	467.5306	65535	64694.15
815.2681	469.6967	65535	64701.25
815.412	471.8622	65535	64694.5
815.556	474.0271	65535	64697.55
815.7	476.1914	65535	64693.95
815.844	478.3551	65535	64691.15
815.988	480.5182	65535	64693.9
816.132	482.6807	65535	64694.7
816.276	484.8426	65535	64696.25
816.4201	487.0039	65535	64694.8
816.5641	489.1647	65535	64691.05
816.7082	491.3248	65535	64693.05
816.8522	493.4843	65535	64691.3
816.9963	495.6432	65535	64688.55
817.1404	497.8015	65535	64685.05
817.2845	499.9592	65535	64686.65
817.4286	502.1163	65535	64687.2
817.5727	504.2728	65535	64687.85
817.7168	506.4287	65535	64688.05
817.861	508.5839	65535	64687.95
818.0051	510.7386	65535	64683.5
818.1493	512.8927	65535	64682.75
818.2935	515.0461	65535	64684.25
818.4377	517.199	65535	64685.4
818.5818	519.3512	65535	64684.15
818.726	521.5029	65535	64676.8
818.8703	523.6539	65535	64682
819.0145	525.8043	65535	64679.8
819.1587	527.9541	65535	64676.7
819.303	530.1033	65535	64678.1
819.4472	532.2519	65535	64679
819.5915	534.3999	65535	64678.15
819.7357	536.5472	65535	64677.8
819.88	538.694	65535	64680.25
820.0243	540.8401	65535	64677.8
820.1686	542.9856	65535	64673.95
820.3129	545.1305	65535	64672.85
820.4572	547.2748	65535	64674.8
820.6016	549.4185	65535	64670.6
820.7459	551.5615	65535	64674.4
820.8902	553.704	65535	64671.6
821.0346	555.8458	65535	64676.3
821.1789	557.987	65535	64675.25
821.3233	560.1276	65535	64673.85
821.4677	562.2675	65535	64677.3
821.6121	564.4069	65535	64676.45
821.7565	566.5456	65535	64676
821.9009	568.6837	65535	64674.75
822.0453	570.8212	65535	64675.8
822.1897	572.958	65535	64675.1
822.3342	575.0942	65535	64677.35
822.4786	577.2299	65535	64675.75
822.6231	579.3648	65535	64675.85
822.7675	581.4992	65535	64676.55
822.912	583.6329	65535	64677.75
823.0565	585.766	65535	64674.75
823.201	587.8985	65535	64675.3
823.3454	590.0304	65535	64646.9
823.4899	592.1616	65535	64667.65
823.6345	594.2922	65535	64668.2
823.779	596.4222	65535	64669.7
823.9235	598.5515	65535	64668.6
824.068	600.6802	65535	64671.15
824.2126	602.8083	65535	64669.1
824.3571	604.9358	65535	64666.3
824.5017	607.0626	65535	64667.1
824.6462	609.1888	65535	64664.75
824.7908	611.3144	65535	64666.85
824.9354	613.4393	65535	64666.7
825.08	615.5636	65535	64666.9
825.2246	617.6873	65535	64667.75
825.3692	619.8103	65535	64666.35
825.5138	621.9327	65535	64666.3
825.6584	624.0544	65535	64668.6
825.803	626.1756	65535	64667.6
825.9477	628.2961	65535	64663.65
826.0923	630.4159	65535	64667.85
826.237	632.5351	65535	64665.1
826.3816	634.6537	65535	64665
826.5263	636.7716	65535	64661.5
826.6709	638.8889	65535	64661.75
826.8156	641.0056	65535	64661.45
826.9603	643.1216	65535	64660.7
827.105	645.237	65535	64656.3
827.2497	647.3518	65535	64662.05
827.3944	649.4659	65535	64660.45
827.5391	651.5793	65535	64664.65
827.6838	653.6922	65535	64662.8
827.8285	655.8043	65535	64662.95
827.9733	657.9159	65535	64659.6
828.118	660.0268	65535	64660.35
828.2627	662.137	65535	64658.45
828.4075	664.2466	65535	64654.7
828.5522	666.3556	65535	64657.6
828.697	668.4639	65535	64657.8
828.8418	670.5716	65535	64657.8
828.9865	672.6786	65535	64656.9
829.1313	674.785	65535	64654.75
829.2761	676.8907	65535	64659.4
829.4209	678.9958	65535	64655.6
829.5657	681.1002	65535	64657.15
829.7105	683.204	65535	64650.2
829.8553	685.3072	65535	64654.3
830.0001	687.4097	65535	64657.6
830.1449	689.5115	65535	64651.4
830.2898	691.6127	65535	64657.55
830.4346	693.7132	65535	64653.15
830.5794	695.8131	65535	64645.85
830.7243	697.9123	65535	64653.45
830.8691	700.0109	65535	64653.55
831.014	702.1089	65535	64655.3
831.1588	704.2061	65535	64655.15
831.3037	706.3028	65535	64653.1
831.4486	708.3987	65535	64651.8
831.5935	710.4941	65535	64651.8
831.7383	712.5887	65535	64650.7
831.8832	714.6827	65535	64649.9
832.0281	716.7761	65535	64655.45
832.173	718.8688	65535	64650.7
832.3179	720.9608	65535	64645.75
832.4628	723.0522	65535	64649.45
832.6077	725.1429	65535	64650.65
832.7527	727.233	65535	64650
832.8976	729.3224	65535	64650.7
833.0425	731.4112	65535	64649.45
833.1874	733.4993	65535	64646.75
833.3324	735.5867	65535	64649.7
833.4773	737.6735	65535	64646.5
833.6222	739.7596	65535	64648.35
833.7672	741.845	65535	64649.2
833.9122	743.9298	65535	64643.75
834.0571	746.014	65535	64648.7
834.2021	748.0974	65535	64648.6
834.347	750.1802	65535	64649.95
834.492	752.2624	65535	64647.65
834.637	754.3439	65535	64648.15
834.782	756.4247	65535	64637.5
834.9269	758.5048	65535	64647.1
835.0719	760.5843	65535	64645.7
835.2169	762.6631	65535	64648.95
835.3619	764.7413	65535	64647.6
835.5069	766.8188	65535	64646.3
835.6519	768.8956	65535	64645.4
835.7969	770.9718	65535	64648.15
835.9419	773.0473	65535	64647.55
836.0869	775.1221	65535	64650.05
836.232	777.1962	65535	64645.8
836.377	779.2697	65535	64644.1
836.522	781.3426	65535	64624.8
836.667	783.4147	65535	64641.15
836.8121	785.4862	65535	64647.15
836.9571	787.557	65535	64646.25
837.1021	789.6271	65535	64648.25
837.2472	791.6966	65535	64645.55
837.3922	793.7654	65535	64645.55
837.5373	795.8335	65535	64645.7
837.6823	797.901	65535	64647.4
837.8274	799.9678	65535	64643.45
837.9724	802.0339	65535	64647.75
838.1175	804.0993	65535	64635.75
838.2626	806.1641	65535	64645.55
838.4076	808.2282	65535	64644.5
838.5527	810.2916	65535	64644.95
838.6978	812.3544	65535	64647.1
838.8428	814.4164	65535	64647.35
838.9879	816.4778	65535	64646.4
839.133	818.5385	65535	64643.6
839.2781	820.5986	65535	64645.1
839.4232	822.658	65535	64640.1
839.5682	824.7166	65535	64643.95
839.7133	826.7747	65535	64643.85
839.8584	828.832	65535	64642.8
840.0035	830.8886	65535	64641.45
840.1486	832.9446	65535	64642.45
840.2937	834.9999	65535	64644.9
840.4388	837.0545	65535	64638.05
840.5839	839.1085	65535	64643.95
840.729	841.1618	65535	64638.7
840.8741	843.2143	65535	64640.9
841.0192	845.2662	65535	64641
841.1643	847.3175	65535	64643.8
841.3095	849.368	65535	64640.45
841.4546	851.4179	65535	64642.55
841.5997	853.467	65535	64640.85
841.7448	855.5155	65535	64639.9
841.8899	857.5633	65535	64642.35
842.0351	859.6105	65535	64639.55
842.1802	861.6569	65535	64640.6
842.3253	863.7027	65535	64640.3
842.4704	865.7478	65535	64639.55
842.6156	867.7922	65535	64640.7
842.7607	869.8359	65535	64640.8
842.9058	871.8789	65535	64641
843.0509	873.9212	65535	64609.4
843.1961	875.9629	65535	64639.4
843.3412	878.0039	65535	64637.95
843.4863	880.0441	65535	64639.5
843.6315	882.0837	65535	64640.4
843.7766	884.1226	65535	64639.95
843.9218	886.1609	65535	64641.1
844.0669	888.1984	65535	64641.75
844.212	890.2352	65535	64641.1
844.3572	892.2714	65535	64634.2
844.5023	894.3069	65535	64637.6
844.6475	896.3416	65535	64640.45
844.7926	898.3757	65535	64639.4
844.9377	900.4091	65535	64640
845.0829	902.4418	65535	64634.2
845.228	904.4739	65535	64637.55
845.3732	906.5052	65535	64641.4
845.5183	908.5358	65535	64640.55
845.6635	910.5658	65535	64634.1
845.8086	912.595	65535	64637.85
845.9538	914.6236	65535	64638.9
846.0989	916.6515	65535	64638.25
846.2441	918.6786	65535	64636.6
846.3892	920.7051	65535	64637.5
846.5344	922.7309	65535	64639.2
846.6795	924.756	65535	64637.05
846.8246	926.7804	65535	64636.6
846.9698	928.8041	65535	64631.1
847.1149	930.8272	65535	64639.55
847.2601	932.8495	65535	64637.5
847.4052	934.8711	65535	64638.05
847.5504	936.892	65535	64639.15
847.6955	938.9123	65535	64637.3
847.8407	940.9318	65535	64639.95
847.9858	942.9506	65535	64636.5
848.131	944.9688	65535	64639.5
848.2761	946.9862	65535	64639.15
848.4213	949.003	65535	64638.95
848.5664	951.019	65535	64637.6
848.7115	953.0344	65535	64637.8
848.8567	955.0491	65535	64636.55
849.0018	957.063	65535	64636.7
849.147	959.0763	65535	64636.45
849.2921	961.0888	65535	64634.15
849.4373	963.1007	65535	64637.25
849.5824	965.1119	65535	64642.85
849.7275	967.1223	65535	64641.8
849.8727	969.1321	65535	64641.65
850.0178	971.1412	65535	64638.25
850.1629	973.1495	65535	64637.4
850.3081	975.1572	65535	64601.85
850.4532	977.1641	65535	64637.1
850.5983	979.1704	65535	64638.35
850.7435	981.1759	65535	64634.7
850.8886	983.1808	65535	64636.35
851.0337	985.1849	65535	64628.05
851.1788	987.1884	65535	64634.35
851.324	989.1911	65535	64633.15
851.4691	991.1932	65535	64635.05
851.6142	993.1945	65535	64635.5
851.7593	995.1951	65535	64636.15
851.9045	997.1951	65535	64631
852.0496	999.1943	65535	64636
852.1947	1001.1928	65535	64635.6
852.3398	1003.1906	65535	64636.95
852.4849	1005.1877	65535	64637.1
852.63	1007.1841	65535	64636.5
852.7751	1009.1798	65535	64637.8
852.9202	1011.1748	65535	64637.2
853.0653	1013.1691	65535	64637.35
853.2104	1015.1627	65535	64637.55
853.3555	1017.1556	65535	64638.15
853.5006	1019.1477	65535	64636.7
853.6457	1021.1392	65535	64637.25
853.7908	1023.1299	65535	64634.65
853.9359	1025.12	65535	64636.05
854.081	1027.1093	65535	64640.25
854.2261	1029.0979	65535	64641.65
854.3712	1031.0859	65535	64641.25
854.5163	1033.0731	65535	64636.85
854.6613	1035.0596	65535	64639.15
854.8064	1037.0454	65535	64638.8
854.9515	1039.0304	65535	64634.75
855.0965	1041.0148	65535	64636.65
855.2416	1042.9985	65535	64638.3
855.3867	1044.9814	65535	64638.75
855.5317	1046.9636	65535	64633.45
855.6768	1048.9452	65535	64637.7
855.8219	1050.926	65535	64635.45
855.9669	1052.9061	65535	64637.25
856.112	1054.8855	65535	64637.5
856.257	1056.8642	65535	64634.95
856.4021	1058.8421	65535	64633.7
856.5471	1060.8194	65535	64635.35
856.6921	1062.7959	65535	64637.2
856.8372	1064.7717	65535	64636.2
856.9822	1066.7469	65535	64634.25
857.1272	1068.7213	65535	64633.8
857.2723	1070.695	65535	64635.1
857.4173	1072.6679	65535	64633.1
857.5623	1074.6402	65535	64637.1
857.7073	1076.6117	65535	64630.2
857.8523	1078.5826	65535	64636.2
857.9973	1080.5527	65535	64632.35
858.1423	1082.5221	65535	64635.9
858.2873	1084.4908	65535	64635.9
858.4323	1086.4587	65535	64634.45
858.5773	1088.426	65535	64635.25
858.7223	1090.3925	65535	64630
858.8673	1092.3584	65535	64635.35
859.0123	1094.3235	65535	64638.25
859.1573	1096.2879	65535	64635.35
859.3022	1098.2515	65535	64633.6
859.4472	1100.2145	65535	64636.2
859.5922	1102.1767	65535	64634.25
859.7371	1104.1382	65535	64634.9
859.8821	1106.099	65535	64634.5
860.027	1108.0591	65535	64635.85
860.172	1110.0185	65535	64632.75
860.3169	1111.9771	65535	64634.85
860.4619	1113.9351	65535	64637.05
860.6068	1115.8923	65535	64635.3
860.7517	1117.8488	65535	64635.1
860.8967	1119.8045	65535	64635.35
861.0416	1121.7596	65535	64633.9
861.1865	1123.7139	65535	64636.15
861.3314	1125.6675	65535	64636.75
861.4763	1127.6204	65535	64636.3
861.6212	1129.5726	65535	64634.45
861.7661	1131.524	65535	64636.3
861.911	1133.4748	65535	64636.1
862.0559	1135.4248	65535	64634.85
862.2008	1137.3741	65535	64639.7
862.3457	1139.3226	65535	64631.85
862.4905	1141.2705	65535	64634.65
862.6354	1143.2176	65535	64630.3
862.7803	1145.164	65535	64634.85
862.9251	1147.1097	65535	64635.3
863.07	1149.0546	65535	64631.1
863.2148	1150.9989	65535	64634.1
863.3597	1152.9424	65535	64634.05
863.5045	1154.8852	65535	64636.65
863.6493	1156.8272	65535	64635.2
863.7942	1158.7686	65535	64629.35
863.939	1160.7092	65535	64633.4
864.0838	1162.6491	65535	64633.4
864.2286	1164.5883	65535	64637.35
864.3734	1166.5267	65535	64631.65
864.5182	1168.4644	65535	64636.25
864.663	1170.4014	65535	64630.6
864.8078	1172.3377	65535	64635.25
864.9526	1174.2732	65535	64636.85
865.0974	1176.2081	65535	64637.4
865.2421	1178.1421	65535	64631.85
865.3869	1180.0755	65535	64636.85
865.5317	1182.0082	65535	64636.5
865.6764	1183.9401	65535	64634.4
865.8212	1185.8713	65535	64636.4
865.9659	1187.8017	65535	64636.8
866.1106	1189.7315	65535	64637.25
866.2554	1191.6605	65535	64610.05
866.4001	1193.5888	65535	64637.05
866.5448	1195.5163	65535	64636.4
866.6895	1197.4432	65535	64635.45
866.8342	1199.3693	65535	64636.4
866.9789	1201.2947	65535	64630.95
867.1236	1203.2193	65535	64635.35
867.2683	1205.1432	65535	64635.25
867.413	1207.0664	65535	64635.85
867.5576	1208.9889	65535	64631.3
867.7023	1210.9106	65535	64636.35
867.847	1212.8316	65535	64636.85
867.9916	1214.7519	65535	64626.6
868.1363	1216.6715	65535	64635.8
868.2809	1218.5903	65535	64636.6
868.4255	1220.5084	65535	64634.8
868.5701	1222.4257	65535	64635.2
868.7148	1224.3424	65535	64635.65
868.8594	1226.2583	65535	64634.05
869.004	1228.1735	65535	64634.85
869.1486	1230.0879	65535	64633.75
869.2932	1232.0016	65535	64636.5
869.4377	1233.9146	65535	64633.6
869.5823	1235.8269	65535	64636.15
869.7269	1237.7384	65535	64638.2
869.8715	1239.6492	65535	64636
870.016	1241.5592	65535	64631.45
870.1606	1243.4686	65535	64635.5
870.3051	1245.3772	65535	64637.75
870.4496	1247.285	65535	64634
870.5941	1249.1922	65535	64635.9
870.7387	1251.0986	65535	64638.55
870.8832	1253.0042	65535	64635.35
871.0277	1254.9092	65535	64635.2
871.1722	1256.8134	65535	64637.25
871.3167	1258.7169	65535	64633.45
871.4611	1260.6196	65535	64635.35
871.6056	1262.5216	65535	64636
871.7501	1264.4229	65535	64635.95
871.8945	1266.3234	65535	64634.9
872.039	1268.2232	65535	64634.15
872.1834	1270.1223	65535	64634.45
872.3278	1272.0207	65535	64633.75
872.4723	1273.9183	65535	64629.9
872.6167	1275.8151	65535	64634.5
872.7611	1277.7113	65535	64633.75
872.9055	1279.6067	65535	64637.1
873.0499	1281.5014	65535	64632.5
873.1943	1283.3953	65535	64632.85
873.3386	1285.2885	65535	64637.1
873.483	1287.181	65535	64634.85
873.6274	1289.0727	65535	64638.5
873.7717	1290.9637	65535	64633.75
873.9161	1292.854	65535	64635.6
874.0604	1294.7435	65535	64635.6
874.2047	1296.6323	65535	64634.2
874.349	1298.5204	65535	64631
874.4933	1300.4077	65535	64634.65
874.6376	1302.2943	65535	64634.65
874.7819	1304.1802	65535	64636.7
874.9262	1306.0653	65535	64635.05
875.0705	1307.9497	65535	64633.3
875.2147	1309.8333	65535	64636.9
875.359	1311.7162	65535	64634.7
875.5032	1313.5984	65535	64631.5
875.6475	1315.4798	65535	64625.3
875.7917	1317.3605	65535	64619.7
875.9359	1319.2405	65535	64634.6
876.0801	1321.1197	65535	64635.85
876.2243	1322.9982	65535	64632.45
876.3685	1324.876	65535	64637.05
876.5127	1326.753	65535	64634.4
876.6569	1328.6293	65535	64631.6
876.801	1330.5048	65535	64632.55
876.9452	1332.3796	65535	64636.55
877.0893	1334.2537	65535	64611
877.2335	1336.127	65535	64635.5
877.3776	1337.9996	65535	64634.65
877.5217	1339.8714	65535	64634.15
877.6658	1341.7426	65535	64592.35
877.8099	1343.6129	65535	64635.05
877.954	1345.4826	65535	64635.75
878.0981	1347.3515	65535	64632.55
878.2422	1349.2196	65535	64635.4
878.3862	1351.087	65535	64636.55
878.5303	1352.9537	65535	64635.35
878.6743	1354.8197	65535	64636
878.8184	1356.6849	65535	64634.8
878.9624	1358.5493	65535	64634.3
879.1064	1360.4131	65535	64634.35
879.2504	1362.276	65535	64635.45
879.3944	1364.1383	65535	64636.6
879.5384	1365.9998	65535	64627.75
879.6823	1367.8606	65535	64634.95
879.8263	1369.7206	65535	64633.4
879.9702	1371.5799	65535	64635.45
880.1142	1373.4384	65535	64634
880.2581	1375.2962	65535	64635.55
880.402	1377.1533	65535	64635.85
880.5459	1379.0096	65535	64636.05
880.6898	1380.8652	65535	64636.45
880.8337	1382.7201	65535	64636.25
880.9776	1384.5742	65535	64635.25
881.1215	1386.4275	65535	64636.25
881.2653	1388.2802	65535	64633.85
881.4092	1390.132	65535	64635.05
881.553	1391.9832	65535	64634.9
881.6968	1393.8336	65535	64635.9
881.8406	1395.6832	65535	64634.8
881.9844	1397.5322	65535	64635.35
882.1282	1399.3803	65535	64629
882.272	1401.2278	65535	64633.95
882.4158	1403.0745	65535	64637
882.5595	1404.9204	65535	64634.95
882.7033	1406.7656	65535	64635.15
882.847	1408.6101	65535	64632.55
882.9908	1410.4538	65535	64635
883.1345	1412.2968	65535	64634.95
883.2782	1414.139	65535	64636.4
883.4219	1415.9805	65535	64637.75
883.5656	1417.8213	65535	64627.5
883.7092	1419.6613	65535	64637.05
883.8529	1421.5006	65535	64633
883.9965	1423.3391	65535	64633.4
884.1402	1425.1769	65535	64635.9
884.2838	1427.0139	65535	64634.5
884.4274	1428.8502	65535	64635.15
884.571	1430.6858	65535	64634.35
884.7146	1432.5206	65535	64636.5
884.8582	1434.3547	65535	64634.1
885.0018	1436.188	65535	64635.2
885.1453	1438.0206	65535	64633.2
885.2889	1439.8524	65535	64633.85
885.4324	1441.6835	65535	64636.55
885.5759	1443.5139	65535	64631.9
885.7194	1445.3435	65535	64636.25
885.8629	1447.1724	65535	64636.3
886.0064	1449.0005	65535	64636.2
886.1499	1450.8279	65535	64634.75
886.2933	1452.6545	65535	64637.5
886.4368	1454.4804	65535	64637.1
886.5802	1456.3056	65535	64626.35
886.7237	1458.13	65535	64636.6
886.8671	1459.9536	65535	64635.8
887.0105	1461.7766	65535	64636.75
887.1539	1463.5987	65535	64635.1
887.2972	1465.4202	65535	64635.9
887.4406	1467.2409	65535	64635.85
887.584	1469.0608	65535	64634.75
887.7273	1470.88	65535	64635.65
887.8706	1472.6984	65535	64636.2
888.0139	1474.5161	65535	64632.95
888.1572	1476.3331	65535	64637.5
888.3005	1478.1493	65535	64633.9
888.4438	1479.9648	65535	64637.9
888.5871	1481.7795	65535	64634.25
888.7303	1483.5935	65535	64634
888.8736	1485.4067	65535	64635.25
889.0168	1487.2192	65535	64636.05
889.16	1489.031	65535	64636.5
889.3032	1490.842	65535	64636.3
889.4464	1492.6522	65535	64636.9
889.5896	1494.4618	65535	64636.4
889.7327	1496.2705	65535	64636.25
889.8759	1498.0785	65535	64635.05
890.019	1499.8858	65535	64635.25
890.1622	1501.6924	65535	64635.9
890.3053	1503.4981	65535	64637.5
890.4484	1505.3032	65535	64638
890.5914	1507.1075	65535	64637.65
890.7345	1508.911	65535	64636.75
890.8776	1510.7138	65535	64634.6
891.0206	1512.5159	65535	64634.55
891.1637	1514.3172	65535	64636.8
891.3067	1516.1178	65535	64638.55
891.4497	1517.9176	65535	64633.4
891.5927	1519.7166	65535	64637.05
891.7357	1521.515	65535	64631.25
891.8786	1523.3126	65535	64634.65
892.0216	1525.1094	65535	64633.4
892.1645	1526.9055	65535	64638.55
892.3074	1528.7008	65535	64638.15
892.4503	1530.4954	65535	64630.95
892.5932	1532.2893	65535	64638.95
892.7361	1534.0824	65535	64633.6
892.879	1535.8747	65535	64636.85
893.0218	1537.6663	65535	64636.3
893.1647	1539.4572	65535	64634.6
893.3075	1541.2473	65535	64637.5
893.4503	1543.0367	65535	64636.1
893.5931	1544.8253	65535	64634.5
893.7359	1546.6132	65535	64635.75
893.8787	1548.4003	65535	64627.25
894.0214	1550.1867	65535	64627.25
894.1642	1551.9723	65535	64632.1
894.3069	1553.7572	65535	64637
894.4496	1555.5414	65535	64636.5
894.5923	1557.3247	65448.95	64550.7
894.735	1559.1074	65535	64639.5
894.8777	1560.8893	65516.5	64620.6
895.0204	1562.6705	65525.1	64626.5
895.163	1564.4509	65457.4	64560.5
895.3056	1566.2305	65506.3	64609.05
895.4482	1568.0094	65532.7	64638.05
895.5908	1569.7876	65512.05	64615.3
895.7334	1571.565	65456.7	64561.15
895.876	1573.3417	65495.35	64596.15
896.0186	1575.1176	65486.45	64590.8
896.1611	1576.8928	65438.9	64540.9
896.3036	1578.6672	65262.45	64369.15
896.4461	1580.4409	65384.6	64490.05
896.5886	1582.2138	65091.6	64192.9
896.7311	1583.986	65196.3	64299.8
896.8736	1585.7575	64826.95	63931.1
897.0161	1587.5282	65010.3	64116.95
897.1585	1589.2981	64979.1	64085.1
897.3009	1591.0673	64573.7	63678
897.4433	1592.8358	64248.65	63354.95
897.5857	1594.6035	64647.55	63749.05
897.7281	1596.3704	64686.7	63791.2
897.8705	1598.1366	63922.15	63026.3
898.0128	1599.9021	63490.75	62596.45
898.1551	1601.6668	64160.7	63263.15
898.2975	1603.4308	63802.1	62903.65
898.4398	1605.194	63842.65	62940.85
898.5821	1606.9564	62840.3	61944.05
898.7243	1608.7182	63389.45	62492.05
898.8666	1610.4791	62865.7	61970.25
899.0088	1612.2394	63389.9	62495.9
899.1511	1613.9988	62778.3	61881.9
899.2933	1615.7576	63516.8	62621.7
899.4355	1617.5156	63435.35	62534.05
899.5776	1619.2728	64124.7	63229.1
899.7198	1621.0293	62963.35	62068.95
899.862	1622.785	63008.75	62111
900.0041	1624.54	63417.6	62519.3
900.1462	1626.2942	62795.95	61900.25
900.2883	1628.0477	61800.5	60900.85
900.4304	1629.8005	61045.45	60146.4
900.5725	1631.5525	61788.85	60895.7
900.7145	1633.3037	60528	59632.6
900.8566	1635.0542	60367.35	59471.65
900.9986	1636.804	60769.15	59873.6
901.1406	1638.553	59699.15	58695.9
901.2826	1640.3013	60039.55	59142.25
901.4245	1642.0488	59295.05	58400.1
901.5665	1643.7955	59763.9	58868.45
901.7085	1645.5416	59235.7	58340.55
901.8504	1647.2868	58809.5	57914.65
901.9923	1649.0313	59525.35	58631.75
902.1342	1650.7751	59090.65	58192.95
902.2761	1652.5181	58693.05	57798.75
902.4179	1654.2604	58794.2	57902.7
902.5598	1656.0019	59303.05	58409.75
902.7016	1657.7427	59034.1	58140.15
902.8434	1659.4828	59653.5	58759.65
902.9852	1661.222	59256.7	58360.75
903.127	1662.9606	59640.35	58745.95
903.2687	1664.6984	58926.2	58032.55
903.4105	1666.4354	59004.05	58108.95
903.5522	1668.1717	57882.15	56987.55
903.6939	1669.9072	57110	56215.8
903.8356	1671.642	56819.3	55922.6
903.9773	1673.3761	56463.4	55568.65
904.119	1675.1094	56180.55	55285
904.2606	1676.8419	55641.65	54746
904.4022	1678.5737	55440.9	54548.85
904.5439	1680.3048	55172.35	54278.85
904.6855	1682.0351	54823.85	53929.85
904.827	1683.7646	54524.75	53626.9
904.9686	1685.4934	54562	53668.15
905.1101	1687.2215	53666.95	52773.7
905.2517	1688.9488	54072.65	53178.9
905.3932	1690.6754	52973.05	52078.6
905.5347	1692.4012	53253.25	52360.2
905.6761	1694.1263	53115.2	52222.45
905.8176	1695.8506	52866.85	51971.9
905.9591	1697.5742	52668.85	51776.9
906.1005	1699.297	52421.85	51528.5
906.2419	1701.0191	52266.15	51374.7
906.3833	1702.7404	51864.35	50970
906.5246	1704.461	51588.5	50692.6
906.666	1706.1808	51466.5	50570.1
906.8073	1707.8999	51366.3	50470.5
906.9487	1709.6182	51169.75	50274.25
907.09	1711.3358	51021.1	50127.75
907.2313	1713.0527	50796.4	49904.1
907.3725	1714.7688	50698.85	49798.05
907.5138	1716.4841	50265.75	49369.35
907.655	1718.1987	50318.2	49417.75
907.7962	1719.9126	50063.6	49169.85
907.9374	1721.6257	49891.9	48995.75
908.0786	1723.338	49924.7	49029.15
908.2198	1725.0496	49397.3	48502.8
908.3609	1726.7605	49306.1	48410.25
908.502	1728.4706	49067.15	48174.05
908.6431	1730.18	48825.3	47928.9
908.7842	1731.8886	48667	47775.05
908.9253	1733.5964	48624.6	47709.9
909.0664	1735.3036	48523.25	47626.8
909.2074	1737.0099	48330.95	47438.95
909.3484	1738.7156	48151.25	47259.75
909.4894	1740.4204	47946.25	47049.85
909.6304	1742.1246	47804	46910.15
909.7714	1743.8279	47706.95	46814.5
909.9123	1745.5306	47622.9	46728.7
910.0532	1747.2325	47359.05	46467.1
910.1941	1748.9336	47199.95	46307.65
910.335	1750.634	46990.35	46096.6
910.4759	1752.3336	46936.85	46044.1
910.6168	1754.0325	46818	45926.4
910.7576	1755.7307	46689.95	45797.3
910.8984	1757.4281	46566.8	45674.8
911.0392	1759.1247	46542.75	45639.75
911.18	1760.8206	46365.25	45466.7
911.3208	1762.5158	46291.35	45393.3
911.4615	1764.2102	46035.85	45142.75
911.6022	1765.9039	45835.7	44940.95
911.7429	1767.5968	45797.95	44904.65
911.8836	1769.289	45646.9	44752.3
912.0243	1770.9804	45470.2	44574.25
912.1649	1772.6711	45441.7	44547.95
912.3056	1774.361	45197	44302.8
912.4462	1776.0502	45111.1	44217.65
912.5868	1777.7386	44982.85	44087
912.7274	1779.4263	44838.05	43943.1
912.8679	1781.1132	44786.9	43894
913.0084	1782.7994	44572.45	43679.4
913.149	1784.4849	44444.25	43552.1
913.2895	1786.1696	44276.3	43376.8
913.4299	1787.8535	44149.15	43256.4
913.5704	1789.5367	43998.65	43106.3
913.7108	1791.2192	44004.55	43110
913.8513	1792.9009	43755.7	42833.95
913.9917	1794.5818	43663.9	42770
914.132	1796.2621	43518.95	42629.15
914.2724	1797.9415	43395.3	42501.4
914.4128	1799.6202	43289.4	42395.2
914.5531	1801.2982	43176.75	42284.25
914.6934	1802.9755	43133.7	42240
914.8337	1804.6519	42985.75	42093.75
914.9739	1806.3277	42751.2	41858.35
915.1142	1808.0027	42550.55	41659
915.2544	1809.6769	42487.1	41594.4
915.3946	1811.3504	42375.5	41481.45
915.5348	1813.0231	42250	41355.4
915.675	1814.6951	42154.45	41261.75
915.8151	1816.3664	42174.9	41283.45
915.9553	1818.0369	42028.85	41135
916.0954	1819.7067	41820.3	40928.65
916.2355	1821.3757	41714.6	40821.95
916.3755	1823.044	41650.1	40758.05
916.5156	1824.7115	41547.2	40653.9
916.6556	1826.3783	41328.85	40438
916.7956	1828.0443	41186.45	40294.65
916.9356	1829.7096	41093.9	40200.15
917.0756	1831.3741	41000.8	40105.25
917.2155	1833.0379	40893.55	40002.7
917.3555	1834.701	40749.9	39855
917.4954	1836.3633	40714.6	39822.75
917.6353	1838.0248	40550.8	39656.05
917.7751	1839.6856	40431.45	39539.55
917.915	1841.3457	40338	39445.35
918.0548	1843.005	40258.3	39365.7
918.1946	1844.6636	40163.8	39272.9
918.3344	1846.3214	40026.4	39132.85
918.4742	1847.9785	39921.9	39029.3
918.6139	1849.6349	39843.75	38948.6
918.7537	1851.2904	39718.7	38818.15
918.8934	1852.9453	39574.5	38680.35
919.0331	1854.5994	39418.05	38525.65
919.1727	1856.2528	39497.45	38600.2
919.3124	1857.9054	39313.4	38421.3
919.452	1859.5572	39260.05	38368.4
919.5916	1861.2083	39115.15	38223.2
919.7312	1862.8587	39048.4	38156.45
919.8708	1864.5084	38979.75	38086.15
920.0103	1866.1572	38838.8	37947.2
920.1498	1867.8054	38679.5	37787.15
920.2893	1869.4528	38627.75	37734.7
920.4288	1871.0994	38418.75	37526.3
920.5683	1872.7453	38374.15	37481.7
920.7077	1874.3905	38282.35	37384.55
920.8471	1876.0349	38124.75	37230.85
920.9865	1877.6786	38108.15	37214.7
921.1259	1879.3215	38078	37185.4
921.2653	1880.9637	37901.95	37010.3
921.4046	1882.6051	37769.25	36876.2
921.5439	1884.2458	37705.05	36809.3
921.6832	1885.8858	37556.5	36665.85
921.8225	1887.525	37513.05	36619.35
921.9617	1889.1634	37293.95	36401.15
922.101	1890.8011	37119.25	36226.95
922.2402	1892.4381	37006.55	36115.1
922.3794	1894.0743	37056.25	36165.1
922.5185	1895.7098	36910.65	36019.25
922.6577	1897.3446	36762.25	35867.95
922.7968	1898.9786	36680.45	35781.55
922.9359	1900.6118	36609.5	35717.85
923.075	1902.2443	36377.9	35482.45
923.214	1903.8761	36294.8	35402.65
923.3531	1905.5071	36086.05	35194.35
923.4921	1907.1374	35960.6	35067.4
923.6311	1908.7669	35949.65	35058.35
923.77	1910.3957	35830.65	34938.6
923.909	1912.0237	35646.75	34753.3
924.0479	1913.651	35563.7	34670.5
924.1868	1915.2776	35417.8	34526.95
924.3257	1916.9034	35271.8	34381.4
924.4646	1918.5285	35084.3	34192.9
924.6034	1920.1528	34942.1	34050.25
924.7422	1921.7764	34891.15	33999.85
924.881	1923.3992	34702.8	33810.85
925.0198	1925.0213	34487.65	33595.4
925.1586	1926.6427	34342.1	33451.4
925.2973	1928.2633	34353.7	33351.85
925.436	1929.8832	34150.5	33255.05
925.5747	1931.5023	33928.35	33035.85
925.7134	1933.1207	33906.6	33013.45
925.852	1934.7383	33882.8	32989.55
925.9906	1936.3552	33708.95	32818.45
926.1292	1937.9714	33583.95	32694.45
926.2678	1939.5868	33381.05	32487.8
926.4064	1941.2015	33240.3	32350.45
926.5449	1942.8154	33083.05	32190.15
926.6834	1944.4286	32944.15	32052.8
926.8219	1946.041	32821.35	31907.85
926.9604	1947.6528	32652.9	31756.4
927.0988	1949.2637	32561.55	31670.7
927.2372	1950.8739	32385.95	31492.1
927.3756	1952.4834	32340.85	31449.65
927.514	1954.0921	32280.95	31388.2
927.6523	1955.7001	32191.2	31295
927.7907	1957.3074	32046.35	31155.65
927.929	1958.9139	31887.25	30995.85
928.0673	1960.5197	31842	30949.75
928.2055	1962.1247	31667.55	30775.95
928.3438	1963.729	31484.45	30594.85
928.482	1965.3325	31377.55	30464
928.6202	1966.9353	31216.4	30324.4
928.7584	1968.5374	31157	30262.4
928.8965	1970.1387	31037.5	30144.3
929.0346	1971.7393	30885.85	29993.85
929.1727	1973.3392	30815.75	29925.25
929.3108	1974.9383	30672.25	29781.6
929.4489	1976.5366	30575.75	29682.55
929.5869	1978.1342	30504.35	29612.25
929.7249	1979.7311	30426.05	29533.9
929.8629	1981.3273	30276.4	29385.3
930.0009	1982.9227	30193.05	29299.85
930.1388	1984.5173	30062	29171.4
930.2767	1986.1112	29913.4	29022.6
930.4146	1987.7044	29899	29006.2
930.5525	1989.2968	29755.2	28863.25
930.6904	1990.8885	29692.35	28797.5
930.8282	1992.4795	29623.8	28732.1
930.966	1994.0697	29465.35	28573.45
931.1038	1995.6592	29330.35	28438.7
931.2415	1997.2479	29258.1	28365.9
931.3793	1998.8359	29134.65	28243.3
931.517	2000.4232	28987.4	28095.8
931.6547	2002.0097	28866.4	27976.15
931.7923	2003.5955	28776.9	27883.5
931.93	2005.1805	28785.7	27892.8
932.0676	2006.7648	28630.1	27739.3
932.2052	2008.3484	28562.2	27667.65
932.3427	2009.9312	28607	27715.75
932.4803	2011.5133	28387.6	27498.15
932.6178	2013.0946	28301.15	27410.85
932.7553	2014.6752	28226.2	27335.8
932.8928	2016.2551	28131.2	27239.55
933.0302	2017.8342	27996.75	27106.8
933.1676	2019.4126	27883.75	26993.2
933.305	2020.9902	27763.75	26872.2
933.4424	2022.5672	27720.3	26825.85
933.5798	2024.1433	27647.75	26751
933.7171	2025.7188	27542.75	26652.55
933.8544	2027.2935	27435.85	26544.8
933.9917	2028.8674	27349.25	26459.25
934.129	2030.4406	27224.4	26335.9
934.2662	2032.0131	27124	26233.95
934.4034	2033.5849	26999.15	26100.6
934.5406	2035.1559	27010.85	26119.15
934.6778	2036.7261	26904.05	26012.2
934.8149	2038.2957	26810.5	25919.65
934.952	2039.8645	26732.7	25839.3
935.0891	2041.4325	26730.7	25835.25
935.2262	2042.9998	26565.25	25675.8
935.3632	2044.5664	26528.2	25636.1
935.5002	2046.1323	26406.1	25514.45
935.6372	2047.6974	26327.05	25434.7
935.7742	2049.2617	26259.2	25368.2
935.9111	2050.8254	26205.45	25292.3
936.048	2052.3883	26166.3	25272.25
936.1849	2053.9504	26005.5	25112.85
936.3218	2055.5118	25964.3	25070.55
936.4586	2057.0725	25819.15	24923
936.5955	2058.6325	25797.2	24905.6
936.7323	2060.1917	25656.55	24765.05
936.869	2061.7502	25592.45	24699.6
937.0058	2063.3079	25492.65	24603.1
937.1425	2064.8649	25464.2	24568.7
937.2792	2066.4212	25393.2	24502.4
937.4159	2067.9767	25274.15	24382.95
937.5525	2069.5315	25146.8	24256.2
937.6891	2071.0856	25040.15	24149
937.8257	2072.6389	24946.25	24055.25
937.9623	2074.1915	24828.05	23938.35
938.0989	2075.7433	24671	23778.2
938.2354	2077.2945	24647.1	23757.05
938.3719	2078.8448	24558.55	23667.8
938.5084	2080.3945	24408.5	23517.9
938.6448	2081.9434	24411	23520.7
938.7812	2083.4916	24357.2	23465.05
938.9176	2085.039	24241	23346.95
939.054	2086.5857	24175.9	23282.8
939.1903	2088.1317	24143.5	23251.4
939.3267	2089.677	24076.05	23183.3
939.463	2091.2215	23955.45	23063.25
939.5992	2092.7652	23844.45	22951.85
939.7355	2094.3083	23834.4	22941.35
939.8717	2095.8506	23768.7	22877.4
940.0079	2097.3921	23731.05	22839.8
940.1441	2098.933	23654.05	22762.7
940.2802	2100.4731	23564.65	22673.9
940.4163	2102.0124	23521.05	22621.45
940.5524	2103.5511	23450.15	22557
940.6885	2105.089	23410.4	22519.1
940.8245	2106.6261	23335.1	22441.4
940.9606	2108.1626	23248.95	22355.85
941.0965	2109.6983	23225.8	22303.65
941.2325	2111.2332	23136.95	22244.8
941.3684	2112.7675	23016.95	22125.15
941.5044	2114.301	22919.85	22024.9
941.6403	2115.8337	22926.65	22032.45
941.7761	2117.3657	22856.85	21964.6
941.912	2118.897	22776.95	21884.15
942.0478	2120.4276	22658.1	21760.25
942.1835	2121.9575	22564.75	21673.9
942.3193	2123.4866	22619.15	21713.75
942.455	2125.0149	22503.7	21609
942.5907	2126.5426	22386.95	21495.6
942.7264	2128.0695	22303.5	21407.35
942.8621	2129.5956	22258.7	21367.7
942.9977	2131.1211	22193.4	21298.8
943.1333	2132.6458	22142.4	21249.95
943.2689	2134.1698	22058.85	21167.95
943.4044	2135.693	22004.5	21111
943.54	2137.2155	21954.45	21059.4
943.6755	2138.7373	21853.8	20962.45
943.8109	2140.2584	21838.2	20948.3
943.9464	2141.7787	21740.4	20844.95
944.0818	2143.2983	21604.4	20714.55
944.2172	2144.8171	21537.2	20646.8
944.3526	2146.3353	21448.25	20553.75
944.4879	2147.8527	21328.75	20437.2
944.6232	2149.3693	21342.45	20450.35
944.7585	2150.8853	21259.85	20367.95
944.8938	2152.4005	21166.1	20273.05
945.029	2153.9149	21142.9	20252.35
945.1642	2155.4287	21027.3	20138.75
945.2994	2156.9417	21004.1	20110.5
945.4346	2158.454	20898.25	20003.75
945.5697	2159.9655	20870.35	19978.1
945.7048	2161.4764	20856.05	19964.05
945.8399	2162.9865	20755.35	19861.4
945.9749	2164.4958	20671.25	19778.2
946.1099	2166.0045	20596.15	19702.7
946.2449	2167.5124	20592.6	19701.3
946.3799	2169.0195	20517	19625.95
946.5148	2170.526	20492.75	19601.05
946.6498	2172.0317	20421.8	19529.05
946.7846	2173.5367	20349.4	19457
946.9195	2175.0409	20274.65	19383.65
947.0543	2176.5445	20257.85	19368.4
947.1891	2178.0473	20147.5	19256.75
947.3239	2179.5494	20035.7	19139.15
947.4587	2181.0507	19969.4	19077.35
947.5934	2182.5513	19905.4	19012.35
947.7281	2184.0512	19873.95	18982.15
947.8628	2185.5504	19803.35	18910.8
947.9974	2187.0488	19686.95	18796.7
948.132	2188.5465	19632.8	18742.25
948.2666	2190.0435	19544.5	18651.75
948.4012	2191.5397	19504.15	18610.95
948.5357	2193.0353	19426.7	18535.95
948.6702	2194.5301	19330.15	18438.6
948.8047	2196.0241	19199.6	18307.95
948.9392	2197.5175	19195.95	18306.4
949.0736	2199.0101	19104	18206.5
949.208	2200.502	18963.45	18073.8
949.3424	2201.9931	18953.95	18062.8
949.4767	2203.4835	18889.25	17995.25
949.611	2204.9733	18805.2	17905.9
949.7453	2206.4622	18764.1	17873.95
949.8796	2207.9505	18666.5	17771.6
950.0138	2209.438	18589.85	17698.7
950.148	2210.9248	18549.55	17655.6
950.2822	2212.4109	18475.85	17586.05
950.4164	2213.8962	18411.45	17516.5
950.5505	2215.3809	18346.35	17454
950.6846	2216.8648	18302.9	17412.85
950.8186	2218.3479	18229.3	17332
950.9527	2219.8304	18203.15	17309.8
951.0867	2221.3121	18093.1	17198.1
951.2207	2222.7931	18019.5	17126.55
951.3546	2224.2733	17961.2	17069.2
951.4886	2225.7529	17870.25	16977.85
951.6225	2227.2317	17832.8	16938.45
951.7563	2228.7098	17809.15	16919.4
951.8902	2230.1872	17752.8	16862.4
952.024	2231.6638	17653	16761.3
952.1578	2233.1397	17608.9	16711.45
952.2916	2234.6149	17547.25	16654.8
952.4253	2236.0894	17478.8	16585.9
952.559	2237.5632	17443.1	16540.35
952.6927	2239.0362	17346.3	16453.75
952.8263	2240.5085	17271.9	16379.4
952.9599	2241.9801	17222	16330.95
953.0935	2243.4509	17163.45	16272.65
953.2271	2244.921	17096.2	16204.95
953.3606	2246.3904	17047.4	16152.05
953.4941	2247.8591	17000.5	16107.35
953.6276	2249.3271	16932.8	16041.25
953.7611	2250.7943	16865.45	15972.3
953.8945	2252.2608	16811	15919.25
954.0279	2253.7266	16716.75	15826.25
954.1612	2255.1917	16674.7	15782.75
954.2946	2256.656	16646.1	15754.35
954.4279	2258.1197	16548.4	15657.75
954.5612	2259.5826	16508.95	15615.35
954.6944	2261.0447	16470.95	15578.1
954.8276	2262.5062	16367.95	15473.85
954.9608	2263.9669	16362.7	15469.1
955.094	2265.4269	16359.3	15467.4
955.2271	2266.8862	16282.9	15391.7
955.3602	2268.3448	16230.1	15334.85
955.4933	2269.8026	16208.3	15315.35
955.6264	2271.2598	16140.55	15250.2
955.7594	2272.7162	16096.7	15205.75
955.8924	2274.1719	16035.15	15143.15
956.0253	2275.6268	15980.9	15089.25
956.1583	2277.0811	15960	15067.45
956.2912	2278.5346	15896.05	15005.75
956.4241	2279.9874	15813.1	14923.4
956.5569	2281.4395	15807.9	14915.8
956.6897	2282.8908	15748.25	14851.4
956.8225	2284.3414	15742.1	14848.75
956.9553	2285.7914	15657.6	14763.55
957.088	2287.2406	15574	14681.1
957.2207	2288.689	15569.2	14677.25
957.3534	2290.1368	15489.8	14597.25
957.486	2291.5838	15455.2	14561.8
957.6186	2293.0302	15411.3	14516.6
957.7512	2294.4758	15325.55	14433.6
957.8838	2295.9206	15272.4	14378.55
958.0163	2297.3648	15200.75	14309.1
958.1488	2298.8082	15166.8	14275
958.2813	2300.251	15146.55	14253.3
958.4137	2301.693	15098.75	14202.85
958.5461	2303.1343	15084.45	14190.85
958.6785	2304.5748	15021.05	14130.2
958.8108	2306.0147	14962	14072.3
958.9432	2307.4538	14921.1	14025.7
959.0754	2308.8922	14828.3	13938.25
959.2077	2310.3299	14833.3	13941.1
959.3399	2311.7669	14776.5	13885.2
959.4721	2313.2031	14713	13820.95
959.6043	2314.6387	14650.75	13757.3
959.7365	2316.0735	14576.8	13686.5
959.8686	2317.5076	14556.45	13663.7
960.0006	2318.941	14500	13606.8
960.1327	2320.3737	14452.15	13559.4
960.2647	2321.8056	14396.15	13502.5
960.3967	2323.2369	14355.55	13463.4
960.5287	2324.6674	14326.4	13431.35
960.6606	2326.0972	14251.4	13355.75
960.7925	2327.5263	14211.5	13319.5
960.9244	2328.9547	14147.2	13252.8
961.0562	2330.3823	14119.7	13226.9
961.1881	2331.8092	14097.1	13202
961.3198	2333.2355	14058.2	13165.2
961.4516	2334.661	14017.25	13124.25
961.5833	2336.0858	13958.45	13063.8
961.715	2337.5098	13922.5	13029.55
961.8467	2338.9332	13877	12984.55
961.9783	2340.3558	13808.8	12914.85
962.1099	2341.7778	13807.15	12913.35
962.2415	2343.199	13744.05	12848.75
962.373	2344.6195	13665.1	12772.9
962.5045	2346.0393	13626.15	12734.25
962.636	2347.4583	13619	12727.05
962.7675	2348.8767	13591.05	12698.1
962.8989	2350.2943	13533.8	12640.4
963.0303	2351.7113	13521.2	12626.55
963.1617	2353.1275	13432.7	12541.9
963.293	2354.543	13429.4	12513.8
963.4243	2355.9578	13386.55	12490.65
963.5556	2357.3718	13272.45	12380.15
963.6868	2358.7852	13230.8	12334.75
963.818	2360.1978	13149.2	12256.6
963.9492	2361.6098	13110.6	12220.05
964.0803	2363.021	13090.7	12196.15
964.2114	2364.4315	13051.4	12156.75
964.3425	2365.8413	13017.75	12124.65
964.4736	2367.2504	12934.15	12040.95
964.6046	2368.6587	12853.75	11961.5
964.7356	2370.0664	12798.85	11908.7
964.8666	2371.4733	12776.75	11884.65
964.9975	2372.8795	12751.05	11859.55
965.1284	2374.285	12706.3	11814.8
965.2593	2375.6899	12619.35	11727.95
965.3901	2377.0939	12529.1	11638.15
965.5209	2378.4973	12499	11609.15
965.6517	2379.9	12444	11550.35
965.7825	2381.3019	12417.55	11527.75
965.9132	2382.7032	12359.6	11469.25
966.0439	2384.1037	12362.55	11472.9
966.1745	2385.5035	12313.45	11421.25
966.3051	2386.9027	12259.5	11370
966.4357	2388.3011	12239.3	11343.75
966.5663	2389.6987	12160.2	11269.8
966.6968	2391.0957	12123.75	11232.1
966.8273	2392.492	12081.55	11189.6
966.9578	2393.8876	12006.25	11115.65
967.0882	2395.2824	11958.35	11068.45
967.2186	2396.6765	11914.4	11024.85
967.349	2398.07	11837.05	10946.45
967.4793	2399.4627	11815.7	10924.75
967.6097	2400.8547	11816	10925.9
967.7399	2402.246	11767.7	10870.05
967.8702	2403.6366	11690.2	10798
968.0004	2405.0265	11632.95	10742.25
968.1306	2406.4156	11596.65	10701.1
968.2607	2407.8041	11558.5	10664.2
968.3909	2409.1918	11498	10603.4
968.521	2410.5789	11463.15	10573
968.651	2411.9652	11442.15	10550.05
968.781	2413.3508	11367.95	10475.75
968.911	2414.7358	11283.15	10392.4
969.041	2416.12	11275.8	10383.8
969.1709	2417.5035	11237.55	10348.5
969.3008	2418.8863	11203.35	10311.4
969.4307	2420.2684	11147.15	10255.1
969.5606	2421.6497	11104.95	10213.55
969.6904	2423.0304	11040.5	10149.6
969.8201	2424.4104	11018.3	10124.75
969.9499	2425.7896	10996.65	10099.9
970.0796	2427.1682	10980.95	10088.15
970.2093	2428.546	10926.9	10035.7
970.3389	2429.9232	10902.15	10009.5
970.4685	2431.2996	10866.55	9974.75
970.5981	2432.6753	10861.7	9970.25
970.7277	2434.0503	10802.4	9911.35
970.8572	2435.4246	10742.35	9850.45
970.9867	2436.7982	10711.75	9817.55
971.1161	2438.1711	10709.65	9817.15
971.2456	2439.5433	10650.7	9757.5
971.375	2440.9148	10606.75	9712
971.5043	2442.2856	10571.5	9681.1
971.6336	2443.6557	10529	9635.95
971.7629	2445.025	10468.95	9578.25
971.8922	2446.3937	10444.85	9553.3
972.0214	2447.7617	10425.7	9534.25
972.1506	2449.1289	10410.55	9518.4
972.2798	2450.4955	10389.3	9493.45
972.4089	2451.8613	10344.25	9452.55
972.538	2453.2265	10297.15	9407.1
972.6671	2454.5909	10285.8	9393.85
972.7961	2455.9546	10256.9	9365.2
972.9251	2457.3177	10186.55	9294.45
973.0541	2458.68	10163.95	9271.95
973.1831	2460.0416	10172	9279.15
973.312	2461.4025	10148.75	9254.55
973.4408	2462.7627	10108.05	9205.45
973.5697	2464.1222	10060.45	9171.4
973.6985	2465.4811	10054.9	9163.2
973.8273	2466.8392	9991.2	9098.35
973.956	2468.1966	9970.95	9076.25
974.0847	2469.5533	9968.95	9074.25
974.2134	2470.9093	9926.6	9033.45
974.3421	2472.2645	9863.1	8969.45
974.4707	2473.6191	9861.25	8969.25
974.5993	2474.973	9806.45	8915.05
974.7278	2476.3262	9801.7	8906.45
974.8563	2477.6787	9768.15	8878.85
974.9848	2479.0305	9690.55	8798.35
975.1132	2480.3816	9684.55	8791.2
975.2417	2481.7319	9657.75	8765.65
975.37	2483.0816	9583.35	8690.6
975.4984	2484.4306	9575.4	8683.35
975.6267	2485.7789	9531.4	8639.35
975.755	2487.1264	9472.55	8578.05
975.8833	2488.4733	9455.6	8563.85
976.0115	2489.8195	9409.3	8511.85
976.1397	2491.165	9366.1	8471.05
976.2678	2492.5097	9342.85	8448.9
976.3959	2493.8538	9276.7	8385.2
976.524	2495.1972	9236.85	8345.4
976.6521	2496.5398	9217.75	8325.15
976.7801	2497.8818	9195.45	8299.8
976.9081	2499.2231	9140.85	8248.2
977.036	2500.5637	9115.4	8223.2
977.164	2501.9035	9096.65	8205.1
977.2918	2503.2427	9066.5	8172.95
977.4197	2504.5812	9022.1	8129.7
977.5475	2505.919	9024.8	8130.05
977.6753	2507.256	8983	8090.8
977.8031	2508.5924	8953.2	8062.6
977.9308	2509.9281	8942.45	8044.25
978.0585	2511.2631	8884.6	7993.25
978.1861	2512.5974	8856.3	7964.35
978.3137	2513.9309	8811.45	7919.2
978.4413	2515.2638	8826.4	7900.45
978.5689	2516.596	8772.9	7880.4
978.6964	2517.9275	8730	7837
978.8239	2519.2583	8701.05	7807.95
978.9513	2520.5884	8640.2	7747.4
979.0788	2521.9178	8631.05	7738.4
979.2062	2523.2465	8609.45	7718.85
979.3335	2524.5745	8547.55	7657.35
979.4608	2525.9018	8528.75	7636.7
979.5881	2527.2284	8494.05	7603.9
979.7154	2528.5543	8481.3	7590.15
979.8426	2529.8796	8454.7	7561.3
979.9698	2531.2041	8427.6	7535.95
980.0969	2532.5279	8415.35	7523.9
980.224	2533.851	8408.7	7517.05
980.3511	2535.1735	8392.85	7502.5
980.4781	2536.4952	8346.55	7454.65
980.6052	2537.8163	8325.8	7432.65
980.7321	2539.1366	8306.4	7415.05
980.8591	2540.4562	8262.95	7371.2
980.986	2541.7752	8261.05	7369.4
981.1129	2543.0935	8243.1	7351.15
981.2397	2544.411	8206.35	7315.75
981.3665	2545.7279	8201.8	7312.35
981.4933	2547.0441	8195.55	7303.25
981.62	2548.3596	8180.85	7285.35
981.7467	2549.6744	8146.9	7254.3
981.8734	2550.9885	8115.8	7221.45
982.0001	2552.3019	8075.35	7182
982.1267	2553.6146	8069.5	7177.4
982.2532	2554.9266	8038.05	7144.8
982.3798	2556.2379	8018.65	7125.8
982.5063	2557.5485	7985.85	7095.35
982.6327	2558.8585	7975.85	7075.65
982.7592	2560.1677	7960.95	7066.55
982.8856	2561.4762	7928.1	7037.15
983.0119	2562.7841	7928.55	7034.5
983.1383	2564.0913	7876.55	6985.5
983.2646	2565.3977	7887.35	6994.85
983.3908	2566.7035	7871.75	6980.95
983.517	2568.0086	7850	6955.6
983.6432	2569.313	7846.85	6954.25
983.7694	2570.6167	7798.65	6900.9
983.8955	2571.9197	7778.05	6886.9
984.0216	2573.222	7774.15	6878.05
984.1476	2574.5236	7756.95	6861.9
984.2737	2575.8246	7726.55	6833.65
984.3996	2577.1248	7734	6841.75
984.5256	2578.4244	7686.3	6794.6
984.6515	2579.7232	7659.35	6767.05
984.7774	2581.0214	7689.65	6756.85
984.9032	2582.3189	7653.1	6762.55
985.029	2583.6157	7643.75	6747.65
985.1548	2584.9118	7592.3	6700.05
985.2806	2586.2072	7565.8	6673.15
985.4063	2587.5019	7571.75	6680.5
985.5319	2588.7959	7557.95	6663.45
985.6576	2590.0893	7542.1	6648.05
985.7832	2591.3819	7510.45	6617.4
985.9087	2592.6739	7491.75	6602
986.0343	2593.9652	7469.05	6577
986.1597	2595.2557	7441.9	6549.9
986.2852	2596.5456	7418.3	6525.7
986.4106	2597.8348	7375.85	6485.7
986.536	2599.1234	7353.65	6461.9
986.6614	2600.4112	7326.55	6434.45
986.7867	2601.6983	7306.45	6410.3
986.912	2602.9848	7278.35	6385.25
987.0372	2604.2705	7256.8	6357
987.1624	2605.5556	7241.8	6351.25
987.2876	2606.84	7217.45	6325.1
987.4128	2608.1237	7170.4	6277.4
987.5379	2609.4067	7163.05	6272.05
987.6629	2610.689	7140	6237.4
987.788	2611.9707	7125.85	6228.35
987.913	2613.2516	7099.8	6201.5
988.0379	2614.5319	7057.5	6165.6
988.1629	2615.8115	7021.45	6127.8
988.2878	2617.0903	7003.9	6108.9
988.4126	2618.3685	6966.15	6071.7
988.5375	2619.6461	6937.35	6045.8
988.6622	2620.9229	6933	6041.35
988.787	2622.199	6908.45	6016.9
988.9117	2623.4745	6892.1	5999.65
989.0364	2624.7493	6864.35	5972.05
989.161	2626.0234	6813.45	5923.25
989.2857	2627.2968	6801.25	5909.25
989.4102	2628.5695	6777.35	5882.7
989.5348	2629.8415	6776	5884.45
989.6593	2631.1128	6735.25	5840.7
989.7837	2632.3835	6702.5	5812.1
989.9082	2633.6535	6674.65	5783.6
990.0326	2634.9228	6678.4	5790.3
990.1569	2636.1914	6643.4	5753.55
990.2812	2637.4593	6621.65	5724.4
990.4055	2638.7265	6608.4	5713.7
990.5298	2639.9931	6581.5	5688.85
990.654	2641.259	6568.15	5674.9
990.7782	2642.5242	6529.9	5639.5
990.9023	2643.7887	6530.65	5638.25
991.0264	2645.0525	6507.85	5616.25
991.1505	2646.3156	6476.7	5583.65
991.2745	2647.5781	6427.4	5536.85
991.3985	2648.8398	6419.5	5528.2
991.5225	2650.1009	6406.95	5506.55
991.6464	2651.3613	6367.55	5474.85
991.7703	2652.6211	6376.35	5484.05
991.8942	2653.8801	6363.1	5472.55
992.018	2655.1385	6349.45	5455.45
992.1418	2656.3961	6311.4	5419.75
992.2655	2657.6531	6322.35	5428.95
992.3892	2658.9094	6286.4	5394
992.5129	2660.1651	6254.5	5364.2
992.6366	2661.42	6247.45	5354.45
992.7602	2662.6743	6245.7	5352.1
992.8837	2663.9279	6232.65	5340.95
993.0073	2665.1808	6201.85	5309.3
993.1307	2666.433	6187	5293.6
993.2542	2667.6846	6171.9	5281.2
993.3776	2668.9354	6171.8	5277
993.501	2670.1856	6156.45	5262.6
993.6244	2671.4351	6119.5	5229.35
993.7477	2672.6839	6133.55	5241
993.8709	2673.9321	6094.85	5203.95
993.9942	2675.1795	6074	5184
994.1174	2676.4263	6063.3	5170.45
994.2405	2677.6724	6041.5	5149.8
994.3637	2678.9179	6026.9	5134.4
994.4868	2680.1626	6007.6	5116.7
994.6098	2681.4067	5990.4	5097.95
994.7328	2682.6501	5999.3	5108.1
994.8558	2683.8928	5963.05	5071.65
994.9788	2685.1348	5907.4	5016.7
995.1017	2686.3761	5913.3	5022.95
995.2245	2687.6168	5886.65	4996.35
995.3474	2688.8568	5885.2	4993.8
995.4702	2690.0961	5840.35	4948.35
995.5929	2691.3348	5835.75	4942.2
995.7156	2692.5727	5832.2	4939.7
995.8383	2693.81	5795.1	4902.7
995.961	2695.0466	5766.55	4877.15
996.0836	2696.2826	5759.2	4865.25
996.2062	2697.5178	5747.55	4852.6
996.3287	2698.7524	5733.75	4842.75
996.4512	2699.9863	5730.85	4835.9
996.5737	2701.2195	5678.95	4788.4
996.6961	2702.452	5681.05	4787.05
996.8185	2703.6839	5671.25	4778.65
996.9408	2704.9151	5646.85	4755.75
997.0631	2706.1456	5650.75	4759.25
997.1854	2707.3755	5610.5	4718.5
997.3077	2708.6046	5617.85	4726.15
997.4299	2709.8331	5610.45	4720.9
997.552	2711.0609	5593.9	4703.15
997.6742	2712.2881	5572.9	4680.3
997.7963	2713.5145	5570.55	4678.55
997.9183	2714.7403	5559.55	4669.6
998.0403	2715.9654	5545.45	4653.7
998.1623	2717.1899	5559.5	4653.45
998.2842	2718.4136	5521.6	4628.85
998.4062	2719.6367	5517.4	4625.2
998.528	2720.8591	5507.9	4608.85
998.6498	2722.0809	5477.2	4584.9
998.7716	2723.3019	5494.2	4599.25
998.8934	2724.5223	5474.45	4581.75
999.0151	2725.7421	5466.9	4573.75
999.1368	2726.9611	5427.7	4536.15
999.2584	2728.1795	5442.1	4545.2
999.38	2729.3972	5408.75	4517.7
999.5016	2730.6142	5393.7	4493.75
999.6231	2731.8306	5347.45	4453.05
999.7446	2733.0462	5320.85	4427.5
999.8661	2734.2612	5295.1	4395.55
999.9875	2735.4756	5255.1	4359.95
1000.1089	2736.6892	5218.4	4325.4
1000.2302	2737.9022	5184.05	4292.2
1000.3515	2739.1145	5169.9	4278.75
1000.4728	2740.3262	5128.6	4230.1
1000.594	2741.5372	5093.85	4203.55
1000.7152	2742.7475	5063.4	4169.95
1000.8363	2743.9571	5055	4162.7
1000.9575	2745.1661	5053.65	4157.5
1001.0785	2746.3744	5008.8	4114.55
1001.1996	2747.582	5006.9	4115.25
1001.3206	2748.7889	4973.85	4081.4
1001.4415	2749.9952	4949.1	4057.2
1001.5625	2751.2008	4922.9	4032.25
1001.6833	2752.4057	4923.8	4029.25
1001.8042	2753.61	4875.75	3982.4
1001.925	2754.8136	4887.3	3993.95
1002.0458	2756.0165	4867.9	3977.25
1002.1665	2757.2188	4842.75	3951.8
1002.2872	2758.4204	4837.65	3944.55
1002.4078	2759.6213	4835.1	3940.1
1002.5285	2760.8215	4819.05	3923.1
1002.649	2762.0211	4792.1	3897.55
1002.7696	2763.22	4788.55	3892.15
1002.8901	2764.4182	4762.45	3866.25
1003.0106	2765.6158	4739.65	3847.85
1003.131	2766.8127	4722.05	3830.55
1003.2514	2768.009	4712.5	3818.8
1003.3717	2769.2045	4697.35	3805.9
1003.492	2770.3994	4687.55	3792.65
1003.6123	2771.5936	4662.75	3770.25
1003.7325	2772.7872	4652.35	3761.3
1003.8527	2773.9801	4626.05	3732.25
1003.9729	2775.1723	4624.9	3718.5
1004.093	2776.3639	4601.3	3709.8
1004.2131	2777.5548	4573.95	3678.35
1004.3331	2778.745	4570	3677.5
1004.4531	2779.9346	4571.55	3679.3
1004.5731	2781.1235	4559.55	3667.7
1004.693	2782.3117	4548.65	3657
1004.8129	2783.4992	4528.2	3638.3
1004.9328	2784.6861	4517.6	3626.4
1005.0526	2785.8723	4510.4	3615.35
1005.1723	2787.0579	4514.4	3621.15
1005.2921	2788.2428	4529.2	3637.4
1005.4118	2789.427	4494.7	3601.85
1005.5314	2790.6106	4473.35	3582.1
1005.651	2791.7935	4489.45	3595.95
1005.7706	2792.9757	4480.7	3591.45
1005.8902	2794.1573	4493.1	3599.25
1006.0097	2795.3382	4473.6	3581.25
1006.1291	2796.5184	4464.25	3574.55
1006.2485	2797.698	4489.45	3595.35
1006.3679	2798.8769	4484.1	3592.5
1006.4873	2800.0551	4491.7	3599.55
1006.6066	2801.2327	4485.35	3591.3
1006.7258	2802.4096	4492.95	3601.85
1006.8451	2803.5859	4501.95	3610
1006.9642	2804.7615	4514.35	3621.6
1007.0834	2805.9364	4526.95	3638.55
1007.2025	2807.1106	4535	3642.25
1007.3216	2808.2842	4545.4	3652.65
1007.4406	2809.4572	4558.45	3664.85
1007.5596	2810.6294	4603.05	3709.95
1007.6785	2811.801	4628.45	3738.15
1007.7975	2812.972	4651.1	3760.45
1007.9163	2814.1423	4684.35	3792.9
1008.0352	2815.3119	4712.6	3820.55
1008.154	2816.4808	4763.55	3873.55
1008.2727	2817.6491	4812.45	3921.1
1008.3914	2818.8167	4836.05	3945.6
1008.5101	2819.9837	4877.75	3982.6
1008.6288	2821.15	4911.15	4017.7
1008.7474	2822.3157	4952.15	4059.95
1008.8659	2823.4807	4975.4	4084
1008.9844	2824.645	5014.4	4121.75
1009.1029	2825.8086	5048.15	4157.85
1009.2214	2826.9716	5076.35	4187.25
1009.3398	2828.134	5109.35	4220.75
1009.4581	2829.2957	5128.2	4236.65
1009.5764	2830.4567	5139.7	4249.85
1009.6947	2831.617	5149.35	4256.05
1009.813	2832.7767	5167.45	4276.05
1009.9312	2833.9358	5156.15	4264.85
1010.0493	2835.0941	5139.4	4246.45
1010.1675	2836.2519	5131.2	4239.7
1010.2855	2837.4089	5118.1	4225.2
1010.4036	2838.5653	5086.05	4194.2
1010.5216	2839.7211	5075.45	4185.2
1010.6396	2840.8761	5084.8	4190.65
1010.7575	2842.0306	5098.45	4206.55
1010.8754	2843.1843	5137.85	4246.65
1010.9932	2844.3374	5178.8	4287.35
1011.111	2845.4899	5217.75	4326.15
1011.2288	2846.6417	5283.75	4392.4
1011.3465	2847.7928	5366.15	4476.6
1011.4642	2848.9433	5422.6	4531.45
1011.5818	2850.0931	5516.35	4626.2
1011.6995	2851.2422	5571.15	4677.45
1011.817	2852.3907	5642.25	4750.15
1011.9345	2853.5385	5684	4790.15
1012.052	2854.6857	5761.95	4843.45
1012.1695	2855.8323	5780.35	4888.2
1012.2869	2856.9781	5814.6	4924.25
1012.4042	2858.1233	5846.3	4954.6
1012.5216	2859.2679	5896.8	5005.05
1012.6389	2860.4118	5940	5049
1012.7561	2861.555	5969.2	5071.4
1012.8733	2862.6976	5975.9	5081.65
1012.9905	2863.8395	5978	5088.3
1013.1076	2864.9808	6010.35	5117.7
1013.2247	2866.1214	6002.75	5113.25
1013.3417	2867.2614	6028.8	5138.65
1013.4587	2868.4007	6039.25	5145.95
1013.5757	2869.5393	6018.05	5121.9
1013.6926	2870.6773	6024.95	5130.25
1013.8095	2871.8146	6034.6	5138.25
1013.9263	2872.9513	6011	5116.8
1014.0431	2874.0874	6000.8	5108.1
1014.1599	2875.2227	5978.85	5088.25
1014.2766	2876.3574	5963.95	5072.8
1014.3933	2877.4915	5919.6	5029.2
1014.51	2878.6249	5882.1	4991.6
1014.6266	2879.7577	5865.95	4974.9
1014.7431	2880.8898	5831.5	4929.15
1014.8596	2882.0212	5800.05	4908.15
1014.9761	2883.152	5777.85	4886.9
1015.0925	2884.2821	5734.7	4843.5
1015.2089	2885.4116	5743.8	4852.65
1015.3253	2886.5405	5721	4828.85
1015.4416	2887.6686	5712.8	4819.25
1015.5579	2888.7962	5709.15	4821.55
1015.6741	2889.923	5708.95	4817.15
1015.7903	2891.0493	5688.45	4800.25
1015.9065	2892.1748	5709.45	4817.1
1016.0226	2893.2997	5715.1	4822.8
1016.1387	2894.424	5721.8	4829
1016.2547	2895.5476	5732.2	4839.95
1016.3707	2896.6706	5741.95	4852.45
1016.4866	2897.7929	5761.8	4871.25
1016.6025	2898.9145	5777.95	4886.95
1016.7184	2900.0355	5788.35	4895.7
1016.8342	2901.1559	5831.5	4939.55
1016.95	2902.2756	5851.65	4959.6
1017.0658	2903.3946	5874.75	4983.1
1017.1815	2904.513	5884.6	4989.5
1017.2971	2905.6308	5906.6	5014.95
1017.4127	2906.7479	5894.95	5002.35
1017.5283	2907.8643	5926.9	5035.4
1017.6439	2908.9801	5925.85	5034.4
1017.7594	2910.0953	5951.15	5060.65
1017.8748	2911.2098	5920.7	5025.4
1017.9902	2912.3236	5899.65	5001.55
1018.1056	2913.4368	5906.65	5011.7
1018.2209	2914.5494	5851.75	4959.05
1018.3362	2915.6613	5796.2	4898.55
1018.4515	2916.7725	5783.55	4889.5
1018.5667	2917.8831	5763.65	4871
1018.6819	2918.9931	5721.5	4827.6
1018.797	2920.1024	5667.9	4776.6
1018.9121	2921.211	5675.1	4784.25
1019.0271	2922.319	5633.95	4741.8
1019.1421	2923.4264	5612.05	4719.45
1019.2571	2924.5331	5591.7	4699.7
1019.372	2925.6391	5556.25	4665.6
1019.4869	2926.7445	5545.5	4655.15
1019.6017	2927.8493	5532.95	4642.55
1019.7165	2928.9534	5508.8	4616.3
1019.8313	2930.0569	5490.2	4594.35
1019.946	2931.1597	5482.7	4586.8
1020.0606	2932.2619	5468.65	4579.6
1020.1753	2933.3634	5444.15	4551.6
1020.2899	2934.4643	5449.85	4551.65
1020.4044	2935.5645	5406.6	4509.9
1020.5189	2936.6641	5366.35	4470.25
1020.6334	2937.763	5301.9	4412.9
1020.7478	2938.8613	5255.15	4362.05
1020.8622	2939.959	5186.8	4292.05
1020.9765	2941.056	5101.75	4210.8
1021.0908	2942.1523	5029.3	4137.05
1021.2051	2943.248	4916.3	4024.45
1021.3193	2944.3431	4829.8	3937.95
1021.4334	2945.4375	4703.85	3810.9
1021.5476	2946.5313	4598.65	3708.8
1021.6617	2947.6244	4473.95	3581.9
1021.7757	2948.7169	4370.2	3477.65
1021.8897	2949.8087	4257.45	3365.6
1022.0037	2950.8999	4170.75	3279.6
1022.1176	2951.9904	4079.55	3187.9
1022.2315	2953.0803	3996.75	3106.65
1022.3453	2954.1696	3911.2	3021.15
1022.4591	2955.2582	3871.35	2981.7
1022.5728	2956.3462	3816.1	2924.65
1022.6865	2957.4335	3749.25	2857.25
1022.8002	2958.5202	3712.95	2818.8
1022.9138	2959.6062	3688.85	2795
1023.0274	2960.6916	3661.9	2772.35
1023.141	2961.7764	3612.75	2720.95
1023.2545	2962.8605	3591.85	2700.75
1023.3679	2963.9439	3582.3	2690.5
1023.4813	2965.0267	3569.7	2676.95
1023.5947	2966.1089	3570.05	2657.45
1023.708	2967.1905	3531.4	2638.6
1023.8213	2968.2714	3508.3	2619.2
1023.9346	2969.3516	3506.2	2613.65
1024.0478	2970.4312	3508.45	2609.55
1024.1609	2971.5102	3507.9	2616.15
1024.274	2972.5885	3498	2607.5
1024.3871	2973.6662	3503.2	2608
1024.5002	2974.7432	3467.2	2576.3
1024.6132	2975.8196	3459.65	2568.8
1024.7261	2976.8954	3427.95	2539.1
1024.839	2977.9705	3424.05	2533.15
1024.9519	2979.045	3414.6	2523.5
1025.0647	2980.1188	3379.65	2489.85
1025.1775	2981.192	3351.95	2463.1
1025.2902	2982.2645	3306.1	2413.75
1025.4029	2983.3364	3286.5	2396.7
1025.5156	2984.4077	3266.15	2374.35
1025.6282	2985.4783	3221.85	2326.05
1025.7407	2986.5483	3197.1	2307.3
1025.8532	2987.6177	3144.7	2254.9
1025.9657	2988.6864	3099.95	2208.75
1026.0782	2989.7545	3064.9	2171.55
1026.1906	2990.8219	3031.85	2142.35
1026.3029	2991.8887	2992.15	2100.1
1026.4152	2992.9548	2952.7	2060.15
1026.5275	2994.0204	2929.15	2039.05
1026.6397	2995.0852	2889.65	2000.85
1026.7519	2996.1495	2866.1	1971.65
1026.864	2997.2131	2828.7	1938.15
1026.9761	2998.276	2795.7	1903.75
1027.0882	2999.3383	2770.05	1879.2
1027.2002	3000.4	2752.95	1861.5
1027.3122	3001.4611	2723.6	1833.8
1027.4241	3002.5215	2720.1	1829.9
1027.536	3003.5812	2700.35	1810.3
1027.6478	3004.6404	2685.5	1794.2
1027.7596	3005.6989	2667.85	1776
1027.8714	3006.7567	2654.2	1762.2
1027.9831	3007.8139	2647.6	1732.15
1028.0947	3008.8705	2629.15	1737.45
1028.2064	3009.9264	2615.1	1720.9
1028.3179	3010.9818	2596.1	1704.6
1028.4295	3012.0364	2598.35	1707.85
1028.541	3013.0905	2589.5	1697.6
1028.6524	3014.1439	2588.15	1699.45
1028.7638	3015.1966	2583.9	1694.2
1028.8752	3016.2487	2577.85	1686.45
1028.9865	3017.3002	2570.5	1673.9
1029.0978	3018.3511	2552.9	1662.7
1029.209	3019.4013	2548.2	1661
1029.3202	3020.4509	2541.3	1650.1
1029.4314	3021.4998	2543.6	1652.45
1029.5425	3022.5481	2539.9	1649.45
1029.6535	3023.5958	2536	1644.1
1029.7645	3024.6428	2539.1	1648.35
1029.8755	3025.6892	2529.15	1639.7
1029.9864	3026.735	2530.2	1638.7
1030.0973	3027.7802	2523.35	1630.9
1030.2082	3028.8247	2512.2	1622.55
1030.319	3029.8685	2505.1	1615.75
1030.4297	3030.9118	2508.1	1617.35
1030.5404	3031.9544	2507.25	1616.8
1030.6511	3032.9963	2503.15	1612.65
1030.7617	3034.0376	2511	1621.6
1030.8723	3035.0783	2505.65	1613.1
1030.9829	3036.1184	2504.7	1612.5
1031.0934	3037.1578	2504.75	1615.7
1031.2038	3038.1966	2510.25	1619.4
1031.3142	3039.2348	2496	1605.95
1031.4246	3040.2723	2511.05	1611.4
1031.5349	3041.3092	2483.95	1594.9
1031.6452	3042.3455	2478.05	1587.05
1031.7554	3043.3811	2476.15	1585.3
1031.8656	3044.4161	2455.85	1564.2
1031.9758	3045.4505	2462.3	1574
1032.0859	3046.4842	2431.95	1542.75
1032.1959	3047.5173	2425.65	1536.6
1032.3059	3048.5498	2419.15	1528.45
1032.4159	3049.5816	2408.9	1517.2
1032.5258	3050.6128	2407	1514.55
1032.6357	3051.6434	2391.6	1498
1032.7455	3052.6734	2372.15	1479.55
1032.8553	3053.7027	2381.35	1489.65
1032.9651	3054.7314	2354.55	1464.05
1033.0748	3055.7594	2351.7	1464
1033.1845	3056.7868	2336.6	1446.2
1033.2941	3057.8136	2324.2	1434.25
1033.4037	3058.8398	2303.5	1413.9
1033.5132	3059.8653	2305.95	1415.15
1033.6227	3060.8902	2296.6	1406.85
1033.7321	3061.9145	2284.4	1394.4
1033.8415	3062.9381	2279.95	1389.35
1033.9509	3063.9612	2285.55	1378.55
1034.0602	3064.9835	2261.1	1368.85
1034.1694	3066.0053	2238.85	1346.2
1034.2787	3067.0264	2231.7	1342.45
1034.3878	3068.0469	2230.55	1337.6
1034.497	3069.0668	2216.85	1323.35
1034.6061	3070.086	2199.7	1310.25
1034.7151	3071.1046	2194.55	1302.45
1034.8241	3072.1226	2178	1284.9
1034.9331	3073.1399	2163.35	1273.55
1035.042	3074.1567	2153.6	1262.45
1035.1508	3075.1727	2140.25	1247.05
1035.2597	3076.1882	2133.3	1244.85
1035.3684	3077.203	2114	1222.25
1035.4772	3078.2173	2103.35	1210.55
1035.5859	3079.2308	2096.85	1203
1035.6945	3080.2438	2087.65	1195.3
1035.8031	3081.2561	2067.5	1175.85
1035.9117	3082.2678	2052.45	1163.75
1036.0202	3083.2789	2057.55	1166.75
1036.1286	3084.2893	2038.9	1149.15
1036.2371	3085.2991	2019.3	1126.85
1036.3454	3086.3083	2015.8	1121.3
1036.4538	3087.3169	2002.4	1110.8
1036.562	3088.3248	1990.3	1098.8
1036.6703	3089.3321	1991.25	1099.15
1036.7785	3090.3388	1982.85	1095.3
1036.8866	3091.3449	1971.05	1083.5
1036.9948	3092.3503	1974.35	1080.65
1037.1028	3093.3551	1957.45	1070.35
1037.2108	3094.3593	1943.2	1053.05
1037.3188	3095.3629	1940.85	1051.4
1037.4267	3096.3658	1939.8	1047.35
1037.5346	3097.3681	1933.05	1041.7
1037.6425	3098.3698	1921	1028.6
1037.7503	3099.3708	1919.4	1023.75
1037.858	3100.3713	1904.9	1015.8
1037.9657	3101.3711	1901.5	1011.05
1038.0734	3102.3702	1999.2	993
1038.181	3103.3688	1891.25	999.55
1038.2886	3104.3667	1874.45	984.45
1038.3961	3105.364	1877.35	986.9
1038.5036	3106.3607	1873.85	981.3
1038.611	3107.3568	1867.55	974.45
1038.7184	3108.3522	1861.35	972.05
1038.8257	3109.347	1858.85	967.15
1038.933	3110.3412	1851.15	958.2
1039.0403	3111.3348	1840.75	949.1
1039.1475	3112.3277	1834.2	945.85
1039.2547	3113.32	1817.2	928.9
1039.3618	3114.3117	1817.5	928.05
1039.4689	3115.3028	1815.6	926.8
1039.5759	3116.2932	1815.2	921.65
1039.6829	3117.2831	1806.55	911.3
1039.7898	3118.2723	1800.15	908.6
1039.8967	3119.2608	1798	905.95
1040.0035	3120.2488	1791.5	902.45
1040.1103	3121.2361	1790.5	900.5
1040.2171	3122.2229	1773.45	884.2
1040.3238	3123.209	1780.75	889.25
1040.4305	3124.1944	1768.25	878.65
1040.5371	3125.1793	1761.9	872.15
1040.6437	3126.1635	1757.5	868
1040.7502	3127.1471	1759.2	869.8
1040.8567	3128.1301	1748.6	857.85
1040.9631	3129.1125	1744.15	854.45
1041.0695	3130.0942	1746.25	857.9
1041.1759	3131.0753	1746.6	847.35
1041.2822	3132.0558	1738.15	846.4
1041.3884	3133.0357	1733.8	842.8
1041.4946	3134.015	1726.5	835.6
1041.6008	3134.9936	1727.6	834.5
1041.7069	3135.9716	1735.4	823.4
1041.813	3136.949	1714.9	825
1041.919	3137.9258	1712.6	818.3
1042.025	3138.902	1717.4	823.05
1042.1309	3139.8775	1707.45	820
1042.2368	3140.8524	1699.95	808.5
1042.3427	3141.8267	1692.35	801.2
1042.4485	3142.8004	1686.7	796.85
1042.5542	3143.7735	1685.25	787.65
1042.6599	3144.7459	1690.9	798.1
1042.7656	3145.7178	1679.95	791.3
1042.8712	3146.689	1665.2	775.95
1042.9768	3147.6596	1661.4	768.45
1043.0823	3148.6295	1666.85	775.35
1043.1878	3149.5989	1659.7	769
1043.2932	3150.5676	1651.65	762.45
1043.3986	3151.5357	1650.35	762.5
1043.5039	3152.5032	1642.25	753.45
1043.6092	3153.4701	1646.15	754.95
1043.7145	3154.4364	1645	754.55
1043.8197	3155.402	1631.85	744
1043.9248	3156.367	1641.1	747.35
1044.03	3157.3315	1669.1	735
1044.135	3158.2952	1620.05	730.1
1044.24	3159.2584	1612.95	722.05
1044.345	3160.221	1616.6	726.8
1044.4499	3161.1829	1603.6	713.7
1044.5548	3162.1442	1599.2	709.25
1044.6596	3163.105	1594.95	703.35
1044.7644	3164.065	1595.9	707.15
1044.8692	3165.0245	1589.05	696
1044.9739	3165.9834	1583.9	693.25
1045.0785	3166.9416	1578.75	689.6
1045.1831	3167.8993	1570.75	681.3
1045.2877	3168.8563	1568.05	676.75
1045.3922	3169.8127	1567.55	677.9
1045.4966	3170.7684	1561.8	671.4
1045.6011	3171.7236	1555.05	663.65
1045.7054	3172.6782	1558.8	669.6
1045.8098	3173.6321	1555.6	662.9
1045.914	3174.5854	1562.25	668.1
1046.0183	3175.5381	1545.5	656.05
1046.1224	3176.4902	1537.35	647.6
1046.2266	3177.4417	1548	659.3
1046.3307	3178.3926	1535.25	646.6
1046.4347	3179.3428	1534.5	644.25
1046.5387	3180.2924	1534.75	643.55
1046.6427	3181.2415	1530.75	640
1046.7466	3182.1899	1530.5	640.35
1046.8504	3183.1377	1520.2	630.5
1046.9542	3184.0848	1522.75	630.15
1047.058	3185.0314	1514.6	622.75
1047.1617	3185.9773	1511.65	619.35
1047.2654	3186.9227	1509.55	619.2
1047.369	3187.8674	1508.8	620.1
1047.4726	3188.8115	1500.75	607.8
1047.5761	3189.755	1487.25	596.75
1047.6796	3190.6979	1495.7	605.9
1047.783	3191.6402	1491	604.2
1047.8864	3192.5818	1490.35	601.75
1047.9898	3193.5229	1506.95	594.5
1048.0931	3194.4633	1483.75	592.65
1048.1963	3195.4031	1477.45	586.25
1048.2995	3196.3423	1477	586.35
1048.4027	3197.2809	1468.45	576.45
1048.5058	3198.2189	1471.25	582.5
1048.6089	3199.1563	1477	580.4
1048.7119	3200.0931	1468.25	578.5
1048.8148	3201.0292	1458.6	570.2
1048.9178	3201.9648	1461.95	572.15
1049.0206	3202.8997	1464.6	572.1
1049.1235	3203.834	1455.3	566.3
1049.2262	3204.7677	1450.85	561.8
1049.329	3205.7008	1446.8	555.4
1049.4317	3206.6333	1438.55	548.65
1049.5343	3207.5652	1442.85	552.1
1049.6369	3208.4964	1441.5	550.35
1049.7394	3209.4271	1438.85	548.5
1049.8419	3210.3571	1436.45	548.75
1049.9444	3211.2865	1432.75	541.3
1050.0468	3212.2154	1421.7	531.95
1050.1491	3213.1436	1430.05	537.15
1050.2514	3214.0712	1432.2	535.05
1050.3537	3214.9982	1422.6	533.35
1050.4559	3215.9246	1414.05	522.2
1050.5581	3216.8503	1409.45	520.1
1050.6602	3217.7755	1411.05	521.6
1050.7623	3218.7001	1410.2	521
1050.8643	3219.624	1403.8	514.05
1050.9663	3220.5473	1408.65	520.8
1051.0682	3221.4701	1405.4	513.3
1051.1701	3222.3922	1406.3	514.85
1051.2719	3223.3137	1401.35	510.85
1051.3737	3224.2346	1390.35	501.3
1051.4754	3225.1549	1386.15	495.7
1051.5771	3226.0746	1389.5	499.25
1051.6788	3226.9937	1385.15	494.5
1051.7804	3227.9121	1384.45	494.9
1051.8819	3228.83	1381.15	492.05
1051.9834	3229.7473	1371.4	480.2
1052.0849	3230.6639	1377.05	487.4
1052.1863	3231.5799	1365.7	476.95
1052.2876	3232.4954	1372.8	480.3
1052.3889	3233.4102	1372.55	482.85
1052.4902	3234.3244	1364.75	475.8
1052.5914	3235.238	1364.45	475.6
1052.6926	3236.151	1374.5	463.25
1052.7937	3237.0634	1352.6	464.25
1052.8948	3237.9752	1350.55	460.95
1052.9958	3238.8864	1343.55	453.9
1053.0968	3239.797	1346	456.05
1053.1977	3240.7069	1347.95	457.95
1053.2986	3241.6163	1351.35	459.9
1053.3994	3242.5251	1339.75	451.15
1053.5002	3243.4332	1330.85	442.2
1053.6009	3244.3408	1336.05	446
1053.7016	3245.2477	1328.35	440.75
1053.8022	3246.154	1328	438.1
1053.9028	3247.0598	1326.85	436
1054.0034	3247.9649	1320.05	428.35
1054.1039	3248.8694	1317.35	426.95
1054.2043	3249.7733	1315.8	426.6
1054.3047	3250.6766	1313	424.2
1054.4051	3251.5793	1309.9	420.6
1054.5054	3252.4814	1311.9	423.1
1054.6056	3253.3829	1306.4	417.25
1054.7058	3254.2838	1300.65	412.15
1054.806	3255.1841	1299.15	408.95
1054.9061	3256.0838	1296.3	405.6
1055.0061	3256.9829	1287.35	398.6
1055.1062	3257.8814	1290	398.3
1055.2061	3258.7792	1282.9	390.15
1055.306	3259.6765	1279.25	388.3
1055.4059	3260.5731	1276.15	387.8
1055.5057	3261.4692	1269.9	382.8
1055.6055	3262.3647	1267.1	377.1
1055.7052	3263.2595	1261.75	371.45
1055.8049	3264.1538	1258.45	369.7
1055.9045	3265.0474	1253.75	362.8
1056.0041	3265.9404	1249.8	361.2
1056.1036	3266.8329	1243.65	354.05
1056.2031	3267.7247	1245.45	348.3
1056.3025	3268.616	1228.35	339.55
1056.4019	3269.5066	1220.45	330.75
1056.5013	3270.3966	1213.05	321.9
1056.6005	3271.286	1203.8	316.85
