Software Version:	3.9.2.0
Unit SN:	10000200
Spectrometer SN:	6960
Date:	3/6/2024 9:42:43 AM
Data Line Index:	25
Spectral Points:	2048
Integration time (ms):	125
Averages:	20
Delay (ms):	30
Sequence Number:	1
Processing:	dark subtract
Laser Power (mW):	300
Laser Current (mA):	825
Laser Diode Temp (C):	25.1
Laser Case Temp (C):	24
System Temp (C):	23.8
Spectrometer Temp (C):	21.4
CCD Temp (C):	-0.048
Secondary Temp (C):	20.007
Heatsink Temp (C):	17.526
CCDPCB Temp (C):	30.516
SecondaryPCB Temp (C):	25.602

Wavelength	RamanShift	Raw Counts	Dark Subtracted
787.061	30.1047	456	49.75
787.2016	32.3739	456.85	50.7
787.3422	34.6426	461.75	55.5
787.4828	36.9109	468.6	61.3
787.6235	39.1787	474.45	64.8
787.7642	41.4461	481.05	65.45
787.9049	43.7131	487.3	68.5
788.0456	45.9796	495.5	73.2
788.1863	48.2456	504.35	77.85
788.3271	50.5112	514	83
788.4679	52.7764	523.2	90.75
788.6087	55.0411	530.5	94.7
788.7496	57.3054	540.05	98.45
788.8904	59.5692	549.2	105.75
789.0313	61.8326	559.55	114.35
789.1722	64.0955	571.95	122.35
789.3132	66.3579	582.1	127.65
789.4541	68.6199	598	140.3
789.5951	70.8815	626.4	165.75
789.7361	73.1426	690.1	223.7
789.8771	75.4032	827.35	357.25
790.0181	77.6634	1170.25	698.15
790.1592	79.9231	1997.7	1521.8
790.3003	82.1824	3751.2	3270.85
790.4414	84.4412	6816.4	6325.55
790.5825	86.6995	10942	10443.15
790.7237	88.9574	15046.5	14537.75
790.8648	91.2148	18017.15	17500.95
791.006	93.4717	19687.4	19167.7
791.1472	95.7282	20374.95	19850.1
791.2885	97.9842	20766.15	20241.75
791.4297	100.2398	20922.25	20395.1
791.571	102.4949	20975.85	20446.8
791.7123	104.7495	20997.7	20461.15
791.8536	107.0036	20959.2	20424.45
791.9949	109.2573	20995.9	20458.85
792.1363	111.5105	21010.55	20475.05
792.2777	113.7632	20981.8	20444.4
792.4191	116.0154	21013.05	20465.45
792.5605	118.2672	21066.45	20521.85
792.7019	120.5185	21061.6	20515.25
792.8434	122.7693	21122.3	20575
792.9849	125.0197	21176.95	20623.9
793.1264	127.2696	21177.95	20621.6
793.2679	129.519	21250.85	20690.55
793.4094	131.7679	21277.9	20716.15
793.551	134.0163	21343.95	20781.05
793.6926	136.2642	21360.35	20794.9
793.8342	138.5117	21378.75	20808.95
793.9758	140.7587	21403.8	20831.5
794.1175	143.0052	21426.1	20851.75
794.2591	145.2512	21391.65	20816.8
794.4008	147.4967	21396.75	20817.9
794.5425	149.7417	21388.45	20809.05
794.6842	151.9863	21385.55	20803.1
794.826	154.2304	21416.4	20827.2
794.9677	156.4739	21345.85	20751.6
795.1095	158.717	21421.5	20828.9
795.2513	160.9596	21457.9	20859.7
795.3931	163.2017	21428.05	20828.55
795.535	165.4433	21450.8	20848.1
795.6768	167.6844	21457.85	20853.65
795.8187	169.925	21508.15	20901.65
795.9606	172.1651	21429.05	20816.6
796.1025	174.4047	21451.85	20837.05
796.2445	176.6439	21414.2	20798.6
796.3864	178.8825	21416	20795.65
796.5284	181.1206	21484.8	20861.15
796.6704	183.3582	21483	20856.75
796.8124	185.5954	21497.35	20869.75
796.9544	187.832	21550.6	20915.45
797.0965	190.0681	21592.05	20955.85
797.2386	192.3037	21598.75	20961.35
797.3806	194.5388	21609.7	20968.7
797.5228	196.7734	21669.6	21027.6
797.6649	199.0075	21785	21140.95
797.807	201.2411	21893.5	21248.4
797.9492	203.4742	21961.6	21315.25
798.0914	205.7068	22030.45	21375.05
798.2336	207.9389	22037.1	21384.2
798.3758	210.1704	22104	21459.65
798.518	212.4015	22068.7	21435.9
798.6603	214.632	22125.85	21496.65
798.8025	216.862	22150.05	21519.85
798.9448	219.0915	22180.25	21547.95
799.0871	221.3205	22214.7	21579.1
799.2294	223.549	22266.35	21636.3
799.3718	225.777	22330.8	21698.65
799.5141	228.0044	22329.75	21690.7
799.6565	230.2314	22373.25	21731.6
799.7989	232.4578	22386.2	21742.4
799.9413	234.6837	22366.9	21714.1
800.0837	236.909	22399.15	21744.45
800.2262	239.1339	22463.85	21781.05
800.3687	241.3582	22468.05	21804.2
800.5111	243.582	22496.5	21799.15
800.6536	245.8053	22546.95	21866.2
800.7961	248.0281	22531.95	21853.95
800.9387	250.2503	22554.05	21872.15
801.0812	252.472	22584.9	21903
801.2238	254.6932	22626.05	21944.45
801.3664	256.9139	22590	21905.2
801.509	259.134	22624.45	21934.9
801.6516	261.3536	22636.15	21950.2
801.7942	263.5727	22719.45	22031.15
801.9369	265.7912	22685.95	21999.1
802.0795	268.0092	22738	22052.15
802.2222	270.2267	22757.6	22068.7
802.3649	272.4436	22785.75	22093.75
802.5076	274.6601	22818.15	22117.05
802.6504	276.8759	22766.15	22070
802.7931	279.0913	22830.7	22133.3
802.9359	281.3061	22857.4	22158.95
803.0787	283.5204	22907.55	22205.15
803.2215	285.7341	22951.05	22247.65
803.3643	287.9473	23013.65	22298.9
803.5071	290.16	22984.75	22279.35
803.6499	292.3721	22955.4	22254.25
803.7928	294.5837	22948.3	22245.1
803.9357	296.7947	22902.85	22200.75
804.0786	299.0052	22909.4	22207.45
804.2215	301.2152	22862.75	22153.35
804.3644	303.4246	22908.4	22205.05
804.5074	305.6334	22879.25	22171.8
804.6503	307.8418	22853.4	22145.85
804.7933	310.0495	22826.3	22115.35
804.9363	312.2568	22802.05	22093.25
805.0793	314.4635	22702	21988.6
805.2223	316.6696	22685.55	21970.5
805.3653	318.8752	22596.65	21872.5
805.5084	321.0802	22587.15	21867.5
805.6514	323.2847	22598.15	21877.95
805.7945	325.4887	22562.05	21840.8
805.9376	327.692	22541.9	21821.2
806.0807	329.8949	22628.15	21906.4
806.2238	332.0972	22635.15	21911.3
806.367	334.2989	22711.25	21981.7
806.5101	336.5001	22669.7	21939.6
806.6533	338.7007	22676.4	21946.2
806.7965	340.9008	22679.45	21950.95
806.9397	343.1003	22595.65	21864.2
807.0829	345.2992	22602.55	21869.25
807.2261	347.4976	22610.85	21876.55
807.3693	349.6955	22559.7	21821.85
807.5126	351.8927	22634.75	21896.35
807.6559	354.0895	22562.15	21812.45
807.7991	356.2856	22517.1	21776.05
807.9424	358.4812	22503.5	21759.05
808.0857	360.6763	22572.7	21828.1
808.2291	362.8707	22493.8	21746.3
808.3724	365.0646	22525.8	21778.45
808.5158	367.258	22498.45	21748.95
808.6591	369.4508	22484.45	21730.35
808.8025	371.643	22536.35	21783.25
808.9459	373.8346	22450.8	21694.15
809.0893	376.0257	22453.95	21697.25
809.2327	378.2162	22407.4	21649.4
809.3762	380.4062	22429.7	21668.8
809.5196	382.5956	22354.55	21595.35
809.6631	384.7844	22330.15	21576.15
809.8066	386.9726	22273.25	21521.55
809.9501	389.1603	22248.2	21499.95
810.0936	391.3474	22209.45	21420.6
810.2371	393.5339	22203.2	21449.55
810.3806	395.7199	22150.15	21399.75
810.5241	397.9052	22156.25	21402.5
810.6677	400.09	22187	21432.85
810.8113	402.2743	22188.7	21432.65
810.9548	404.4579	22171.4	21417.15
811.0984	406.641	22191.75	21434.45
811.2421	408.8235	22237.75	21477.55
811.3857	411.0054	22284.85	21526.55
811.5293	413.1868	22364.15	21598.7
811.673	415.3675	22386.45	21620.55
811.8166	417.5477	22394.6	21626.6
811.9603	419.7273	22333.5	21558.5
812.104	421.9064	22184.45	21406.9
812.2477	424.0848	22074.45	21300.85
812.3914	426.2627	22005.05	21232
812.5351	428.4399	21933.15	21159.15
812.6788	430.6166	21907.95	21131.45
812.8226	432.7928	21839.1	21060.3
812.9663	434.9683	21766.95	20987.15
813.1101	437.1432	21743.9	20963.65
813.2539	439.3176	21617.2	20837.45
813.3977	441.4914	21553.95	20776.2
813.5415	443.6645	21543.8	20763.15
813.6853	445.8371	21453.65	20673.7
813.8291	448.0091	21396.6	20616.6
813.973	450.1806	21374.15	20591.95
814.1168	452.3514	21254	20469.6
814.2607	454.5216	21293.3	20503.35
814.4046	456.6913	21170.45	20386.15
814.5485	458.8603	21200.15	20415.4
814.6924	461.0288	21219.25	20435.25
814.8363	463.1967	21135.4	20350.4
814.9802	465.3639	21177.5	20391.7
815.1241	467.5306	21111.9	20326.1
815.2681	469.6967	21064.2	20275.55
815.412	471.8622	20995.1	20208.6
815.556	474.0271	20993.9	20208.05
815.7	476.1914	20992	20203.7
815.844	478.3551	20969.6	20181.4
815.988	480.5182	21012.3	20221.65
816.132	482.6807	20999.05	20208.35
816.276	484.8426	21021.45	20233.6
816.4201	487.0039	21065.35	20278.3
816.5641	489.1647	21066.05	20273.2
816.7082	491.3248	21148.15	20353.7
816.8522	493.4843	21078.6	20287.55
816.9963	495.6432	21076.95	20284.6
817.1404	497.8015	20994.2	20200.45
817.2845	499.9592	21038.8	20241.55
817.4286	502.1163	20969.2	20172
817.5727	504.2728	20869.45	20070.95
817.7168	506.4287	20932.8	20137.45
817.861	508.5839	20898.2	20101.7
818.0051	510.7386	20847.55	20050.35
818.1493	512.8927	20843.75	20040.3
818.2935	515.0461	20842.8	20045.3
818.4377	517.199	20864.65	20062.5
818.5818	519.3512	20814.6	20012.85
818.726	521.5029	20851.4	20043.7
818.8703	523.6539	20858.5	20055
819.0145	525.8043	20870.6	20069.4
819.1587	527.9541	20817.05	20010
819.303	530.1033	20767.6	19961.7
819.4472	532.2519	20697.55	19892.05
819.5915	534.3999	20677.4	19870.1
819.7357	536.5472	20634.7	19827.3
819.88	538.694	20634.75	19827.3
820.0243	540.8401	20685.65	19878.45
820.1686	542.9856	20685.75	19876.85
820.3129	545.1305	20629.8	19816.95
820.4572	547.2748	20644.6	19833.65
820.6016	549.4185	20625.25	19812.15
820.7459	551.5615	20610.65	19800.35
820.8902	553.704	20603.85	19793.2
821.0346	555.8458	20541.8	19735.35
821.1789	557.987	20551.1	19741.3
821.3233	560.1276	20553.3	19741.3
821.4677	562.2675	20607.25	19795.95
821.6121	564.4069	20591.25	19779.15
821.7565	566.5456	20596.6	19784.35
821.9009	568.6837	20587.2	19774.8
822.0453	570.8212	20461.2	19650.7
822.1897	572.958	20388.5	19573.7
822.3342	575.0942	20335.35	19523.2
822.4786	577.2299	20255.55	19439.9
822.6231	579.3648	20208.8	19394.8
822.7675	581.4992	20095.05	19282.9
822.912	583.6329	20038.7	19226.45
823.0565	585.766	20015.4	19203.3
823.201	587.8985	20008	19193.95
823.3454	590.0304	19962.95	19137.45
823.4899	592.1616	19975.6	19153.25
823.6345	594.2922	19916.15	19094.85
823.779	596.4222	19861.4	19040.7
823.9235	598.5515	19766.6	18945.15
824.068	600.6802	19743.45	18921.45
824.2126	602.8083	19632.85	18811.3
824.3571	604.9358	19619.4	18796.55
824.5017	607.0626	19577.3	18754.95
824.6462	609.1888	19529.65	18705.7
824.7908	611.3144	19538.75	18714.1
824.9354	613.4393	19486.05	18663.2
825.08	615.5636	19514.6	18691.3
825.2246	617.6873	19541.45	18718.55
825.3692	619.8103	19574.65	18750.2
825.5138	621.9327	19499.5	18673.65
825.6584	624.0544	19526.8	18700.15
825.803	626.1756	19420.75	18595.8
825.9477	628.2961	19398.25	18572
826.0923	630.4159	19333.25	18505.05
826.237	632.5351	19334.5	18506.25
826.3816	634.6537	19267.15	18439.25
826.5263	636.7716	19251.1	18420.2
826.6709	638.8889	19258.8	18430.65
826.8156	641.0056	19259.85	18427
826.9603	643.1216	19275.25	18442.4
827.105	645.237	19285.6	18451.6
827.2497	647.3518	19210.65	18379.6
827.3944	649.4659	19187.75	18358.6
827.5391	651.5793	19157.3	18327.5
827.6838	653.6922	19099.35	18268.65
827.8285	655.8043	19099	18268.7
827.9733	657.9159	19081.45	18251
828.118	660.0268	18996.75	18162.9
828.2627	662.137	18962	18128.55
828.4075	664.2466	18944.1	18110.05
828.5522	666.3556	18929.45	18094.25
828.697	668.4639	18886.1	18049.85
828.8418	670.5716	18896.65	18064.05
828.9865	672.6786	18895.8	18060.4
829.1313	674.785	18836.7	17999.1
829.2761	676.8907	18767.35	17931.35
829.4209	678.9958	18777.45	17944.25
829.5657	681.1002	18714.4	17877.25
829.7105	683.204	18702.25	17860.1
829.8553	685.3072	18678.35	17840.35
830.0001	687.4097	18650.65	17812.75
830.1449	689.5115	18653.15	17812.2
830.2898	691.6127	18589	17750.9
830.4346	693.7132	18554.8	17716.25
830.5794	695.8131	18589.5	17727.95
830.7243	697.9123	18626.65	17786.05
830.8691	700.0109	18542.65	17703.2
831.014	702.1089	18518.5	17676.9
831.1588	704.2061	18520	17681.4
831.3037	706.3028	18528.4	17685.85
831.4486	708.3987	18500.65	17658.1
831.5935	710.4941	18479.15	17637.6
831.7383	712.5887	18474.1	17632.6
831.8832	714.6827	18450.45	17605.35
832.0281	716.7761	18468.45	17625.5
832.173	718.8688	18454.4	17611.4
832.3179	720.9608	18406.4	17558.85
832.4628	723.0522	18387	17539.5
832.6077	725.1429	18356.65	17512.15
832.7527	727.233	18390.95	17546.5
832.8976	729.3224	18428.75	17583.25
833.0425	731.4112	18361.65	17514.2
833.1874	733.4993	18359.7	17513.35
833.3324	735.5867	18280.9	17434.6
833.4773	737.6735	18244	17396.5
833.6222	739.7596	18157.75	17310.35
833.7672	741.845	18119.3	17271.95
833.9122	743.9298	18073.1	17223.25
834.0571	746.014	18043.95	17197.95
834.2021	748.0974	18072.7	17222.85
834.347	750.1802	17999.3	17149.3
834.492	752.2624	17952.05	17104.7
834.637	754.3439	17885.35	17034.2
834.782	756.4247	17831.8	16973.3
834.9269	758.5048	17781.6	16932.2
835.0719	760.5843	17738.05	16887.05
835.2169	762.6631	17710.65	16860.35
835.3619	764.7413	17725.75	16877.4
835.5069	766.8188	17779.6	16928.85
835.6519	768.8956	17714.6	16861.9
835.7969	770.9718	17762.3	16914.8
835.9419	773.0473	17661.3	16811.6
836.0869	775.1221	17631.05	16782.6
836.232	777.1962	17588.5	16737.55
836.377	779.2697	17586.15	16733.55
836.522	781.3426	17572.35	16700.3
836.667	783.4147	17574.5	16722.1
836.8121	785.4862	17547.95	16697.7
836.9571	787.557	17504.1	16653.95
837.1021	789.6271	17416.55	16565.15
837.2472	791.6966	17314.35	16461.55
837.3922	793.7654	17215.55	16362.3
837.5373	795.8335	17204.35	16351.55
837.6823	797.901	17139.85	16284.55
837.8274	799.9678	17096.9	16240.6
837.9724	802.0339	17032.55	16179.6
838.1175	804.0993	17041.85	16178
838.2626	806.1641	16985.05	16131.35
838.4076	808.2282	16967.5	16112.6
838.5527	810.2916	16905.8	16048.1
838.6978	812.3544	16901	16047.55
838.8428	814.4164	16868.75	16013.6
838.9879	816.4778	16917.45	16060.2
839.133	818.5385	16842.1	15986.75
839.2781	820.5986	16842.6	15985.15
839.4232	822.658	16856.8	15999.45
839.5682	824.7166	16815.25	15959.65
839.7133	826.7747	16901.4	16046.55
839.8584	828.832	16905.85	16049.35
840.0035	830.8886	16859.75	16001.8
840.1486	832.9446	16899.7	16040
840.2937	834.9999	16828.4	15973.75
840.4388	837.0545	16748	15886
840.5839	839.1085	16735.45	15875.4
840.729	841.1618	16659.95	15799.75
840.8741	843.2143	16570.5	15713.1
841.0192	845.2662	16498.05	15640.9
841.1643	847.3175	16507.8	15649.3
841.3095	849.368	16422.75	15567.25
841.4546	851.4179	16451.9	15592.65
841.5997	853.467	16363.5	15505.6
841.7448	855.5155	16365.9	15505.4
841.8899	857.5633	16323.8	15464.15
842.0351	859.6105	16294.55	15435.15
842.1802	861.6569	16266.1	15406.65
842.3253	863.7027	16244.85	15381.2
842.4704	865.7478	16218.55	15359.5
842.6156	867.7922	16200.75	15340.85
842.7607	869.8359	16189.5	15328.75
842.9058	871.8789	16170.15	15309.05
843.0509	873.9212	16124.55	15229.15
843.1961	875.9629	16077	15216.75
843.3412	878.0039	16054.45	15193.45
843.4863	880.0441	16038.7	15178.3
843.6315	882.0837	16069.45	15207.25
843.7766	884.1226	16062.65	15200.95
843.9218	886.1609	16076.25	15216.5
844.0669	888.1984	16110.1	15248.3
844.212	890.2352	16152.35	15292.05
844.3572	892.2714	16110.65	15245.15
844.5023	894.3069	16096.75	15233.1
844.6475	896.3416	16023.8	15159.9
844.7926	898.3757	15992.25	15127.4
844.9377	900.4091	15915.6	15050.1
845.0829	902.4418	15915.1	15046.7
845.228	904.4739	15878.95	15013.1
845.3732	906.5052	15862.35	14999.5
845.5183	908.5358	15820.35	14956.5
845.6635	910.5658	15803.15	14937.8
845.8086	912.595	15745	14882.3
845.9538	914.6236	15715.6	14852.35
846.0989	916.6515	15682.65	14820.1
846.2441	918.6786	15621.7	14755.55
846.3892	920.7051	15615	14752
846.5344	922.7309	15609.25	14746.2
846.6795	924.756	15550.6	14683.75
846.8246	926.7804	15557.65	14690.3
846.9698	928.8041	15441.75	14572.65
847.1149	930.8272	15461.6	14594.7
847.2601	932.8495	15399.75	14532.35
847.4052	934.8711	15375.25	14510.4
847.5504	936.892	15335.85	14468.45
847.6955	938.9123	15306.3	14438.55
847.8407	940.9318	15245.7	14382
847.9858	942.9506	15236.3	14369.65
848.131	944.9688	15175.8	14310
848.2761	946.9862	15139.9	14273.2
848.4213	949.003	15081.35	14214.85
848.5664	951.019	15019	14150.5
848.7115	953.0344	14997.5	14131.4
848.8567	955.0491	14953.2	14083.65
849.0018	957.063	14973.7	14108.7
849.147	959.0763	14977.45	14112
849.2921	961.0888	14918.6	14049.7
849.4373	963.1007	14892.05	14024.4
849.5824	965.1119	14880.4	14015.4
849.7275	967.1223	14864.55	14000.5
849.8727	969.1321	14831.85	13967.7
850.0178	971.1412	14820.5	13953.5
850.1629	973.1495	14741.75	13872.85
850.3081	975.1572	14738.55	13825.05
850.4532	977.1641	14731.5	13863.65
850.5983	979.1704	14701.65	13831.75
850.7435	981.1759	14625.65	13752.15
850.8886	983.1808	14626.75	13756.3
851.0337	985.1849	14627.4	13747.15
851.1788	987.1884	14585.85	13712.75
851.324	989.1911	14546.25	13676.4
851.4691	991.1932	14532.5	13663.1
851.6142	993.1945	14460.15	13591.4
851.7593	995.1951	14398.9	13527.95
851.9045	997.1951	14411.45	13538.4
852.0496	999.1943	14334.55	13465.5
852.1947	1001.1928	14316.35	13444.55
852.3398	1003.1906	14262.6	13392.75
852.4849	1005.1877	14225.7	13353.2
852.63	1007.1841	14191.7	13321.05
852.7751	1009.1798	14150.35	13282.3
852.9202	1011.1748	14061.15	13190.6
853.0653	1013.1691	14033.15	13162.05
853.2104	1015.1627	14016.05	13146.3
853.3555	1017.1556	13893.55	13022.35
853.5006	1019.1477	13876.25	13004.4
853.6457	1021.1392	13747.6	12879.25
853.7908	1023.1299	13734.3	12864.15
853.9359	1025.12	13716.5	12843.2
854.081	1027.1093	13646	12779.35
854.2261	1029.0979	13588.75	12722.9
854.3712	1031.0859	13564.05	12695.2
854.5163	1033.0731	13544.8	12673.55
854.6613	1035.0596	13494.9	12626.35
854.8064	1037.0454	13421.85	12551.6
854.9515	1039.0304	13396.15	12524.15
855.0965	1041.0148	13348.6	12478.4
855.2416	1042.9985	13288.05	12414.4
855.3867	1044.9814	13287.55	12417.25
855.5317	1046.9636	13242.35	12367.3
855.6768	1048.9452	13158.7	12288.6
855.8219	1050.926	13149.8	12277.75
855.9669	1052.9061	13146	12277.35
856.112	1054.8855	13102.3	12229.95
856.257	1056.8642	13110.25	12237.35
856.4021	1058.8421	13090.3	12214.4
856.5471	1060.8194	13056.9	12183.2
856.6921	1062.7959	13015.9	12141.75
856.8372	1064.7717	12987.25	12114.3
856.9822	1066.7469	12961	12089.15
857.1272	1068.7213	12933.75	12058.15
857.2723	1070.695	12933.55	12058.65
857.4173	1072.6679	12900.15	12026.85
857.5623	1074.6402	12921.05	12047.45
857.7073	1076.6117	12911.2	12033.35
857.8523	1078.5826	12873.9	12000.15
857.9973	1080.5527	12824.85	11949.65
858.1423	1082.5221	12750.7	11876.25
858.2873	1084.4908	12705.5	11832.15
858.4323	1086.4587	12696.4	11820.8
858.5773	1088.426	12664.75	11791
858.7223	1090.3925	12594.1	11719.15
858.8673	1092.3584	12603.4	11732.3
859.0123	1094.3235	12537.2	11665.8
859.1573	1096.2879	12520.9	11644.95
859.3022	1098.2515	12522.5	11650.5
859.4472	1100.2145	12523.1	11650.4
859.5922	1102.1767	12515.05	11637.65
859.7371	1104.1382	12498.3	11625.85
859.8821	1106.099	12495.05	11618.9
860.027	1108.0591	12498.85	11625.35
860.172	1110.0185	12475.5	11599.95
860.3169	1111.9771	12497.45	11623.1
860.4619	1113.9351	12465.35	11589.5
860.6068	1115.8923	12481.3	11604.8
860.7517	1117.8488	12467.85	11592.1
860.8967	1119.8045	12419.5	11543.65
861.0416	1121.7596	12366.25	11491.15
861.1865	1123.7139	12210.4	11336.4
861.3314	1125.6675	12174.85	11299.55
861.4763	1127.6204	12194.3	11321.95
861.6212	1129.5726	12167.95	11293.55
861.7661	1131.524	12145.45	11273.15
861.911	1133.4748	12110.1	11237.05
862.0559	1135.4248	12022.8	11146.4
862.2008	1137.3741	12005.55	11131.9
862.3457	1139.3226	11949.5	11073.75
862.4905	1141.2705	11943	11069
862.6354	1143.2176	11880.6	11001.25
862.7803	1145.164	11878.3	11000.7
862.9251	1147.1097	11867.25	10992.45
863.07	1149.0546	11835.15	10956.6
863.2148	1150.9989	11816.8	10941.5
863.3597	1152.9424	11799.2	10921.05
863.5045	1154.8852	11758.95	10881.2
863.6493	1156.8272	11729.45	10854.3
863.7942	1158.7686	11753.95	10870.25
863.939	1160.7092	11698.75	10820.45
864.0838	1162.6491	11652.35	10773.9
864.2286	1164.5883	11656.05	10780
864.3734	1166.5267	11637.1	10759.5
864.5182	1168.4644	11620.45	10744.85
864.663	1170.4014	11638.45	10758
864.8078	1172.3377	11675.35	10802.1
864.9526	1174.2732	11691.25	10814.55
865.0974	1176.2081	11715	10840.6
865.2421	1178.1421	11756.55	10877.2
865.3869	1180.0755	11820.5	10945.8
865.5317	1182.0082	11797.8	10920.55
865.6764	1183.9401	11786.3	10909.8
865.8212	1185.8713	11728.9	10851.15
865.9659	1187.8017	11609.5	10732.4
866.1106	1189.7315	11554.8	10680.35
866.2554	1191.6605	11438.25	10563
866.4001	1193.5888	11374.1	10500.55
866.5448	1195.5163	11298.5	10425.05
866.6895	1197.4432	11288.4	10410.5
866.8342	1199.3693	11226.4	10351.25
866.9789	1201.2947	11173.25	10290.4
867.1236	1203.2193	11135.85	10259.25
867.2683	1205.1432	11116.65	10237.8
867.413	1207.0664	11069.45	10191.8
867.5576	1208.9889	11060.3	10178.55
867.7023	1210.9106	11027.4	10149.55
867.847	1212.8316	11000	10122.75
867.9916	1214.7519	10985.3	10099.85
868.1363	1216.6715	10929.25	10053.5
868.2809	1218.5903	10914.95	10038.6
868.4255	1220.5084	10905.25	10028.4
868.5701	1222.4257	10939.1	10062.65
868.7148	1224.3424	10851.8	9976.6
868.8594	1226.2583	10874.75	9990.95
869.004	1228.1735	10845.7	9968.1
869.1486	1230.0879	10829.45	9951.55
869.2932	1232.0016	10831.6	9953.95
869.4377	1233.9146	10819.95	9939.75
869.5823	1235.8269	10794.45	9919.05
869.7269	1237.7384	10835.95	9955.9
869.8715	1239.6492	10758.65	9882.55
870.016	1241.5592	10778.8	9897.95
870.1606	1243.4686	10758.7	9879.6
870.3051	1245.3772	10798.35	9922.05
870.4496	1247.285	10822.25	9943.5
870.5941	1249.1922	10869.6	9991.7
870.7387	1251.0986	10900.45	10022.4
870.8832	1253.0042	10882.6	10004.1
871.0277	1254.9092	10948.75	10070.35
871.1722	1256.8134	10959.15	10082.5
871.3167	1258.7169	11028.6	10148.6
871.4611	1260.6196	11009	10133.35
871.6056	1262.5216	10994.8	10114.45
871.7501	1264.4229	10975	10097.3
871.8945	1266.3234	10970.1	10091.85
872.039	1268.2232	10903.1	10025.25
872.1834	1270.1223	10836.1	9955.1
872.3278	1272.0207	10811.7	9933.2
872.4723	1273.9183	10784.55	9900.35
872.6167	1275.8151	10749.95	9871.75
872.7611	1277.7113	10775.6	9895.65
872.9055	1279.6067	10801.3	9923.4
873.0499	1281.5014	10872.05	9990.9
873.1943	1283.3953	10966.65	10085.4
873.3386	1285.2885	11063.95	10187.35
873.483	1287.181	11151.75	10272.95
873.6274	1289.0727	11200	10324.5
873.7717	1290.9637	11145	10264.55
873.9161	1292.854	11087.4	10209.3
874.0604	1294.7435	10965.6	10085.05
874.2047	1296.6323	10917.8	10038.95
874.349	1298.5204	10840.45	9957.9
874.4933	1300.4077	10780.35	9901.2
874.6376	1302.2943	10745.65	9867.8
874.7819	1304.1802	10740.2	9863.3
874.9262	1306.0653	10679.6	9798
875.0705	1307.9497	10622.8	9744.2
875.2147	1309.8333	10611.35	9732.85
875.359	1311.7162	10602.4	9721.3
875.5032	1313.5984	10562.35	9683.95
875.6475	1315.4798	10495.1	9606.65
875.7917	1317.3605	10510.6	9615.45
875.9359	1319.2405	10501.4	9619.15
876.0801	1321.1197	10482.4	9600.35
876.2243	1322.9982	10405.05	9520.85
876.3685	1324.876	10363.5	9484.25
876.5127	1326.753	10296.9	9418.65
876.6569	1328.6293	10252.95	9373.15
876.801	1330.5048	10188.55	9306.65
876.9452	1332.3796	10103.6	9226.4
877.0893	1334.2537	10070.75	9167.4
877.2335	1336.127	10010.3	9133
877.3776	1337.9996	9992.8	9110.95
877.5217	1339.8714	9956.4	9075.1
877.6658	1341.7426	9958.7	9035
877.8099	1343.6129	9909.5	9028.35
877.954	1345.4826	9851.05	8970.45
878.0981	1347.3515	9844	8961.6
878.2422	1349.2196	9819.45	8939
878.3862	1351.087	9835.65	8954.85
878.5303	1352.9537	9818.55	8938.55
878.6743	1354.8197	9808.9	8928.95
878.8184	1356.6849	9823.85	8943.45
878.9624	1358.5493	9802.35	8921.45
879.1064	1360.4131	9827.2	8945.8
879.2504	1362.276	9814.65	8932.2
879.3944	1364.1383	9798.2	8917.75
879.5384	1365.9998	9805.2	8919.85
879.6823	1367.8606	9744.1	8863.45
879.8263	1369.7206	9747.95	8866.85
879.9702	1371.5799	9731.25	8850.15
880.1142	1373.4384	9679.35	8796.45
880.2581	1375.2962	9652.2	8769.05
880.402	1377.1533	9603.05	8721.05
880.5459	1379.0096	9527.85	8649.45
880.6898	1380.8652	9476.1	8596.3
880.8337	1382.7201	9432.1	8553.4
880.9776	1384.5742	9380.35	8500.05
881.1215	1386.4275	9331.25	8450.7
881.2653	1388.2802	9284.55	8405.65
881.4092	1390.132	9270.5	8391.15
881.553	1391.9832	9251.9	8369.85
881.6968	1393.8336	9203.1	8323.65
881.8406	1395.6832	9189.6	8306.9
881.9844	1397.5322	9125.75	8246.05
882.1282	1399.3803	9103.45	8215.9
882.272	1401.2278	9060.8	8179.05
882.4158	1403.0745	9063.85	8184.6
882.5595	1404.9204	8992.65	8111.9
882.7033	1406.7656	8990.8	8111.05
882.847	1408.6101	8942.25	8061
882.9908	1410.4538	8938.8	8057.8
883.1345	1412.2968	8895.15	8014.7
883.2782	1414.139	8868.4	7988.85
883.4219	1415.9805	8864	7984.85
883.5656	1417.8213	8840.7	7938.4
883.7092	1419.6613	8819.7	7938.15
883.8529	1421.5006	8814.15	7932.6
883.9965	1423.3391	8811.95	7930.3
884.1402	1425.1769	8817	7933.8
884.2838	1427.0139	8855.1	7972.75
884.4274	1428.8502	8870.05	7987.65
884.571	1430.6858	8930.95	8050.75
884.7146	1432.5206	8894.5	8014
884.8582	1434.3547	8886.1	8005.5
885.0018	1436.188	8855.9	7976.35
885.1453	1438.0206	8834.65	7952.9
885.2889	1439.8524	8810.25	7928.3
885.4324	1441.6835	8805.3	7920
885.5759	1443.5139	8784.05	7899
885.7194	1445.3435	8748.8	7866.45
885.8629	1447.1724	8771.7	7892.4
886.0064	1449.0005	8749.45	7869.45
886.1499	1450.8279	8719.9	7838.15
886.2933	1452.6545	8699.55	7819.05
886.4368	1454.4804	8685.95	7805.65
886.5802	1456.3056	8685.45	7796.5
886.7237	1458.13	8666.85	7787.5
886.8671	1459.9536	8637.4	7754.9
887.0105	1461.7766	8633.35	7752.85
887.1539	1463.5987	8560.75	7677.8
887.2972	1465.4202	8513.2	7632.4
887.4406	1467.2409	8443.55	7562.7
887.584	1469.0608	8433.1	7551.55
887.7273	1470.88	8404.45	7520.65
887.8706	1472.6984	8390.15	7510.05
888.0139	1474.5161	8344.8	7460.85
888.1572	1476.3331	8298.75	7420.5
888.3005	1478.1493	8279.1	7396.45
888.4438	1479.9648	8259.85	7380.65
888.5871	1481.7795	8236.75	7356.65
888.7303	1483.5935	8248.3	7367.3
888.8736	1485.4067	8222.25	7342.15
889.0168	1487.2192	8199.6	7317.9
889.16	1489.031	8214.6	7333.5
889.3032	1490.842	8195.9	7316.8
889.4464	1492.6522	8197.9	7318
889.5896	1494.4618	8155.05	7275.15
889.7327	1496.2705	8154.55	7273.75
889.8759	1498.0785	8114.75	7234.6
890.019	1499.8858	8100.6	7220
890.1622	1501.6924	8072.65	7192.45
890.3053	1503.4981	8054.65	7174.05
890.4484	1505.3032	8035.55	7155.65
890.5914	1507.1075	8024.35	7142.95
890.7345	1508.911	7987.05	7104.7
890.8776	1510.7138	7971.8	7089.8
891.0206	1512.5159	7949.85	7068.15
891.1637	1514.3172	7906.75	7026.45
891.3067	1516.1178	7896.3	7015.6
891.4497	1517.9176	7876.05	6994.55
891.5927	1519.7166	7834.7	6954.45
891.7357	1521.515	7817.7	6931.2
891.8786	1523.3126	7797.7	6916.7
892.0216	1525.1094	7791.55	6909.8
892.1645	1526.9055	7726.75	6846.8
892.3074	1528.7008	7695.05	6813.9
892.4503	1530.4954	7670.6	6787.8
892.5932	1532.2893	7646.95	6771.7
892.7361	1534.0824	7604.95	6719.65
892.879	1535.8747	7611.55	6732.3
893.0218	1537.6663	7583.2	6702.3
893.1647	1539.4572	7550.7	6667.4
893.3075	1541.2473	7545.6	6665.1
893.4503	1543.0367	7510.85	6632.4
893.5931	1544.8253	7500.6	6613.7
893.7359	1546.6132	7477.6	6595.7
893.8787	1548.4003	7430.35	6539.5
894.0214	1550.1867	7406.15	6517.05
894.1642	1551.9723	7423.15	6535.7
894.3069	1553.7572	7399.9	6517.15
894.4496	1555.5414	7392.35	6510.75
894.5923	1557.3247	7386.1	6503.8
894.735	1559.1074	7394.65	6516.5
894.8777	1560.8893	7374.9	6495.55
895.0204	1562.6705	7371.75	6491.05
895.163	1564.4509	7359.95	6481.75
895.3056	1566.2305	7369.35	6489.85
895.4482	1568.0094	7387.25	6508.65
895.5908	1569.7876	7362.55	6484.5
895.7334	1571.565	7334.35	6455.6
895.876	1573.3417	7314.8	6437
896.0186	1575.1176	7295	6416.15
896.1611	1576.8928	7283.05	6402.7
896.3036	1578.6672	7251.45	6373.35
896.4461	1580.4409	7264.15	6384.55
896.5886	1582.2138	7267.25	6386.2
896.7311	1583.986	7247.7	6366.95
896.8736	1585.7575	7260.15	6381.85
897.0161	1587.5282	7259.4	6382.5
897.1585	1589.2981	7271.95	6395.8
897.3009	1591.0673	7232.65	6354
897.4433	1592.8358	7235.85	6356
897.5857	1594.6035	7256	6376.65
897.7281	1596.3704	7182.05	6301.5
897.8705	1598.1366	7166.05	6286.1
898.0128	1599.9021	7123.05	6242.9
898.1551	1601.6668	7099.3	6216.2
898.2975	1603.4308	7067.15	6186.65
898.4398	1605.194	7039.2	6154
898.5821	1606.9564	7015.85	6137.7
898.7243	1608.7182	7046.5	6164.1
898.8666	1610.4791	7071.35	6195.3
899.0088	1612.2394	7131.05	6255.6
899.1511	1613.9988	7159.1	6279.15
899.2933	1615.7576	7193.4	6315.95
899.4355	1617.5156	7216.7	6332.15
899.5776	1619.2728	7182.6	6303.3
899.7198	1621.0293	7102.8	6223.75
899.862	1622.785	7022.95	6141.05
900.0041	1624.54	6899.6	6017.75
900.1462	1626.2942	6816.4	5936.55
900.2883	1628.0477	6717.65	5838.05
900.4304	1629.8005	6621.85	5738.65
900.5725	1631.5525	6559.4	5679.25
900.7145	1633.3037	6525.05	5643.95
900.8566	1635.0542	6475.15	5597.35
900.9986	1636.804	6432.6	5553.4
901.1406	1638.553	6476.55	5505.95
901.2826	1640.3013	6382.85	5507.9
901.4245	1642.0488	6315	5436.05
901.5665	1643.7955	6314.2	5437.55
901.7085	1645.5416	6278.9	5398.7
901.8504	1647.2868	6243.4	5368.2
901.9923	1649.0313	6208.6	5330.6
902.1342	1650.7751	6229.8	5347.95
902.2761	1652.5181	6190.55	5313.8
902.4179	1654.2604	6161.8	5282.3
902.5598	1656.0019	6149.65	5271.4
902.7016	1657.7427	6134.25	5253.95
902.8434	1659.4828	6138.85	5260.75
902.9852	1661.222	6148.55	5267.2
903.127	1662.9606	6135.4	5258.2
903.2687	1664.6984	6161	5282.05
903.4105	1666.4354	6164.6	5284.95
903.5522	1668.1717	6107.25	5227.3
903.6939	1669.9072	6051.2	5172.1
903.8356	1671.642	6000.55	5120.9
903.9773	1673.3761	5973	5094.4
904.119	1675.1094	5932.15	5053.25
904.2606	1676.8419	5901.95	5021.9
904.4022	1678.5737	5864.8	4983.65
904.5439	1680.3048	5830.35	4952.45
904.6855	1682.0351	5802.15	4922.4
904.827	1683.7646	5768.3	4886.85
904.9686	1685.4934	5759.9	4880.6
905.1101	1687.2215	5745.85	4867.2
905.2517	1688.9488	5695.75	4817.95
905.3932	1690.6754	5659.85	4780.05
905.5347	1692.4012	5651.2	4771.35
905.6761	1694.1263	5625.6	4747.05
905.8176	1695.8506	5626.7	4748.85
905.9591	1697.5742	5589.45	4710.25
906.1005	1699.297	5569.75	4692.65
906.2419	1701.0191	5551.4	4673.25
906.3833	1702.7404	5534.8	4655.2
906.5246	1704.461	5491.1	4610
906.666	1706.1808	5471.35	4590.85
906.8073	1707.8999	5451.7	4571.5
906.9487	1709.6182	5445.2	4566.3
907.09	1711.3358	5434	4553.15
907.2313	1713.0527	5420.65	4543.8
907.3725	1714.7688	5394.8	4510.5
907.5138	1716.4841	5388.05	4509.75
907.655	1718.1987	5371.65	4487.05
907.7962	1719.9126	5358.65	4482.65
907.9374	1721.6257	5341.85	4461.3
908.0786	1723.338	5332.95	4455.4
908.2198	1725.0496	5310.75	4430.3
908.3609	1726.7605	5302.15	4421.6
908.502	1728.4706	5294.75	4414.8
908.6431	1730.18	5278.1	4399.25
908.7842	1731.8886	5272.9	4395.2
908.9253	1733.5964	5272.85	4388.6
909.0664	1735.3036	5263	4384.1
909.2074	1737.0099	5258.9	4378.8
909.3484	1738.7156	5231.2	4354.15
909.4894	1740.4204	5214.95	4331.6
909.6304	1742.1246	5214.3	4335.25
909.7714	1743.8279	5213.15	4337.05
909.9123	1745.5306	5214.9	4335.3
910.0532	1747.2325	5190.85	4311.7
910.1941	1748.9336	5176.3	4298.55
910.335	1750.634	5169.35	4287.85
910.4759	1752.3336	5157.6	4279.75
910.6168	1754.0325	5160.15	4282
910.7576	1755.7307	5150.2	4273.1
910.8984	1757.4281	5142.95	4263.15
911.0392	1759.1247	5144.4	4257.15
911.18	1760.8206	5130.9	4247.95
911.3208	1762.5158	5134.65	4251.05
911.4615	1764.2102	5111.8	4234.35
911.6022	1765.9039	5091.35	4211.95
911.7429	1767.5968	5101.35	4222.1
911.8836	1769.289	5068.65	4190.35
912.0243	1770.9804	5037.05	4156.35
912.1649	1772.6711	5057.9	4178.35
912.3056	1774.361	5039.75	4160.8
912.4462	1776.0502	5044.95	4164.25
912.5868	1777.7386	5040.25	4160.35
912.7274	1779.4263	5026.05	4148.15
912.8679	1781.1132	5009.25	4132.55
913.0084	1782.7994	4991.85	4111.2
913.149	1784.4849	4995.05	4118.25
913.2895	1786.1696	4994.25	4098.4
913.4299	1787.8535	4964.85	4086.9
913.5704	1789.5367	4952.75	4075.1
913.7108	1791.2192	4956.7	4078.05
913.8513	1792.9009	4969.3	4058.8
913.9917	1794.5818	4922.9	4043.45
914.132	1796.2621	4921.6	4045.05
914.2724	1797.9415	4905.85	4028.45
914.4128	1799.6202	4895.35	4015.8
914.5531	1801.2982	4888.4	4008.15
914.6934	1802.9755	4866.5	3985.5
914.8337	1804.6519	4853	3974.15
914.9739	1806.3277	4827.9	3952.55
915.1142	1808.0027	4810.35	3932.25
915.2544	1809.6769	4822.3	3943.4
915.3946	1811.3504	4813.25	3934.75
915.5348	1813.0231	4802.5	3924.4
915.675	1814.6951	4803.05	3925.65
915.8151	1816.3664	4805.35	3924.1
915.9553	1818.0369	4788.75	3909.65
916.0954	1819.7067	4763.8	3885
916.2355	1821.3757	4757.45	3877.45
916.3755	1823.044	4767.95	3888.95
916.5156	1824.7115	4741.2	3861.1
916.6556	1826.3783	4726.4	3848.3
916.7956	1828.0443	4727.25	3851.45
916.9356	1829.7096	4718.05	3836.95
917.0756	1831.3741	4714.4	3834.25
917.2155	1833.0379	4699.95	3822.2
917.3555	1834.701	4694.75	3815.35
917.4954	1836.3633	4682.95	3803.9
917.6353	1838.0248	4669.5	3788.25
917.7751	1839.6856	4648.65	3771.15
917.915	1841.3457	4647.45	3771.55
918.0548	1843.005	4637.15	3758.25
918.1946	1844.6636	4624.45	3747.65
918.3344	1846.3214	4614	3736.05
918.4742	1847.9785	4629.95	3751.7
918.6139	1849.6349	4621.65	3740.05
918.7537	1851.2904	4604.95	3716.2
918.8934	1852.9453	4603.05	3722.2
919.0331	1854.5994	4581.85	3701.25
919.1727	1856.2528	4581.7	3697.45
919.3124	1857.9054	4555.05	3677.3
919.452	1859.5572	4548.8	3672.55
919.5916	1861.2083	4552.05	3672.6
919.7312	1862.8587	4548.5	3668.95
919.8708	1864.5084	4529.1	3649
920.0103	1866.1572	4536.2	3657.25
920.1498	1867.8054	4504.35	3626.25
920.2893	1869.4528	4510.65	3631.05
920.4288	1871.0994	4494.6	3613.6
920.5683	1872.7453	4494.25	3614.45
920.7077	1874.3905	4481	3597.45
920.8471	1876.0349	4459.2	3578.8
920.9865	1877.6786	4453.8	3573.35
921.1259	1879.3215	4467.35	3586.95
921.2653	1880.9637	4464.2	3583.55
921.4046	1882.6051	4453.2	3574.2
921.5439	1884.2458	4435.05	3554.85
921.6832	1885.8858	4419.4	3543
921.8225	1887.525	4417.15	3538.45
921.9617	1889.1634	4399.9	3520.8
922.101	1890.8011	4401.95	3522.1
922.2402	1892.4381	4387.5	3508.2
922.3794	1894.0743	4377.45	3498.5
922.5185	1895.7098	4369.1	3490.15
922.6577	1897.3446	4368.5	3488.6
922.7968	1898.9786	4365.4	3482.6
922.9359	1900.6118	4355.4	3477.7
923.075	1902.2443	4333.75	3454.35
923.214	1903.8761	4331	3452.1
923.3531	1905.5071	4310.8	3432.25
923.4921	1907.1374	4313.6	3433.85
923.6311	1908.7669	4297.75	3420.1
923.77	1910.3957	4291.7	3412.65
923.909	1912.0237	4286.1	3406.15
924.0479	1913.651	4261.45	3381.05
924.1868	1915.2776	4256.5	3380.6
924.3257	1916.9034	4237.55	3361.25
924.4646	1918.5285	4215.4	3338.65
924.6034	1920.1528	4212.85	3334.9
924.7422	1921.7764	4203.6	3323.75
924.881	1923.3992	4184.25	3305.75
925.0198	1925.0213	4172.25	3293
925.1586	1926.6427	4155.95	3278
925.2973	1928.2633	4337.1	3244.65
925.436	1929.8832	4189.9	3309.85
925.5747	1931.5023	4141.45	3263.5
925.7134	1933.1207	4133.35	3256
925.852	1934.7383	4127.05	3250.05
925.9906	1936.3552	4103.95	3225.05
926.1292	1937.9714	4109.6	3231.4
926.2678	1939.5868	4086.05	3205.4
926.4064	1941.2015	4082.65	3203.85
926.5449	1942.8154	4061.1	3181.45
926.6834	1944.4286	4047.05	3168.6
926.8219	1946.041	4061.7	3163.6
926.9604	1947.6528	4035.2	3151.85
927.0988	1949.2637	4025.15	3149.1
927.2372	1950.8739	4019.35	3139.8
927.3756	1952.4834	3996	3116.15
927.514	1954.0921	4007.3	3126.8
927.6523	1955.7001	4000	3117.4
927.7907	1957.3074	3993	3116.45
927.929	1958.9139	3973.95	3096.1
928.0673	1960.5197	3961.7	3079.65
928.2055	1962.1247	3946.9	3070.7
928.3438	1963.729	3948.95	3070.8
928.482	1965.3325	3948.1	3043.4
928.6202	1966.9353	3922.75	3046.3
928.7584	1968.5374	3917.55	3038.6
928.8965	1970.1387	3904.45	3024.75
929.0346	1971.7393	3885.25	3004.25
929.1727	1973.3392	3893.85	3017.05
929.3108	1974.9383	3882.65	3005.7
929.4489	1976.5366	3866.3	2987.8
929.5869	1978.1342	3862.8	2985.55
929.7249	1979.7311	3843.25	2965.15
929.8629	1981.3273	3837.75	2960.1
930.0009	1982.9227	3827.15	2947.65
930.1388	1984.5173	3848.35	2971.3
930.2767	1986.1112	3816.05	2939.1
930.4146	1987.7044	3800.9	2925.05
930.5525	1989.2968	3807.75	2927.2
930.6904	1990.8885	3802.4	2919.25
930.8282	1992.4795	3793.15	2915.05
930.966	1994.0697	3799.2	2920.95
931.1038	1995.6592	3802.95	2926.3
931.2415	1997.2479	3767.1	2888.8
931.3793	1998.8359	3773.95	2897.1
931.517	2000.4232	3748.65	2872.5
931.6547	2002.0097	3754.8	2879.9
931.7923	2003.5955	3743.2	2867.1
931.93	2005.1805	3722.85	2844
932.0676	2006.7648	3728.8	2854.05
932.2052	2008.3484	3729.6	2852.55
932.3427	2009.9312	3716.85	2838.7
932.4803	2011.5133	3718.25	2842
932.6178	2013.0946	3698.45	2820.75
932.7553	2014.6752	3688.9	2813.75
932.8928	2016.2551	3686.4	2809.15
933.0302	2017.8342	3685.2	2808.3
933.1676	2019.4126	3668.15	2791.3
933.305	2020.9902	3662.25	2787.85
933.4424	2022.5672	3655.35	2778.8
933.5798	2024.1433	3653.15	2771.65
933.7171	2025.7188	3646.2	2770.15
933.8544	2027.2935	3628	2750.5
933.9917	2028.8674	3620.4	2744.5
934.129	2030.4406	3636.6	2759.95
934.2662	2032.0131	3612.5	2737.85
934.4034	2033.5849	3615.05	2734.5
934.5406	2035.1559	3610.55	2736.9
934.6778	2036.7261	3612	2737.65
934.8149	2038.2957	3606.85	2730.4
934.952	2039.8645	3596.35	2721.1
935.0891	2041.4325	3596.55	2717.35
935.2262	2042.9998	3590.8	2715.85
935.3632	2044.5664	3591	2712.15
935.5002	2046.1323	3585.15	2708.55
935.6372	2047.6974	3566.65	2690.25
935.7742	2049.2617	3558.55	2683.7
935.9111	2050.8254	3573.65	2692
936.048	2052.3883	3559.1	2679.8
936.1849	2053.9504	3545.4	2668.1
936.3218	2055.5118	3551.35	2672.9
936.4586	2057.0725	3529.55	2648.8
936.5955	2058.6325	3524.9	2649.8
936.7323	2060.1917	3532.45	2657.2
936.869	2061.7502	3528.45	2649.7
937.0058	2063.3079	3521.9	2645.3
937.1425	2064.8649	3502.7	2623.9
937.2792	2066.4212	3507.4	2630.3
937.4159	2067.9767	3506.7	2630.35
937.5525	2069.5315	3484.65	2609.4
937.6891	2071.0856	3485.3	2609.85
937.8257	2072.6389	3480.05	2602.3
937.9623	2074.1915	3460.4	2584.7
938.0989	2075.7433	3453.3	2575.3
938.2354	2077.2945	3466.15	2589.65
938.3719	2078.8448	3461.65	2585.35
938.5084	2080.3945	3446.55	2570.4
938.6448	2081.9434	3438.75	2560.95
938.7812	2083.4916	3434.15	2555.9
938.9176	2085.039	3420.15	2540.95
939.054	2086.5857	3407.4	2530.4
939.1903	2088.1317	3430.25	2553
939.3267	2089.677	3424.2	2545.05
939.463	2091.2215	3403.05	2526.05
939.5992	2092.7652	3405	2527.2
939.7355	2094.3083	3394.55	2517.4
939.8717	2095.8506	3406.35	2529.35
940.0079	2097.3921	3397.7	2522.1
940.1441	2098.933	3397.9	2520.75
940.2802	2100.4731	3379.5	2501.05
940.4163	2102.0124	3395.1	2500.6
940.5524	2103.5511	3381.1	2503.65
940.6885	2105.089	3373.8	2497.6
940.8245	2106.6261	3377.3	2499.3
940.9606	2108.1626	3364.05	2487.3
941.0965	2109.6983	3377.1	2471.75
941.2325	2111.2332	3368.1	2492.1
941.3684	2112.7675	3348.2	2471
941.5044	2114.301	3355.55	2476.7
941.6403	2115.8337	3356.7	2477.7
941.7761	2117.3657	3353.05	2475.95
941.912	2118.897	3335.8	2458.05
942.0478	2120.4276	3337.4	2454.4
942.1835	2121.9575	3324.75	2448.75
942.3193	2123.4866	3335.15	2456.25
942.455	2125.0149	3323.2	2441.85
942.5907	2126.5426	3309.5	2433.15
942.7264	2128.0695	3302	2419.2
942.8621	2129.5956	3300.75	2425.15
942.9977	2131.1211	3287.45	2406.65
943.1333	2132.6458	3285.45	2411.5
943.2689	2134.1698	3281.25	2405.7
943.4044	2135.693	3273.55	2392.9
943.54	2137.2155	3275.95	2397.75
943.6755	2138.7373	3268.65	2392.2
943.8109	2140.2584	3269.55	2393.7
943.9464	2141.7787	3267.5	2386.75
944.0818	2143.2983	3243.35	2370.8
944.2172	2144.8171	3229.15	2352.4
944.3526	2146.3353	3231.65	2354.05
944.4879	2147.8527	3227.5	2350.9
944.6232	2149.3693	3230.15	2353.7
944.7585	2150.8853	3216.2	2340.15
944.8938	2152.4005	3206.65	2329.15
945.029	2153.9149	3198.6	2321.05
945.1642	2155.4287	3204.35	2330.15
945.2994	2156.9417	3201.95	2324.15
945.4346	2158.454	3198.2	2318.8
945.5697	2159.9655	3187.3	2311.05
945.7048	2161.4764	3180.25	2303.45
945.8399	2162.9865	3184.25	2307.7
945.9749	2164.4958	3157.7	2277.85
946.1099	2166.0045	3170.85	2291.95
946.2449	2167.5124	3177.35	2300.35
946.3799	2169.0195	3160.1	2283.5
946.5148	2170.526	3147.15	2269.8
946.6498	2172.0317	3142.75	2266.05
946.7846	2173.5367	3142.3	2264.95
946.9195	2175.0409	3136.25	2258.5
947.0543	2176.5445	3142.65	2265.45
947.1891	2178.0473	3119.95	2241.35
947.3239	2179.5494	3120.95	2238.95
947.4587	2181.0507	3112.95	2235.55
947.5934	2182.5513	3106.7	2229.8
947.7281	2184.0512	3108.15	2230.2
947.8628	2185.5504	3093.55	2217.75
947.9974	2187.0488	3080.15	2203.1
948.132	2188.5465	3084.2	2207.1
948.2666	2190.0435	3074.05	2197.8
948.4012	2191.5397	3053.2	2177.6
948.5357	2193.0353	3045.1	2167.9
948.6702	2194.5301	3034.9	2156.7
948.8047	2196.0241	3035.35	2158.35
948.9392	2197.5175	3044.25	2165.3
949.0736	2199.0101	3022.6	2141.15
949.208	2200.502	3016.2	2140.25
949.3424	2201.9931	3013.45	2136.7
949.4767	2203.4835	3001.35	2124
949.611	2204.9733	3014.8	2131.8
949.7453	2206.4622	3008	2132.15
949.8796	2207.9505	2996.15	2116.75
950.0138	2209.438	2987.65	2112.65
950.148	2210.9248	2977.9	2100.55
950.2822	2212.4109	2969.05	2092.6
950.4164	2213.8962	2964.95	2085.9
950.5505	2215.3809	2960.95	2081.8
950.6846	2216.8648	2958.45	2081.15
950.8186	2218.3479	2957.85	2076.4
950.9527	2219.8304	2950.55	2070.5
951.0867	2221.3121	2935.35	2056.45
951.2207	2222.7931	2924	2048.05
951.3546	2224.2733	2914.85	2036.85
951.4886	2225.7529	2917	2038.5
951.6225	2227.2317	2905.95	2025.75
951.7563	2228.7098	2899.75	2024.3
951.8902	2230.1872	2899.8	2023.65
952.024	2231.6638	2899.6	2023.9
952.1578	2233.1397	2889.3	2008
952.2916	2234.6149	2882.9	2007.7
952.4253	2236.0894	2874.85	1997.8
952.559	2237.5632	2882.1	1996.75
952.6927	2239.0362	2852.4	1975.35
952.8263	2240.5085	2857.25	1980.7
952.9599	2241.9801	2847.25	1969.95
953.0935	2243.4509	2839.95	1963.65
953.2271	2244.921	2836.45	1957.4
953.3606	2246.3904	2830.65	1950.45
953.4941	2247.8591	2821.35	1945.25
953.6276	2249.3271	2811.7	1935.7
953.7611	2250.7943	2803.95	1925.55
953.8945	2252.2608	2804.05	1926.65
954.0279	2253.7266	2790.5	1913.25
954.1612	2255.1917	2777.75	1900
954.2946	2256.656	2788.65	1912.2
954.4279	2258.1197	2776.6	1901.4
954.5612	2259.5826	2769	1888.35
954.6944	2261.0447	2771.65	1894.6
954.8276	2262.5062	2768.3	1889.3
954.9608	2263.9669	2755.55	1876.9
955.094	2265.4269	2764.5	1886.6
955.2271	2266.8862	2757.4	1883.05
955.3602	2268.3448	2755.9	1880.55
955.4933	2269.8026	2741.4	1864.15
955.6264	2271.2598	2733.65	1856.25
955.7594	2272.7162	2741.4	1865.8
955.8924	2274.1719	2719.1	1843.45
956.0253	2275.6268	2714.45	1835.65
956.1583	2277.0811	2723.05	1844.55
956.2912	2278.5346	2714.25	1837.3
956.4241	2279.9874	2701.05	1825.55
956.5569	2281.4395	2695.95	1821.35
956.6897	2282.8908	2696	1815.3
956.8225	2284.3414	2681.75	1803.25
956.9553	2285.7914	2682.15	1806.25
957.088	2287.2406	2686.15	1807.25
957.2207	2288.689	2676.25	1798.85
957.3534	2290.1368	2671.1	1793.35
957.486	2291.5838	2667.05	1788.25
957.6186	2293.0302	2679.7	1800.7
957.7512	2294.4758	2653.05	1775.6
957.8838	2295.9206	2643.35	1764.8
958.0163	2297.3648	2646.15	1769.85
958.1488	2298.8082	2646.3	1768.45
958.2813	2300.251	2638.45	1761.15
958.4137	2301.693	2643.6	1764.45
958.5461	2303.1343	2613.25	1734.35
958.6785	2304.5748	2605.65	1730.65
958.8108	2306.0147	2611.85	1733.2
958.9432	2307.4538	2606.9	1729.2
959.0754	2308.8922	2595.15	1718.9
959.2077	2310.3299	2592	1714.8
959.3399	2311.7669	2588.8	1711.25
959.4721	2313.2031	2581.75	1704.25
959.6043	2314.6387	2566.25	1689.15
959.7365	2316.0735	2572.2	1694.15
959.8686	2317.5076	2564.8	1688.3
960.0006	2318.941	2564.35	1685.35
960.1327	2320.3737	2552.85	1676
960.2647	2321.8056	2553.4	1674
960.3967	2323.2369	2557.8	1679.8
960.5287	2324.6674	2551.2	1670.15
960.6606	2326.0972	2538.95	1660.9
960.7925	2327.5263	2536.05	1659.65
960.9244	2328.9547	2529.25	1650.95
961.0562	2330.3823	2518.9	1640.1
961.1881	2331.8092	2528.8	1647
961.3198	2333.2355	2528	1650.65
961.4516	2334.661	2503.05	1626.15
961.5833	2336.0858	2499.95	1621.5
961.715	2337.5098	2494.35	1616.7
961.8467	2338.9332	2502.6	1625.5
961.9783	2340.3558	2484.75	1604.05
962.1099	2341.7778	2484.3	1606.95
962.2415	2343.199	2478.55	1599.85
962.373	2344.6195	2464.75	1588.8
962.5045	2346.0393	2463.9	1587
962.636	2347.4583	2459.35	1581.35
962.7675	2348.8767	2463.45	1585.95
962.8989	2350.2943	2456.5	1578.25
963.0303	2351.7113	2452.9	1575.55
963.1617	2353.1275	2444	1566.25
963.293	2354.543	2450.2	1561.85
963.4243	2355.9578	2431.75	1553.75
963.5556	2357.3718	2434.05	1555.6
963.6868	2358.7852	2420.9	1542.75
963.818	2360.1978	2420.7	1540.9
963.9492	2361.6098	2416.3	1539.8
964.0803	2363.021	2399.7	1519
964.2114	2364.4315	2397.05	1519.25
964.3425	2365.8413	2398.55	1518.6
964.4736	2367.2504	2383.55	1506.7
964.6046	2368.6587	2375	1496.8
964.7356	2370.0664	2368.4	1489
964.8666	2371.4733	2371.3	1493.4
964.9975	2372.8795	2359.55	1482.7
965.1284	2374.285	2351.85	1474.2
965.2593	2375.6899	2343.45	1466.75
965.3901	2377.0939	2343.7	1464.7
965.5209	2378.4973	2335.75	1460.95
965.6517	2379.9	2337.1	1456.5
965.7825	2381.3019	2317.5	1440.8
965.9132	2382.7032	2326.2	1449.95
966.0439	2384.1037	2316.1	1439.45
966.1745	2385.5035	2306.2	1429.8
966.3051	2386.9027	2301.9	1423.75
966.4357	2388.3011	2298.1	1416.55
966.5663	2389.6987	2294.45	1416.6
966.6968	2391.0957	2293.2	1415.05
966.8273	2392.492	2277.95	1401.55
966.9578	2393.8876	2271.85	1393.75
967.0882	2395.2824	2255.85	1378.55
967.2186	2396.6765	2259.05	1380.95
967.349	2398.07	2259.25	1382.1
967.4793	2399.4627	2249.2	1369.25
967.6097	2400.8547	2250.7	1372.7
967.7399	2402.246	2259.95	1373.8
967.8702	2403.6366	2224.65	1345.25
968.0004	2405.0265	2229.05	1351.6
968.1306	2406.4156	2231.5	1349.2
968.2607	2407.8041	2222.35	1340
968.3909	2409.1918	2214.55	1333.1
968.521	2410.5789	2214.55	1334.5
968.651	2411.9652	2201.45	1322.65
968.781	2413.3508	2196.1	1317.1
968.911	2414.7358	2184.2	1306
969.041	2416.12	2187.8	1308.7
969.1709	2417.5035	2179.35	1303.15
969.3008	2418.8863	2170.55	1291.65
969.4307	2420.2684	2179.15	1299.45
969.5606	2421.6497	2158.45	1278.9
969.6904	2423.0304	2155.75	1277.4
969.8201	2424.4104	2156.7	1277.75
969.9499	2425.7896	2147.2	1266.6
970.0796	2427.1682	2142.65	1264.35
970.2093	2428.546	2145.05	1267
970.3389	2429.9232	2141.05	1259.7
970.4685	2431.2996	2136.6	1259.5
970.5981	2432.6753	2134.6	1257.05
970.7277	2434.0503	2123.9	1246.7
970.8572	2435.4246	2119.45	1241.55
970.9867	2436.7982	2119.9	1236.75
971.1161	2438.1711	2116.1	1238.05
971.2456	2439.5433	2107.65	1229.65
971.375	2440.9148	2099.8	1215.05
971.5043	2442.2856	2102.4	1224.55
971.6336	2443.6557	2107	1227.45
971.7629	2445.025	2086.6	1208.4
971.8922	2446.3937	2093.45	1216.25
972.0214	2447.7617	2087	1206.75
972.1506	2449.1289	2077.75	1198.7
972.2798	2450.4955	2084.5	1202.65
972.4089	2451.8613	2073.1	1198.35
972.538	2453.2265	2061.6	1182.25
972.6671	2454.5909	2069.4	1190.55
972.7961	2455.9546	2067.95	1190.5
972.9251	2457.3177	2060.9	1183.9
973.0541	2458.68	2055.45	1176.2
973.1831	2460.0416	2055.15	1178.85
973.312	2461.4025	2056.85	1177
973.4408	2462.7627	2053.05	1163.4
973.5697	2464.1222	2034.45	1158.25
973.6985	2465.4811	2032.25	1154.6
973.8273	2466.8392	2031.8	1152.75
973.956	2468.1966	2030.75	1150.85
974.0847	2469.5533	2029.3	1149.4
974.2134	2470.9093	2031.05	1150.25
974.3421	2472.2645	2025.35	1144.3
974.4707	2473.6191	2026.5	1151.2
974.5993	2474.973	2002.95	1126.3
974.7278	2476.3262	2013	1131.95
974.8563	2477.6787	2002.05	1124
974.9848	2479.0305	1996.45	1116.75
975.1132	2480.3816	1997.45	1116.75
975.2417	2481.7319	1992.95	1116.35
975.37	2483.0816	1982.7	1103.85
975.4984	2484.4306	1980.75	1101.5
975.6267	2485.7789	1968.65	1093.55
975.755	2487.1264	1965.7	1085.7
975.8833	2488.4733	1959.65	1081.55
976.0115	2489.8195	1966	1080.9
976.1397	2491.165	1960.15	1078.8
976.2678	2492.5097	1954.5	1072.7
976.3959	2493.8538	1951.3	1073.5
976.524	2495.1972	1939.4	1060.35
976.6521	2496.5398	1941.45	1060.55
976.7801	2497.8818	1940.8	1061.1
976.9081	2499.2231	1941.75	1063.95
977.036	2500.5637	1940.7	1060.15
977.164	2501.9035	1923.6	1046.8
977.2918	2503.2427	1927.6	1044.9
977.4197	2504.5812	1923.45	1046.5
977.5475	2505.919	1914.65	1033.65
977.6753	2507.256	1906.75	1029.1
977.8031	2508.5924	1911.35	1033.7
977.9308	2509.9281	1906.9	1022.45
978.0585	2511.2631	1909.05	1033.25
978.1861	2512.5974	1901.95	1024.7
978.3137	2513.9309	1900.25	1022.05
978.4413	2515.2638	1916.2	1009.45
978.5689	2516.596	1881.6	1005.4
978.6964	2517.9275	1875.15	996.05
978.8239	2519.2583	1876.25	996.65
978.9513	2520.5884	1872.95	991.65
979.0788	2521.9178	1876.65	997.45
979.2062	2523.2465	1876.9	998.5
979.3335	2524.5745	1861.55	982.3
979.4608	2525.9018	1854	976.3
979.5881	2527.2284	1859.1	982.55
979.7154	2528.5543	1851.05	973.05
979.8426	2529.8796	1850.2	971.95
979.9698	2531.2041	1850.9	971.3
980.0969	2532.5279	1848.6	972.15
980.224	2533.851	1843.15	966.15
980.3511	2535.1735	1826.25	947.95
980.4781	2536.4952	1830.85	952.9
980.6052	2537.8163	1842.35	964.9
980.7321	2539.1366	1827.9	950.55
980.8591	2540.4562	1817.55	939.45
980.986	2541.7752	1822.75	945.4
981.1129	2543.0935	1825	946.65
981.2397	2544.411	1821.95	943.25
981.3665	2545.7279	1812.15	934.95
981.4933	2547.0441	1812.5	934.2
981.62	2548.3596	1818.5	939.3
981.7467	2549.6744	1804.5	927
981.8734	2550.9885	1810.9	925.65
982.0001	2552.3019	1805.05	926.5
982.1267	2553.6146	1803.95	925.6
982.2532	2554.9266	1790.95	912.3
982.3798	2556.2379	1796.5	915.35
982.5063	2557.5485	1787.7	910.45
982.6327	2558.8585	1796.7	911.5
982.7592	2560.1677	1794	913.15
982.8856	2561.4762	1778.35	900.4
983.0119	2562.7841	1789.35	907.7
983.1383	2564.0913	1787.25	910.2
983.2646	2565.3977	1777.5	899.7
983.3908	2566.7035	1769.5	891.05
983.517	2568.0086	1774.15	894.9
983.6432	2569.313	1760.35	883.05
983.7694	2570.6167	1771.95	890.3
983.8955	2571.9197	1763.7	888.35
984.0216	2573.222	1775.15	892.7
984.1476	2574.5236	1768.8	889.8
984.2737	2575.8246	1762.75	880.95
984.3996	2577.1248	1766.65	886.9
984.5256	2578.4244	1754.3	877.9
984.6515	2579.7232	1753.3	874.7
984.7774	2581.0214	1773.5	868.85
984.9032	2582.3189	1748.05	871.8
985.029	2583.6157	1750.75	867.8
985.1548	2584.9118	1748.95	873.5
985.2806	2586.2072	1741.95	863.8
985.4063	2587.5019	1738.8	861.3
985.5319	2588.7959	1724.35	846.55
985.6576	2590.0893	1735.7	856.95
985.7832	2591.3819	1723.55	846.4
985.9087	2592.6739	1716.5	839.5
986.0343	2593.9652	1713.25	833.95
986.1597	2595.2557	1707	828.35
986.2852	2596.5456	1712.05	832.2
986.4106	2597.8348	1706.1	828.9
986.536	2599.1234	1710.45	834.05
986.6614	2600.4112	1696.3	817.05
986.7867	2601.6983	1699.45	817.95
986.912	2602.9848	1701.25	823.5
987.0372	2604.2705	1696.3	811.2
987.1624	2605.5556	1690.15	814.05
987.2876	2606.84	1683.8	806
987.4128	2608.1237	1687.3	809.85
987.5379	2609.4067	1679.2	802.3
987.6629	2610.689	1689.45	802.4
987.788	2611.9707	1672.3	790.9
987.913	2613.2516	1669.4	787.6
988.0379	2614.5319	1667.5	790.3
988.1629	2615.8115	1658.25	780.45
988.2878	2617.0903	1662.2	782.1
988.4126	2618.3685	1649.05	771.3
988.5375	2619.6461	1646.85	769.75
988.6622	2620.9229	1645.55	769.65
988.787	2622.199	1648	770.9
988.9117	2623.4745	1656.55	780
989.0364	2624.7493	1644	764.5
989.161	2626.0234	1640.25	764.5
989.2857	2627.2968	1635.25	755.65
989.4102	2628.5695	1630.1	751.5
989.5348	2629.8415	1621.7	743.15
989.6593	2631.1128	1613.85	735.2
989.7837	2632.3835	1616.4	737.55
989.9082	2633.6535	1612.65	734.3
990.0326	2634.9228	1612.4	735.25
990.1569	2636.1914	1602.45	723.95
990.2812	2637.4593	1608	724.35
990.4055	2638.7265	1602.15	722.7
990.5298	2639.9931	1595.1	716.5
990.654	2641.259	1592.8	714.1
990.7782	2642.5242	1587.35	708.7
990.9023	2643.7887	1589.05	710.65
991.0264	2645.0525	1585.1	706.25
991.1505	2646.3156	1582.5	703.95
991.2745	2647.5781	1580.95	704.9
991.3985	2648.8398	1572.45	696
991.5225	2650.1009	1583.3	696.1
991.6464	2651.3613	1573.6	695.05
991.7703	2652.6211	1566.75	689
991.8942	2653.8801	1576.75	700.15
992.018	2655.1385	1566.85	687
992.1418	2656.3961	1567.6	690.6
992.2655	2657.6531	1562.1	685.55
992.3892	2658.9094	1561.45	684.1
992.5129	2660.1651	1555.6	680.3
992.6366	2661.42	1555.85	679.3
992.7602	2662.6743	1554.1	676.3
992.8837	2663.9279	1549.85	673.65
993.0073	2665.1808	1545.35	667.4
993.1307	2666.433	1546.1	666.55
993.2542	2667.6846	1547.3	667.75
993.3776	2668.9354	1548.15	665.7
993.501	2670.1856	1533.55	655.95
993.6244	2671.4351	1540.2	664.4
993.7477	2672.6839	1542.85	665.15
993.8709	2673.9321	1536.25	658.5
993.9942	2675.1795	1530.05	652.1
994.1174	2676.4263	1524.35	649
994.2405	2677.6724	1525.55	648.9
994.3637	2678.9179	1530.8	652.7
994.4868	2680.1626	1520.55	643.45
994.6098	2681.4067	1519.75	642.85
994.7328	2682.6501	1510.7	635.15
994.8558	2683.8928	1513.5	637.35
994.9788	2685.1348	1509.7	633.7
995.1017	2686.3761	1511.15	634.5
995.2245	2687.6168	1501.5	623.65
995.3474	2688.8568	1495.55	616.55
995.4702	2690.0961	1503.3	626.25
995.5929	2691.3348	1496.2	618.2
995.7156	2692.5727	1498.25	620.2
995.8383	2693.81	1490.45	612.9
995.961	2695.0466	1490	614
996.0836	2696.2826	1483.3	605.1
996.2062	2697.5178	1508.75	612.65
996.3287	2698.7524	1486.45	609.85
996.4512	2699.9863	1487.35	609.05
996.5737	2701.2195	1477.25	599.4
996.6961	2702.452	1481.8	602.55
996.8185	2703.6839	1474.6	596
996.9408	2704.9151	1475	602.9
997.0631	2706.1456	1469.75	594.2
997.1854	2707.3755	1466.85	589.35
997.3077	2708.6046	1457.95	576.4
997.4299	2709.8331	1463.7	583.75
997.552	2711.0609	1459.05	581.5
997.6742	2712.2881	1452.85	576.3
997.7963	2713.5145	1458.15	575.5
997.9183	2714.7403	1456.45	580.7
998.0403	2715.9654	1462.65	583.7
998.1623	2717.1899	1465.9	575.3
998.2842	2718.4136	1449.55	571.55
998.4062	2719.6367	1450	568.8
998.528	2720.8591	1455.4	572.75
998.6498	2722.0809	1443.5	564.2
998.7716	2723.3019	1435.65	555.75
998.8934	2724.5223	1441	561.9
999.0151	2725.7421	1440	559.75
999.1368	2726.9611	1432.2	553.25
999.2584	2728.1795	1441.55	559.55
999.38	2729.3972	1429.95	553.15
999.5016	2730.6142	1437.45	545.3
999.6231	2731.8306	1417.85	539.35
999.7446	2733.0462	1422.95	542.95
999.8661	2734.2612	1422.45	539.2
999.9875	2735.4756	1417.75	536.45
1000.1089	2736.6892	1408.9	530.15
1000.2302	2737.9022	1410.2	531.6
1000.3515	2739.1145	1404.4	526.55
1000.4728	2740.3262	1413	530.15
1000.594	2741.5372	1398.15	520.8
1000.7152	2742.7475	1396.8	519.85
1000.8363	2743.9571	1398.75	520.15
1000.9575	2745.1661	1397.65	516.1
1001.0785	2746.3744	1393.15	514.75
1001.1996	2747.582	1389.45	513.55
1001.3206	2748.7889	1388.35	509.8
1001.4415	2749.9952	1382.85	504.55
1001.5625	2751.2008	1381.2	502.45
1001.6833	2752.4057	1381.5	501.3
1001.8042	2753.61	1379.65	499.75
1001.925	2754.8136	1375.65	497.75
1002.0458	2756.0165	1375.85	499.3
1002.1665	2757.2188	1368.05	491.25
1002.2872	2758.4204	1368.6	491.2
1002.4078	2759.6213	1365.35	485.8
1002.5285	2760.8215	1365.4	484.45
1002.649	2762.0211	1366.85	486.75
1002.7696	2763.22	1369.6	487.7
1002.8901	2764.4182	1360.1	481.25
1003.0106	2765.6158	1352.4	474.3
1003.131	2766.8127	1356.55	480.85
1003.2514	2768.009	1352.1	476.25
1003.3717	2769.2045	1344.55	466.4
1003.492	2770.3994	1359.45	479.45
1003.6123	2771.5936	1347.9	467.7
1003.7325	2772.7872	1342.85	466.25
1003.8527	2773.9801	1347.85	468.35
1003.9729	2775.1723	1352.2	457.3
1004.093	2776.3639	1340.1	465
1004.2131	2777.5548	1340.55	460.95
1004.3331	2778.745	1334.6	457.3
1004.4531	2779.9346	1331.7	453.5
1004.5731	2781.1235	1329.05	450.45
1004.693	2782.3117	1325.05	448.6
1004.8129	2783.4992	1330.95	453.1
1004.9328	2784.6861	1319.25	442.25
1005.0526	2785.8723	1325.2	445.85
1005.1723	2787.0579	1326.85	449.45
1005.2921	2788.2428	1322.75	446.25
1005.4118	2789.427	1313.95	437.4
1005.5314	2790.6106	1311.8	433.25
1005.651	2791.7935	1322.6	445.25
1005.7706	2792.9757	1310.2	433.25
1005.8902	2794.1573	1320.35	442.6
1006.0097	2795.3382	1305.15	426.85
1006.1291	2796.5184	1308.7	434.7
1006.2485	2797.698	1305.45	426.45
1006.3679	2798.8769	1300	424.2
1006.4873	2800.0551	1299.25	422.1
1006.6066	2801.2327	1303	423.45
1006.7258	2802.4096	1297.75	420.75
1006.8451	2803.5859	1289.95	414.45
1006.9642	2804.7615	1296.55	417.35
1007.0834	2805.9364	1292.35	414.85
1007.2025	2807.1106	1286.15	408.75
1007.3216	2808.2842	1291.3	413.25
1007.4406	2809.4572	1290.4	414.2
1007.5596	2810.6294	1285.55	407.15
1007.6785	2811.801	1288.85	412.3
1007.7975	2812.972	1284.15	409.4
1007.9163	2814.1423	1290.45	412.75
1008.0352	2815.3119	1285.8	409.95
1008.154	2816.4808	1292.85	417.15
1008.2727	2817.6491	1294.45	418.15
1008.3914	2818.8167	1286.45	409.45
1008.5101	2819.9837	1298.6	415.5
1008.6288	2821.15	1291.95	415.7
1008.7474	2822.3157	1298	420.7
1008.8659	2823.4807	1296.4	420.3
1008.9844	2824.645	1308.6	431.55
1009.1029	2825.8086	1306.35	430.35
1009.2214	2826.9716	1313.35	437.5
1009.3398	2828.134	1311.6	434.1
1009.4581	2829.2957	1325.6	448.75
1009.5764	2830.4567	1317.75	442.45
1009.6947	2831.617	1324.65	448.8
1009.813	2832.7767	1326.05	449.6
1009.9312	2833.9358	1326.5	449.35
1010.0493	2835.0941	1325.35	445.7
1010.1675	2836.2519	1316.75	441.6
1010.2855	2837.4089	1322.15	443.5
1010.4036	2838.5653	1309.3	432.4
1010.5216	2839.7211	1310.8	433.7
1010.6396	2840.8761	1303.1	423.75
1010.7575	2842.0306	1303.95	429.3
1010.8754	2843.1843	1307.85	430.9
1010.9932	2844.3374	1303.5	428.05
1011.111	2845.4899	1302.65	425.6
1011.2288	2846.6417	1304.15	426
1011.3465	2847.7928	1305	426.95
1011.4642	2848.9433	1304.9	429.15
1011.5818	2850.0931	1308.05	432.65
1011.6995	2851.2422	1310.3	432.45
1011.817	2852.3907	1304	425.25
1011.9345	2853.5385	1306.75	426.65
1012.052	2854.6857	1320.05	433.25
1012.1695	2855.8323	1300.5	425.7
1012.2869	2856.9781	1303.3	428.1
1012.4042	2858.1233	1302.3	425
1012.5216	2859.2679	1298.8	419.4
1012.6389	2860.4118	1307.45	431.15
1012.7561	2861.555	1313.1	431.7
1012.8733	2862.6976	1307.1	430.1
1012.9905	2863.8395	1309.2	433.25
1013.1076	2864.9808	1312.45	436.75
1013.2247	2866.1214	1310.2	433.65
1013.3417	2867.2614	1310.45	431.85
1013.4587	2868.4007	1313.6	436.7
1013.5757	2869.5393	1309.9	431.8
1013.6926	2870.6773	1316.75	435.65
1013.8095	2871.8146	1307.4	427.45
1013.9263	2872.9513	1313.05	434.65
1014.0431	2874.0874	1307.15	431.75
1014.1599	2875.2227	1304.1	427.15
1014.2766	2876.3574	1310.35	434.15
1014.3933	2877.4915	1303.3	427.1
1014.51	2878.6249	1302.1	425
1014.6266	2879.7577	1306.6	431.3
1014.7431	2880.8898	1316.35	429.7
1014.8596	2882.0212	1303.8	429.05
1014.9761	2883.152	1312.2	434.75
1015.0925	2884.2821	1315.45	439.35
1015.2089	2885.4116	1305.8	430
1015.3253	2886.5405	1302.3	426.2
1015.4416	2887.6686	1310.25	431.8
1015.5579	2888.7962	1299.9	424.65
1015.6741	2889.923	1303.85	427.05
1015.7903	2891.0493	1299.65	423.2
1015.9065	2892.1748	1303.3	426.75
1016.0226	2893.2997	1298.45	420.95
1016.1387	2894.424	1296.05	420.05
1016.2547	2895.5476	1295.65	418.05
1016.3707	2896.6706	1299.85	423.25
1016.4866	2897.7929	1295.9	417.75
1016.6025	2898.9145	1289.8	413.85
1016.7184	2900.0355	1287.75	411.25
1016.8342	2901.1559	1296.6	419.7
1016.95	2902.2756	1293.2	419.55
1017.0658	2903.3946	1287.25	410.35
1017.1815	2904.513	1287.15	409.2
1017.2971	2905.6308	1281.75	405.1
1017.4127	2906.7479	1288.05	410.25
1017.5283	2907.8643	1280.7	403.4
1017.6439	2908.9801	1278.1	403.85
1017.7594	2910.0953	1281.95	403.6
1017.8748	2911.2098	1278.05	398
1017.9902	2912.3236	1284	398.05
1018.1056	2913.4368	1275.2	396.65
1018.2209	2914.5494	1272.05	393.65
1018.3362	2915.6613	1273.95	389.9
1018.4515	2916.7725	1270.35	389.7
1018.5667	2917.8831	1269.85	393.7
1018.6819	2918.9931	1266.5	387.05
1018.797	2920.1024	1259.45	381.2
1018.9121	2921.211	1263.65	388.7
1019.0271	2922.319	1256.3	379.05
1019.1421	2923.4264	1247.7	373.05
1019.2571	2924.5331	1249.75	375.4
1019.372	2925.6391	1251.15	374.95
1019.4869	2926.7445	1244.95	370.9
1019.6017	2927.8493	1244.35	366.9
1019.7165	2928.9534	1244.85	368.35
1019.8313	2930.0569	1253	372.4
1019.946	2931.1597	1245.85	368.5
1020.0606	2932.2619	1248.35	372.9
1020.1753	2933.3634	1251.15	373.6
1020.2899	2934.4643	1259.15	374.4
1020.4044	2935.5645	1252.3	368.5
1020.5189	2936.6641	1249.25	369.6
1020.6334	2937.763	1243.35	366.5
1020.7478	2938.8613	1245.7	368.05
1020.8622	2939.959	1243.75	363.35
1020.9765	2941.056	1240.4	363.6
1021.0908	2942.1523	1232.05	354.2
1021.2051	2943.248	1226.8	349.45
1021.3193	2944.3431	1219.25	343.2
1021.4334	2945.4375	1212	334.25
1021.5476	2946.5313	1200.45	324.4
1021.6617	2947.6244	1200.25	325.45
1021.7757	2948.7169	1190.35	311.4
1021.8897	2949.8087	1182.8	306.9
1022.0037	2950.8999	1178.05	299.6
1022.1176	2951.9904	1170.25	295.35
1022.2315	2953.0803	1168.65	290.25
1022.3453	2954.1696	1169.45	292.7
1022.4591	2955.2582	1161.45	285.15
1022.5728	2956.3462	1164.45	288.7
1022.6865	2957.4335	1160.25	283.05
1022.8002	2958.5202	1156.7	277.9
1022.9138	2959.6062	1152.1	276.05
1023.0274	2960.6916	1153.9	278.75
1023.141	2961.7764	1149.9	271.35
1023.2545	2962.8605	1152.75	276.75
1023.3679	2963.9439	1147.15	270.75
1023.4813	2965.0267	1143	265
1023.5947	2966.1089	1171.15	274.55
1023.708	2967.1905	1139.75	264.6
1023.8213	2968.2714	1143.85	267.9
1023.9346	2969.3516	1141.05	263.4
1024.0478	2970.4312	1151.3	266.35
1024.1609	2971.5102	1140.6	265.85
1024.274	2972.5885	1134.8	259
1024.3871	2973.6662	1148.2	266.8
1024.5002	2974.7432	1133.9	257.3
1024.6132	2975.8196	1140.05	262.45
1024.7261	2976.8954	1137.25	261.15
1024.839	2977.9705	1136.2	260.4
1024.9519	2979.045	1132.2	255.8
1025.0647	2980.1188	1131.4	256.9
1025.1775	2981.192	1130.8	255.5
1025.2902	2982.2645	1132.2	255.75
1025.4029	2983.3364	1131.1	252.85
1025.5156	2984.4077	1125.2	249.95
1025.6282	2985.4783	1127.35	246.05
1025.7407	2986.5483	1119.1	243.45
1025.8532	2987.6177	1121.7	246.95
1025.9657	2988.6864	1114.2	235.7
1026.0782	2989.7545	1113.2	236.8
1026.1906	2990.8219	1111.35	233.8
1026.3029	2991.8887	1106.35	226.75
1026.4152	2992.9548	1104.45	228.35
1026.5275	2994.0204	1102.55	226.95
1026.6397	2995.0852	1094.4	218.85
1026.7519	2996.1495	1099.9	224.25
1026.864	2997.2131	1096.55	218.15
1026.9761	2998.276	1090.75	214.25
1027.0882	2999.3383	1092.2	215.45
1027.2002	3000.4	1086.4	209.85
1027.3122	3001.4611	1087.8	213
1027.4241	3002.5215	1080.6	205.2
1027.536	3003.5812	1079.15	205.6
1027.6478	3004.6404	1081.4	205.85
1027.7596	3005.6989	1078.8	200
1027.8714	3006.7567	1070.4	194
1027.9831	3007.8139	1101.95	202.65
1028.0947	3008.8705	1073.4	199.55
1028.2064	3009.9264	1079.05	201.25
1028.3179	3010.9818	1072.05	194.15
1028.4295	3012.0364	1070.6	192.9
1028.541	3013.0905	1070.15	194.55
1028.6524	3014.1439	1068.9	192.8
1028.7638	3015.1966	1067.3	192
1028.8752	3016.2487	1068.25	192.15
1028.9865	3017.3002	1071.75	189.15
1029.0978	3018.3511	1063.3	185.8
1029.209	3019.4013	1063	184.2
1029.3202	3020.4509	1063.2	189.75
1029.4314	3021.4998	1066.4	190.25
1029.5425	3022.5481	1062.75	185.65
1029.6535	3023.5958	1056.45	180.5
1029.7645	3024.6428	1061.45	185.45
1029.8755	3025.6892	1057.2	183.05
1029.9864	3026.735	1057.8	181.7
1030.0973	3027.7802	1054.7	177.65
1030.2082	3028.8247	1053.8	176.85
1030.319	3029.8685	1053.75	176.85
1030.4297	3030.9118	1054.1	177.9
1030.5404	3031.9544	1051	176.5
1030.6511	3032.9963	1055.55	179.85
1030.7617	3034.0376	1050.55	175.1
1030.8723	3035.0783	1054.05	174.3
1030.9829	3036.1184	1048.45	172.85
1031.0934	3037.1578	1051.95	177.95
1031.2038	3038.1966	1046.85	171.85
1031.3142	3039.2348	1047.05	172.45
1031.4246	3040.2723	1054.65	169.9
1031.5349	3041.3092	1048.45	175.1
1031.6452	3042.3455	1050.15	173.15
1031.7554	3043.3811	1047.55	172.4
1031.8656	3044.4161	1045.55	168.95
1031.9758	3045.4505	1043.8	168.25
1032.0859	3046.4842	1045.1	168.2
1032.1959	3047.5173	1041.45	166.6
1032.3059	3048.5498	1043.6	167.6
1032.4159	3049.5816	1039.35	163.4
1032.5258	3050.6128	1041.2	164
1032.6357	3051.6434	1043.6	166.3
1032.7455	3052.6734	1043.75	165.65
1032.8553	3053.7027	1040.1	164.9
1032.9651	3054.7314	1036.95	162.75
1033.0748	3055.7594	1037.65	162.3
1033.1845	3056.7868	1040.4	163.65
1033.2941	3057.8136	1035.65	160.7
1033.4037	3058.8398	1038.9	163.95
1033.5132	3059.8653	1034.95	159.65
1033.6227	3060.8902	1033.15	156.85
1033.7321	3061.9145	1035.6	159.7
1033.8415	3062.9381	1030.2	154.1
1033.9509	3063.9612	1049.8	157.2
1034.0602	3064.9835	1035.3	160.1
1034.1694	3066.0053	1033.9	155.7
1034.2787	3067.0264	1031.45	155.75
1034.3878	3068.0469	1033.1	157.5
1034.497	3069.0668	1033.4	154.5
1034.6061	3070.086	1032.6	157.05
1034.7151	3071.1046	1032.1	155.85
1034.8241	3072.1226	1030.9	152.4
1034.9331	3073.1399	1033.35	157.35
1035.042	3074.1567	1031.5	155.55
1035.1508	3075.1727	1033.1	155.1
1035.2597	3076.1882	1024.35	148.3
1035.3684	3077.203	1023.55	146.95
1035.4772	3078.2173	1027.45	150.5
1035.5859	3079.2308	1026.1	146.85
1035.6945	3080.2438	1026.95	150.05
1035.8031	3081.2561	1021.9	145.85
1035.9117	3082.2678	1020	145.6
1036.0202	3083.2789	1018.35	143.35
1036.1286	3084.2893	1021.1	145.3
1036.2371	3085.2991	1014.6	137.35
1036.3454	3086.3083	1026.75	147.4
1036.4538	3087.3169	1019.2	141.6
1036.562	3088.3248	1015.3	137.55
1036.6703	3089.3321	1016.7	139.3
1036.7785	3090.3388	1016.45	141.15
1036.8866	3091.3449	1011.25	135.25
1036.9948	3092.3503	1017.1	139.9
1037.1028	3093.3551	1013.65	139
1037.2108	3094.3593	1011.5	137.2
1037.3188	3095.3629	1011.4	136.95
1037.4267	3096.3658	1011.35	134.35
1037.5346	3097.3681	1009.45	133.5
1037.6425	3098.3698	1007.65	129.2
1037.7503	3099.3708	1011.9	128.6
1037.858	3100.3713	1010.2	136.05
1037.9657	3101.3711	1009.75	132.7
1038.0734	3102.3702	1142.7	129.55
1038.181	3103.3688	1006.45	129.2
1038.2886	3104.3667	1003.15	128.6
1038.3961	3105.364	1004.1	128.3
1038.5036	3106.3607	1001.9	123.5
1038.611	3107.3568	1001.4	124.5
1038.7184	3108.3522	1002.05	127.35
1038.8257	3109.347	997.65	119.9
1038.933	3110.3412	1004.05	123.6
1039.0403	3111.3348	995.95	121.45
1039.1475	3112.3277	999.5	122.85
1039.2547	3113.32	995.2	120.6
1039.3618	3114.3117	995.4	117.65
1039.4689	3115.3028	1000.95	123.9
1039.5759	3116.2932	995.55	118.45
1039.6829	3117.2831	1001.3	120.65
1039.7898	3118.2723	990.9	115.75
1039.8967	3119.2608	994.65	118.85
1040.0035	3120.2488	991.3	115.25
1040.1103	3121.2361	995.3	119.7
1040.2171	3122.2229	988.35	111.55
1040.3238	3123.209	992.25	116.25
1040.4305	3124.1944	988.45	111.2
1040.5371	3125.1793	988.35	111
1040.6437	3126.1635	984	108.6
1040.7502	3127.1471	986.7	112.9
1040.8567	3128.1301	985.8	112.15
1040.9631	3129.1125	985	109.75
1041.0695	3130.0942	983.95	109
1041.1759	3131.0753	993.4	109.5
1041.2822	3132.0558	988.7	106.45
1041.3884	3133.0357	986.9	110.25
1041.4946	3134.015	984.6	107.6
1041.6008	3134.9936	986.5	110.45
1041.7069	3135.9716	1001.4	106.05
1041.813	3136.949	982.45	105.35
1041.919	3137.9258	984.35	104.65
1042.025	3138.902	984.2	102.1
1042.1309	3139.8775	978.8	102.5
1042.2368	3140.8524	979.05	101.3
1042.3427	3141.8267	979.75	102.1
1042.4485	3142.8004	979.1	102.8
1042.5542	3143.7735	987.2	108.1
1042.6599	3144.7459	981.75	104.6
1042.7656	3145.7178	976.85	101.55
1042.8712	3146.689	978.25	104.1
1042.9768	3147.6596	976.8	99.25
1043.0823	3148.6295	976.05	98.75
1043.1878	3149.5989	974.05	97.35
1043.2932	3150.5676	970.45	97.35
1043.3986	3151.5357	973.45	98.85
1043.5039	3152.5032	976.25	101.6
1043.6092	3153.4701	973.6	98.05
1043.7145	3154.4364	977.2	99.3
1043.8197	3155.402	968.9	93.6
1043.9248	3156.367	971.05	92.5
1044.03	3157.3315	1008.05	94.85
1044.135	3158.2952	972.5	97.25
1044.24	3159.2584	969.85	93.8
1044.345	3160.221	968.95	95.15
1044.4499	3161.1829	971.6	95
1044.5548	3162.1442	967.1	89.6
1044.6596	3163.105	967.45	93.8
1044.7644	3164.065	968.05	91.6
1044.8692	3165.0245	970.8	91.95
1044.9739	3165.9834	964.6	90.05
1045.0785	3166.9416	966.25	90.8
1045.1831	3167.8993	964.45	88.35
1045.2877	3168.8563	964.6	87.8
1045.3922	3169.8127	964.15	89.35
1045.4966	3170.7684	967.9	90.4
1045.6011	3171.7236	966.3	88.25
1045.7054	3172.6782	964.85	90.6
1045.8098	3173.6321	963.4	85.4
1045.914	3174.5854	968.3	88.2
1046.0183	3175.5381	960.55	84.35
1046.1224	3176.4902	961.95	86.55
1046.2266	3177.4417	960.95	85.65
1046.3307	3178.3926	959.9	83.75
1046.4347	3179.3428	958.05	84.25
1046.5387	3180.2924	958.6	83.2
1046.6427	3181.2415	958.05	80.45
1046.7466	3182.1899	959.8	82.1
1046.8504	3183.1377	956.05	78.65
1046.9542	3184.0848	961.1	82.1
1047.058	3185.0314	958.05	82.2
1047.1617	3185.9773	957	79.85
1047.2654	3186.9227	956.15	78.3
1047.369	3187.8674	957.3	81.7
1047.4726	3188.8115	962.15	80.8
1047.5761	3189.755	953.85	78.85
1047.6796	3190.6979	953.45	76.45
1047.783	3191.6402	952.95	77.55
1047.8864	3192.5818	955.2	79.3
1047.9898	3193.5229	960.8	80.45
1048.0931	3194.4633	952.1	75.65
1048.1963	3195.4031	954.15	79.75
1048.2995	3196.3423	950.05	73.95
1048.4027	3197.2809	951.05	72.4
1048.5058	3198.2189	951.8	75.35
1048.6089	3199.1563	954.3	71.95
1048.7119	3200.0931	948.95	75
1048.8148	3201.0292	949.9	77.35
1048.9178	3201.9648	948.9	72.55
1049.0206	3202.8997	952.9	73.2
1049.1235	3203.834	947.25	72.25
1049.2262	3204.7677	947.95	72.85
1049.329	3205.7008	947.8	70.4
1049.4317	3206.6333	942.55	67.4
1049.5343	3207.5652	948.75	71.5
1049.6369	3208.4964	946.4	70.25
1049.7394	3209.4271	952.15	76.5
1049.8419	3210.3571	946.05	72.25
1049.9444	3211.2865	944.55	68.95
1050.0468	3212.2154	949.85	74.25
1050.1491	3213.1436	947.5	69.05
1050.2514	3214.0712	951.25	68.95
1050.3537	3214.9982	944.75	68.2
1050.4559	3215.9246	943.45	66.4
1050.5581	3216.8503	942.4	68.8
1050.6602	3217.7755	941.25	65.1
1050.7623	3218.7001	942.15	66.55
1050.8643	3219.624	942.4	66.55
1050.9663	3220.5473	942.8	66.5
1051.0682	3221.4701	942.25	64.15
1051.1701	3222.3922	941.8	64.1
1051.2719	3223.3137	941.4	65.4
1051.3737	3224.2346	942.8	67
1051.4754	3225.1549	941.05	65.05
1051.5771	3226.0746	940.05	66.05
1051.6788	3226.9937	939	63.6
1051.7804	3227.9121	937.9	62.85
1051.8819	3228.83	937.8	62.5
1051.9834	3229.7473	940.75	65.15
1052.0849	3230.6639	937.6	62
1052.1863	3231.5799	940.4	66.1
1052.2876	3232.4954	938.35	61.2
1052.3889	3233.4102	938.25	62.1
1052.4902	3234.3244	937.15	60.7
1052.5914	3235.238	938.8	63.1
1052.6926	3236.151	960.35	60.55
1052.7937	3237.0634	933.6	60.6
1052.8948	3237.9752	933.55	55.35
1052.9958	3238.8864	934.5	57.35
1053.0968	3239.797	935.9	60.1
1053.1977	3240.7069	937.05	61.35
1053.2986	3241.6163	936.15	57.75
1053.3994	3242.5251	933.75	60.2
1053.5002	3243.4332	932.2	56.6
1053.6009	3244.3408	935.7	60.4
1053.7016	3245.2477	931.05	55.8
1053.8022	3246.154	932.75	55.7
1053.9028	3247.0598	934.45	57.75
1054.0034	3247.9649	931.25	54.2
1054.1039	3248.8694	933.1	56.5
1054.2043	3249.7733	930.25	54.3
1054.3047	3250.6766	930.45	54.2
1054.4051	3251.5793	931.55	55.65
1054.5054	3252.4814	930.1	55.1
1054.6056	3253.3829	929.85	55.9
1054.7058	3254.2838	926.65	51.05
1054.806	3255.1841	929.05	54.35
1054.9061	3256.0838	929.75	54.05
1055.0061	3256.9829	927.6	52.5
1055.1062	3257.8814	927.5	48.6
1055.2061	3258.7792	928.85	51.65
1055.306	3259.6765	926.8	49.05
1055.4059	3260.5731	927.55	52.2
1055.5057	3261.4692	926.05	47.45
1055.6055	3262.3647	925.8	48.9
1055.7052	3263.2595	924.3	47.75
1055.8049	3264.1538	923.4	46.05
1055.9045	3265.0474	924.65	48.95
1056.0041	3265.9404	920.05	45.95
1056.1036	3266.8329	920.85	45.3
1056.2031	3267.7247	928.75	42.65
1056.3025	3268.616	919.3	45.55
1056.4019	3269.5066	920	43.55
1056.5013	3270.3966	916.5	39.25
1056.6005	3271.286	914.95	41.75
