Software Version:	3.9.2.0
Unit SN:	10000200
Spectrometer SN:	6960
Date:	3/6/2024 9:41:00 AM
Data Line Index:	25
Spectral Points:	2048
Integration time (ms):	125
Averages:	20
Delay (ms):	30
Sequence Number:	1
Processing:	dark subtract
Laser Power (mW):	305
Laser Current (mA):	825
Laser Diode Temp (C):	25.1
Laser Case Temp (C):	24
System Temp (C):	23.8
Spectrometer Temp (C):	21.4
CCD Temp (C):	-0.03
Secondary Temp (C):	20.019
Heatsink Temp (C):	17.248
CCDPCB Temp (C):	30.271
SecondaryPCB Temp (C):	25.258

Wavelength	RamanShift	Raw Counts	Dark Subtracted
787.061	30.1047	461.75	54.75
787.2016	32.3739	461.35	55.95
787.3422	34.6426	467.25	60.65
787.4828	36.9109	473.05	64.4
787.6235	39.1787	479	67.5
787.7642	41.4461	490.7	73.95
787.9049	43.7131	498.1	78.45
788.0456	45.9796	506.6	85.1
788.1863	48.2456	514	87.35
788.3271	50.5112	520.95	91.4
788.4679	52.7764	527.9	93.6
788.6087	55.0411	538.8	102.5
788.7496	57.3054	547.4	105.2
788.8904	59.5692	556.55	113.35
789.0313	61.8326	571.85	126.2
789.1722	64.0955	579.9	131
789.3132	66.3579	593.75	138.25
789.4541	68.6199	615.7	158.3
789.5951	70.8815	647.9	184.55
789.7361	73.1426	703.95	239.15
789.8771	75.4032	857	388.2
790.0181	77.6634	1231.95	759.95
790.1592	79.9231	2132.05	1656.5
790.3003	82.1824	4043.5	3562.3
790.4414	84.4412	7402.55	6914
790.5825	86.6995	11905.2	11407.4
790.7237	88.9574	16387.7	15881.05
790.8648	91.2148	19646.6	19135.55
791.006	93.4717	21476.2	20962.2
791.1472	95.7282	22284.45	21770.45
791.2885	97.9842	22657.95	22141.05
791.4297	100.2398	22810.55	22290.8
791.571	102.4949	22853.55	22332.35
791.7123	104.7495	22865.95	22338.6
791.8536	107.0036	22849.75	22318.95
791.9949	109.2573	22860.3	22333.5
792.1363	111.5105	22902.1	22370.95
792.2777	113.7632	22854.55	22320.75
792.4191	116.0154	22934.95	22389.05
792.5605	118.2672	22980.95	22444.75
792.7019	120.5185	22977.75	22437.65
792.8434	122.7693	23058.25	22516.15
792.9849	125.0197	23097.25	22548.75
793.1264	127.2696	23116	22564.05
793.2679	129.519	23236.8	22684.8
793.4094	131.7679	23229.9	22675.75
793.551	134.0163	23334.9	22776.4
793.6926	136.2642	23350.55	22787.6
793.8342	138.5117	23350.5	22786.7
793.9758	140.7587	23381.8	22816.95
794.1175	143.0052	23435.85	22868.5
794.2591	145.2512	23393.55	22823.7
794.4008	147.4967	23407.1	22835.6
794.5425	149.7417	23380.75	22805.4
794.6842	151.9863	23394.65	22816.2
794.826	154.2304	23410.95	22829.7
794.9677	156.4739	23329	22741.6
795.1095	158.717	23358.6	22772.5
795.2513	160.9596	23432.9	22840.75
795.3931	163.2017	23419.95	22826.4
795.535	165.4433	23464.3	22870
795.6768	167.6844	23485.25	22888.35
795.8187	169.925	23502.4	22901.5
795.9606	172.1651	23442.2	22836.95
796.1025	174.4047	23487.95	22876.95
796.2445	176.6439	23467.95	22858.55
796.3864	178.8825	23412.6	22798.5
796.5284	181.1206	23516.95	22898.45
796.6704	183.3582	23496.45	22874.3
796.8124	185.5954	23545.2	22922.9
796.9544	187.832	23536	22908.65
797.0965	190.0681	23654.45	23023.1
797.2386	192.3037	23680.55	23047.25
797.3806	194.5388	23723.95	23089.05
797.5228	196.7734	23745.3	23111.15
797.6649	199.0075	23847.55	23211.25
797.807	201.2411	23963.75	23324.15
797.9492	203.4742	24021.05	23377
798.0914	205.7068	24099	23450.95
798.2336	207.9389	24137.9	23494.5
798.3758	210.1704	24217.25	23582.75
798.518	212.4015	24162.05	23536.4
798.6603	214.632	24216.65	23594.8
798.8025	216.862	24269.4	23646.6
798.9448	219.0915	24284.25	23659.15
799.0871	221.3205	24327.2	23700.15
799.2294	223.549	24375.35	23750.8
799.3718	225.777	24467.65	23841.45
799.5141	228.0044	24447.3	23810.65
799.6565	230.2314	24510.35	23875.05
799.7989	232.4578	24491.35	23850.5
799.9413	234.6837	24571.65	23922.9
800.0837	236.909	24591.8	23942.45
800.2262	239.1339	24615.55	23942.2
800.3687	241.3582	24650.5	23991.45
800.5111	243.582	24647.75	23960.15
800.6536	245.8053	24691.25	24014.85
800.7961	248.0281	24697.45	24025.9
800.9387	250.2503	24697.2	24022.35
801.0812	252.472	24740.4	24064.6
801.2238	254.6932	24820.1	24145.5
801.3664	256.9139	24727.5	24048.25
801.509	259.134	24771.45	24086.75
801.6516	261.3536	24770.4	24093.9
801.7942	263.5727	24866	24186.1
801.9369	265.7912	24869.4	24191.55
802.0795	268.0092	24945.1	24264
802.2222	270.2267	24954.45	24271.85
802.3649	272.4436	25002.5	24314.65
802.5076	274.6601	25000.75	24305.9
802.6504	276.8759	24971.2	24281.15
802.7931	279.0913	25068.7	24378.85
802.9359	281.3061	25075.35	24382.55
803.0787	283.5204	25130.95	24435.85
803.2215	285.7341	25155.1	24460.1
803.3643	287.9473	25197.45	24489.4
803.5071	290.16	25213.65	24511.55
803.6499	292.3721	25184.8	24490
803.7928	294.5837	25185.55	24487.55
803.9357	296.7947	25128.45	24431.35
804.0786	299.0052	25150.25	24451.8
804.2215	301.2152	25076.45	24375.1
804.3644	303.4246	25103.7	24403.6
804.5074	305.6334	25077.95	24381.25
804.6503	307.8418	25107.95	24401.35
804.7933	310.0495	25051.15	24343.45
804.9363	312.2568	25041.55	24337.2
805.0793	314.4635	24929.1	24219.8
805.2223	316.6696	24924.85	24212.75
805.3653	318.8752	24810.6	24092.15
805.5084	321.0802	24810.85	24099.2
805.6514	323.2847	24819.55	24105.6
805.7945	325.4887	24793.15	24080.6
805.9376	327.692	24787.9	24071.2
806.0807	329.8949	24833.15	24114.9
806.2238	332.0972	24855.85	24136.1
806.367	334.2989	24929.8	24206.55
806.5101	336.5001	24867.6	24145.75
806.6533	338.7007	24892.3	24170.05
806.7965	340.9008	24895.25	24170.7
806.9397	343.1003	24836.25	24110.15
807.0829	345.2992	24819.2	24091.45
807.2261	347.4976	24808.7	24080.1
807.3693	349.6955	24795.95	24061.4
807.5126	351.8927	24873.6	24139.15
807.6559	354.0895	24744.1	23997.4
807.7991	356.2856	24809.45	24071.2
807.9424	358.4812	24710.1	23972.3
808.0857	360.6763	24738.4	23998.85
808.2291	362.8707	24709.65	23970.15
808.3724	365.0646	24734.9	23992.25
808.5158	367.258	24747.15	24000.75
808.6591	369.4508	24694.55	23945.2
808.8025	371.643	24715.8	23968.15
808.9459	373.8346	24617.15	23867.7
809.0893	376.0257	24650.75	23898.25
809.2327	378.2162	24636.45	23885.15
809.3762	380.4062	24665.15	23912.95
809.5196	382.5956	24619.75	23869.15
809.6631	384.7844	24590.6	23846.75
809.8066	386.9726	24502.1	23760.35
809.9501	389.1603	24465.4	23725.25
810.0936	391.3474	24453	23660.35
810.2371	393.5339	24437.75	23688.95
810.3806	395.7199	24332.9	23586.6
810.5241	397.9052	24336.1	23587.75
810.6677	400.09	24348.25	23601.25
810.8113	402.2743	24347.9	23598.35
810.9548	404.4579	24342.8	23590.7
811.0984	406.641	24460.9	23709.7
811.2421	408.8235	24464.45	23708.45
811.3857	411.0054	24498.6	23743.55
811.5293	413.1868	24571.85	23812.4
811.673	415.3675	24576.65	23812.15
811.8166	417.5477	24553.85	23790.3
811.9603	419.7273	24494.95	23727.8
812.104	421.9064	24335.65	23563.5
812.2477	424.0848	24298.25	23529.75
812.3914	426.2627	24223.9	23455.55
812.5351	428.4399	24177.85	23409.7
812.6788	430.6166	24104.1	23330.95
812.8226	432.7928	24024.8	23249.5
812.9663	434.9683	23929.75	23156.35
813.1101	437.1432	23890.75	23113.95
813.2539	439.3176	23821.25	23048.2
813.3977	441.4914	23751.7	22977.9
813.5415	443.6645	23721.7	22945.2
813.6853	445.8371	23633.7	22858.2
813.8291	448.0091	23560.05	22785
813.973	450.1806	23481.8	22705.95
814.1168	452.3514	23419.85	22641.1
814.2607	454.5216	23426.55	22638.6
814.4046	456.6913	23299.95	22517.1
814.5485	458.8603	23347.95	22566.05
814.6924	461.0288	23359.6	22580.1
814.8363	463.1967	23274.55	22496.35
814.9802	465.3639	23294.8	22512.65
815.1241	467.5306	23233.25	22451.65
815.2681	469.6967	23171.65	22390.2
815.412	471.8622	23101.4	22318.2
815.556	474.0271	23119.2	22337.25
815.7	476.1914	23077.3	22291.5
815.844	478.3551	23045.85	22261.9
815.988	480.5182	23105.85	22322.6
816.132	482.6807	23104.75	22319.7
816.276	484.8426	23097.75	22313.95
816.4201	487.0039	23141.8	22355.85
816.5641	489.1647	23220.5	22430.65
816.7082	491.3248	23246.95	22458.2
816.8522	493.4843	23246.05	22457.2
816.9963	495.6432	23214	22426.6
817.1404	497.8015	23113.7	22322.25
817.2845	499.9592	23118.25	22326.6
817.4286	502.1163	23061.9	22267.65
817.5727	504.2728	22958.9	22165.75
817.7168	506.4287	23021.9	22227.85
817.861	508.5839	22954.75	22161.3
818.0051	510.7386	22949.8	22154.6
818.1493	512.8927	22949.25	22152.1
818.2935	515.0461	22934.85	22138.2
818.4377	517.199	22948	22152.9
818.5818	519.3512	22918.3	22121.3
818.726	521.5029	22961.5	22159.05
818.8703	523.6539	22969.25	22171.85
819.0145	525.8043	22955	22153.95
819.1587	527.9541	22893.5	22090.05
819.303	530.1033	22831.1	22028.7
819.4472	532.2519	22780.1	21977.5
819.5915	534.3999	22731.35	21926
819.7357	536.5472	22710.7	21908.55
819.88	538.694	22710.85	21907
820.0243	540.8401	22750.25	21945.5
820.1686	542.9856	22704.65	21897.65
820.3129	545.1305	22687.35	21878.65
820.4572	547.2748	22747.05	21938.9
820.6016	549.4185	22737.2	21929.7
820.7459	551.5615	22657.55	21850.9
820.8902	553.704	22665.2	21859.25
821.0346	555.8458	22597.55	21793.55
821.1789	557.987	22633.35	21828.15
821.3233	560.1276	22616.7	21810.7
821.4677	562.2675	22691.35	21886.35
821.6121	564.4069	22659.6	21852.85
821.7565	566.5456	22631.2	21826.45
821.9009	568.6837	22649.35	21842.35
822.0453	570.8212	22546.2	21741.45
822.1897	572.958	22463.7	21654.3
822.3342	575.0942	22325.3	21518.75
822.4786	577.2299	22291	21481.1
822.6231	579.3648	22212.7	21404.2
822.7675	581.4992	22102.7	21294.75
822.912	583.6329	22028.05	21219.8
823.0565	585.766	22040.15	21230.25
823.201	587.8985	22029.55	21219.1
823.3454	590.0304	21975.25	21150.45
823.4899	592.1616	21933.25	21117.1
823.6345	594.2922	21910.85	21097.65
823.779	596.4222	21834.3	21019.75
823.9235	598.5515	21772.45	20956.35
824.068	600.6802	21718.5	20902.95
824.2126	602.8083	21575.75	20760.4
824.3571	604.9358	21590.35	20771.55
824.5017	607.0626	21515.5	20696.55
824.6462	609.1888	21496.9	20677.45
824.7908	611.3144	21508.7	20688.75
824.9354	613.4393	21484.6	20667
825.08	615.5636	21473.6	20653.3
825.2246	617.6873	21512.35	20694.45
825.3692	619.8103	21506.95	20687.3
825.5138	621.9327	21431.4	20607.3
825.6584	624.0544	21466.35	20647.8
825.803	626.1756	21393.1	20572.15
825.9477	628.2961	21323.5	20500.15
826.0923	630.4159	21282.15	20459.8
826.237	632.5351	21293.35	20470.1
826.3816	634.6537	21215.4	20392.75
826.5263	636.7716	21167.45	20340.6
826.6709	638.8889	21197.75	20372.45
826.8156	641.0056	21245.3	20418
826.9603	643.1216	21176.9	20351.5
827.105	645.237	21204.55	20376.7
827.2497	647.3518	21121.7	20294.75
827.3944	649.4659	21134.65	20311.75
827.5391	651.5793	21108.7	20283.75
827.6838	653.6922	21006.3	20181.1
827.8285	655.8043	20969.1	20144.45
827.9733	657.9159	20992.2	20164.25
828.118	660.0268	20926.7	20097.8
828.2627	662.137	20883.45	20054.7
828.4075	664.2466	20864.3	20036.05
828.5522	666.3556	20836.7	20007.5
828.697	668.4639	20753	19922.7
828.8418	670.5716	20792.4	19963.15
828.9865	672.6786	20778.3	19948
829.1313	674.785	20699.6	19866.3
829.2761	676.8907	20674	19845.15
829.4209	678.9958	20691.3	19858.85
829.5657	681.1002	20586.95	19752.2
829.7105	683.204	20561.05	19724.05
829.8553	685.3072	20514.45	19679.6
830.0001	687.4097	20465	19633.25
830.1449	689.5115	20467.9	19633.85
830.2898	691.6127	20481.35	19648.95
830.4346	693.7132	20453.05	19619.35
830.5794	695.8131	20472.5	19630.15
830.7243	697.9123	20445.75	19609.5
830.8691	700.0109	20386.3	19550.4
831.014	702.1089	20376.45	19543.45
831.1588	704.2061	20378.9	19545.1
831.3037	706.3028	20357.15	19519.55
831.4486	708.3987	20361.9	19524.55
831.5935	710.4941	20314	19478.05
831.7383	712.5887	20279.25	19443.1
831.8832	714.6827	20280.6	19439.65
832.0281	716.7761	20269.85	19432.15
832.173	718.8688	20259.95	19420.1
832.3179	720.9608	20215.75	19373.55
832.4628	723.0522	20215.6	19374.5
832.6077	725.1429	20150.1	19312.2
832.7527	727.233	20205.1	19364.85
832.8976	729.3224	20244	19403.4
833.0425	731.4112	20209.2	19366.3
833.1874	733.4993	20171.5	19327.8
833.3324	735.5867	20116.9	19274.9
833.4773	737.6735	20064.3	19222.4
833.6222	739.7596	19980.9	19136.35
833.7672	741.845	19947.45	19106.6
833.9122	743.9298	19902.4	19058.75
834.0571	746.014	19839.85	18997.35
834.2021	748.0974	19863.45	19019.4
834.347	750.1802	19802.75	18957.9
834.492	752.2624	19736.1	18891.05
834.637	754.3439	19644.85	18798.6
834.782	756.4247	19601.7	18747.6
834.9269	758.5048	19518.65	18675.15
835.0719	760.5843	19492.5	18646.7
835.2169	762.6631	19459.75	18615.05
835.3619	764.7413	19439.8	18596.8
835.5069	766.8188	19517.05	18669.95
835.6519	768.8956	19431.6	18583.35
835.7969	770.9718	19508.65	18665.2
835.9419	773.0473	19412.85	18566.2
836.0869	775.1221	19404.35	18558.65
836.232	777.1962	19333.95	18487.3
836.377	779.2697	19336.15	18486.45
836.522	781.3426	19329.2	18463.05
836.667	783.4147	19324.85	18474.2
836.8121	785.4862	19322.25	18475.2
836.9571	787.557	19190.45	18342.45
837.1021	789.6271	19108.55	18261.5
837.2472	791.6966	18992.8	18144.25
837.3922	793.7654	18909.2	18057.8
837.5373	795.8335	18898.85	18051.95
837.6823	797.901	18808.8	17959.9
837.8274	799.9678	18777.9	17929
837.9724	802.0339	18749.75	17901.25
838.1175	804.0993	18738.4	17877.1
838.2626	806.1641	18697.15	17847.4
838.4076	808.2282	18661.1	17811.55
838.5527	810.2916	18601.35	17749.4
838.6978	812.3544	18573.15	17726.25
838.8428	814.4164	18556.6	17707
838.9879	816.4778	18600.6	17750.75
839.133	818.5385	18492.25	17642.05
839.2781	820.5986	18511.2	17658.6
839.4232	822.658	18529.8	17677.5
839.5682	824.7166	18486.25	17635.4
839.7133	826.7747	18566.5	17713.45
839.8584	828.832	18608.5	17756.9
840.0035	830.8886	18545.15	17691.95
840.1486	832.9446	18572.8	17722.1
840.2937	834.9999	18452	17601.45
840.4388	837.0545	18416.05	17558.75
840.5839	839.1085	18356.15	17502
840.729	841.1618	18258.75	17402.8
840.8741	843.2143	18216.3	17361.7
841.0192	845.2662	18170.7	17316.4
841.1643	847.3175	18148.3	17295.45
841.3095	849.368	18095	17240.45
841.4546	851.4179	18049.7	17196
841.5997	853.467	17972.85	17119.3
841.7448	855.5155	17970.9	17116.75
841.8899	857.5633	17949.9	17094.75
842.0351	859.6105	17884.85	17029.4
842.1802	861.6569	17870.15	17014.25
842.3253	863.7027	17837.6	16981.5
842.4704	865.7478	17860.4	17004.2
842.6156	867.7922	17806.8	16952.85
842.7607	869.8359	17765.55	16909.45
842.9058	871.8789	17741.85	16884.55
843.0509	873.9212	17738.25	16848.15
843.1961	875.9629	17661.45	16804.7
843.3412	878.0039	17684.65	16827.7
843.4863	880.0441	17673.95	16818.15
843.6315	882.0837	17671.8	16813.45
843.7766	884.1226	17636.7	16781.45
843.9218	886.1609	17669.05	16813.3
844.0669	888.1984	17690.65	16836
844.212	890.2352	17740.8	16883.7
844.3572	892.2714	17735.55	16875.4
844.5023	894.3069	17704.2	16846.1
844.6475	896.3416	17613.1	16754.85
844.7926	898.3757	17593.55	16736
844.9377	900.4091	17525.45	16667
845.0829	902.4418	17506.05	16643.25
845.228	904.4739	17424.4	16564.45
845.3732	906.5052	17439.8	16580.45
845.5183	908.5358	17411.15	16553.6
845.6635	910.5658	17391.2	16531.35
845.8086	912.595	17304.15	16444.8
845.9538	914.6236	17225.5	16364.85
846.0989	916.6515	17210.55	16349.55
846.2441	918.6786	17178	16315.4
846.3892	920.7051	17157.45	16296.2
846.5344	922.7309	17179.6	16317.55
846.6795	924.756	17087.5	16226.75
846.8246	926.7804	17097.7	16234.4
846.9698	928.8041	16981.55	16118.25
847.1149	930.8272	16984.8	16125
847.2601	932.8495	16889.2	16026.75
847.4052	934.8711	16891.9	16030.9
847.5504	936.892	16850.3	15986.95
847.6955	938.9123	16853.85	15990.85
847.8407	940.9318	16822.65	15959.4
847.9858	942.9506	16767.8	15904.05
848.131	944.9688	16738.35	15877.35
848.2761	946.9862	16671.5	15810.25
848.4213	949.003	16553.3	15693
848.5664	951.019	16502.7	15639.6
848.7115	953.0344	16474.1	15610.9
848.8567	955.0491	16439.65	15575.1
849.0018	957.063	16458.5	15596.6
849.147	959.0763	16446.3	15583.9
849.2921	961.0888	16391.55	15529.45
849.4373	963.1007	16400.4	15537.1
849.5824	965.1119	16341.05	15479.9
849.7275	967.1223	16334.35	15470.85
849.8727	969.1321	16317.35	15454.1
850.0178	971.1412	16279.45	15416.75
850.1629	973.1495	16232.55	15369
850.3081	975.1572	16247.4	15338.55
850.4532	977.1641	16215.7	15353.25
850.5983	979.1704	16156.8	15291.8
850.7435	981.1759	16122.75	15255.35
850.8886	983.1808	16122.85	15256.25
851.0337	985.1849	16056.3	15181.75
851.1788	987.1884	16038	15169.9
851.324	989.1911	16009.75	15140.4
851.4691	991.1932	15956.75	15093.3
851.6142	993.1945	15913.7	15047.3
851.7593	995.1951	15808.05	14943.2
851.9045	997.1951	15772.15	14901.65
852.0496	999.1943	15746.95	14883.85
852.1947	1001.1928	15700.05	14834.2
852.3398	1003.1906	15646.35	14781.5
852.4849	1005.1877	15660.25	14792.65
852.63	1007.1841	15612.45	14745.7
852.7751	1009.1798	15554.75	14689.85
852.9202	1011.1748	15521.05	14656.3
853.0653	1013.1691	15446.4	14578.25
853.2104	1015.1627	15397.3	14530.9
853.3555	1017.1556	15266.9	14401.8
853.5006	1019.1477	15232.85	14366
853.6457	1021.1392	15141.7	14277.95
853.7908	1023.1299	15079.5	14213.6
853.9359	1025.12	15051.35	14185.2
854.081	1027.1093	14997.55	14134.1
854.2261	1029.0979	14962.55	14097.25
854.3712	1031.0859	14917.75	14053.9
854.5163	1033.0731	14892.9	14025.95
854.6613	1035.0596	14841.65	13974.6
854.8064	1037.0454	14790.4	13925.15
854.9515	1039.0304	14758.15	13889.8
855.0965	1041.0148	14662.95	13795.55
855.2416	1042.9985	14608.9	13741.2
855.3867	1044.9814	14641.25	13776.15
855.5317	1046.9636	14531.6	13662.2
855.6768	1048.9452	14480.7	13613.8
855.8219	1050.926	14477.45	13611.65
855.9669	1052.9061	14455.85	13589.9
856.112	1054.8855	14400.75	13530.45
856.257	1056.8642	14413.95	13546.2
856.4021	1058.8421	14396	13523.35
856.5471	1060.8194	14338.05	13469.6
856.6921	1062.7959	14302.15	13433.55
856.8372	1064.7717	14282.3	13414.1
856.9822	1066.7469	14247.75	13377.9
857.1272	1068.7213	14227.85	13356.15
857.2723	1070.695	14253.8	13385.8
857.4173	1072.6679	14155.45	13285.55
857.5623	1074.6402	14156.55	13287
857.7073	1076.6117	14181.55	13308.2
857.8523	1078.5826	14180.1	13309.35
857.9973	1080.5527	14104.15	13232
858.1423	1082.5221	14018.55	13147.1
858.2873	1084.4908	13976.95	13108.3
858.4323	1086.4587	13944.4	13072.7
858.5773	1088.426	13907.15	13036.1
858.7223	1090.3925	13866.5	12991
858.8673	1092.3584	13858.45	12988.15
859.0123	1094.3235	13822.4	12953.65
859.1573	1096.2879	13793.65	12923.3
859.3022	1098.2515	13771.3	12900.2
859.4472	1100.2145	13811.45	12940.95
859.5922	1102.1767	13776.9	12905.45
859.7371	1104.1382	13758.45	12889.95
859.8821	1106.099	13751.6	12879.4
860.027	1108.0591	13741.15	12871.05
860.172	1110.0185	13713	12841.9
860.3169	1111.9771	13775.45	12903.55
860.4619	1113.9351	13739.85	12871
860.6068	1115.8923	13774.45	12903.6
860.7517	1117.8488	13721.3	12848.4
860.8967	1119.8045	13669.55	12799.2
861.0416	1121.7596	13569.8	12696.35
861.1865	1123.7139	13469.3	12599.25
861.3314	1125.6675	13419.15	12549.45
861.4763	1127.6204	13395.95	12526.2
861.6212	1129.5726	13353.6	12481.1
861.7661	1131.524	13368.95	12498
861.911	1133.4748	13317.25	12445.05
862.0559	1135.4248	13226.15	12354.55
862.2008	1137.3741	13191.25	12320.1
862.3457	1139.3226	13140.2	12266.95
862.4905	1141.2705	13156.45	12284.8
862.6354	1143.2176	13085.05	12207.45
862.7803	1145.164	13092.1	12221.45
862.9251	1147.1097	13049.95	12178.6
863.07	1149.0546	13026.55	12150.8
863.2148	1150.9989	13012.3	12139.15
863.3597	1152.9424	12996.05	12124.7
863.5045	1154.8852	12994	12122.05
863.6493	1156.8272	12938.85	12067.9
863.7942	1158.7686	12938.85	12058.35
863.939	1160.7092	12880.7	12006.4
864.0838	1162.6491	12861.25	11985.05
864.2286	1164.5883	12834.7	11962.05
864.3734	1166.5267	12802.15	11927.35
864.5182	1168.4644	12809.9	11935.3
864.663	1170.4014	12829.75	11953.65
864.8078	1172.3377	12867.45	11996.95
864.9526	1174.2732	12874.4	12002.8
865.0974	1176.2081	12924	12051.65
865.2421	1178.1421	12947.75	12070.9
865.3869	1180.0755	13024.05	12152.95
865.5317	1182.0082	13019.9	12147.85
865.6764	1183.9401	13003.95	12130.05
865.8212	1185.8713	12912.7	12041.15
865.9659	1187.8017	12815.55	11941.8
866.1106	1189.7315	12743.45	11872.3
866.2554	1191.6605	12607.4	11733.85
866.4001	1193.5888	12509.75	11636.8
866.5448	1195.5163	12481.9	11611
866.6895	1197.4432	12437.8	11562.65
866.8342	1199.3693	12404.15	11531.9
866.9789	1201.2947	12315.9	11441.6
867.1236	1203.2193	12268.3	11395.4
867.2683	1205.1432	12270.7	11397.45
867.413	1207.0664	12219.5	11346.4
867.5576	1208.9889	12195.1	11318.6
867.7023	1210.9106	12141.05	11270.4
867.847	1212.8316	12120.8	11248
867.9916	1214.7519	12103.7	11220.85
868.1363	1216.6715	12049.05	11174.85
868.2809	1218.5903	12038.9	11166.7
868.4255	1220.5084	12050.1	11175.8
868.5701	1222.4257	12060.3	11183.45
868.7148	1224.3424	11999.15	11125.8
868.8594	1226.2583	12002.75	11126.4
869.004	1228.1735	11964.2	11089.25
869.1486	1230.0879	11936.65	11063.1
869.2932	1232.0016	11958.55	11085.05
869.4377	1233.9146	11965.15	11092.35
869.5823	1235.8269	11902.95	11029.15
869.7269	1237.7384	11917.25	11041.8
869.8715	1239.6492	11868.65	10993.8
870.016	1241.5592	11892.05	11018.25
870.1606	1243.4686	11876.5	11003.9
870.3051	1245.3772	11892.05	11019.5
870.4496	1247.285	11930.25	11057.05
870.5941	1249.1922	11954.5	11081.5
870.7387	1251.0986	11996.3	11124.05
870.8832	1253.0042	11996.25	11122.55
871.0277	1254.9092	12054	11178.65
871.1722	1256.8134	12027.95	11153.05
871.3167	1258.7169	12114.3	11238.85
871.4611	1260.6196	12125.65	11252.85
871.6056	1262.5216	12130.4	11254.5
871.7501	1264.4229	12076.95	11203.45
871.8945	1266.3234	12051.1	11177.2
872.039	1268.2232	11999.2	11122
872.1834	1270.1223	11951.9	11075.2
872.3278	1272.0207	11907.7	11032.3
872.4723	1273.9183	11869.55	10989.4
872.6167	1275.8151	11842.95	10968.45
872.7611	1277.7113	11888.5	11012.5
872.9055	1279.6067	11907.45	11031.75
873.0499	1281.5014	11968.95	11093.6
873.1943	1283.3953	12073.1	11195.6
873.3386	1285.2885	12183.75	11309.25
873.483	1287.181	12269.45	11394.7
873.6274	1289.0727	12344.1	11471.45
873.7717	1290.9637	12266.2	11390.7
873.9161	1292.854	12195.45	11320.35
874.0604	1294.7435	12096.95	11219.15
874.2047	1296.6323	12022.4	11144.95
874.349	1298.5204	11955.3	11075.75
874.4933	1300.4077	11878	11001.95
874.6376	1302.2943	11829.85	10956.55
874.7819	1304.1802	11807.55	10932.5
874.9262	1306.0653	11749.2	10872.1
875.0705	1307.9497	11706.7	10831.45
875.2147	1309.8333	11686.15	10811.7
875.359	1311.7162	11698.7	10824.5
875.5032	1313.5984	11629.5	10752.8
875.6475	1315.4798	11558.5	10671.4
875.7917	1317.3605	11563.85	10671.45
875.9359	1319.2405	11578.65	10700.1
876.0801	1321.1197	11519.25	10640
876.2243	1322.9982	11471.05	10588.85
876.3685	1324.876	11423.4	10549.1
876.5127	1326.753	11333.4	10457.75
876.6569	1328.6293	11288.6	10412.1
876.801	1330.5048	11238.85	10360.95
876.9452	1332.3796	11133.5	10258.85
877.0893	1334.2537	11122.55	10221.9
877.2335	1336.127	11082.4	10206.9
877.3776	1337.9996	11016.05	10139.65
877.5217	1339.8714	10978.15	10100.85
877.6658	1341.7426	10975.75	10056.45
877.8099	1343.6129	10948.25	10073.65
877.954	1345.4826	10906.6	10029.05
878.0981	1347.3515	10903.35	10024.35
878.2422	1349.2196	10847.75	9972.45
878.3862	1351.087	10827.25	9951.15
878.5303	1352.9537	10820.4	9944.55
878.6743	1354.8197	10815.15	9940.15
878.8184	1356.6849	10848.8	9970.7
878.9624	1358.5493	10791.55	9916.6
879.1064	1360.4131	10803.9	9927.5
879.2504	1362.276	10804.5	9929
879.3944	1364.1383	10824.05	9949.75
879.5384	1365.9998	10805.85	9924.2
879.6823	1367.8606	10753.4	9875.95
879.8263	1369.7206	10773.3	9897.05
879.9702	1371.5799	10734.4	9854.6
880.1142	1373.4384	10702.45	9824.25
880.2581	1375.2962	10678.65	9798.95
880.402	1377.1533	10602.15	9727.05
880.5459	1379.0096	10490.2	9613.85
880.6898	1380.8652	10468.95	9592.75
880.8337	1382.7201	10447.95	9571.6
880.9776	1384.5742	10370.9	9494.25
881.1215	1386.4275	10319.5	9442
881.2653	1388.2802	10271.85	9394.05
881.4092	1390.132	10227.75	9350.5
881.553	1391.9832	10244.2	9363.3
881.6968	1393.8336	10146.45	9268.2
881.8406	1395.6832	10129.5	9250.3
881.9844	1397.5322	10077.95	9198.65
882.1282	1399.3803	10055.4	9174.7
882.272	1401.2278	10005.35	9127.25
882.4158	1403.0745	9983.7	9104.95
882.5595	1404.9204	9925.9	9050.75
882.7033	1406.7656	9924.6	9047.85
882.847	1408.6101	9880.6	9002.65
882.9908	1410.4538	9873.25	8998.6
883.1345	1412.2968	9827.15	8950.8
883.2782	1414.139	9789.5	8912.85
883.4219	1415.9805	9786.45	8910.65
883.5656	1417.8213	9774.8	8877.7
883.7092	1419.6613	9745.6	8868.45
883.8529	1421.5006	9738.6	8860.45
883.9965	1423.3391	9726.6	8850.8
884.1402	1425.1769	9748.45	8867.75
884.2838	1427.0139	9766.45	8888.45
884.4274	1428.8502	9789.65	8911.2
884.571	1430.6858	9817.95	8940.95
884.7146	1432.5206	9802	8924.65
884.8582	1434.3547	9808.2	8930.5
885.0018	1436.188	9786.4	8910.4
885.1453	1438.0206	9770.1	8892.3
885.2889	1439.8524	9738.55	8860.1
885.4324	1441.6835	9734.95	8855.95
885.5759	1443.5139	9705.3	8824.25
885.7194	1445.3435	9661.15	8782.4
885.8629	1447.1724	9667.7	8789.8
886.0064	1449.0005	9667.55	8788.75
886.1499	1450.8279	9628.7	8747.45
886.2933	1452.6545	9634.95	8757.8
886.4368	1454.4804	9601.3	8725.85
886.5802	1456.3056	9593.75	8709.5
886.7237	1458.13	9555.6	8677.4
886.8671	1459.9536	9547.45	8668.95
887.0105	1461.7766	9488.5	8610.35
887.1539	1463.5987	9451.85	8573.85
887.2972	1465.4202	9385.65	8507.15
887.4406	1467.2409	9337.55	8460.4
887.584	1469.0608	9330.7	8454.65
887.7273	1470.88	9284.45	8407.05
887.8706	1472.6984	9242.7	8363.6
888.0139	1474.5161	9208.5	8326.95
888.1572	1476.3331	9179.35	8303.4
888.3005	1478.1493	9160.75	8282.05
888.4438	1479.9648	9158.55	8280.15
888.5871	1481.7795	9140.6	8263.65
888.7303	1483.5935	9111.8	8234.7
888.8736	1485.4067	9098.25	8219.6
889.0168	1487.2192	9096.6	8217.85
889.16	1489.031	9103	8223.1
889.3032	1490.842	9074.15	8195.55
889.4464	1492.6522	9055.35	8176.9
889.5896	1494.4618	9024.75	8145.55
889.7327	1496.2705	9018.85	8141.95
889.8759	1498.0785	8993.1	8114.8
890.019	1499.8858	8958.3	8079.95
890.1622	1501.6924	8925.5	8049.05
890.3053	1503.4981	8888.7	8010.75
890.4484	1505.3032	8913	8034.7
890.5914	1507.1075	8868	7990.35
890.7345	1508.911	8848.8	7969.2
890.8776	1510.7138	8822.65	7944.75
891.0206	1512.5159	8798.65	7921.65
891.1637	1514.3172	8780.9	7903.25
891.3067	1516.1178	8737.55	7860
891.4497	1517.9176	8719.95	7840.05
891.5927	1519.7166	8688.2	7809.2
891.7357	1521.515	8661.85	7777.15
891.8786	1523.3126	8645.1	7766.25
892.0216	1525.1094	8599	7719.4
892.1645	1526.9055	8591.8	7714.85
892.3074	1528.7008	8541.8	7662.6
892.4503	1530.4954	8516.5	7637.15
892.5932	1532.2893	8476.95	7598.85
892.7361	1534.0824	8452.85	7572.2
892.879	1535.8747	8423.8	7547.3
893.0218	1537.6663	8383.7	7505.2
893.1647	1539.4572	8379.3	7500.2
893.3075	1541.2473	8377.15	7499.2
893.4503	1543.0367	8328.75	7452.5
893.5931	1544.8253	8296.35	7416.6
893.7359	1546.6132	8295.15	7414.3
893.8787	1548.4003	8261.55	7373.55
894.0214	1550.1867	8250.35	7364.9
894.1642	1551.9723	8211.4	7330.55
894.3069	1553.7572	8213.2	7331.95
894.4496	1555.5414	8192.15	7312.55
894.5923	1557.3247	8190.3	7312.3
894.735	1559.1074	8177.1	7300.35
894.8777	1560.8893	8190.05	7313.85
895.0204	1562.6705	8172.3	7295.2
895.163	1564.4509	8183.1	7306.35
895.3056	1566.2305	8151.55	7274.8
895.4482	1568.0094	8155.65	7278.85
895.5908	1569.7876	8137.2	7260.4
895.7334	1571.565	8116.3	7236.8
895.876	1573.3417	8116.65	7238.6
896.0186	1575.1176	8080.75	7204.1
896.1611	1576.8928	8075.2	7195.9
896.3036	1578.6672	8057.6	7180.75
896.4461	1580.4409	8062.65	7187.05
896.5886	1582.2138	8064.45	7185.55
896.7311	1583.986	8041.3	7164
896.8736	1585.7575	8054.65	7178.35
897.0161	1587.5282	8037.9	7163.15
897.1585	1589.2981	8074.65	7198
897.3009	1591.0673	8029.45	7151.8
897.4433	1592.8358	8016.95	7140.55
897.5857	1594.6035	8018.5	7139.65
897.7281	1596.3704	7973.45	7096.35
897.8705	1598.1366	7952	7075.75
898.0128	1599.9021	7906.35	7030.25
898.1551	1601.6668	7839.7	6960.95
898.2975	1603.4308	7813	6934.05
898.4398	1605.194	7798	6915.4
898.5821	1606.9564	7779	6903.8
898.7243	1608.7182	7827.55	6945.65
898.8666	1610.4791	7839.35	6964.4
899.0088	1612.2394	7876.1	7001.55
899.1511	1613.9988	7934.3	7058.05
899.2933	1615.7576	7974.7	7099.75
899.4355	1617.5156	7986.3	7103.65
899.5776	1619.2728	7946.7	7069.7
899.7198	1621.0293	7888.5	7013.95
899.862	1622.785	7795.65	6914.7
900.0041	1624.54	7659.05	6780.7
900.1462	1626.2942	7545.85	6668.1
900.2883	1628.0477	7460.2	6579.85
900.4304	1629.8005	7386.35	6506.2
900.5725	1631.5525	7323.05	6446.3
900.7145	1633.3037	7221.05	6344.75
900.8566	1635.0542	7191.9	6314.9
900.9986	1636.804	7156.95	6280.85
901.1406	1638.553	7169.85	6213.9
901.2826	1640.3013	7101.95	6225.95
901.4245	1642.0488	7053.55	6174.15
901.5665	1643.7955	7023.85	6149.35
901.7085	1645.5416	7006.85	6127.95
901.8504	1647.2868	6958.45	6082.05
901.9923	1649.0313	6915.7	6039.2
902.1342	1650.7751	6908.7	6029.6
902.2761	1652.5181	6884.5	6008
902.4179	1654.2604	6843.4	5966.1
902.5598	1656.0019	6848.15	5972.9
902.7016	1657.7427	6836.4	5959.4
902.8434	1659.4828	6850.75	5975.05
902.9852	1661.222	6825.55	5946.35
903.127	1662.9606	6849.45	5973.95
903.2687	1664.6984	6847.9	5972.45
903.4105	1666.4354	6836.05	5958.4
903.5522	1668.1717	6813.05	5935.85
903.6939	1669.9072	6723.1	5848.35
903.8356	1671.642	6690.8	5810.65
903.9773	1673.3761	6644.75	5767.4
904.119	1675.1094	6599.1	5723.1
904.2606	1676.8419	6548.75	5671.55
904.4022	1678.5737	6536.8	5659.35
904.5439	1680.3048	6501.6	5625.3
904.6855	1682.0351	6452.15	5574.35
904.827	1683.7646	6415.65	5535.05
904.9686	1685.4934	6409.15	5531.7
905.1101	1687.2215	6374.7	5497.4
905.2517	1688.9488	6331.4	5455.2
905.3932	1690.6754	6325.7	5452.6
905.5347	1692.4012	6309.65	5432.6
905.6761	1694.1263	6286.8	5411.05
905.8176	1695.8506	6287.15	5409.15
905.9591	1697.5742	6246.95	5369.75
906.1005	1699.297	6218.5	5342.7
906.2419	1701.0191	6197.2	5320.2
906.3833	1702.7404	6159.25	5281.95
906.5246	1704.461	6109.25	5231.8
906.666	1706.1808	6124.45	5244.35
906.8073	1707.8999	6089.45	5211
906.9487	1709.6182	6061.4	5185.15
907.09	1711.3358	6063.25	5186.6
907.2313	1713.0527	6042.6	5169.1
907.3725	1714.7688	6023.7	5140.5
907.5138	1716.4841	5990.15	5112.35
907.655	1718.1987	6002.65	5120.1
907.7962	1719.9126	5980.75	5104.55
907.9374	1721.6257	5956.15	5075.95
908.0786	1723.338	5936.9	5057.7
908.2198	1725.0496	5939.25	5061.55
908.3609	1726.7605	5922.85	5044.8
908.502	1728.4706	5892.5	5015
908.6431	1730.18	5876.25	4999.05
908.7842	1731.8886	5855.7	4979.75
908.9253	1733.5964	5848.4	4966.8
909.0664	1735.3036	5858.75	4979.65
909.2074	1737.0099	5840.4	4963.1
909.3484	1738.7156	5842.75	4967.95
909.4894	1740.4204	5833.6	4951.4
909.6304	1742.1246	5812.5	4933.95
909.7714	1743.8279	5803.4	4927.25
909.9123	1745.5306	5800.65	4923.95
910.0532	1747.2325	5797.5	4921.6
910.1941	1748.9336	5756.35	4881.4
910.335	1750.634	5723.15	4845.1
910.4759	1752.3336	5741.4	4865.45
910.6168	1754.0325	5737.8	4859.65
910.7576	1755.7307	5722.45	4845.45
910.8984	1757.4281	5717.95	4843.1
911.0392	1759.1247	5709.35	4825.25
911.18	1760.8206	5717.6	4837
911.3208	1762.5158	5718.95	4837.3
911.4615	1764.2102	5699.1	4822.75
911.6022	1765.9039	5663.85	4787.7
911.7429	1767.5968	5658.15	4780.3
911.8836	1769.289	5647.45	4770.8
912.0243	1770.9804	5639.15	4760.95
912.1649	1772.6711	5631.45	4755.15
912.3056	1774.361	5623.75	4745.1
912.4462	1776.0502	5618.85	4741.65
912.5868	1777.7386	5610.9	4731.65
912.7274	1779.4263	5589.95	4713.2
912.8679	1781.1132	5585.25	4708.5
913.0084	1782.7994	5564.7	4688.25
913.149	1784.4849	5549.95	4675.85
913.2895	1786.1696	5554.2	4659.6
913.4299	1787.8535	5529.75	4654.65
913.5704	1789.5367	5515.95	4638.4
913.7108	1791.2192	5493.35	4617
913.8513	1792.9009	5506.15	4597.7
913.9917	1794.5818	5478.2	4600.8
914.132	1796.2621	5472.45	4596.4
914.2724	1797.9415	5462.1	4583.05
914.4128	1799.6202	5433.65	4555.9
914.5531	1801.2982	5425.4	4547.95
914.6934	1802.9755	5420.9	4543.95
914.8337	1804.6519	5422.8	4545.65
914.9739	1806.3277	5363.45	4486
915.1142	1808.0027	5364.9	4488.5
915.2544	1809.6769	5364.85	4487.85
915.3946	1811.3504	5353.45	4476.9
915.5348	1813.0231	5339.6	4463.15
915.675	1814.6951	5349.05	4471.25
915.8151	1816.3664	5331.6	4453.3
915.9553	1818.0369	5322.9	4444.75
916.0954	1819.7067	5304.25	4428.35
916.2355	1821.3757	5299.65	4421.25
916.3755	1823.044	5315	4438.2
916.5156	1824.7115	5297.5	4418.35
916.6556	1826.3783	5254.9	4378.4
916.7956	1828.0443	5233.65	4356.7
916.9356	1829.7096	5235.95	4358.45
917.0756	1831.3741	5233.25	4351.65
917.2155	1833.0379	5218.75	4344.4
917.3555	1834.701	5201.95	4323.25
917.4954	1836.3633	5185.6	4307.25
917.6353	1838.0248	5184.55	4306
917.7751	1839.6856	5182.35	4306.5
917.915	1841.3457	5161.3	4285.25
918.0548	1843.005	5151.7	4275.55
918.1946	1844.6636	5157.55	4280.75
918.3344	1846.3214	5136.9	4259.55
918.4742	1847.9785	5125.75	4250.75
918.6139	1849.6349	5132.45	4254.65
918.7537	1851.2904	5132.8	4245.8
918.8934	1852.9453	5092.7	4215.05
919.0331	1854.5994	5092.9	4212.35
919.1727	1856.2528	5101.7	4219.35
919.3124	1857.9054	5092.3	4215.25
919.452	1859.5572	5063.6	4187.45
919.5916	1861.2083	5050.35	4172.95
919.7312	1862.8587	5040.45	4164.95
919.8708	1864.5084	5031	4152
920.0103	1866.1572	5021.35	4145.45
920.1498	1867.8054	5009.8	4133.4
920.2893	1869.4528	4993.75	4117.25
920.4288	1871.0994	5003.1	4128.35
920.5683	1872.7453	5002.55	4124.35
920.7077	1874.3905	4970	4087.35
920.8471	1876.0349	4954.05	4075.1
920.9865	1877.6786	4965.1	4085.35
921.1259	1879.3215	4947.5	4072.35
921.2653	1880.9637	4948.65	4069.3
921.4046	1882.6051	4955.5	4078.05
921.5439	1884.2458	4940.55	4061.85
921.6832	1885.8858	4913.55	4037.3
921.8225	1887.525	4910.65	4033.65
921.9617	1889.1634	4889.7	4014.3
922.101	1890.8011	4876.3	3997.8
922.2402	1892.4381	4860.95	3985.3
922.3794	1894.0743	4870.9	3993.75
922.5185	1895.7098	4853.3	3976.35
922.6577	1897.3446	4844.05	3964.85
922.7968	1898.9786	4834.65	3953.4
922.9359	1900.6118	4833.1	3956.85
923.075	1902.2443	4804.75	3924.8
923.214	1903.8761	4812.3	3936.4
923.3531	1905.5071	4784.45	3906.55
923.4921	1907.1374	4775.6	3898.85
923.6311	1908.7669	4764.25	3888.15
923.77	1910.3957	4766.4	3887.75
923.909	1912.0237	4733.6	3855.25
924.0479	1913.651	4741.85	3863.45
924.1868	1915.2776	4705.85	3831.2
924.3257	1916.9034	4681.6	3806.3
924.4646	1918.5285	4685.5	3806.1
924.6034	1920.1528	4672.6	3796.35
924.7422	1921.7764	4669.2	3793.55
924.881	1923.3992	4650.2	3774.55
925.0198	1925.0213	4638.8	3761.95
925.1586	1926.6427	4618.5	3742.6
925.2973	1928.2633	4794.9	3703.3
925.436	1929.8832	4632.65	3751.2
925.5747	1931.5023	4589.4	3712.05
925.7134	1933.1207	4584.05	3705.5
925.852	1934.7383	4574.1	3697
925.9906	1936.3552	4544.5	3669.05
926.1292	1937.9714	4549.65	3671.15
926.2678	1939.5868	4538.9	3660.85
926.4064	1941.2015	4532	3654.75
926.5449	1942.8154	4506	3627.4
926.6834	1944.4286	4490.3	3614
926.8219	1946.041	4490.9	3593.05
926.9604	1947.6528	4463.4	3579.9
927.0988	1949.2637	4448.05	3570.95
927.2372	1950.8739	4443.55	3563.45
927.3756	1952.4834	4442.65	3563.55
927.514	1954.0921	4432.7	3556.1
927.6523	1955.7001	4432.15	3551
927.7907	1957.3074	4410.25	3533.55
927.929	1958.9139	4408.5	3533.7
928.0673	1960.5197	4413.4	3535.95
928.2055	1962.1247	4369.15	3492.65
928.3438	1963.729	4372.65	3496.4
928.482	1965.3325	4360.7	3460.35
928.6202	1966.9353	4349.05	3474.55
928.7584	1968.5374	4326.75	3449.2
928.8965	1970.1387	4316.75	3440.75
929.0346	1971.7393	4309.45	3432.75
929.1727	1973.3392	4303.85	3428.7
929.3108	1974.9383	4286.85	3409.55
929.4489	1976.5366	4294.2	3417.45
929.5869	1978.1342	4285.9	3408.25
929.7249	1979.7311	4267.15	3387.35
929.8629	1981.3273	4260.05	3382.4
930.0009	1982.9227	4258.5	3380.65
930.1388	1984.5173	4242.7	3365.7
930.2767	1986.1112	4220.4	3345.5
930.4146	1987.7044	4217.6	3342.25
930.5525	1989.2968	4209.6	3333.75
930.6904	1990.8885	4213.9	3334.3
930.8282	1992.4795	4207.2	3328.8
930.966	1994.0697	4182.05	3306.3
931.1038	1995.6592	4175.8	3299.5
931.2415	1997.2479	4175.55	3299.05
931.3793	1998.8359	4168.3	3293.3
931.517	2000.4232	4146.2	3270.5
931.6547	2002.0097	4136.6	3261.85
931.7923	2003.5955	4125.7	3248.7
931.93	2005.1805	4132.1	3254.85
932.0676	2006.7648	4116.4	3242.25
932.2052	2008.3484	4109.6	3233
932.3427	2009.9312	4108.35	3230.55
932.4803	2011.5133	4083.7	3208.95
932.6178	2013.0946	4092.55	3217.7
932.7553	2014.6752	4084.25	3210
932.8928	2016.2551	4083.7	3205.9
933.0302	2017.8342	4054.45	3179.6
933.1676	2019.4126	4076	3201.3
933.305	2020.9902	4042.65	3168.95
933.4424	2022.5672	4041.6	3165.35
933.5798	2024.1433	4054	3172.75
933.7171	2025.7188	4028	3153.9
933.8544	2027.2935	4019.6	3141.55
933.9917	2028.8674	3998	3123.95
934.129	2030.4406	3991.25	3117.45
934.2662	2032.0131	3973.75	3097.1
934.4034	2033.5849	3966.6	3085.7
934.5406	2035.1559	3962.8	3088.55
934.6778	2036.7261	3972	3096.15
934.8149	2038.2957	3952.35	3077.25
934.952	2039.8645	3953.35	3078.35
935.0891	2041.4325	3969.75	3090.85
935.2262	2042.9998	3954.85	3078.85
935.3632	2044.5664	3948.85	3072.75
935.5002	2046.1323	3946.6	3072.45
935.6372	2047.6974	3925.9	3049.5
935.7742	2049.2617	3922.6	3048.35
935.9111	2050.8254	3923.1	3042
936.048	2052.3883	3924.75	3049.5
936.1849	2053.9504	3901.85	3027.5
936.3218	2055.5118	3892.95	3017.05
936.4586	2057.0725	3889.65	3010.3
936.5955	2058.6325	3889.85	3013.65
936.7323	2060.1917	3882.15	3007.55
936.869	2061.7502	3896.45	3018.55
937.0058	2063.3079	3870.05	2995.1
937.1425	2064.8649	3858.55	2980.25
937.2792	2066.4212	3864.8	2987.55
937.4159	2067.9767	3846.05	2969.95
937.5525	2069.5315	3829.5	2953.6
937.6891	2071.0856	3839.35	2963.95
937.8257	2072.6389	3826.25	2949.65
937.9623	2074.1915	3802.95	2928.4
938.0989	2075.7433	3807.3	2930.35
938.2354	2077.2945	3794.15	2920.25
938.3719	2078.8448	3787.3	2911.8
938.5084	2080.3945	3783.25	2908.1
938.6448	2081.9434	3771.05	2895.55
938.7812	2083.4916	3764.9	2887.25
938.9176	2085.039	3765.95	2887.65
939.054	2086.5857	3766.75	2888.1
939.1903	2088.1317	3752.25	2875.65
939.3267	2089.677	3755.75	2880.3
939.463	2091.2215	3738.35	2863.85
939.5992	2092.7652	3727.35	2849.8
939.7355	2094.3083	3737.05	2859.85
939.8717	2095.8506	3730.8	2857.1
940.0079	2097.3921	3727.8	2852.15
940.1441	2098.933	3722.85	2845.75
940.2802	2100.4731	3707.95	2832.7
940.4163	2102.0124	3729.95	2839.35
940.5524	2103.5511	3706.5	2829.65
940.6885	2105.089	3716.35	2840.45
940.8245	2106.6261	3695.45	2818.9
940.9606	2108.1626	3696.25	2819.3
941.0965	2109.6983	3709.7	2805.6
941.2325	2111.2332	3685.7	2808.8
941.3684	2112.7675	3678.5	2802.45
941.5044	2114.301	3668.25	2790.7
941.6403	2115.8337	3659.4	2784.25
941.7761	2117.3657	3659.15	2784.15
941.912	2118.897	3655.95	2780.8
942.0478	2120.4276	3659.8	2777.95
942.1835	2121.9575	3642.2	2765.9
942.3193	2123.4866	3639.65	2760.15
942.455	2125.0149	3631.95	2754.75
942.5907	2126.5426	3621.95	2746.85
942.7264	2128.0695	3615.9	2736.7
942.8621	2129.5956	3603.1	2730.4
942.9977	2131.1211	3604.75	2725.45
943.1333	2132.6458	3608.95	2732
943.2689	2134.1698	3608.5	2730.55
943.4044	2135.693	3597.25	2719.65
943.54	2137.2155	3578.25	2698.2
943.6755	2138.7373	3577.85	2702.15
943.8109	2140.2584	3569.25	2693.95
943.9464	2141.7787	3562.5	2681.4
944.0818	2143.2983	3561.4	2687.45
944.2172	2144.8171	3541.55	2666.65
944.3526	2146.3353	3532.3	2654.7
944.4879	2147.8527	3522.9	2650.05
944.6232	2149.3693	3525.7	2648.85
944.7585	2150.8853	3526.3	2648.45
944.8938	2152.4005	3506.05	2630.7
945.029	2153.9149	3506.45	2630.8
945.1642	2155.4287	3500.1	2626.25
945.2994	2156.9417	3495.1	2617
945.4346	2158.454	3486.75	2607.9
945.5697	2159.9655	3480.9	2605.8
945.7048	2161.4764	3472.9	2599.1
945.8399	2162.9865	3471.25	2595.55
945.9749	2164.4958	3471.5	2594.45
946.1099	2166.0045	3451.2	2572.95
946.2449	2167.5124	3457.45	2582.7
946.3799	2169.0195	3445.1	2567.5
946.5148	2170.526	3448.7	2572.65
946.6498	2172.0317	3436.65	2560.55
946.7846	2173.5367	3431.8	2556.1
946.9195	2175.0409	3425.75	2550.6
947.0543	2176.5445	3418.45	2543.6
947.1891	2178.0473	3407.25	2531.1
947.3239	2179.5494	3402.5	2521.65
947.4587	2181.0507	3393.85	2518.45
947.5934	2182.5513	3378.95	2504.75
947.7281	2184.0512	3372.85	2496.7
947.8628	2185.5504	3374.25	2498.7
947.9974	2187.0488	3360.5	2485.25
948.132	2188.5465	3347.6	2472.7
948.2666	2190.0435	3350.05	2474.05
948.4012	2191.5397	3345.55	2470.4
948.5357	2193.0353	3330.05	2456.6
948.6702	2194.5301	3324.8	2447.55
948.8047	2196.0241	3310.15	2434.9
948.9392	2197.5175	3318.2	2442.8
949.0736	2199.0101	3311.6	2432.55
949.208	2200.502	3304.85	2428.8
949.3424	2201.9931	3283.55	2407.5
949.4767	2203.4835	3268.6	2392.75
949.611	2204.9733	3277.7	2395.5
949.7453	2206.4622	3263.1	2389.7
949.8796	2207.9505	3271.25	2393.6
950.0138	2209.438	3255.95	2379.5
950.148	2210.9248	3228.4	2351
950.2822	2212.4109	3226.6	2351.65
950.4164	2213.8962	3219.5	2341.55
950.5505	2215.3809	3215.35	2337.1
950.6846	2216.8648	3222.3	2347.65
950.8186	2218.3479	3207.5	2328.7
950.9527	2219.8304	3195.8	2317.4
951.0867	2221.3121	3195.3	2315.55
951.2207	2222.7931	3177.25	2301.75
951.3546	2224.2733	3174.85	2297.45
951.4886	2225.7529	3162.8	2286.6
951.6225	2227.2317	3157.55	2278.75
951.7563	2228.7098	3145.8	2269.8
951.8902	2230.1872	3143.75	2268.3
952.024	2231.6638	3160.85	2283.75
952.1578	2233.1397	3138.45	2257.8
952.2916	2234.6149	3139.5	2264.8
952.4253	2236.0894	3129.45	2253.75
952.559	2237.5632	3115.15	2228.25
952.6927	2239.0362	3104.2	2228.85
952.8263	2240.5085	3095.65	2219.8
952.9599	2241.9801	3100.9	2224.9
953.0935	2243.4509	3082	2204.5
953.2271	2244.921	3082.35	2207.25
953.3606	2246.3904	3068.95	2192.8
953.4941	2247.8591	3058.7	2183.7
953.6276	2249.3271	3052.65	2179.4
953.7611	2250.7943	3047.15	2170.1
953.8945	2252.2608	3038.05	2161.85
954.0279	2253.7266	3025	2150.7
954.1612	2255.1917	3027.3	2152.35
954.2946	2256.656	3026.75	2150.2
954.4279	2258.1197	3022.75	2146.8
954.5612	2259.5826	3015.5	2139.6
954.6944	2261.0447	2996.85	2120.65
954.8276	2262.5062	2999.85	2121.9
954.9608	2263.9669	2992.3	2114.1
955.094	2265.4269	2978.85	2102.75
955.2271	2266.8862	2982.75	2107.95
955.3602	2268.3448	2979.9	2102.75
955.4933	2269.8026	2983.75	2108.45
955.6264	2271.2598	2969.1	2093
955.7594	2272.7162	2943.85	2067.3
955.8924	2274.1719	2952.2	2076
956.0253	2275.6268	2938.9	2065.25
956.1583	2277.0811	2941.35	2063.95
956.2912	2278.5346	2957.85	2082.25
956.4241	2279.9874	2944.35	2069.8
956.5569	2281.4395	2931.9	2056.3
956.6897	2282.8908	2911.55	2030.55
956.8225	2284.3414	2909.4	2031.75
956.9553	2285.7914	2909.95	2035.45
957.088	2287.2406	2906.5	2028.55
957.2207	2288.689	2899.25	2023.5
957.3534	2290.1368	2894.25	2019
957.486	2291.5838	2894.9	2017.8
957.6186	2293.0302	2884.6	2008.05
957.7512	2294.4758	2870.95	1993.55
957.8838	2295.9206	2871.8	1993.8
958.0163	2297.3648	2848.25	1974.3
958.1488	2298.8082	2861.4	1983.1
958.2813	2300.251	2844.15	1968.7
958.4137	2301.693	2845.9	1968.55
958.5461	2303.1343	2842.25	1965.1
958.6785	2304.5748	2838.55	1963.05
958.8108	2306.0147	2825.05	1948.85
958.9432	2307.4538	2819.55	1942.5
959.0754	2308.8922	2815.5	1941.35
959.2077	2310.3299	2821.95	1946
959.3399	2311.7669	2804	1928.4
959.4721	2313.2031	2784.2	1907.65
959.6043	2314.6387	2781.5	1905.85
959.7365	2316.0735	2780.75	1904.75
959.8686	2317.5076	2774.45	1897.4
960.0006	2318.941	2763.15	1887.6
960.1327	2320.3737	2758.4	1881.5
960.2647	2321.8056	2767.7	1891.05
960.3967	2323.2369	2756.5	1881.25
960.5287	2324.6674	2744.8	1867.2
960.6606	2326.0972	2760.25	1886.25
960.7925	2327.5263	2739.8	1862.7
960.9244	2328.9547	2738.1	1862.55
961.0562	2330.3823	2734.3	1856.6
961.1881	2331.8092	2728.1	1848.5
961.3198	2333.2355	2701.65	1823.75
961.4516	2334.661	2706.95	1830.6
961.5833	2336.0858	2714.8	1838.6
961.715	2337.5098	2705.6	1831.5
961.8467	2338.9332	2705.15	1828.2
961.9783	2340.3558	2692	1813.45
962.1099	2341.7778	2676.15	1800.55
962.2415	2343.199	2683.35	1803.4
962.373	2344.6195	2669.25	1794.95
962.5045	2346.0393	2662.25	1785.8
962.636	2347.4583	2664.7	1787.05
962.7675	2348.8767	2659.5	1781.25
962.8989	2350.2943	2654.2	1778.15
963.0303	2351.7113	2652.05	1775.25
963.1617	2353.1275	2631.55	1755.15
963.293	2354.543	2641.45	1756.05
963.4243	2355.9578	2635.7	1759.8
963.5556	2357.3718	2613.4	1736.55
963.6868	2358.7852	2608.1	1731.8
963.818	2360.1978	2610.7	1733.3
963.9492	2361.6098	2598.55	1724.6
964.0803	2363.021	2598.1	1717.75
964.2114	2364.4315	2585.5	1708.1
964.3425	2365.8413	2580.6	1699.25
964.4736	2367.2504	2577.5	1700.85
964.6046	2368.6587	2562.3	1686.7
964.7356	2370.0664	2558.1	1682
964.8666	2371.4733	2553.5	1676.7
964.9975	2372.8795	2535.55	1661.05
965.1284	2374.285	2539.1	1663.7
965.2593	2375.6899	2527.55	1652.25
965.3901	2377.0939	2523.2	1645.65
965.5209	2378.4973	2516.9	1641.5
965.6517	2379.9	2506.75	1631.25
965.7825	2381.3019	2505.4	1629
965.9132	2382.7032	2502.4	1626.15
966.0439	2384.1037	2491.8	1617.65
966.1745	2385.5035	2491.8	1615.8
966.3051	2386.9027	2490.5	1614.75
966.4357	2388.3011	2484.3	1603.7
966.5663	2389.6987	2478.4	1601
966.6968	2391.0957	2465.25	1588.5
966.8273	2392.492	2446.15	1571.05
966.9578	2393.8876	2439	1563.1
967.0882	2395.2824	2447.3	1570.8
967.2186	2396.6765	2431.3	1555.2
967.349	2398.07	2435.35	1558.8
967.4793	2399.4627	2430.9	1553.4
967.6097	2400.8547	2417.2	1541.5
967.7399	2402.246	2422.55	1539
967.8702	2403.6366	2398.2	1521.95
968.0004	2405.0265	2399.3	1521.7
968.1306	2406.4156	2398.5	1516.1
968.2607	2407.8041	2374.45	1494.8
968.3909	2409.1918	2380.3	1503.95
968.521	2410.5789	2380.35	1501.8
968.651	2411.9652	2363.85	1483.9
968.781	2413.3508	2365.45	1488.25
968.911	2414.7358	2360.45	1484.15
969.041	2416.12	2343.5	1466.25
969.1709	2417.5035	2349.6	1472.85
969.3008	2418.8863	2339.45	1463.4
969.4307	2420.2684	2338.1	1460.55
969.5606	2421.6497	2317.4	1440.75
969.6904	2423.0304	2315.35	1440.7
969.8201	2424.4104	2305.65	1425.95
969.9499	2425.7896	2311.65	1434.15
970.0796	2427.1682	2311.55	1436.35
970.2093	2428.546	2300.2	1421.8
970.3389	2429.9232	2294.9	1417.3
970.4685	2431.2996	2295.85	1419.9
970.5981	2432.6753	2296.15	1420.45
970.7277	2434.0503	2287	1409.75
970.8572	2435.4246	2280.25	1402
970.9867	2436.7982	2273.5	1396.95
971.1161	2438.1711	2273.55	1395.65
971.2456	2439.5433	2266.4	1389.55
971.375	2440.9148	2256.2	1372.25
971.5043	2442.2856	2257.7	1378.8
971.6336	2443.6557	2252.25	1374.55
971.7629	2445.025	2245.6	1368.35
971.8922	2446.3937	2229.2	1351.9
972.0214	2447.7617	2228.3	1349.25
972.1506	2449.1289	2235.45	1360.55
972.2798	2450.4955	2231.35	1350.9
972.4089	2451.8613	2218.95	1341.95
972.538	2453.2265	2217	1341.2
972.6671	2454.5909	2218.05	1341.15
972.7961	2455.9546	2218.35	1344.1
972.9251	2457.3177	2216.05	1342.2
973.0541	2458.68	2209.15	1330.6
973.1831	2460.0416	2196.05	1319.1
973.312	2461.4025	2194.5	1316.65
973.4408	2462.7627	2203.35	1314.25
973.5697	2464.1222	2185.5	1312.4
973.6985	2465.4811	2189.7	1312.6
973.8273	2466.8392	2177.2	1299.85
973.956	2468.1966	2185.5	1305.85
974.0847	2469.5533	2177.95	1299.1
974.2134	2470.9093	2170.2	1295.15
974.3421	2472.2645	2163.85	1285.6
974.4707	2473.6191	2154.05	1277.7
974.5993	2474.973	2155.75	1280.4
974.7278	2476.3262	2154.55	1275.4
974.8563	2477.6787	2144.05	1269.45
974.9848	2479.0305	2139.55	1263.1
975.1132	2480.3816	2139.8	1262.1
975.2417	2481.7319	2132.5	1255.5
975.37	2483.0816	2119	1241.35
975.4984	2484.4306	2117.6	1239.15
975.6267	2485.7789	2120.65	1243.15
975.755	2487.1264	2104.1	1225.9
975.8833	2488.4733	2098.3	1222.25
976.0115	2489.8195	2098.75	1216.45
976.1397	2491.165	2094.8	1217.3
976.2678	2492.5097	2095.55	1217.05
976.3959	2493.8538	2088.55	1211.85
976.524	2495.1972	2079.05	1201.7
976.6521	2496.5398	2077.95	1200.85
976.7801	2497.8818	2075.85	1197.45
976.9081	2499.2231	2066	1188.5
977.036	2500.5637	2055.85	1179.4
977.164	2501.9035	2053.35	1177.05
977.2918	2503.2427	2056.75	1175.5
977.4197	2504.5812	2047.55	1171.75
977.5475	2505.919	2050.05	1170.25
977.6753	2507.256	2045.7	1168.9
977.8031	2508.5924	2035.35	1157.95
977.9308	2509.9281	2040.7	1158.65
978.0585	2511.2631	2026.8	1150.15
978.1861	2512.5974	2032.15	1156.15
978.3137	2513.9309	2020.45	1144.3
978.4413	2515.2638	2043.2	1138.85
978.5689	2516.596	2013	1136.8
978.6964	2517.9275	2019.1	1141.65
978.8239	2519.2583	2010.85	1133.7
978.9513	2520.5884	2003.35	1126.1
979.0788	2521.9178	1981.5	1106.95
979.2062	2523.2465	1992.8	1114.65
979.3335	2524.5745	1988	1113.1
979.4608	2525.9018	1975.45	1100.1
979.5881	2527.2284	1972.1	1096.85
979.7154	2528.5543	1973.35	1097.9
979.8426	2529.8796	1967.75	1089.6
979.9698	2531.2041	1968.75	1090.45
980.0969	2532.5279	1967.05	1091.45
980.224	2533.851	1966.3	1089.7
980.3511	2535.1735	1963.65	1087.65
980.4781	2536.4952	1950	1071.95
980.6052	2537.8163	1955.5	1079.4
980.7321	2539.1366	1942.3	1066.2
980.8591	2540.4562	1946.45	1066.8
980.986	2541.7752	1950.6	1073.45
981.1129	2543.0935	1939.8	1063.65
981.2397	2544.411	1934.8	1058.1
981.3665	2545.7279	1939.1	1063.05
981.4933	2547.0441	1927.65	1051.85
981.62	2548.3596	1933.25	1054.35
981.7467	2549.6744	1932.2	1055.45
981.8734	2550.9885	1926.45	1043.45
982.0001	2552.3019	1914.8	1038.95
982.1267	2553.6146	1916.45	1039.25
982.2532	2554.9266	1909	1034.6
982.3798	2556.2379	1899.55	1021.15
982.5063	2557.5485	1897.95	1019.7
982.6327	2558.8585	1910.05	1026.95
982.7592	2560.1677	1908.9	1028.85
982.8856	2561.4762	1892.95	1015.3
983.0119	2562.7841	1893.8	1014.9
983.1383	2564.0913	1888.1	1012.9
983.2646	2565.3977	1890.4	1016.3
983.3908	2566.7035	1882.35	1005.85
983.517	2568.0086	1887.15	1008
983.6432	2569.313	1881.3	1003.15
983.7694	2570.6167	1879.45	1000.3
983.8955	2571.9197	1875.55	997.65
984.0216	2573.222	1866.1	986.5
984.1476	2574.5236	1875.35	999.95
984.2737	2575.8246	1868.7	989.5
984.3996	2577.1248	1866.8	985.6
984.5256	2578.4244	1858.4	983
984.6515	2579.7232	1862.45	984.5
984.7774	2581.0214	1876.6	975.25
984.9032	2582.3189	1859.1	982.75
985.029	2583.6157	1863.35	981
985.1548	2584.9118	1850.55	973.7
985.2806	2586.2072	1839.35	962.25
985.4063	2587.5019	1844.65	968.8
985.5319	2588.7959	1839.8	962.45
985.6576	2590.0893	1830.55	953.8
985.7832	2591.3819	1837.05	961.9
985.9087	2592.6739	1834.95	960.6
986.0343	2593.9652	1822.1	943.45
986.1597	2595.2557	1809.6	932.6
986.2852	2596.5456	1820.8	942.7
986.4106	2597.8348	1819.25	943.65
986.536	2599.1234	1807.7	931.7
986.6614	2600.4112	1812.75	937.45
986.7867	2601.6983	1811.15	931.6
986.912	2602.9848	1803.95	925.35
987.0372	2604.2705	1797.9	913.9
987.1624	2605.5556	1794.5	917.05
987.2876	2606.84	1787.55	911.8
987.4128	2608.1237	1783.15	907.25
987.5379	2609.4067	1783.4	906.4
987.6629	2610.689	1784.55	899.8
987.788	2611.9707	1772.85	893.95
987.913	2613.2516	1772.55	891.9
988.0379	2614.5319	1765.6	890.25
988.1629	2615.8115	1763.85	888.25
988.2878	2617.0903	1757.5	879.55
988.4126	2618.3685	1750.7	873.25
988.5375	2619.6461	1741.65	863.8
988.6622	2620.9229	1743.35	867.2
988.787	2622.199	1736.65	858.8
988.9117	2623.4745	1729.3	851.55
989.0364	2624.7493	1731.3	855.9
989.161	2626.0234	1721.6	845.9
989.2857	2627.2968	1730.3	854.7
989.4102	2628.5695	1727.75	851.95
989.5348	2629.8415	1716.85	840.6
989.6593	2631.1128	1719.3	840.6
989.7837	2632.3835	1708.45	830.6
989.9082	2633.6535	1708.35	832.45
990.0326	2634.9228	1706	830.1
990.1569	2636.1914	1693.9	817.75
990.2812	2637.4593	1700.75	817.3
990.4055	2638.7265	1696.95	820.55
990.5298	2639.9931	1687.8	812.3
990.654	2641.259	1693.2	814.05
990.7782	2642.5242	1689.2	814.15
990.9023	2643.7887	1684.55	806.7
991.0264	2645.0525	1677.85	801.9
991.1505	2646.3156	1673.8	795.7
991.2745	2647.5781	1672.3	796.75
991.3985	2648.8398	1662.65	787.5
991.5225	2650.1009	1678.5	794.35
991.6464	2651.3613	1662.3	786.4
991.7703	2652.6211	1653.95	777.2
991.8942	2653.8801	1654.5	776
992.018	2655.1385	1661.05	782.6
992.1418	2656.3961	1657.05	780.55
992.2655	2657.6531	1647.8	771.4
992.3892	2658.9094	1644	768.55
992.5129	2660.1651	1643.2	765.75
992.6366	2661.42	1639.05	762.15
992.7602	2662.6743	1640.35	762.6
992.8837	2663.9279	1632.7	754.75
993.0073	2665.1808	1636.4	759.75
993.1307	2666.433	1634.8	756.05
993.2542	2667.6846	1618.6	743.8
993.3776	2668.9354	1625.1	745.45
993.501	2670.1856	1627.7	748.65
993.6244	2671.4351	1628.2	753.55
993.7477	2672.6839	1619.95	742.6
993.8709	2673.9321	1618	741.75
993.9942	2675.1795	1615.65	739.75
994.1174	2676.4263	1615.35	738.95
994.2405	2677.6724	1603.75	727.1
994.3637	2678.9179	1612.05	735.3
994.4868	2680.1626	1603.2	727.85
994.6098	2681.4067	1600.9	723.15
994.7328	2682.6501	1602.15	726.6
994.8558	2683.8928	1598.6	722.05
994.9788	2685.1348	1583.3	706.55
995.1017	2686.3761	1589.25	711.6
995.2245	2687.6168	1585.95	710.8
995.3474	2688.8568	1588.05	711.85
995.4702	2690.0961	1571.4	695.8
995.5929	2691.3348	1567.25	691.95
995.7156	2692.5727	1575.45	700.75
995.8383	2693.81	1574.05	696.7
995.961	2695.0466	1565.35	689.6
996.0836	2696.2826	1568.15	691.35
996.2062	2697.5178	1589.1	693.45
996.3287	2698.7524	1566.1	691.8
996.4512	2699.9863	1560.3	681.3
996.5737	2701.2195	1558.85	680.8
996.6961	2702.452	1557.2	677.65
996.8185	2703.6839	1562.35	684.95
996.9408	2704.9151	1558.5	684.55
997.0631	2706.1456	1544	666.4
997.1854	2707.3755	1544.5	665.55
997.3077	2708.6046	1539.15	660.8
997.4299	2709.8331	1537.5	661.6
997.552	2711.0609	1532.15	655.45
997.6742	2712.2881	1533.8	659.05
997.7963	2713.5145	1528.1	649.9
997.9183	2714.7403	1534.7	658.85
998.0403	2715.9654	1530.4	655.5
998.1623	2717.1899	1534	640.4
998.2842	2718.4136	1524.1	648.8
998.4062	2719.6367	1518.85	641.25
998.528	2720.8591	1525.95	641.6
998.6498	2722.0809	1515.1	641.15
998.7716	2723.3019	1519.8	638.6
998.8934	2724.5223	1514.75	637.85
999.0151	2725.7421	1508.85	630.1
999.1368	2726.9611	1507.85	627
999.2584	2728.1795	1507.5	627.6
999.38	2729.3972	1496.85	617.7
999.5016	2730.6142	1502.55	614.6
999.6231	2731.8306	1492.9	615.2
999.7446	2733.0462	1493.35	614.75
999.8661	2734.2612	1487.35	607.85
999.9875	2735.4756	1485.05	606.9
1000.1089	2736.6892	1482.95	606.2
1000.2302	2737.9022	1470.55	594.35
1000.3515	2739.1145	1464.55	588.45
1000.4728	2740.3262	1475.05	591.55
1000.594	2741.5372	1467.2	591.25
1000.7152	2742.7475	1465.25	588.15
1000.8363	2743.9571	1462.05	582.9
1000.9575	2745.1661	1463.7	582.6
1001.0785	2746.3744	1457.25	580.4
1001.1996	2747.582	1452.95	576.2
1001.3206	2748.7889	1454.15	577.25
1001.4415	2749.9952	1447.65	570.2
1001.5625	2751.2008	1450.85	575.2
1001.6833	2752.4057	1449.8	571.45
1001.8042	2753.61	1434.55	557.85
1001.925	2754.8136	1437.4	560.15
1002.0458	2756.0165	1439.9	564.05
1002.1665	2757.2188	1437.7	563.45
1002.2872	2758.4204	1435.8	560.55
1002.4078	2759.6213	1436.4	557.7
1002.5285	2760.8215	1430.5	549.2
1002.649	2762.0211	1432.7	555.1
1002.7696	2763.22	1422.55	542.85
1002.8901	2764.4182	1425.4	546.4
1003.0106	2765.6158	1408.35	533.3
1003.131	2766.8127	1411.7	533
1003.2514	2768.009	1411.4	535.5
1003.3717	2769.2045	1422.35	545.45
1003.492	2770.3994	1412.3	535.3
1003.6123	2771.5936	1410	533.2
1003.7325	2772.7872	1401.3	524.45
1003.8527	2773.9801	1400.85	522.1
1003.9729	2775.1723	1417	522.75
1004.093	2776.3639	1395.75	520.55
1004.2131	2777.5548	1397.9	520.25
1004.3331	2778.745	1396.65	519.1
1004.4531	2779.9346	1395.95	520.15
1004.5731	2781.1235	1396.2	521.2
1004.693	2782.3117	1391.15	517.95
1004.8129	2783.4992	1381.1	506.7
1004.9328	2784.6861	1385.65	509.5
1005.0526	2785.8723	1379	501.8
1005.1723	2787.0579	1376.6	498.85
1005.2921	2788.2428	1376.2	499.95
1005.4118	2789.427	1375.55	500.45
1005.5314	2790.6106	1372.45	495.65
1005.651	2791.7935	1374.7	498.85
1005.7706	2792.9757	1373.65	498.45
1005.8902	2794.1573	1362.6	484.9
1006.0097	2795.3382	1360.6	485.45
1006.1291	2796.5184	1355.6	479.4
1006.2485	2797.698	1358.9	481.45
1006.3679	2798.8769	1359.2	483
1006.4873	2800.0551	1352.65	476.45
1006.6066	2801.2327	1356.2	478.55
1006.7258	2802.4096	1353.85	479.85
1006.8451	2803.5859	1352.2	475
1006.9642	2804.7615	1351.85	476.5
1007.0834	2805.9364	1348.1	474.05
1007.2025	2807.1106	1344.5	469.8
1007.3216	2808.2842	1344.4	465.6
1007.4406	2809.4572	1346.7	470.45
1007.5596	2810.6294	1342.85	466.3
1007.6785	2811.801	1337.05	461.9
1007.7975	2812.972	1338.2	462.85
1007.9163	2814.1423	1340.65	464.55
1008.0352	2815.3119	1342.55	466.1
1008.154	2816.4808	1342.05	465.45
1008.2727	2817.6491	1346.1	469.55
1008.3914	2818.8167	1342.6	465.7
1008.5101	2819.9837	1344.45	465.05
1008.6288	2821.15	1350	474.75
1008.7474	2822.3157	1346.75	472.35
1008.8659	2823.4807	1354.35	477.75
1008.9844	2824.645	1356.5	479.35
1009.1029	2825.8086	1363.1	487.95
1009.2214	2826.9716	1368.45	493.75
1009.3398	2828.134	1374.25	500.4
1009.4581	2829.2957	1379.45	503.2
1009.5764	2830.4567	1381.35	506.7
1009.6947	2831.617	1378.65	502.25
1009.813	2832.7767	1387.05	510.75
1009.9312	2833.9358	1385.25	510.5
1010.0493	2835.0941	1381.1	504.7
1010.1675	2836.2519	1378.35	501.65
1010.2855	2837.4089	1372.65	496.55
1010.4036	2838.5653	1363.6	488.3
1010.5216	2839.7211	1364.05	488.9
1010.6396	2840.8761	1368.8	492.65
1010.7575	2842.0306	1361.75	485.85
1010.8754	2843.1843	1356.5	480.85
1010.9932	2844.3374	1352.8	475.85
1011.111	2845.4899	1355.9	478.25
1011.2288	2846.6417	1364.2	489.35
1011.3465	2847.7928	1356.6	481.05
1011.4642	2848.9433	1355.6	479.45
1011.5818	2850.0931	1360.65	487.2
1011.6995	2851.2422	1356.7	480.55
1011.817	2852.3907	1357.8	481
1011.9345	2853.5385	1356.15	479.45
1012.052	2854.6857	1367.6	480.9
1012.1695	2855.8323	1354.9	480.35
1012.2869	2856.9781	1357.95	482
1012.4042	2858.1233	1357.2	480.75
1012.5216	2859.2679	1355.05	479.25
1012.6389	2860.4118	1358.3	482.85
1012.7561	2861.555	1368.15	488.7
1012.8733	2862.6976	1362.35	486.15
1012.9905	2863.8395	1355.25	479.75
1013.1076	2864.9808	1358	483.05
1013.2247	2866.1214	1360.9	485.55
1013.3417	2867.2614	1358.4	482.7
1013.4587	2868.4007	1356.25	478.5
1013.5757	2869.5393	1359.2	479.5
1013.6926	2870.6773	1361.85	483.05
1013.8095	2871.8146	1364.35	484.65
1013.9263	2872.9513	1357.5	478.65
1014.0431	2874.0874	1359.5	485.8
1014.1599	2875.2227	1360.35	481.8
1014.2766	2876.3574	1363.6	487.95
1014.3933	2877.4915	1359.75	484.5
1014.51	2878.6249	1351.65	475.55
1014.6266	2879.7577	1357.15	478.25
1014.7431	2880.8898	1371.95	484.4
1014.8596	2882.0212	1356.2	483.45
1014.9761	2883.152	1358.7	480.95
1015.0925	2884.2821	1366.85	492.15
1015.2089	2885.4116	1357.55	482.55
1015.3253	2886.5405	1356.8	480.8
1015.4416	2887.6686	1356.5	478.7
1015.5579	2888.7962	1359.5	486.3
1015.6741	2889.923	1352.45	477.65
1015.7903	2891.0493	1351.65	478
1015.9065	2892.1748	1344.8	470.1
1016.0226	2893.2997	1350.1	473.25
1016.1387	2894.424	1349.5	473.6
1016.2547	2895.5476	1354.55	480
1016.3707	2896.6706	1342.1	465.6
1016.4866	2897.7929	1349.3	471.8
1016.6025	2898.9145	1341.25	465.05
1016.7184	2900.0355	1341.4	464.65
1016.8342	2901.1559	1338.55	459.95
1016.95	2902.2756	1335.25	460.75
1017.0658	2903.3946	1334.15	460.15
1017.1815	2904.513	1333.9	454.3
1017.2971	2905.6308	1334.45	457.65
1017.4127	2906.7479	1333.25	455.7
1017.5283	2907.8643	1323.55	448.05
1017.6439	2908.9801	1324.2	447.25
1017.7594	2910.0953	1321.5	447.15
1017.8748	2911.2098	1326.2	445.95
1017.9902	2912.3236	1328.5	443.05
1018.1056	2913.4368	1324.3	445
1018.2209	2914.5494	1316.95	440.95
1018.3362	2915.6613	1326.5	444.95
1018.4515	2916.7725	1314.45	435.65
1018.5667	2917.8831	1315.15	437.65
1018.6819	2918.9931	1304.45	426.25
1018.797	2920.1024	1306.9	431.25
1018.9121	2921.211	1300.3	426.55
1019.0271	2922.319	1291.45	415.1
1019.1421	2923.4264	1295.85	419.2
1019.2571	2924.5331	1293.1	418.5
1019.372	2925.6391	1286.4	412.4
1019.4869	2926.7445	1291.6	418.55
1019.6017	2927.8493	1289.7	413.6
1019.7165	2928.9534	1290.25	413.05
1019.8313	2930.0569	1291.85	413.25
1019.946	2931.1597	1287.3	409.9
1020.0606	2932.2619	1287.4	410.9
1020.1753	2933.3634	1284.35	409.35
1020.2899	2934.4643	1296.25	414.75
1020.4044	2935.5645	1300.3	419.8
1020.5189	2936.6641	1298.85	420.5
1020.6334	2937.763	1293.4	419.9
1020.7478	2938.8613	1281.4	404.55
1020.8622	2939.959	1290.5	408.15
1020.9765	2941.056	1277.5	401.7
1021.0908	2942.1523	1274.5	397.45
1021.2051	2943.248	1264.75	388.55
1021.3193	2944.3431	1255.4	380.55
1021.4334	2945.4375	1250.3	373.55
1021.5476	2946.5313	1243.1	368.65
1021.6617	2947.6244	1234.05	358.65
1021.7757	2948.7169	1231.4	353.25
1021.8897	2949.8087	1220.1	344.95
1022.0037	2950.8999	1217.3	341.05
1022.1176	2951.9904	1213.65	339
1022.2315	2953.0803	1202.95	326.1
1022.3453	2954.1696	1199.75	326.35
1022.4591	2955.2582	1195.4	318.9
1022.5728	2956.3462	1196.45	320.2
1022.6865	2957.4335	1194.35	318.25
1022.8002	2958.5202	1188.75	311.6
1022.9138	2959.6062	1188.55	313.4
1023.0274	2960.6916	1184.05	308.8
1023.141	2961.7764	1188	310.7
1023.2545	2962.8605	1183.25	306.8
1023.3679	2963.9439	1182.15	307.8
1023.4813	2965.0267	1184.2	308.55
1023.5947	2966.1089	1202.1	303.1
1023.708	2967.1905	1176.55	302.6
1023.8213	2968.2714	1173.5	298.35
1023.9346	2969.3516	1169.1	292.6
1024.0478	2970.4312	1177.45	293.95
1024.1609	2971.5102	1172.15	297.2
1024.274	2972.5885	1166.25	291.35
1024.3871	2973.6662	1176.1	295.15
1024.5002	2974.7432	1168.9	293.75
1024.6132	2975.8196	1167.7	291.2
1024.7261	2976.8954	1167.7	293.45
1024.839	2977.9705	1165.3	288.95
1024.9519	2979.045	1161	286.25
1025.0647	2980.1188	1162.45	288.1
1025.1775	2981.192	1163.05	287.55
1025.2902	2982.2645	1158.65	283.15
1025.4029	2983.3364	1151.95	276.2
1025.5156	2984.4077	1151	276.5
1025.6282	2985.4783	1156.45	275.1
1025.7407	2986.5483	1148.25	273
1025.8532	2987.6177	1140.95	267.1
1025.9657	2988.6864	1143.5	267.3
1026.0782	2989.7545	1145.5	268.55
1026.1906	2990.8219	1136.55	262.4
1026.3029	2991.8887	1137.4	259.35
1026.4152	2992.9548	1135.6	259.45
1026.5275	2994.0204	1129.05	253.9
1026.6397	2995.0852	1122.85	247.7
1026.7519	2996.1495	1120.95	245.55
1026.864	2997.2131	1121.3	245.05
1026.9761	2998.276	1117.35	243
1027.0882	2999.3383	1116.15	239.65
1027.2002	3000.4	1114.1	238.15
1027.3122	3001.4611	1110.8	234.05
1027.4241	3002.5215	1108.6	233.5
1027.536	3003.5812	1103.55	227.3
1027.6478	3004.6404	1102.85	226.75
1027.7596	3005.6989	1104.2	225.8
1027.8714	3006.7567	1101.5	225.85
1027.9831	3007.8139	1124.95	225.45
1028.0947	3008.8705	1096.2	222.7
1028.2064	3009.9264	1100.05	220.65
1028.3179	3010.9818	1097.7	221.8
1028.4295	3012.0364	1100.15	223.65
1028.541	3013.0905	1093	217.25
1028.6524	3014.1439	1091.95	216.75
1028.7638	3015.1966	1091.65	216.95
1028.8752	3016.2487	1086.1	210.4
1028.9865	3017.3002	1097.1	214.9
1029.0978	3018.3511	1085.55	211.45
1029.209	3019.4013	1090.1	213.85
1029.3202	3020.4509	1084.2	209.1
1029.4314	3021.4998	1082.95	205.8
1029.5425	3022.5481	1081.95	207.55
1029.6535	3023.5958	1083.6	206.65
1029.7645	3024.6428	1087.75	211.15
1029.8755	3025.6892	1078.9	203.65
1029.9864	3026.735	1080.6	206.35
1030.0973	3027.7802	1080.4	206.45
1030.2082	3028.8247	1077.6	203.15
1030.319	3029.8685	1078.15	203.55
1030.4297	3030.9118	1078.15	204.1
1030.5404	3031.9544	1075.7	201.1
1030.6511	3032.9963	1075.75	200.95
1030.7617	3034.0376	1075.95	199.45
1030.8723	3035.0783	1076.8	197.15
1030.9829	3036.1184	1071.95	194.45
1031.0934	3037.1578	1072.25	195.6
1031.2038	3038.1966	1068	192.35
1031.3142	3039.2348	1067.4	193.15
1031.4246	3040.2723	1077.7	196.6
1031.5349	3041.3092	1065.3	191.35
1031.6452	3042.3455	1067.95	190.2
1031.7554	3043.3811	1069.65	193.6
1031.8656	3044.4161	1068	191.6
1031.9758	3045.4505	1064.65	190.25
1032.0859	3046.4842	1066.8	191.1
1032.1959	3047.5173	1059.5	185.65
1032.3059	3048.5498	1062.4	186.2
1032.4159	3049.5816	1061.6	186.45
1032.5258	3050.6128	1065.8	190.1
1032.6357	3051.6434	1067.05	190.15
1032.7455	3052.6734	1063	185.9
1032.8553	3053.7027	1061.45	184.05
1032.9651	3054.7314	1057.35	182.3
1033.0748	3055.7594	1053.5	178.3
1033.1845	3056.7868	1061.2	185.4
1033.2941	3057.8136	1058.55	181.6
1033.4037	3058.8398	1054.4	180.35
1033.5132	3059.8653	1060.15	184.8
1033.6227	3060.8902	1057.45	182.95
1033.7321	3061.9145	1053.8	178.55
1033.8415	3062.9381	1053.35	178.2
1033.9509	3063.9612	1068.85	179.1
1034.0602	3064.9835	1053.25	179.55
1034.1694	3066.0053	1055.1	177.9
1034.2787	3067.0264	1051.45	177.15
1034.3878	3068.0469	1052.65	176
1034.497	3069.0668	1053.95	174.65
1034.6061	3070.086	1050.2	174.6
1034.7151	3071.1046	1050.95	175.55
1034.8241	3072.1226	1051.5	175.4
1034.9331	3073.1399	1052.65	177
1035.042	3074.1567	1048.5	172.65
1035.1508	3075.1727	1053.2	175.05
1035.2597	3076.1882	1049.15	174.7
1035.3684	3077.203	1042.1	168.7
1035.4772	3078.2173	1043.6	168.3
1035.5859	3079.2308	1047.7	170.35
1035.6945	3080.2438	1041.8	163.65
1035.8031	3081.2561	1040	163.6
1035.9117	3082.2678	1034.35	160.4
1036.0202	3083.2789	1037.9	161.5
1036.1286	3084.2893	1037.65	162.85
1036.2371	3085.2991	1037.9	162.75
1036.3454	3086.3083	1037.25	156.65
1036.4538	3087.3169	1037.45	160.65
1036.562	3088.3248	1034.8	157.25
1036.6703	3089.3321	1035.85	159.05
1036.7785	3090.3388	1032.3	160
1036.8866	3091.3449	1032.45	157.1
1036.9948	3092.3503	1033.2	155.35
1037.1028	3093.3551	1025.05	152.05
1037.2108	3094.3593	1026.55	151.45
1037.3188	3095.3629	1031.2	157.35
1037.4267	3096.3658	1029.05	152.2
1037.5346	3097.3681	1026.25	151.25
1037.6425	3098.3698	1028.75	152.8
1037.7503	3099.3708	1026.55	144.85
1037.858	3100.3713	1023.35	149
1037.9657	3101.3711	1025.05	147.9
1038.0734	3102.3702	1161.2	150.7
1038.181	3103.3688	1028.7	152.9
1038.2886	3104.3667	1018.75	145.25
1038.3961	3105.364	1022.45	147.8
1038.5036	3106.3607	1021.3	144.6
1038.611	3107.3568	1019.15	140.6
1038.7184	3108.3522	1018.65	145.2
1038.8257	3109.347	1016.65	141
1038.933	3110.3412	1016.9	137.35
1039.0403	3111.3348	1012.5	135.6
1039.1475	3112.3277	1014.65	141.5
1039.2547	3113.32	1010.2	136.95
1039.3618	3114.3117	1011.95	135.05
1039.4689	3115.3028	1009.95	135.05
1039.5759	3116.2932	1010.45	131.65
1039.6829	3117.2831	1012.5	131.95
1039.7898	3118.2723	1003.35	128
1039.8967	3119.2608	1007.3	132.05
1040.0035	3120.2488	1006.05	131.45
1040.1103	3121.2361	1008.4	131.65
1040.2171	3122.2229	1003.65	130.4
1040.3238	3123.209	1003.55	127.65
1040.4305	3124.1944	1001.15	126.45
1040.5371	3125.1793	1006	128.6
1040.6437	3126.1635	1000.8	124.4
1040.7502	3127.1471	1004.5	128.35
1040.8567	3128.1301	1000.55	126.55
1040.9631	3129.1125	1003.4	128.15
1041.0695	3130.0942	998.45	124.15
1041.1759	3131.0753	1006.15	122.75
1041.2822	3132.0558	1003.25	126
1041.3884	3133.0357	996.4	120.4
1041.4946	3134.015	997.6	120.15
1041.6008	3134.9936	995.5	118.9
1041.7069	3135.9716	1019.1	121.3
1041.813	3136.949	991.7	117.75
1041.919	3137.9258	1000.25	118.95
1042.025	3138.902	997.5	118.15
1042.1309	3139.8775	997.25	122.05
1042.2368	3140.8524	994	118.9
1042.3427	3141.8267	992.35	115.85
1042.4485	3142.8004	994.75	118.5
1042.5542	3143.7735	1001.1	119.1
1042.6599	3144.7459	991.9	116.05
1042.7656	3145.7178	994.25	118.85
1042.8712	3146.689	989.45	115
1042.9768	3147.6596	995.95	119.05
1043.0823	3148.6295	989.1	112
1043.1878	3149.5989	992.25	120.3
1043.2932	3150.5676	985.65	111.8
1043.3986	3151.5357	985.3	113.5
1043.5039	3152.5032	983.75	109.7
1043.6092	3153.4701	985.7	110.35
1043.7145	3154.4364	990.4	112.5
1043.8197	3155.402	983.2	109.1
1043.9248	3156.367	990.25	113.8
1044.03	3157.3315	1018.55	106.1
1044.135	3158.2952	984.4	110.9
1044.24	3159.2584	982.05	106.45
1044.345	3160.221	980.4	105.35
1044.4499	3161.1829	980	103.3
1044.5548	3162.1442	978.35	102.65
1044.6596	3163.105	976.4	102.75
1044.7644	3164.065	979.25	103.85
1044.8692	3165.0245	981.1	103.5
1044.9739	3165.9834	978.2	104.95
1045.0785	3166.9416	975	100.25
1045.1831	3167.8993	979	103.3
1045.2877	3168.8563	977.5	104.5
1045.3922	3169.8127	974.1	100.75
1045.4966	3170.7684	972.2	97.05
1045.6011	3171.7236	977.95	102.75
1045.7054	3172.6782	976.75	101.5
1045.8098	3173.6321	974.55	100.25
1045.914	3174.5854	976.9	99.6
1046.0183	3175.5381	975.8	98.8
1046.1224	3176.4902	972.9	98.2
1046.2266	3177.4417	969.1	93.1
1046.3307	3178.3926	973.3	97.6
1046.4347	3179.3428	969.95	96.8
1046.5387	3180.2924	970.45	95.15
1046.6427	3181.2415	968.5	93.85
1046.7466	3182.1899	968.85	92.3
1046.8504	3183.1377	966.5	89.95
1046.9542	3184.0848	973.9	95.7
1047.058	3185.0314	968.85	91.7
1047.1617	3185.9773	966.2	90.7
1047.2654	3186.9227	969.6	93.05
1047.369	3187.8674	964.25	89.8
1047.4726	3188.8115	966.8	88.6
1047.5761	3189.755	968.9	92.9
1047.6796	3190.6979	965.65	91.05
1047.783	3191.6402	960.4	87.9
1047.8864	3192.5818	967.45	92.75
1047.9898	3193.5229	971.2	91.6
1048.0931	3194.4633	963.45	88.65
1048.1963	3195.4031	964.1	87.95
1048.2995	3196.3423	963.45	89.4
1048.4027	3197.2809	963.4	87.4
1048.5058	3198.2189	963.55	88.55
1048.6089	3199.1563	964.8	82.85
1048.7119	3200.0931	958.1	82
1048.8148	3201.0292	958.45	85.3
1048.9178	3201.9648	959.4	83.6
1049.0206	3202.8997	964.6	85.2
1049.1235	3203.834	960.65	85.3
1049.2262	3204.7677	961.5	88.2
1049.329	3205.7008	958.1	81.55
1049.4317	3206.6333	954.3	79.4
1049.5343	3207.5652	958.25	81.35
1049.6369	3208.4964	960	84.1
1049.7394	3209.4271	956.75	82.2
1049.8419	3210.3571	954.3	80.25
1049.9444	3211.2865	956.1	80.55
1050.0468	3212.2154	956.9	80.35
1050.1491	3213.1436	957.85	78.95
1050.2514	3214.0712	961.05	79.45
1050.3537	3214.9982	954.3	79.75
1050.4559	3215.9246	951.65	76.65
1050.5581	3216.8503	951.9	76.4
1050.6602	3217.7755	952.6	77.25
1050.7623	3218.7001	952.1	77.6
1050.8643	3219.624	952.6	76.3
1050.9663	3220.5473	950.7	75.4
1051.0682	3221.4701	952.05	75.15
1051.1701	3222.3922	951	73.85
1051.2719	3223.3137	949.6	74.1
1051.3737	3224.2346	951.15	75.7
1051.4754	3225.1549	946.6	71.6
1051.5771	3226.0746	949.8	76.5
1051.6788	3226.9937	949.95	74.9
1051.7804	3227.9121	945.05	71.1
1051.8819	3228.83	946.45	71.75
1051.9834	3229.7473	946.7	70.95
1052.0849	3230.6639	948.05	72.85
1052.1863	3231.5799	945.95	70.25
1052.2876	3232.4954	946.1	68.45
1052.3889	3233.4102	947.2	70.75
1052.4902	3234.3244	949.05	72.15
1052.5914	3235.238	941.7	67.65
1052.6926	3236.151	968.35	70.4
1052.7937	3237.0634	939.55	67.5
1052.8948	3237.9752	938.95	62.85
1052.9958	3238.8864	940.15	63.9
1053.0968	3239.797	945.7	70.05
1053.1977	3240.7069	943.25	67.8
1053.2986	3241.6163	943.85	66.55
1053.3994	3242.5251	939.75	66.8
1053.5002	3243.4332	938.65	64.55
1053.6009	3244.3408	940.25	67.8
1053.7016	3245.2477	936.75	61.4
1053.8022	3246.154	940.65	63.3
1053.9028	3247.0598	937.95	62
1054.0034	3247.9649	939.9	64.7
1054.1039	3248.8694	937.95	64
1054.2043	3249.7733	937.1	61.15
1054.3047	3250.6766	938.6	62.9
1054.4051	3251.5793	936.95	60.55
1054.5054	3252.4814	936.85	62.85
1054.6056	3253.3829	934.65	61.05
1054.7058	3254.2838	934.35	61.6
1054.806	3255.1841	937.3	63.35
1054.9061	3256.0838	933.05	59.8
1055.0061	3256.9829	933.8	59.25
1055.1062	3257.8814	936.6	57.8
1055.2061	3258.7792	936.05	59.35
1055.306	3259.6765	936.6	59.1
1055.4059	3260.5731	931.35	56.25
1055.5057	3261.4692	931.8	56.4
1055.6055	3262.3647	930.75	52.65
1055.7052	3263.2595	930.3	56.4
1055.8049	3264.1538	927.95	52
1055.9045	3265.0474	929.9	53.65
1056.0041	3265.9404	927.85	54.75
1056.1036	3266.8329	924.95	49.5
1056.2031	3267.7247	932.8	48.4
1056.3025	3268.616	923	48.45
1056.4019	3269.5066	925.8	51.8
1056.5013	3270.3966	925.95	48.2
1056.6005	3271.286	919.15	46.3
