Software Version:	3.9.2.0
Unit SN:	10000200
Spectrometer SN:	6960
Date:	3/6/2024 10:53:22 AM
Data Line Index:	25
Spectral Points:	2048
Integration time (ms):	125
Averages:	20
Delay (ms):	30
Sequence Number:	1
Processing:	dark subtract
Laser Power (mW):	305
Laser Current (mA):	823
Laser Diode Temp (C):	25
Laser Case Temp (C):	27.8
System Temp (C):	27.6
Spectrometer Temp (C):	25.1
CCD Temp (C):	0.007
Secondary Temp (C):	20.003
Heatsink Temp (C):	23.419
CCDPCB Temp (C):	37.007
SecondaryPCB Temp (C):	34.584

Wavelength	RamanShift	Raw Counts	Dark Subtracted
787.061	30.1047	1121.55	710.45
787.2016	32.3739	1145.85	735.55
787.3422	34.6426	1191.1	778.7
787.4828	36.9109	1245.25	830.9
787.6235	39.1787	1300.75	882.95
787.7642	41.4461	1354.85	932.25
787.9049	43.7131	1416.35	990.95
788.0456	45.9796	1483.95	1055.4
788.1863	48.2456	1550.2	1115.05
788.3271	50.5112	1614.6	1177.55
788.4679	52.7764	1685.85	1247
788.6087	55.0411	1765.8	1322.3
788.7496	57.3054	1850.5	1403.45
788.8904	59.5692	1936.1	1485.1
789.0313	61.8326	2035.15	1579.95
789.1722	64.0955	2143.6	1683.85
789.3132	66.3579	2267.25	1801.2
789.4541	68.6199	2421.35	1952.45
789.5951	70.8815	2665.95	2193.45
789.7361	73.1426	3167.55	2691.25
789.8771	75.4032	4423	3944.95
790.0181	77.6634	7692.7	7208.35
790.1592	79.9231	16029.3	15540.25
790.3003	82.1824	52555.5	52056.8
790.4414	84.4412	65535	65019.75
790.5825	86.6995	65535	64994.2
790.7237	88.9574	65535	64975.65
790.8648	91.2148	65535	64956.2
791.006	93.4717	65535	64946.6
791.1472	95.7282	65535	64939.8
791.2885	97.9842	65535	64938.9
791.4297	100.2398	65535	64933.5
791.571	102.4949	65535	64930.8
791.7123	104.7495	65535	64928.8
791.8536	107.0036	65535	64926.95
791.9949	109.2573	65535	64928.75
792.1363	111.5105	65535	64928
792.2777	113.7632	65535	64927
792.4191	116.0154	65535	64912.5
792.5605	118.2672	65535	64922.3
792.7019	120.5185	65535	64918.9
792.8434	122.7693	65535	64917.45
792.9849	125.0197	65535	64913.25
793.1264	127.2696	65535	64911
793.2679	129.519	65535	64907.6
793.4094	131.7679	65535	64905.75
793.551	134.0163	65535	64902.15
793.6926	136.2642	65535	64897.25
793.8342	138.5117	65535	64885.05
793.9758	140.7587	65535	64892.5
794.1175	143.0052	65535	64891.7
794.2591	145.2512	65535	64889.75
794.4008	147.4967	65535	64890.05
794.5425	149.7417	65535	64887.65
794.6842	151.9863	65535	64882.9
794.826	154.2304	65535	64883.9
794.9677	156.4739	65535	64871.1
795.1095	158.717	65535	64873
795.2513	160.9596	65535	64871.45
795.3931	163.2017	65535	64868.65
795.535	165.4433	65535	64864.8
795.6768	167.6844	65535	64864.2
795.8187	169.925	65535	64858.1
795.9606	172.1651	65535	64859.25
796.1025	174.4047	65535	64853.2
796.2445	176.6439	65535	64854.9
796.3864	178.8825	65535	64850.45
796.5284	181.1206	65535	64848.35
796.6704	183.3582	65535	64843.15
796.8124	185.5954	65535	64841.7
796.9544	187.832	65535	64836.75
797.0965	190.0681	65535	64839.45
797.2386	192.3037	65535	64832.7
797.3806	194.5388	65535	64829.2
797.5228	196.7734	65535	64823.25
797.6649	199.0075	65535	64823.5
797.807	201.2411	65535	64818.35
797.9492	203.4742	65535	64819.75
798.0914	205.7068	65535	64820.15
798.2336	207.9389	65535	64816.05
798.3758	210.1704	65535	64814.55
798.518	212.4015	65535	64811.4
798.6603	214.632	65535	64815.5
798.8025	216.862	65535	64827.6
798.9448	219.0915	65535	64833.4
799.0871	221.3205	65535	64831.7
799.2294	223.549	65535	64835.1
799.3718	225.777	65535	64837.45
799.5141	228.0044	65535	64830.9
799.6565	230.2314	65535	64832.8
799.7989	232.4578	65535	64832.35
799.9413	234.6837	65535	64825.1
800.0837	236.909	65535	64822.15
800.2262	239.1339	65535	64798.4
800.3687	241.3582	65535	64813.1
800.5111	243.582	65535	64780.5
800.6536	245.8053	65535	64794.55
800.7961	248.0281	65535	64797.75
800.9387	250.2503	65535	64791.35
801.0812	252.472	65535	64788.15
801.2238	254.6932	65535	64786.65
801.3664	256.9139	65535	64790.35
801.509	259.134	65535	64781.8
801.6516	261.3536	65535	64787.2
801.7942	263.5727	65535	64780.45
801.9369	265.7912	65535	64783.55
802.0795	268.0092	65535	64784.75
802.2222	270.2267	65535	64780.2
802.3649	272.4436	65535	64780.2
802.5076	274.6601	65535	64775.15
802.6504	276.8759	65535	64775.8
802.7931	279.0913	65535	64775.2
802.9359	281.3061	65535	64771.15
803.0787	283.5204	65535	64772.35
803.2215	285.7341	65535	64768.05
803.3643	287.9473	65535	64752.35
803.5071	290.16	65535	64758.65
803.6499	292.3721	65535	64767.45
803.7928	294.5837	65535	64767.55
803.9357	296.7947	65535	64766.4
804.0786	299.0052	65535	64766.15
804.2215	301.2152	65535	64762.85
804.3644	303.4246	65535	64769.05
804.5074	305.6334	65535	64762.85
804.6503	307.8418	65535	64762.5
804.7933	310.0495	65535	64761.65
804.9363	312.2568	65535	64763.65
805.0793	314.4635	65535	64763.2
805.2223	316.6696	65535	64756.5
805.3653	318.8752	65535	64749.6
805.5084	321.0802	65535	64755.3
805.6514	323.2847	65535	64757.15
805.7945	325.4887	65535	64754.95
805.9376	327.692	65535	64753.25
806.0807	329.8949	65535	64751.7
806.2238	332.0972	65535	64747.65
806.367	334.2989	65535	64748.55
806.5101	336.5001	65535	64745.2
806.6533	338.7007	65535	64746.95
806.7965	340.9008	65535	64745.85
806.9397	343.1003	65535	64741
807.0829	345.2992	65535	64740.1
807.2261	347.4976	65535	64741.4
807.3693	349.6955	65535	64736.55
807.5126	351.8927	65535	64737.55
807.6559	354.0895	65535	64727.7
807.7991	356.2856	65535	64738.15
807.9424	358.4812	65535	64735.7
808.0857	360.6763	65535	64734
808.2291	362.8707	65535	64734.5
808.3724	365.0646	65535	64731.25
808.5158	367.258	65535	64729
808.6591	369.4508	65535	64725.45
808.8025	371.643	65535	64725.6
808.9459	373.8346	65535	64723.4
809.0893	376.0257	65535	64719.85
809.2327	378.2162	65535	64720.4
809.3762	380.4062	65535	64717.2
809.5196	382.5956	65535	64713.7
809.6631	384.7844	65535	64717.5
809.8066	386.9726	65535	64716.35
809.9501	389.1603	65535	64718.8
810.0936	391.3474	65535	64677.8
810.2371	393.5339	65535	64717.55
810.3806	395.7199	65535	64724.3
810.5241	397.9052	65535	64728.2
810.6677	400.09	65535	64727
810.8113	402.2743	65535	64726.75
810.9548	404.4579	65535	64726.3
811.0984	406.641	65535	64726.3
811.2421	408.8235	65535	64726.95
811.3857	411.0054	65535	64723.75
811.5293	413.1868	65535	64722.85
811.673	415.3675	65535	64716.95
811.8166	417.5477	65535	64717.05
811.9603	419.7273	65535	64714.7
812.104	421.9064	65535	64705.6
812.2477	424.0848	65535	64711.1
812.3914	426.2627	65535	64707.8
812.5351	428.4399	65535	64706.55
812.6788	430.6166	65535	64702.65
812.8226	432.7928	65535	64700.35
812.9663	434.9683	65535	64703.3
813.1101	437.1432	65535	64700.4
813.2539	439.3176	65535	64702.1
813.3977	441.4914	65535	64698.95
813.5415	443.6645	65535	64699.4
813.6853	445.8371	65535	64700.2
813.8291	448.0091	65535	64701.55
813.973	450.1806	65535	64702.2
814.1168	452.3514	65535	64697.25
814.2607	454.5216	65535	64689.75
814.4046	456.6913	65535	64696.1
814.5485	458.8603	65535	64699.95
814.6924	461.0288	65535	64699.2
814.8363	463.1967	65535	64696.9
814.9802	465.3639	65535	64695.2
815.1241	467.5306	65535	64694.3
815.2681	469.6967	65535	64698.2
815.412	471.8622	65535	64697.75
815.556	474.0271	65535	64697.25
815.7	476.1914	65535	64692.2
815.844	478.3551	65535	64692.55
815.988	480.5182	65535	64691.5
816.132	482.6807	65535	64694.5
816.276	484.8426	65535	64693.35
816.4201	487.0039	65535	64692.65
816.5641	489.1647	65535	64690.5
816.7082	491.3248	65535	64691.25
816.8522	493.4843	65535	64690.2
816.9963	495.6432	65535	64693.55
817.1404	497.8015	65535	64688.9
817.2845	499.9592	65535	64687.75
817.4286	502.1163	65535	64686.8
817.5727	504.2728	65535	64685.8
817.7168	506.4287	65535	64689
817.861	508.5839	65535	64688.7
818.0051	510.7386	65535	64688.3
818.1493	512.8927	65535	64685.6
818.2935	515.0461	65535	64687.15
818.4377	517.199	65535	64684.25
818.5818	519.3512	65535	64684.6
818.726	521.5029	65535	64678.75
818.8703	523.6539	65535	64683.5
819.0145	525.8043	65535	64676.95
819.1587	527.9541	65535	64678.9
819.303	530.1033	65535	64681
819.4472	532.2519	65535	64680.15
819.5915	534.3999	65535	64677.7
819.7357	536.5472	65535	64678.5
819.88	538.694	65535	64684
820.0243	540.8401	65535	64679.8
820.1686	542.9856	65535	64676.65
820.3129	545.1305	65535	64672.6
820.4572	547.2748	65535	64676
820.6016	549.4185	65535	64671.15
820.7459	551.5615	65535	64675.3
820.8902	553.704	65535	64671.35
821.0346	555.8458	65535	64672.55
821.1789	557.987	65535	64677.95
821.3233	560.1276	65535	64670.2
821.4677	562.2675	65535	64674.95
821.6121	564.4069	65535	64675.15
821.7565	566.5456	65535	64674.35
821.9009	568.6837	65535	64675.75
822.0453	570.8212	65535	64674.15
822.1897	572.958	65535	64674.35
822.3342	575.0942	65535	64675.3
822.4786	577.2299	65535	64674.8
822.6231	579.3648	65535	64678
822.7675	581.4992	65535	64678.1
822.912	583.6329	65535	64676.1
823.0565	585.766	65535	64675.5
823.201	587.8985	65535	64676.1
823.3454	590.0304	65535	64649.7
823.4899	592.1616	65535	64668
823.6345	594.2922	65535	64672.85
823.779	596.4222	65535	64670.8
823.9235	598.5515	65535	64668.2
824.068	600.6802	65535	64669.3
824.2126	602.8083	65535	64668.2
824.3571	604.9358	65535	64667.55
824.5017	607.0626	65535	64666.75
824.6462	609.1888	65535	64662.75
824.7908	611.3144	65535	64666.5
824.9354	613.4393	65535	64669.3
825.08	615.5636	65535	64664.15
825.2246	617.6873	65535	64667.15
825.3692	619.8103	65535	64665.75
825.5138	621.9327	65535	64664.5
825.6584	624.0544	65535	64666.35
825.803	626.1756	65535	64665.05
825.9477	628.2961	65535	64663.45
826.0923	630.4159	65535	64666.2
826.237	632.5351	65535	64665.4
826.3816	634.6537	65535	64661
826.5263	636.7716	65535	64661.55
826.6709	638.8889	65535	64664.65
826.8156	641.0056	65535	64659.35
826.9603	643.1216	65535	64662.95
827.105	645.237	65535	64660.15
827.2497	647.3518	65535	64662.1
827.3944	649.4659	65535	64661.2
827.5391	651.5793	65535	64658.85
827.6838	653.6922	65535	64664.25
827.8285	655.8043	65535	64662.35
827.9733	657.9159	65535	64662.1
828.118	660.0268	65535	64660.85
828.2627	662.137	65535	64659.1
828.4075	664.2466	65535	64658.8
828.5522	666.3556	65535	64656.7
828.697	668.4639	65535	64653.85
828.8418	670.5716	65535	64659.6
828.9865	672.6786	65535	64657.25
829.1313	674.785	65535	64657.45
829.2761	676.8907	65535	64655.45
829.4209	678.9958	65535	64660.4
829.5657	681.1002	65535	64655.1
829.7105	683.204	65535	64652.65
829.8553	685.3072	65535	64654.55
830.0001	687.4097	65535	64656.5
830.1449	689.5115	65535	64652.85
830.2898	691.6127	65535	64656.45
830.4346	693.7132	65535	64654.7
830.5794	695.8131	65535	64638.75
830.7243	697.9123	65535	64652.2
830.8691	700.0109	65535	64654.65
831.014	702.1089	65535	64657.45
831.1588	704.2061	65535	64657.75
831.3037	706.3028	65535	64653.5
831.4486	708.3987	65535	64653.95
831.5935	710.4941	65535	64655.2
831.7383	712.5887	65535	64652.25
831.8832	714.6827	65535	64649.1
832.0281	716.7761	65535	64654.15
832.173	718.8688	65535	64651.9
832.3179	720.9608	65535	64649
832.4628	723.0522	65535	64649.45
832.6077	725.1429	65535	64653.85
832.7527	727.233	65535	64649.9
832.8976	729.3224	65535	64649.9
833.0425	731.4112	65535	64651.4
833.1874	733.4993	65535	64648.75
833.3324	735.5867	65535	64649.45
833.4773	737.6735	65535	64649.55
833.6222	739.7596	65535	64647.35
833.7672	741.845	65535	64651.4
833.9122	743.9298	65535	64646.45
834.0571	746.014	65535	64651.3
834.2021	748.0974	65535	64648.15
834.347	750.1802	65535	64650.35
834.492	752.2624	65535	64646.4
834.637	754.3439	65535	64645.45
834.782	756.4247	65535	64637.45
834.9269	758.5048	65535	64649.25
835.0719	760.5843	65535	64647.55
835.2169	762.6631	65535	64647.55
835.3619	764.7413	65535	64647.6
835.5069	766.8188	65535	64644.4
835.6519	768.8956	65535	64644.35
835.7969	770.9718	65535	64647.5
835.9419	773.0473	65535	64651.5
836.0869	775.1221	65535	64647.2
836.232	777.1962	65535	64646.85
836.377	779.2697	65535	64644.85
836.522	781.3426	65535	64628.8
836.667	783.4147	65535	64641.2
836.8121	785.4862	65535	64646.1
836.9571	787.557	65535	64647.3
837.1021	789.6271	65535	64646.2
837.2472	791.6966	65535	64646.8
837.3922	793.7654	65535	64644.5
837.5373	795.8335	65535	64645.8
837.6823	797.901	65535	64644.1
837.8274	799.9678	65535	64642.7
837.9724	802.0339	65535	64644.85
838.1175	804.0993	65535	64632.3
838.2626	806.1641	65535	64644.35
838.4076	808.2282	65535	64646.45
838.5527	810.2916	65535	64644.35
838.6978	812.3544	65535	64645.15
838.8428	814.4164	65535	64647.05
838.9879	816.4778	65535	64641.95
839.133	818.5385	65535	64642.8
839.2781	820.5986	65535	64643.35
839.4232	822.658	65535	64643.95
839.5682	824.7166	65535	64643.35
839.7133	826.7747	65535	64642.6
839.8584	828.832	65535	64644.7
840.0035	830.8886	65535	64641.7
840.1486	832.9446	65535	64642.75
840.2937	834.9999	65535	64645.7
840.4388	837.0545	65535	64638.9
840.5839	839.1085	65535	64642.65
840.729	841.1618	65535	64638.85
840.8741	843.2143	65535	64642.3
841.0192	845.2662	65535	64642.65
841.1643	847.3175	65535	64645.95
841.3095	849.368	65535	64644.55
841.4546	851.4179	65535	64640.9
841.5997	853.467	65535	64642.3
841.7448	855.5155	65535	64643.05
841.8899	857.5633	65535	64641.7
842.0351	859.6105	65535	64638.8
842.1802	861.6569	65535	64642.55
842.3253	863.7027	65535	64642.15
842.4704	865.7478	65535	64641.2
842.6156	867.7922	65535	64643.7
842.7607	869.8359	65535	64640.75
842.9058	871.8789	65535	64641.15
843.0509	873.9212	65535	64611.1
843.1961	875.9629	65535	64639.1
843.3412	878.0039	65535	64639.65
843.4863	880.0441	65535	64643.05
843.6315	882.0837	65535	64639.9
843.7766	884.1226	65535	64638.25
843.9218	886.1609	65535	64642.1
844.0669	888.1984	65535	64641.35
844.212	890.2352	65535	64644.3
844.3572	892.2714	65535	64636.45
844.5023	894.3069	65535	64641.55
844.6475	896.3416	65535	64641.75
844.7926	898.3757	65535	64640.65
844.9377	900.4091	65535	64640.15
845.0829	902.4418	65535	64633.55
845.228	904.4739	65535	64637.7
845.3732	906.5052	65535	64640.65
845.5183	908.5358	65535	64641.35
845.6635	910.5658	65535	64638.6
845.8086	912.595	65535	64638.55
845.9538	914.6236	65535	64637.3
846.0989	916.6515	65535	64640.2
846.2441	918.6786	65535	64636.65
846.3892	920.7051	65535	64637.15
846.5344	922.7309	65535	64638.7
846.6795	924.756	65535	64637.4
846.8246	926.7804	65535	64638.9
846.9698	928.8041	65535	64636.4
847.1149	930.8272	65535	64639.8
847.2601	932.8495	65535	64635.2
847.4052	934.8711	65535	64636
847.5504	936.892	65535	64638.3
847.6955	938.9123	65535	64637.5
847.8407	940.9318	65535	64638.25
847.9858	942.9506	65535	64637.15
848.131	944.9688	65535	64636.3
848.2761	946.9862	65535	64637.65
848.4213	949.003	65535	64637.35
848.5664	951.019	65535	64638.15
848.7115	953.0344	65535	64638.25
848.8567	955.0491	65535	64638.2
849.0018	957.063	65535	64637.9
849.147	959.0763	65535	64636.7
849.2921	961.0888	65535	64634.15
849.4373	963.1007	65535	64637.6
849.5824	965.1119	65535	64637.85
849.7275	967.1223	65535	64641.4
849.8727	969.1321	65535	64640.05
850.0178	971.1412	65535	64638.2
850.1629	973.1495	65535	64639.2
850.3081	975.1572	65535	64603.8
850.4532	977.1641	65535	64636.9
850.5983	979.1704	65535	64635.55
850.7435	981.1759	65535	64633.15
850.8886	983.1808	65535	64637.85
851.0337	985.1849	65535	64626.2
851.1788	987.1884	65535	64633.9
851.324	989.1911	65535	64632.7
851.4691	991.1932	65535	64634.25
851.6142	993.1945	65535	64637.5
851.7593	995.1951	65535	64635.2
851.9045	997.1951	65535	64633.3
852.0496	999.1943	65535	64635.65
852.1947	1001.1928	65535	64637.55
852.3398	1003.1906	65535	64635.45
852.4849	1005.1877	65535	64636.35
852.63	1007.1841	65535	64636.4
852.7751	1009.1798	65535	64634.5
852.9202	1011.1748	65535	64638.15
853.0653	1013.1691	65535	64636.4
853.2104	1015.1627	65535	64633.3
853.3555	1017.1556	65535	64636.15
853.5006	1019.1477	65535	64635.8
853.6457	1021.1392	65535	64639.8
853.7908	1023.1299	65535	64637.1
853.9359	1025.12	65535	64635.95
854.081	1027.1093	65535	64640.9
854.2261	1029.0979	65535	64641.2
854.3712	1031.0859	65535	64639.5
854.5163	1033.0731	65535	64637.3
854.6613	1035.0596	65535	64638.25
854.8064	1037.0454	65535	64635.2
854.9515	1039.0304	65535	64638
855.0965	1041.0148	65535	64639.45
855.2416	1042.9985	65535	64635.6
855.3867	1044.9814	65535	64638.35
855.5317	1046.9636	65535	64633.95
855.6768	1048.9452	65535	64638.2
855.8219	1050.926	65535	64638.45
855.9669	1052.9061	65535	64635.15
856.112	1054.8855	65535	64635.6
856.257	1056.8642	65535	64638.15
856.4021	1058.8421	65535	64631.25
856.5471	1060.8194	65535	64633.55
856.6921	1062.7959	65535	64637.1
856.8372	1064.7717	65535	64635.05
856.9822	1066.7469	65535	64632.5
857.1272	1068.7213	65535	64632.4
857.2723	1070.695	65535	64638
857.4173	1072.6679	65535	64635.7
857.5623	1074.6402	65535	64636.4
857.7073	1076.6117	65535	64629.8
857.8523	1078.5826	65535	64636.35
857.9973	1080.5527	65535	64632.6
858.1423	1082.5221	65535	64635.55
858.2873	1084.4908	65535	64635.45
858.4323	1086.4587	65535	64635.85
858.5773	1088.426	65535	64633.2
858.7223	1090.3925	65535	64632.8
858.8673	1092.3584	65535	64636.2
859.0123	1094.3235	65535	64635.9
859.1573	1096.2879	65535	64635.55
859.3022	1098.2515	65535	64636.4
859.4472	1100.2145	65535	64635.75
859.5922	1102.1767	65535	64632.7
859.7371	1104.1382	65535	64636.45
859.8821	1106.099	65535	64633.7
860.027	1108.0591	65535	64635.95
860.172	1110.0185	65535	64635.45
860.3169	1111.9771	65535	64637.65
860.4619	1113.9351	65535	64634
860.6068	1115.8923	65535	64635.85
860.7517	1117.8488	65535	64632.5
860.8967	1119.8045	65535	64636.6
861.0416	1121.7596	65535	64634.65
861.1865	1123.7139	65535	64636.05
861.3314	1125.6675	65535	64637.8
861.4763	1127.6204	65535	64633.95
861.6212	1129.5726	65535	64633.4
861.7661	1131.524	65535	64637.1
861.911	1133.4748	65535	64635.8
862.0559	1135.4248	65535	64633.8
862.2008	1137.3741	65535	64637.45
862.3457	1139.3226	65535	64633.85
862.4905	1141.2705	65535	64635
862.6354	1143.2176	65535	64628.9
862.7803	1145.164	65535	64634.25
862.9251	1147.1097	65535	64634.7
863.07	1149.0546	65535	64634.2
863.2148	1150.9989	65535	64637.15
863.3597	1152.9424	65535	64634.2
863.5045	1154.8852	65535	64635.8
863.6493	1156.8272	65535	64635.65
863.7942	1158.7686	65535	64628.1
863.939	1160.7092	65535	64633.75
864.0838	1162.6491	65535	64634.3
864.2286	1164.5883	65535	64634.8
864.3734	1166.5267	65535	64634.45
864.5182	1168.4644	65535	64635.1
864.663	1170.4014	65535	64627.4
864.8078	1172.3377	65535	64635.35
864.9526	1174.2732	65535	64635.5
865.0974	1176.2081	65535	64634.8
865.2421	1178.1421	65535	64631.65
865.3869	1180.0755	65535	64636.1
865.5317	1182.0082	65535	64635.85
865.6764	1183.9401	65535	64633.85
865.8212	1185.8713	65535	64637.7
865.9659	1187.8017	65535	64638.3
866.1106	1189.7315	65535	64638.75
866.2554	1191.6605	65535	64609.45
866.4001	1193.5888	65535	64637.75
866.5448	1195.5163	65535	64637.65
866.6895	1197.4432	65535	64634.55
866.8342	1199.3693	65535	64636.65
866.9789	1201.2947	65535	64633.95
867.1236	1203.2193	65535	64636.7
867.2683	1205.1432	65535	64633.7
867.413	1207.0664	65535	64636.05
867.5576	1208.9889	65535	64633.3
867.7023	1210.9106	65535	64635.1
867.847	1212.8316	65535	64639.1
867.9916	1214.7519	65535	64625.4
868.1363	1216.6715	65535	64635.35
868.2809	1218.5903	65535	64636.25
868.4255	1220.5084	65535	64635.8
868.5701	1222.4257	65535	64636.6
868.7148	1224.3424	65535	64636.9
868.8594	1226.2583	65535	64629.6
869.004	1228.1735	65535	64634.7
869.1486	1230.0879	65535	64637.45
869.2932	1232.0016	65535	64634.2
869.4377	1233.9146	65535	64634.35
869.5823	1235.8269	65535	64634.9
869.7269	1237.7384	65535	64636.8
869.8715	1239.6492	65535	64636.65
870.016	1241.5592	65535	64634.9
870.1606	1243.4686	65535	64637.5
870.3051	1245.3772	65535	64636.95
870.4496	1247.285	65535	64634.45
870.5941	1249.1922	65535	64636.4
870.7387	1251.0986	65535	64636.3
870.8832	1253.0042	65535	64635.35
871.0277	1254.9092	65535	64637.8
871.1722	1256.8134	65535	64636.45
871.3167	1258.7169	65535	64635.7
871.4611	1260.6196	65535	64636.85
871.6056	1262.5216	65535	64633.75
871.7501	1264.4229	65535	64637.1
871.8945	1266.3234	65535	64634.3
872.039	1268.2232	65535	64633.75
872.1834	1270.1223	65535	64634.75
872.3278	1272.0207	65535	64634.85
872.4723	1273.9183	65535	64629.2
872.6167	1275.8151	65535	64635.45
872.7611	1277.7113	65535	64636.8
872.9055	1279.6067	65535	64636.3
873.0499	1281.5014	65535	64632.25
873.1943	1283.3953	65535	64636.15
873.3386	1285.2885	65535	64635.4
873.483	1287.181	65535	64634.45
873.6274	1289.0727	65535	64635
873.7717	1290.9637	65535	64634
873.9161	1292.854	65535	64637.5
874.0604	1294.7435	65535	64635.5
874.2047	1296.6323	65535	64635.9
874.349	1298.5204	65535	64633.2
874.4933	1300.4077	65535	64632.8
874.6376	1302.2943	65535	64637
874.7819	1304.1802	65535	64635.85
874.9262	1306.0653	65535	64632.85
875.0705	1307.9497	65535	64634.4
875.2147	1309.8333	65535	64632.85
875.359	1311.7162	65535	64636.5
875.5032	1313.5984	65535	64632.9
875.6475	1315.4798	65535	64625.6
875.7917	1317.3605	65535	64621.7
875.9359	1319.2405	65535	64633.1
876.0801	1321.1197	65535	64632.2
876.2243	1322.9982	65535	64630.55
876.3685	1324.876	65535	64636.75
876.5127	1326.753	65535	64636.95
876.6569	1328.6293	65535	64635.45
876.801	1330.5048	65535	64634.3
876.9452	1332.3796	65535	64634.55
877.0893	1334.2537	65535	64610.9
877.2335	1336.127	65535	64635.25
877.3776	1337.9996	65535	64635.05
877.5217	1339.8714	65535	64634.3
877.6658	1341.7426	65535	64592.95
877.8099	1343.6129	65535	64634.1
877.954	1345.4826	65535	64635.8
878.0981	1347.3515	65535	64632.35
878.2422	1349.2196	65535	64636.2
878.3862	1351.087	65535	64635
878.5303	1352.9537	65535	64634.75
878.6743	1354.8197	65535	64636.45
878.8184	1356.6849	65535	64633.65
878.9624	1358.5493	65535	64635.65
879.1064	1360.4131	65535	64634.5
879.2504	1362.276	65535	64635.6
879.3944	1364.1383	65535	64636.7
879.5384	1365.9998	65535	64631.8
879.6823	1367.8606	65535	64635
879.8263	1369.7206	65535	64634.95
879.9702	1371.5799	65535	64632.8
880.1142	1373.4384	65535	64634.55
880.2581	1375.2962	65535	64634.75
880.402	1377.1533	65535	64636.2
880.5459	1379.0096	65535	64634.6
880.6898	1380.8652	65535	64635.7
880.8337	1382.7201	65535	64633.9
880.9776	1384.5742	65535	64638.1
881.1215	1386.4275	65535	64634
881.2653	1388.2802	65535	64639.75
881.4092	1390.132	65535	64635.75
881.553	1391.9832	65535	64634.9
881.6968	1393.8336	65535	64636.2
881.8406	1395.6832	65535	64633.85
881.9844	1397.5322	65535	64633.5
882.1282	1399.3803	65535	64629.8
882.272	1401.2278	65535	64634.9
882.4158	1403.0745	65535	64636.5
882.5595	1404.9204	65535	64635.3
882.7033	1406.7656	65535	64635.1
882.847	1408.6101	65535	64636.35
882.9908	1410.4538	65535	64634.8
883.1345	1412.2968	65535	64635.65
883.2782	1414.139	65535	64634.65
883.4219	1415.9805	65535	64634.55
883.5656	1417.8213	65535	64629.15
883.7092	1419.6613	65535	64634.95
883.8529	1421.5006	65535	64635.85
883.9965	1423.3391	65535	64634.45
884.1402	1425.1769	65535	64631.8
884.2838	1427.0139	65535	64633.6
884.4274	1428.8502	65535	64634.9
884.571	1430.6858	65535	64635.6
884.7146	1432.5206	65535	64637.25
884.8582	1434.3547	65535	64634.65
885.0018	1436.188	65535	64635.65
885.1453	1438.0206	65535	64635.5
885.2889	1439.8524	65535	64636.3
885.4324	1441.6835	65535	64633.85
885.5759	1443.5139	65535	64631.8
885.7194	1445.3435	65535	64635.9
885.8629	1447.1724	65535	64637.45
886.0064	1449.0005	65535	64636.15
886.1499	1450.8279	65535	64635.9
886.2933	1452.6545	65535	64638.1
886.4368	1454.4804	65535	64637.05
886.5802	1456.3056	65535	64628.8
886.7237	1458.13	65535	64636.65
886.8671	1459.9536	65535	64635.45
887.0105	1461.7766	65535	64634.7
887.1539	1463.5987	65535	64634.6
887.2972	1465.4202	65535	64635.35
887.4406	1467.2409	65535	64635.9
887.584	1469.0608	65535	64637.45
887.7273	1470.88	65535	64636.95
887.8706	1472.6984	65535	64636.1
888.0139	1474.5161	65535	64632.8
888.1572	1476.3331	65535	64634.7
888.3005	1478.1493	65535	64636.05
888.4438	1479.9648	65535	64636.5
888.5871	1481.7795	65535	64637.45
888.7303	1483.5935	65535	64638.2
888.8736	1485.4067	65535	64637.6
889.0168	1487.2192	65535	64635.95
889.16	1489.031	65535	64631.95
889.3032	1490.842	65535	64635.55
889.4464	1492.6522	65535	64634.8
889.5896	1494.4618	65535	64635
889.7327	1496.2705	65535	64634.95
889.8759	1498.0785	65535	64634.6
890.019	1499.8858	65535	64636.65
890.1622	1501.6924	65535	64636.95
890.3053	1503.4981	65535	64637.45
890.4484	1505.3032	65535	64634.4
890.5914	1507.1075	65535	64636.65
890.7345	1508.911	65535	64638.1
890.8776	1510.7138	65535	64636.75
891.0206	1512.5159	65535	64635.3
891.1637	1514.3172	65535	64636.4
891.3067	1516.1178	65535	64637.05
891.4497	1517.9176	65535	64635.45
891.5927	1519.7166	65535	64637.55
891.7357	1521.515	65535	64629.8
891.8786	1523.3126	65535	64635.05
892.0216	1525.1094	65535	64633
892.1645	1526.9055	65535	64638.75
892.3074	1528.7008	65535	64637.9
892.4503	1530.4954	65535	64630.6
892.5932	1532.2893	65535	64636.05
892.7361	1534.0824	65535	64629.75
892.879	1535.8747	65535	64635.65
893.0218	1537.6663	65535	64636.5
893.1647	1539.4572	65535	64635.05
893.3075	1541.2473	65535	64636.5
893.4503	1543.0367	65535	64637.65
893.5931	1544.8253	65535	64633.55
893.7359	1546.6132	65535	64634.9
893.8787	1548.4003	65535	64625.75
894.0214	1550.1867	65529.75	64624.85
894.1642	1551.9723	65526.85	64626.7
894.3069	1553.7572	65527.75	64630.5
894.4496	1555.5414	65535	64635.95
894.5923	1557.3247	65378.1	64480.25
894.735	1559.1074	65533.5	64637.3
894.8777	1560.8893	65505.4	64608.3
895.0204	1562.6705	65521.5	64624.35
895.163	1564.4509	65410.95	64516.9
895.3056	1566.2305	65492	64596.8
895.4482	1568.0094	65527.45	64633
895.5908	1569.7876	65494.7	64599.1
895.7334	1571.565	65396.6	64497.75
895.876	1573.3417	65460	64563.85
896.0186	1575.1176	65440.8	64542.8
896.1611	1576.8928	65390.85	64493.85
896.3036	1578.6672	65172.4	64278.15
896.4461	1580.4409	65334.55	64441
896.5886	1582.2138	64985.15	64086.8
896.7311	1583.986	65103.25	64207.25
896.8736	1585.7575	64709.6	63814.85
897.0161	1587.5282	64827.7	63931.9
897.1585	1589.2981	64869.2	63974.3
897.3009	1591.0673	64460.95	63565.85
897.4433	1592.8358	64168	63270.25
897.5857	1594.6035	64522.3	63624.7
897.7281	1596.3704	64542.45	63643.8
897.8705	1598.1366	63813.15	62918.4
898.0128	1599.9021	63395.35	62499.8
898.1551	1601.6668	64050.55	63151.9
898.2975	1603.4308	63715.75	62819.1
898.4398	1605.194	63803.45	62904.25
898.5821	1606.9564	62788.4	61892.55
898.7243	1608.7182	63340.85	62442.85
898.8666	1610.4791	62785.8	61891.8
899.0088	1612.2394	63296	62401.1
899.1511	1613.9988	62650.55	61754.25
899.2933	1615.7576	63407.5	62513.05
899.4355	1617.5156	63408.2	62505.75
899.5776	1619.2728	64034.4	63139.4
899.7198	1621.0293	62896.9	62000.75
899.862	1622.785	62913.9	62016.05
900.0041	1624.54	63345.1	62447
900.1462	1626.2942	62677.7	61783.2
900.2883	1628.0477	61712.9	60815.1
900.4304	1629.8005	60971.65	60075.2
900.5725	1631.5525	61655.65	60760.75
900.7145	1633.3037	60444.3	59549.15
900.8566	1635.0542	60326.75	59432.45
900.9986	1636.804	60757.1	59862.15
901.1406	1638.553	59734.85	58731.25
901.2826	1640.3013	60008.55	59111.2
901.4245	1642.0488	59245.3	58350.35
901.5665	1643.7955	59698.3	58804.4
901.7085	1645.5416	59194.75	58299.75
901.8504	1647.2868	58793.55	57901.35
901.9923	1649.0313	59519.8	58627.5
902.1342	1650.7751	59060.15	58161.8
902.2761	1652.5181	58689.25	57794.75
902.4179	1654.2604	58765.3	57869.15
902.5598	1656.0019	59266.4	58372.65
902.7016	1657.7427	58998.6	58104.25
902.8434	1659.4828	59566.85	58673.55
902.9852	1661.222	59205.5	58309.45
903.127	1662.9606	59632.85	58736.9
903.2687	1664.6984	58840.7	57946.75
903.4105	1666.4354	59007.9	58112.85
903.5522	1668.1717	57859.95	56962.5
903.6939	1669.9072	57072.05	56177.95
903.8356	1671.642	56828.45	55931.35
903.9773	1673.3761	56451.7	55557.7
904.119	1675.1094	56095.35	55199.85
904.2606	1676.8419	55595.55	54702.75
904.4022	1678.5737	55362.75	54469.2
904.5439	1680.3048	55133.65	54240.45
904.6855	1682.0351	54739.9	53847.55
904.827	1683.7646	54446.15	53549.1
904.9686	1685.4934	54440.45	53549.65
905.1101	1687.2215	53596	52700.15
905.2517	1688.9488	54026.2	53132.4
905.3932	1690.6754	52918.5	52026.5
905.5347	1692.4012	53227.3	52333.6
905.6761	1694.1263	53099.2	52204.25
905.8176	1695.8506	52825.2	51928.9
905.9591	1697.5742	52676.65	51781.95
906.1005	1699.297	52422.15	51526.85
906.2419	1701.0191	52188.15	51297
906.3833	1702.7404	51863.1	50969.85
906.5246	1704.461	51521.65	50626
906.666	1706.1808	51442.65	50548.75
906.8073	1707.8999	51258.05	50364.3
906.9487	1709.6182	51041.55	50150.2
907.09	1711.3358	50955.2	50061.65
907.2313	1713.0527	50764.6	49873.75
907.3725	1714.7688	50600.15	49701.45
907.5138	1716.4841	50226.95	49333
907.655	1718.1987	50245.2	49344.8
907.7962	1719.9126	50024.35	49132.85
907.9374	1721.6257	49830.75	48935.25
908.0786	1723.338	49798.75	48904.65
908.2198	1725.0496	49249.55	48356.15
908.3609	1726.7605	49213.95	48319.2
908.502	1728.4706	49044.75	48150.05
908.6431	1730.18	48846.3	47951.25
908.7842	1731.8886	48652.8	47760.75
908.9253	1733.5964	48536.35	47622.9
909.0664	1735.3036	48471.25	47577.25
909.2074	1737.0099	48308	47415.05
909.3484	1738.7156	48135	47242.55
909.4894	1740.4204	47811.9	46915.95
909.6304	1742.1246	47778.8	46883.55
909.7714	1743.8279	47668.5	46773.8
909.9123	1745.5306	47595.9	46701.65
910.0532	1747.2325	47322.6	46429.75
910.1941	1748.9336	47120.55	46226.75
910.335	1750.634	46957.85	46063.35
910.4759	1752.3336	46862.9	45970.15
910.6168	1754.0325	46771.25	45878.55
910.7576	1755.7307	46693.2	45800.7
910.8984	1757.4281	46539.9	45647.6
911.0392	1759.1247	46454.75	45554.9
911.18	1760.8206	46300.4	45404.2
911.3208	1762.5158	46213.4	45314.55
911.4615	1764.2102	46027.6	45135.8
911.6022	1765.9039	45788.15	44894.2
911.7429	1767.5968	45675.5	44784.1
911.8836	1769.289	45520.8	44627.25
912.0243	1770.9804	45357.5	44465.8
912.1649	1772.6711	45293.15	44399.65
912.3056	1774.361	45195.4	44301.75
912.4462	1776.0502	45102.45	44208.25
912.5868	1777.7386	44970.5	44076.95
912.7274	1779.4263	44828.2	43934.25
912.8679	1781.1132	44735.6	43841.65
913.0084	1782.7994	44551.25	43658.15
913.149	1784.4849	44470.9	43578.2
913.2895	1786.1696	44228.25	43329.15
913.4299	1787.8535	44116.6	43224.25
913.5704	1789.5367	44015.3	43122.65
913.7108	1791.2192	43928.55	43037.15
913.8513	1792.9009	43718.85	42796.45
913.9917	1794.5818	43636.15	42741.2
914.132	1796.2621	43585.2	42692.4
914.2724	1797.9415	43430.7	42537.35
914.4128	1799.6202	43244.6	42352.3
914.5531	1801.2982	43076.5	42186
914.6934	1802.9755	42955.8	42061.2
914.8337	1804.6519	42948.55	42056
914.9739	1806.3277	42652.1	41758.4
915.1142	1808.0027	42553.5	41662.05
915.2544	1809.6769	42485.15	41591.1
915.3946	1811.3504	42343.8	41449.85
915.5348	1813.0231	42251.55	41357.9
915.675	1814.6951	42186.55	41296.15
915.8151	1816.3664	42151.7	41257.7
915.9553	1818.0369	41963.1	41069.6
916.0954	1819.7067	41789.15	40897.25
916.2355	1821.3757	41660.45	40766.05
916.3755	1823.044	41606.4	40712.05
916.5156	1824.7115	41493.65	40598.9
916.6556	1826.3783	41333.75	40441.7
916.7956	1828.0443	41183.9	40291.45
916.9356	1829.7096	41079.8	40186.35
917.0756	1831.3741	41004.9	40108.8
917.2155	1833.0379	40890.4	39996.45
917.3555	1834.701	40712.55	39816.15
917.4954	1836.3633	40645.55	39752.6
917.6353	1838.0248	40458.15	39565.05
917.7751	1839.6856	40418.95	39524.65
917.915	1841.3457	40354.6	39464
918.0548	1843.005	40212.6	39321.1
918.1946	1844.6636	40160.65	39267.55
918.3344	1846.3214	39937.6	39043.15
918.4742	1847.9785	39941.9	39047.75
918.6139	1849.6349	39789.4	38895.35
918.7537	1851.2904	39693.8	38793.95
918.8934	1852.9453	39534	38641.2
919.0331	1854.5994	39376.7	38480.55
919.1727	1856.2528	39380.7	38484.8
919.3124	1857.9054	39266	38374.05
919.452	1859.5572	39201.8	38309.95
919.5916	1861.2083	39071.55	38177.1
919.7312	1862.8587	39087.2	38193.85
919.8708	1864.5084	38936.2	38044.55
920.0103	1866.1572	38792.75	37901.55
920.1498	1867.8054	38573.9	37680.85
920.2893	1869.4528	38523.25	37629.1
920.4288	1871.0994	38440.55	37548.25
920.5683	1872.7453	38354.75	37462.5
920.7077	1874.3905	38250.9	37351.55
920.8471	1876.0349	38128.05	37232.55
920.9865	1877.6786	38098.5	37204.2
921.1259	1879.3215	37987.9	37095.7
921.2653	1880.9637	37875.3	36981.55
921.4046	1882.6051	37850.15	36957.9
921.5439	1884.2458	37702.9	36810.25
921.6832	1885.8858	37560.1	36665
921.8225	1887.525	37475.6	36582.5
921.9617	1889.1634	37219.7	36326
922.101	1890.8011	37125.25	36231.9
922.2402	1892.4381	37084.1	36191.55
922.3794	1894.0743	37011.85	36120
922.5185	1895.7098	36837.9	35945.95
922.6577	1897.3446	36723.95	35830.45
922.7968	1898.9786	36654.25	35758.25
922.9359	1900.6118	36551.15	35660.8
923.075	1902.2443	36278.05	35382.75
923.214	1903.8761	36278.5	35386.3
923.3531	1905.5071	36098.75	35207.65
923.4921	1907.1374	35919.35	35025.75
923.6311	1908.7669	35888.15	34994.25
923.77	1910.3957	35832.85	34941.55
923.909	1912.0237	35629.5	34736.2
924.0479	1913.651	35508.5	34616.4
924.1868	1915.2776	35380.7	34490.15
924.3257	1916.9034	35209.4	34318.9
924.4646	1918.5285	35043.55	34152.65
924.6034	1920.1528	34843.4	33950.35
924.7422	1921.7764	34853	33960.6
924.881	1923.3992	34681.9	33790.35
925.0198	1925.0213	34487.95	33596.4
925.1586	1926.6427	34300.45	33409.65
925.2973	1928.2633	34314.25	33316.85
925.436	1929.8832	34134.95	33240.1
925.5747	1931.5023	33974.05	33083.1
925.7134	1933.1207	33920.05	33028.45
925.852	1934.7383	33801.7	32908.7
925.9906	1936.3552	33679.05	32786.15
926.1292	1937.9714	33553.05	32659.2
926.2678	1939.5868	33447.45	32554.05
926.4064	1941.2015	33192.45	32298.85
926.5449	1942.8154	33120.15	32227.15
926.6834	1944.4286	32912.95	32019.95
926.8219	1946.041	32799.9	31889.55
926.9604	1947.6528	32606.35	31709.05
927.0988	1949.2637	32578.45	31685.55
927.2372	1950.8739	32410.7	31517.6
927.3756	1952.4834	32393	31501.1
927.514	1954.0921	32316.85	31423.65
927.6523	1955.7001	32147.35	31252.1
927.7907	1957.3074	32045.55	31152.75
927.929	1958.9139	31845.55	30953.95
928.0673	1960.5197	31762.1	30869.8
928.2055	1962.1247	31656.8	30766
928.3438	1963.729	31476.4	30585.65
928.482	1965.3325	31368.95	30453.5
928.6202	1966.9353	31245.05	30353.55
928.7584	1968.5374	31141.8	30249.55
928.8965	1970.1387	31021.55	30129.85
929.0346	1971.7393	30889.15	29996.55
929.1727	1973.3392	30791.75	29898.25
929.3108	1974.9383	30671.85	29780.55
929.4489	1976.5366	30521	29627.6
929.5869	1978.1342	30463.7	29570.2
929.7249	1979.7311	30398.4	29505.85
929.8629	1981.3273	30342.2	29449.45
930.0009	1982.9227	30213.95	29318.45
930.1388	1984.5173	30084.9	29194.75
930.2767	1986.1112	29937.6	29045.65
930.4146	1987.7044	29869.8	28978
930.5525	1989.2968	29760.75	28867.5
930.6904	1990.8885	29694.9	28798
930.8282	1992.4795	29637.3	28743.4
930.966	1994.0697	29506.85	28615.3
931.1038	1995.6592	29331.8	28440.05
931.2415	1997.2479	29227.95	28336.6
931.3793	1998.8359	29200.35	28309.4
931.517	2000.4232	29011.95	28120.9
931.6547	2002.0097	28879.1	27990.3
931.7923	2003.5955	28745.65	27854.55
931.93	2005.1805	28688.45	27794.9
932.0676	2006.7648	28621.95	27732.15
932.2052	2008.3484	28507.95	27614.05
932.3427	2009.9312	28561.35	27669.5
932.4803	2011.5133	28369.4	27481.2
932.6178	2013.0946	28277.9	27386.45
932.7553	2014.6752	28189.55	27299.45
932.8928	2016.2551	28088.25	27196.85
933.0302	2017.8342	27996.8	27104.55
933.1676	2019.4126	27887.4	26998.35
933.305	2020.9902	27750.95	26861.95
933.4424	2022.5672	27696.9	26808.55
933.5798	2024.1433	27652.1	26754.55
933.7171	2025.7188	27529.6	26637.7
933.8544	2027.2935	27446.15	26553
933.9917	2028.8674	27350.05	26459.3
934.129	2030.4406	27215.05	26326.6
934.2662	2032.0131	27072.2	26180.6
934.4034	2033.5849	27028.1	26132.2
934.5406	2035.1559	26916.3	26023.4
934.6778	2036.7261	26865.15	25972.8
934.8149	2038.2957	26801.05	25908.35
934.952	2039.8645	26732.45	25842.35
935.0891	2041.4325	26709.9	25813.55
935.2262	2042.9998	26530.3	25639
935.3632	2044.5664	26460.5	25567.6
935.5002	2046.1323	26391.45	25500.65
935.6372	2047.6974	26313.25	25422.55
935.7742	2049.2617	26204.85	25314.5
935.9111	2050.8254	26215.5	25301.6
936.048	2052.3883	26142.05	25249.4
936.1849	2053.9504	26050.95	25158.8
936.3218	2055.5118	25914.2	25020.7
936.4586	2057.0725	25778.65	24884.1
936.5955	2058.6325	25754.45	24863.35
936.7323	2060.1917	25641.15	24749.95
936.869	2061.7502	25617.65	24723.5
937.0058	2063.3079	25466.55	24576.6
937.1425	2064.8649	25382.15	24488.3
937.2792	2066.4212	25353.65	24459.95
937.4159	2067.9767	25254.15	24362.3
937.5525	2069.5315	25135.4	24244.1
937.6891	2071.0856	25010.2	24118.15
937.8257	2072.6389	24882.55	23989.95
937.9623	2074.1915	24768.5	23877.35
938.0989	2075.7433	24660.35	23767.9
938.2354	2077.2945	24591.8	23700.8
938.3719	2078.8448	24537.55	23647.15
938.5084	2080.3945	24430.5	23537.8
938.6448	2081.9434	24392.15	23501.1
938.7812	2083.4916	24330.8	23438.9
938.9176	2085.039	24254	23362.2
939.054	2086.5857	24166.55	23273.4
939.1903	2088.1317	24111	23220.3
939.3267	2089.677	24026	23133.5
939.463	2091.2215	23945.35	23055
939.5992	2092.7652	23881.65	22988.95
939.7355	2094.3083	23832.05	22938.65
939.8717	2095.8506	23754.55	22863.3
940.0079	2097.3921	23753.4	22862.6
940.1441	2098.933	23657.3	22767.05
940.2802	2100.4731	23572.35	22681.5
940.4163	2102.0124	23543.65	22645.75
940.5524	2103.5511	23433.05	22542.05
940.6885	2105.089	23387.55	22495.65
940.8245	2106.6261	23321.55	22432.1
940.9606	2108.1626	23225	22332.4
941.0965	2109.6983	23197.65	22278.95
941.2325	2111.2332	23102.5	22209.55
941.3684	2112.7675	23041.65	22148.75
941.5044	2114.301	22952.85	22059.45
941.6403	2115.8337	22922.55	22029.6
941.7761	2117.3657	22834.7	21941.9
941.912	2118.897	22799.45	21906.3
942.0478	2120.4276	22687.1	21791.05
942.1835	2121.9575	22596.2	21702.3
942.3193	2123.4866	22588.35	21683.1
942.455	2125.0149	22501.05	21606.75
942.5907	2126.5426	22376.3	21485
942.7264	2128.0695	22317.5	21422
942.8621	2129.5956	22236.95	21345.45
942.9977	2131.1211	22209.6	21314.5
943.1333	2132.6458	22136.8	21245.05
943.2689	2134.1698	22109.8	21218.3
943.4044	2135.693	22014.15	21119.55
943.54	2137.2155	21949.5	21054.6
943.6755	2138.7373	21898.35	21005.4
943.8109	2140.2584	21812.85	20921.2
943.9464	2141.7787	21737.8	20841.65
944.0818	2143.2983	21615.8	20724.85
944.2172	2144.8171	21487.8	20596.25
944.3526	2146.3353	21465.15	20573.1
944.4879	2147.8527	21384.3	20493.3
944.6232	2149.3693	21345.4	20454
944.7585	2150.8853	21245.45	20353.65
944.8938	2152.4005	21110.15	20218.4
945.029	2153.9149	21110.25	20218.25
945.1642	2155.4287	21033.45	20142.65
945.2994	2156.9417	20980.2	20086.05
945.4346	2158.454	20931.6	20037.5
945.5697	2159.9655	20831.2	19939.05
945.7048	2161.4764	20837.2	19947
945.8399	2162.9865	20745.55	19852.25
945.9749	2164.4958	20690.9	19797.15
946.1099	2166.0045	20608.4	19713.85
946.2449	2167.5124	20572.45	19681.35
946.3799	2169.0195	20487.1	19595.4
946.5148	2170.526	20462.3	19568.7
946.6498	2172.0317	20377.95	19486.75
946.7846	2173.5367	20324.15	19431.35
946.9195	2175.0409	20288.2	19396.8
947.0543	2176.5445	20277.8	19386.35
947.1891	2178.0473	20151.4	19260.55
947.3239	2179.5494	20069	19174.3
947.4587	2181.0507	19981.35	19088.25
947.5934	2182.5513	19911.6	19019.8
947.7281	2184.0512	19867.85	18975.85
947.8628	2185.5504	19791.6	18901.85
947.9974	2187.0488	19652.45	18762.4
948.132	2188.5465	19627.65	18734.65
948.2666	2190.0435	19573	18679.9
948.4012	2191.5397	19463.55	18570.8
948.5357	2193.0353	19400.4	18509.75
948.6702	2194.5301	19294.25	18400.8
948.8047	2196.0241	19232.95	18338.95
948.9392	2197.5175	19165.25	18273.75
949.0736	2199.0101	19092.65	18196.8
949.208	2200.502	19000.9	18109.85
949.3424	2201.9931	18919	18028.35
949.4767	2203.4835	18879.2	17984.05
949.611	2204.9733	18813.85	17916.05
949.7453	2206.4622	18742.15	17852.3
949.8796	2207.9505	18675.05	17780.2
950.0138	2209.438	18570.4	17681.55
950.148	2210.9248	18521.6	17628.05
950.2822	2212.4109	18488.55	17598.8
950.4164	2213.8962	18401.35	17506.15
950.5505	2215.3809	18322.15	17428.9
950.6846	2216.8648	18325.05	17433.5
950.8186	2218.3479	18239.05	17343.85
950.9527	2219.8304	18216.2	17321.6
951.0867	2221.3121	18085.05	17190.75
951.2207	2222.7931	18019.8	17129.7
951.3546	2224.2733	17975.75	17083.15
951.4886	2225.7529	17901.15	17010.6
951.6225	2227.2317	17823.65	16928.6
951.7563	2228.7098	17798.4	16907.1
951.8902	2230.1872	17723.75	16834.15
952.024	2231.6638	17670.85	16777.8
952.1578	2233.1397	17592.55	16696.1
952.2916	2234.6149	17534.9	16643.3
952.4253	2236.0894	17470	16577.2
952.559	2237.5632	17465.9	16565.35
952.6927	2239.0362	17341.45	16448.75
952.8263	2240.5085	17270.8	16377.8
952.9599	2241.9801	17229.15	16337.45
953.0935	2243.4509	17167	16275
953.2271	2244.921	17112.7	16221.2
953.3606	2246.3904	17030.05	16135.65
953.4941	2247.8591	16952	16061.2
953.6276	2249.3271	16900.65	16007.45
953.7611	2250.7943	16853.2	15960.7
953.8945	2252.2608	16797.2	15907.35
954.0279	2253.7266	16744.05	15852.4
954.1612	2255.1917	16699.6	15807.1
954.2946	2256.656	16624.45	15729.35
954.4279	2258.1197	16585.15	15691.45
954.5612	2259.5826	16513.65	15620.1
954.6944	2261.0447	16475.25	15581.9
954.8276	2262.5062	16410.1	15517.8
954.9608	2263.9669	16392.05	15497.35
955.094	2265.4269	16354.4	15463.9
955.2271	2266.8862	16292.25	15401.8
955.3602	2268.3448	16275.85	15385.25
955.4933	2269.8026	16203	15312.05
955.6264	2271.2598	16128.6	15235.5
955.7594	2272.7162	16047.7	15156.25
955.8924	2274.1719	16015.05	15121.65
956.0253	2275.6268	15998.5	15107.05
956.1583	2277.0811	15937.05	15045.1
956.2912	2278.5346	15914.2	15022.65
956.4241	2279.9874	15867.25	14975.2
956.5569	2281.4395	15819.4	14928.25
956.6897	2282.8908	15728.2	14831.9
956.8225	2284.3414	15705.95	14811.95
956.9553	2285.7914	15671	14778.8
957.088	2287.2406	15575.5	14682.2
957.2207	2288.689	15552	14659
957.3534	2290.1368	15471.4	14578
957.486	2291.5838	15425.5	14531.25
957.6186	2293.0302	15396.55	14502.75
957.7512	2294.4758	15303.75	14409.9
957.8838	2295.9206	15263.8	14369.65
958.0163	2297.3648	15218.65	14327.4
958.1488	2298.8082	15205.6	14312.45
958.2813	2300.251	15166.25	14275.1
958.4137	2301.693	15100.05	14203.65
958.5461	2303.1343	15065.3	14171.65
958.6785	2304.5748	15050.5	14156.25
958.8108	2306.0147	14957.5	14065.7
958.9432	2307.4538	14900.7	14005.05
959.0754	2308.8922	14842.2	13952.1
959.2077	2310.3299	14798.45	13906.7
959.3399	2311.7669	14756.9	13866.1
959.4721	2313.2031	14704.3	13813.4
959.6043	2314.6387	14649.4	13754.8
959.7365	2316.0735	14589.95	13696.9
959.8686	2317.5076	14551	13658.25
960.0006	2318.941	14513.5	13623.15
960.1327	2320.3737	14434.95	13541.4
960.2647	2321.8056	14405.9	13511.9
960.3967	2323.2369	14375.3	13483.15
960.5287	2324.6674	14326.3	13431.75
960.6606	2326.0972	14255.8	13362.3
960.7925	2327.5263	14184.35	13292.85
960.9244	2328.9547	14186.95	13296.5
961.0562	2330.3823	14114.4	13220.25
961.1881	2331.8092	14112.1	13217.65
961.3198	2333.2355	14010.5	13117.85
961.4516	2334.661	14017.8	13126.15
961.5833	2336.0858	13965.05	13068.55
961.715	2337.5098	13947.05	13054.9
961.8467	2338.9332	13896.55	13003.35
961.9783	2340.3558	13794.55	12897.6
962.1099	2341.7778	13784.5	12892.1
962.2415	2343.199	13726.2	12833.5
962.373	2344.6195	13690.55	12801.4
962.5045	2346.0393	13656.7	12765.95
962.636	2347.4583	13648.7	12756.85
962.7675	2348.8767	13600.8	12706.35
962.8989	2350.2943	13537.95	12645.4
963.0303	2351.7113	13509.45	12616.35
963.1617	2353.1275	13457.55	12567.45
963.293	2354.543	13414	12496.4
963.4243	2355.9578	13350.6	12456.7
963.5556	2357.3718	13278.5	12388.95
963.6868	2358.7852	13210.3	12316.05
963.818	2360.1978	13158.3	12266.25
963.9492	2361.6098	13131.35	12238.8
964.0803	2363.021	13104.25	12209.65
964.2114	2364.4315	13051.9	12161.2
964.3425	2365.8413	12989.4	12097.6
964.4736	2367.2504	12952.25	12060.1
964.6046	2368.6587	12905.65	12015.5
964.7356	2370.0664	12812.55	11922.4
964.8666	2371.4733	12794.7	11902.55
964.9975	2372.8795	12753.75	11863.35
965.1284	2374.285	12664.6	11771.05
965.2593	2375.6899	12632.25	11742
965.3901	2377.0939	12563.6	11672
965.5209	2378.4973	12489.5	11598.6
965.6517	2379.9	12477.4	11584.35
965.7825	2381.3019	12435.15	11544.45
965.9132	2382.7032	12389.4	11500.1
966.0439	2384.1037	12361.35	11473.15
966.1745	2385.5035	12339.1	11448
966.3051	2386.9027	12273.15	11382.35
966.4357	2388.3011	12252.05	11358.8
966.5663	2389.6987	12208.6	11315.05
966.6968	2391.0957	12124.7	11235.9
966.8273	2392.492	12091.45	11200.4
966.9578	2393.8876	12013.85	11123.15
967.0882	2395.2824	11978.1	11088.5
967.2186	2396.6765	11919.7	11029.8
967.349	2398.07	11844.9	10953.7
967.4793	2399.4627	11855.75	10966.1
967.6097	2400.8547	11787.5	10897.15
967.7399	2402.246	11750.5	10852.4
967.8702	2403.6366	11669.3	10777.25
968.0004	2405.0265	11623.25	10734.3
968.1306	2406.4156	11605.5	10710.55
968.2607	2407.8041	11542.25	10648.3
968.3909	2409.1918	11516.8	10623.55
968.521	2410.5789	11442	10549.75
968.651	2411.9652	11406.05	10511.8
968.781	2413.3508	11360.2	10467.5
968.911	2414.7358	11315.9	10422.2
969.041	2416.12	11273.4	10383
969.1709	2417.5035	11258.2	10366.7
969.3008	2418.8863	11195.8	10303.8
969.4307	2420.2684	11189.4	10299.2
969.5606	2421.6497	11136.5	10243.4
969.6904	2423.0304	11055.15	10164
969.8201	2424.4104	11041.05	10148.3
969.9499	2425.7896	11009.25	10110.2
970.0796	2427.1682	10955.65	10065.8
970.2093	2428.546	10936.55	10043.2
970.3389	2429.9232	10898.5	10006.6
970.4685	2431.2996	10852.8	9962.8
970.5981	2432.6753	10858.65	9968.1
970.7277	2434.0503	10814.3	9924.1
970.8572	2435.4246	10750.8	9860
970.9867	2436.7982	10716	9821.85
971.1161	2438.1711	10675.45	9784
971.2456	2439.5433	10659.2	9766.8
971.375	2440.9148	10625.3	9731.65
971.5043	2442.2856	10558.15	9667.2
971.6336	2443.6557	10519.4	9626.15
971.7629	2445.025	10481.7	9589.45
971.8922	2446.3937	10479.4	9586.95
972.0214	2447.7617	10452.2	9560.15
972.1506	2449.1289	10418.3	9526.25
972.2798	2450.4955	10375.55	9479.15
972.4089	2451.8613	10321.15	9429.3
972.538	2453.2265	10308.6	9418
972.6671	2454.5909	10273.7	9381.35
972.7961	2455.9546	10269.65	9376.5
972.9251	2457.3177	10205.1	9314.7
973.0541	2458.68	10169.5	9276.95
973.1831	2460.0416	10167.25	9275.25
973.312	2461.4025	10128.8	9236.8
973.4408	2462.7627	10104.7	9202
973.5697	2464.1222	10071.05	9179.15
973.6985	2465.4811	10041.5	9149.5
973.8273	2466.8392	9984.15	9093.9
973.956	2468.1966	9974.35	9080.7
974.0847	2469.5533	9969.3	9075.2
974.2134	2470.9093	9933.7	9042.4
974.3421	2472.2645	9894.1	9001.3
974.4707	2473.6191	9846.75	8956.1
974.5993	2474.973	9819.35	8927.3
974.7278	2476.3262	9795.75	8902.35
974.8563	2477.6787	9755.6	8864.55
974.9848	2479.0305	9720.85	8831.6
975.1132	2480.3816	9650.15	8756.6
975.2417	2481.7319	9622.9	8730.4
975.37	2483.0816	9573.1	8679.9
975.4984	2484.4306	9556.8	8663.55
975.6267	2485.7789	9530.9	8640.95
975.755	2487.1264	9486.95	8594.4
975.8833	2488.4733	9439.55	8549.3
976.0115	2489.8195	9420.85	8522.3
976.1397	2491.165	9369.25	8473.65
976.2678	2492.5097	9359.25	8465.3
976.3959	2493.8538	9298	8405.8
976.524	2495.1972	9241.4	8349.65
976.6521	2496.5398	9220.55	8327.35
976.7801	2497.8818	9186.2	8293.85
976.9081	2499.2231	9154.4	8262.7
977.036	2500.5637	9113.6	8220.05
977.164	2501.9035	9089.25	8197.15
977.2918	2503.2427	9073.55	8175.95
977.4197	2504.5812	9024.1	8131.15
977.5475	2505.919	9002.35	8107.5
977.6753	2507.256	8982.9	8090.7
977.8031	2508.5924	8957.85	8066.7
977.9308	2509.9281	8923.95	8025.75
978.0585	2511.2631	8897.2	8004.35
978.1861	2512.5974	8874.2	7982.05
978.3137	2513.9309	8804.65	7911.75
978.4413	2515.2638	8807.05	7880.95
978.5689	2516.596	8770.25	7877.35
978.6964	2517.9275	8722.4	7830.4
978.8239	2519.2583	8703.35	7810.65
978.9513	2520.5884	8621.25	7727.4
979.0788	2521.9178	8614.85	7720.8
979.2062	2523.2465	8595.55	7703.75
979.3335	2524.5745	8568.55	7675.85
979.4608	2525.9018	8530.4	7638
979.5881	2527.2284	8497.95	7609.5
979.7154	2528.5543	8478.8	7589.75
979.8426	2529.8796	8440.55	7548.35
979.9698	2531.2041	8452.65	7559.95
980.0969	2532.5279	8438.8	7547.45
980.224	2533.851	8417.5	7526.2
980.3511	2535.1735	8360.65	7468.55
980.4781	2536.4952	8345.75	7453.85
980.6052	2537.8163	8333.6	7440.1
980.7321	2539.1366	8302.45	7411.3
980.8591	2540.4562	8256.75	7364.3
980.986	2541.7752	8249.05	7357.3
981.1129	2543.0935	8235.85	7346.3
981.2397	2544.411	8207.05	7314.75
981.3665	2545.7279	8202.9	7309.65
981.4933	2547.0441	8167.25	7275.65
981.62	2548.3596	8154.6	7260.2
981.7467	2549.6744	8134.55	7241.9
981.8734	2550.9885	8112.15	7217.95
982.0001	2552.3019	8096.55	7206.2
982.1267	2553.6146	8067.8	7176.95
982.2532	2554.9266	8022.25	7131.8
982.3798	2556.2379	8016.15	7123.6
982.5063	2557.5485	8008.05	7115.1
982.6327	2558.8585	7980.3	7080.3
982.7592	2560.1677	7973.25	7076.05
982.8856	2561.4762	7932.2	7039.45
983.0119	2562.7841	7936.05	7040.95
983.1383	2564.0913	7890.8	7001.1
983.2646	2565.3977	7884.8	6994.2
983.3908	2566.7035	7844.2	6951.6
983.517	2568.0086	7828.85	6935
983.6432	2569.313	7799.3	6906.6
983.7694	2570.6167	7802.2	6906.4
983.8955	2571.9197	7774.45	6883.1
984.0216	2573.222	7764.25	6868.95
984.1476	2574.5236	7760.9	6868
984.2737	2575.8246	7720.15	6826.95
984.3996	2577.1248	7706.6	6811.75
984.5256	2578.4244	7685.4	6794.55
984.6515	2579.7232	7686.75	6794.35
984.7774	2581.0214	7699.6	6766.7
984.9032	2582.3189	7682.35	6790.15
985.029	2583.6157	7642.75	6747.75
985.1548	2584.9118	7631.85	6738.45
985.2806	2586.2072	7594.45	6701.05
985.4063	2587.5019	7554.35	6662.25
985.5319	2588.7959	7563	6670.85
985.6576	2590.0893	7537.25	6643.55
985.7832	2591.3819	7514.8	6624.85
985.9087	2592.6739	7468.65	6577.35
986.0343	2593.9652	7461.45	6568.85
986.1597	2595.2557	7440.8	6548.8
986.2852	2596.5456	7412.75	6517.7
986.4106	2597.8348	7377.75	6484.75
986.536	2599.1234	7350.5	6459.35
986.6614	2600.4112	7360.5	6468.75
986.7867	2601.6983	7308	6411.65
986.912	2602.9848	7303	6411.55
987.0372	2604.2705	7261.2	6359.7
987.1624	2605.5556	7237.45	6343.05
987.2876	2606.84	7218.35	6326.15
987.4128	2608.1237	7181.7	6290.8
987.5379	2609.4067	7157.9	6266.5
987.6629	2610.689	7148.9	6248.7
987.788	2611.9707	7106.35	6209.4
987.913	2613.2516	7085.25	6187.05
988.0379	2614.5319	7031.55	6142.2
988.1629	2615.8115	7027.05	6135.4
988.2878	2617.0903	6984.95	6090.3
988.4126	2618.3685	6966.1	6074.15
988.5375	2619.6461	6958.25	6066.5
988.6622	2620.9229	6926.3	6034.8
988.787	2622.199	6907.7	6016.05
988.9117	2623.4745	6886.75	5993.6
989.0364	2624.7493	6864.2	5972.7
989.161	2626.0234	6838.6	5945.35
989.2857	2627.2968	6822.95	5929.75
989.4102	2628.5695	6789.8	5895.7
989.5348	2629.8415	6760.8	5870.3
989.6593	2631.1128	6723.9	5829.8
989.7837	2632.3835	6709.2	5817.9
989.9082	2633.6535	6702.5	5811.3
990.0326	2634.9228	6649.3	5758.45
990.1569	2636.1914	6668	5775.5
990.2812	2637.4593	6625.85	5728.9
990.4055	2638.7265	6611.7	5717.65
990.5298	2639.9931	6585.45	5695.6
990.654	2641.259	6532.5	5639.65
990.7782	2642.5242	6535.95	5642.9
990.9023	2643.7887	6520.1	5627.6
991.0264	2645.0525	6502.95	5608.5
991.1505	2646.3156	6487.4	5594.75
991.2745	2647.5781	6463.45	5572.35
991.3985	2648.8398	6432.35	5542.95
991.5225	2650.1009	6410.65	5510.45
991.6464	2651.3613	6373.35	5480.85
991.7703	2652.6211	6369.9	5477.15
991.8942	2653.8801	6340	5448.45
992.018	2655.1385	6344.05	5448.9
992.1418	2656.3961	6325.8	5435.4
992.2655	2657.6531	6321.35	5430.1
992.3892	2658.9094	6292.65	5401.8
992.5129	2660.1651	6274.2	5382.2
992.6366	2661.42	6257.85	5365.4
992.7602	2662.6743	6252.55	5360.25
992.8837	2663.9279	6209	5315.55
993.0073	2665.1808	6204.6	5310.85
993.1307	2666.433	6181.95	5287.65
993.2542	2667.6846	6176.55	5284.8
993.3776	2668.9354	6180.7	5286.55
993.501	2670.1856	6133.85	5240.5
993.6244	2671.4351	6125.9	5235.35
993.7477	2672.6839	6130.4	5236.25
993.8709	2673.9321	6100.1	5206.1
993.9942	2675.1795	6074.8	5185.05
994.1174	2676.4263	6057.1	5165.85
994.2405	2677.6724	6046.05	5154.35
994.3637	2678.9179	6042.45	5149.35
994.4868	2680.1626	6006.45	5114.9
994.6098	2681.4067	5999.55	5107.2
994.7328	2682.6501	5994.3	5102.65
994.8558	2683.8928	5957.3	5064.2
994.9788	2685.1348	5943.55	5052.1
995.1017	2686.3761	5897.7	5007.15
995.2245	2687.6168	5891.8	5000.65
995.3474	2688.8568	5883.5	4991.85
995.4702	2690.0961	5854.05	4962.75
995.5929	2691.3348	5854.7	4962.2
995.7156	2692.5727	5832	4940.2
995.8383	2693.81	5798.05	4907.45
995.961	2695.0466	5775	4883.55
996.0836	2696.2826	5766.6	4873.95
996.2062	2697.5178	5746.95	4854.4
996.3287	2698.7524	5702.95	4811.7
996.4512	2699.9863	5720.05	4826.75
996.5737	2701.2195	5687.5	4794.8
996.6961	2702.452	5680.05	4787.7
996.8185	2703.6839	5688.5	4795.35
996.9408	2704.9151	5667.25	4776.65
997.0631	2706.1456	5640.75	4748.55
997.1854	2707.3755	5627.5	4734.05
997.3077	2708.6046	5615.85	4722.25
997.4299	2709.8331	5577.9	4685.05
997.552	2711.0609	5594.3	4701.6
997.6742	2712.2881	5583.7	4691.3
997.7963	2713.5145	5577.7	4682.1
997.9183	2714.7403	5556.9	4666.9
998.0403	2715.9654	5535.45	4644.1
998.1623	2717.1899	5566	4656.95
998.2842	2718.4136	5533.8	4642.4
998.4062	2719.6367	5521	4628.2
998.528	2720.8591	5515.9	4617.5
998.6498	2722.0809	5506.65	4615.7
998.7716	2723.3019	5505.8	4610.3
998.8934	2724.5223	5492.6	4599.5
999.0151	2725.7421	5490.8	4597.75
999.1368	2726.9611	5474.75	4579.8
999.2584	2728.1795	5449.9	4552.25
999.38	2729.3972	5424.95	4533.5
999.5016	2730.6142	5393.45	4494.4
999.6231	2731.8306	5347	4454.6
999.7446	2733.0462	5330.55	4435.4
999.8661	2734.2612	5306.85	4411.35
999.9875	2735.4756	5266.9	4373.4
1000.1089	2736.6892	5242.2	4348.35
1000.2302	2737.9022	5197.8	4307.4
1000.3515	2739.1145	5155.55	4263
1000.4728	2740.3262	5156.35	4256.2
1000.594	2741.5372	5114.55	4223.1
1000.7152	2742.7475	5082.75	4190.6
1000.8363	2743.9571	5069.45	4177.65
1000.9575	2745.1661	5033.2	4135.9
1001.0785	2746.3744	4999.1	4106.65
1001.1996	2747.582	4991.3	4099.2
1001.3206	2748.7889	4979.6	4085.2
1001.4415	2749.9952	4966	4076.05
1001.5625	2751.2008	4940.85	4047.15
1001.6833	2752.4057	4941.55	4046.95
1001.8042	2753.61	4909.95	4015.5
1001.925	2754.8136	4896.9	4002.5
1002.0458	2756.0165	4864.45	3971.75
1002.1665	2757.2188	4849.2	3956.9
1002.2872	2758.4204	4844.3	3951.2
1002.4078	2759.6213	4817.25	3923.5
1002.5285	2760.8215	4813.45	3918.15
1002.649	2762.0211	4802.15	3910.2
1002.7696	2763.22	4775.35	3879.6
1002.8901	2764.4182	4748.5	3854.25
1003.0106	2765.6158	4763.75	3871.55
1003.131	2766.8127	4727.85	3836.6
1003.2514	2768.009	4705.85	3814.95
1003.3717	2769.2045	4695.1	3800.9
1003.492	2770.3994	4701.1	3807.65
1003.6123	2771.5936	4669.3	3775.3
1003.7325	2772.7872	4655.45	3763.9
1003.8527	2773.9801	4623.85	3731
1003.9729	2775.1723	4633.8	3724.45
1004.093	2776.3639	4599.1	3707.55
1004.2131	2777.5548	4587.75	3694.3
1004.3331	2778.745	4580.4	3686.8
1004.4531	2779.9346	4563.3	3672.05
1004.5731	2781.1235	4554.2	3658.6
1004.693	2782.3117	4552.9	3661.75
1004.8129	2783.4992	4528.15	3638.6
1004.9328	2784.6861	4540.3	3649.8
1005.0526	2785.8723	4515.7	3623.65
1005.1723	2787.0579	4505.05	3612.3
1005.2921	2788.2428	4507.7	3615.55
1005.4118	2789.427	4506.2	3615.35
1005.5314	2790.6106	4503.25	3611.2
1005.651	2791.7935	4478.05	3585.9
1005.7706	2792.9757	4476.2	3584.85
1005.8902	2794.1573	4486.7	3592.4
1006.0097	2795.3382	4476.8	3584.15
1006.1291	2796.5184	4490.8	3597.9
1006.2485	2797.698	4483.6	3591.25
1006.3679	2798.8769	4485.35	3592.8
1006.4873	2800.0551	4489.75	3597.4
1006.6066	2801.2327	4502.9	3608.6
1006.7258	2802.4096	4491.2	3597.65
1006.8451	2803.5859	4505.1	3614.55
1006.9642	2804.7615	4499	3607.7
1007.0834	2805.9364	4527.15	3635.85
1007.2025	2807.1106	4521.15	3631.2
1007.3216	2808.2842	4554.85	3660.9
1007.4406	2809.4572	4575.05	3685.05
1007.5596	2810.6294	4596.5	3703.1
1007.6785	2811.801	4636.1	3746.5
1007.7975	2812.972	4660.25	3771.2
1007.9163	2814.1423	4688.2	3797.65
1008.0352	2815.3119	4725.5	3832.25
1008.154	2816.4808	4770.55	3880
1008.2727	2817.6491	4801.65	3908.85
1008.3914	2818.8167	4834.05	3945.3
1008.5101	2819.9837	4878	3982.1
1008.6288	2821.15	4910.8	4018.1
1008.7474	2822.3157	4948.65	4058.15
1008.8659	2823.4807	4979.3	4086.2
1008.9844	2824.645	5026.55	4132.7
1009.1029	2825.8086	5054.35	4163.1
1009.2214	2826.9716	5086.35	4193.7
1009.3398	2828.134	5124.7	4233.35
1009.4581	2829.2957	5142.85	4250.9
1009.5764	2830.4567	5134.35	4244.1
1009.6947	2831.617	5179.2	4286.8
1009.813	2832.7767	5186.7	4294.65
1009.9312	2833.9358	5149.95	4257.85
1010.0493	2835.0941	5152.8	4258
1010.1675	2836.2519	5138.2	4246.5
1010.2855	2837.4089	5112.15	4219.35
1010.4036	2838.5653	5103.95	4214.2
1010.5216	2839.7211	5090.45	4202.95
1010.6396	2840.8761	5097.8	4203.35
1010.7575	2842.0306	5127.8	4237.45
1010.8754	2843.1843	5133.25	4242.8
1010.9932	2844.3374	5185.95	4292.85
1011.111	2845.4899	5226.9	4336
1011.2288	2846.6417	5290.6	4399.55
1011.3465	2847.7928	5368.9	4477.3
1011.4642	2848.9433	5443.8	4554
1011.5818	2850.0931	5492.3	4603.6
1011.6995	2851.2422	5558.25	4667.2
1011.817	2852.3907	5643.1	4751.95
1011.9345	2853.5385	5699.3	4806.7
1012.052	2854.6857	5746.35	4827.8
1012.1695	2855.8323	5777.6	4885.75
1012.2869	2856.9781	5830.55	4942.2
1012.4042	2858.1233	5863.2	4973.1
1012.5216	2859.2679	5895.6	5003.75
1012.6389	2860.4118	5930.55	5038.7
1012.7561	2861.555	5951.7	5054.95
1012.8733	2862.6976	5982.05	5088.55
1012.9905	2863.8395	6001.65	5110.55
1013.1076	2864.9808	6030.15	5138.6
1013.2247	2866.1214	6023	5133.2
1013.3417	2867.2614	6030.65	5137.8
1013.4587	2868.4007	6025.75	5133
1013.5757	2869.5393	6049.45	5154.7
1013.6926	2870.6773	6035.95	5142.2
1013.8095	2871.8146	6061.5	5167.15
1013.9263	2872.9513	6039.75	5144.45
1014.0431	2874.0874	6013.35	5122.55
1014.1599	2875.2227	5993.5	5101.9
1014.2766	2876.3574	5958.3	5066.55
1014.3933	2877.4915	5936.1	5047.25
1014.51	2878.6249	5894.25	5002.65
1014.6266	2879.7577	5863.8	4971.9
1014.7431	2880.8898	5840.1	4939.1
1014.8596	2882.0212	5806.8	4914.9
1014.9761	2883.152	5787	4896.35
1015.0925	2884.2821	5751.75	4861.2
1015.2089	2885.4116	5723.6	4832.8
1015.3253	2886.5405	5720.55	4829.2
1015.4416	2887.6686	5734.25	4838.65
1015.5579	2888.7962	5722.2	4833.75
1015.6741	2889.923	5711.6	4820.9
1015.7903	2891.0493	5725.65	4835.45
1015.9065	2892.1748	5718.25	4827.25
1016.0226	2893.2997	5718.5	4827.6
1016.1387	2894.424	5732.9	4843.85
1016.2547	2895.5476	5741.6	4849.75
1016.3707	2896.6706	5737.1	4848
1016.4866	2897.7929	5756.1	4864.8
1016.6025	2898.9145	5767.1	4874.65
1016.7184	2900.0355	5796.85	4905.65
1016.8342	2901.1559	5829.05	4937.35
1016.95	2902.2756	5850.95	4960.6
1017.0658	2903.3946	5870.8	4981
1017.1815	2904.513	5901.3	5008.4
1017.2971	2905.6308	5903.75	5013.3
1017.4127	2906.7479	5933.75	5041.25
1017.5283	2907.8643	5959.1	5069.5
1017.6439	2908.9801	5945.7	5053.7
1017.7594	2910.0953	5933.85	5041.9
1017.8748	2911.2098	5928.6	5033.65
1017.9902	2912.3236	5922.55	5023.15
1018.1056	2913.4368	5861.2	4966
1018.2209	2914.5494	5874.4	4984.3
1018.3362	2915.6613	5831.35	4936.7
1018.4515	2916.7725	5796.4	4901.9
1018.5667	2917.8831	5761	4869.2
1018.6819	2918.9931	5723.2	4830
1018.797	2920.1024	5693.6	4799.6
1018.9121	2921.211	5652.35	4759.9
1019.0271	2922.319	5635.05	4743.45
1019.1421	2923.4264	5608.1	4717.2
1019.2571	2924.5331	5590.25	4700.8
1019.372	2925.6391	5538.2	4646.6
1019.4869	2926.7445	5553.7	4665.35
1019.6017	2927.8493	5526.1	4633.8
1019.7165	2928.9534	5517.7	4624.25
1019.8313	2930.0569	5509.05	4614.6
1019.946	2931.1597	5467.55	4575.45
1020.0606	2932.2619	5475.6	4582.9
1020.1753	2933.3634	5446.15	4557.35
1020.2899	2934.4643	5447.5	4549.05
1020.4044	2935.5645	5407.15	4510.4
1020.5189	2936.6641	5370.85	4478.15
1020.6334	2937.763	5309.75	4419.2
1020.7478	2938.8613	5268.35	4376.5
1020.8622	2939.959	5200.45	4302.3
1020.9765	2941.056	5112.35	4221.3
1021.0908	2942.1523	5022.1	4127.85
1021.2051	2943.248	4939.15	4045.6
1021.3193	2944.3431	4816.15	3925.7
1021.4334	2945.4375	4706	3815.7
1021.5476	2946.5313	4585.7	3694.85
1021.6617	2947.6244	4479.7	3588.1
1021.7757	2948.7169	4388.1	3495.95
1021.8897	2949.8087	4267.65	3374.15
1022.0037	2950.8999	4161.2	3268.9
1022.1176	2951.9904	4074.1	3183.25
1022.2315	2953.0803	3993.1	3103.2
1022.3453	2954.1696	3915.7	3024.4
1022.4591	2955.2582	3869.5	2979
1022.5728	2956.3462	3796.05	2903.95
1022.6865	2957.4335	3766.35	2874.6
1022.8002	2958.5202	3718.55	2824.8
1022.9138	2959.6062	3674.3	2783.7
1023.0274	2960.6916	3659	2768.3
1023.141	2961.7764	3627.35	2737.35
1023.2545	2962.8605	3595.55	2703.7
1023.3679	2963.9439	3581.8	2691.35
1023.4813	2965.0267	3563.3	2670.35
1023.5947	2966.1089	3570.65	2657.45
1023.708	2967.1905	3534.35	2643.35
1023.8213	2968.2714	3514.05	2621.85
1023.9346	2969.3516	3490.1	2599.95
1024.0478	2970.4312	3519	2620.6
1024.1609	2971.5102	3497.6	2605.15
1024.274	2972.5885	3484.05	2594.75
1024.3871	2973.6662	3469.7	2573.6
1024.5002	2974.7432	3476	2585.4
1024.6132	2975.8196	3473.2	2582.85
1024.7261	2976.8954	3444.4	2555.3
1024.839	2977.9705	3423.65	2533.25
1024.9519	2979.045	3394.15	2501.7
1025.0647	2980.1188	3376.45	2485.6
1025.1775	2981.192	3359.8	2467.7
1025.2902	2982.2645	3334	2442.5
1025.4029	2983.3364	3295.05	2405.65
1025.5156	2984.4077	3253.3	2362.6
1025.6282	2985.4783	3236.4	2339.15
1025.7407	2986.5483	3204.6	2314.5
1025.8532	2987.6177	3156.7	2267.5
1025.9657	2988.6864	3121.05	2232.4
1026.0782	2989.7545	3081.35	2189.4
1026.1906	2990.8219	3033.45	2143.75
1026.3029	2991.8887	2996.25	2102.3
1026.4152	2992.9548	2967.45	2075.15
1026.5275	2994.0204	2924.05	2033.35
1026.6397	2995.0852	2887.9	1997.35
1026.7519	2996.1495	2873.9	1981.55
1026.864	2997.2131	2831.65	1941.2
1026.9761	2998.276	2799.25	1908.5
1027.0882	2999.3383	2780.55	1890.75
1027.2002	3000.4	2750.6	1858.45
1027.3122	3001.4611	2734.8	1843.4
1027.4241	3002.5215	2721.6	1830.25
1027.536	3003.5812	2695	1804.8
1027.6478	3004.6404	2677.75	1788.45
1027.7596	3005.6989	2662.75	1771.6
1027.8714	3006.7567	2647.1	1756.35
1027.9831	3007.8139	2653	1741
1028.0947	3008.8705	2615.6	1725.05
1028.2064	3009.9264	2613.35	1719.15
1028.3179	3010.9818	2606.15	1714.7
1028.4295	3012.0364	2595.45	1703.55
1028.541	3013.0905	2592.15	1702.5
1028.6524	3014.1439	2586.35	1695.85
1028.7638	3015.1966	2569.4	1678.75
1028.8752	3016.2487	2569.5	1679.25
1028.9865	3017.3002	2570.7	1673.5
1029.0978	3018.3511	2558.4	1667.65
1029.209	3019.4013	2551.75	1660.1
1029.3202	3020.4509	2551.85	1663.55
1029.4314	3021.4998	2551.2	1660.9
1029.5425	3022.5481	2534.7	1642.95
1029.6535	3023.5958	2546.55	1658.7
1029.7645	3024.6428	2531.85	1637.95
1029.8755	3025.6892	2519.2	1628.35
1029.9864	3026.735	2518.25	1627
1030.0973	3027.7802	2525.15	1634.15
1030.2082	3028.8247	2515.05	1626.15
1030.319	3029.8685	2515.5	1622.9
1030.4297	3030.9118	2511.9	1621.5
1030.5404	3031.9544	2505.65	1613.9
1030.6511	3032.9963	2515.75	1622.8
1030.7617	3034.0376	2508.25	1619.35
1030.8723	3035.0783	2510	1615.85
1030.9829	3036.1184	2511.7	1621.05
1031.0934	3037.1578	2508.55	1619.9
1031.2038	3038.1966	2509	1616.2
1031.3142	3039.2348	2493.8	1604.7
1031.4246	3040.2723	2503.4	1601.1
1031.5349	3041.3092	2498.15	1608
1031.6452	3042.3455	2479.15	1587.75
1031.7554	3043.3811	2478.6	1587.55
1031.8656	3044.4161	2455	1563.85
1031.9758	3045.4505	2448.6	1558.3
1032.0859	3046.4842	2445.65	1554.65
1032.1959	3047.5173	2436.8	1547.15
1032.3059	3048.5498	2417.75	1525.45
1032.4159	3049.5816	2415.45	1523.95
1032.5258	3050.6128	2401.8	1508.4
1032.6357	3051.6434	2389.45	1496.7
1032.7455	3052.6734	2379.1	1487.7
1032.8553	3053.7027	2373.95	1481.2
1032.9651	3054.7314	2359.25	1469.3
1033.0748	3055.7594	2345.35	1455
1033.1845	3056.7868	2330	1438.4
1033.2941	3057.8136	2321.95	1430.1
1033.4037	3058.8398	2318.8	1428.2
1033.5132	3059.8653	2309.6	1419.25
1033.6227	3060.8902	2294.65	1403.4
1033.7321	3061.9145	2290.2	1400.1
1033.8415	3062.9381	2275.85	1385.5
1033.9509	3063.9612	2287.35	1378.35
1034.0602	3064.9835	2259.15	1370.1
1034.1694	3066.0053	2238.5	1345.5
1034.2787	3067.0264	2228.7	1339.05
1034.3878	3068.0469	2221.65	1329.65
1034.497	3069.0668	2223.8	1330.4
1034.6061	3070.086	2207.9	1320.6
1034.7151	3071.1046	2187.05	1295.5
1034.8241	3072.1226	2180.2	1287.5
1034.9331	3073.1399	2159.45	1269.9
1035.042	3074.1567	2156.75	1264.65
1035.1508	3075.1727	2143.05	1251.1
1035.2597	3076.1882	2124.35	1234
1035.3684	3077.203	2118.85	1228
1035.4772	3078.2173	2107.5	1215.9
1035.5859	3079.2308	2091.55	1197.35
1035.6945	3080.2438	2080.65	1188.75
1035.8031	3081.2561	2063.25	1172.15
1035.9117	3082.2678	2045.9	1154.6
1036.0202	3083.2789	2043.5	1155
1036.1286	3084.2893	2038.95	1149.1
1036.2371	3085.2991	2019.55	1128.65
1036.3454	3086.3083	2020.2	1127.8
1036.4538	3087.3169	2012.25	1119.55
1036.562	3088.3248	2001.4	1108.6
1036.6703	3089.3321	1997.8	1105.95
1036.7785	3090.3388	1972.8	1083.75
1036.8866	3091.3449	1968.9	1079.55
1036.9948	3092.3503	1960.8	1068.4
1037.1028	3093.3551	1956.95	1067.5
1037.2108	3094.3593	1953.65	1063.25
1037.3188	3095.3629	1955.5	1065.9
1037.4267	3096.3658	1939.5	1046.75
1037.5346	3097.3681	1926.85	1036.2
1037.6425	3098.3698	1922.9	1032.45
1037.7503	3099.3708	1914.75	1018.65
1037.858	3100.3713	1896.35	1006.75
1037.9657	3101.3711	1907.7	1018.9
1038.0734	3102.3702	2005.55	997.45
1038.181	3103.3688	1897.1	1005.15
1038.2886	3104.3667	1883.4	993.6
1038.3961	3105.364	1877.9	989.45
1038.5036	3106.3607	1879.25	989.9
1038.611	3107.3568	1861.1	969.25
1038.7184	3108.3522	1862.9	972.6
1038.8257	3109.347	1862.25	970.1
1038.933	3110.3412	1860.4	963.45
1039.0403	3111.3348	1832.55	941.45
1039.1475	3112.3277	1832.4	940.7
1039.2547	3113.32	1818.15	927.65
1039.3618	3114.3117	1820.4	929.75
1039.4689	3115.3028	1826.3	935.7
1039.5759	3116.2932	1809.9	916.95
1039.6829	3117.2831	1812.45	915.9
1039.7898	3118.2723	1799.6	910.5
1039.8967	3119.2608	1793.05	903.25
1040.0035	3120.2488	1802.7	910.8
1040.1103	3121.2361	1782.6	891.9
1040.2171	3122.2229	1776.75	886.05
1040.3238	3123.209	1772.95	882
1040.4305	3124.1944	1773.75	881.85
1040.5371	3125.1793	1768.45	876.1
1040.6437	3126.1635	1760.15	870.3
1040.7502	3127.1471	1748.05	857.3
1040.8567	3128.1301	1750.85	862.15
1040.9631	3129.1125	1736.2	847.9
1041.0695	3130.0942	1737.35	843.95
1041.1759	3131.0753	1741.85	844.2
1041.2822	3132.0558	1733.05	838.35
1041.3884	3133.0357	1727.95	836.8
1041.4946	3134.015	1716.55	827.7
1041.6008	3134.9936	1726.2	835.25
1041.7069	3135.9716	1731.05	823.15
1041.813	3136.949	1719.45	830.8
1041.919	3137.9258	1716.9	821.7
1042.025	3138.902	1708.35	813.75
1042.1309	3139.8775	1710.45	817.55
1042.2368	3140.8524	1686.75	795.5
1042.3427	3141.8267	1691.4	801.05
1042.4485	3142.8004	1690.4	798.6
1042.5542	3143.7735	1695.75	799.85
1042.6599	3144.7459	1687.35	795.35
1042.7656	3145.7178	1687.5	796.6
1042.8712	3146.689	1678.35	788.7
1042.9768	3147.6596	1662.1	770.15
1043.0823	3148.6295	1664.8	775.9
1043.1878	3149.5989	1662	771
1043.2932	3150.5676	1646.1	757.05
1043.3986	3151.5357	1648.75	759.5
1043.5039	3152.5032	1644.7	754.95
1043.6092	3153.4701	1638.1	747.3
1043.7145	3154.4364	1639.95	745.45
1043.8197	3155.402	1638.65	748.9
1043.9248	3156.367	1629.15	737.55
1044.03	3157.3315	1666.1	731.15
1044.135	3158.2952	1618.1	727.3
1044.24	3159.2584	1623.55	733.55
1044.345	3160.221	1617.85	726.05
1044.4499	3161.1829	1609.55	720.05
1044.5548	3162.1442	1603	712.35
1044.6596	3163.105	1606.45	716.05
1044.7644	3164.065	1598.4	707.8
1044.8692	3165.0245	1595.95	704.9
1044.9739	3165.9834	1579.05	691.95
1045.0785	3166.9416	1578.2	688.5
1045.1831	3167.8993	1581	690.65
1045.2877	3168.8563	1572.75	682.35
1045.3922	3169.8127	1578.1	687.35
1045.4966	3170.7684	1567.6	678.25
1045.6011	3171.7236	1562.65	669.05
1045.7054	3172.6782	1561.7	671.9
1045.8098	3173.6321	1558.05	668.25
1045.914	3174.5854	1559	666.1
1046.0183	3175.5381	1554.05	664.7
1046.1224	3176.4902	1541.4	650.8
1046.2266	3177.4417	1543.3	654.6
1046.3307	3178.3926	1534.95	644.75
1046.4347	3179.3428	1530.45	640.95
1046.5387	3180.2924	1523.4	635.05
1046.6427	3181.2415	1530.1	639.5
1046.7466	3182.1899	1521.65	630
1046.8504	3183.1377	1521.2	632.25
1046.9542	3184.0848	1517.6	624.85
1047.058	3185.0314	1516.8	627.2
1047.1617	3185.9773	1505.4	614.65
1047.2654	3186.9227	1506.8	615.75
1047.369	3187.8674	1500.2	610.2
1047.4726	3188.8115	1499.15	604.9
1047.5761	3189.755	1497.6	608.85
1047.6796	3190.6979	1494.35	604.95
1047.783	3191.6402	1490.1	600.8
1047.8864	3192.5818	1495	606.6
1047.9898	3193.5229	1511	595.7
1048.0931	3194.4633	1480.3	588.95
1048.1963	3195.4031	1480.5	589.5
1048.2995	3196.3423	1472.65	582.6
1048.4027	3197.2809	1472.45	583.25
1048.5058	3198.2189	1471.55	578
1048.6089	3199.1563	1468.3	572.55
1048.7119	3200.0931	1464.65	575.2
1048.8148	3201.0292	1453.6	565.85
1048.9178	3201.9648	1462.15	574
1049.0206	3202.8997	1453.65	559.65
1049.1235	3203.834	1447.65	557.6
1049.2262	3204.7677	1446.25	556.8
1049.329	3205.7008	1446.1	553.1
1049.4317	3206.6333	1436.65	548.55
1049.5343	3207.5652	1438.45	545.75
1049.6369	3208.4964	1441.25	552.85
1049.7394	3209.4271	1431.4	544.05
1049.8419	3210.3571	1437.25	548.7
1049.9444	3211.2865	1426.5	536.1
1050.0468	3212.2154	1425.05	533.35
1050.1491	3213.1436	1424.9	532.8
1050.2514	3214.0712	1430.75	533.55
1050.3537	3214.9982	1421.8	530.9
1050.4559	3215.9246	1418.95	529.15
1050.5581	3216.8503	1417.8	529.25
1050.6602	3217.7755	1411.1	521.9
1050.7623	3218.7001	1413.2	525.4
1050.8643	3219.624	1404.5	513.85
1050.9663	3220.5473	1400.95	511.6
1051.0682	3221.4701	1402.9	510.15
1051.1701	3222.3922	1400.3	508.9
1051.2719	3223.3137	1396.45	507.7
1051.3737	3224.2346	1395.6	505.8
1051.4754	3225.1549	1389.95	501.3
1051.5771	3226.0746	1391.75	502.2
1051.6788	3226.9937	1383.8	493.05
1051.7804	3227.9121	1376.55	486.45
1051.8819	3228.83	1378.55	488.1
1051.9834	3229.7473	1380.3	491.25
1052.0849	3230.6639	1371.3	480.55
1052.1863	3231.5799	1370.95	481.15
1052.2876	3232.4954	1369.05	479.9
1052.3889	3233.4102	1364.7	473.45
1052.4902	3234.3244	1358.55	468.8
1052.5914	3235.238	1359.2	468.7
1052.6926	3236.151	1382.8	468.95
1052.7937	3237.0634	1358.75	469.15
1052.8948	3237.9752	1353.2	463.55
1052.9958	3238.8864	1351.5	463.5
1053.0968	3239.797	1353.85	463.3
1053.1977	3240.7069	1341.45	449.35
1053.2986	3241.6163	1341.65	451.8
1053.3994	3242.5251	1338.75	447.85
1053.5002	3243.4332	1336.75	447.8
1053.6009	3244.3408	1335.95	445.15
1053.7016	3245.2477	1330.15	441.3
1053.8022	3246.154	1328.2	438.25
1053.9028	3247.0598	1322.7	429.55
1054.0034	3247.9649	1319	429.05
1054.1039	3248.8694	1323.4	433.4
1054.2043	3249.7733	1320.6	430.65
1054.3047	3250.6766	1310.9	421.6
1054.4051	3251.5793	1314.6	423.95
1054.5054	3252.4814	1310.35	422.3
1054.6056	3253.3829	1301.4	412.5
1054.7058	3254.2838	1305.95	417.8
1054.806	3255.1841	1304.75	415.3
1054.9061	3256.0838	1302.4	410.45
1055.0061	3256.9829	1296.1	406.95
1055.1062	3257.8814	1295.4	402.9
1055.2061	3258.7792	1286	394.8
1055.306	3259.6765	1285.1	395.2
1055.4059	3260.5731	1280.25	390.65
1055.5057	3261.4692	1268.45	377.85
1055.6055	3262.3647	1272.3	382.65
1055.7052	3263.2595	1260.15	371.65
1055.8049	3264.1538	1260	371.55
1055.9045	3265.0474	1257	367.9
1056.0041	3265.9404	1242.75	354.4
1056.1036	3266.8329	1246.1	358.05
1056.2031	3267.7247	1242.2	341.65
1056.3025	3268.616	1221.35	333.4
1056.4019	3269.5066	1225.2	335.55
1056.5013	3270.3966	1213.05	319.95
1056.6005	3271.286	1202.7	315.85
