Software Version:	3.9.2.0
Unit SN:	10000200
Spectrometer SN:	6960
Date:	3/6/2024 9:26:25 AM
Data Line Index:	25
Spectral Points:	2048
Integration time (ms):	125
Averages:	20
Delay (ms):	30
Sequence Number:	1
Processing:	dark subtract
Laser Power (mW):	305
Laser Current (mA):	819
Laser Diode Temp (C):	25
Laser Case Temp (C):	22.9
System Temp (C):	22.7
Spectrometer Temp (C):	20.7
CCD Temp (C):	-0.044
Secondary Temp (C):	20.008
Heatsink Temp (C):	17.513
CCDPCB Temp (C):	29.471
SecondaryPCB Temp (C):	25.058

Wavelength	RamanShift	Raw Counts	Dark Subtracted
787.061	30.1047	593.85	185.15
787.2016	32.3739	600.15	192.75
787.3422	34.6426	612.9	206.05
787.4828	36.9109	621.95	213.1
787.6235	39.1787	644.15	232.85
787.7642	41.4461	658.95	241.35
787.9049	43.7131	677.75	258.9
788.0456	45.9796	693.35	272.2
788.1863	48.2456	713.35	288.65
788.3271	50.5112	730.55	300.05
788.4679	52.7764	749.55	316.45
788.6087	55.0411	771.1	331.95
788.7496	57.3054	800.6	359.05
788.8904	59.5692	826	381.6
789.0313	61.8326	850.15	405.5
789.1722	64.0955	887.2	438.8
789.3132	66.3579	917.55	462.75
789.4541	68.6199	969.35	512.3
789.5951	70.8815	1047.2	585.75
789.7361	73.1426	1222.9	756.6
789.8771	75.4032	1673.3	1204.4
790.0181	77.6634	2753.85	2282.1
790.1592	79.9231	5420.9	4946.05
790.3003	82.1824	11309.15	10830.05
790.4414	84.4412	21772.45	21286.65
790.5825	86.6995	38562.6	38072.3
790.7237	88.9574	51307.05	50810.6
790.8648	91.2148	59388.05	58887.25
791.006	93.4717	61388.65	60886.5
791.1472	95.7282	62555.45	62049.7
791.2885	97.9842	63321.9	62814.2
791.4297	100.2398	63266	62755.8
791.571	102.4949	63569.4	63055.75
791.7123	104.7495	63594.85	63076.7
791.8536	107.0036	63543.25	63026.15
791.9949	109.2573	64057.5	63541.2
792.1363	111.5105	63936.3	63417.75
792.2777	113.7632	64010.8	63489.1
792.4191	116.0154	64328.75	63795.35
792.5605	118.2672	64613.8	64089.05
792.7019	120.5185	64676.15	64147.1
792.8434	122.7693	64712.95	64182.1
792.9849	125.0197	64377.7	63839.15
793.1264	127.2696	65097.9	64558.05
793.2679	129.519	64926.15	64385.6
793.4094	131.7679	65223.15	64677.85
793.551	134.0163	64793	64244.8
793.6926	136.2642	65038.55	64486.35
793.8342	138.5117	65312.75	64760.75
793.9758	140.7587	65260.1	64707.65
794.1175	143.0052	65249.95	64692.85
794.2591	145.2512	65053.35	64496.55
794.4008	147.4967	65336.35	64775.35
794.5425	149.7417	65320.95	64757.7
794.6842	151.9863	65305.95	64737.05
794.826	154.2304	65250.6	64678.65
794.9677	156.4739	65287.75	64711.1
795.1095	158.717	65465.85	64890.95
795.2513	160.9596	65415.55	64835.35
795.3931	163.2017	65283.6	64700.2
795.535	165.4433	65459.7	64874.95
795.6768	167.6844	65406.65	64820.6
795.8187	169.925	65473.2	64882.2
795.9606	172.1651	65408.95	64816.9
796.1025	174.4047	65493	64894.05
796.2445	176.6439	65479.35	64879
796.3864	178.8825	65432.2	64828
796.5284	181.1206	65521.55	64915.95
796.6704	183.3582	65514.25	64904.2
796.8124	185.5954	65508.75	64898.5
796.9544	187.832	65513.05	64895.95
797.0965	190.0681	65469.8	64854.25
797.2386	192.3037	65527.3	64905.3
797.3806	194.5388	65535	64913
797.5228	196.7734	65455.45	64832.95
797.6649	199.0075	65535	64910.05
797.807	201.2411	65532.9	64906.5
797.9492	203.4742	65535	64903.4
798.0914	205.7068	65535	64901.4
798.2336	207.9389	65535	64902.05
798.3758	210.1704	65535	64912
798.518	212.4015	65535	64920.3
798.6603	214.632	65535	64924.95
798.8025	216.862	65535	64924.4
798.9448	219.0915	65535	64919.85
799.0871	221.3205	65535	64917.15
799.2294	223.549	65535	64924.05
799.3718	225.777	65535	64919.7
799.5141	228.0044	65535	64909.85
799.6565	230.2314	65535	64911.55
799.7989	232.4578	65535	64905.2
799.9413	234.6837	65535	64896.55
800.0837	236.909	65535	64895.15
800.2262	239.1339	65535	64872.95
800.3687	241.3582	65535	64889.4
800.5111	243.582	65535	64854.1
800.6536	245.8053	65535	64868.05
800.7961	248.0281	65535	64872.55
800.9387	250.2503	65535	64873.35
801.0812	252.472	65535	64871.5
801.2238	254.6932	65535	64871.45
801.3664	256.9139	65535	64868.6
801.509	259.134	65535	64866.05
801.6516	261.3536	65535	64867.55
801.7942	263.5727	65535	64863
801.9369	265.7912	65535	64862.7
802.0795	268.0092	65535	64864.25
802.2222	270.2267	65535	64863.85
802.3649	272.4436	65535	64860.1
802.5076	274.6601	65535	64849.5
802.6504	276.8759	65535	64855.05
802.7931	279.0913	65535	64853.4
802.9359	281.3061	65535	64851.75
803.0787	283.5204	65535	64849.8
803.2215	285.7341	65535	64846.8
803.3643	287.9473	65535	64838.45
803.5071	290.16	65535	64845.4
803.6499	292.3721	65535	64849.3
803.7928	294.5837	65535	64848.75
803.9357	296.7947	65535	64849.9
804.0786	299.0052	65535	64847.65
804.2215	301.2152	65535	64845.15
804.3644	303.4246	65535	64846.8
804.5074	305.6334	65535	64846.05
804.6503	307.8418	65535	64842.45
804.7933	310.0495	65535	64841.85
804.9363	312.2568	65535	64841.05
805.0793	314.4635	65535	64839.65
805.2223	316.6696	65535	64837.6
805.3653	318.8752	65535	64826.3
805.5084	321.0802	65535	64834.5
805.6514	323.2847	65535	64831.5
805.7945	325.4887	65535	64828.75
805.9376	327.692	65535	64830
806.0807	329.8949	65535	64828.05
806.2238	332.0972	65535	64828.05
806.367	334.2989	65535	64821.65
806.5101	336.5001	65535	64821.55
806.6533	338.7007	65535	64821.95
806.7965	340.9008	65535	64820.7
806.9397	343.1003	65535	64819.85
807.0829	345.2992	65535	64817.15
807.2261	347.4976	65535	64817.85
807.3693	349.6955	65535	64810.95
807.5126	351.8927	65535	64810.7
807.6559	354.0895	65535	64799.45
807.7991	356.2856	65535	64809.85
807.9424	358.4812	65535	64808.75
808.0857	360.6763	65535	64806.4
808.2291	362.8707	65535	64802.4
808.3724	365.0646	65535	64800.1
808.5158	367.258	65535	64800.75
808.6591	369.4508	65535	64796.75
808.8025	371.643	65535	64797.05
808.9459	373.8346	65535	64792.25
809.0893	376.0257	65535	64788.6
809.2327	378.2162	65535	64792.25
809.3762	380.4062	65535	64790.85
809.5196	382.5956	65535	64793.75
809.6631	384.7844	65535	64798.45
809.8066	386.9726	65535	64799.5
809.9501	389.1603	65535	64801.65
810.0936	391.3474	65535	64750.95
810.2371	393.5339	65535	64796.85
810.3806	395.7199	65535	64800.45
810.5241	397.9052	65535	64800.1
810.6677	400.09	65535	64798.85
810.8113	402.2743	65535	64795.6
810.9548	404.4579	65535	64792.8
811.0984	406.641	65535	64792.65
811.2421	408.8235	65535	64790.35
811.3857	411.0054	65535	64787.35
811.5293	413.1868	65535	64785.4
811.673	415.3675	65535	64780.8
811.8166	417.5477	65535	64782.45
811.9603	419.7273	65535	64776.65
812.104	421.9064	65535	64771.45
812.2477	424.0848	65535	64775.6
812.3914	426.2627	65535	64778.25
812.5351	428.4399	65535	64775.2
812.6788	430.6166	65535	64769.9
812.8226	432.7928	65535	64769.3
812.9663	434.9683	65535	64769.3
813.1101	437.1432	65535	64767.9
813.2539	439.3176	65535	64768.1
813.3977	441.4914	65535	64769.6
813.5415	443.6645	65535	64768.65
813.6853	445.8371	65535	64769.25
813.8291	448.0091	65535	64765.5
813.973	450.1806	65535	64766.05
814.1168	452.3514	65535	64763.8
814.2607	454.5216	65535	64755.9
814.4046	456.6913	65535	64762.5
814.5485	458.8603	65535	64762.5
814.6924	461.0288	65535	64764
814.8363	463.1967	65535	64760.8
814.9802	465.3639	65535	64761.05
815.1241	467.5306	65535	64762.55
815.2681	469.6967	65535	64760.7
815.412	471.8622	65535	64760.6
815.556	474.0271	65535	64760.35
815.7	476.1914	65535	64756.6
815.844	478.3551	65535	64757.9
815.988	480.5182	65535	64757.05
816.132	482.6807	65535	64755.7
816.276	484.8426	65535	64756.45
816.4201	487.0039	65535	64756.95
816.5641	489.1647	65535	64753.85
816.7082	491.3248	65535	64755.4
816.8522	493.4843	65535	64752.35
816.9963	495.6432	65535	64754.15
817.1404	497.8015	65535	64749.9
817.2845	499.9592	65535	64751.4
817.4286	502.1163	65535	64750.65
817.5727	504.2728	65535	64745.4
817.7168	506.4287	65535	64748.2
817.861	508.5839	65535	64748.8
818.0051	510.7386	65535	64748.8
818.1493	512.8927	65535	64739.75
818.2935	515.0461	65535	64746.75
818.4377	517.199	65535	64745.45
818.5818	519.3512	65535	64744.6
818.726	521.5029	65535	64736.85
818.8703	523.6539	65535	64742.1
819.0145	525.8043	65535	64739.4
819.1587	527.9541	65535	64740.35
819.303	530.1033	65535	64740.35
819.4472	532.2519	65535	64739.75
819.5915	534.3999	65535	64737.45
819.7357	536.5472	65535	64738.05
819.88	538.694	65534.25	64737.55
820.0243	540.8401	65535	64736.85
820.1686	542.9856	65535	64735.55
820.3129	545.1305	65535	64736.1
820.4572	547.2748	65535	64735.2
820.6016	549.4185	65535	64735.5
820.7459	551.5615	65535	64736
820.8902	553.704	65535	64732.25
821.0346	555.8458	65535	64736.95
821.1789	557.987	65535	64736.4
821.3233	560.1276	65535	64737
821.4677	562.2675	65533.5	64735.1
821.6121	564.4069	65535	64736.55
821.7565	566.5456	65535	64735.7
821.9009	568.6837	65528.1	64726.6
822.0453	570.8212	65535	64732.5
822.1897	572.958	65507.45	64704.05
822.3342	575.0942	65535	64731.5
822.4786	577.2299	65523.45	64718.6
822.6231	579.3648	65514.15	64706.8
822.7675	581.4992	65506.45	64702.15
822.912	583.6329	65499.75	64694.6
823.0565	585.766	65500.85	64697.2
823.201	587.8985	65513.2	64708.35
823.3454	590.0304	65394.7	64564.95
823.4899	592.1616	65503.3	64689.35
823.6345	594.2922	65462.5	64651.7
823.779	596.4222	65322.6	64512.35
823.9235	598.5515	65381.8	64572.8
824.068	600.6802	65495.8	64685.05
824.2126	602.8083	65339.85	64529.15
824.3571	604.9358	65319.4	64506.05
824.5017	607.0626	65462.4	64650.95
824.6462	609.1888	65099.65	64285.95
824.7908	611.3144	65352.8	64537.5
824.9354	613.4393	65281.7	64468.55
825.08	615.5636	65047.95	64233.6
825.2246	617.6873	65322.4	64506.45
825.3692	619.8103	65019.6	64202.55
825.5138	621.9327	65357.45	64539.2
825.6584	624.0544	65341.85	64527.35
825.803	626.1756	65204.65	64389.4
825.9477	628.2961	65184.9	64367.65
826.0923	630.4159	65087.8	64270.5
826.237	632.5351	64980.05	64161.8
826.3816	634.6537	65439.4	64619.95
826.5263	636.7716	64909.75	64089.8
826.6709	638.8889	65075.8	64257.4
826.8156	641.0056	65035	64216.3
826.9603	643.1216	65087.5	64265.15
827.105	645.237	65204.45	64380.55
827.2497	647.3518	64878.3	64057.9
827.3944	649.4659	65021	64199.95
827.5391	651.5793	65016.75	64195.85
827.6838	653.6922	65094.8	64275.25
827.8285	655.8043	64596.25	63772.75
827.9733	657.9159	65192.55	64369.05
828.118	660.0268	64103.6	63278.15
828.2627	662.137	64820.35	63995.95
828.4075	664.2466	64872.95	64048
828.5522	666.3556	64607.55	63783.7
828.697	668.4639	64879.3	64050.8
828.8418	670.5716	64508.75	63684.6
828.9865	672.6786	64775.45	63948.9
829.1313	674.785	64400.55	63572.15
829.2761	676.8907	64413.65	63584.05
829.4209	678.9958	64627.9	63800.85
829.5657	681.1002	64643	63813.7
829.7105	683.204	64268.8	63438
829.8553	685.3072	64055.4	63227.65
830.0001	687.4097	64294.75	63466.5
830.1449	689.5115	64077.85	63248.75
830.2898	691.6127	64529.9	63700.4
830.4346	693.7132	64124.8	63296
830.5794	695.8131	64145.5	63291.55
830.7243	697.9123	64294.3	63460.6
830.8691	700.0109	64332.7	63503.65
831.014	702.1089	63776.95	62945.15
831.1588	704.2061	63921.65	63091.05
831.3037	706.3028	63975.95	63142.95
831.4486	708.3987	64112.85	63281.3
831.5935	710.4941	63815.3	62981.75
831.7383	712.5887	64154.7	63321.7
831.8832	714.6827	63731.5	62894
832.0281	716.7761	64006.95	63173
832.173	718.8688	64083.1	63245.8
832.3179	720.9608	63602	62764.3
832.4628	723.0522	63656.8	62816.25
832.6077	725.1429	63261.2	62425.1
832.7527	727.233	64405	63568.2
832.8976	729.3224	62688.05	61851.25
833.0425	731.4112	63512.25	62673.2
833.1874	733.4993	63587	62747.25
833.3324	735.5867	63601.15	62763.2
833.4773	737.6735	63116.9	62275.75
833.6222	739.7596	62721.05	61882.6
833.7672	741.845	62689	61846.55
833.9122	743.9298	63419.4	62577.05
834.0571	746.014	62674.1	61834.85
834.2021	748.0974	62132.55	61292.4
834.347	750.1802	63216.85	62377.7
834.492	752.2624	61923.8	61084.15
834.637	754.3439	62077.85	61236.15
834.782	756.4247	62379.1	61529.5
834.9269	758.5048	61730.9	60889.9
835.0719	760.5843	61831.8	60988.3
835.2169	762.6631	61966.4	61124.5
835.3619	764.7413	61553.2	60712.95
835.5069	766.8188	61498.05	60652.9
835.6519	768.8956	61845.7	61001.2
835.7969	770.9718	61704.75	60863.3
835.9419	773.0473	61514.3	60671.95
836.0869	775.1221	60935.3	60093
836.232	777.1962	60989	60144.1
836.377	779.2697	60255.35	59408.8
836.522	781.3426	60797.55	59941.3
836.667	783.4147	60923.25	60079.05
836.8121	785.4862	60649.75	59807.35
836.9571	787.557	59941.45	59094.65
837.1021	789.6271	60787.7	59943.35
837.2472	791.6966	60183.65	59338.55
837.3922	793.7654	59560.75	58714.15
837.5373	795.8335	59680.2	58836.65
837.6823	797.901	59958.45	59112.65
837.8274	799.9678	59441.7	58595.1
837.9724	802.0339	59323.7	58478.4
838.1175	804.0993	59350.6	58494.95
838.2626	806.1641	59061.6	58214.3
838.4076	808.2282	58904.05	58056.05
838.5527	810.2916	58839.2	57991.2
838.6978	812.3544	59318.35	58473.2
838.8428	814.4164	58427.95	57581.65
838.9879	816.4778	58601.75	57752.25
839.133	818.5385	58630.9	57784.15
839.2781	820.5986	58529.75	57683.6
839.4232	822.658	58616	57766
839.5682	824.7166	58670.9	57821.65
839.7133	826.7747	57936.75	57087.65
839.8584	828.832	58305.55	57455.6
840.0035	830.8886	58652.5	57800.7
840.1486	832.9446	58531.2	57681.95
840.2937	834.9999	57384.4	56534.55
840.4388	837.0545	57936.95	57082.3
840.5839	839.1085	58105.45	57255.85
840.729	841.1618	57877.25	57023.7
840.8741	843.2143	57063.65	56213.3
841.0192	845.2662	57067.6	56216.5
841.1643	847.3175	57352.4	56503
841.3095	849.368	56583.1	55731.8
841.4546	851.4179	57238.8	56387.45
841.5997	853.467	56639.45	55788.95
841.7448	855.5155	56917.95	56063.95
841.8899	857.5633	56496.05	55643.75
842.0351	859.6105	56211.5	55356.25
842.1802	861.6569	56603.35	55751.1
842.3253	863.7027	55964.65	55111.15
842.4704	865.7478	56144.15	55291.9
842.6156	867.7922	55995.75	55143.05
842.7607	869.8359	56325.85	55470.25
842.9058	871.8789	55557.2	54702.1
843.0509	873.9212	55900.15	55014.2
843.1961	875.9629	55686.95	54833.8
843.3412	878.0039	55623.1	54766.95
843.4863	880.0441	55403.05	54548.5
843.6315	882.0837	55418.55	54563
843.7766	884.1226	55463.3	54607.15
843.9218	886.1609	55446.15	54592.85
844.0669	888.1984	55333.4	54480.45
844.212	890.2352	55771.95	54916.15
844.3572	892.2714	55116.35	54256.15
844.5023	894.3069	55403.6	54546.7
844.6475	896.3416	55099.8	54244.75
844.7926	898.3757	54995.5	54138.5
844.9377	900.4091	54437.65	53580.9
845.0829	902.4418	54997.65	54136.7
845.228	904.4739	54508.55	53648.25
845.3732	906.5052	54717	53859.5
845.5183	908.5358	54463.55	53607.45
845.6635	910.5658	54240.2	53381.3
845.8086	912.595	54296.2	53437.6
845.9538	914.6236	53789.75	52931.4
846.0989	916.6515	54413.55	53557.65
846.2441	918.6786	53507.25	52647.45
846.3892	920.7051	53698.35	52839.5
846.5344	922.7309	53675.7	52817.9
846.6795	924.756	53692.4	52834.8
846.8246	926.7804	53385.7	52523.15
846.9698	928.8041	52884.55	52024
847.1149	930.8272	53175.6	52315.3
847.2601	932.8495	53058.25	52196.05
847.4052	934.8711	52700	51839.6
847.5504	936.892	52568.4	51706.7
847.6955	938.9123	52580.4	51717.85
847.8407	940.9318	52355.5	51494.35
847.9858	942.9506	52248.05	51386.6
848.131	944.9688	52309.35	51449.4
848.2761	946.9862	51743.6	50882.1
848.4213	949.003	51782.05	50921.7
848.5664	951.019	51340.85	50479.75
848.7115	953.0344	51339.95	50477.4
848.8567	955.0491	51231.95	50370.8
849.0018	957.063	51291.4	50430.55
849.147	959.0763	51331.4	50472.15
849.2921	961.0888	51021.5	50158.65
849.4373	963.1007	51110.15	50247.3
849.5824	965.1119	51037.15	50177.45
849.7275	967.1223	50826.7	49965.2
849.8727	969.1321	50861.85	49999.95
850.0178	971.1412	50640.2	49778.2
850.1629	973.1495	50433.75	49572.05
850.3081	975.1572	50489.15	49580.65
850.4532	977.1641	50422.9	49562.55
850.5983	979.1704	50248.7	49385.2
850.7435	981.1759	50130.3	49264
850.8886	983.1808	50028.7	49164.95
851.0337	985.1849	49882.4	49014.25
851.1788	987.1884	49786.65	48920.6
851.324	989.1911	49740.3	48872.55
851.4691	991.1932	49515	48650.15
851.6142	993.1945	49387.15	48524
851.7593	995.1951	49211.15	48347
851.9045	997.1951	49172.85	48302.6
852.0496	999.1943	48917.85	48054.5
852.1947	1001.1928	48742.4	47880
852.3398	1003.1906	48548.4	47682.95
852.4849	1005.1877	48427.6	47561.95
852.63	1007.1841	48260.65	47396.65
852.7751	1009.1798	48121.8	47255.8
852.9202	1011.1748	48012.05	47145.8
853.0653	1013.1691	47855.7	46988.55
853.2104	1015.1627	47556.9	46691.8
853.3555	1017.1556	47332.15	46467.2
853.5006	1019.1477	47225.6	46359.4
853.6457	1021.1392	46948.95	46085.95
853.7908	1023.1299	46761.45	45896.25
853.9359	1025.12	46646	45778.95
854.081	1027.1093	46395	45531.25
854.2261	1029.0979	46255.25	45389.9
854.3712	1031.0859	46126.55	45262.45
854.5163	1033.0731	46052.3	45184.2
854.6613	1035.0596	45900.45	45035.15
854.8064	1037.0454	45640.8	44775
854.9515	1039.0304	45565.25	44697.75
855.0965	1041.0148	45345.05	44478.5
855.2416	1042.9985	45228.05	44359.85
855.3867	1044.9814	45208.15	44343.7
855.5317	1046.9636	45008.45	44141.15
855.6768	1048.9452	44836.9	43968.3
855.8219	1050.926	44747.25	43879.55
855.9669	1052.9061	44624.55	43757.85
856.112	1054.8855	44497.1	43629.05
856.257	1056.8642	44461.4	43595.65
856.4021	1058.8421	44437.6	43567.8
856.5471	1060.8194	44239.4	43371.7
856.6921	1062.7959	44139.8	43272.95
856.8372	1064.7717	44099.85	43231.5
856.9822	1066.7469	43975.3	43104.75
857.1272	1068.7213	43901.85	43030.85
857.2723	1070.695	43876.5	43008.15
857.4173	1072.6679	43674.25	42804.65
857.5623	1074.6402	43634.4	42766.5
857.7073	1076.6117	43586.75	42714.1
857.8523	1078.5826	43533.75	42663.95
857.9973	1080.5527	43374.7	42504.7
858.1423	1082.5221	43140.55	42272.85
858.2873	1084.4908	43067.3	42197.2
858.4323	1086.4587	43001.9	42131.75
858.5773	1088.426	42869.85	41998.6
858.7223	1090.3925	42745.9	41871
858.8673	1092.3584	42711.5	41844.15
859.0123	1094.3235	42514.3	41645.2
859.1573	1096.2879	42464.1	41593.05
859.3022	1098.2515	42392.05	41522.65
859.4472	1100.2145	42304.9	41435.7
859.5922	1102.1767	42179	41308.1
859.7371	1104.1382	42165.15	41295.05
859.8821	1106.099	42115.25	41242.35
860.027	1108.0591	42006.95	41136.6
860.172	1110.0185	41937.3	41066.3
860.3169	1111.9771	41936.7	41067.25
860.4619	1113.9351	41865.7	40995.3
860.6068	1115.8923	41816.8	40948
860.7517	1117.8488	41773.4	40902.45
860.8967	1119.8045	41564.05	40694.45
861.0416	1121.7596	41440.45	40571.65
861.1865	1123.7139	41182.6	40312.3
861.3314	1125.6675	40987.85	40117.85
861.4763	1127.6204	41032.65	40161.45
861.6212	1129.5726	40905.3	40033.65
861.7661	1131.524	40870.95	40001.95
861.911	1133.4748	40777.8	39906.35
862.0559	1135.4248	40606.3	39734.4
862.2008	1137.3741	40480.45	39612.8
862.3457	1139.3226	40291.35	39418.25
862.4905	1141.2705	40365.35	39494.8
862.6354	1143.2176	40137.75	39259.8
862.7803	1145.164	40117.1	39243.95
862.9251	1147.1097	40101.55	39230.1
863.07	1149.0546	40057.55	39185.85
863.2148	1150.9989	40000.5	39128.9
863.3597	1152.9424	39906.15	39033.55
863.5045	1154.8852	39811.25	38938.6
863.6493	1156.8272	39751.25	38880.5
863.7942	1158.7686	39754.8	38876.25
863.939	1160.7092	39617.45	38745.2
864.0838	1162.6491	39479.65	38604.7
864.2286	1164.5883	39474.1	38602.4
864.3734	1166.5267	39402.1	38530.6
864.5182	1168.4644	39341.7	38468.9
864.663	1170.4014	39303.4	38427.25
864.8078	1172.3377	39315.35	38445.6
864.9526	1174.2732	39273.9	38402.25
865.0974	1176.2081	39393.3	38520.95
865.2421	1178.1421	39321	38442.25
865.3869	1180.0755	39479	38606
865.5317	1182.0082	39346.2	38472.35
865.6764	1183.9401	39324.8	38451.5
865.8212	1185.8713	39091.2	38219.95
865.9659	1187.8017	38931.15	38058.7
866.1106	1189.7315	38820.1	37949
866.2554	1191.6605	38483	37610.55
866.4001	1193.5888	38346.45	37474.2
866.5448	1195.5163	38260.2	37386.8
866.6895	1197.4432	38112.8	37236.35
866.8342	1199.3693	38004.25	37130.95
866.9789	1201.2947	37836.85	36960.25
867.1236	1203.2193	37739.7	36865.1
867.2683	1205.1432	37668.1	36793.75
867.413	1207.0664	37515.15	36642.5
867.5576	1208.9889	37395.6	36518.6
867.7023	1210.9106	37241.4	36369.25
867.847	1212.8316	37071.9	36197.95
867.9916	1214.7519	37122.1	36239.1
868.1363	1216.6715	36979.4	36109.4
868.2809	1218.5903	36919.2	36042.85
868.4255	1220.5084	36865	35991.2
868.5701	1222.4257	36828.65	35952.05
868.7148	1224.3424	36672	35800.5
868.8594	1226.2583	36607.85	35728.1
869.004	1228.1735	36581	35705.85
869.1486	1230.0879	36476.35	35599.05
869.2932	1232.0016	36384.25	35509.1
869.4377	1233.9146	36327.45	35451.15
869.5823	1235.8269	36224.8	35351.35
869.7269	1237.7384	36282.65	35407.55
869.8715	1239.6492	36092.2	35218.05
870.016	1241.5592	36062.6	35187.45
870.1606	1243.4686	36006.25	35132.3
870.3051	1245.3772	35919.55	35044.8
870.4496	1247.285	35963.3	35088
870.5941	1249.1922	35920.2	35044.5
870.7387	1251.0986	36005.6	35131.1
870.8832	1253.0042	35885.35	35010.05
871.0277	1254.9092	35944.8	35067.75
871.1722	1256.8134	35929.3	35054.45
871.3167	1258.7169	36099.75	35222.9
871.4611	1260.6196	35994.4	35119.85
871.6056	1262.5216	36009.4	35131.9
871.7501	1264.4229	35956.05	35081.3
871.8945	1266.3234	35929.5	35053.3
872.039	1268.2232	35794.35	34916.4
872.1834	1270.1223	35652.65	34774.75
872.3278	1272.0207	35620.7	34744.85
872.4723	1273.9183	35485.15	34601.6
872.6167	1275.8151	35395.85	34521.55
872.7611	1277.7113	35379.95	34503.1
872.9055	1279.6067	35381.7	34506.7
873.0499	1281.5014	35503.7	34627.5
873.1943	1283.3953	35594	34713.9
873.3386	1285.2885	35836.25	34960.3
873.483	1287.181	35984	35106.1
873.6274	1289.0727	36027.25	35150.15
873.7717	1290.9637	35897.3	35019.9
873.9161	1292.854	35781.55	34909.05
874.0604	1294.7435	35542.05	34664.8
874.2047	1296.6323	35395.55	34519.25
874.349	1298.5204	35210.9	34330.4
874.4933	1300.4077	35104	34224.4
874.6376	1302.2943	34972.95	34097.1
874.7819	1304.1802	34932.8	34056
874.9262	1306.0653	34784.85	33905.9
875.0705	1307.9497	34709.55	33830.95
875.2147	1309.8333	34656.65	33780
875.359	1311.7162	34650.1	33772.6
875.5032	1313.5984	34559	33681.15
875.6475	1315.4798	34448.35	33558.45
875.7917	1317.3605	34376.9	33496.5
875.9359	1319.2405	34400.8	33521.5
876.0801	1321.1197	34333.85	33454.95
876.2243	1322.9982	34224.75	33344.15
876.3685	1324.876	34226.75	33350.25
876.5127	1326.753	34047	33169.85
876.6569	1328.6293	33950.9	33073.8
876.801	1330.5048	33858.05	32977.15
876.9452	1332.3796	33651.75	32772.45
877.0893	1334.2537	33619.4	32716.15
877.2335	1336.127	33443.9	32567.7
877.3776	1337.9996	33370.65	32491.65
877.5217	1339.8714	33308.2	32431.15
877.6658	1341.7426	33187.8	32266.7
877.8099	1343.6129	33137.65	32260.9
877.954	1345.4826	33059.55	32181.6
878.0981	1347.3515	33020.3	32139.3
878.2422	1349.2196	32930.05	32052.15
878.3862	1351.087	32916.9	32039.75
878.5303	1352.9537	32851.65	31974.3
878.6743	1354.8197	32871.6	31995
878.8184	1356.6849	32857.3	31978.6
878.9624	1358.5493	32795.55	31918.15
879.1064	1360.4131	32769.6	31891.7
879.2504	1362.276	32689.6	31815.25
879.3944	1364.1383	32675.55	31798.35
879.5384	1365.9998	32599.6	31715.4
879.6823	1367.8606	32485.8	31608.45
879.8263	1369.7206	32466.25	31588.1
879.9702	1371.5799	32360.75	31480.45
880.1142	1373.4384	32337.05	31458.7
880.2581	1375.2962	32289.65	31412.45
880.402	1377.1533	32071.05	31194.85
880.5459	1379.0096	31871	30992.55
880.6898	1380.8652	31802	30924.65
880.8337	1382.7201	31706.35	30829
880.9776	1384.5742	31470.45	30591.05
881.1215	1386.4275	31371.85	30489.65
881.2653	1388.2802	31247.2	30370.75
881.4092	1390.132	31168.6	30288.95
881.553	1391.9832	31151.4	30271.55
881.6968	1393.8336	30968.1	30089.3
881.8406	1395.6832	30877.6	29997.4
881.9844	1397.5322	30722.6	29846.15
882.1282	1399.3803	30709.25	29826.1
882.272	1401.2278	30528.8	29651.4
882.4158	1403.0745	30456.2	29576.15
882.5595	1404.9204	30295.3	29417.45
882.7033	1406.7656	30274.4	29395.15
882.847	1408.6101	30143.5	29265.05
882.9908	1410.4538	30042.65	29162.2
883.1345	1412.2968	29923.1	29045.5
883.2782	1414.139	29847.75	28969.85
883.4219	1415.9805	29840.25	28962.05
883.5656	1417.8213	29738.7	28840.7
883.7092	1419.6613	29612.5	28737.3
883.8529	1421.5006	29614.8	28732.65
883.9965	1423.3391	29556	28676.5
884.1402	1425.1769	29515.05	28634.65
884.2838	1427.0139	29539.1	28660.2
884.4274	1428.8502	29540.4	28660.05
884.571	1430.6858	29571.7	28693.95
884.7146	1432.5206	29469.9	28590.1
884.8582	1434.3547	29451.1	28571.15
885.0018	1436.188	29387.9	28510.7
885.1453	1438.0206	29344.95	28465.15
885.2889	1439.8524	29224.45	28344.45
885.4324	1441.6835	29190.55	28311.65
885.5759	1443.5139	29146.35	28265.45
885.7194	1445.3435	29060.65	28178.7
885.8629	1447.1724	29092.85	28215.1
886.0064	1449.0005	29065.95	28187.85
886.1499	1450.8279	28956.45	28075.65
886.2933	1452.6545	28971	28091.05
886.4368	1454.4804	28937.95	28060.25
886.5802	1456.3056	28844.25	27958.55
886.7237	1458.13	28800.2	27922.4
886.8671	1459.9536	28794.45	27914.75
887.0105	1461.7766	28683.85	27806.35
887.1539	1463.5987	28572.4	27692.2
887.2972	1465.4202	28435.95	27556.4
887.4406	1467.2409	28335.35	27455.8
887.584	1469.0608	28316.4	27437.25
887.7273	1470.88	28256.85	27377.75
887.8706	1472.6984	28191	27311.85
888.0139	1474.5161	28030.2	27147.7
888.1572	1476.3331	27969.7	27091.25
888.3005	1478.1493	27923.2	27041.9
888.4438	1479.9648	27923.3	27042.65
888.5871	1481.7795	27820.4	26940.85
888.7303	1483.5935	27812.95	26935.55
888.8736	1485.4067	27715.7	26836.35
889.0168	1487.2192	27729.2	26850
889.16	1489.031	27677.95	26795.55
889.3032	1490.842	27630.3	26753.45
889.4464	1492.6522	27624.35	26746.1
889.5896	1494.4618	27529.85	26649.5
889.7327	1496.2705	27494.4	26616.5
889.8759	1498.0785	27433.95	26554.35
890.019	1499.8858	27351.45	26470.35
890.1622	1501.6924	27259.15	26379.1
890.3053	1503.4981	27219.8	26341.8
890.4484	1505.3032	27165.15	26287.15
890.5914	1507.1075	27085.55	26205.15
890.7345	1508.911	27086.2	26206.9
890.8776	1510.7138	27048.85	26167.6
891.0206	1512.5159	26925.55	26048.05
891.1637	1514.3172	26878.05	25999.8
891.3067	1516.1178	26782.4	25902.85
891.4497	1517.9176	26753.35	25872.8
891.5927	1519.7166	26653.4	25773.6
891.7357	1521.515	26609.55	25725.2
891.8786	1523.3126	26494.7	25615.9
892.0216	1525.1094	26426.05	25543.7
892.1645	1526.9055	26340.4	25461
892.3074	1528.7008	26261.75	25383.6
892.4503	1530.4954	26073.9	25187.45
892.5932	1532.2893	26071.45	25191.65
892.7361	1534.0824	25942.15	25057.3
892.879	1535.8747	25923.55	25046
893.0218	1537.6663	25839.7	24959.7
893.1647	1539.4572	25784.4	24903.6
893.3075	1541.2473	25696.35	24815.35
893.4503	1543.0367	25586.75	24707.55
893.5931	1544.8253	25479	24593.95
893.7359	1546.6132	25468.1	24583.2
893.8787	1548.4003	25355.95	24466.6
894.0214	1550.1867	25325.5	24438.05
894.1642	1551.9723	25271	24386.3
894.3069	1553.7572	25216.05	24335
894.4496	1555.5414	25151.3	24268.5
894.5923	1557.3247	25091.9	24210.9
894.735	1559.1074	25037.45	24157.55
894.8777	1560.8893	25039.45	24159.95
895.0204	1562.6705	24940.8	24060.05
895.163	1564.4509	24938.05	24059.45
895.3056	1566.2305	24868.85	23989.95
895.4482	1568.0094	24825.45	23947.5
895.5908	1569.7876	24825.3	23947
895.7334	1571.565	24777.75	23896.5
895.876	1573.3417	24757.55	23878.15
896.0186	1575.1176	24697.8	23818.3
896.1611	1576.8928	24630.1	23748.75
896.3036	1578.6672	24531.9	23653.55
896.4461	1580.4409	24491.5	23611.85
896.5886	1582.2138	24451.5	23571.3
896.7311	1583.986	24406.75	23526.85
896.8736	1585.7575	24446.4	23566.55
897.0161	1587.5282	24424.4	23547.2
897.1585	1589.2981	24404.15	23526.45
897.3009	1591.0673	24334.25	23453.95
897.4433	1592.8358	24327.9	23450.25
897.5857	1594.6035	24255	23371.15
897.7281	1596.3704	24109.5	23229.8
897.8705	1598.1366	23981.2	23101.15
898.0128	1599.9021	23903.05	23022.4
898.1551	1601.6668	23761.2	22879.15
898.2975	1603.4308	23650.35	22769.5
898.4398	1605.194	23577.5	22692.85
898.5821	1606.9564	23505.3	22627.1
898.7243	1608.7182	23507.45	22624.1
898.8666	1610.4791	23516.65	22638.05
899.0088	1612.2394	23604.9	22726.5
899.1511	1613.9988	23651.3	22772.3
899.2933	1615.7576	23693.85	22814.25
899.4355	1617.5156	23747.35	22861.9
899.5776	1619.2728	23663.15	22782.55
899.7198	1621.0293	23523.2	22641.1
899.862	1622.785	23364.5	22482.5
900.0041	1624.54	23146.75	22263.2
900.1462	1626.2942	22963.25	22083.45
900.2883	1628.0477	22717.2	21834.3
900.4304	1629.8005	22587.2	21704.55
900.5725	1631.5525	22459.9	21581.7
900.7145	1633.3037	22329.7	21451.45
900.8566	1635.0542	22232.55	21353.7
900.9986	1636.804	22113.45	21232.85
901.1406	1638.553	22097.3	21131.05
901.2826	1640.3013	21888.95	21010
901.4245	1642.0488	21830.85	20949.7
901.5665	1643.7955	21772.8	20893.15
901.7085	1645.5416	21679.45	20799.6
901.8504	1647.2868	21620	20742
901.9923	1649.0313	21527.85	20646.9
902.1342	1650.7751	21525.85	20642.65
902.2761	1652.5181	21487.35	20608
902.4179	1654.2604	21351.1	20472
902.5598	1656.0019	21268.85	20387.75
902.7016	1657.7427	21271.15	20391.4
902.8434	1659.4828	21263.95	20384
902.9852	1661.222	21193.75	20311.8
903.127	1662.9606	21148.3	20267.9
903.2687	1664.6984	21159.45	20279.85
903.4105	1666.4354	21155.45	20275.05
903.5522	1668.1717	21073.2	20193.85
903.6939	1669.9072	20928.25	20048.55
903.8356	1671.642	20838.7	19956.6
903.9773	1673.3761	20796.5	19916.3
904.119	1675.1094	20638.8	19759.3
904.2606	1676.8419	20516.3	19635.85
904.4022	1678.5737	20459.05	19577.95
904.5439	1680.3048	20380.55	19498.65
904.6855	1682.0351	20243.55	19364.8
904.827	1683.7646	20131.25	19247.3
904.9686	1685.4934	20060.95	19180.8
905.1101	1687.2215	20005.1	19122.7
905.2517	1688.9488	19878.6	18998.2
905.3932	1690.6754	19823.2	18943.55
905.5347	1692.4012	19789.6	18908.35
905.6761	1694.1263	19694.7	18814
905.8176	1695.8506	19634.65	18751.3
905.9591	1697.5742	19598.35	18720.3
906.1005	1699.297	19496.2	18615.2
906.2419	1701.0191	19404.85	18526.05
906.3833	1702.7404	19363.25	18484.25
906.5246	1704.461	19240.55	18356.65
906.666	1706.1808	19184.45	18302.95
906.8073	1707.8999	19111.75	18229.3
906.9487	1709.6182	19059.05	18180.1
907.09	1711.3358	19032.85	18152.3
907.2313	1713.0527	18985.6	18105.95
907.3725	1714.7688	18861.7	17976.5
907.5138	1716.4841	18802.45	17920.25
907.655	1718.1987	18775.1	17889.25
907.7962	1719.9126	18720	17841.55
907.9374	1721.6257	18656.1	17771.35
908.0786	1723.338	18620.6	17739.2
908.2198	1725.0496	18500.55	17619.75
908.3609	1726.7605	18485.95	17604.05
908.502	1728.4706	18422.2	17540.45
908.6431	1730.18	18338.55	17456
908.7842	1731.8886	18292.55	17412.4
908.9253	1733.5964	18272.55	17373
909.0664	1735.3036	18274.5	17391.8
909.2074	1737.0099	18214.6	17336.4
909.3484	1738.7156	18182.45	17302.95
909.4894	1740.4204	18086.05	17202.35
909.6304	1742.1246	18056.65	17173.75
909.7714	1743.8279	18025.7	17144.65
909.9123	1745.5306	18017.4	17135.55
910.0532	1747.2325	17957.8	17076.7
910.1941	1748.9336	17918.1	17036.75
910.335	1750.634	17850.4	16970.2
910.4759	1752.3336	17829.2	16948.7
910.6168	1754.0325	17814	16935.2
910.7576	1755.7307	17747.95	16868.3
910.8984	1757.4281	17782.2	16900.65
911.0392	1759.1247	17749.7	16861.75
911.18	1760.8206	17681.55	16796.65
911.3208	1762.5158	17663.4	16779.05
911.4615	1764.2102	17564.85	16684.9
911.6022	1765.9039	17529.4	16650.1
911.7429	1767.5968	17504.9	16625.85
911.8836	1769.289	17447.7	16566.5
912.0243	1770.9804	17436.4	16554.85
912.1649	1772.6711	17389.95	16508.1
912.3056	1774.361	17340.85	16460.95
912.4462	1776.0502	17355.6	16473.95
912.5868	1777.7386	17306.15	16422
912.7274	1779.4263	17217.75	16338
912.8679	1781.1132	17189.3	16306.85
913.0084	1782.7994	17092.5	16210.55
913.149	1784.4849	17065.4	16188.5
913.2895	1786.1696	17047	16147.8
913.4299	1787.8535	17027.3	16149
913.5704	1789.5367	17014.15	16133.3
913.7108	1791.2192	16957.55	16076.85
913.8513	1792.9009	16888.85	15990.2
913.9917	1794.5818	16860.8	15978.85
914.132	1796.2621	16804.9	15925.35
914.2724	1797.9415	16740.45	15859.25
914.4128	1799.6202	16708.85	15829.2
914.5531	1801.2982	16657.05	15773.9
914.6934	1802.9755	16585.3	15703.65
914.8337	1804.6519	16573.25	15694.35
914.9739	1806.3277	16484.05	15603.6
915.1142	1808.0027	16443.6	15563.35
915.2544	1809.6769	16445.4	15565.85
915.3946	1811.3504	16369.9	15487.55
915.5348	1813.0231	16369.95	15488.8
915.675	1814.6951	16347.85	15467.25
915.8151	1816.3664	16345.75	15462.1
915.9553	1818.0369	16270.15	15388.05
916.0954	1819.7067	16214.15	15334.65
916.2355	1821.3757	16199.65	15316.8
916.3755	1823.044	16150.15	15270.6
916.5156	1824.7115	16116.5	15234.95
916.6556	1826.3783	16066.4	15188.8
916.7956	1828.0443	16000.25	15119.1
916.9356	1829.7096	15987.5	15105.4
917.0756	1831.3741	15974.75	15088.9
917.2155	1833.0379	15938.65	15060.35
917.3555	1834.701	15900.05	15017.3
917.4954	1836.3633	15845.05	14963.95
917.6353	1838.0248	15798.9	14914.45
917.7751	1839.6856	15795.8	14915.95
917.915	1841.3457	15771.75	14890.95
918.0548	1843.005	15694.2	14814.25
918.1946	1844.6636	15692.2	14812.4
918.3344	1846.3214	15609.1	14728.05
918.4742	1847.9785	15612.7	14733.25
918.6139	1849.6349	15567.2	14684.9
918.7537	1851.2904	15556.7	14664.8
918.8934	1852.9453	15501.3	14619.55
919.0331	1854.5994	15464.3	14580.85
919.1727	1856.2528	15442.9	14557.5
919.3124	1857.9054	15404.3	14521.75
919.452	1859.5572	15379.65	14498.65
919.5916	1861.2083	15356.35	14476.05
919.7312	1862.8587	15355.35	14474.2
919.8708	1864.5084	15267.5	14387.45
920.0103	1866.1572	15251.65	14372.15
920.1498	1867.8054	15190.7	14309.4
920.2893	1869.4528	15145.1	14264.8
920.4288	1871.0994	15116.45	14234.85
920.5683	1872.7453	15087.25	14205.05
920.7077	1874.3905	15043.05	14154.4
920.8471	1876.0349	14977.45	14096.85
920.9865	1877.6786	15022.35	14138.45
921.1259	1879.3215	14980.8	14101.55
921.2653	1880.9637	14948.95	14066.45
921.4046	1882.6051	14913.5	14033.05
921.5439	1884.2458	14853.8	13969.95
921.6832	1885.8858	14819.95	13939.75
921.8225	1887.525	14782	13901.3
921.9617	1889.1634	14701.95	13820.55
922.101	1890.8011	14708.3	13827
922.2402	1892.4381	14638.35	13757.8
922.3794	1894.0743	14671.3	13792.25
922.5185	1895.7098	14604.65	13722.45
922.6577	1897.3446	14606.5	13726.85
922.7968	1898.9786	14532.05	13646.8
922.9359	1900.6118	14527.9	13649.25
923.075	1902.2443	14413.8	13531.35
923.214	1903.8761	14397.2	13516.85
923.3531	1905.5071	14353.9	13473.55
923.4921	1907.1374	14288.9	13407.05
923.6311	1908.7669	14277.95	13398
923.77	1910.3957	14248.7	13369.4
923.909	1912.0237	14184.7	13303.2
924.0479	1913.651	14169.65	13290.05
924.1868	1915.2776	14127.3	13246.45
924.3257	1916.9034	14050.55	13171.95
924.4646	1918.5285	14023.5	13145.25
924.6034	1920.1528	13933.65	13051.65
924.7422	1921.7764	13947.1	13066.35
924.881	1923.3992	13873.8	12993.2
925.0198	1925.0213	13794.55	12913.45
925.1586	1926.6427	13731.55	12852.9
925.2973	1928.2633	13878.95	12789.1
925.436	1929.8832	13704.05	12821.45
925.5747	1931.5023	13621.85	12742.55
925.7134	1933.1207	13578.8	12698.35
925.852	1934.7383	13544.8	12662.55
925.9906	1936.3552	13502.2	12623.6
926.1292	1937.9714	13477.4	12597.85
926.2678	1939.5868	13438.9	12555.75
926.4064	1941.2015	13366.75	12485.7
926.5449	1942.8154	13327.8	12446.15
926.6834	1944.4286	13256.2	12376.7
926.8219	1946.041	13233.6	12326.7
926.9604	1947.6528	13151.55	12265.6
927.0988	1949.2637	13135.95	12256
927.2372	1950.8739	13077.75	12197.95
927.3756	1952.4834	13066.6	12184.8
927.514	1954.0921	13012.2	12128.6
927.6523	1955.7001	12982.55	12094.8
927.7907	1957.3074	12912.8	12032.45
927.929	1958.9139	12898.25	12016.6
928.0673	1960.5197	12870.85	11990.5
928.2055	1962.1247	12791.45	11911.8
928.3438	1963.729	12741.05	11861.65
928.482	1965.3325	12710.25	11808.65
928.6202	1966.9353	12641.9	11763.7
928.7584	1968.5374	12619	11736.2
928.8965	1970.1387	12610.8	11728.7
929.0346	1971.7393	12540.2	11656.75
929.1727	1973.3392	12515.85	11634.8
929.3108	1974.9383	12478.25	11600.7
929.4489	1976.5366	12403.5	11523.5
929.5869	1978.1342	12398.2	11516.7
929.7249	1979.7311	12390.15	11507.95
929.8629	1981.3273	12348.8	11467.75
930.0009	1982.9227	12349.35	11466.65
930.1388	1984.5173	12274.65	11394.5
930.2767	1986.1112	12210.85	11330.8
930.4146	1987.7044	12194.75	11314.75
930.5525	1989.2968	12163.65	11282
930.6904	1990.8885	12127.65	11244.05
930.8282	1992.4795	12081.25	11200
930.966	1994.0697	12065.9	11185.95
931.1038	1995.6592	12004.65	11125.9
931.2415	1997.2479	11973.9	11090.1
931.3793	1998.8359	11946	11066.9
931.517	2000.4232	11915.95	11036.55
931.6547	2002.0097	11897.9	11018.85
931.7923	2003.5955	11838.05	10957.2
931.93	2005.1805	11799.95	10918.75
932.0676	2006.7648	11781.4	10902.7
932.2052	2008.3484	11742.35	10861.05
932.3427	2009.9312	11724	10841.6
932.4803	2011.5133	11689.4	10810.85
932.6178	2013.0946	11677.8	10798.9
932.7553	2014.6752	11637.55	10760.3
932.8928	2016.2551	11603.75	10720.8
933.0302	2017.8342	11548.2	10667.2
933.1676	2019.4126	11492.8	10613.8
933.305	2020.9902	11450.9	10572
933.4424	2022.5672	11449.95	10568.35
933.5798	2024.1433	11438.05	10555.3
933.7171	2025.7188	11399.65	10519.05
933.8544	2027.2935	11345.4	10463.95
933.9917	2028.8674	11337.1	10457.35
934.129	2030.4406	11301.05	10422.6
934.2662	2032.0131	11229.95	10350.2
934.4034	2033.5849	11229.05	10342.45
934.5406	2035.1559	11198.4	10318.75
934.6778	2036.7261	11188.1	10307.55
934.8149	2038.2957	11133.75	10255.7
934.952	2039.8645	11132.55	10253.75
935.0891	2041.4325	11121	10238.35
935.2262	2042.9998	11073.6	10193.95
935.3632	2044.5664	11050.85	10168.55
935.5002	2046.1323	11040.15	10160.9
935.6372	2047.6974	11001.5	10121.15
935.7742	2049.2617	10966.2	10084.7
935.9111	2050.8254	10970.3	10068
936.048	2052.3883	10933.2	10053.9
936.1849	2053.9504	10903.2	10023.9
936.3218	2055.5118	10889.4	10008.95
936.4586	2057.0725	10814.4	9928.8
936.5955	2058.6325	10805.2	9926.9
936.7323	2060.1917	10757.2	9877.75
936.869	2061.7502	10769.65	9885.45
937.0058	2063.3079	10710.35	9830.8
937.1425	2064.8649	10687.05	9803.3
937.2792	2066.4212	10670.15	9790.6
937.4159	2067.9767	10634.95	9755.95
937.5525	2069.5315	10608.05	9726.9
937.6891	2071.0856	10548.15	9668.65
937.8257	2072.6389	10506.25	9626.85
937.9623	2074.1915	10454.35	9574.8
938.0989	2075.7433	10467.8	9585.65
938.2354	2077.2945	10419.9	9539.2
938.3719	2078.8448	10387.6	9508.55
938.5084	2080.3945	10352.05	9471.85
938.6448	2081.9434	10326.3	9447.3
938.7812	2083.4916	10308.05	9428
938.9176	2085.039	10286.45	9405.05
939.054	2086.5857	10270.8	9388.65
939.1903	2088.1317	10262.3	9382.3
939.3267	2089.677	10249.3	9367.05
939.463	2091.2215	10182.45	9302.4
939.5992	2092.7652	10155.45	9273.75
939.7355	2094.3083	10131.3	9251.35
939.8717	2095.8506	10143.05	9264
940.0079	2097.3921	10123.3	9244.3
940.1441	2098.933	10076.7	9196.6
940.2802	2100.4731	10054.6	9173.9
940.4163	2102.0124	10063.85	9165.15
940.5524	2103.5511	10042.85	9162.75
940.6885	2105.089	10028.7	9147.15
940.8245	2106.6261	10002.7	9123.1
940.9606	2108.1626	9977.5	9096.2
941.0965	2109.6983	9978.1	9070.25
941.2325	2111.2332	9940.5	9061.9
941.3684	2112.7675	9884.4	9003.3
941.5044	2114.301	9862.55	8980.35
941.6403	2115.8337	9871.5	8990.25
941.7761	2117.3657	9844.2	8964.05
941.912	2118.897	9829.6	8948.7
942.0478	2120.4276	9799.8	8913.05
942.1835	2121.9575	9751.4	8871.7
942.3193	2123.4866	9772.45	8889
942.455	2125.0149	9714.25	8829.55
942.5907	2126.5426	9659.55	8780.25
942.7264	2128.0695	9666	8782.1
942.8621	2129.5956	9644.15	8766.2
942.9977	2131.1211	9620.6	8735.9
943.1333	2132.6458	9597.3	8721
943.2689	2134.1698	9582.4	8702.5
943.4044	2135.693	9539.8	8658.2
943.54	2137.2155	9522.9	8640.9
943.6755	2138.7373	9510.35	8630.25
943.8109	2140.2584	9478.5	8597.6
943.9464	2141.7787	9453.8	8568.8
944.0818	2143.2983	9391.6	8512.25
944.2172	2144.8171	9356.95	8476.95
944.3526	2146.3353	9350.45	8468.75
944.4879	2147.8527	9307.95	8427.5
944.6232	2149.3693	9310.6	8430.95
944.7585	2150.8853	9269.1	8389.7
944.8938	2152.4005	9234.85	8354.95
945.029	2153.9149	9229.3	8346.95
945.1642	2155.4287	9201.45	8321.25
945.2994	2156.9417	9177.25	8295.75
945.4346	2158.454	9144.95	8260.4
945.5697	2159.9655	9125.9	8245.2
945.7048	2161.4764	9102.45	8223.15
945.8399	2162.9865	9069.95	8190.95
945.9749	2164.4958	9068.9	8190.55
946.1099	2166.0045	9033.4	8150.5
946.2449	2167.5124	9006.5	8127.2
946.3799	2169.0195	8991.7	8113.6
946.5148	2170.526	8977.1	8096.9
946.6498	2172.0317	8945.15	8065.9
946.7846	2173.5367	8917.2	8036.5
946.9195	2175.0409	8916.75	8039.05
947.0543	2176.5445	8902.4	8024.1
947.1891	2178.0473	8870.5	7991.1
947.3239	2179.5494	8823.85	7941.4
947.4587	2181.0507	8789.45	7909.95
947.5934	2182.5513	8769.1	7888.75
947.7281	2184.0512	8753.65	7874.65
947.8628	2185.5504	8738.95	7859.15
947.9974	2187.0488	8679.2	7799.7
948.132	2188.5465	8644.5	7763.2
948.2666	2190.0435	8644.4	7764.8
948.4012	2191.5397	8598.9	7722.05
948.5357	2193.0353	8589.6	7711.25
948.6702	2194.5301	8527.45	7646.85
948.8047	2196.0241	8502.2	7621.35
948.9392	2197.5175	8483.7	7605.2
949.0736	2199.0101	8448.75	7565.4
949.208	2200.502	8435.25	7556.35
949.3424	2201.9931	8380.55	7499.9
949.4767	2203.4835	8366.95	7483.25
949.611	2204.9733	8351.8	7467.2
949.7453	2206.4622	8329.35	7451.2
949.8796	2207.9505	8297.7	7416.1
950.0138	2209.438	8259	7382.2
950.148	2210.9248	8241.4	7363
950.2822	2212.4109	8226.8	7345.35
950.4164	2213.8962	8203.75	7318.35
950.5505	2215.3809	8183.25	7302.75
950.6846	2216.8648	8161.05	7280.3
950.8186	2218.3479	8108.8	7225.85
950.9527	2219.8304	8098.2	7214.6
951.0867	2221.3121	8061.35	7179.9
951.2207	2222.7931	8045.6	7164.9
951.3546	2224.2733	8021.9	7139.7
951.4886	2225.7529	7990.1	7108.8
951.6225	2227.2317	7969.1	7084.9
951.7563	2228.7098	7954.95	7074.5
951.8902	2230.1872	7922.1	7042.35
952.024	2231.6638	7878	6998.4
952.1578	2233.1397	7855.05	6968.9
952.2916	2234.6149	7832.8	6953.4
952.4253	2236.0894	7822.8	6943.65
952.559	2237.5632	7817.95	6935.75
952.6927	2239.0362	7791.45	6910.3
952.8263	2240.5085	7760.1	6877.25
952.9599	2241.9801	7720.5	6837.65
953.0935	2243.4509	7701.8	6820.95
953.2271	2244.921	7678.2	6797.35
953.3606	2246.3904	7649.8	6766.1
953.4941	2247.8591	7627.15	6748.4
953.6276	2249.3271	7611.3	6730.7
953.7611	2250.7943	7578.65	6698.9
953.8945	2252.2608	7564.85	6682.75
954.0279	2253.7266	7545.2	6664.9
954.1612	2255.1917	7534.05	6653.85
954.2946	2256.656	7518.5	6636.15
954.4279	2258.1197	7478.55	6599.3
954.5612	2259.5826	7458.8	6575.55
954.6944	2261.0447	7433.85	6554.1
954.8276	2262.5062	7391.75	6511.2
954.9608	2263.9669	7381.85	6499.05
955.094	2265.4269	7387.35	6508.3
955.2271	2266.8862	7357.1	6476.85
955.3602	2268.3448	7361.7	6481.6
955.4933	2269.8026	7347.6	6466.45
955.6264	2271.2598	7286.6	6406.55
955.7594	2272.7162	7271.85	6393.5
955.8924	2274.1719	7259.7	6380.35
956.0253	2275.6268	7233.45	6353.8
956.1583	2277.0811	7221.2	6341.9
956.2912	2278.5346	7225.65	6347.2
956.4241	2279.9874	7209.75	6329
956.5569	2281.4395	7178.95	6301.4
956.6897	2282.8908	7162.6	6277.25
956.8225	2284.3414	7132	6249.8
956.9553	2285.7914	7115	6235.1
957.088	2287.2406	7082.5	6201.4
957.2207	2288.689	7095.3	6215.6
957.3534	2290.1368	7051.6	6170.45
957.486	2291.5838	7028.2	6146.55
957.6186	2293.0302	7002.85	6120.95
957.7512	2294.4758	6974.7	6096.85
957.8838	2295.9206	6951.1	6065.15
958.0163	2297.3648	6955.8	6076.15
958.1488	2298.8082	6963.85	6082.15
958.2813	2300.251	6908.05	6027.35
958.4137	2301.693	6880.45	5997.95
958.5461	2303.1343	6897.25	6015.4
958.6785	2304.5748	6861.55	5981.4
958.8108	2306.0147	6826.4	5945.6
958.9432	2307.4538	6834.1	5950.15
959.0754	2308.8922	6793	5914.65
959.2077	2310.3299	6773.95	5893.4
959.3399	2311.7669	6744.75	5864.5
959.4721	2313.2031	6736.75	5855.95
959.6043	2314.6387	6710.25	5830.3
959.7365	2316.0735	6691.7	5812.6
959.8686	2317.5076	6668	5787.85
960.0006	2318.941	6654.85	5775.6
960.1327	2320.3737	6632	5753.8
960.2647	2321.8056	6624.8	5743.25
960.3967	2323.2369	6608.35	5727.15
960.5287	2324.6674	6593.9	5711.25
960.6606	2326.0972	6571.65	5689.3
960.7925	2327.5263	6539.15	5658.55
960.9244	2328.9547	6517.85	5636.8
961.0562	2330.3823	6501.6	5620.2
961.1881	2331.8092	6506.4	5623.85
961.3198	2333.2355	6479.45	5600.8
961.4516	2334.661	6463.65	5582.5
961.5833	2336.0858	6453.05	5570.8
961.715	2337.5098	6444.8	5564.75
961.8467	2338.9332	6428.55	5548.7
961.9783	2340.3558	6392.45	5508.4
962.1099	2341.7778	6372.15	5491.45
962.2415	2343.199	6367.55	5484.5
962.373	2344.6195	6341.3	5459.7
962.5045	2346.0393	6319	5438.2
962.636	2347.4583	6316.7	5435.55
962.7675	2348.8767	6291.9	5412.2
962.8989	2350.2943	6259.45	5376.9
963.0303	2351.7113	6265.35	5382.75
963.1617	2353.1275	6228	5348.3
963.293	2354.543	6226.8	5338.35
963.4243	2355.9578	6228.95	5348.05
963.5556	2357.3718	6177.4	5295.85
963.6868	2358.7852	6142.35	5259.45
963.818	2360.1978	6135.65	5254.65
963.9492	2361.6098	6121.2	5239.95
964.0803	2363.021	6117.1	5232.45
964.2114	2364.4315	6088.65	5209.15
964.3425	2365.8413	6064.7	5176.85
964.4736	2367.2504	6052.4	5172.7
964.6046	2368.6587	6007.25	5124.55
964.7356	2370.0664	5992.25	5111.6
964.8666	2371.4733	5989.8	5110
964.9975	2372.8795	5982.2	5100.6
965.1284	2374.285	5966.5	5084.4
965.2593	2375.6899	5923.65	5041.25
965.3901	2377.0939	5907.35	5027.4
965.5209	2378.4973	5876.45	4995.6
965.6517	2379.9	5871.4	4989.2
965.7825	2381.3019	5857.55	4978.1
965.9132	2382.7032	5852.25	4972.9
966.0439	2384.1037	5817.25	4936.3
966.1745	2385.5035	5807.45	4926.8
966.3051	2386.9027	5801.4	4921.75
966.4357	2388.3011	5773.15	4891.05
966.5663	2389.6987	5763.2	4882.55
966.6968	2391.0957	5725.95	4845.15
966.8273	2392.492	5702.85	4822
966.9578	2393.8876	5689.45	4807.2
967.0882	2395.2824	5662	4781.5
967.2186	2396.6765	5643.4	4763.7
967.349	2398.07	5615.5	4733.05
967.4793	2399.4627	5606.95	4724.75
967.6097	2400.8547	5612	4730.2
967.7399	2402.246	5594.3	4708.75
967.8702	2403.6366	5561.65	4681.75
968.0004	2405.0265	5535.25	4655.05
968.1306	2406.4156	5505.2	4620.25
968.2607	2407.8041	5500	4616.9
968.3909	2409.1918	5475.95	4593.3
968.521	2410.5789	5441.5	4560.85
968.651	2411.9652	5428.35	4543.95
968.781	2413.3508	5408.55	4527.9
968.911	2414.7358	5401.85	4520.35
969.041	2416.12	5376.8	4498.05
969.1709	2417.5035	5373.55	4491.7
969.3008	2418.8863	5352	4469.1
969.4307	2420.2684	5327.3	4445.5
969.5606	2421.6497	5292.35	4411.95
969.6904	2423.0304	5265.35	4385.65
969.8201	2424.4104	5267.75	4386.65
969.9499	2425.7896	5244.15	4356.25
970.0796	2427.1682	5249.6	4369.1
970.2093	2428.546	5230.25	4347.5
970.3389	2429.9232	5200	4318.45
970.4685	2431.2996	5198.9	4317.25
970.5981	2432.6753	5185.45	4304.65
970.7277	2434.0503	5168.05	4287.1
970.8572	2435.4246	5154.95	4274.65
970.9867	2436.7982	5142.15	4260.6
971.1161	2438.1711	5134.55	4254.7
971.2456	2439.5433	5125.4	4242.3
971.375	2440.9148	5104.2	4216.8
971.5043	2442.2856	5057.7	4176.5
971.6336	2443.6557	5068.9	4186.35
971.7629	2445.025	5034.75	4153.8
971.8922	2446.3937	5033	4151.85
972.0214	2447.7617	5015.55	4134.6
972.1506	2449.1289	5015.6	4134.05
972.2798	2450.4955	4999.85	4116.5
972.4089	2451.8613	4985.9	4106.6
972.538	2453.2265	4971.15	4088.6
972.6671	2454.5909	4956.15	4073.7
972.7961	2455.9546	4944.75	4063.7
972.9251	2457.3177	4923.25	4044.1
973.0541	2458.68	4918.05	4035.6
973.1831	2460.0416	4906.45	4026.3
973.312	2461.4025	4908.9	4025.3
973.4408	2462.7627	4897.55	4005.45
973.5697	2464.1222	4866.35	3985.6
973.6985	2465.4811	4853.65	3973.95
973.8273	2466.8392	4850.7	3968.2
973.956	2468.1966	4841.05	3957.8
974.0847	2469.5533	4832.5	3949.85
974.2134	2470.9093	4814.2	3932.45
974.3421	2472.2645	4798.1	3917.65
974.4707	2473.6191	4779.9	3899.05
974.5993	2474.973	4754.45	3874.15
974.7278	2476.3262	4744.6	3861.5
974.8563	2477.6787	4727.1	3847.9
974.9848	2479.0305	4707.95	3829.25
975.1132	2480.3816	4684.5	3798.65
975.2417	2481.7319	4685.9	3806.05
975.37	2483.0816	4667.55	3786.35
975.4984	2484.4306	4643.1	3761.1
975.6267	2485.7789	4628.3	3746.95
975.755	2487.1264	4615.65	3735.25
975.8833	2488.4733	4596.2	3717.8
976.0115	2489.8195	4582	3693.2
976.1397	2491.165	4565.1	3680.9
976.2678	2492.5097	4545.65	3663.3
976.3959	2493.8538	4532.25	3652.05
976.524	2495.1972	4524.15	3643
976.6521	2496.5398	4503.65	3623.1
976.7801	2497.8818	4485.95	3601.75
976.9081	2499.2231	4467.9	3585.3
977.036	2500.5637	4461.2	3578.7
977.164	2501.9035	4452.8	3570.6
977.2918	2503.2427	4448.5	3564.2
977.4197	2504.5812	4428.8	3548.05
977.5475	2505.919	4403.3	3520.9
977.6753	2507.256	4391.6	3508.85
977.8031	2508.5924	4382	3500.65
977.9308	2509.9281	4378.1	3493.2
978.0585	2511.2631	4359	3477.75
978.1861	2512.5974	4350.45	3471.3
978.3137	2513.9309	4331.7	3450.2
978.4413	2515.2638	4341.6	3432.75
978.5689	2516.596	4314.8	3435
978.6964	2517.9275	4281.05	3397.65
978.8239	2519.2583	4277.35	3398.75
978.9513	2520.5884	4265.8	3384.15
979.0788	2521.9178	4258.85	3376.85
979.2062	2523.2465	4247.1	3367.35
979.3335	2524.5745	4219.85	3339.7
979.4608	2525.9018	4205.15	3324.85
979.5881	2527.2284	4192.25	3313.75
979.7154	2528.5543	4181.85	3301.45
979.8426	2529.8796	4183.1	3301.95
979.9698	2531.2041	4166.95	3285.1
980.0969	2532.5279	4164.5	3287.15
980.224	2533.851	4148.5	3267.55
980.3511	2535.1735	4138.4	3259.1
980.4781	2536.4952	4127.9	3247
980.6052	2537.8163	4118.85	3238.1
980.7321	2539.1366	4110.65	3230.8
980.8591	2540.4562	4087.35	3205.85
980.986	2541.7752	4092.05	3212.25
981.1129	2543.0935	4087.8	3207.15
981.2397	2544.411	4080.55	3198.25
981.3665	2545.7279	4070.45	3190.9
981.4933	2547.0441	4060.2	3178.15
981.62	2548.3596	4056.55	3173.85
981.7467	2549.6744	4038.9	3159.45
981.8734	2550.9885	4042.7	3151.35
982.0001	2552.3019	4029.1	3149.1
982.1267	2553.6146	4009.6	3127.75
982.2532	2554.9266	4021.7	3141.05
982.3798	2556.2379	3995.85	3114.4
982.5063	2557.5485	3970.4	3090.8
982.6327	2558.8585	3973.45	3085.9
982.7592	2560.1677	3969.7	3085.25
982.8856	2561.4762	3957.15	3075.35
983.0119	2562.7841	3957.95	3074.25
983.1383	2564.0913	3943	3062.75
983.2646	2565.3977	3933.4	3051.95
983.3908	2566.7035	3919.05	3037.8
983.517	2568.0086	3916.65	3033.15
983.6432	2569.313	3913.6	3032.25
983.7694	2570.6167	3909.55	3025.5
983.8955	2571.9197	3888.95	3008.65
984.0216	2573.222	3897.35	3012.5
984.1476	2574.5236	3883.3	3001.95
984.2737	2575.8246	3867.75	2981.8
984.3996	2577.1248	3877.05	2992.95
984.5256	2578.4244	3853.45	2972.6
984.6515	2579.7232	3853.1	2971.15
984.7774	2581.0214	3877.85	2972.7
984.9032	2582.3189	3843.45	2964.75
985.029	2583.6157	3828	2941.85
985.1548	2584.9118	3816.3	2936.2
985.2806	2586.2072	3817.2	2935.7
985.4063	2587.5019	3807.8	2927.85
985.5319	2588.7959	3786.45	2905.65
985.6576	2590.0893	3786.95	2904.05
985.7832	2591.3819	3769.4	2888.3
985.9087	2592.6739	3761.35	2883.05
986.0343	2593.9652	3737.7	2857.05
986.1597	2595.2557	3730.45	2850.6
986.2852	2596.5456	3719.7	2838.15
986.4106	2597.8348	3717.8	2838
986.536	2599.1234	3691	2812.6
986.6614	2600.4112	3674.35	2794.95
986.7867	2601.6983	3688.45	2805.05
986.912	2602.9848	3671.15	2790.65
987.0372	2604.2705	3652.2	2764
987.1624	2605.5556	3644.8	2764.5
987.2876	2606.84	3620.65	2738.3
987.4128	2608.1237	3612.7	2730.9
987.5379	2609.4067	3601.15	2719.35
987.6629	2610.689	3594.95	2705.8
987.788	2611.9707	3580.9	2697.7
987.913	2613.2516	3573.35	2686.65
988.0379	2614.5319	3544.55	2663.7
988.1629	2615.8115	3529.1	2646.9
988.2878	2617.0903	3530.25	2648.5
988.4126	2618.3685	3526.45	2645.3
988.5375	2619.6461	3507.3	2626.6
988.6622	2620.9229	3491.2	2611.2
988.787	2622.199	3491.15	2611.5
988.9117	2623.4745	3486.2	2603.95
989.0364	2624.7493	3480.6	2601.55
989.161	2626.0234	3458.55	2578.35
989.2857	2627.2968	3461.65	2580.9
989.4102	2628.5695	3425.1	2544.85
989.5348	2629.8415	3411	2531.15
989.6593	2631.1128	3400.55	2520.7
989.7837	2632.3835	3392.45	2511.25
989.9082	2633.6535	3382.4	2502.4
990.0326	2634.9228	3385.75	2507.5
990.1569	2636.1914	3367.45	2485.5
990.2812	2637.4593	3357.2	2471.45
990.4055	2638.7265	3342.2	2459.8
990.5298	2639.9931	3327.05	2444.95
990.654	2641.259	3334.6	2453.35
990.7782	2642.5242	3316.85	2438.05
990.9023	2643.7887	3304.1	2425
991.0264	2645.0525	3310.65	2430.15
991.1505	2646.3156	3290.95	2409.25
991.2745	2647.5781	3276.85	2396.65
991.3985	2648.8398	3263.35	2382.15
991.5225	2650.1009	3289.75	2372.35
991.6464	2651.3613	3263.6	2383.5
991.7703	2652.6211	3250	2369.3
991.8942	2653.8801	3225.85	2345.75
992.018	2655.1385	3239.25	2357.15
992.1418	2656.3961	3234.45	2352.7
992.2655	2657.6531	3217.9	2337.65
992.3892	2658.9094	3211.4	2329.35
992.5129	2660.1651	3228.9	2348.95
992.6366	2661.42	3198.85	2316.85
992.7602	2662.6743	3191.65	2310.2
992.8837	2663.9279	3185.15	2305.25
993.0073	2665.1808	3165.05	2283.6
993.1307	2666.433	3173.5	2293.4
993.2542	2667.6846	3155.05	2274.1
993.3776	2668.9354	3146.05	2261.95
993.501	2670.1856	3143.4	2262
993.6244	2671.4351	3125.5	2244.3
993.7477	2672.6839	3128.35	2245.1
993.8709	2673.9321	3116.65	2237.2
993.9942	2675.1795	3112.1	2231.45
994.1174	2676.4263	3105.2	2224.9
994.2405	2677.6724	3083.8	2204
994.3637	2678.9179	3083.5	2201.95
994.4868	2680.1626	3080.35	2200.1
994.6098	2681.4067	3074.2	2192.45
994.7328	2682.6501	3067.2	2186.05
994.8558	2683.8928	3059.6	2179.35
994.9788	2685.1348	3040.75	2161.8
995.1017	2686.3761	3028.45	2148.6
995.2245	2687.6168	3015.25	2135.8
995.3474	2688.8568	3010.65	2130.55
995.4702	2690.0961	2999.6	2122.5
995.5929	2691.3348	3003.95	2122.6
995.7156	2692.5727	2993.25	2113.2
995.8383	2693.81	2984.6	2103.7
995.961	2695.0466	2977.75	2098.9
996.0836	2696.2826	2962.85	2079.8
996.2062	2697.5178	2973.1	2073.55
996.3287	2698.7524	2960.9	2079.8
996.4512	2699.9863	2953.35	2071.8
996.5737	2701.2195	2914	2034.85
996.6961	2702.452	2931.1	2050.1
996.8185	2703.6839	2923.75	2041.65
996.9408	2704.9151	2914.9	2037.15
997.0631	2706.1456	2913.3	2032.2
997.1854	2707.3755	2909.35	2029.35
997.3077	2708.6046	2889.8	2008.6
997.4299	2709.8331	2887.15	2006.5
997.552	2711.0609	2867.35	1986.9
997.6742	2712.2881	2863.3	1984.05
997.7963	2713.5145	2869.75	1986.35
997.9183	2714.7403	2848.4	1967.9
998.0403	2715.9654	2843.85	1961.75
998.1623	2717.1899	2843.3	1946.45
998.2842	2718.4136	2832.25	1951.6
998.4062	2719.6367	2807.1	1926.15
998.528	2720.8591	2822.25	1933.5
998.6498	2722.0809	2810.5	1930.25
998.7716	2723.3019	2790.2	1906.3
998.8934	2724.5223	2779.5	1897.2
999.0151	2725.7421	2772.9	1892.55
999.1368	2726.9611	2779.15	1896.85
999.2584	2728.1795	2776.65	1889.55
999.38	2729.3972	2757.55	1878.8
999.5016	2730.6142	2747.15	1853.35
999.6231	2731.8306	2719.7	1838.9
999.7446	2733.0462	2725.05	1841.9
999.8661	2734.2612	2720.15	1833.25
999.9875	2735.4756	2690.7	1808.2
1000.1089	2736.6892	2700.4	1820.1
1000.2302	2737.9022	2700.6	1822.1
1000.3515	2739.1145	2687.3	1806.65
1000.4728	2740.3262	2684	1794
1000.594	2741.5372	2659.35	1778.3
1000.7152	2742.7475	2656.8	1777.15
1000.8363	2743.9571	2653.05	1770.25
1000.9575	2745.1661	2634.6	1751.15
1001.0785	2746.3744	2642.3	1758.4
1001.1996	2747.582	2619.2	1740
1001.3206	2748.7889	2622.1	1736.55
1001.4415	2749.9952	2620.65	1739.75
1001.5625	2751.2008	2609.1	1727.15
1001.6833	2752.4057	2606.75	1725.4
1001.8042	2753.61	2592.55	1710.1
1001.925	2754.8136	2577.15	1695.8
1002.0458	2756.0165	2579.05	1699.35
1002.1665	2757.2188	2565.8	1687.15
1002.2872	2758.4204	2560.8	1679.15
1002.4078	2759.6213	2556.05	1673.85
1002.5285	2760.8215	2554.05	1669.2
1002.649	2762.0211	2556.65	1674.45
1002.7696	2763.22	2540.05	1658
1002.8901	2764.4182	2536.9	1654.65
1003.0106	2765.6158	2531.8	1649.9
1003.131	2766.8127	2524.2	1643.55
1003.2514	2768.009	2515.25	1635.55
1003.3717	2769.2045	2512.85	1632.7
1003.492	2770.3994	2499.25	1615.85
1003.6123	2771.5936	2494.05	1614.15
1003.7325	2772.7872	2482.2	1602.9
1003.8527	2773.9801	2477.45	1594
1003.9729	2775.1723	2485.05	1588.8
1004.093	2776.3639	2468.1	1589.85
1004.2131	2777.5548	2463.55	1580.1
1004.3331	2778.745	2442.7	1561.4
1004.4531	2779.9346	2458.6	1576.6
1004.5731	2781.1235	2444.85	1563.85
1004.693	2782.3117	2437	1555.3
1004.8129	2783.4992	2428.5	1549.9
1004.9328	2784.6861	2425.6	1545.8
1005.0526	2785.8723	2416.9	1534.25
1005.1723	2787.0579	2408.7	1525.15
1005.2921	2788.2428	2401.2	1521.25
1005.4118	2789.427	2391.95	1510.6
1005.5314	2790.6106	2387.9	1508.2
1005.651	2791.7935	2383.6	1501.35
1005.7706	2792.9757	2364.4	1485.05
1005.8902	2794.1573	2360.7	1479.35
1006.0097	2795.3382	2344.15	1464.3
1006.1291	2796.5184	2354.5	1475.25
1006.2485	2797.698	2342.9	1460.05
1006.3679	2798.8769	2337.75	1459.55
1006.4873	2800.0551	2326.15	1445.3
1006.6066	2801.2327	2319.65	1437.75
1006.7258	2802.4096	2314.55	1435.85
1006.8451	2803.5859	2309.4	1429
1006.9642	2804.7615	2306.5	1424.05
1007.0834	2805.9364	2298.25	1418.25
1007.2025	2807.1106	2298.1	1418.55
1007.3216	2808.2842	2291.15	1411.15
1007.4406	2809.4572	2282.5	1402
1007.5596	2810.6294	2283	1402.35
1007.6785	2811.801	2278.25	1397.4
1007.7975	2812.972	2274.85	1395.4
1007.9163	2814.1423	2283	1403.75
1008.0352	2815.3119	2263.3	1381.8
1008.154	2816.4808	2283.5	1403.85
1008.2727	2817.6491	2275.2	1392.75
1008.3914	2818.8167	2271.3	1392
1008.5101	2819.9837	2271.05	1387.75
1008.6288	2821.15	2260.15	1378.65
1008.7474	2822.3157	2269.05	1390.1
1008.8659	2823.4807	2280.75	1398.2
1008.9844	2824.645	2275.8	1396.1
1009.1029	2825.8086	2281	1401.1
1009.2214	2826.9716	2294.75	1413.85
1009.3398	2828.134	2301.45	1424.75
1009.4581	2829.2957	2311.1	1431.25
1009.5764	2830.4567	2305.75	1426.45
1009.6947	2831.617	2306.65	1426.15
1009.813	2832.7767	2299.9	1418.55
1009.9312	2833.9358	2302.3	1422.9
1010.0493	2835.0941	2290.7	1407.95
1010.1675	2836.2519	2283.25	1403.55
1010.2855	2837.4089	2284.2	1403.95
1010.4036	2838.5653	2273.6	1392
1010.5216	2839.7211	2259.8	1380.2
1010.6396	2840.8761	2260.5	1379.05
1010.7575	2842.0306	2261.95	1383.45
1010.8754	2843.1843	2258.85	1377.9
1010.9932	2844.3374	2244.8	1363.45
1011.111	2845.4899	2251.3	1369.05
1011.2288	2846.6417	2244.75	1365.95
1011.3465	2847.7928	2243.1	1364.05
1011.4642	2848.9433	2237.4	1357.1
1011.5818	2850.0931	2237.75	1358.1
1011.6995	2851.2422	2222	1339.65
1011.817	2852.3907	2224.6	1342.3
1011.9345	2853.5385	2227.65	1347.15
1012.052	2854.6857	2227.35	1337.3
1012.1695	2855.8323	2215.9	1336.8
1012.2869	2856.9781	2215.25	1335.25
1012.4042	2858.1233	2211.6	1331.65
1012.5216	2859.2679	2218.1	1338.2
1012.6389	2860.4118	2212.8	1331.75
1012.7561	2861.555	2219.15	1332.45
1012.8733	2862.6976	2211.1	1328.2
1012.9905	2863.8395	2203.3	1323.05
1013.1076	2864.9808	2200.55	1320.9
1013.2247	2866.1214	2207.5	1328.3
1013.3417	2867.2614	2212.3	1333.05
1013.4587	2868.4007	2198.4	1319.55
1013.5757	2869.5393	2199.1	1317.45
1013.6926	2870.6773	2192.7	1309.9
1013.8095	2871.8146	2200.55	1315.55
1013.9263	2872.9513	2190.7	1309.05
1014.0431	2874.0874	2187.35	1307.5
1014.1599	2875.2227	2184.65	1304.4
1014.2766	2876.3574	2179.1	1298.45
1014.3933	2877.4915	2182.1	1302.3
1014.51	2878.6249	2176.7	1299.15
1014.6266	2879.7577	2165.75	1284.4
1014.7431	2880.8898	2170.85	1279.3
1014.8596	2882.0212	2163.65	1283.75
1014.9761	2883.152	2168.4	1288.55
1015.0925	2884.2821	2159.55	1279.65
1015.2089	2885.4116	2157	1278.8
1015.3253	2886.5405	2158.85	1278.05
1015.4416	2887.6686	2152.2	1269.05
1015.5579	2888.7962	2152.15	1275
1015.6741	2889.923	2131.75	1251.85
1015.7903	2891.0493	2128.3	1247.9
1015.9065	2892.1748	2124.95	1243.3
1016.0226	2893.2997	2120.55	1238.8
1016.1387	2894.424	2125.65	1244.6
1016.2547	2895.5476	2122.05	1240.95
1016.3707	2896.6706	2109.65	1229.8
1016.4866	2897.7929	2119.45	1240.1
1016.6025	2898.9145	2112.35	1232.85
1016.7184	2900.0355	2104.25	1223.25
1016.8342	2901.1559	2087.65	1206.6
1016.95	2902.2756	2086.35	1206.7
1017.0658	2903.3946	2081.2	1201.1
1017.1815	2904.513	2085.8	1201.7
1017.2971	2905.6308	2074.5	1193.9
1017.4127	2906.7479	2062.3	1181.3
1017.5283	2907.8643	2065.85	1184.3
1017.6439	2908.9801	2064.5	1183.65
1017.7594	2910.0953	2056.65	1176.95
1017.8748	2911.2098	2044.8	1161.05
1017.9902	2912.3236	2046.05	1160.7
1018.1056	2913.4368	2032.8	1150.05
1018.2209	2914.5494	2028.15	1146.95
1018.3362	2915.6613	2032.1	1146.65
1018.4515	2916.7725	2024	1139.9
1018.5667	2917.8831	2026.95	1145.6
1018.6819	2918.9931	2009.6	1125.5
1018.797	2920.1024	2000.65	1119.25
1018.9121	2921.211	1988.45	1109.1
1019.0271	2922.319	1990.95	1108.95
1019.1421	2923.4264	1977.25	1099.3
1019.2571	2924.5331	1978.9	1100.1
1019.372	2925.6391	1973.5	1094.1
1019.4869	2926.7445	1960.7	1080.45
1019.6017	2927.8493	1962.05	1080.5
1019.7165	2928.9534	1954.95	1075.55
1019.8313	2930.0569	1968.25	1082.55
1019.946	2931.1597	1952	1070.35
1020.0606	2932.2619	1952	1073.85
1020.1753	2933.3634	1960.3	1079.15
1020.2899	2934.4643	1956.8	1069.4
1020.4044	2935.5645	1964.3	1077.5
1020.5189	2936.6641	1949.4	1066.35
1020.6334	2937.763	1940.25	1061.55
1020.7478	2938.8613	1944.2	1063.2
1020.8622	2939.959	1945.3	1059.5
1020.9765	2941.056	1934.8	1055
1021.0908	2942.1523	1916.35	1036.05
1021.2051	2943.248	1908.65	1027.75
1021.3193	2944.3431	1886.25	1006.95
1021.4334	2945.4375	1882.75	1000.9
1021.5476	2946.5313	1861.1	981.75
1021.6617	2947.6244	1849.35	968.25
1021.7757	2948.7169	1835.85	954
1021.8897	2949.8087	1824.3	943.55
1022.0037	2950.8999	1810.8	931.05
1022.1176	2951.9904	1800.75	919.6
1022.2315	2953.0803	1798.55	919.4
1022.3453	2954.1696	1773.7	894.5
1022.4591	2955.2582	1778.85	897.75
1022.5728	2956.3462	1769.35	889.95
1022.6865	2957.4335	1761.65	881.45
1022.8002	2958.5202	1756	875.25
1022.9138	2959.6062	1766.75	887.15
1023.0274	2960.6916	1744.35	864.6
1023.141	2961.7764	1747	866.2
1023.2545	2962.8605	1741.85	862.85
1023.3679	2963.9439	1739.1	856.8
1023.4813	2965.0267	1739.4	857.25
1023.5947	2966.1089	1750.7	847.3
1023.708	2967.1905	1727.3	847.7
1023.8213	2968.2714	1724.4	842.3
1023.9346	2969.3516	1721.8	841.7
1024.0478	2970.4312	1719	833.1
1024.1609	2971.5102	1710.8	830.75
1024.274	2972.5885	1697.4	817.2
1024.3871	2973.6662	1702.15	817.8
1024.5002	2974.7432	1705.45	826.8
1024.6132	2975.8196	1689.25	809.55
1024.7261	2976.8954	1692.4	812.65
1024.839	2977.9705	1690.75	809.65
1024.9519	2979.045	1685.35	807.1
1025.0647	2980.1188	1678.25	797.75
1025.1775	2981.192	1676.75	798.6
1025.2902	2982.2645	1671.45	789.3
1025.4029	2983.3364	1672	791.6
1025.5156	2984.4077	1662.4	782
1025.6282	2985.4783	1663.4	778.8
1025.7407	2986.5483	1653.55	773.7
1025.8532	2987.6177	1640.1	760.45
1025.9657	2988.6864	1637.25	755.3
1026.0782	2989.7545	1633.95	752.25
1026.1906	2990.8219	1631.4	750.45
1026.3029	2991.8887	1625.65	743.25
1026.4152	2992.9548	1624.55	744.35
1026.5275	2994.0204	1612.65	733.05
1026.6397	2995.0852	1609	729
1026.7519	2996.1495	1597.35	715.95
1026.864	2997.2131	1587.6	707.45
1026.9761	2998.276	1587.4	707.75
1027.0882	2999.3383	1579.8	700.6
1027.2002	3000.4	1576.75	697
1027.3122	3001.4611	1571.85	690.9
1027.4241	3002.5215	1570.1	690.1
1027.536	3003.5812	1561.55	682.95
1027.6478	3004.6404	1561.5	680.95
1027.7596	3005.6989	1556.3	675.75
1027.8714	3006.7567	1553.3	672.05
1027.9831	3007.8139	1567.9	668.3
1028.0947	3008.8705	1538.7	659.15
1028.2064	3009.9264	1545.55	663.1
1028.3179	3010.9818	1540.1	660
1028.4295	3012.0364	1535.55	654.35
1028.541	3013.0905	1526.55	646.45
1028.6524	3014.1439	1529.2	647.65
1028.7638	3015.1966	1525.65	647.05
1028.8752	3016.2487	1523.15	643.05
1028.9865	3017.3002	1519.85	638
1029.0978	3018.3511	1514.45	635.75
1029.209	3019.4013	1510.5	630.55
1029.3202	3020.4509	1509.85	630.3
1029.4314	3021.4998	1512.9	632.55
1029.5425	3022.5481	1501.6	621.7
1029.6535	3023.5958	1499.5	622.3
1029.7645	3024.6428	1497.15	616.15
1029.8755	3025.6892	1491.55	610.1
1029.9864	3026.735	1487.4	607.5
1030.0973	3027.7802	1484.75	604.6
1030.2082	3028.8247	1489.35	608.75
1030.319	3029.8685	1480.1	599.2
1030.4297	3030.9118	1479.5	599.4
1030.5404	3031.9544	1473.9	593.8
1030.6511	3032.9963	1465.7	585.05
1030.7617	3034.0376	1469.95	591.8
1030.8723	3035.0783	1472.1	591.25
1030.9829	3036.1184	1466.9	585.35
1031.0934	3037.1578	1456.45	578.1
1031.2038	3038.1966	1457.45	573.3
1031.3142	3039.2348	1455.1	575.2
1031.4246	3040.2723	1465.75	577.35
1031.5349	3041.3092	1456.55	577.65
1031.6452	3042.3455	1451.1	572
1031.7554	3043.3811	1449.2	568.2
1031.8656	3044.4161	1450.7	570.15
1031.9758	3045.4505	1445.3	566.45
1032.0859	3046.4842	1451.5	571.95
1032.1959	3047.5173	1445.65	569.1
1032.3059	3048.5498	1434.3	554
1032.4159	3049.5816	1438.7	559.15
1032.5258	3050.6128	1435.45	553.9
1032.6357	3051.6434	1431.7	548.8
1032.7455	3052.6734	1435.35	555.5
1032.8553	3053.7027	1428.15	548.65
1032.9651	3054.7314	1428.8	548.6
1033.0748	3055.7594	1423.5	543.65
1033.1845	3056.7868	1415.45	531.15
1033.2941	3057.8136	1425.8	546.1
1033.4037	3058.8398	1410.5	532.5
1033.5132	3059.8653	1413.25	534.55
1033.6227	3060.8902	1412.1	530.9
1033.7321	3061.9145	1415.9	536.4
1033.8415	3062.9381	1406.05	525.85
1033.9509	3063.9612	1429.65	533.45
1034.0602	3064.9835	1409.55	528.35
1034.1694	3066.0053	1407.85	524.45
1034.2787	3067.0264	1404.65	523.2
1034.3878	3068.0469	1396.05	515.5
1034.497	3069.0668	1396.8	514.2
1034.6061	3070.086	1394.95	516.55
1034.7151	3071.1046	1400.15	519.4
1034.8241	3072.1226	1394	512.05
1034.9331	3073.1399	1385.1	505.3
1035.042	3074.1567	1383.75	503.5
1035.1508	3075.1727	1384.2	502.7
1035.2597	3076.1882	1386.2	505.2
1035.3684	3077.203	1378.05	497.45
1035.4772	3078.2173	1382.9	501
1035.5859	3079.2308	1378.3	497.05
1035.6945	3080.2438	1372.7	491.45
1035.8031	3081.2561	1366.5	486.8
1035.9117	3082.2678	1365.25	485.3
1036.0202	3083.2789	1367.65	487.6
1036.1286	3084.2893	1362.25	484.2
1036.2371	3085.2991	1360.55	480.7
1036.3454	3086.3083	1365.75	482.4
1036.4538	3087.3169	1353.8	472
1036.562	3088.3248	1364.65	481.7
1036.6703	3089.3321	1353.6	472.6
1036.7785	3090.3388	1348.95	470.25
1036.8866	3091.3449	1340.55	460.55
1036.9948	3092.3503	1342.8	459.9
1037.1028	3093.3551	1336.05	458.15
1037.2108	3094.3593	1338.35	460.25
1037.3188	3095.3629	1336.05	457.65
1037.4267	3096.3658	1334.15	454
1037.5346	3097.3681	1327.85	449
1037.6425	3098.3698	1327.65	445.65
1037.7503	3099.3708	1331.6	443.7
1037.858	3100.3713	1326.2	447
1037.9657	3101.3711	1320.35	437.9
1038.0734	3102.3702	1445.7	430.3
1038.181	3103.3688	1325.4	441.35
1038.2886	3104.3667	1314.5	434.8
1038.3961	3105.364	1307.6	429.85
1038.5036	3106.3607	1306.8	425.05
1038.611	3107.3568	1299.65	419.25
1038.7184	3108.3522	1301.35	420.55
1038.8257	3109.347	1301	420.8
1038.933	3110.3412	1308	424.25
1039.0403	3111.3348	1295.05	417.3
1039.1475	3112.3277	1291.25	411.9
1039.2547	3113.32	1289.4	410.95
1039.3618	3114.3117	1283.9	403.2
1039.4689	3115.3028	1280.35	399.3
1039.5759	3116.2932	1288.3	404.6
1039.6829	3117.2831	1287.85	403.5
1039.7898	3118.2723	1279.5	399.35
1039.8967	3119.2608	1272.9	394.4
1040.0035	3120.2488	1275.7	394.7
1040.1103	3121.2361	1269.1	388.55
1040.2171	3122.2229	1271.9	391.55
1040.3238	3123.209	1271.3	392.4
1040.4305	3124.1944	1267.55	389.85
1040.5371	3125.1793	1265.95	385.85
1040.6437	3126.1635	1260.5	379.5
1040.7502	3127.1471	1261	381.05
1040.8567	3128.1301	1255.65	375.65
1040.9631	3129.1125	1257.45	379
1041.0695	3130.0942	1251.4	371.85
1041.1759	3131.0753	1259.15	371.55
1041.2822	3132.0558	1250.05	367
1041.3884	3133.0357	1248.75	367.9
1041.4946	3134.015	1244.15	364
1041.6008	3134.9936	1249.35	367.6
1041.7069	3135.9716	1271.35	371.3
1041.813	3136.949	1242.45	364.25
1041.919	3137.9258	1242.1	354.9
1042.025	3138.902	1245.4	360.95
1042.1309	3139.8775	1239.95	361.75
1042.2368	3140.8524	1237.6	359.4
1042.3427	3141.8267	1231.9	350.2
1042.4485	3142.8004	1229.95	350.5
1042.5542	3143.7735	1239.1	354.1
1042.6599	3144.7459	1228.05	345.8
1042.7656	3145.7178	1233.5	351.6
1042.8712	3146.689	1223.85	346
1042.9768	3147.6596	1225.75	344.25
1043.0823	3148.6295	1225.1	344.55
1043.1878	3149.5989	1226.05	347.2
1043.2932	3150.5676	1216.9	337.5
1043.3986	3151.5357	1220.65	343.25
1043.5039	3152.5032	1213.7	333.1
1043.6092	3153.4701	1214.65	333.85
1043.7145	3154.4364	1214.05	330.55
1043.8197	3155.402	1209.25	330.7
1043.9248	3156.367	1210.35	329.45
1044.03	3157.3315	1243.15	325.6
1044.135	3158.2952	1200.05	317.95
1044.24	3159.2584	1199.4	320.45
1044.345	3160.221	1202.2	321.45
1044.4499	3161.1829	1195	315.1
1044.5548	3162.1442	1197.1	315.9
1044.6596	3163.105	1194.75	315.3
1044.7644	3164.065	1190	309.05
1044.8692	3165.0245	1193.9	311.3
1044.9739	3165.9834	1189.2	310.35
1045.0785	3166.9416	1189	311.05
1045.1831	3167.8993	1186	306.15
1045.2877	3168.8563	1186.45	306.35
1045.3922	3169.8127	1186.85	305.9
1045.4966	3170.7684	1186.05	305.35
1045.6011	3171.7236	1179	298.45
1045.7054	3172.6782	1184.05	304.65
1045.8098	3173.6321	1175.65	296.3
1045.914	3174.5854	1181.7	296.15
1046.0183	3175.5381	1178.45	299.9
1046.1224	3176.4902	1171.3	292.6
1046.2266	3177.4417	1168.25	288
1046.3307	3178.3926	1167.5	288.1
1046.4347	3179.3428	1170.9	292.1
1046.5387	3180.2924	1166.6	286.3
1046.6427	3181.2415	1162.9	283.95
1046.7466	3182.1899	1164.9	282
1046.8504	3183.1377	1157.1	277.6
1046.9542	3184.0848	1159.85	275.15
1047.058	3185.0314	1158.5	277.15
1047.1617	3185.9773	1153.2	272.9
1047.2654	3186.9227	1153.45	273.1
1047.369	3187.8674	1157.75	278
1047.4726	3188.8115	1154.5	269.85
1047.5761	3189.755	1152.7	273.95
1047.6796	3190.6979	1152	272.3
1047.783	3191.6402	1142.35	264.65
1047.8864	3192.5818	1139.8	259.05
1047.9898	3193.5229	1148.35	263.4
1048.0931	3194.4633	1142.65	262.6
1048.1963	3195.4031	1143.9	262.85
1048.2995	3196.3423	1134.8	254.85
1048.4027	3197.2809	1138.7	259.75
1048.5058	3198.2189	1137.8	258.85
1048.6089	3199.1563	1146.75	262.85
1048.7119	3200.0931	1134.75	256.05
1048.8148	3201.0292	1132.05	255.95
1048.9178	3201.9648	1133.25	253.75
1049.0206	3202.8997	1135.25	253.05
1049.1235	3203.834	1128.5	247.9
1049.2262	3204.7677	1122.9	242.6
1049.329	3205.7008	1127.1	244.45
1049.4317	3206.6333	1124.05	245.15
1049.5343	3207.5652	1130.25	247.75
1049.6369	3208.4964	1124.9	245.4
1049.7394	3209.4271	1122	242.25
1049.8419	3210.3571	1117.6	237.15
1049.9444	3211.2865	1122.2	241.3
1050.0468	3212.2154	1122.4	242.2
1050.1491	3213.1436	1121.5	237
1050.2514	3214.0712	1123.95	236.35
1050.3537	3214.9982	1114.8	234.4
1050.4559	3215.9246	1112.8	231.75
1050.5581	3216.8503	1115.75	236.7
1050.6602	3217.7755	1108.55	227.75
1050.7623	3218.7001	1108.85	228.25
1050.8643	3219.624	1109.85	229.25
1050.9663	3220.5473	1110.4	230.95
1051.0682	3221.4701	1108.3	230.65
1051.1701	3222.3922	1107.75	226.9
1051.2719	3223.3137	1104.05	224.9
1051.3737	3224.2346	1106.15	226.25
1051.4754	3225.1549	1100.15	219.9
1051.5771	3226.0746	1099.25	218.9
1051.6788	3226.9937	1102.1	223
1051.7804	3227.9121	1097.25	220.1
1051.8819	3228.83	1093.5	211.3
1051.9834	3229.7473	1094.8	214.65
1052.0849	3230.6639	1097.3	216.5
1052.1863	3231.5799	1094.6	214.45
1052.2876	3232.4954	1099.25	217.7
1052.3889	3233.4102	1094.15	216.9
1052.4902	3234.3244	1093.25	212.95
1052.5914	3235.238	1087.6	207.6
1052.6926	3236.151	1110.9	208.4
1052.7937	3237.0634	1081.9	202.1
1052.8948	3237.9752	1084.95	205.35
1052.9958	3238.8864	1084.45	205.35
1053.0968	3239.797	1085.2	204.95
1053.1977	3240.7069	1085.3	204.1
1053.2986	3241.6163	1084.65	203.75
1053.3994	3242.5251	1075.85	197
1053.5002	3243.4332	1076.6	198
1053.6009	3244.3408	1073.95	193.4
1053.7016	3245.2477	1076.5	198.15
1053.8022	3246.154	1078.8	197.5
1053.9028	3247.0598	1072.5	191.85
1054.0034	3247.9649	1070.45	187.75
1054.1039	3248.8694	1069.15	192.05
1054.2043	3249.7733	1068.05	187.3
1054.3047	3250.6766	1066.8	186.65
1054.4051	3251.5793	1071.2	190.8
1054.5054	3252.4814	1068.1	186.45
1054.6056	3253.3829	1061.85	182.6
1054.7058	3254.2838	1059.35	181.3
1054.806	3255.1841	1062.95	186.3
1054.9061	3256.0838	1061.25	181.75
1055.0061	3256.9829	1056.4	176.7
1055.1062	3257.8814	1063.7	181.65
1055.2061	3258.7792	1055.45	172.7
1055.306	3259.6765	1053.7	174.05
1055.4059	3260.5731	1053.7	173.55
1055.5057	3261.4692	1050.85	171.45
1055.6055	3262.3647	1052.7	172.55
1055.7052	3263.2595	1045.2	166.45
1055.8049	3264.1538	1040.25	160.2
1055.9045	3265.0474	1040	160.95
1056.0041	3265.9404	1037.55	156.65
1056.1036	3266.8329	1036.4	159.35
1056.2031	3267.7247	1044.2	155.8
1056.3025	3268.616	1034.1	155.5
1056.4019	3269.5066	1025	142.5
1056.5013	3270.3966	1026.7	143.25
1056.6005	3271.286	1015.05	135.85
