Software Version:	3.9.2.0
Unit SN:	10000200
Spectrometer SN:	6960
Date:	3/6/2024 10:16:01 AM
Data Line Index:	25
Spectral Points:	2048
Integration time (ms):	125
Averages:	20
Delay (ms):	30
Sequence Number:	1
Processing:	dark subtract
Laser Power (mW):	305
Laser Current (mA):	825
Laser Diode Temp (C):	25.1
Laser Case Temp (C):	25.1
System Temp (C):	24.8
Spectrometer Temp (C):	22.4
CCD Temp (C):	0.002
Secondary Temp (C):	20.047
Heatsink Temp (C):	19.604
CCDPCB Temp (C):	31.883
SecondaryPCB Temp (C):	25.602

Wavelength	RamanShift	Raw Counts	Dark Subtracted
787.061	30.1047	873.6	464.45
787.2016	32.3739	894.5	487.65
787.3422	34.6426	921.7	512.45
787.4828	36.9109	946.8	536.8
787.6235	39.1787	992.25	579.1
787.7642	41.4461	1020.85	602.8
787.9049	43.7131	1063.25	641.25
788.0456	45.9796	1101.4	675.6
788.1863	48.2456	1153.2	725.5
788.3271	50.5112	1197.2	763.55
788.4679	52.7764	1248	812.4
788.6087	55.0411	1298.1	859.8
788.7496	57.3054	1350.35	906
788.8904	59.5692	1393.3	948.4
789.0313	61.8326	1466.3	1018.2
789.1722	64.0955	1530.1	1078.3
789.3132	66.3579	1611.8	1155.8
789.4541	68.6199	1726.9	1265.95
789.5951	70.8815	1909.6	1443.7
789.7361	73.1426	2282.85	1813.15
789.8771	75.4032	3243.15	2770.4
790.0181	77.6634	5716.6	5241.65
790.1592	79.9231	11923.55	11443.95
790.3003	82.1824	31654.7	31165.25
790.4414	84.4412	61969.9	61466.2
790.5825	86.6995	65535	65011.35
790.7237	88.9574	65535	64997.05
790.8648	91.2148	65535	64984.35
791.006	93.4717	65535	64978.45
791.1472	95.7282	65535	64974.4
791.2885	97.9842	65535	64970.95
791.4297	100.2398	65535	64969.1
791.571	102.4949	65535	64966.6
791.7123	104.7495	65535	64961.6
791.8536	107.0036	65535	64960.35
791.9949	109.2573	65535	64964.65
792.1363	111.5105	65535	64959.9
792.2777	113.7632	65535	64957.6
792.4191	116.0154	65535	64946.55
792.5605	118.2672	65535	64955.65
792.7019	120.5185	65535	64951.25
792.8434	122.7693	65535	64952.25
792.9849	125.0197	65535	64943.45
793.1264	127.2696	65535	64939.75
793.2679	129.519	65535	64932.65
793.4094	131.7679	65535	64935.95
793.551	134.0163	65535	64932
793.6926	136.2642	65535	64928.35
793.8342	138.5117	65535	64924.95
793.9758	140.7587	65535	64927.15
794.1175	143.0052	65535	64919.7
794.2591	145.2512	65535	64920.85
794.4008	147.4967	65535	64919.65
794.5425	149.7417	65535	64914.9
794.6842	151.9863	65535	64911.6
794.826	154.2304	65535	64909.95
794.9677	156.4739	65535	64902.95
795.1095	158.717	65535	64904.3
795.2513	160.9596	65535	64898.15
795.3931	163.2017	65535	64896.65
795.535	165.4433	65535	64893.3
795.6768	167.6844	65535	64891.75
795.8187	169.925	65535	64893.2
795.9606	172.1651	65535	64886.85
796.1025	174.4047	65535	64881.65
796.2445	176.6439	65535	64880.35
796.3864	178.8825	65535	64876.9
796.5284	181.1206	65535	64875.35
796.6704	183.3582	65535	64871.5
796.8124	185.5954	65535	64870.8
796.9544	187.832	65535	64866.45
797.0965	190.0681	65535	64864.65
797.2386	192.3037	65535	64860.9
797.3806	194.5388	65535	64854.1
797.5228	196.7734	65535	64854.35
797.6649	199.0075	65535	64854.25
797.807	201.2411	65535	64851.25
797.9492	203.4742	65535	64852.1
798.0914	205.7068	65535	64844.15
798.2336	207.9389	65535	64843.85
798.3758	210.1704	65535	64851.15
798.518	212.4015	65535	64862.65
798.6603	214.632	65535	64867.35
798.8025	216.862	65535	64869.3
798.9448	219.0915	65535	64865.55
799.0871	221.3205	65535	64860.05
799.2294	223.549	65535	64867.9
799.3718	225.777	65535	64865.3
799.5141	228.0044	65535	64858.6
799.6565	230.2314	65535	64858.4
799.7989	232.4578	65535	64854.2
799.9413	234.6837	65535	64846.5
800.0837	236.909	65535	64838.5
800.2262	239.1339	65535	64821.2
800.3687	241.3582	65535	64835.7
800.5111	243.582	65535	64804.9
800.6536	245.8053	65535	64816.65
800.7961	248.0281	65535	64820.45
800.9387	250.2503	65535	64815.8
801.0812	252.472	65535	64813.45
801.2238	254.6932	65535	64818.25
801.3664	256.9139	65535	64817.5
801.509	259.134	65535	64810.6
801.6516	261.3536	65535	64815.85
801.7942	263.5727	65535	64812.4
801.9369	265.7912	65535	64812.1
802.0795	268.0092	65535	64810.95
802.2222	270.2267	65535	64812.25
802.3649	272.4436	65535	64806.9
802.5076	274.6601	65535	64797.1
802.6504	276.8759	65535	64804.05
802.7931	279.0913	65535	64802.7
802.9359	281.3061	65535	64796.75
803.0787	283.5204	65535	64796.5
803.2215	285.7341	65535	64793.25
803.3643	287.9473	65535	64783.95
803.5071	290.16	65535	64791.25
803.6499	292.3721	65535	64796.5
803.7928	294.5837	65535	64794.4
803.9357	296.7947	65535	64796.15
804.0786	299.0052	65535	64795
804.2215	301.2152	65535	64791.1
804.3644	303.4246	65535	64794.3
804.5074	305.6334	65535	64792.7
804.6503	307.8418	65535	64788.55
804.7933	310.0495	65535	64791.4
804.9363	312.2568	65535	64788.5
805.0793	314.4635	65535	64784.75
805.2223	316.6696	65535	64783.75
805.3653	318.8752	65535	64775.8
805.5084	321.0802	65535	64779.95
805.6514	323.2847	65535	64780.3
805.7945	325.4887	65535	64779.4
805.9376	327.692	65535	64779.45
806.0807	329.8949	65535	64777.6
806.2238	332.0972	65535	64776.5
806.367	334.2989	65535	64774.6
806.5101	336.5001	65535	64773.2
806.6533	338.7007	65535	64771.55
806.7965	340.9008	65535	64769.75
806.9397	343.1003	65535	64768.55
807.0829	345.2992	65535	64769.75
807.2261	347.4976	65535	64765.65
807.3693	349.6955	65535	64764.25
807.5126	351.8927	65535	64761.85
807.6559	354.0895	65535	64751.4
807.7991	356.2856	65535	64757.95
807.9424	358.4812	65535	64759.8
808.0857	360.6763	65535	64755.3
808.2291	362.8707	65535	64752.7
808.3724	365.0646	65535	64748.7
808.5158	367.258	65535	64747.1
808.6591	369.4508	65535	64748.55
808.8025	371.643	65535	64746.7
808.9459	373.8346	65535	64745
809.0893	376.0257	65535	64743.35
809.2327	378.2162	65535	64744.25
809.3762	380.4062	65535	64744.2
809.5196	382.5956	65535	64745.15
809.6631	384.7844	65535	64748.9
809.8066	386.9726	65535	64749.5
809.9501	389.1603	65535	64751.05
810.0936	391.3474	65535	64710.05
810.2371	393.5339	65535	64750.3
810.3806	395.7199	65535	64751.9
810.5241	397.9052	65535	64750
810.6677	400.09	65535	64746.85
810.8113	402.2743	65535	64746.25
810.9548	404.4579	65535	64747.2
811.0984	406.641	65535	64742.6
811.2421	408.8235	65535	64743.35
811.3857	411.0054	65535	64740.6
811.5293	413.1868	65535	64737.7
811.673	415.3675	65535	64734.7
811.8166	417.5477	65535	64735.25
811.9603	419.7273	65535	64730.1
812.104	421.9064	65535	64722.6
812.2477	424.0848	65535	64731.7
812.3914	426.2627	65535	64732.7
812.5351	428.4399	65535	64732.15
812.6788	430.6166	65535	64722.65
812.8226	432.7928	65535	64720.65
812.9663	434.9683	65535	64724.45
813.1101	437.1432	65535	64721.95
813.2539	439.3176	65535	64723.35
813.3977	441.4914	65535	64724.85
813.5415	443.6645	65535	64722.95
813.6853	445.8371	65535	64722.95
813.8291	448.0091	65535	64724.2
813.973	450.1806	65535	64722.85
814.1168	452.3514	65535	64721.85
814.2607	454.5216	65535	64710.1
814.4046	456.6913	65535	64720.35
814.5485	458.8603	65535	64720.05
814.6924	461.0288	65535	64718.55
814.8363	463.1967	65535	64720.7
814.9802	465.3639	65535	64716.7
815.1241	467.5306	65535	64717.65
815.2681	469.6967	65535	64717.7
815.412	471.8622	65535	64720
815.556	474.0271	65535	64717.15
815.7	476.1914	65535	64716.05
815.844	478.3551	65535	64716.3
815.988	480.5182	65535	64712.6
816.132	482.6807	65535	64712.95
816.276	484.8426	65535	64716.45
816.4201	487.0039	65535	64711.9
816.5641	489.1647	65535	64712.1
816.7082	491.3248	65535	64710.45
816.8522	493.4843	65535	64712.45
816.9963	495.6432	65535	64709.2
817.1404	497.8015	65535	64706
817.2845	499.9592	65535	64708.7
817.4286	502.1163	65535	64707.9
817.5727	504.2728	65535	64704.7
817.7168	506.4287	65535	64709.95
817.861	508.5839	65535	64705.8
818.0051	510.7386	65535	64703.7
818.1493	512.8927	65535	64700.8
818.2935	515.0461	65535	64702.9
818.4377	517.199	65535	64704.35
818.5818	519.3512	65535	64703.7
818.726	521.5029	65535	64698.6
818.8703	523.6539	65535	64701.2
819.0145	525.8043	65535	64701.6
819.1587	527.9541	65535	64699.6
819.303	530.1033	65535	64701.1
819.4472	532.2519	65535	64699.75
819.5915	534.3999	65535	64699.75
819.7357	536.5472	65535	64701.05
819.88	538.694	65535	64702.1
820.0243	540.8401	65535	64695.05
820.1686	542.9856	65535	64696.55
820.3129	545.1305	65535	64696.2
820.4572	547.2748	65535	64698.55
820.6016	549.4185	65535	64694.85
820.7459	551.5615	65535	64695.75
820.8902	553.704	65535	64696.6
821.0346	555.8458	65535	64695.65
821.1789	557.987	65535	64696.2
821.3233	560.1276	65535	64695.25
821.4677	562.2675	65535	64696.25
821.6121	564.4069	65535	64694.2
821.7565	566.5456	65535	64693.55
821.9009	568.6837	65535	64694.35
822.0453	570.8212	65535	64692.75
822.1897	572.958	65535	64690.4
822.3342	575.0942	65535	64692.5
822.4786	577.2299	65535	64693.05
822.6231	579.3648	65535	64692.25
822.7675	581.4992	65535	64689.75
822.912	583.6329	65535	64690.75
823.0565	585.766	65535	64691.25
823.201	587.8985	65535	64693.3
823.3454	590.0304	65535	64665.45
823.4899	592.1616	65535	64688.15
823.6345	594.2922	65535	64688.15
823.779	596.4222	65535	64689.35
823.9235	598.5515	65535	64687.25
824.068	600.6802	65535	64687.8
824.2126	602.8083	65535	64688.1
824.3571	604.9358	65535	64685
824.5017	607.0626	65535	64686.1
824.6462	609.1888	65535	64684
824.7908	611.3144	65535	64685.05
824.9354	613.4393	65535	64688.2
825.08	615.5636	65535	64684.3
825.2246	617.6873	65535	64686.5
825.3692	619.8103	65535	64683.4
825.5138	621.9327	65535	64679.45
825.6584	624.0544	65535	64686.4
825.803	626.1756	65535	64684.75
825.9477	628.2961	65535	64680.8
826.0923	630.4159	65535	64682.3
826.237	632.5351	65535	64680.75
826.3816	634.6537	65535	64680.65
826.5263	636.7716	65535	64679.35
826.6709	638.8889	65535	64676.6
826.8156	641.0056	65535	64678.95
826.9603	643.1216	65535	64679.15
827.105	645.237	65535	64675.05
827.2497	647.3518	65535	64677.75
827.3944	649.4659	65535	64678.4
827.5391	651.5793	65535	64679.1
827.6838	653.6922	65535	64677.2
827.8285	655.8043	65535	64679.05
827.9733	657.9159	65535	64674.45
828.118	660.0268	65535	64675.25
828.2627	662.137	65535	64678.75
828.4075	664.2466	65535	64673.05
828.5522	666.3556	65535	64673.55
828.697	668.4639	65535	64670.4
828.8418	670.5716	65535	64674.95
828.9865	672.6786	65535	64670.25
829.1313	674.785	65535	64673.6
829.2761	676.8907	65535	64674.5
829.4209	678.9958	65535	64673.15
829.5657	681.1002	65535	64674.35
829.7105	683.204	65535	64667.55
829.8553	685.3072	65535	64672.2
830.0001	687.4097	65535	64671.85
830.1449	689.5115	65535	64670.15
830.2898	691.6127	65535	64670.45
830.4346	693.7132	65535	64673.9
830.5794	695.8131	65535	64655
830.7243	697.9123	65535	64671.6
830.8691	700.0109	65535	64668.1
831.014	702.1089	65535	64669.75
831.1588	704.2061	65535	64670.35
831.3037	706.3028	65535	64668.65
831.4486	708.3987	65535	64668.4
831.5935	710.4941	65535	64671.7
831.7383	712.5887	65535	64666.95
831.8832	714.6827	65535	64664.9
832.0281	716.7761	65535	64669.5
832.173	718.8688	65535	64665.95
832.3179	720.9608	65535	64663.9
832.4628	723.0522	65535	64661.45
832.6077	725.1429	65535	64667.45
832.7527	727.233	65535	64666.55
832.8976	729.3224	65535	64666.4
833.0425	731.4112	65535	64664.35
833.1874	733.4993	65535	64665.25
833.3324	735.5867	65535	64665.5
833.4773	737.6735	65535	64663.05
833.6222	739.7596	65535	64665.25
833.7672	741.845	65535	64663.25
833.9122	743.9298	65535	64663.15
834.0571	746.014	65535	64664.3
834.2021	748.0974	65535	64664.15
834.347	750.1802	65535	64662.5
834.492	752.2624	65535	64665.1
834.637	754.3439	65535	64660.35
834.782	756.4247	65535	64651.8
834.9269	758.5048	65535	64666.75
835.0719	760.5843	65535	64662.75
835.2169	762.6631	65535	64662.2
835.3619	764.7413	65535	64661.85
835.5069	766.8188	65535	64663
835.6519	768.8956	65535	64658.9
835.7969	770.9718	65535	64663.2
835.9419	773.0473	65535	64663.1
836.0869	775.1221	65535	64660.35
836.232	777.1962	65535	64664.55
836.377	779.2697	65535	64661.85
836.522	781.3426	65535	64643.85
836.667	783.4147	65535	64661.25
836.8121	785.4862	65535	64661.55
836.9571	787.557	65535	64659.65
837.1021	789.6271	65535	64659.95
837.2472	791.6966	65535	64658.7
837.3922	793.7654	65535	64660.4
837.5373	795.8335	65535	64660.5
837.6823	797.901	65535	64660.7
837.8274	799.9678	65535	64659.5
837.9724	802.0339	65535	64662.15
838.1175	804.0993	65535	64650.5
838.2626	806.1641	65535	64658.85
838.4076	808.2282	65535	64662
838.5527	810.2916	65535	64655.8
838.6978	812.3544	65535	64661.05
838.8428	814.4164	65535	64660.2
838.9879	816.4778	65535	64659.85
839.133	818.5385	65535	64659.65
839.2781	820.5986	65535	64659
839.4232	822.658	65535	64657.2
839.5682	824.7166	65535	64659.1
839.7133	826.7747	65535	64660.6
839.8584	828.832	65535	64658.4
840.0035	830.8886	65535	64656.45
840.1486	832.9446	65535	64657.3
840.2937	834.9999	65535	64658.15
840.4388	837.0545	65535	64652
840.5839	839.1085	65535	64657.75
840.729	841.1618	65535	64652.05
840.8741	843.2143	65535	64660.15
841.0192	845.2662	65535	64657.7
841.1643	847.3175	65535	64659.75
841.3095	849.368	65535	64659.05
841.4546	851.4179	65535	64655.2
841.5997	853.467	65535	64655.95
841.7448	855.5155	65535	64655.4
841.8899	857.5633	65535	64657.85
842.0351	859.6105	65535	64657.75
842.1802	861.6569	65535	64656.05
842.3253	863.7027	65535	64656.9
842.4704	865.7478	65535	64655.65
842.6156	867.7922	65535	64657.35
842.7607	869.8359	65535	64656.25
842.9058	871.8789	65535	64655.55
843.0509	873.9212	65535	64624.95
843.1961	875.9629	65535	64655.5
843.3412	878.0039	65535	64654.1
843.4863	880.0441	65535	64654.3
843.6315	882.0837	65535	64655.5
843.7766	884.1226	65535	64652.75
843.9218	886.1609	65535	64655.15
844.0669	888.1984	65535	64654.9
844.212	890.2352	65535	64657.65
844.3572	892.2714	65535	64650.2
844.5023	894.3069	65535	64651.65
844.6475	896.3416	65535	64653.45
844.7926	898.3757	65535	64655.15
844.9377	900.4091	65535	64650.45
845.0829	902.4418	65535	64649.85
845.228	904.4739	65535	64650.9
845.3732	906.5052	65535	64654.7
845.5183	908.5358	65535	64655.25
845.6635	910.5658	65535	64654.25
845.8086	912.595	65535	64653.4
845.9538	914.6236	65535	64654.5
846.0989	916.6515	65535	64653.45
846.2441	918.6786	65535	64652.2
846.3892	920.7051	65535	64650.15
846.5344	922.7309	65535	64653.2
846.6795	924.756	65535	64652.25
846.8246	926.7804	65535	64652.05
846.9698	928.8041	65535	64644.15
847.1149	930.8272	65535	64652.05
847.2601	932.8495	65535	64650.85
847.4052	934.8711	65535	64652.5
847.5504	936.892	65535	64649.65
847.6955	938.9123	65535	64648.9
847.8407	940.9318	65535	64651.05
847.9858	942.9506	65535	64649
848.131	944.9688	65535	64652.7
848.2761	946.9862	65535	64649.55
848.4213	949.003	65535	64652.4
848.5664	951.019	65535	64652.2
848.7115	953.0344	65535	64651.95
848.8567	955.0491	65535	64649.75
849.0018	957.063	65535	64650.4
849.147	959.0763	65535	64652.2
849.2921	961.0888	65535	64650
849.4373	963.1007	65535	64650.75
849.5824	965.1119	65535	64652.1
849.7275	967.1223	65535	64649.25
849.8727	969.1321	65535	64650.9
850.0178	971.1412	65535	64651.6
850.1629	973.1495	65535	64649.8
850.3081	975.1572	65535	64618.4
850.4532	977.1641	65535	64650.55
850.5983	979.1704	65535	64651.15
850.7435	981.1759	65535	64648.15
850.8886	983.1808	65535	64648.95
851.0337	985.1849	65535	64638.55
851.1788	987.1884	65535	64647
851.324	989.1911	65535	64645.85
851.4691	991.1932	65535	64649.65
851.6142	993.1945	65535	64648.9
851.7593	995.1951	65535	64650
851.9045	997.1951	65535	64642.2
852.0496	999.1943	65535	64648.55
852.1947	1001.1928	65535	64649.75
852.3398	1003.1906	65535	64649
852.4849	1005.1877	65535	64648.2
852.63	1007.1841	65535	64648.05
852.7751	1009.1798	65535	64649.1
852.9202	1011.1748	65535	64650.3
853.0653	1013.1691	65535	64648.65
853.2104	1015.1627	65535	64648.55
853.3555	1017.1556	65535	64649.9
853.5006	1019.1477	65535	64646.65
853.6457	1021.1392	65535	64650.3
853.7908	1023.1299	65535	64647.15
853.9359	1025.12	65535	64647.85
854.081	1027.1093	65535	64652.65
854.2261	1029.0979	65535	64651.8
854.3712	1031.0859	65535	64651.7
854.5163	1033.0731	65535	64649.75
854.6613	1035.0596	65535	64649.15
854.8064	1037.0454	65535	64650.05
854.9515	1039.0304	65535	64647.35
855.0965	1041.0148	65535	64650.15
855.2416	1042.9985	65535	64647.35
855.3867	1044.9814	65535	64650.05
855.5317	1046.9636	65535	64647.4
855.6768	1048.9452	65535	64648.6
855.8219	1050.926	65535	64650.8
855.9669	1052.9061	65535	64648.2
856.112	1054.8855	65535	64647.85
856.257	1056.8642	65535	64650.85
856.4021	1058.8421	65535	64645.25
856.5471	1060.8194	65535	64648.5
856.6921	1062.7959	65535	64649.85
856.8372	1064.7717	65535	64646.45
856.9822	1066.7469	65535	64645.5
857.1272	1068.7213	65535	64647
857.2723	1070.695	65535	64649.8
857.4173	1072.6679	65535	64647.6
857.5623	1074.6402	65535	64647.35
857.7073	1076.6117	65535	64641.75
857.8523	1078.5826	65535	64646.35
857.9973	1080.5527	65535	64645.1
858.1423	1082.5221	65535	64646.7
858.2873	1084.4908	65535	64648.3
858.4323	1086.4587	65535	64647.55
858.5773	1088.426	65535	64649.25
858.7223	1090.3925	65535	64644.7
858.8673	1092.3584	65535	64648.55
859.0123	1094.3235	65534.3	64647.9
859.1573	1096.2879	65533.55	64642.35
859.3022	1098.2515	65535	64650.8
859.4472	1100.2145	65533.3	64646.75
859.5922	1102.1767	65528.6	64638.9
859.7371	1104.1382	65535	64648.65
859.8821	1106.099	65528.35	64640.15
860.027	1108.0591	65526.4	64639.3
860.172	1110.0185	65480.35	64589.7
860.3169	1111.9771	65527.7	64640.3
860.4619	1113.9351	65520.6	64634.85
860.6068	1115.8923	65510.3	64622
860.7517	1117.8488	65479.2	64589.1
860.8967	1119.8045	65456.05	64569.2
861.0416	1121.7596	65493.75	64607.95
861.1865	1123.7139	65470.75	64583.3
861.3314	1125.6675	65474.5	64585.8
861.4763	1127.6204	65456.25	64568.25
861.6212	1129.5726	65406.1	64516.9
861.7661	1131.524	65450.9	64565.45
861.911	1133.4748	65450.75	64562.5
862.0559	1135.4248	65398	64510.4
862.2008	1137.3741	65411.95	64523.9
862.3457	1139.3226	65407.3	64518.4
862.4905	1141.2705	65388.95	64501.8
862.6354	1143.2176	65407.95	64513.65
862.7803	1145.164	65339.15	64451.1
862.9251	1147.1097	65377	64490.7
863.07	1149.0546	65356.95	64467.55
863.2148	1150.9989	65381.05	64493.15
863.3597	1152.9424	65307.35	64419.25
863.5045	1154.8852	65378.85	64490.05
863.6493	1156.8272	65316.6	64429.55
863.7942	1158.7686	65374.4	64477.95
863.939	1160.7092	65301.75	64413.85
864.0838	1162.6491	65313.95	64426.05
864.2286	1164.5883	65323.75	64438.85
864.3734	1166.5267	65279.65	64389.95
864.5182	1168.4644	65302.1	64414.95
864.663	1170.4014	65292.85	64400.8
864.8078	1172.3377	65302.15	64418
864.9526	1174.2732	65318.6	64429.9
865.0974	1176.2081	65281.05	64394.4
865.2421	1178.1421	65258.2	64366.75
865.3869	1180.0755	65296.75	64409.15
865.5317	1182.0082	65272.05	64384.45
865.6764	1183.9401	65271.35	64382.2
865.8212	1185.8713	65230.2	64343.7
865.9659	1187.8017	65236.15	64349.2
866.1106	1189.7315	65231.75	64345.95
866.2554	1191.6605	65229.65	64313.05
866.4001	1193.5888	65212.4	64323.35
866.5448	1195.5163	65173.35	64285.95
866.6895	1197.4432	65170.25	64282.1
866.8342	1199.3693	65180.05	64292.75
866.9789	1201.2947	65158.15	64266.4
867.1236	1203.2193	65181.65	64294
867.2683	1205.1432	65138.1	64252.65
867.413	1207.0664	65123.2	64237.4
867.5576	1208.9889	65112.5	64222.7
867.7023	1210.9106	65133.5	64247.4
867.847	1212.8316	65114.45	64227.8
867.9916	1214.7519	65102.75	64203.75
868.1363	1216.6715	65093.3	64205.6
868.2809	1218.5903	65074.55	64184.8
868.4255	1220.5084	65067.65	64182.6
868.5701	1222.4257	65066.7	64178.6
868.7148	1224.3424	65055.05	64168.1
868.8594	1226.2583	65014.55	64121.65
869.004	1228.1735	65035.1	64145.1
869.1486	1230.0879	64953.65	64066.95
869.2932	1232.0016	65016.4	64130.9
869.4377	1233.9146	64943.05	64052.15
869.5823	1235.8269	64970.45	64081.95
869.7269	1237.7384	64952.1	64063.7
869.8715	1239.6492	64924.65	64038.5
870.016	1241.5592	64847.25	63960.7
870.1606	1243.4686	64934.75	64046.25
870.3051	1245.3772	64785.85	63898.65
870.4496	1247.285	64899	64012
870.5941	1249.1922	64775.5	63888.9
870.7387	1251.0986	64865.45	63980.2
870.8832	1253.0042	64778.05	63889.25
871.0277	1254.9092	64817.65	63929.8
871.1722	1256.8134	64657.05	63770.5
871.3167	1258.7169	64814.15	63928.05
871.4611	1260.6196	64678.15	63792.7
871.6056	1262.5216	64658.75	63771.2
871.7501	1264.4229	64680.35	63794.5
871.8945	1266.3234	64726.3	63836.9
872.039	1268.2232	64661.7	63774.3
872.1834	1270.1223	64557.3	63670.5
872.3278	1272.0207	64568.95	63678.4
872.4723	1273.9183	64570.3	63675.35
872.6167	1275.8151	64564.65	63678.6
872.7611	1277.7113	64552.45	63663
872.9055	1279.6067	64472.1	63586.5
873.0499	1281.5014	64499.55	63610.15
873.1943	1283.3953	64582.9	63693.95
873.3386	1285.2885	64518.15	63630.3
873.483	1287.181	64502.95	63611.5
873.6274	1289.0727	64503.15	63617.85
873.7717	1290.9637	64329.7	63441.3
873.9161	1292.854	64518	63631.45
874.0604	1294.7435	64447.85	63560.15
874.2047	1296.6323	64443	63555.3
874.349	1298.5204	64349.4	63459.7
874.4933	1300.4077	64430.85	63542.35
874.6376	1302.2943	64292.65	63403.65
874.7819	1304.1802	64236.85	63351.65
874.9262	1306.0653	64201.85	63312.8
875.0705	1307.9497	64166.9	63278.55
875.2147	1309.8333	64205.75	63316.95
875.359	1311.7162	64142.15	63255.65
875.5032	1313.5984	64171.25	63281.8
875.6475	1315.4798	64062.45	63163.2
875.7917	1317.3605	64054.15	63149.65
875.9359	1319.2405	64027.7	63137.75
876.0801	1321.1197	63871.15	62982.55
876.2243	1322.9982	63938.3	63046.6
876.3685	1324.876	63871.9	62982.9
876.5127	1326.753	63810	62920.1
876.6569	1328.6293	63957.45	63067.45
876.801	1330.5048	63840.4	62949.4
876.9452	1332.3796	63728.25	62842.1
877.0893	1334.2537	63687.6	62772.85
877.2335	1336.127	63741.3	62852.85
877.3776	1337.9996	63624.9	62735.85
877.5217	1339.8714	63728.85	62841.35
877.6658	1341.7426	63539.9	62609.45
877.8099	1343.6129	63619.75	62731.05
877.954	1345.4826	63611.35	62721.65
878.0981	1347.3515	63449.5	62559.5
878.2422	1349.2196	63569.3	62678.05
878.3862	1351.087	63520.35	62630.7
878.5303	1352.9537	63517.95	62628.15
878.6743	1354.8197	63510.75	62623.45
878.8184	1356.6849	63500.15	62611.05
878.9624	1358.5493	63486.35	62597.65
879.1064	1360.4131	63395.15	62507.75
879.2504	1362.276	63492.55	62602.95
879.3944	1364.1383	63337.05	62452.5
879.5384	1365.9998	63304.95	62411.55
879.6823	1367.8606	63316.5	62426.1
879.8263	1369.7206	63224.4	62333.9
879.9702	1371.5799	63228.2	62337.55
880.1142	1373.4384	63128.05	62241.25
880.2581	1375.2962	63170.35	62280.5
880.402	1377.1533	62961.75	62073.6
880.5459	1379.0096	62919.9	62029.05
880.6898	1380.8652	62914.05	62026.75
880.8337	1382.7201	62830.95	61942.05
880.9776	1384.5742	62813.65	61924
881.1215	1386.4275	62615.65	61727.85
881.2653	1388.2802	62644.35	61757.2
881.4092	1390.132	62680.6	61792.2
881.553	1391.9832	62473.9	61583.9
881.6968	1393.8336	62352.65	61465.05
881.8406	1395.6832	62385.6	61495
881.9844	1397.5322	62417.25	61526.7
882.1282	1399.3803	62233.2	61340.95
882.272	1401.2278	62240.05	61351.55
882.4158	1403.0745	62156.25	61268.5
882.5595	1404.9204	62130.75	61242.35
882.7033	1406.7656	62110.3	61222.4
882.847	1408.6101	61875.85	60987.5
882.9908	1410.4538	61934.65	61045.25
883.1345	1412.2968	61921.65	61034.95
883.2782	1414.139	61716.35	60827.05
883.4219	1415.9805	61787.75	60901.65
883.5656	1417.8213	61632.7	60738.2
883.7092	1419.6613	61714.55	60827.3
883.8529	1421.5006	61570.25	60683.35
883.9965	1423.3391	61516.3	60627.5
884.1402	1425.1769	61549.7	60658.9
884.2838	1427.0139	61660.85	60768.65
884.4274	1428.8502	61529.2	60640.3
884.571	1430.6858	61533.95	60645.7
884.7146	1432.5206	61703.6	60814.55
884.8582	1434.3547	61487.3	60598.85
885.0018	1436.188	61332.9	60446.5
885.1453	1438.0206	61454.6	60564.8
885.2889	1439.8524	61341.1	60451.75
885.4324	1441.6835	61244.75	60356.3
885.5759	1443.5139	61310.3	60418.6
885.7194	1445.3435	61173.3	60286.7
885.8629	1447.1724	61210.2	60321.95
886.0064	1449.0005	61041.95	60153.65
886.1499	1450.8279	61154.25	60265.4
886.2933	1452.6545	61093.35	60205.15
886.4368	1454.4804	61044.75	60157.4
886.5802	1456.3056	60938.9	60045
886.7237	1458.13	60918.95	60031.3
886.8671	1459.9536	61026.35	60138.85
887.0105	1461.7766	60834.05	59946.65
887.1539	1463.5987	60688.65	59799.65
887.2972	1465.4202	60723.75	59835.7
887.4406	1467.2409	60636.05	59746.05
887.584	1469.0608	60438.9	59551.1
887.7273	1470.88	60458.75	59569.85
887.8706	1472.6984	60469.7	59579.2
888.0139	1474.5161	60207.05	59313.15
888.1572	1476.3331	60305.95	59419.1
888.3005	1478.1493	60139	59249.8
888.4438	1479.9648	60076.5	59188.55
888.5871	1481.7795	60131.6	59245.2
888.7303	1483.5935	60112.6	59224.75
888.8736	1485.4067	59917.1	59029.15
889.0168	1487.2192	59985.9	59099.6
889.16	1489.031	59783.8	58893.05
889.3032	1490.842	59866.15	58978.05
889.4464	1492.6522	59887.1	59000.05
889.5896	1494.4618	59764.8	58876.15
889.7327	1496.2705	59826.6	58940.65
889.8759	1498.0785	59450.95	58563.9
890.019	1499.8858	59578.1	58689.5
890.1622	1501.6924	59715.6	58830.15
890.3053	1503.4981	59439.35	58550.45
890.4484	1505.3032	59530.9	58644.7
890.5914	1507.1075	59314.65	58424.8
890.7345	1508.911	59368.5	58481.65
890.8776	1510.7138	59290.4	58403.2
891.0206	1512.5159	59358.6	58471.85
891.1637	1514.3172	58816.5	57929.35
891.3067	1516.1178	58930.65	58044.45
891.4497	1517.9176	59063.65	58174.8
891.5927	1519.7166	58826.9	57940.65
891.7357	1521.515	58717.3	57821.75
891.8786	1523.3126	58475.45	57588.1
892.0216	1525.1094	58713.3	57822.9
892.1645	1526.9055	58462.5	57576.5
892.3074	1528.7008	58458.65	57572.15
892.4503	1530.4954	58088.1	57199
892.5932	1532.2893	58355.15	57469.65
892.7361	1534.0824	57984.5	57091.3
892.879	1535.8747	57788.3	56900.95
893.0218	1537.6663	58237	57347.45
893.1647	1539.4572	57320.55	56433.4
893.3075	1541.2473	57676.05	56787.65
893.4503	1543.0367	57508.8	56622.25
893.5931	1544.8253	57386.1	56494.95
893.7359	1546.6132	57503.4	56612.8
893.8787	1548.4003	57210	56312.4
894.0214	1550.1867	57136.7	56240.9
894.1642	1551.9723	57022.55	56129.85
894.3069	1553.7572	57057	56167.9
894.4496	1555.5414	57191.2	56302.85
894.5923	1557.3247	56378.3	55489.85
894.735	1559.1074	56936.6	56051.6
894.8777	1560.8893	56690.45	55805.45
895.0204	1562.6705	56779	55892.95
895.163	1564.4509	56364.3	55479.05
895.3056	1566.2305	56519.4	55634.6
895.4482	1568.0094	56785.35	55898.65
895.5908	1569.7876	56478.15	55591.45
895.7334	1571.565	56157.4	55271
895.876	1573.3417	56334.15	55447.85
896.0186	1575.1176	56180.05	55294.55
896.1611	1576.8928	56041.75	55157.2
896.3036	1578.6672	55715.3	54831.55
896.4461	1580.4409	55844.5	54960.7
896.5886	1582.2138	55524.4	54636.5
896.7311	1583.986	55626.15	54738.95
896.8736	1585.7575	55270.7	54386.2
897.0161	1587.5282	55356.65	54472.3
897.1585	1589.2981	55446.95	54563.55
897.3009	1591.0673	55075.8	54188.05
897.4433	1592.8358	54900.45	54014.35
897.5857	1594.6035	55158.3	54271.1
897.7281	1596.3704	55143.45	54258.05
897.8705	1598.1366	54644	53756.25
898.0128	1599.9021	54348.25	53463.6
898.1551	1601.6668	54679	53789.65
898.2975	1603.4308	54432.6	53546.3
898.4398	1605.194	54551.7	53661.25
898.5821	1606.9564	53973.1	53088.65
898.7243	1608.7182	54257.7	53368.3
898.8666	1610.4791	54034.8	53149.55
899.0088	1612.2394	54270.5	53387.65
899.1511	1613.9988	53965.65	53080.15
899.2933	1615.7576	54293.4	53408.8
899.4355	1617.5156	54218.3	53328.4
899.5776	1619.2728	54486.7	53600.5
899.7198	1621.0293	53798.95	52915.65
899.862	1622.785	53724.75	52837.3
900.0041	1624.54	53753.15	52866.35
900.1462	1626.2942	53410.9	52524.65
900.2883	1628.0477	52809.2	51921.8
900.4304	1629.8005	52537.5	51648.95
900.5725	1631.5525	52700.4	51815.95
900.7145	1633.3037	52195.25	51309.75
900.8566	1635.0542	52147.5	51263.35
900.9986	1636.804	52215.05	51329.35
901.1406	1638.553	51882.2	50916.25
901.2826	1640.3013	51815.65	50929.8
901.4245	1642.0488	51513.3	50627.3
901.5665	1643.7955	51658.9	50776.25
901.7085	1645.5416	51411.55	50526.7
901.8504	1647.2868	51243.65	50359.1
901.9923	1649.0313	51425.85	50540
902.1342	1650.7751	51259.5	50371.75
902.2761	1652.5181	51049.25	50166.45
902.4179	1654.2604	50953.45	50067.7
902.5598	1656.0019	51079.55	50197.25
902.7016	1657.7427	50960.05	50074.35
902.8434	1659.4828	51063.35	50180.45
902.9852	1661.222	50891.7	50007.45
903.127	1662.9606	50947.45	50063.05
903.2687	1664.6984	50706.6	49820.85
903.4105	1666.4354	50674	49788.55
903.5522	1668.1717	50191.65	49306.8
903.6939	1669.9072	49840.2	48956.35
903.8356	1671.642	49710.8	48822.5
903.9773	1673.3761	49550.2	48666.7
904.119	1675.1094	49310	48426.5
904.2606	1676.8419	48949.9	48066.35
904.4022	1678.5737	48850.75	47968.45
904.5439	1680.3048	48620.3	47736.35
904.6855	1682.0351	48415.75	47531.25
904.827	1683.7646	48237.35	47351.1
904.9686	1685.4934	48149.6	47268
905.1101	1687.2215	47693.65	46808.8
905.2517	1688.9488	47813.6	46929.15
905.3932	1690.6754	47145.4	46261.65
905.5347	1692.4012	47336.8	46453.85
905.6761	1694.1263	47284.4	46399.2
905.8176	1695.8506	47037.8	46153.15
905.9591	1697.5742	46936.45	46054.25
906.1005	1699.297	46771.15	45886.35
906.2419	1701.0191	46599.2	45716.35
906.3833	1702.7404	46254.5	45372.2
906.5246	1704.461	46039.15	45155.1
906.666	1706.1808	46015.7	45130.35
906.8073	1707.8999	45907.55	45023.45
906.9487	1709.6182	45763.95	44879.3
907.09	1711.3358	45671.2	44786.65
907.2313	1713.0527	45465.55	44581.6
907.3725	1714.7688	45417.7	44529.7
907.5138	1716.4841	45057.1	44171
907.655	1718.1987	45110.55	44221.65
907.7962	1719.9126	44924.25	44040.7
907.9374	1721.6257	44835.55	43950.15
908.0786	1723.338	44779.05	43896
908.2198	1725.0496	44298.6	43410.9
908.3609	1726.7605	44328.9	43444.1
908.502	1728.4706	44130.1	43244.8
908.6431	1730.18	44079.25	43192.9
908.7842	1731.8886	43885.95	43004.05
908.9253	1733.5964	43763.3	42874.45
909.0664	1735.3036	43792.95	42906.95
909.2074	1737.0099	43636.9	42752.15
909.3484	1738.7156	43482.2	42599.65
909.4894	1740.4204	43292.5	42404.5
909.6304	1742.1246	43259.7	42374.1
909.7714	1743.8279	43192.3	42311.7
909.9123	1745.5306	43161.85	42277.05
910.0532	1747.2325	42786.7	41905.1
910.1941	1748.9336	42670.15	41788.8
910.335	1750.634	42615.8	41729
910.4759	1752.3336	42626.15	41743.1
910.6168	1754.0325	42358.9	41476.2
910.7576	1755.7307	42450.8	41567.1
910.8984	1757.4281	42253	41370.85
911.0392	1759.1247	42314.75	41422.9
911.18	1760.8206	42021.65	41134.3
911.3208	1762.5158	41997.8	41110.8
911.4615	1764.2102	41846.75	40963.85
911.6022	1765.9039	41725.8	40843.45
911.7429	1767.5968	41600.7	40716.6
911.8836	1769.289	41475.25	40592.85
912.0243	1770.9804	41447.5	40564.05
912.1649	1772.6711	41359.85	40475.6
912.3056	1774.361	41224.25	40340.9
912.4462	1776.0502	41191.95	40309.55
912.5868	1777.7386	40958.35	40074.4
912.7274	1779.4263	40860.35	39977.45
912.8679	1781.1132	40898.55	40014.2
913.0084	1782.7994	40719.25	39834.65
913.149	1784.4849	40669.5	39786.05
913.2895	1786.1696	40395.7	39505.9
913.4299	1787.8535	40393.25	39511.95
913.5704	1789.5367	40322.7	39437.1
913.7108	1791.2192	40239.65	39356
913.8513	1792.9009	40066.45	39153.75
913.9917	1794.5818	39989.25	39104.65
914.132	1796.2621	39822.15	38939.3
914.2724	1797.9415	39747.7	38862.95
914.4128	1799.6202	39688.2	38805
914.5531	1801.2982	39601.6	38719
914.6934	1802.9755	39475.45	38591.65
914.8337	1804.6519	39418.35	38534.4
914.9739	1806.3277	39313.05	38430.35
915.1142	1808.0027	39059.7	38178.9
915.2544	1809.6769	39057.6	38174
915.3946	1811.3504	38971.05	38087.2
915.5348	1813.0231	38782.85	37898.15
915.675	1814.6951	38807	37923
915.8151	1816.3664	38735.25	37850
915.9553	1818.0369	38637.3	37756.9
916.0954	1819.7067	38534.15	37650.6
916.2355	1821.3757	38469.65	37585.15
916.3755	1823.044	38330.35	37446.15
916.5156	1824.7115	38211.4	37328.35
916.6556	1826.3783	38087.55	37206.9
916.7956	1828.0443	38003.1	37119.5
916.9356	1829.7096	37943.95	37059.2
917.0756	1831.3741	37904.25	37016.75
917.2155	1833.0379	37793.1	36909.75
917.3555	1834.701	37693.95	36808.45
917.4954	1836.3633	37551.8	36666.8
917.6353	1838.0248	37499.9	36615.75
917.7751	1839.6856	37403.6	36518.5
917.915	1841.3457	37342.2	36461.4
918.0548	1843.005	37278.95	36395.75
918.1946	1844.6636	37172.45	36289.3
918.3344	1846.3214	37061.75	36176.5
918.4742	1847.9785	37044.35	36162.65
918.6139	1849.6349	36952.25	36064.95
918.7537	1851.2904	36880.2	35988.65
918.8934	1852.9453	36774.6	35889.2
919.0331	1854.5994	36671.05	35785.9
919.1727	1856.2528	36691.05	35802.05
919.3124	1857.9054	36507.1	35623.55
919.452	1859.5572	36481.15	35598.6
919.5916	1861.2083	36418.75	35534.2
919.7312	1862.8587	36459.1	35576.9
919.8708	1864.5084	36238.65	35355.45
920.0103	1866.1572	36115.95	35233.3
920.1498	1867.8054	36042.35	35159
920.2893	1869.4528	36009.8	35125.15
920.4288	1871.0994	35850.55	34968.3
920.5683	1872.7453	35774.15	34891.2
920.7077	1874.3905	35738.45	34849
920.8471	1876.0349	35569.2	34687.05
920.9865	1877.6786	35610.85	34725.45
921.1259	1879.3215	35519.25	34637.05
921.2653	1880.9637	35469.1	34584.35
921.4046	1882.6051	35380.85	34497
921.5439	1884.2458	35238.3	34354.05
921.6832	1885.8858	35121.15	34237.9
921.8225	1887.525	35051.75	34167.15
921.9617	1889.1634	34888.5	34004.35
922.101	1890.8011	34783.9	33900.2
922.2402	1892.4381	34707.25	33822.35
922.3794	1894.0743	34705.45	33823.3
922.5185	1895.7098	34569.75	33686.25
922.6577	1897.3446	34466.7	33584.1
922.7968	1898.9786	34377.7	33490.55
922.9359	1900.6118	34316.45	33434.1
923.075	1902.2443	34123.2	33237.5
923.214	1903.8761	34041.65	33156.05
923.3531	1905.5071	33871.35	32986.65
923.4921	1907.1374	33780.7	32897.5
923.6311	1908.7669	33733.7	32850.75
923.77	1910.3957	33654.75	32772
923.909	1912.0237	33405.35	32524.65
924.0479	1913.651	33415.85	32529.55
924.1868	1915.2776	33292.15	32410.95
924.3257	1916.9034	33181.95	32299.8
924.4646	1918.5285	33007.8	32125.2
924.6034	1920.1528	32857.95	31973.9
924.7422	1921.7764	32821.75	31940.45
924.881	1923.3992	32689.55	31809.2
925.0198	1925.0213	32517.1	31633.05
925.1586	1926.6427	32394.45	31514.35
925.2973	1928.2633	32415.95	31455.3
925.436	1929.8832	32247.45	31363.75
925.5747	1931.5023	32098.65	31215.8
925.7134	1933.1207	32010.4	31126.05
925.852	1934.7383	31972.8	31088.45
925.9906	1936.3552	31835.5	30953.4
926.1292	1937.9714	31781.9	30897.5
926.2678	1939.5868	31630.1	30745.05
926.4064	1941.2015	31479.15	30595.75
926.5449	1942.8154	31361.9	30480.45
926.6834	1944.4286	31227	30341.45
926.8219	1946.041	31139.95	30238.2
926.9604	1947.6528	30933.95	30046.35
927.0988	1949.2637	30913.2	30031.6
927.2372	1950.8739	30797.3	29913.05
927.3756	1952.4834	30725.3	29841.45
927.514	1954.0921	30703.4	29820.3
927.6523	1955.7001	30531.15	29642.9
927.7907	1957.3074	30449.05	29567.35
927.929	1958.9139	30318.55	29437.2
928.0673	1960.5197	30266.4	29382.8
928.2055	1962.1247	30111.65	29230.05
928.3438	1963.729	29945.7	29065.9
928.482	1965.3325	29860.55	28954.8
928.6202	1966.9353	29778.9	28896.85
928.7584	1968.5374	29665.55	28780.9
928.8965	1970.1387	29561.3	28679.55
929.0346	1971.7393	29443.55	28557.6
929.1727	1973.3392	29349.8	28467.4
929.3108	1974.9383	29200.3	28319.55
929.4489	1976.5366	29106.3	28223.45
929.5869	1978.1342	29090.7	28206.1
929.7249	1979.7311	28987.1	28102.75
929.8629	1981.3273	28893.2	28009.65
930.0009	1982.9227	28779.2	27894.05
930.1388	1984.5173	28700.2	27818.2
930.2767	1986.1112	28576.3	27694.45
930.4146	1987.7044	28575.75	27693.3
930.5525	1989.2968	28436.75	27554.7
930.6904	1990.8885	28387.85	27501.7
930.8282	1992.4795	28295.15	27411.6
930.966	1994.0697	28189.55	27305.75
931.1038	1995.6592	28063.9	27182.05
931.2415	1997.2479	27988.3	27106.65
931.3793	1998.8359	27956.45	27075
931.517	2000.4232	27796.8	26913.55
931.6547	2002.0097	27721.55	26841.3
931.7923	2003.5955	27591.8	26708.2
931.93	2005.1805	27599.45	26714.2
932.0676	2006.7648	27517.3	26635.3
932.2052	2008.3484	27445.8	26559.9
932.3427	2009.9312	27431.2	26545.3
932.4803	2011.5133	27280.05	26396.65
932.6178	2013.0946	27172.35	26291.25
932.7553	2014.6752	27120.95	26238.2
932.8928	2016.2551	27074.75	26192.95
933.0302	2017.8342	26924.8	26042.4
933.1676	2019.4126	26810.75	25929.95
933.305	2020.9902	26699	25818.15
933.4424	2022.5672	26655.2	25772.2
933.5798	2024.1433	26582.55	25697.4
933.7171	2025.7188	26520.9	25641
933.8544	2027.2935	26440.65	25558.3
933.9917	2028.8674	26317.9	25438.05
934.129	2030.4406	26226.55	25344.35
934.2662	2032.0131	26119.15	25237.75
934.4034	2033.5849	26031.65	25144.3
934.5406	2035.1559	25982.25	25100
934.6778	2036.7261	25923.55	25041.2
934.8149	2038.2957	25866.7	24984.05
934.952	2039.8645	25789.9	24907.3
935.0891	2041.4325	25804.3	24918.85
935.2262	2042.9998	25655.15	24775.8
935.3632	2044.5664	25593.35	24707.1
935.5002	2046.1323	25509.75	24628.65
935.6372	2047.6974	25450	24569
935.7742	2049.2617	25375.25	24494.4
935.9111	2050.8254	25375.2	24487.7
936.048	2052.3883	25285.2	24402.8
936.1849	2053.9504	25168.05	24285.3
936.3218	2055.5118	25125.45	24241.35
936.4586	2057.0725	24976.15	24091.55
936.5955	2058.6325	24941.3	24058.75
936.7323	2060.1917	24864.7	23982.45
936.869	2061.7502	24815.2	23930.85
937.0058	2063.3079	24690.4	23808.8
937.1425	2064.8649	24625.75	23739.7
937.2792	2066.4212	24540.3	23656.3
937.4159	2067.9767	24463	23583.7
937.5525	2069.5315	24379.55	23495.65
937.6891	2071.0856	24276.7	23393.75
937.8257	2072.6389	24178.1	23295.2
937.9623	2074.1915	24063.25	23182.4
938.0989	2075.7433	23984.35	23098.9
938.2354	2077.2945	23946.85	23065.85
938.3719	2078.8448	23841.65	22958.35
938.5084	2080.3945	23732.65	22850.95
938.6448	2081.9434	23754.05	22872.3
938.7812	2083.4916	23634.35	22751.7
938.9176	2085.039	23558.55	22674.2
939.054	2086.5857	23501.8	22619.7
939.1903	2088.1317	23468.6	22585.6
939.3267	2089.677	23402.8	22519.8
939.463	2091.2215	23317.7	22434.65
939.5992	2092.7652	23219.7	22336
939.7355	2094.3083	23180.85	22298.75
939.8717	2095.8506	23139.1	22256.95
940.0079	2097.3921	23145.35	22263.35
940.1441	2098.933	23021.55	22139
940.2802	2100.4731	22969.8	22090.25
940.4163	2102.0124	22922.8	22019.1
940.5524	2103.5511	22861.75	21977.85
940.6885	2105.089	22872.8	21989.4
940.8245	2106.6261	22750.35	21866.05
940.9606	2108.1626	22697.45	21814.35
941.0965	2109.6983	22669.95	21758
941.2325	2111.2332	22572.05	21687.9
941.3684	2112.7675	22468.55	21583.8
941.5044	2114.301	22423.2	21538.35
941.6403	2115.8337	22425.05	21540.85
941.7761	2117.3657	22324.05	21440.75
941.912	2118.897	22267.65	21382.1
942.0478	2120.4276	22237.2	21348.85
942.1835	2121.9575	22108.45	21223.95
942.3193	2123.4866	22099.75	21204.3
942.455	2125.0149	22025.05	21138.65
942.5907	2126.5426	21935.45	21051.1
942.7264	2128.0695	21847.6	20962.3
942.8621	2129.5956	21822.55	20939.5
942.9977	2131.1211	21773	20883.6
943.1333	2132.6458	21699.65	20817.85
943.2689	2134.1698	21665.6	20781.25
943.4044	2135.693	21578.7	20692.65
943.54	2137.2155	21531.6	20645.25
943.6755	2138.7373	21512.55	20629.45
943.8109	2140.2584	21413.15	20529.3
943.9464	2141.7787	21325.85	20437.25
944.0818	2143.2983	21227.75	20345.65
944.2172	2144.8171	21114.95	20231.8
944.3526	2146.3353	21106.35	20221.8
944.4879	2147.8527	21003.15	20121.35
944.6232	2149.3693	21000.45	20118.35
944.7585	2150.8853	20873.75	19990.95
944.8938	2152.4005	20768.45	19885.75
945.029	2153.9149	20746.3	19863.15
945.1642	2155.4287	20647.4	19765.4
945.2994	2156.9417	20596.8	19712.55
945.4346	2158.454	20617.2	19732.55
945.5697	2159.9655	20510.4	19628.25
945.7048	2161.4764	20481.15	19598.1
945.8399	2162.9865	20404.45	19521.85
945.9749	2164.4958	20338.15	19456.4
946.1099	2166.0045	20283.2	19396.3
946.2449	2167.5124	20244.65	19363.4
946.3799	2169.0195	20214.15	19333.9
946.5148	2170.526	20165.5	19282
946.6498	2172.0317	20116.9	19232.9
946.7846	2173.5367	20030	19146.15
946.9195	2175.0409	19948.85	19066.75
947.0543	2176.5445	19941.15	19059.05
947.1891	2178.0473	19838.3	18956.45
947.3239	2179.5494	19761.55	18874.05
947.4587	2181.0507	19680.7	18797.65
947.5934	2182.5513	19638.4	18755
947.7281	2184.0512	19599.75	18716.9
947.8628	2185.5504	19565.55	18683.05
947.9974	2187.0488	19418.3	18536.5
948.132	2188.5465	19365.9	18484
948.2666	2190.0435	19316.8	18433.75
948.4012	2191.5397	19225.4	18342.1
948.5357	2193.0353	19208.45	18328.15
948.6702	2194.5301	19078.25	18196.2
948.8047	2196.0241	18997.15	18114.65
948.9392	2197.5175	18966.7	18085.25
949.0736	2199.0101	18871	17982.7
949.208	2200.502	18801.45	17918.7
949.3424	2201.9931	18714.55	17832.25
949.4767	2203.4835	18689.45	17807.6
949.611	2204.9733	18654	17764.6
949.7453	2206.4622	18583	17700.4
949.8796	2207.9505	18542.8	17658.35
950.0138	2209.438	18420.25	17539.65
950.148	2210.9248	18346.25	17462.35
950.2822	2212.4109	18322.4	17440.6
950.4164	2213.8962	18218.3	17333.05
950.5505	2215.3809	18232.25	17347.95
950.6846	2216.8648	18159.55	17277.3
950.8186	2218.3479	18099.35	17214.35
950.9527	2219.8304	18027.15	17141
951.0867	2221.3121	17942	17056.7
951.2207	2222.7931	17865.25	16982.8
951.3546	2224.2733	17852.6	16968.6
951.4886	2225.7529	17783.8	16899
951.6225	2227.2317	17718.7	16833.75
951.7563	2228.7098	17715.35	16831.2
951.8902	2230.1872	17590.05	16708.45
952.024	2231.6638	17569.9	16686.4
952.1578	2233.1397	17493.85	16605.1
952.2916	2234.6149	17464.55	16582.5
952.4253	2236.0894	17399.15	16515.25
952.559	2237.5632	17357	16472.4
952.6927	2239.0362	17279.25	16396.4
952.8263	2240.5085	17206.45	16322.35
952.9599	2241.9801	17173.95	16290.6
953.0935	2243.4509	17091.45	16210.15
953.2271	2244.921	17055.7	16173.7
953.3606	2246.3904	16977.75	16093.25
953.4941	2247.8591	16915.5	16032.8
953.6276	2249.3271	16897.5	16016.2
953.7611	2250.7943	16800.15	15916.3
953.8945	2252.2608	16721.85	15838.1
954.0279	2253.7266	16718.45	15837.7
954.1612	2255.1917	16642.15	15758.6
954.2946	2256.656	16605.3	15722.3
954.4279	2258.1197	16533.5	15651.3
954.5612	2259.5826	16495.8	15610.85
954.6944	2261.0447	16463.4	15578.7
954.8276	2262.5062	16403.75	15519.95
954.9608	2263.9669	16379.8	15495.55
955.094	2265.4269	16327.95	15447.05
955.2271	2266.8862	16269.25	15386.35
955.3602	2268.3448	16229.6	15346.35
955.4933	2269.8026	16197.7	15314.45
955.6264	2271.2598	16133.5	15251.3
955.7594	2272.7162	16080.2	15197.35
955.8924	2274.1719	16025.85	15142.25
956.0253	2275.6268	15993.4	15109.95
956.1583	2277.0811	15940.7	15056.7
956.2912	2278.5346	15908.6	15027.6
956.4241	2279.9874	15855.4	14971.3
956.5569	2281.4395	15831.05	14950.9
956.6897	2282.8908	15764.85	14877.2
956.8225	2284.3414	15742.9	14856.95
956.9553	2285.7914	15685.9	14804.25
957.088	2287.2406	15629.75	14745.15
957.2207	2288.689	15569.7	14687.55
957.3534	2290.1368	15559.4	14676.5
957.486	2291.5838	15473.15	14589.05
957.6186	2293.0302	15443	14560.05
957.7512	2294.4758	15372.75	14491.35
957.8838	2295.9206	15318.3	14432.6
958.0163	2297.3648	15275.65	14393.45
958.1488	2298.8082	15230.65	14347.05
958.2813	2300.251	15190.1	14309.3
958.4137	2301.693	15154.9	14269.95
958.5461	2303.1343	15135.25	14250.95
958.6785	2304.5748	15054.8	14173.9
958.8108	2306.0147	14983.85	14100.85
958.9432	2307.4538	14965.9	14080.35
959.0754	2308.8922	14923.9	14044.1
959.2077	2310.3299	14857.85	13973.95
959.3399	2311.7669	14845.3	13964.5
959.4721	2313.2031	14790.75	13909.55
959.6043	2314.6387	14713.45	13829.2
959.7365	2316.0735	14654.25	13771.65
959.8686	2317.5076	14642.65	13759.4
960.0006	2318.941	14601.35	13718.6
960.1327	2320.3737	14564.85	13682.75
960.2647	2321.8056	14498.15	13612.95
960.3967	2323.2369	14459.2	13575.55
960.5287	2324.6674	14397.05	13513.4
960.6606	2326.0972	14366.45	13482.05
960.7925	2327.5263	14331.35	13449.65
960.9244	2328.9547	14245.9	13362.1
961.0562	2330.3823	14220.8	13338.15
961.1881	2331.8092	14202.85	13317.65
961.3198	2333.2355	14102.3	13218.5
961.4516	2334.661	14137.1	13254.9
961.5833	2336.0858	14082.55	13196.8
961.715	2337.5098	14041.35	13160.95
961.8467	2338.9332	14038.55	13154.95
961.9783	2340.3558	13977.6	13094.1
962.1099	2341.7778	13915.85	13033.55
962.2415	2343.199	13856.75	12970.4
962.373	2344.6195	13822.2	12938.25
962.5045	2346.0393	13786.25	12903.1
962.636	2347.4583	13746.45	12864.15
962.7675	2348.8767	13709.65	12826.55
962.8989	2350.2943	13659.55	12776.55
963.0303	2351.7113	13650.45	12766.5
963.1617	2353.1275	13553.7	12672.1
963.293	2354.543	13518.2	12624.65
963.4243	2355.9578	13476.6	12593.7
963.5556	2357.3718	13411.9	12529.15
963.6868	2358.7852	13329.65	12445.6
963.818	2360.1978	13327.95	12445.1
963.9492	2361.6098	13276.2	12394.1
964.0803	2363.021	13217.45	12331.1
964.2114	2364.4315	13222	12340.5
964.3425	2365.8413	13172.05	12287.15
964.4736	2367.2504	13111.25	12229.85
964.6046	2368.6587	13036.4	12154.8
964.7356	2370.0664	13011.95	12131.65
964.8666	2371.4733	12956.7	12074.1
964.9975	2372.8795	12922.1	12041.05
965.1284	2374.285	12883.5	11999.4
965.2593	2375.6899	12804	11922.7
965.3901	2377.0939	12769.6	11889.15
965.5209	2378.4973	12714.55	11831.8
965.6517	2379.9	12665.85	11782.2
965.7825	2381.3019	12627.05	11743.4
965.9132	2382.7032	12605.55	11723.7
966.0439	2384.1037	12588.35	11707.35
966.1745	2385.5035	12519.9	11636.5
966.3051	2386.9027	12463.4	11580.55
966.4357	2388.3011	12470.75	11585.4
966.5663	2389.6987	12406.1	11526
966.6968	2391.0957	12352.1	11469.75
966.8273	2392.492	12302.3	11421.35
966.9578	2393.8876	12242.65	11360.25
967.0882	2395.2824	12223.15	11341.85
967.2186	2396.6765	12124.35	11243
967.349	2398.07	12092.25	11210.45
967.4793	2399.4627	12090.65	11206.8
967.6097	2400.8547	12071	11188.85
967.7399	2402.246	12028.3	11141.45
967.8702	2403.6366	11951.8	11068.8
968.0004	2405.0265	11868.45	10986.15
968.1306	2406.4156	11850.85	10965.45
968.2607	2407.8041	11779.55	10893
968.3909	2409.1918	11759.15	10877.25
968.521	2410.5789	11698.95	10816.6
968.651	2411.9652	11645.05	10760.55
968.781	2413.3508	11600.05	10717.05
968.911	2414.7358	11560.95	10679
969.041	2416.12	11539.25	10656.85
969.1709	2417.5035	11510.95	10630
969.3008	2418.8863	11441.9	10557.5
969.4307	2420.2684	11428.1	10546.75
969.5606	2421.6497	11348.5	10464.25
969.6904	2423.0304	11311.85	10431.2
969.8201	2424.4104	11273.6	10390.9
969.9499	2425.7896	11223.15	10341.1
970.0796	2427.1682	11195.35	10311.8
970.2093	2428.546	11170.95	10287.8
970.3389	2429.9232	11155.15	10270.75
970.4685	2431.2996	11108.8	10226.75
970.5981	2432.6753	11111.45	10228.35
970.7277	2434.0503	11060.9	10179.9
970.8572	2435.4246	10994.95	10112.3
970.9867	2436.7982	10962.35	10078.8
971.1161	2438.1711	10938.95	10057.55
971.2456	2439.5433	10896.7	10011.8
971.375	2440.9148	10831.15	9946.7
971.5043	2442.2856	10786.95	9903.4
971.6336	2443.6557	10759.75	9876.1
971.7629	2445.025	10714.75	9836
971.8922	2446.3937	10710.9	9828.05
972.0214	2447.7617	10656.45	9775.45
972.1506	2449.1289	10630.9	9747.45
972.2798	2450.4955	10629.35	9743.05
972.4089	2451.8613	10594.25	9712.25
972.538	2453.2265	10561.05	9678.25
972.6671	2454.5909	10548.25	9667.05
972.7961	2455.9546	10503.8	9621.85
972.9251	2457.3177	10456.85	9575.45
973.0541	2458.68	10430.75	9546.6
973.1831	2460.0416	10421.5	9538.65
973.312	2461.4025	10371.7	9488.65
973.4408	2462.7627	10333.95	9439.5
973.5697	2464.1222	10297.65	9417.2
973.6985	2465.4811	10278.1	9395.85
973.8273	2466.8392	10247.85	9363.8
973.956	2468.1966	10234.05	9349.8
974.0847	2469.5533	10218.55	9333.75
974.2134	2470.9093	10178.35	9295.6
974.3421	2472.2645	10129.1	9244.75
974.4707	2473.6191	10096.7	9214.1
974.5993	2474.973	10052.9	9169.3
974.7278	2476.3262	10035.65	9150.2
974.8563	2477.6787	10001.1	9119.35
974.9848	2479.0305	9906.8	9025
975.1132	2480.3816	9904.65	9020.65
975.2417	2481.7319	9861.45	8980.15
975.37	2483.0816	9798.6	8913
975.4984	2484.4306	9793.55	8910.1
975.6267	2485.7789	9753.8	8872.55
975.755	2487.1264	9722.55	8835.2
975.8833	2488.4733	9669.1	8788.1
976.0115	2489.8195	9659.3	8768.65
976.1397	2491.165	9610.35	8726
976.2678	2492.5097	9603.6	8719.3
976.3959	2493.8538	9552.3	8671.6
976.524	2495.1972	9498	8615.85
976.6521	2496.5398	9460.35	8576.25
976.7801	2497.8818	9451.65	8567.95
976.9081	2499.2231	9399.05	8516.45
977.036	2500.5637	9376.1	8491.2
977.164	2501.9035	9337.9	8455
977.2918	2503.2427	9320.55	8435.95
977.4197	2504.5812	9289.7	8408.25
977.5475	2505.919	9284.6	8399.15
977.6753	2507.256	9247.55	8366.05
977.8031	2508.5924	9203.55	8322.45
977.9308	2509.9281	9172.25	8282.5
978.0585	2511.2631	9152.8	8269
978.1861	2512.5974	9122.05	8240.75
978.3137	2513.9309	9082.6	8199.25
978.4413	2515.2638	9051.35	8140.5
978.5689	2516.596	9017.15	8135.8
978.6964	2517.9275	8985.65	8102.45
978.8239	2519.2583	8950.15	8068.5
978.9513	2520.5884	8913	8030.15
979.0788	2521.9178	8904.95	8022.55
979.2062	2523.2465	8835.45	7953.25
979.3335	2524.5745	8809.35	7927.3
979.4608	2525.9018	8768.85	7886.45
979.5881	2527.2284	8776.55	7896.05
979.7154	2528.5543	8749.85	7869
979.8426	2529.8796	8704.9	7822.2
979.9698	2531.2041	8693.2	7812.45
980.0969	2532.5279	8683.05	7803.75
980.224	2533.851	8661.7	7779.85
980.3511	2535.1735	8622.7	7741
980.4781	2536.4952	8614	7731.55
980.6052	2537.8163	8599.8	7716.1
980.7321	2539.1366	8560.45	7679.1
980.8591	2540.4562	8545.95	7661.95
980.986	2541.7752	8513.1	7630.3
981.1129	2543.0935	8489.1	7604.75
981.2397	2544.411	8479.3	7594.6
981.3665	2545.7279	8444.7	7562.3
981.4933	2547.0441	8449	7569.6
981.62	2548.3596	8438.6	7555.2
981.7467	2549.6744	8409	7527.1
981.8734	2550.9885	8388.1	7498
982.0001	2552.3019	8346.9	7465.05
982.1267	2553.6146	8346.55	7462.65
982.2532	2554.9266	8309.5	7426.55
982.3798	2556.2379	8274.4	7388.7
982.5063	2557.5485	8253.35	7372.5
982.6327	2558.8585	8239.35	7348.8
982.7592	2560.1677	8230.8	7346.35
982.8856	2561.4762	8205.25	7323.95
983.0119	2562.7841	8184.35	7299
983.1383	2564.0913	8191.95	7310.85
983.2646	2565.3977	8155.4	7272.15
983.3908	2566.7035	8123.95	7241.7
983.517	2568.0086	8114.2	7230.7
983.6432	2569.313	8099.25	7216.9
983.7694	2570.6167	8073.7	7190.05
983.8955	2571.9197	8065.5	7186.6
984.0216	2573.222	8038.15	7154.55
984.1476	2574.5236	8018.15	7137.45
984.2737	2575.8246	7994.6	7108.9
984.3996	2577.1248	7991.1	7106.3
984.5256	2578.4244	7950.85	7070.65
984.6515	2579.7232	7964.8	7083.4
984.7774	2581.0214	7950.1	7043.55
984.9032	2582.3189	7944.6	7064.7
985.029	2583.6157	7910.05	7022.25
985.1548	2584.9118	7881	6998.35
985.2806	2586.2072	7840.85	6960.15
985.4063	2587.5019	7837.5	6954.8
985.5319	2588.7959	7802.1	6917.8
985.6576	2590.0893	7824	6939.45
985.7832	2591.3819	7770.55	6888.75
985.9087	2592.6739	7754.15	6873.9
986.0343	2593.9652	7729.3	6845.85
986.1597	2595.2557	7692.15	6810.75
986.2852	2596.5456	7657.95	6773.8
986.4106	2597.8348	7640.15	6759.25
986.536	2599.1234	7592.35	6711.15
986.6614	2600.4112	7564.3	6680.65
986.7867	2601.6983	7547.5	6662
986.912	2602.9848	7519.05	6636.7
987.0372	2604.2705	7489.95	6600.1
987.1624	2605.5556	7484.7	6600.2
987.2876	2606.84	7447.45	6564.35
987.4128	2608.1237	7419	6537.3
987.5379	2609.4067	7395.8	6514.35
987.6629	2610.689	7380.3	6489.65
987.788	2611.9707	7354.75	6469.15
987.913	2613.2516	7326.55	6438.35
988.0379	2614.5319	7279.75	6398.15
988.1629	2615.8115	7263.7	6379.95
988.2878	2617.0903	7238.25	6353.25
988.4126	2618.3685	7202.85	6320.7
988.5375	2619.6461	7189.6	6307.65
988.6622	2620.9229	7148.4	6266.45
988.787	2622.199	7138.95	6257.25
988.9117	2623.4745	7120	6236.65
989.0364	2624.7493	7101.85	6219.65
989.161	2626.0234	7069.9	6189.1
989.2857	2627.2968	7042	6159.2
989.4102	2628.5695	7017.45	6134.6
989.5348	2629.8415	6985.7	6104.6
989.6593	2631.1128	6965.95	6083.35
989.7837	2632.3835	6921	6035.85
989.9082	2633.6535	6880.55	5999.65
990.0326	2634.9228	6871.3	5990.85
990.1569	2636.1914	6840.5	5957.05
990.2812	2637.4593	6814.25	5927.95
990.4055	2638.7265	6810.4	5925.7
990.5298	2639.9931	6783.5	5902.1
990.654	2641.259	6770.75	5887
990.7782	2642.5242	6750.2	5867.2
990.9023	2643.7887	6740.65	5858.25
991.0264	2645.0525	6719.25	5834.75
991.1505	2646.3156	6676.85	5794.15
991.2745	2647.5781	6665.85	5786.15
991.3985	2648.8398	6641.25	5757.55
991.5225	2650.1009	6664.45	5744.25
991.6464	2651.3613	6604.35	5721
991.7703	2652.6211	6583.7	5700.3
991.8942	2653.8801	6559.1	5675.8
992.018	2655.1385	6561.45	5676.2
992.1418	2656.3961	6519.85	5638.7
992.2655	2657.6531	6525.45	5643.15
992.3892	2658.9094	6503.8	5621.45
992.5129	2660.1651	6483.8	5601.35
992.6366	2661.42	6471.65	5590.05
992.7602	2662.6743	6454.75	5573.65
992.8837	2663.9279	6443.2	5561.15
993.0073	2665.1808	6415.7	5532.45
993.1307	2666.433	6389.05	5506
993.2542	2667.6846	6354.8	5474.5
993.3776	2668.9354	6360.7	5477.1
993.501	2670.1856	6347.2	5465.75
993.6244	2671.4351	6325.25	5445.5
993.7477	2672.6839	6304.15	5421.35
993.8709	2673.9321	6290.2	5407.7
993.9942	2675.1795	6249	5367.15
994.1174	2676.4263	6247.3	5364.85
994.2405	2677.6724	6214.35	5334.8
994.3637	2678.9179	6190.3	5306.45
994.4868	2680.1626	6193.3	5313.1
994.6098	2681.4067	6175.05	5291.6
994.7328	2682.6501	6157.85	5275.95
994.8558	2683.8928	6140.05	5256.8
994.9788	2685.1348	6090.45	5208.9
995.1017	2686.3761	6076.3	5194.9
995.2245	2687.6168	6066.75	5182.75
995.3474	2688.8568	6064.35	5181.45
995.4702	2690.0961	6016.75	5136.1
995.5929	2691.3348	6003.95	5122
995.7156	2692.5727	6000.3	5118.55
995.8383	2693.81	5965.6	5083.5
995.961	2695.0466	5960.2	5080.45
996.0836	2696.2826	5941.45	5056.55
996.2062	2697.5178	5909.3	5025.25
996.3287	2698.7524	5885.7	5004.7
996.4512	2699.9863	5901.15	5018.05
996.5737	2701.2195	5861.35	4978.95
996.6961	2702.452	5868.65	4984.55
996.8185	2703.6839	5844.8	4961.8
996.9408	2704.9151	5807.5	4927.45
997.0631	2706.1456	5812.05	4929.6
997.1854	2707.3755	5793.45	4912.8
997.3077	2708.6046	5758.65	4872.65
997.4299	2709.8331	5762.55	4881.3
997.552	2711.0609	5711.05	4829.15
997.6742	2712.2881	5694.95	4813.85
997.7963	2713.5145	5698.35	4813.85
997.9183	2714.7403	5695.05	4813.3
998.0403	2715.9654	5653.35	4769.65
998.1623	2717.1899	5658	4774.45
998.2842	2718.4136	5642.7	4761
998.4062	2719.6367	5602.15	4719.2
998.528	2720.8591	5599	4709.2
998.6498	2722.0809	5573.1	4690.6
998.7716	2723.3019	5549.95	4664.95
998.8934	2724.5223	5540.6	4657.15
999.0151	2725.7421	5525.3	4641.5
999.1368	2726.9611	5504.1	4618.85
999.2584	2728.1795	5497.45	4610
999.38	2729.3972	5470.85	4588.25
999.5016	2730.6142	5458.7	4568.5
999.6231	2731.8306	5400.05	4518
999.7446	2733.0462	5399.6	4516.2
999.8661	2734.2612	5373.1	4485.2
999.9875	2735.4756	5352.55	4469.65
1000.1089	2736.6892	5326.45	4443.35
1000.2302	2737.9022	5316.6	4434.75
1000.3515	2739.1145	5272.55	4391.25
1000.4728	2740.3262	5273.15	4382
1000.594	2741.5372	5239.15	4358.9
1000.7152	2742.7475	5206.2	4324.25
1000.8363	2743.9571	5197.8	4313.9
1000.9575	2745.1661	5178.4	4291.3
1001.0785	2746.3744	5158.15	4275.95
1001.1996	2747.582	5147.65	4266.1
1001.3206	2748.7889	5135.15	4250.7
1001.4415	2749.9952	5106.35	4226.5
1001.5625	2751.2008	5075	4193.55
1001.6833	2752.4057	5065.55	4180.7
1001.8042	2753.61	5053.9	4170.55
1001.925	2754.8136	5030.7	4145.55
1002.0458	2756.0165	5023.25	4141.7
1002.1665	2757.2188	5002.65	4120.75
1002.2872	2758.4204	4984.05	4101.1
1002.4078	2759.6213	4971.2	4085.9
1002.5285	2760.8215	4961.75	4074.2
1002.649	2762.0211	4935.1	4049.1
1002.7696	2763.22	4927.25	4042.2
1002.8901	2764.4182	4899	4017.25
1003.0106	2765.6158	4897.15	4015.9
1003.131	2766.8127	4879.8	3997.4
1003.2514	2768.009	4848.05	3966.65
1003.3717	2769.2045	4840.65	3956.25
1003.492	2770.3994	4844.85	3959.35
1003.6123	2771.5936	4832.9	3950.85
1003.7325	2772.7872	4800.85	3917.15
1003.8527	2773.9801	4754.6	3870.75
1003.9729	2775.1723	4760.4	3862.35
1004.093	2776.3639	4735.7	3855.75
1004.2131	2777.5548	4726.55	3844.65
1004.3331	2778.745	4724.7	3840.6
1004.4531	2779.9346	4705.8	3824.9
1004.5731	2781.1235	4691.7	3809.9
1004.693	2782.3117	4665.5	3782.4
1004.8129	2783.4992	4655.3	3774.3
1004.9328	2784.6861	4638.5	3755.85
1005.0526	2785.8723	4646.4	3763.15
1005.1723	2787.0579	4627.55	3748.15
1005.2921	2788.2428	4599.5	3716.95
1005.4118	2789.427	4586.75	3704.2
1005.5314	2790.6106	4578.65	3698
1005.651	2791.7935	4562.35	3677.8
1005.7706	2792.9757	4562.25	3683.9
1005.8902	2794.1573	4537.25	3653.95
1006.0097	2795.3382	4524.25	3641.1
1006.1291	2796.5184	4518.8	3637.5
1006.2485	2797.698	4494	3610.3
1006.3679	2798.8769	4508.35	3627.9
1006.4873	2800.0551	4489.35	3604.9
1006.6066	2801.2327	4480.45	3597.5
1006.7258	2802.4096	4464.45	3583.4
1006.8451	2803.5859	4446.85	3563.3
1006.9642	2804.7615	4436.25	3554.95
1007.0834	2805.9364	4444.25	3562.05
1007.2025	2807.1106	4428	3545.25
1007.3216	2808.2842	4424.35	3544
1007.4406	2809.4572	4437.6	3555.9
1007.5596	2810.6294	4428.2	3546.75
1007.6785	2811.801	4438.3	3556.7
1007.7975	2812.972	4441.6	3560.1
1007.9163	2814.1423	4447.05	3565.6
1008.0352	2815.3119	4476.1	3593.35
1008.154	2816.4808	4466.1	3585.35
1008.2727	2817.6491	4469.6	3586.8
1008.3914	2818.8167	4466.95	3584.8
1008.5101	2819.9837	4498.2	3612.75
1008.6288	2821.15	4512.1	3630.15
1008.7474	2822.3157	4515.8	3634.7
1008.8659	2823.4807	4533.35	3652.35
1008.9844	2824.645	4569	3686.45
1009.1029	2825.8086	4568.05	3686.9
1009.2214	2826.9716	4577.05	3696.55
1009.3398	2828.134	4601.85	3719.55
1009.4581	2829.2957	4615.4	3734.3
1009.5764	2830.4567	4622.2	3741.15
1009.6947	2831.617	4605.45	3725.75
1009.813	2832.7767	4606.5	3723.9
1009.9312	2833.9358	4614.55	3734.2
1010.0493	2835.0941	4604.35	3722.8
1010.1675	2836.2519	4591.8	3710
1010.2855	2837.4089	4574.55	3693.85
1010.4036	2838.5653	4552.5	3670.2
1010.5216	2839.7211	4538.2	3658.55
1010.6396	2840.8761	4528.5	3645.7
1010.7575	2842.0306	4516.2	3635
1010.8754	2843.1843	4522.8	3640.45
1010.9932	2844.3374	4536.55	3656.1
1011.111	2845.4899	4531.3	3647.25
1011.2288	2846.6417	4544.85	3665.45
1011.3465	2847.7928	4579.25	3698.25
1011.4642	2848.9433	4597.6	3714.85
1011.5818	2850.0931	4602.35	3720.8
1011.6995	2851.2422	4617.35	3734.15
1011.817	2852.3907	4643	3758.15
1011.9345	2853.5385	4660.15	3776.1
1012.052	2854.6857	4695.4	3803.25
1012.1695	2855.8323	4678.9	3797.7
1012.2869	2856.9781	4688.95	3806.25
1012.4042	2858.1233	4691.2	3808.3
1012.5216	2859.2679	4711.3	3829.35
1012.6389	2860.4118	4736.65	3856.1
1012.7561	2861.555	4740.1	3854.75
1012.8733	2862.6976	4764.95	3881.4
1012.9905	2863.8395	4731.55	3851.45
1013.1076	2864.9808	4752.05	3869.5
1013.2247	2866.1214	4733.8	3853.5
1013.3417	2867.2614	4747.15	3867.35
1013.4587	2868.4007	4744.55	3862.2
1013.5757	2869.5393	4738.5	3855.4
1013.6926	2870.6773	4726.5	3842.4
1013.8095	2871.8146	4716.35	3831.05
1013.9263	2872.9513	4704.3	3818.5
1014.0431	2874.0874	4670.85	3790.8
1014.1599	2875.2227	4672.85	3790.05
1014.2766	2876.3574	4643.95	3762.05
1014.3933	2877.4915	4619.9	3739.2
1014.51	2878.6249	4594.1	3712.7
1014.6266	2879.7577	4583	3701.65
1014.7431	2880.8898	4561.7	3668.85
1014.8596	2882.0212	4533.1	3651.95
1014.9761	2883.152	4524.9	3640.35
1015.0925	2884.2821	4522.55	3641.8
1015.2089	2885.4116	4494.8	3612.9
1015.3253	2886.5405	4485.25	3605.55
1015.4416	2887.6686	4488	3603.8
1015.5579	2888.7962	4466.35	3586.4
1015.6741	2889.923	4462.9	3583.3
1015.7903	2891.0493	4449.05	3569.45
1015.9065	2892.1748	4450.25	3567.8
1016.0226	2893.2997	4430.6	3548.35
1016.1387	2894.424	4426.7	3545.35
1016.2547	2895.5476	4434.15	3553.15
1016.3707	2896.6706	4423.4	3541
1016.4866	2897.7929	4415.7	3534.75
1016.6025	2898.9145	4425.45	3544.45
1016.7184	2900.0355	4417.45	3535.3
1016.8342	2901.1559	4424.25	3542.1
1016.95	2902.2756	4427.85	3546
1017.0658	2903.3946	4420.45	3538.3
1017.1815	2904.513	4431.45	3546.85
1017.2971	2905.6308	4421.45	3541.2
1017.4127	2906.7479	4416.2	3532.95
1017.5283	2907.8643	4418.8	3536.15
1017.6439	2908.9801	4396.2	3514.1
1017.7594	2910.0953	4404.55	3521.7
1017.8748	2911.2098	4405.8	3521.8
1017.9902	2912.3236	4384.1	3496.4
1018.1056	2913.4368	4390.1	3506
1018.2209	2914.5494	4356.3	3473.75
1018.3362	2915.6613	4317.1	3430.7
1018.4515	2916.7725	4303.35	3418.05
1018.5667	2917.8831	4276.85	3394.9
1018.6819	2918.9931	4256.8	3371
1018.797	2920.1024	4227.55	3344.55
1018.9121	2921.211	4194.05	3312.3
1019.0271	2922.319	4197.1	3314.95
1019.1421	2923.4264	4180.75	3299.1
1019.2571	2924.5331	4185.95	3305.1
1019.372	2925.6391	4170	3289.4
1019.4869	2926.7445	4159.6	3279.5
1019.6017	2927.8493	4159.35	3276.6
1019.7165	2928.9534	4145.25	3263.8
1019.8313	2930.0569	4140.4	3255.5
1019.946	2931.1597	4115	3231.4
1020.0606	2932.2619	4113.9	3233.6
1020.1753	2933.3634	4097.5	3213.75
1020.2899	2934.4643	4100.85	3212.4
1020.4044	2935.5645	4111.6	3224.9
1020.5189	2936.6641	4072.1	3187.2
1020.6334	2937.763	4052.25	3171.3
1020.7478	2938.8613	4025.7	3141
1020.8622	2939.959	3987.4	3100.05
1020.9765	2941.056	3948.6	3068.95
1021.0908	2942.1523	3899.25	3018
1021.2051	2943.248	3863.1	2980.1
1021.3193	2944.3431	3804.55	2922.8
1021.4334	2945.4375	3756.25	2873.7
1021.5476	2946.5313	3693.05	2813.95
1021.6617	2947.6244	3643.4	2761.2
1021.7757	2948.7169	3601	2718.6
1021.8897	2949.8087	3562.2	2680.15
1022.0037	2950.8999	3495.1	2614.7
1022.1176	2951.9904	3460	2577.1
1022.2315	2953.0803	3409.1	2525.4
1022.3453	2954.1696	3373.95	2492.35
1022.4591	2955.2582	3340.05	2458.55
1022.5728	2956.3462	3316.55	2437.15
1022.6865	2957.4335	3287.85	2405.35
1022.8002	2958.5202	3274.45	2391.3
1022.9138	2959.6062	3238.75	2357.3
1023.0274	2960.6916	3221.75	2341.4
1023.141	2961.7764	3210.3	2326.8
1023.2545	2962.8605	3183.1	2300.2
1023.3679	2963.9439	3166.8	2286.25
1023.4813	2965.0267	3172.6	2290
1023.5947	2966.1089	3163.6	2258.55
1023.708	2967.1905	3133.25	2251.65
1023.8213	2968.2714	3120.95	2241
1023.9346	2969.3516	3113.2	2230.85
1024.0478	2970.4312	3127.55	2238.95
1024.1609	2971.5102	3101.8	2220.6
1024.274	2972.5885	3108.25	2226.5
1024.3871	2973.6662	3104.7	2218.65
1024.5002	2974.7432	3092	2209.75
1024.6132	2975.8196	3077.05	2196.1
1024.7261	2976.8954	3070.15	2189.45
1024.839	2977.9705	3048.05	2166.15
1024.9519	2979.045	3050.55	2170
1025.0647	2980.1188	3016.5	2136.2
1025.1775	2981.192	3000.7	2120.4
1025.2902	2982.2645	2986.05	2105.1
1025.4029	2983.3364	2976.8	2095.35
1025.5156	2984.4077	2954.45	2074.9
1025.6282	2985.4783	2937.5	2050.35
1025.7407	2986.5483	2914	2034.25
1025.8532	2987.6177	2882.85	2003.3
1025.9657	2988.6864	2872.25	1990.3
1026.0782	2989.7545	2849.85	1968.8
1026.1906	2990.8219	2817.15	1936.5
1026.3029	2991.8887	2808.3	1924.6
1026.4152	2992.9548	2795.9	1913.25
1026.5275	2994.0204	2774.6	1892.5
1026.6397	2995.0852	2754.7	1876.55
1026.7519	2996.1495	2729.25	1845.4
1026.864	2997.2131	2715.25	1833.5
1026.9761	2998.276	2692.65	1810.45
1027.0882	2999.3383	2676.55	1793.75
1027.2002	3000.4	2656.6	1773.4
1027.3122	3001.4611	2647.4	1764.8
1027.4241	3002.5215	2639.7	1757.4
1027.536	3003.5812	2625.75	1743.5
1027.6478	3004.6404	2604.85	1721.9
1027.7596	3005.6989	2603.45	1720.6
1027.8714	3006.7567	2584.9	1703.15
1027.9831	3007.8139	2611.35	1701.5
1028.0947	3008.8705	2559.55	1677.8
1028.2064	3009.9264	2548.85	1662.9
1028.3179	3010.9818	2543.45	1663.2
1028.4295	3012.0364	2532.8	1651.95
1028.541	3013.0905	2531.85	1649.15
1028.6524	3014.1439	2509.85	1628.7
1028.7638	3015.1966	2516.6	1636.9
1028.8752	3016.2487	2501.25	1619.85
1028.9865	3017.3002	2494.2	1608.75
1029.0978	3018.3511	2490.05	1610.8
1029.209	3019.4013	2487.7	1605.4
1029.3202	3020.4509	2469.25	1589.05
1029.4314	3021.4998	2473.15	1589.8
1029.5425	3022.5481	2461.25	1580.45
1029.6535	3023.5958	2461.7	1580.55
1029.7645	3024.6428	2450.4	1568.65
1029.8755	3025.6892	2445.5	1564
1029.9864	3026.735	2437.55	1556.5
1030.0973	3027.7802	2435	1554.55
1030.2082	3028.8247	2421.65	1539.9
1030.319	3029.8685	2417.8	1533.7
1030.4297	3030.9118	2420.85	1535.95
1030.5404	3031.9544	2398.2	1518.15
1030.6511	3032.9963	2406.8	1525
1030.7617	3034.0376	2381.8	1500.2
1030.8723	3035.0783	2381.2	1498.5
1030.9829	3036.1184	2387	1504.2
1031.0934	3037.1578	2383.6	1504.4
1031.2038	3038.1966	2372.3	1489.6
1031.3142	3039.2348	2363.85	1481.3
1031.4246	3040.2723	2370.7	1482.55
1031.5349	3041.3092	2368.2	1487.8
1031.6452	3042.3455	2346.8	1465.5
1031.7554	3043.3811	2337.85	1456.1
1031.8656	3044.4161	2328.45	1445.3
1031.9758	3045.4505	2333.1	1453.25
1032.0859	3046.4842	2327.1	1445.5
1032.1959	3047.5173	2318.1	1438.8
1032.3059	3048.5498	2308.1	1426.4
1032.4159	3049.5816	2309.5	1428.45
1032.5258	3050.6128	2311.3	1429.05
1032.6357	3051.6434	2302.9	1421.25
1032.7455	3052.6734	2298.85	1417.25
1032.8553	3053.7027	2282.35	1400.1
1032.9651	3054.7314	2274.6	1392.9
1033.0748	3055.7594	2272.55	1393.2
1033.1845	3056.7868	2252.6	1369.75
1033.2941	3057.8136	2246.45	1366.25
1033.4037	3058.8398	2243.45	1362.15
1033.5132	3059.8653	2243.85	1362.75
1033.6227	3060.8902	2228.95	1347.7
1033.7321	3061.9145	2227.5	1346.65
1033.8415	3062.9381	2213.3	1330.9
1033.9509	3063.9612	2226.25	1328.55
1034.0602	3064.9835	2203.7	1320.5
1034.1694	3066.0053	2193.5	1310.85
1034.2787	3067.0264	2191.65	1309.2
1034.3878	3068.0469	2182.65	1299.35
1034.497	3069.0668	2184.55	1302.6
1034.6061	3070.086	2181.8	1300.1
1034.7151	3071.1046	2166.7	1285.35
1034.8241	3072.1226	2153.2	1269.35
1034.9331	3073.1399	2154.4	1273.95
1035.042	3074.1567	2150.85	1268.75
1035.1508	3075.1727	2143.1	1259.85
1035.2597	3076.1882	2128.5	1244.75
1035.3684	3077.203	2112.85	1230.65
1035.4772	3078.2173	2111.45	1227.25
1035.5859	3079.2308	2112.4	1229
1035.6945	3080.2438	2102.5	1219.1
1035.8031	3081.2561	2091.9	1210.95
1035.9117	3082.2678	2081.7	1201.2
1036.0202	3083.2789	2082.65	1199.9
1036.1286	3084.2893	2067.5	1186.25
1036.2371	3085.2991	2065.35	1180.9
1036.3454	3086.3083	2060.25	1174.15
1036.4538	3087.3169	2055.05	1172.3
1036.562	3088.3248	2035.15	1151.25
1036.6703	3089.3321	2033.9	1151.35
1036.7785	3090.3388	2025.95	1145.3
1036.8866	3091.3449	2019.75	1137.2
1036.9948	3092.3503	2019.95	1136.9
1037.1028	3093.3551	2011.5	1130.45
1037.2108	3094.3593	1997.55	1117.65
1037.3188	3095.3629	1992.45	1111.8
1037.4267	3096.3658	1994.05	1110.6
1037.5346	3097.3681	1987.2	1108.25
1037.6425	3098.3698	1987.4	1104.35
1037.7503	3099.3708	1972.3	1084.4
1037.858	3100.3713	1960.85	1080.9
1037.9657	3101.3711	1964.45	1082.95
1038.0734	3102.3702	2081.2	1063.1
1038.181	3103.3688	1954.2	1072.45
1038.2886	3104.3667	1935.55	1057.45
1038.3961	3105.364	1926.85	1046.95
1038.5036	3106.3607	1923.75	1040.8
1038.611	3107.3568	1910.65	1028.6
1038.7184	3108.3522	1907.65	1025.75
1038.8257	3109.347	1909.1	1025.45
1038.933	3110.3412	1895.95	1010.3
1039.0403	3111.3348	1900.4	1017.9
1039.1475	3112.3277	1897.9	1017.15
1039.2547	3113.32	1880.65	999.75
1039.3618	3114.3117	1882.7	1000.45
1039.4689	3115.3028	1881.35	1001.3
1039.5759	3116.2932	1870.25	985.1
1039.6829	3117.2831	1871.5	985.5
1039.7898	3118.2723	1853.3	971.7
1039.8967	3119.2608	1842.6	960.3
1040.0035	3120.2488	1842.45	962.35
1040.1103	3121.2361	1831.85	950.4
1040.2171	3122.2229	1830.85	951.6
1040.3238	3123.209	1828.4	945.55
1040.4305	3124.1944	1823.55	943.75
1040.5371	3125.1793	1817.15	935.55
1040.6437	3126.1635	1804.2	921.3
1040.7502	3127.1471	1803.8	923.45
1040.8567	3128.1301	1801.85	920.75
1040.9631	3129.1125	1803.55	922.1
1041.0695	3130.0942	1791.6	911.25
1041.1759	3131.0753	1801.65	911.85
1041.2822	3132.0558	1792.75	911
1041.3884	3133.0357	1773.6	891.15
1041.4946	3134.015	1764.15	882.4
1041.6008	3134.9936	1776.95	893.95
1041.7069	3135.9716	1798.75	894.3
1041.813	3136.949	1770.55	888.1
1041.919	3137.9258	1770.6	885.3
1042.025	3138.902	1770.55	884.5
1042.1309	3139.8775	1759.3	881.2
1042.2368	3140.8524	1751.85	868.75
1042.3427	3141.8267	1755.35	875.2
1042.4485	3142.8004	1743.35	861.8
1042.5542	3143.7735	1738.85	850.75
1042.6599	3144.7459	1739.55	857.65
1042.7656	3145.7178	1731.9	848.3
1042.8712	3146.689	1730.4	850
1042.9768	3147.6596	1720.35	837.6
1043.0823	3148.6295	1714.75	831.15
1043.1878	3149.5989	1711.75	831.5
1043.2932	3150.5676	1713.25	833.55
1043.3986	3151.5357	1712.6	831.6
1043.5039	3152.5032	1702.15	821.25
1043.6092	3153.4701	1696.9	816.5
1043.7145	3154.4364	1688.9	806.05
1043.8197	3155.402	1683.55	803.5
1043.9248	3156.367	1678.5	793.95
1044.03	3157.3315	1706.9	785.75
1044.135	3158.2952	1675.6	793.75
1044.24	3159.2584	1657.3	777.05
1044.345	3160.221	1668.5	786.7
1044.4499	3161.1829	1653.6	771.2
1044.5548	3162.1442	1658.6	777.95
1044.6596	3163.105	1646.2	765
1044.7644	3164.065	1644.75	763.9
1044.8692	3165.0245	1642.65	758.35
1044.9739	3165.9834	1630.95	751.1
1045.0785	3166.9416	1629.9	749.25
1045.1831	3167.8993	1629.55	747.8
1045.2877	3168.8563	1623.75	741.25
1045.3922	3169.8127	1628.45	748
1045.4966	3170.7684	1620.05	739.7
1045.6011	3171.7236	1613	731.15
1045.7054	3172.6782	1615.85	733.6
1045.8098	3173.6321	1602.7	721.45
1045.914	3174.5854	1602.05	717.4
1046.0183	3175.5381	1603.7	722
1046.1224	3176.4902	1586.5	705.6
1046.2266	3177.4417	1586.45	706.45
1046.3307	3178.3926	1584.25	704.2
1046.4347	3179.3428	1582.65	702.85
1046.5387	3180.2924	1583.05	701.4
1046.6427	3181.2415	1571.55	691.35
1046.7466	3182.1899	1565.75	682.55
1046.8504	3183.1377	1563.05	681.75
1046.9542	3184.0848	1574.55	690.3
1047.058	3185.0314	1552.95	670.7
1047.1617	3185.9773	1553.1	671.35
1047.2654	3186.9227	1544.7	664.05
1047.369	3187.8674	1543.15	661.3
1047.4726	3188.8115	1557.15	670.25
1047.5761	3189.755	1549.4	666.3
1047.6796	3190.6979	1539.85	660.15
1047.783	3191.6402	1530.55	648.6
1047.8864	3192.5818	1524.6	642.1
1047.9898	3193.5229	1539.55	640.55
1048.0931	3194.4633	1527.45	644.9
1048.1963	3195.4031	1522.3	640.35
1048.2995	3196.3423	1515.45	635.55
1048.4027	3197.2809	1520.2	637.25
1048.5058	3198.2189	1513.55	633.95
1048.6089	3199.1563	1529.5	634.2
1048.7119	3200.0931	1506.7	628.15
1048.8148	3201.0292	1498.7	617.45
1048.9178	3201.9648	1491.75	609.4
1049.0206	3202.8997	1496.2	613.1
1049.1235	3203.834	1492.2	611
1049.2262	3204.7677	1493.6	611.7
1049.329	3205.7008	1487.8	603.5
1049.4317	3206.6333	1479.6	598.25
1049.5343	3207.5652	1484.3	601
1049.6369	3208.4964	1471.35	590
1049.7394	3209.4271	1469.55	590.05
1049.8419	3210.3571	1472.8	592.15
1049.9444	3211.2865	1463.7	580.4
1050.0468	3212.2154	1468.3	587.5
1050.1491	3213.1436	1461.2	576.6
1050.2514	3214.0712	1456.25	566.95
1050.3537	3214.9982	1459.85	578.6
1050.4559	3215.9246	1464.1	582.35
1050.5581	3216.8503	1451.8	571.05
1050.6602	3217.7755	1448.15	564.7
1050.7623	3218.7001	1447.35	567.5
1050.8643	3219.624	1445.15	564.55
1050.9663	3220.5473	1439.8	557.75
1051.0682	3221.4701	1437.2	554.65
1051.1701	3222.3922	1437.75	554.25
1051.2719	3223.3137	1426.05	544.05
1051.3737	3224.2346	1424.55	544.5
1051.4754	3225.1549	1423.05	541.95
1051.5771	3226.0746	1419.65	536.7
1051.6788	3226.9937	1422.25	540.05
1051.7804	3227.9121	1410.4	530.15
1051.8819	3228.83	1409.75	528.3
1051.9834	3229.7473	1404.45	521.8
1052.0849	3230.6639	1406.75	524.95
1052.1863	3231.5799	1399.35	520.2
1052.2876	3232.4954	1400	517.15
1052.3889	3233.4102	1396.05	515.5
1052.4902	3234.3244	1395.75	512.4
1052.5914	3235.238	1392.4	512.95
1052.6926	3236.151	1410.75	504.9
1052.7937	3237.0634	1376.4	494.05
1052.8948	3237.9752	1381.55	500.6
1052.9958	3238.8864	1384	502.5
1053.0968	3239.797	1377.3	496.8
1053.1977	3240.7069	1364.9	483.25
1053.2986	3241.6163	1370.25	486.05
1053.3994	3242.5251	1370.8	490.25
1053.5002	3243.4332	1362.3	481.55
1053.6009	3244.3408	1361.4	480.55
1053.7016	3245.2477	1356.15	474
1053.8022	3246.154	1359.7	477.05
1053.9028	3247.0598	1354.75	472.85
1054.0034	3247.9649	1345.45	465.65
1054.1039	3248.8694	1348.65	468.8
1054.2043	3249.7733	1343.25	460.4
1054.3047	3250.6766	1342.7	461.15
1054.4051	3251.5793	1339.4	457.85
1054.5054	3252.4814	1334.2	453.75
1054.6056	3253.3829	1328.85	448
1054.7058	3254.2838	1328.9	449.45
1054.806	3255.1841	1330.25	448.15
1054.9061	3256.0838	1320.45	440.15
1055.0061	3256.9829	1322.1	440
1055.1062	3257.8814	1316.45	434.1
1055.2061	3258.7792	1311	429.5
1055.306	3259.6765	1305.25	421.95
1055.4059	3260.5731	1304.4	425.2
1055.5057	3261.4692	1300.9	419.1
1055.6055	3262.3647	1288.3	406.6
1055.7052	3263.2595	1281.35	399.8
1055.8049	3264.1538	1283.65	400.3
1055.9045	3265.0474	1276.25	395.35
1056.0041	3265.9404	1267.4	385.3
1056.1036	3266.8329	1262.4	381.7
1056.2031	3267.7247	1267.1	375.5
1056.3025	3268.616	1244.15	363.65
1056.4019	3269.5066	1237.55	355.05
1056.5013	3270.3966	1229.35	347
1056.6005	3271.286	1216.1	334.9
