Software Version:	3.9.2.0
Unit SN:	10000200
Spectrometer SN:	6960
Date:	3/6/2024 10:17:48 AM
Data Line Index:	25
Spectral Points:	2048
Integration time (ms):	125
Averages:	20
Delay (ms):	30
Sequence Number:	1
Processing:	dark subtract
Laser Power (mW):	305
Laser Current (mA):	825
Laser Diode Temp (C):	25.1
Laser Case Temp (C):	25.2
System Temp (C):	25
Spectrometer Temp (C):	22.5
CCD Temp (C):	-0.006
Secondary Temp (C):	20.011
Heatsink Temp (C):	20.142
CCDPCB Temp (C):	32.35
SecondaryPCB Temp (C):	26.214

Wavelength	RamanShift	Raw Counts	Dark Subtracted
787.061	30.1047	1109.65	700.55
787.2016	32.3739	1140.55	731.45
787.3422	34.6426	1190.15	780
787.4828	36.9109	1235.1	825.6
787.6235	39.1787	1291.6	878.2
787.7642	41.4461	1350.3	930.3
787.9049	43.7131	1413.95	991.35
788.0456	45.9796	1461.65	1037.25
788.1863	48.2456	1540.5	1112.1
788.3271	50.5112	1600.9	1168.6
788.4679	52.7764	1664.85	1231.45
788.6087	55.0411	1743.3	1305.65
788.7496	57.3054	1829.3	1384.5
788.8904	59.5692	1914.5	1466.8
789.0313	61.8326	2012.35	1563.2
789.1722	64.0955	2107.3	1654.65
789.3132	66.3579	2225.5	1767.8
789.4541	68.6199	2381.95	1920.2
789.5951	70.8815	2641.9	2176.3
789.7361	73.1426	3183	2711.55
789.8771	75.4032	4591.85	4117.15
790.0181	77.6634	8248.35	7770.1
790.1592	79.9231	18724	18239.15
790.3003	82.1824	55304.2	54809.7
790.4414	84.4412	65535	65020.65
790.5825	86.6995	65535	64995.8
790.7237	88.9574	65535	64971.25
790.8648	91.2148	65535	64958.95
791.006	93.4717	65535	64947.1
791.1472	95.7282	65535	64945.3
791.2885	97.9842	65535	64944.8
791.4297	100.2398	65535	64938.5
791.571	102.4949	65535	64933.75
791.7123	104.7495	65535	64930.3
791.8536	107.0036	65535	64930.3
791.9949	109.2573	65535	64929.95
792.1363	111.5105	65535	64931.25
792.2777	113.7632	65535	64929.35
792.4191	116.0154	65535	64916.35
792.5605	118.2672	65535	64922.25
792.7019	120.5185	65535	64920.8
792.8434	122.7693	65535	64919.05
792.9849	125.0197	65535	64915.6
793.1264	127.2696	65535	64912.6
793.2679	129.519	65535	64910.7
793.4094	131.7679	65535	64904.3
793.551	134.0163	65535	64900.1
793.6926	136.2642	65535	64897.1
793.8342	138.5117	65535	64889.55
793.9758	140.7587	65535	64896.7
794.1175	143.0052	65535	64892.25
794.2591	145.2512	65535	64892.65
794.4008	147.4967	65535	64887.75
794.5425	149.7417	65535	64888.65
794.6842	151.9863	65535	64885.05
794.826	154.2304	65535	64881.15
794.9677	156.4739	65535	64875.8
795.1095	158.717	65535	64874.95
795.2513	160.9596	65535	64870.7
795.3931	163.2017	65535	64869.6
795.535	165.4433	65535	64864.3
795.6768	167.6844	65535	64864.4
795.8187	169.925	65535	64861.55
795.9606	172.1651	65535	64858.6
796.1025	174.4047	65535	64855.35
796.2445	176.6439	65535	64856
796.3864	178.8825	65535	64850.85
796.5284	181.1206	65535	64846.3
796.6704	183.3582	65535	64847
796.8124	185.5954	65535	64841.4
796.9544	187.832	65535	64839
797.0965	190.0681	65535	64835.3
797.2386	192.3037	65535	64831.4
797.3806	194.5388	65535	64830.9
797.5228	196.7734	65535	64830.25
797.6649	199.0075	65535	64822.4
797.807	201.2411	65535	64824.55
797.9492	203.4742	65535	64826.75
798.0914	205.7068	65535	64822.8
798.2336	207.9389	65535	64816.5
798.3758	210.1704	65535	64818.4
798.518	212.4015	65535	64827.15
798.6603	214.632	65535	64833.9
798.8025	216.862	65535	64839.85
798.9448	219.0915	65535	64837.9
799.0871	221.3205	65535	64836.35
799.2294	223.549	65535	64838.9
799.3718	225.777	65535	64835.9
799.5141	228.0044	65535	64835.1
799.6565	230.2314	65535	64832.1
799.7989	232.4578	65535	64828.9
799.9413	234.6837	65535	64819.6
800.0837	236.909	65535	64818.8
800.2262	239.1339	65535	64793.2
800.3687	241.3582	65535	64809.65
800.5111	243.582	65535	64776.9
800.6536	245.8053	65535	64789.7
800.7961	248.0281	65535	64796.25
800.9387	250.2503	65535	64792.2
801.0812	252.472	65535	64789.55
801.2238	254.6932	65535	64788.75
801.3664	256.9139	65535	64789.35
801.509	259.134	65535	64785.85
801.6516	261.3536	65535	64786
801.7942	263.5727	65535	64787.7
801.9369	265.7912	65535	64786.95
802.0795	268.0092	65535	64784.2
802.2222	270.2267	65535	64784.9
802.3649	272.4436	65535	64782.85
802.5076	274.6601	65535	64775.05
802.6504	276.8759	65535	64778.45
802.7931	279.0913	65535	64773.9
802.9359	281.3061	65535	64776.8
803.0787	283.5204	65535	64775.5
803.2215	285.7341	65535	64767
803.3643	287.9473	65535	64756.7
803.5071	290.16	65535	64764.35
803.6499	292.3721	65535	64768.85
803.7928	294.5837	65535	64770.25
803.9357	296.7947	65535	64772.05
804.0786	299.0052	65535	64767.7
804.2215	301.2152	65535	64767.7
804.3644	303.4246	65535	64770.15
804.5074	305.6334	65535	64768.7
804.6503	307.8418	65535	64764.15
804.7933	310.0495	65535	64761.85
804.9363	312.2568	65535	64763.05
805.0793	314.4635	65535	64761.35
805.2223	316.6696	65535	64759.15
805.3653	318.8752	65535	64752.35
805.5084	321.0802	65535	64761.65
805.6514	323.2847	65535	64757.05
805.7945	325.4887	65535	64756.15
805.9376	327.692	65535	64757.15
806.0807	329.8949	65535	64751.5
806.2238	332.0972	65535	64749.8
806.367	334.2989	65535	64748.85
806.5101	336.5001	65535	64746.5
806.6533	338.7007	65535	64751.2
806.7965	340.9008	65535	64743.05
806.9397	343.1003	65535	64744.25
807.0829	345.2992	65535	64744.05
807.2261	347.4976	65535	64746.05
807.3693	349.6955	65535	64736.9
807.5126	351.8927	65535	64738.3
807.6559	354.0895	65535	64725.5
807.7991	356.2856	65535	64737.25
807.9424	358.4812	65535	64735.25
808.0857	360.6763	65535	64734.2
808.2291	362.8707	65535	64731.2
808.3724	365.0646	65535	64727.75
808.5158	367.258	65535	64728.85
808.6591	369.4508	65535	64724
808.8025	371.643	65535	64727.05
808.9459	373.8346	65535	64721.7
809.0893	376.0257	65535	64724.1
809.2327	378.2162	65535	64723.45
809.3762	380.4062	65535	64717.5
809.5196	382.5956	65535	64718.95
809.6631	384.7844	65535	64726.65
809.8066	386.9726	65535	64724.1
809.9501	389.1603	65535	64727.35
810.0936	391.3474	65535	64686.45
810.2371	393.5339	65535	64722.55
810.3806	395.7199	65535	64729.35
810.5241	397.9052	65535	64729.1
810.6677	400.09	65535	64726.6
810.8113	402.2743	65535	64727.1
810.9548	404.4579	65535	64724.4
811.0984	406.641	65535	64723.15
811.2421	408.8235	65535	64723.45
811.3857	411.0054	65535	64721.95
811.5293	413.1868	65535	64716.6
811.673	415.3675	65535	64714.05
811.8166	417.5477	65535	64712.95
811.9603	419.7273	65535	64710.6
812.104	421.9064	65535	64703.55
812.2477	424.0848	65535	64706.95
812.3914	426.2627	65535	64711.85
812.5351	428.4399	65535	64709.15
812.6788	430.6166	65535	64704.8
812.8226	432.7928	65535	64703.45
812.9663	434.9683	65535	64702.4
813.1101	437.1432	65535	64700.6
813.2539	439.3176	65535	64702.85
813.3977	441.4914	65535	64700.5
813.5415	443.6645	65535	64700.2
813.6853	445.8371	65535	64699.75
813.8291	448.0091	65535	64702.1
813.973	450.1806	65535	64705
814.1168	452.3514	65535	64699.25
814.2607	454.5216	65535	64690.45
814.4046	456.6913	65535	64696.25
814.5485	458.8603	65535	64697.3
814.6924	461.0288	65535	64698.45
814.8363	463.1967	65535	64699.35
814.9802	465.3639	65535	64696.8
815.1241	467.5306	65535	64694.75
815.2681	469.6967	65535	64696.05
815.412	471.8622	65535	64698.3
815.556	474.0271	65535	64696.95
815.7	476.1914	65535	64696.45
815.844	478.3551	65535	64695.85
815.988	480.5182	65535	64690.85
816.132	482.6807	65535	64697.55
816.276	484.8426	65535	64698.8
816.4201	487.0039	65535	64696.85
816.5641	489.1647	65535	64693
816.7082	491.3248	65535	64689.9
816.8522	493.4843	65535	64693
816.9963	495.6432	65535	64691.75
817.1404	497.8015	65535	64687.45
817.2845	499.9592	65535	64689.5
817.4286	502.1163	65535	64687.1
817.5727	504.2728	65535	64686.45
817.7168	506.4287	65535	64690.7
817.861	508.5839	65535	64687.75
818.0051	510.7386	65535	64690
818.1493	512.8927	65535	64684.7
818.2935	515.0461	65535	64684.9
818.4377	517.199	65535	64687.6
818.5818	519.3512	65535	64686.95
818.726	521.5029	65535	64680.15
818.8703	523.6539	65535	64686.35
819.0145	525.8043	65535	64679.4
819.1587	527.9541	65535	64678
819.303	530.1033	65535	64683.75
819.4472	532.2519	65535	64682.1
819.5915	534.3999	65535	64679.75
819.7357	536.5472	65535	64682.2
819.88	538.694	65535	64678.95
820.0243	540.8401	65535	64680.2
820.1686	542.9856	65535	64681.3
820.3129	545.1305	65535	64679.9
820.4572	547.2748	65535	64675.7
820.6016	549.4185	65535	64672.9
820.7459	551.5615	65535	64674.8
820.8902	553.704	65535	64679.65
821.0346	555.8458	65535	64678
821.1789	557.987	65535	64679.25
821.3233	560.1276	65535	64675
821.4677	562.2675	65535	64674.15
821.6121	564.4069	65535	64676.15
821.7565	566.5456	65535	64677
821.9009	568.6837	65535	64671.95
822.0453	570.8212	65535	64675.4
822.1897	572.958	65535	64673.8
822.3342	575.0942	65535	64674.85
822.4786	577.2299	65535	64676.5
822.6231	579.3648	65535	64673.95
822.7675	581.4992	65535	64675.7
822.912	583.6329	65535	64673.8
823.0565	585.766	65535	64675.45
823.201	587.8985	65535	64675.15
823.3454	590.0304	65535	64650.3
823.4899	592.1616	65535	64672
823.6345	594.2922	65535	64671.3
823.779	596.4222	65535	64669.3
823.9235	598.5515	65535	64669.75
824.068	600.6802	65535	64671.3
824.2126	602.8083	65535	64669.75
824.3571	604.9358	65535	64668.75
824.5017	607.0626	65535	64670
824.6462	609.1888	65535	64666.6
824.7908	611.3144	65535	64666.5
824.9354	613.4393	65535	64666.05
825.08	615.5636	65535	64666.95
825.2246	617.6873	65535	64667.8
825.3692	619.8103	65535	64666.45
825.5138	621.9327	65535	64662
825.6584	624.0544	65535	64665.95
825.803	626.1756	65535	64665.8
825.9477	628.2961	65535	64663.8
826.0923	630.4159	65535	64664.8
826.237	632.5351	65535	64666.55
826.3816	634.6537	65535	64659.85
826.5263	636.7716	65535	64658.85
826.6709	638.8889	65535	64664.75
826.8156	641.0056	65535	64662.4
826.9603	643.1216	65535	64661.55
827.105	645.237	65535	64658.5
827.2497	647.3518	65535	64662.4
827.3944	649.4659	65535	64665.7
827.5391	651.5793	65535	64664.55
827.6838	653.6922	65535	64663.9
827.8285	655.8043	65535	64662.45
827.9733	657.9159	65535	64660.75
828.118	660.0268	65535	64658.9
828.2627	662.137	65535	64662.85
828.4075	664.2466	65535	64656.1
828.5522	666.3556	65535	64661.8
828.697	668.4639	65535	64656.05
828.8418	670.5716	65535	64656.95
828.9865	672.6786	65535	64658.95
829.1313	674.785	65535	64654.95
829.2761	676.8907	65535	64656.5
829.4209	678.9958	65535	64659.9
829.5657	681.1002	65535	64657.7
829.7105	683.204	65535	64653.3
829.8553	685.3072	65535	64657.05
830.0001	687.4097	65535	64658.55
830.1449	689.5115	65535	64653.9
830.2898	691.6127	65535	64655.75
830.4346	693.7132	65535	64652.9
830.5794	695.8131	65535	64633.7
830.7243	697.9123	65535	64654
830.8691	700.0109	65535	64651.8
831.014	702.1089	65535	64652.95
831.1588	704.2061	65535	64653.7
831.3037	706.3028	65535	64652.85
831.4486	708.3987	65535	64655.4
831.5935	710.4941	65535	64654.3
831.7383	712.5887	65535	64653.25
831.8832	714.6827	65535	64647.9
832.0281	716.7761	65535	64655.05
832.173	718.8688	65535	64649.5
832.3179	720.9608	65535	64648
832.4628	723.0522	65535	64645.7
832.6077	725.1429	65535	64648.25
832.7527	727.233	65535	64650.5
832.8976	729.3224	65535	64650.4
833.0425	731.4112	65535	64651.55
833.1874	733.4993	65535	64648.1
833.3324	735.5867	65535	64647.95
833.4773	737.6735	65535	64650.1
833.6222	739.7596	65535	64649.15
833.7672	741.845	65535	64650.25
833.9122	743.9298	65535	64644.95
834.0571	746.014	65535	64648.5
834.2021	748.0974	65535	64647.5
834.347	750.1802	65535	64646.75
834.492	752.2624	65535	64649.6
834.637	754.3439	65535	64647.95
834.782	756.4247	65535	64643.1
834.9269	758.5048	65535	64649.65
835.0719	760.5843	65535	64649.65
835.2169	762.6631	65535	64646.8
835.3619	764.7413	65535	64649.3
835.5069	766.8188	65535	64647.75
835.6519	768.8956	65535	64644.65
835.7969	770.9718	65535	64646.95
835.9419	773.0473	65535	64646.2
836.0869	775.1221	65535	64646.8
836.232	777.1962	65535	64646.3
836.377	779.2697	65535	64645.5
836.522	781.3426	65535	64628.6
836.667	783.4147	65535	64644.95
836.8121	785.4862	65535	64648
836.9571	787.557	65535	64647.95
837.1021	789.6271	65535	64643.8
837.2472	791.6966	65535	64646.1
837.3922	793.7654	65535	64643.05
837.5373	795.8335	65535	64646.5
837.6823	797.901	65535	64646.1
837.8274	799.9678	65535	64645.1
837.9724	802.0339	65535	64646.15
838.1175	804.0993	65535	64637.65
838.2626	806.1641	65535	64644.85
838.4076	808.2282	65535	64644.45
838.5527	810.2916	65535	64643
838.6978	812.3544	65535	64645.2
838.8428	814.4164	65535	64646.9
838.9879	816.4778	65535	64645.6
839.133	818.5385	65535	64643.85
839.2781	820.5986	65535	64645.4
839.4232	822.658	65535	64641.9
839.5682	824.7166	65535	64648.2
839.7133	826.7747	65535	64643.5
839.8584	828.832	65535	64645.3
840.0035	830.8886	65535	64641.55
840.1486	832.9446	65535	64641.7
840.2937	834.9999	65535	64646.45
840.4388	837.0545	65535	64643.25
840.5839	839.1085	65535	64644.75
840.729	841.1618	65535	64641.3
840.8741	843.2143	65535	64643.05
841.0192	845.2662	65535	64643.8
841.1643	847.3175	65535	64642.15
841.3095	849.368	65535	64642.45
841.4546	851.4179	65535	64642.7
841.5997	853.467	65535	64645.95
841.7448	855.5155	65535	64643.7
841.8899	857.5633	65535	64641.45
842.0351	859.6105	65535	64644.05
842.1802	861.6569	65535	64642.15
842.3253	863.7027	65535	64643.45
842.4704	865.7478	65535	64642.15
842.6156	867.7922	65535	64640.8
842.7607	869.8359	65535	64642.05
842.9058	871.8789	65535	64641.75
843.0509	873.9212	65535	64608
843.1961	875.9629	65535	64641.55
843.3412	878.0039	65535	64642.25
843.4863	880.0441	65535	64644.4
843.6315	882.0837	65535	64639.3
843.7766	884.1226	65535	64639.1
843.9218	886.1609	65535	64641.9
844.0669	888.1984	65535	64644.35
844.212	890.2352	65535	64642.95
844.3572	892.2714	65535	64639.25
844.5023	894.3069	65535	64640.2
844.6475	896.3416	65535	64639.55
844.7926	898.3757	65535	64640.85
844.9377	900.4091	65535	64642.55
845.0829	902.4418	65535	64636.65
845.228	904.4739	65535	64639.15
845.3732	906.5052	65535	64641.15
845.5183	908.5358	65535	64642.05
845.6635	910.5658	65535	64639
845.8086	912.595	65535	64642.15
845.9538	914.6236	65535	64642.35
846.0989	916.6515	65535	64640.4
846.2441	918.6786	65535	64637.9
846.3892	920.7051	65535	64636.35
846.5344	922.7309	65535	64639.3
846.6795	924.756	65535	64639.55
846.8246	926.7804	65535	64637.8
846.9698	928.8041	65535	64634.2
847.1149	930.8272	65535	64641.75
847.2601	932.8495	65535	64636.65
847.4052	934.8711	65535	64635.2
847.5504	936.892	65535	64638.45
847.6955	938.9123	65535	64638.15
847.8407	940.9318	65535	64640.45
847.9858	942.9506	65535	64641
848.131	944.9688	65535	64638.7
848.2761	946.9862	65535	64640.95
848.4213	949.003	65535	64642.1
848.5664	951.019	65535	64638.95
848.7115	953.0344	65535	64637.95
848.8567	955.0491	65535	64637.05
849.0018	957.063	65535	64639.5
849.147	959.0763	65535	64637.1
849.2921	961.0888	65535	64638.6
849.4373	963.1007	65535	64641.6
849.5824	965.1119	65535	64636.9
849.7275	967.1223	65535	64639.6
849.8727	969.1321	65535	64641.55
850.0178	971.1412	65535	64637.4
850.1629	973.1495	65535	64638.1
850.3081	975.1572	65535	64607.6
850.4532	977.1641	65535	64639.25
850.5983	979.1704	65535	64638.2
850.7435	981.1759	65535	64636
850.8886	983.1808	65535	64638.4
851.0337	985.1849	65535	64628.35
851.1788	987.1884	65535	64634.35
851.324	989.1911	65535	64636
851.4691	991.1932	65535	64638.05
851.6142	993.1945	65535	64636.1
851.7593	995.1951	65535	64636.7
851.9045	997.1951	65535	64632.15
852.0496	999.1943	65535	64636.6
852.1947	1001.1928	65535	64635.75
852.3398	1003.1906	65535	64637.1
852.4849	1005.1877	65535	64637.7
852.63	1007.1841	65535	64636.9
852.7751	1009.1798	65535	64636.8
852.9202	1011.1748	65535	64639.3
853.0653	1013.1691	65535	64636.5
853.2104	1015.1627	65535	64637.6
853.3555	1017.1556	65535	64641.7
853.5006	1019.1477	65535	64639.65
853.6457	1021.1392	65535	64641.15
853.7908	1023.1299	65535	64639.05
853.9359	1025.12	65535	64638.05
854.081	1027.1093	65535	64639.65
854.2261	1029.0979	65535	64640.95
854.3712	1031.0859	65535	64641.25
854.5163	1033.0731	65535	64638.75
854.6613	1035.0596	65535	64639.8
854.8064	1037.0454	65535	64636.55
854.9515	1039.0304	65535	64638.55
855.0965	1041.0148	65535	64639.7
855.2416	1042.9985	65535	64636.9
855.3867	1044.9814	65535	64638.65
855.5317	1046.9636	65535	64638.5
855.6768	1048.9452	65535	64638.35
855.8219	1050.926	65535	64639.55
855.9669	1052.9061	65535	64641.3
856.112	1054.8855	65535	64638.85
856.257	1056.8642	65535	64638.9
856.4021	1058.8421	65535	64633.6
856.5471	1060.8194	65535	64637.1
856.6921	1062.7959	65535	64636.4
856.8372	1064.7717	65535	64638.4
856.9822	1066.7469	65535	64635.5
857.1272	1068.7213	65535	64636.5
857.2723	1070.695	65535	64636.65
857.4173	1072.6679	65535	64638.3
857.5623	1074.6402	65535	64639.7
857.7073	1076.6117	65535	64633.95
857.8523	1078.5826	65535	64638.25
857.9973	1080.5527	65535	64634.35
858.1423	1082.5221	65535	64636.35
858.2873	1084.4908	65535	64640
858.4323	1086.4587	65535	64635.1
858.5773	1088.426	65535	64632.95
858.7223	1090.3925	65535	64634.3
858.8673	1092.3584	65535	64639.35
859.0123	1094.3235	65535	64640.35
859.1573	1096.2879	65535	64637.15
859.3022	1098.2515	65535	64637.3
859.4472	1100.2145	65535	64638.65
859.5922	1102.1767	65535	64634.7
859.7371	1104.1382	65535	64637.55
859.8821	1106.099	65535	64636.1
860.027	1108.0591	65535	64637.05
860.172	1110.0185	65535	64636.15
860.3169	1111.9771	65535	64638.6
860.4619	1113.9351	65535	64638.45
860.6068	1115.8923	65535	64638.25
860.7517	1117.8488	65535	64635.15
860.8967	1119.8045	65535	64637.65
861.0416	1121.7596	65535	64638.45
861.1865	1123.7139	65535	64639.85
861.3314	1125.6675	65535	64639.95
861.4763	1127.6204	65535	64637.4
861.6212	1129.5726	65535	64636.6
861.7661	1131.524	65535	64640
861.911	1133.4748	65535	64636.55
862.0559	1135.4248	65535	64635.1
862.2008	1137.3741	65535	64638.4
862.3457	1139.3226	65535	64636.2
862.4905	1141.2705	65535	64639.4
862.6354	1143.2176	65535	64631.9
862.7803	1145.164	65535	64637.2
862.9251	1147.1097	65535	64637.3
863.07	1149.0546	65535	64635.3
863.2148	1150.9989	65535	64636
863.3597	1152.9424	65535	64637.25
863.5045	1154.8852	65535	64637.7
863.6493	1156.8272	65535	64637.95
863.7942	1158.7686	65535	64629.6
863.939	1160.7092	65535	64633.9
864.0838	1162.6491	65535	64635.25
864.2286	1164.5883	65535	64638.05
864.3734	1166.5267	65535	64636.2
864.5182	1168.4644	65535	64638
864.663	1170.4014	65535	64634.2
864.8078	1172.3377	65535	64638
864.9526	1174.2732	65535	64639.9
865.0974	1176.2081	65535	64639.2
865.2421	1178.1421	65535	64634.4
865.3869	1180.0755	65535	64638
865.5317	1182.0082	65535	64637.35
865.6764	1183.9401	65535	64635.6
865.8212	1185.8713	65535	64640.1
865.9659	1187.8017	65535	64638.85
866.1106	1189.7315	65535	64643.2
866.2554	1191.6605	65535	64611.7
866.4001	1193.5888	65535	64637.15
866.5448	1195.5163	65535	64636.5
866.6895	1197.4432	65535	64637.15
866.8342	1199.3693	65535	64639.95
866.9789	1201.2947	65535	64636
867.1236	1203.2193	65535	64638.9
867.2683	1205.1432	65535	64637.8
867.413	1207.0664	65535	64635.65
867.5576	1208.9889	65535	64634.35
867.7023	1210.9106	65535	64638.35
867.847	1212.8316	65535	64640.4
867.9916	1214.7519	65535	64627.6
868.1363	1216.6715	65535	64638.05
868.2809	1218.5903	65535	64639.6
868.4255	1220.5084	65535	64637.7
868.5701	1222.4257	65535	64639
868.7148	1224.3424	65535	64640.55
868.8594	1226.2583	65535	64635
869.004	1228.1735	65535	64637.1
869.1486	1230.0879	65535	64635.65
869.2932	1232.0016	65535	64637.8
869.4377	1233.9146	65535	64635.35
869.5823	1235.8269	65535	64639.1
869.7269	1237.7384	65535	64636
869.8715	1239.6492	65535	64641.1
870.016	1241.5592	65535	64638.05
870.1606	1243.4686	65535	64639.55
870.3051	1245.3772	65535	64636.9
870.4496	1247.285	65535	64637.4
870.5941	1249.1922	65535	64638.95
870.7387	1251.0986	65535	64639.75
870.8832	1253.0042	65535	64637.45
871.0277	1254.9092	65535	64637.1
871.1722	1256.8134	65535	64638.95
871.3167	1258.7169	65535	64638.05
871.4611	1260.6196	65535	64641.4
871.6056	1262.5216	65535	64640.2
871.7501	1264.4229	65535	64638.9
871.8945	1266.3234	65535	64641.5
872.039	1268.2232	65535	64635.55
872.1834	1270.1223	65535	64638.65
872.3278	1272.0207	65535	64638.4
872.4723	1273.9183	65535	64632.55
872.6167	1275.8151	65535	64636.95
872.7611	1277.7113	65535	64637.35
872.9055	1279.6067	65535	64639.3
873.0499	1281.5014	65535	64638.35
873.1943	1283.3953	65535	64637.1
873.3386	1285.2885	65535	64642
873.483	1287.181	65535	64638.1
873.6274	1289.0727	65535	64639.35
873.7717	1290.9637	65535	64637.05
873.9161	1292.854	65535	64637.8
874.0604	1294.7435	65535	64638.6
874.2047	1296.6323	65535	64639.9
874.349	1298.5204	65535	64634.05
874.4933	1300.4077	65535	64638.05
874.6376	1302.2943	65535	64638.05
874.7819	1304.1802	65535	64638.6
874.9262	1306.0653	65535	64636.1
875.0705	1307.9497	65535	64636.1
875.2147	1309.8333	65535	64638.8
875.359	1311.7162	65535	64637.55
875.5032	1313.5984	65535	64634.55
875.6475	1315.4798	65535	64627.5
875.7917	1317.3605	65535	64622.05
875.9359	1319.2405	65535	64638.1
876.0801	1321.1197	65535	64635.5
876.2243	1322.9982	65535	64634.7
876.3685	1324.876	65535	64639.65
876.5127	1326.753	65535	64636.7
876.6569	1328.6293	65535	64636.4
876.801	1330.5048	65535	64636.45
876.9452	1332.3796	65535	64639.9
877.0893	1334.2537	65535	64613.35
877.2335	1336.127	65535	64637.8
877.3776	1337.9996	65535	64638.95
877.5217	1339.8714	65535	64638.5
877.6658	1341.7426	65535	64597.45
877.8099	1343.6129	65535	64636.5
877.954	1345.4826	65535	64639
878.0981	1347.3515	65535	64634.7
878.2422	1349.2196	65535	64636.75
878.3862	1351.087	65535	64638.6
878.5303	1352.9537	65535	64637.95
878.6743	1354.8197	65535	64640.8
878.8184	1356.6849	65535	64637.3
878.9624	1358.5493	65535	64637.15
879.1064	1360.4131	65535	64637.5
879.2504	1362.276	65535	64640.25
879.3944	1364.1383	65535	64636.8
879.5384	1365.9998	65535	64632.05
879.6823	1367.8606	65535	64636.7
879.8263	1369.7206	65535	64637.25
879.9702	1371.5799	65535	64636.1
880.1142	1373.4384	65535	64639.4
880.2581	1375.2962	65535	64636.55
880.402	1377.1533	65535	64638.75
880.5459	1379.0096	65535	64636
880.6898	1380.8652	65535	64637.95
880.8337	1382.7201	65535	64638.85
880.9776	1384.5742	65535	64640.55
881.1215	1386.4275	65535	64636.35
881.2653	1388.2802	65535	64638.05
881.4092	1390.132	65535	64637.65
881.553	1391.9832	65535	64640.05
881.6968	1393.8336	65535	64636.5
881.8406	1395.6832	65535	64637.9
881.9844	1397.5322	65535	64636.65
882.1282	1399.3803	65535	64633.15
882.272	1401.2278	65535	64638.2
882.4158	1403.0745	65535	64636.85
882.5595	1404.9204	65535	64640.2
882.7033	1406.7656	65535	64638.7
882.847	1408.6101	65535	64639.05
882.9908	1410.4538	65535	64638
883.1345	1412.2968	65535	64637.25
883.2782	1414.139	65535	64638.4
883.4219	1415.9805	65535	64639.2
883.5656	1417.8213	65535	64632.05
883.7092	1419.6613	65535	64639.3
883.8529	1421.5006	65535	64638.45
883.9965	1423.3391	65535	64638.3
884.1402	1425.1769	65535	64638.1
884.2838	1427.0139	65535	64638.3
884.4274	1428.8502	65535	64638.7
884.571	1430.6858	65535	64638.3
884.7146	1432.5206	65535	64639.3
884.8582	1434.3547	65535	64638.85
885.0018	1436.188	65535	64637.25
885.1453	1438.0206	65535	64635.65
885.2889	1439.8524	65535	64637.95
885.4324	1441.6835	65535	64637.7
885.5759	1443.5139	65535	64637.7
885.7194	1445.3435	65535	64639.7
885.8629	1447.1724	65535	64639.65
886.0064	1449.0005	65535	64639.15
886.1499	1450.8279	65535	64637.05
886.2933	1452.6545	65535	64638.35
886.4368	1454.4804	65535	64640.3
886.5802	1456.3056	65535	64631.55
886.7237	1458.13	65535	64639.7
886.8671	1459.9536	65535	64639.95
887.0105	1461.7766	65535	64641.5
887.1539	1463.5987	65535	64638.3
887.2972	1465.4202	65535	64636.9
887.4406	1467.2409	65535	64638.1
887.584	1469.0608	65535	64640.5
887.7273	1470.88	65535	64636.95
887.8706	1472.6984	65535	64639.25
888.0139	1474.5161	65535	64636.7
888.1572	1476.3331	65535	64638.3
888.3005	1478.1493	65535	64638.8
888.4438	1479.9648	65535	64640.1
888.5871	1481.7795	65535	64639.45
888.7303	1483.5935	65535	64639.45
888.8736	1485.4067	65535	64639.75
889.0168	1487.2192	65535	64637.65
889.16	1489.031	65535	64636.9
889.3032	1490.842	65535	64640
889.4464	1492.6522	65535	64639.15
889.5896	1494.4618	65535	64636.1
889.7327	1496.2705	65535	64640.5
889.8759	1498.0785	65535	64639.8
890.019	1499.8858	65535	64637.6
890.1622	1501.6924	65535	64640.95
890.3053	1503.4981	65535	64638.45
890.4484	1505.3032	65535	64640.45
890.5914	1507.1075	65535	64639.2
890.7345	1508.911	65535	64636.85
890.8776	1510.7138	65535	64640.05
891.0206	1512.5159	65535	64638.5
891.1637	1514.3172	65535	64640.9
891.3067	1516.1178	65535	64640.45
891.4497	1517.9176	65535	64637.85
891.5927	1519.7166	65535	64641.5
891.7357	1521.515	65535	64633.25
891.8786	1523.3126	65535	64639.6
892.0216	1525.1094	65535	64637.7
892.1645	1526.9055	65535	64641.95
892.3074	1528.7008	65535	64641.2
892.4503	1530.4954	65535	64636.3
892.5932	1532.2893	65535	64642.75
892.7361	1534.0824	65535	64635.6
892.879	1535.8747	65535	64641.25
893.0218	1537.6663	65535	64640.35
893.1647	1539.4572	65535	64640.2
893.3075	1541.2473	65535	64638.35
893.4503	1543.0367	65535	64641.95
893.5931	1544.8253	65535	64635.85
893.7359	1546.6132	65535	64636.05
893.8787	1548.4003	65535	64632.6
894.0214	1550.1867	65535	64633.55
894.1642	1551.9723	65535	64636.9
894.3069	1553.7572	65535	64639.2
894.4496	1555.5414	65535	64637.55
894.5923	1557.3247	65535	64639.5
894.735	1559.1074	65535	64643.95
894.8777	1560.8893	65535	64642.7
895.0204	1562.6705	65535	64642.45
895.163	1564.4509	65535	64642.3
895.3056	1566.2305	65535	64644.25
895.4482	1568.0094	65535	64642.7
895.5908	1569.7876	65535	64643.45
895.7334	1571.565	65535	64641.15
895.876	1573.3417	65535	64642.65
896.0186	1575.1176	65535	64643.1
896.1611	1576.8928	65535	64643.85
896.3036	1578.6672	65531.15	64640.9
896.4461	1580.4409	65535	64643.55
896.5886	1582.2138	65528.05	64632.4
896.7311	1583.986	65533.8	64639.4
896.8736	1585.7575	65521.45	64629.35
897.0161	1587.5282	65528.75	64638.05
897.1585	1589.2981	65529.4	64639.1
897.3009	1591.0673	65521.25	64628.25
897.4433	1592.8358	65516.25	64626.85
897.5857	1594.6035	65525.9	64629.3
897.7281	1596.3704	65526.65	64634.5
897.8705	1598.1366	65508.95	64616.5
898.0128	1599.9021	65495.5	64604.4
898.1551	1601.6668	65520.15	64626.15
898.2975	1603.4308	65513.55	64618.85
898.4398	1605.194	65512.75	64614.8
898.5821	1606.9564	65458.4	64568.15
898.7243	1608.7182	65486.65	64591.5
898.8666	1610.4791	65472.65	64582.7
899.0088	1612.2394	65497.95	64609.8
899.1511	1613.9988	65442.85	64552.8
899.2933	1615.7576	65481.1	64590.7
899.4355	1617.5156	65494.75	64598.45
899.5776	1619.2728	65518.85	64627.3
899.7198	1621.0293	65449.45	64557.45
899.862	1622.785	65448.25	64553.4
900.0041	1624.54	65466.3	64572.35
900.1462	1626.2942	65437.95	64546.2
900.2883	1628.0477	65392	64498.1
900.4304	1629.8005	65351.95	64458.6
900.5725	1631.5525	65394.7	64503.15
900.7145	1633.3037	65343.15	64451.4
900.8566	1635.0542	65325.4	64434.9
900.9986	1636.804	65362.7	64471.5
901.1406	1638.553	65303.85	64331.95
901.2826	1640.3013	65324.15	64433.15
901.4245	1642.0488	65287.85	64395
901.5665	1643.7955	65319.05	64429.45
901.7085	1645.5416	65302.4	64411.85
901.8504	1647.2868	65280.9	64391.65
901.9923	1649.0313	65317.55	64426.35
902.1342	1650.7751	65303.25	64409.6
902.2761	1652.5181	65277.4	64385.8
902.4179	1654.2604	65265.75	64375.3
902.5598	1656.0019	65281.45	64392.15
902.7016	1657.7427	65263.8	64373.95
902.8434	1659.4828	65283.85	64392.7
902.9852	1661.222	65253.25	64360.05
903.127	1662.9606	65282.3	64393.9
903.2687	1664.6984	65240	64347.8
903.4105	1666.4354	65254.4	64363.05
903.5522	1668.1717	65210.25	64317.55
903.6939	1669.9072	65172.3	64280.8
903.8356	1671.642	65170.65	64277.65
903.9773	1673.3761	65159.05	64268.4
904.119	1675.1094	65136.85	64246.15
904.2606	1676.8419	65081.9	64192.2
904.4022	1678.5737	65105.75	64216.95
904.5439	1680.3048	65075.95	64186.8
904.6855	1682.0351	65047.35	64157.45
904.827	1683.7646	65016.2	64122
904.9686	1685.4934	65050.9	64162.15
905.1101	1687.2215	64905.1	64013.15
905.2517	1688.9488	65019.1	64127.7
905.3932	1690.6754	64771.2	63882.8
905.5347	1692.4012	64893.65	64003.1
905.6761	1694.1263	64914.4	64025.55
905.8176	1695.8506	64810.9	63922.65
905.9591	1697.5742	64819.9	63929.75
906.1005	1699.297	64797.45	63909.25
906.2419	1701.0191	64821.45	63931.9
906.3833	1702.7404	64627.95	63738.7
906.5246	1704.461	64576.35	63687.3
906.666	1706.1808	64693.1	63802.45
906.8073	1707.8999	64611.1	63721.5
906.9487	1709.6182	64580.4	63692.2
907.09	1711.3358	64570.5	63679.75
907.2313	1713.0527	64564.8	63676.55
907.3725	1714.7688	64552.55	63656.7
907.5138	1716.4841	64323.15	63431.9
907.655	1718.1987	64416.6	63523.6
907.7962	1719.9126	64331.7	63443.2
907.9374	1721.6257	64377.85	63486.15
908.0786	1723.338	64397.5	63507.35
908.2198	1725.0496	64112.5	63220.85
908.3609	1726.7605	64173.9	63284.25
908.502	1728.4706	64051.35	63162
908.6431	1730.18	64176.85	63284.2
908.7842	1731.8886	64017.6	63126.75
908.9253	1733.5964	63919.25	63027.2
909.0664	1735.3036	64100.6	63207.1
909.2074	1737.0099	63989.75	63099.7
909.3484	1738.7156	63837.25	62949.2
909.4894	1740.4204	63762.8	62872.25
909.6304	1742.1246	63849.5	62958.85
909.7714	1743.8279	63878.05	62987.5
909.9123	1745.5306	63845	62955.95
910.0532	1747.2325	63421.3	62532.75
910.1941	1748.9336	63443.2	62553.75
910.335	1750.634	63552.95	62662.35
910.4759	1752.3336	63665.8	62775.95
910.6168	1754.0325	63318.85	62432.7
910.7576	1755.7307	63620.6	62731.7
910.8984	1757.4281	63200	62311
911.0392	1759.1247	63515.4	62617.35
911.18	1760.8206	63097.25	62203.1
911.3208	1762.5158	63114.9	62222.95
911.4615	1764.2102	63191.2	62302.85
911.6022	1765.9039	63118.65	62229.7
911.7429	1767.5968	63041.6	62155.25
911.8836	1769.289	62987	62097.6
912.0243	1770.9804	63038.5	62147.35
912.1649	1772.6711	62947.95	62058
912.3056	1774.361	62886.15	61996.35
912.4462	1776.0502	62871.5	61982
912.5868	1777.7386	62560.95	61669.6
912.7274	1779.4263	62715.05	61824.9
912.8679	1781.1132	62722.35	61832.9
913.0084	1782.7994	62618.05	61728.35
913.149	1784.4849	62668.45	61780.15
913.2895	1786.1696	62255.9	61360.55
913.4299	1787.8535	62478.9	61591.6
913.5704	1789.5367	62521.8	61633.8
913.7108	1791.2192	62277.85	61389.7
913.8513	1792.9009	62066.9	61149.25
913.9917	1794.5818	62275	61381.8
914.132	1796.2621	62039.9	61151.35
914.2724	1797.9415	62053.45	61164.7
914.4128	1799.6202	61997.4	61108.2
914.5531	1801.2982	62010.95	61120.85
914.6934	1802.9755	61731.9	60842.15
914.8337	1804.6519	61676.5	60788
914.9739	1806.3277	62033.4	61146.55
915.1142	1808.0027	61416.3	60528.8
915.2544	1809.6769	61627.95	60738.35
915.3946	1811.3504	61681.8	60792.15
915.5348	1813.0231	61192.8	60301.7
915.675	1814.6951	61467.2	60578.5
915.8151	1816.3664	61301.55	60409
915.9553	1818.0369	61335.4	60445.4
916.0954	1819.7067	61205	60316.7
916.2355	1821.3757	61469.7	60578.1
916.3755	1823.044	61031.55	60140.55
916.5156	1824.7115	60822.75	59934.2
916.6556	1826.3783	60967.2	60078.65
916.7956	1828.0443	60958.05	60069.9
916.9356	1829.7096	60786.1	59895.1
917.0756	1831.3741	60444.85	59554.25
917.2155	1833.0379	60653	59764.85
917.3555	1834.701	60637.85	59749.05
917.4954	1836.3633	60340.65	59451.2
917.6353	1838.0248	60455.55	59563.95
917.7751	1839.6856	60382.95	59494.8
917.915	1841.3457	60060.15	59173.6
918.0548	1843.005	60447.35	59558
918.1946	1844.6636	60217.45	59331.9
918.3344	1846.3214	59645.75	58757.15
918.4742	1847.9785	59814.5	58926.3
918.6139	1849.6349	59782	58889.9
918.7537	1851.2904	60106.65	59208.9
918.8934	1852.9453	59493.85	58604.45
919.0331	1854.5994	59736.4	58843.9
919.1727	1856.2528	59712.6	58819.55
919.3124	1857.9054	59319.55	58431
919.452	1859.5572	59121.5	58233.1
919.5916	1861.2083	59351.5	58463.2
919.7312	1862.8587	59734.75	58845.95
919.8708	1864.5084	58537.15	57648.25
920.0103	1866.1572	59146.4	58259.9
920.1498	1867.8054	58500.05	57609.95
920.2893	1869.4528	58762.9	57875
920.4288	1871.0994	58386.95	57499.65
920.5683	1872.7453	58278.45	57390.45
920.7077	1874.3905	58551.65	57659.3
920.8471	1876.0349	57970.55	57080.05
920.9865	1877.6786	58421.7	57532.1
921.1259	1879.3215	57910.8	57022.15
921.2653	1880.9637	58466.95	57577.15
921.4046	1882.6051	57873.1	56985.15
921.5439	1884.2458	57660.3	56769.9
921.6832	1885.8858	57392.55	56503.1
921.8225	1887.525	57621.05	56731.25
921.9617	1889.1634	57439.7	56552.5
922.101	1890.8011	57206.05	56314.9
922.2402	1892.4381	56645.95	55759
922.3794	1894.0743	57291.6	56403.6
922.5185	1895.7098	56868.85	55979.2
922.6577	1897.3446	56557.05	55668.95
922.7968	1898.9786	56694.85	55803.25
922.9359	1900.6118	56367.05	55480.35
923.075	1902.2443	56109.65	55221.15
923.214	1903.8761	56444.6	55556.75
923.3531	1905.5071	56032.05	55142.25
923.4921	1907.1374	55247.45	54358.65
923.6311	1908.7669	55632	54742.55
923.77	1910.3957	55919.25	55032.5
923.909	1912.0237	55289.25	54398.95
924.0479	1913.651	54943.7	54054
924.1868	1915.2776	54846.25	53958.35
924.3257	1916.9034	54854.5	53966.55
924.4646	1918.5285	54554.55	53667.1
924.6034	1920.1528	54599.2	53710.75
924.7422	1921.7764	54353.3	53467.4
924.881	1923.3992	54321.35	53434.25
925.0198	1925.0213	53921.2	53032.15
925.1586	1926.6427	53406.55	52521.3
925.2973	1928.2633	53655.25	52687.55
925.436	1929.8832	53517.4	52628.4
925.5747	1931.5023	53330.35	52442.35
925.7134	1933.1207	52868.15	51980.7
925.852	1934.7383	53103.8	52215.5
925.9906	1936.3552	52710.05	51821.1
926.1292	1937.9714	52697.75	51810.45
926.2678	1939.5868	52607.7	51717.15
926.4064	1941.2015	52193.45	51304.9
926.5449	1942.8154	51790	50904.8
926.6834	1944.4286	51897.2	51007.85
926.8219	1946.041	51836.35	50929.85
926.9604	1947.6528	51565.25	50672
927.0988	1949.2637	51317.25	50428.9
927.2372	1950.8739	51071	50182.15
927.3756	1952.4834	51239.05	50352.1
927.514	1954.0921	51072	50183.7
927.6523	1955.7001	50618.25	49727.85
927.7907	1957.3074	50770.2	49884.6
927.929	1958.9139	50274.4	49387.25
928.0673	1960.5197	50352.8	49464
928.2055	1962.1247	50134.7	49246.65
928.3438	1963.729	49840.1	48953
928.482	1965.3325	49658.85	48749.4
928.6202	1966.9353	49695.7	48809.25
928.7584	1968.5374	49250.55	48364.1
928.8965	1970.1387	49159.45	48270
929.0346	1971.7393	49212.1	48324.25
929.1727	1973.3392	48982.8	48095.95
929.3108	1974.9383	48741.9	47854.55
929.4489	1976.5366	48524	47636.3
929.5869	1978.1342	48450	47560.7
929.7249	1979.7311	48407.2	47517.45
929.8629	1981.3273	48297.7	47411.7
930.0009	1982.9227	48019.7	47131.55
930.1388	1984.5173	47987.4	47101.05
930.2767	1986.1112	47739.55	46851.6
930.4146	1987.7044	47858.6	46971.85
930.5525	1989.2968	47286.85	46398.7
930.6904	1990.8885	47496.45	46605.15
930.8282	1992.4795	47116.55	46228.25
930.966	1994.0697	47024	46137.25
931.1038	1995.6592	46978.6	46090.95
931.2415	1997.2479	46716.4	45828.25
931.3793	1998.8359	46641.9	45754.8
931.517	2000.4232	46417.3	45530.3
931.6547	2002.0097	46310.25	45424.3
931.7923	2003.5955	46082.5	45194.7
931.93	2005.1805	45965.2	45078.8
932.0676	2006.7648	45841.65	44955.85
932.2052	2008.3484	45780.45	44893.85
932.3427	2009.9312	45732.8	44842.15
932.4803	2011.5133	45612.5	44726.3
932.6178	2013.0946	45428.95	44543.4
932.7553	2014.6752	45273.15	44386.1
932.8928	2016.2551	45034.35	44147.9
933.0302	2017.8342	44969.75	44081.2
933.1676	2019.4126	44694.05	43809.5
933.305	2020.9902	44624.05	43737.35
933.4424	2022.5672	44515.7	43627.45
933.5798	2024.1433	44454.5	43562.25
933.7171	2025.7188	44301	43415.05
933.8544	2027.2935	44041.85	43155.2
933.9917	2028.8674	43898.65	43013.55
934.129	2030.4406	43810.9	42926.85
934.2662	2032.0131	43620.85	42736.6
934.4034	2033.5849	43383.05	42489.8
934.5406	2035.1559	43419.95	42532.9
934.6778	2036.7261	43283	42396.35
934.8149	2038.2957	43106.25	42220
934.952	2039.8645	43048.15	42161.45
935.0891	2041.4325	43096.75	42209.1
935.2262	2042.9998	42916.95	42031.25
935.3632	2044.5664	42652.25	41766.1
935.5002	2046.1323	42563.8	41677.1
935.6372	2047.6974	42463.7	41578.4
935.7742	2049.2617	42377.05	41492.3
935.9111	2050.8254	42421.3	41529.2
936.048	2052.3883	42124.25	41235.5
936.1849	2053.9504	42047.85	41160.6
936.3218	2055.5118	41941.35	41054
936.4586	2057.0725	41684.35	40793.2
936.5955	2058.6325	41649.6	40762.6
936.7323	2060.1917	41522.85	40636.5
936.869	2061.7502	41390.55	40500.5
937.0058	2063.3079	41210.95	40324.55
937.1425	2064.8649	41072.25	40185.65
937.2792	2066.4212	41027.2	40141.6
937.4159	2067.9767	40923.6	40037.95
937.5525	2069.5315	40692.5	39806.95
937.6891	2071.0856	40509.25	39622.85
937.8257	2072.6389	40425.65	39537.6
937.9623	2074.1915	40164.15	39278.7
938.0989	2075.7433	40001.7	39113.65
938.2354	2077.2945	39874.9	38988
938.3719	2078.8448	39786.5	38899.9
938.5084	2080.3945	39646.85	38759
938.6448	2081.9434	39617.35	38730.7
938.7812	2083.4916	39476.2	38587.75
938.9176	2085.039	39285.15	38393.9
939.054	2086.5857	39214.4	38322.45
939.1903	2088.1317	39164	38275.55
939.3267	2089.677	39063.35	38174.75
939.463	2091.2215	38895.9	38008.3
939.5992	2092.7652	38812.8	37924.35
939.7355	2094.3083	38679.35	37792.75
939.8717	2095.8506	38567	37679.9
940.0079	2097.3921	38584.2	37697.1
940.1441	2098.933	38435.2	37548.7
940.2802	2100.4731	38285.55	37399.3
940.4163	2102.0124	38263.5	37369.7
940.5524	2103.5511	38142.95	37255.85
940.6885	2105.089	38055.8	37165.85
940.8245	2106.6261	37953.5	37067.45
940.9606	2108.1626	37875.75	36988
941.0965	2109.6983	37778.1	36861.8
941.2325	2111.2332	37641.85	36752.15
941.3684	2112.7675	37538.75	36650.8
941.5044	2114.301	37438.25	36550.1
941.6403	2115.8337	37358.7	36472.3
941.7761	2117.3657	37247	36359
941.912	2118.897	37188.95	36301.8
942.0478	2120.4276	37035.9	36141.9
942.1835	2121.9575	36887	36000.25
942.3193	2123.4866	36827.2	35925.1
942.455	2125.0149	36699.45	35810.65
942.5907	2126.5426	36478.5	35592.9
942.7264	2128.0695	36409.65	35520.3
942.8621	2129.5956	36397.65	35510.15
942.9977	2131.1211	36274.1	35383.8
943.1333	2132.6458	36200.75	35314.45
943.2689	2134.1698	36079.1	35192.65
943.4044	2135.693	35953.5	35065.25
943.54	2137.2155	35916.4	35027.55
943.6755	2138.7373	35797.15	34910.4
943.8109	2140.2584	35670.9	34783.65
943.9464	2141.7787	35595.8	34703.65
944.0818	2143.2983	35390.8	34505.9
944.2172	2144.8171	35222.7	34338.4
944.3526	2146.3353	35146.55	34257.35
944.4879	2147.8527	34982.1	34097.15
944.6232	2149.3693	35016.95	34129.15
944.7585	2150.8853	34840.8	33952.75
944.8938	2152.4005	34632.4	33744
945.029	2153.9149	34612.8	33725.25
945.1642	2155.4287	34457.75	33570.05
945.2994	2156.9417	34442.4	33555.25
945.4346	2158.454	34309.95	33420.8
945.5697	2159.9655	34257.85	33372.9
945.7048	2161.4764	34204.45	33317.2
945.8399	2162.9865	34104.95	33218.6
945.9749	2164.4958	34000.55	33111.8
946.1099	2166.0045	33797.75	32907.75
946.2449	2167.5124	33806.35	32919.2
946.3799	2169.0195	33693.7	32807.1
946.5148	2170.526	33615.7	32728.95
946.6498	2172.0317	33460.95	32572.35
946.7846	2173.5367	33385.8	32499
946.9195	2175.0409	33282.3	32398.1
947.0543	2176.5445	33257.45	32372.4
947.1891	2178.0473	33108.85	32221.5
947.3239	2179.5494	32996.85	32106.9
947.4587	2181.0507	32878.95	31992.95
947.5934	2182.5513	32759.95	31875.05
947.7281	2184.0512	32687.65	31801.15
947.8628	2185.5504	32529.6	31642.75
947.9974	2187.0488	32350.4	31463.85
948.132	2188.5465	32295.3	31408.05
948.2666	2190.0435	32171.25	31286.05
948.4012	2191.5397	32067.95	31182.7
948.5357	2193.0353	31962.8	31077
948.6702	2194.5301	31791.45	30904.85
948.8047	2196.0241	31686.95	30798.7
948.9392	2197.5175	31614.45	30727.4
949.0736	2199.0101	31493.25	30601.3
949.208	2200.502	31312	30427.9
949.3424	2201.9931	31229.85	30343.55
949.4767	2203.4835	31105.65	30217.6
949.611	2204.9733	31052.75	30159
949.7453	2206.4622	30951.15	30064.95
949.8796	2207.9505	30845.45	29953.2
950.0138	2209.438	30727.9	29841.95
950.148	2210.9248	30576.85	29690.45
950.2822	2212.4109	30514.1	29630.05
950.4164	2213.8962	30353.2	29463.8
950.5505	2215.3809	30292.35	29401.3
950.6846	2216.8648	30266.6	29378.7
950.8186	2218.3479	30136.2	29245.45
950.9527	2219.8304	29997.15	29107.4
951.0867	2221.3121	29893.75	29005.2
951.2207	2222.7931	29804.1	28917
951.3546	2224.2733	29750.95	28863.8
951.4886	2225.7529	29559.6	28672.45
951.6225	2227.2317	29529.6	28641.1
951.7563	2228.7098	29431.55	28543.85
951.8902	2230.1872	29267.35	28380.65
952.024	2231.6638	29265.4	28380.3
952.1578	2233.1397	29110.8	28218.45
952.2916	2234.6149	29025.3	28139.95
952.4253	2236.0894	28896.55	28007.45
952.559	2237.5632	28865.5	27977
952.6927	2239.0362	28756.9	27870.7
952.8263	2240.5085	28654	27765.35
952.9599	2241.9801	28505.75	27618.7
953.0935	2243.4509	28432	27545.25
953.2271	2244.921	28342.7	27457
953.3606	2246.3904	28243.25	27353.4
953.4941	2247.8591	28188.7	27301.6
953.6276	2249.3271	28041.9	27154.85
953.7611	2250.7943	27926.35	27038.9
953.8945	2252.2608	27859.5	26971.95
954.0279	2253.7266	27803.55	26917.4
954.1612	2255.1917	27702.9	26815.35
954.2946	2256.656	27564.1	26676
954.4279	2258.1197	27494.3	26608.2
954.5612	2259.5826	27405.9	26516.8
954.6944	2261.0447	27378.55	26490.5
954.8276	2262.5062	27269.05	26380.95
954.9608	2263.9669	27198.05	26309.5
955.094	2265.4269	27190.15	26303.25
955.2271	2266.8862	27060.05	26172.9
955.3602	2268.3448	26971.35	26084.5
955.4933	2269.8026	26925.25	26038.5
955.6264	2271.2598	26805.9	25918.1
955.7594	2272.7162	26722.95	25837.7
955.8924	2274.1719	26637.95	25752
956.0253	2275.6268	26558.55	25671.7
956.1583	2277.0811	26512.1	25624.35
956.2912	2278.5346	26454.35	25566.6
956.4241	2279.9874	26369.85	25483.95
956.5569	2281.4395	26315.2	25430.1
956.6897	2282.8908	26166.8	25275
956.8225	2284.3414	26104.8	25216.95
956.9553	2285.7914	25996.05	25111.4
957.088	2287.2406	25960.55	25072.25
957.2207	2288.689	25889.9	25002.7
957.3534	2290.1368	25788.95	24902.7
957.486	2291.5838	25696.95	24808.25
957.6186	2293.0302	25630.4	24742.85
957.7512	2294.4758	25520.5	24632.5
957.8838	2295.9206	25420.3	24530.2
958.0163	2297.3648	25326.9	24438.35
958.1488	2298.8082	25335.55	24448.9
958.2813	2300.251	25218.55	24331.9
958.4137	2301.693	25123.6	24235.25
958.5461	2303.1343	25096	24209.45
958.6785	2304.5748	24987.6	24100.8
958.8108	2306.0147	24891.8	24006.2
958.9432	2307.4538	24880.95	23990.5
959.0754	2308.8922	24774.65	23888.8
959.2077	2310.3299	24745.35	23857.1
959.3399	2311.7669	24625.05	23738.8
959.4721	2313.2031	24519.1	23631.45
959.6043	2314.6387	24406.55	23519.2
959.7365	2316.0735	24313.45	23427.85
959.8686	2317.5076	24289.8	23403.1
960.0006	2318.941	24226.3	23340.35
960.1327	2320.3737	24154	23266.75
960.2647	2321.8056	24077.5	23190.2
960.3967	2323.2369	23977.6	23090.2
960.5287	2324.6674	23930.4	23042.7
960.6606	2326.0972	23819.8	22930.3
960.7925	2327.5263	23723.35	22837.85
960.9244	2328.9547	23691.95	22804.85
961.0562	2330.3823	23576.95	22691.1
961.1881	2331.8092	23597.15	22708.15
961.3198	2333.2355	23458.55	22571.75
961.4516	2334.661	23427.3	22540
961.5833	2336.0858	23362.75	22474.9
961.715	2337.5098	23294	22406.4
961.8467	2338.9332	23244.25	22358.9
961.9783	2340.3558	23151.75	22262.45
962.1099	2341.7778	23088.35	22200.9
962.2415	2343.199	22985.55	22096.15
962.373	2344.6195	22927	22039.8
962.5045	2346.0393	22840.55	21954.7
962.636	2347.4583	22792.85	21904.75
962.7675	2348.8767	22717	21829.2
962.8989	2350.2943	22656.1	21767.85
963.0303	2351.7113	22596.05	21707.9
963.1617	2353.1275	22482.7	21595.35
963.293	2354.543	22412.75	21517.6
963.4243	2355.9578	22378.5	21491.3
963.5556	2357.3718	22235.25	21349.6
963.6868	2358.7852	22154.25	21263.65
963.818	2360.1978	22048.55	21159.7
963.9492	2361.6098	21988.85	21102.8
964.0803	2363.021	21956.15	21066.9
964.2114	2364.4315	21864.05	20977.45
964.3425	2365.8413	21828.1	20940.05
964.4736	2367.2504	21761.3	20876.25
964.6046	2368.6587	21633.35	20745.1
964.7356	2370.0664	21563.1	20676.7
964.8666	2371.4733	21488.5	20602.85
964.9975	2372.8795	21414.95	20528.35
965.1284	2374.285	21344.55	20457.1
965.2593	2375.6899	21217.85	20330.7
965.3901	2377.0939	21100.45	20215.35
965.5209	2378.4973	21069.1	20182.9
965.6517	2379.9	20999.2	20111.9
965.7825	2381.3019	20936.3	20049.15
965.9132	2382.7032	20862.95	19977.65
966.0439	2384.1037	20843.05	19957.4
966.1745	2385.5035	20742.1	19855.8
966.3051	2386.9027	20676.5	19791.3
966.4357	2388.3011	20612.2	19723.35
966.5663	2389.6987	20575.5	19687.75
966.6968	2391.0957	20464.35	19578.85
966.8273	2392.492	20400.85	19515.55
966.9578	2393.8876	20291.05	19406.15
967.0882	2395.2824	20210.8	19323.4
967.2186	2396.6765	20108.5	19224.4
967.349	2398.07	20029.95	19144
967.4793	2399.4627	19991.2	19103.75
967.6097	2400.8547	19950.5	19062.85
967.7399	2402.246	19862.3	18970.6
967.8702	2403.6366	19752.95	18868.25
968.0004	2405.0265	19668.75	18784.7
968.1306	2406.4156	19603.5	18713.45
968.2607	2407.8041	19494.05	18605.25
968.3909	2409.1918	19437.9	18548.25
968.521	2410.5789	19349.25	18462.35
968.651	2411.9652	19270	18380.55
968.781	2413.3508	19206.65	18320.25
968.911	2414.7358	19150.65	18262.95
969.041	2416.12	19075.45	18190.8
969.1709	2417.5035	19036.9	18152.35
969.3008	2418.8863	18995.7	18108.7
969.4307	2420.2684	18881.75	17995.05
969.5606	2421.6497	18797.45	17909.55
969.6904	2423.0304	18662.55	17776.55
969.8201	2424.4104	18623.95	17737.2
969.9499	2425.7896	18552.2	17663.7
970.0796	2427.1682	18561.05	17674.95
970.2093	2428.546	18535.1	17648.2
970.3389	2429.9232	18461.6	17573.15
970.4685	2431.2996	18349.7	17463.7
970.5981	2432.6753	18334.8	17447.05
970.7277	2434.0503	18269.65	17381.05
970.8572	2435.4246	18175.45	17290.3
970.9867	2436.7982	18093.9	17205.6
971.1161	2438.1711	18076.2	17191.75
971.2456	2439.5433	17981.4	17094.1
971.375	2440.9148	17922.65	17031.6
971.5043	2442.2856	17815.7	16930.55
971.6336	2443.6557	17760.8	16871.15
971.7629	2445.025	17697.1	16811.05
971.8922	2446.3937	17667.8	16781.35
972.0214	2447.7617	17631.7	16744.45
972.1506	2449.1289	17627.3	16740.65
972.2798	2450.4955	17523.55	16634.05
972.4089	2451.8613	17441.1	16555.9
972.538	2453.2265	17401.4	16516.1
972.6671	2454.5909	17363.35	16476.05
972.7961	2455.9546	17323.35	16438.75
972.9251	2457.3177	17259.1	16372
973.0541	2458.68	17182.45	16295.05
973.1831	2460.0416	17177.4	16291.1
973.312	2461.4025	17157.4	16267.55
973.4408	2462.7627	17056.05	16157.75
973.5697	2464.1222	17031.4	16147.45
973.6985	2465.4811	16977.15	16092.15
973.8273	2466.8392	16886	15998.65
973.956	2468.1966	16807.6	15918.45
974.0847	2469.5533	16810.5	15920.7
974.2134	2470.9093	16762.8	15875.85
974.3421	2472.2645	16694.65	15807.75
974.4707	2473.6191	16658.1	15771.95
974.5993	2474.973	16555.4	15667.8
974.7278	2476.3262	16512.5	15625.7
974.8563	2477.6787	16458.6	15572.75
974.9848	2479.0305	16357.75	15472.9
975.1132	2480.3816	16317.7	15427.65
975.2417	2481.7319	16255.55	15367.35
975.37	2483.0816	16204.05	15316.9
975.4984	2484.4306	16132.55	15244
975.6267	2485.7789	16100.85	15213.9
975.755	2487.1264	16005.35	15117.7
975.8833	2488.4733	15966.8	15081.5
976.0115	2489.8195	15872.05	14979.5
976.1397	2491.165	15848.5	14960.25
976.2678	2492.5097	15779.85	14891.35
976.3959	2493.8538	15700.7	14815.4
976.524	2495.1972	15615.9	14730.25
976.6521	2496.5398	15583.85	14696
976.7801	2497.8818	15518.45	14630.7
976.9081	2499.2231	15461.4	14575.65
977.036	2500.5637	15438.1	14549.8
977.164	2501.9035	15357.8	14469.8
977.2918	2503.2427	15304.15	14414.7
977.4197	2504.5812	15276.25	14390.9
977.5475	2505.919	15197.3	14308.95
977.6753	2507.256	15225.55	14339.75
977.8031	2508.5924	15124.35	14238.25
977.9308	2509.9281	15069.65	14179.2
978.0585	2511.2631	15014.15	14127.7
978.1861	2512.5974	14962	14074.95
978.3137	2513.9309	14891.15	14003.9
978.4413	2515.2638	14881.3	13969.1
978.5689	2516.596	14809.35	13926.15
978.6964	2517.9275	14726.7	13838.6
978.8239	2519.2583	14701.55	13813.45
978.9513	2520.5884	14625.65	13738.55
979.0788	2521.9178	14563.45	13676.5
979.2062	2523.2465	14527.15	13641.6
979.3335	2524.5745	14443.05	13556.95
979.4608	2525.9018	14422.55	13535
979.5881	2527.2284	14361.15	13476.85
979.7154	2528.5543	14350.2	13463.95
979.8426	2529.8796	14300.5	13414.35
979.9698	2531.2041	14288.1	13400.55
980.0969	2532.5279	14248.45	13364.4
980.224	2533.851	14204.35	13316.8
980.3511	2535.1735	14168.85	13284.5
980.4781	2536.4952	14094.7	13207.6
980.6052	2537.8163	14062.25	13174.7
980.7321	2539.1366	14032.75	13147.85
980.8591	2540.4562	13965.2	13078.65
980.986	2541.7752	13952.45	13067.3
981.1129	2543.0935	13928.5	13040.95
981.2397	2544.411	13868.15	12980.55
981.3665	2545.7279	13855.05	12969.35
981.4933	2547.0441	13790.25	12904.3
981.62	2548.3596	13800.6	12912.45
981.7467	2549.6744	13768.25	12881.95
981.8734	2550.9885	13730.95	12838.25
982.0001	2552.3019	13657.4	12770.2
982.1267	2553.6146	13635.95	12750.05
982.2532	2554.9266	13555.4	12669.85
982.3798	2556.2379	13513.15	12624.85
982.5063	2557.5485	13508.3	12623.05
982.6327	2558.8585	13496.3	12603.7
982.7592	2560.1677	13461.65	12569.55
982.8856	2561.4762	13430.35	12543.25
983.0119	2562.7841	13431.55	12542.35
983.1383	2564.0913	13374.1	12489.4
983.2646	2565.3977	13367.55	12481.9
983.3908	2566.7035	13329.9	12442.75
983.517	2568.0086	13284.35	12396.95
983.6432	2569.313	13252.4	12364.9
983.7694	2570.6167	13210.65	12320.75
983.8955	2571.9197	13158.5	12272.5
984.0216	2573.222	13153.05	12263.3
984.1476	2574.5236	13102.2	12215.9
984.2737	2575.8246	13083.2	12195.8
984.3996	2577.1248	13041.2	12150.7
984.5256	2578.4244	13036.15	12151.7
984.6515	2579.7232	13029.3	12142.5
984.7774	2581.0214	12965.55	12056
984.9032	2582.3189	12939.85	12052.55
985.029	2583.6157	12908.85	12018.25
985.1548	2584.9118	12845.75	11959.6
985.2806	2586.2072	12807.55	11923.95
985.4063	2587.5019	12761.9	11877.05
985.5319	2588.7959	12742.65	11855
985.6576	2590.0893	12725.1	11835.5
985.7832	2591.3819	12708.6	11821.55
985.9087	2592.6739	12621.6	11736.3
986.0343	2593.9652	12600.55	11715.4
986.1597	2595.2557	12547.4	11662.35
986.2852	2596.5456	12469.95	11583.7
986.4106	2597.8348	12429.05	11543.2
986.536	2599.1234	12391.1	11506
986.6614	2600.4112	12387.25	11499.9
986.7867	2601.6983	12324.75	11435
986.912	2602.9848	12241.05	11354.4
987.0372	2604.2705	12235.85	11344.35
987.1624	2605.5556	12191.55	11305.75
987.2876	2606.84	12136.7	11250.95
987.4128	2608.1237	12079.5	11192.15
987.5379	2609.4067	12061.5	11175.65
987.6629	2610.689	12047.4	11152.65
987.788	2611.9707	11966.65	11074.6
987.913	2613.2516	11903.85	11014.4
988.0379	2614.5319	11864.65	10979.3
988.1629	2615.8115	11820.7	10935.65
988.2878	2617.0903	11759.9	10871.3
988.4126	2618.3685	11710.75	10825.2
988.5375	2619.6461	11661.05	10773.95
988.6622	2620.9229	11635.75	10750.05
988.787	2622.199	11608.65	10721.8
988.9117	2623.4745	11586.75	10700.15
989.0364	2624.7493	11551.15	10665
989.161	2626.0234	11494.25	10609.15
989.2857	2627.2968	11426.3	10541.3
989.4102	2628.5695	11410	10523.25
989.5348	2629.8415	11351.8	10467.4
989.6593	2631.1128	11285.05	10396.85
989.7837	2632.3835	11219.5	10333.5
989.9082	2633.6535	11178.25	10293.4
990.0326	2634.9228	11162.5	10276.8
990.1569	2636.1914	11121.25	10235.7
990.2812	2637.4593	11108.85	10215.45
990.4055	2638.7265	11052.45	10165.55
990.5298	2639.9931	10996.05	10111.15
990.654	2641.259	10979.1	10089.9
990.7782	2642.5242	10940.95	10055.6
990.9023	2643.7887	10919.8	10033.65
991.0264	2645.0525	10905	10018.8
991.1505	2646.3156	10867.9	9981.55
991.2745	2647.5781	10798.1	9915.25
991.3985	2648.8398	10743.9	9858.9
991.5225	2650.1009	10738.8	9815.8
991.6464	2651.3613	10693.9	9806.95
991.7703	2652.6211	10681.7	9796.35
991.8942	2653.8801	10607.05	9723.25
992.018	2655.1385	10604.8	9714.45
992.1418	2656.3961	10578.75	9693.7
992.2655	2657.6531	10568.65	9684.5
992.3892	2658.9094	10533.05	9646.35
992.5129	2660.1651	10499.45	9613.55
992.6366	2661.42	10481.95	9594.35
992.7602	2662.6743	10443	9557.3
992.8837	2663.9279	10404.15	9518.05
993.0073	2665.1808	10363	9476.05
993.1307	2666.433	10357	9469.1
993.2542	2667.6846	10310.65	9423.25
993.3776	2668.9354	10295.4	9406.4
993.501	2670.1856	10246.25	9358
993.6244	2671.4351	10229.85	9345.75
993.7477	2672.6839	10222.65	9337.6
993.8709	2673.9321	10190.1	9304.7
993.9942	2675.1795	10127.75	9241.8
994.1174	2676.4263	10115.55	9230.25
994.2405	2677.6724	10065.1	9181.65
994.3637	2678.9179	10007.45	9121
994.4868	2680.1626	9995.45	9110.5
994.6098	2681.4067	9978.6	9090.6
994.7328	2682.6501	9951.05	9066.25
994.8558	2683.8928	9917.2	9030.95
994.9788	2685.1348	9845.75	8960.1
995.1017	2686.3761	9826.4	8940.85
995.2245	2687.6168	9780.3	8896.4
995.3474	2688.8568	9753.25	8867.3
995.4702	2690.0961	9736.1	8851.65
995.5929	2691.3348	9691.15	8804.4
995.7156	2692.5727	9666	8780.55
995.8383	2693.81	9659.05	8772.95
995.961	2695.0466	9595.9	8710.25
996.0836	2696.2826	9588.55	8704.15
996.2062	2697.5178	9553.6	8665.05
996.3287	2698.7524	9514.25	8628.95
996.4512	2699.9863	9499.9	8614.35
996.5737	2701.2195	9450.9	8566.75
996.6961	2702.452	9432	8546.1
996.8185	2703.6839	9389.95	8503.35
996.9408	2704.9151	9362.3	8477.7
997.0631	2706.1456	9364.05	8477.15
997.1854	2707.3755	9322.75	8436.1
997.3077	2708.6046	9279.2	8391.85
997.4299	2709.8331	9252.7	8366.95
997.552	2711.0609	9223.8	8338.4
997.6742	2712.2881	9181.3	8296.5
997.7963	2713.5145	9178	8290
997.9183	2714.7403	9130.15	8244.55
998.0403	2715.9654	9109.65	8225.75
998.1623	2717.1899	9079.65	8193.2
998.2842	2718.4136	9056.1	8170.75
998.4062	2719.6367	9038.25	8152.6
998.528	2720.8591	9001.45	8108.7
998.6498	2722.0809	8972.75	8087.8
998.7716	2723.3019	8941.15	8049.6
998.8934	2724.5223	8908.3	8023.3
999.0151	2725.7421	8889	8000.7
999.1368	2726.9611	8875.65	7987.2
999.2584	2728.1795	8851.1	7961.95
999.38	2729.3972	8794.5	7907.8
999.5016	2730.6142	8745.7	7852.65
999.6231	2731.8306	8683.3	7794.6
999.7446	2733.0462	8679.95	7791.9
999.8661	2734.2612	8618.9	7728.85
999.9875	2735.4756	8573.5	7684.8
1000.1089	2736.6892	8523.4	7638.95
1000.2302	2737.9022	8494.45	7608.15
1000.3515	2739.1145	8448.6	7563.5
1000.4728	2740.3262	8427.85	7535.2
1000.594	2741.5372	8346.65	7460.85
1000.7152	2742.7475	8336.75	7449
1000.8363	2743.9571	8296	7408.3
1000.9575	2745.1661	8284.35	7392.95
1001.0785	2746.3744	8229.35	7343.5
1001.1996	2747.582	8213.55	7328.35
1001.3206	2748.7889	8177.45	7289.45
1001.4415	2749.9952	8126.2	7242.65
1001.5625	2751.2008	8108.5	7221.85
1001.6833	2752.4057	8123.05	7235.2
1001.8042	2753.61	8061.05	7173.25
1001.925	2754.8136	8045.2	7157.95
1002.0458	2756.0165	7987.3	7101.6
1002.1665	2757.2188	7990	7106.2
1002.2872	2758.4204	7945.25	7061.4
1002.4078	2759.6213	7916.7	7028.8
1002.5285	2760.8215	7909.45	7020.45
1002.649	2762.0211	7872.1	6986.6
1002.7696	2763.22	7837.8	6948.75
1002.8901	2764.4182	7798.7	6913.6
1003.0106	2765.6158	7779	6894
1003.131	2766.8127	7747.2	6859.25
1003.2514	2768.009	7747.5	6862.3
1003.3717	2769.2045	7712.05	6825.5
1003.492	2770.3994	7695.05	6808.85
1003.6123	2771.5936	7661	6772.85
1003.7325	2772.7872	7627.05	6742.6
1003.8527	2773.9801	7578.5	6691.35
1003.9729	2775.1723	7591.75	6690
1004.093	2776.3639	7520.3	6635.5
1004.2131	2777.5548	7505.7	6616.55
1004.3331	2778.745	7487.35	6599.1
1004.4531	2779.9346	7461.55	6576.15
1004.5731	2781.1235	7436.1	6549.55
1004.693	2782.3117	7439.6	6554.15
1004.8129	2783.4992	7406.2	6520.35
1004.9328	2784.6861	7371.55	6486.5
1005.0526	2785.8723	7346.1	6460.15
1005.1723	2787.0579	7316	6427.8
1005.2921	2788.2428	7310.85	6425.95
1005.4118	2789.427	7280.2	6396.35
1005.5314	2790.6106	7255.5	6369.7
1005.651	2791.7935	7223.35	6338.4
1005.7706	2792.9757	7213.1	6326.05
1005.8902	2794.1573	7177.6	6291.6
1006.0097	2795.3382	7150.45	6266.7
1006.1291	2796.5184	7135.95	6252.65
1006.2485	2797.698	7140.55	6252.55
1006.3679	2798.8769	7132.6	6245.05
1006.4873	2800.0551	7104.75	6218.6
1006.6066	2801.2327	7078	6189.75
1006.7258	2802.4096	7074.65	6188.6
1006.8451	2803.5859	7051	6167.3
1006.9642	2804.7615	7021.3	6133.95
1007.0834	2805.9364	7018.2	6132.7
1007.2025	2807.1106	7037.8	6150.9
1007.3216	2808.2842	7021.4	6134.85
1007.4406	2809.4572	7014.1	6129.45
1007.5596	2810.6294	7029.05	6142.7
1007.6785	2811.801	7046.9	6162.85
1007.7975	2812.972	7055.4	6170.4
1007.9163	2814.1423	7064.15	6179.15
1008.0352	2815.3119	7097.2	6212.8
1008.154	2816.4808	7091.9	6208.45
1008.2727	2817.6491	7100.9	6214.4
1008.3914	2818.8167	7144.9	6261.4
1008.5101	2819.9837	7180.4	6288.4
1008.6288	2821.15	7175	6290.15
1008.7474	2822.3157	7220.5	6336.4
1008.8659	2823.4807	7247.35	6360.9
1008.9844	2824.645	7274.05	6387.05
1009.1029	2825.8086	7291.5	6405
1009.2214	2826.9716	7336.3	6454.2
1009.3398	2828.134	7362.6	6476.7
1009.4581	2829.2957	7376.7	6490.95
1009.5764	2830.4567	7386.2	6502.4
1009.6947	2831.617	7380.7	6493.5
1009.813	2832.7767	7380.95	6496.9
1009.9312	2833.9358	7370.15	6486.85
1010.0493	2835.0941	7335.8	6448.25
1010.1675	2836.2519	7317.95	6435.3
1010.2855	2837.4089	7289.85	6403.9
1010.4036	2838.5653	7248.2	6362
1010.5216	2839.7211	7224.35	6337
1010.6396	2840.8761	7226.7	6339.6
1010.7575	2842.0306	7214	6331.5
1010.8754	2843.1843	7231.2	6346
1010.9932	2844.3374	7247.2	6363.95
1011.111	2845.4899	7276.5	6388.65
1011.2288	2846.6417	7281.45	6397.3
1011.3465	2847.7928	7333.45	6448.4
1011.4642	2848.9433	7379.3	6493.6
1011.5818	2850.0931	7386.15	6501.8
1011.6995	2851.2422	7458.5	6571
1011.817	2852.3907	7470.45	6582.8
1011.9345	2853.5385	7510.8	6623.85
1012.052	2854.6857	7530.6	6637.95
1012.1695	2855.8323	7550.95	6666.6
1012.2869	2856.9781	7545.85	6659.15
1012.4042	2858.1233	7584.5	6700.65
1012.5216	2859.2679	7599.15	6714
1012.6389	2860.4118	7627.15	6743.2
1012.7561	2861.555	7622.1	6732.85
1012.8733	2862.6976	7661.5	6774.75
1012.9905	2863.8395	7665.55	6782.1
1013.1076	2864.9808	7659.25	6774.25
1013.2247	2866.1214	7671.35	6788.95
1013.3417	2867.2614	7646.7	6760
1013.4587	2868.4007	7657.65	6770.35
1013.5757	2869.5393	7658.7	6771.6
1013.6926	2870.6773	7627.6	6738.55
1013.8095	2871.8146	7637	6749.25
1013.9263	2872.9513	7611.75	6724.8
1014.0431	2874.0874	7572.25	6687.6
1014.1599	2875.2227	7548	6662.65
1014.2766	2876.3574	7504	6618.05
1014.3933	2877.4915	7490.5	6607.05
1014.51	2878.6249	7421.75	6538.05
1014.6266	2879.7577	7394.55	6509.15
1014.7431	2880.8898	7353.75	6457.4
1014.8596	2882.0212	7304.4	6421.3
1014.9761	2883.152	7272.5	6387.35
1015.0925	2884.2821	7243.8	6358.9
1015.2089	2885.4116	7209.25	6325.8
1015.3253	2886.5405	7221.45	6336.65
1015.4416	2887.6686	7191.7	6303.8
1015.5579	2888.7962	7195.6	6311.25
1015.6741	2889.923	7148.15	6264.85
1015.7903	2891.0493	7158.65	6273.9
1015.9065	2892.1748	7112.4	6226.8
1016.0226	2893.2997	7084.6	6200.25
1016.1387	2894.424	7105.25	6222.5
1016.2547	2895.5476	7114.25	6228.55
1016.3707	2896.6706	7113.35	6228.25
1016.4866	2897.7929	7115.4	6229.5
1016.6025	2898.9145	7101.4	6217
1016.7184	2900.0355	7101.85	6215.9
1016.8342	2901.1559	7093.95	6208.1
1016.95	2902.2756	7114.95	6231.5
1017.0658	2903.3946	7111.65	6227.05
1017.1815	2904.513	7106.25	6218.55
1017.2971	2905.6308	7108.8	6225
1017.4127	2906.7479	7117.25	6232.2
1017.5283	2907.8643	7132.8	6247.7
1017.6439	2908.9801	7138.95	6253.7
1017.7594	2910.0953	7096.15	6210.8
1017.8748	2911.2098	7082.8	6194.25
1017.9902	2912.3236	7061.55	6166.65
1018.1056	2913.4368	7040.55	6153.3
1018.2209	2914.5494	7019.3	6131.85
1018.3362	2915.6613	6979.4	6089.65
1018.4515	2916.7725	6932.35	6044.6
1018.5667	2917.8831	6897.25	6012.25
1018.6819	2918.9931	6855.75	5968.15
1018.797	2920.1024	6818.75	5931.4
1018.9121	2921.211	6795.6	5911.5
1019.0271	2922.319	6739.4	5853.15
1019.1421	2923.4264	6728.95	5843.55
1019.2571	2924.5331	6675	5791.8
1019.372	2925.6391	6663.05	5776.05
1019.4869	2926.7445	6653	5770.35
1019.6017	2927.8493	6625.7	5742.5
1019.7165	2928.9534	6639.45	5753.9
1019.8313	2930.0569	6613.75	5725.3
1019.946	2931.1597	6605.85	5718.75
1020.0606	2932.2619	6607.15	5721.05
1020.1753	2933.3634	6576.6	5691.75
1020.2899	2934.4643	6572.45	5681.45
1020.4044	2935.5645	6562.85	5671.2
1020.5189	2936.6641	6524.25	5634.85
1020.6334	2937.763	6471.15	5586.75
1020.7478	2938.8613	6420.85	5536.8
1020.8622	2939.959	6364.95	5475.05
1020.9765	2941.056	6303.95	5419.65
1021.0908	2942.1523	6217.25	5332.2
1021.2051	2943.248	6132.05	5245.75
1021.3193	2944.3431	6053.95	5168.45
1021.4334	2945.4375	5948.75	5060.85
1021.5476	2946.5313	5857.55	4976.1
1021.6617	2947.6244	5754.9	4869.25
1021.7757	2948.7169	5652.1	4765.05
1021.8897	2949.8087	5560.5	4676.4
1022.0037	2950.8999	5475.85	4590.05
1022.1176	2951.9904	5384.45	4499.95
1022.2315	2953.0803	5308.3	4422.2
1022.3453	2954.1696	5250.2	4364.4
1022.4591	2955.2582	5209.9	4324.25
1022.5728	2956.3462	5133	4248.3
1022.6865	2957.4335	5100.55	4214.2
1022.8002	2958.5202	5052.1	4165.65
1022.9138	2959.6062	5002.4	4117.4
1023.0274	2960.6916	4982.8	4099.5
1023.141	2961.7764	4932.25	4045.15
1023.2545	2962.8605	4907.2	4021.85
1023.3679	2963.9439	4870.95	3986.85
1023.4813	2965.0267	4856	3970.5
1023.5947	2966.1089	4865.7	3958.2
1023.708	2967.1905	4820.9	3934.5
1023.8213	2968.2714	4809.1	3923.95
1023.9346	2969.3516	4785.95	3902.7
1024.0478	2970.4312	4792.65	3898.65
1024.1609	2971.5102	4749.1	3864.35
1024.274	2972.5885	4755.8	3869.75
1024.3871	2973.6662	4755	3866.2
1024.5002	2974.7432	4726.85	3842.6
1024.6132	2975.8196	4710.9	3823.95
1024.7261	2976.8954	4699.3	3816.85
1024.839	2977.9705	4654.55	3769.25
1024.9519	2979.045	4629	3744.65
1025.0647	2980.1188	4617.2	3732.45
1025.1775	2981.192	4577.25	3694.65
1025.2902	2982.2645	4557.5	3672.75
1025.4029	2983.3364	4525.9	3640.15
1025.5156	2984.4077	4481.4	3597.35
1025.6282	2985.4783	4465.8	3577
1025.7407	2986.5483	4425.9	3541.1
1025.8532	2987.6177	4395.7	3513.55
1025.9657	2988.6864	4360.4	3473.3
1026.0782	2989.7545	4311.1	3423.6
1026.1906	2990.8219	4284.35	3400.8
1026.3029	2991.8887	4242.9	3355.9
1026.4152	2992.9548	4206.3	3322.75
1026.5275	2994.0204	4159.6	3275.1
1026.6397	2995.0852	4118.25	3234.65
1026.7519	2996.1495	4087.2	3200.15
1026.864	2997.2131	4061.95	3177.55
1026.9761	2998.276	4032.75	3146.9
1027.0882	2999.3383	4006.8	3120.8
1027.2002	3000.4	3973	3086.45
1027.3122	3001.4611	3956.5	3070.7
1027.4241	3002.5215	3939	3054
1027.536	3003.5812	3914.55	3031.2
1027.6478	3004.6404	3873.2	2991
1027.7596	3005.6989	3854.1	2967.7
1027.8714	3006.7567	3832.45	2948.75
1027.9831	3007.8139	3833.3	2920.25
1028.0947	3008.8705	3794.25	2907.7
1028.2064	3009.9264	3792.15	2905.9
1028.3179	3010.9818	3771.4	2885.05
1028.4295	3012.0364	3763.45	2879.35
1028.541	3013.0905	3745.1	2859.45
1028.6524	3014.1439	3724.4	2839.1
1028.7638	3015.1966	3710.45	2826.55
1028.8752	3016.2487	3705.65	2819.8
1028.9865	3017.3002	3693.5	2804.5
1029.0978	3018.3511	3668.8	2784.55
1029.209	3019.4013	3647.85	2764.6
1029.3202	3020.4509	3645.25	2761.9
1029.4314	3021.4998	3629.45	2742.65
1029.5425	3022.5481	3634.65	2751.3
1029.6535	3023.5958	3620.65	2736.1
1029.7645	3024.6428	3596.8	2711.7
1029.8755	3025.6892	3591.75	2708.45
1029.9864	3026.735	3586.25	2701.25
1030.0973	3027.7802	3566.8	2683.35
1030.2082	3028.8247	3541.65	2658.3
1030.319	3029.8685	3546	2661.6
1030.4297	3030.9118	3538.3	2652.95
1030.5404	3031.9544	3523.35	2638.85
1030.6511	3032.9963	3517.75	2635.65
1030.7617	3034.0376	3514.55	2629.9
1030.8723	3035.0783	3507.1	2619.5
1030.9829	3036.1184	3495.35	2608.9
1031.0934	3037.1578	3491.7	2608.15
1031.2038	3038.1966	3487.15	2602.3
1031.3142	3039.2348	3463.05	2580.25
1031.4246	3040.2723	3457.2	2563.55
1031.5349	3041.3092	3447.85	2565.05
1031.6452	3042.3455	3442.7	2556.25
1031.7554	3043.3811	3420.25	2535.65
1031.8656	3044.4161	3395.25	2512.05
1031.9758	3045.4505	3400.85	2516.75
1032.0859	3046.4842	3386.4	2502.15
1032.1959	3047.5173	3380.85	2495.55
1032.3059	3048.5498	3363.05	2478.55
1032.4159	3049.5816	3354.95	2471.65
1032.5258	3050.6128	3350.8	2464.5
1032.6357	3051.6434	3334.95	2449
1032.7455	3052.6734	3337.85	2451.85
1032.8553	3053.7027	3323.55	2439.45
1032.9651	3054.7314	3299.45	2416.4
1033.0748	3055.7594	3292.25	2408
1033.1845	3056.7868	3276.1	2387.95
1033.2941	3057.8136	3266.75	2381.35
1033.4037	3058.8398	3252.5	2369.45
1033.5132	3059.8653	3232.05	2347.5
1033.6227	3060.8902	3222.9	2337.45
1033.7321	3061.9145	3206.8	2323.6
1033.8415	3062.9381	3199.45	2313.4
1033.9509	3063.9612	3210.55	2311.05
1034.0602	3064.9835	3191.4	2306.15
1034.1694	3066.0053	3179.15	2290.4
1034.2787	3067.0264	3151.95	2265.9
1034.3878	3068.0469	3145.25	2259.9
1034.497	3069.0668	3139.3	2251.65
1034.6061	3070.086	3136.5	2254.35
1034.7151	3071.1046	3114.9	2229.5
1034.8241	3072.1226	3101.8	2217.8
1034.9331	3073.1399	3067.9	2185.05
1035.042	3074.1567	3056.8	2173.2
1035.1508	3075.1727	3056.5	2172.35
1035.2597	3076.1882	3036.85	2152.55
1035.3684	3077.203	3020.95	2136.4
1035.4772	3078.2173	3017.65	2131.15
1035.5859	3079.2308	3019.6	2129
1035.6945	3080.2438	2993.05	2106.85
1035.8031	3081.2561	2970.8	2086.8
1035.9117	3082.2678	2965.1	2080.6
1036.0202	3083.2789	2967	2084.35
1036.1286	3084.2893	2937.7	2054.6
1036.2371	3085.2991	2938.5	2054.75
1036.3454	3086.3083	2916.35	2026.45
1036.4538	3087.3169	2908.05	2021.15
1036.562	3088.3248	2904.85	2018.5
1036.6703	3089.3321	2883.55	1994.6
1036.7785	3090.3388	2869.8	1985.55
1036.8866	3091.3449	2861.1	1977.35
1036.9948	3092.3503	2840.4	1952.2
1037.1028	3093.3551	2840.3	1959
1037.2108	3094.3593	2823.05	1938.5
1037.3188	3095.3629	2804.15	1920.8
1037.4267	3096.3658	2809.6	1922.55
1037.5346	3097.3681	2794.9	1908.9
1037.6425	3098.3698	2786.15	1901.1
1037.7503	3099.3708	2770.55	1878.8
1037.858	3100.3713	2748.4	1864.35
1037.9657	3101.3711	2742.25	1856.85
1038.0734	3102.3702	2853.45	1831.1
1038.181	3103.3688	2740.1	1855
1038.2886	3104.3667	2716.85	1833.4
1038.3961	3105.364	2696.4	1811.15
1038.5036	3106.3607	2687.3	1801.35
1038.611	3107.3568	2677.5	1789.85
1038.7184	3108.3522	2649.75	1765.95
1038.8257	3109.347	2653.65	1767.9
1038.933	3110.3412	2647	1757.6
1039.0403	3111.3348	2641.15	1756.6
1039.1475	3112.3277	2627.05	1741.35
1039.2547	3113.32	2609.75	1727.55
1039.3618	3114.3117	2601.65	1715.95
1039.4689	3115.3028	2606.6	1723.35
1039.5759	3116.2932	2585.3	1699.6
1039.6829	3117.2831	2589.75	1698.95
1039.7898	3118.2723	2564.2	1680.15
1039.8967	3119.2608	2555.65	1670.2
1040.0035	3120.2488	2544.3	1659.95
1040.1103	3121.2361	2536.2	1649.55
1040.2171	3122.2229	2522	1637.15
1040.3238	3123.209	2506.05	1620.85
1040.4305	3124.1944	2519.8	1636.45
1040.5371	3125.1793	2504.3	1618.25
1040.6437	3126.1635	2492.3	1608.8
1040.7502	3127.1471	2482.95	1598.5
1040.8567	3128.1301	2468.95	1586.5
1040.9631	3129.1125	2460.45	1575.7
1041.0695	3130.0942	2460.9	1576.3
1041.1759	3131.0753	2462.75	1568.35
1041.2822	3132.0558	2441.3	1553.35
1041.3884	3133.0357	2439.1	1553.55
1041.4946	3134.015	2436.85	1552.45
1041.6008	3134.9936	2427.35	1540.6
1041.7069	3135.9716	2443.3	1538.3
1041.813	3136.949	2420.05	1534.25
1041.919	3137.9258	2404.85	1513.6
1042.025	3138.902	2403.55	1513.15
1042.1309	3139.8775	2392.8	1508.6
1042.2368	3140.8524	2381.2	1496.6
1042.3427	3141.8267	2371.25	1485.8
1042.4485	3142.8004	2371.35	1487.75
1042.5542	3143.7735	2380.65	1489.5
1042.6599	3144.7459	2361.5	1473
1042.7656	3145.7178	2363.1	1477.7
1042.8712	3146.689	2341.2	1458.1
1042.9768	3147.6596	2325	1438.7
1043.0823	3148.6295	2333.15	1446.95
1043.1878	3149.5989	2321.3	1435.65
1043.2932	3150.5676	2312.55	1430.05
1043.3986	3151.5357	2300.8	1416.15
1043.5039	3152.5032	2296.95	1413.65
1043.6092	3153.4701	2292.55	1410.55
1043.7145	3154.4364	2285.7	1400.45
1043.8197	3155.402	2270.2	1386.55
1043.9248	3156.367	2264.95	1379.25
1044.03	3157.3315	2285.95	1364.15
1044.135	3158.2952	2251.1	1365.2
1044.24	3159.2584	2240.85	1358.15
1044.345	3160.221	2223.85	1339.5
1044.4499	3161.1829	2226.05	1341.65
1044.5548	3162.1442	2218.3	1334.9
1044.6596	3163.105	2201.05	1316.65
1044.7644	3164.065	2205.4	1322.05
1044.8692	3165.0245	2192.45	1304.15
1044.9739	3165.9834	2192.95	1309.25
1045.0785	3166.9416	2176.45	1291.7
1045.1831	3167.8993	2168.4	1282.55
1045.2877	3168.8563	2156.45	1269.95
1045.3922	3169.8127	2162.2	1279.15
1045.4966	3170.7684	2146.8	1260.1
1045.6011	3171.7236	2151.35	1266.7
1045.7054	3172.6782	2136.25	1251.3
1045.8098	3173.6321	2132.5	1248.8
1045.914	3174.5854	2122.85	1235.85
1046.0183	3175.5381	2113.45	1228.3
1046.1224	3176.4902	2112.5	1228.8
1046.2266	3177.4417	2102	1218.2
1046.3307	3178.3926	2092.4	1207.35
1046.4347	3179.3428	2095.75	1211.9
1046.5387	3180.2924	2087.7	1202.95
1046.6427	3181.2415	2077.25	1192.9
1046.7466	3182.1899	2082.15	1196.9
1046.8504	3183.1377	2055.25	1172.2
1046.9542	3184.0848	2048	1161.2
1047.058	3185.0314	2052.45	1167.5
1047.1617	3185.9773	2040.5	1154.55
1047.2654	3186.9227	2039.85	1156.2
1047.369	3187.8674	2031.75	1146.3
1047.4726	3188.8115	2025.65	1137.8
1047.5761	3189.755	2019.6	1134.8
1047.6796	3190.6979	2013.85	1129.5
1047.783	3191.6402	2006.1	1123.5
1047.8864	3192.5818	1998.65	1114.45
1047.9898	3193.5229	2002.7	1100.9
1048.0931	3194.4633	1990.85	1105.8
1048.1963	3195.4031	1979.65	1094.8
1048.2995	3196.3423	1975.75	1092.85
1048.4027	3197.2809	1972.95	1088.85
1048.5058	3198.2189	1978.4	1095.25
1048.6089	3199.1563	1982.95	1082.8
1048.7119	3200.0931	1955.35	1073
1048.8148	3201.0292	1945.2	1061.1
1048.9178	3201.9648	1944.4	1060.6
1049.0206	3202.8997	1944.8	1058.45
1049.1235	3203.834	1931.25	1048.35
1049.2262	3204.7677	1928.45	1042.1
1049.329	3205.7008	1926.95	1040.35
1049.4317	3206.6333	1915.9	1032
1049.5343	3207.5652	1920.3	1033.65
1049.6369	3208.4964	1908.9	1025.95
1049.7394	3209.4271	1906	1022.55
1049.8419	3210.3571	1903.2	1022.2
1049.9444	3211.2865	1892.4	1006.55
1050.0468	3212.2154	1887.6	1002.4
1050.1491	3213.1436	1897.25	1011.4
1050.2514	3214.0712	1892.1	999.65
1050.3537	3214.9982	1876.05	993.2
1050.4559	3215.9246	1870.7	985.5
1050.5581	3216.8503	1863.75	980.6
1050.6602	3217.7755	1857.75	971.35
1050.7623	3218.7001	1855.6	970
1050.8643	3219.624	1849.3	964.15
1050.9663	3220.5473	1846.5	962.35
1051.0682	3221.4701	1842.95	956.85
1051.1701	3222.3922	1837.65	951.5
1051.2719	3223.3137	1835.2	950.3
1051.3737	3224.2346	1818.4	934.3
1051.4754	3225.1549	1820	933.5
1051.5771	3226.0746	1813.5	929.4
1051.6788	3226.9937	1815.4	931.65
1051.7804	3227.9121	1800.05	914.85
1051.8819	3228.83	1806.75	922.95
1051.9834	3229.7473	1784.8	898.65
1052.0849	3230.6639	1791.75	906.9
1052.1863	3231.5799	1785.35	901.2
1052.2876	3232.4954	1778.9	893.8
1052.3889	3233.4102	1775.6	891.7
1052.4902	3234.3244	1763.55	878.6
1052.5914	3235.238	1761.3	877.65
1052.6926	3236.151	1785.75	877.9
1052.7937	3237.0634	1749.35	864.95
1052.8948	3237.9752	1747.85	864.75
1052.9958	3238.8864	1743.4	857.9
1053.0968	3239.797	1741.3	855.35
1053.1977	3240.7069	1729.55	843.4
1053.2986	3241.6163	1725.1	838.7
1053.3994	3242.5251	1716.95	833.55
1053.5002	3243.4332	1717.05	831.65
1053.6009	3244.3408	1708.9	823.65
1053.7016	3245.2477	1701.4	817.75
1053.8022	3246.154	1696.5	811.85
1053.9028	3247.0598	1698.25	812.05
1054.0034	3247.9649	1688.15	804.5
1054.1039	3248.8694	1685.5	802.15
1054.2043	3249.7733	1687.1	803.65
1054.3047	3250.6766	1676.75	792.55
1054.4051	3251.5793	1680.7	795
1054.5054	3252.4814	1669.65	785.55
1054.6056	3253.3829	1673.75	788.25
1054.7058	3254.2838	1654.9	772.3
1054.806	3255.1841	1655.8	771.55
1054.9061	3256.0838	1644.55	758.3
1055.0061	3256.9829	1631.85	748.85
1055.1062	3257.8814	1628.1	742.8
1055.2061	3258.7792	1620.7	734.55
1055.306	3259.6765	1618.4	734
1055.4059	3260.5731	1613.7	732.15
1055.5057	3261.4692	1609.1	724
1055.6055	3262.3647	1594.6	710.5
1055.7052	3263.2595	1580.4	695.65
1055.8049	3264.1538	1578.9	695.9
1055.9045	3265.0474	1565.95	681.85
1056.0041	3265.9404	1553	668.9
1056.1036	3266.8329	1536.5	652.1
1056.2031	3267.7247	1538.15	643.65
1056.3025	3268.616	1507.85	624.95
1056.4019	3269.5066	1505	621.6
1056.5013	3270.3966	1490.9	604.85
1056.6005	3271.286	1461.8	578.8
