Software Version:	3.9.2.0
Unit SN:	10000200
Spectrometer SN:	6960
Date:	3/6/2024 10:55:07 AM
Data Line Index:	25
Spectral Points:	2048
Integration time (ms):	125
Averages:	20
Delay (ms):	30
Sequence Number:	1
Processing:	dark subtract
Laser Power (mW):	300
Laser Current (mA):	821
Laser Diode Temp (C):	25.1
Laser Case Temp (C):	27.9
System Temp (C):	27.7
Spectrometer Temp (C):	25.2
CCD Temp (C):	0.004
Secondary Temp (C):	20.01
Heatsink Temp (C):	23.529
CCDPCB Temp (C):	36.985
SecondaryPCB Temp (C):	34.695

Wavelength	RamanShift	Raw Counts	Dark Subtracted
787.061	30.1047	1116.3	702.6
787.2016	32.3739	1140.15	729.55
787.3422	34.6426	1190.95	780.3
787.4828	36.9109	1240.5	827.75
787.6235	39.1787	1291.5	875.4
787.7642	41.4461	1349.75	927.6
787.9049	43.7131	1414	985.8
788.0456	45.9796	1475.95	1045.55
788.1863	48.2456	1545.3	1111.45
788.3271	50.5112	1614.4	1177.1
788.4679	52.7764	1686.05	1246.85
788.6087	55.0411	1763.15	1320.2
788.7496	57.3054	1843	1392.9
788.8904	59.5692	1933.55	1481.6
789.0313	61.8326	2027.1	1571.05
789.1722	64.0955	2136.15	1675.45
789.3132	66.3579	2244.7	1780
789.4541	68.6199	2404.45	1936.7
789.5951	70.8815	2644.05	2173.85
789.7361	73.1426	3153.8	2676.85
789.8771	75.4032	4417.05	3938.45
790.0181	77.6634	7630.8	7145.55
790.1592	79.9231	15887.8	15399.75
790.3003	82.1824	52020.4	51520.85
790.4414	84.4412	65535	65019
790.5825	86.6995	65535	64994.7
790.7237	88.9574	65535	64974.6
790.8648	91.2148	65535	64957.15
791.006	93.4717	65535	64946.3
791.1472	95.7282	65535	64940.75
791.2885	97.9842	65535	64939.1
791.4297	100.2398	65535	64936.75
791.571	102.4949	65535	64930.7
791.7123	104.7495	65535	64931.6
791.8536	107.0036	65535	64926.65
791.9949	109.2573	65535	64933.6
792.1363	111.5105	65535	64928.45
792.2777	113.7632	65535	64922.75
792.4191	116.0154	65535	64915.4
792.5605	118.2672	65535	64921.2
792.7019	120.5185	65535	64917
792.8434	122.7693	65535	64913.1
792.9849	125.0197	65535	64914.2
793.1264	127.2696	65535	64909.75
793.2679	129.519	65535	64907.05
793.4094	131.7679	65535	64904.9
793.551	134.0163	65535	64901.4
793.6926	136.2642	65535	64896.5
793.8342	138.5117	65535	64887.85
793.9758	140.7587	65535	64893.85
794.1175	143.0052	65535	64893.45
794.2591	145.2512	65535	64891.65
794.4008	147.4967	65535	64890.85
794.5425	149.7417	65535	64887.4
794.6842	151.9863	65535	64885.2
794.826	154.2304	65535	64880.75
794.9677	156.4739	65535	64869.6
795.1095	158.717	65535	64875
795.2513	160.9596	65535	64871.5
795.3931	163.2017	65535	64868.05
795.535	165.4433	65535	64865.2
795.6768	167.6844	65535	64866
795.8187	169.925	65535	64863
795.9606	172.1651	65535	64859.4
796.1025	174.4047	65535	64855.7
796.2445	176.6439	65535	64854.35
796.3864	178.8825	65535	64850.35
796.5284	181.1206	65535	64846.05
796.6704	183.3582	65535	64843.95
796.8124	185.5954	65535	64840.4
796.9544	187.832	65535	64836.6
797.0965	190.0681	65535	64837.65
797.2386	192.3037	65535	64832.15
797.3806	194.5388	65535	64828.15
797.5228	196.7734	65535	64827
797.6649	199.0075	65535	64822.45
797.807	201.2411	65535	64819.65
797.9492	203.4742	65535	64822.75
798.0914	205.7068	65535	64822.6
798.2336	207.9389	65535	64819.55
798.3758	210.1704	65535	64813.7
798.518	212.4015	65535	64812.85
798.6603	214.632	65535	64819.75
798.8025	216.862	65535	64827.8
798.9448	219.0915	65535	64832.35
799.0871	221.3205	65535	64829.85
799.2294	223.549	65535	64832.75
799.3718	225.777	65535	64837.45
799.5141	228.0044	65535	64833.85
799.6565	230.2314	65535	64833.05
799.7989	232.4578	65535	64834.65
799.9413	234.6837	65535	64823.95
800.0837	236.909	65535	64819
800.2262	239.1339	65535	64796.45
800.3687	241.3582	65535	64811.25
800.5111	243.582	65535	64776.85
800.6536	245.8053	65535	64791.8
800.7961	248.0281	65535	64795.5
800.9387	250.2503	65535	64791.7
801.0812	252.472	65535	64788.35
801.2238	254.6932	65535	64787.1
801.3664	256.9139	65535	64786.4
801.509	259.134	65535	64784.8
801.6516	261.3536	65535	64785.3
801.7942	263.5727	65535	64780.8
801.9369	265.7912	65535	64783.75
802.0795	268.0092	65535	64785.15
802.2222	270.2267	65535	64779.5
802.3649	272.4436	65535	64781
802.5076	274.6601	65535	64778.1
802.6504	276.8759	65535	64776.05
802.7931	279.0913	65535	64774.6
802.9359	281.3061	65535	64773.7
803.0787	283.5204	65535	64772.95
803.2215	285.7341	65535	64765.6
803.3643	287.9473	65535	64754.2
803.5071	290.16	65535	64759.2
803.6499	292.3721	65535	64771.15
803.7928	294.5837	65535	64769.8
803.9357	296.7947	65535	64765.1
804.0786	299.0052	65535	64765.45
804.2215	301.2152	65535	64765.75
804.3644	303.4246	65535	64769.5
804.5074	305.6334	65535	64767.8
804.6503	307.8418	65535	64762.2
804.7933	310.0495	65535	64761.7
804.9363	312.2568	65535	64762.1
805.0793	314.4635	65535	64760.85
805.2223	316.6696	65535	64757.25
805.3653	318.8752	65535	64750.65
805.5084	321.0802	65535	64758.35
805.6514	323.2847	65535	64754.95
805.7945	325.4887	65535	64757.3
805.9376	327.692	65535	64756.5
806.0807	329.8949	65535	64752
806.2238	332.0972	65535	64749.9
806.367	334.2989	65535	64745.5
806.5101	336.5001	65535	64748
806.6533	338.7007	65535	64746.65
806.7965	340.9008	65535	64743.9
806.9397	343.1003	65535	64740.2
807.0829	345.2992	65535	64745.35
807.2261	347.4976	65535	64739.3
807.3693	349.6955	65535	64737.9
807.5126	351.8927	65535	64741.45
807.6559	354.0895	65535	64721.9
807.7991	356.2856	65535	64738.75
807.9424	358.4812	65535	64737.55
808.0857	360.6763	65535	64732.8
808.2291	362.8707	65535	64733.15
808.3724	365.0646	65535	64728.4
808.5158	367.258	65535	64728.3
808.6591	369.4508	65535	64722.95
808.8025	371.643	65535	64725.35
808.9459	373.8346	65535	64720.3
809.0893	376.0257	65535	64720.9
809.2327	378.2162	65535	64718.5
809.3762	380.4062	65535	64715.2
809.5196	382.5956	65535	64715.65
809.6631	384.7844	65535	64715.35
809.8066	386.9726	65535	64717.55
809.9501	389.1603	65535	64719.9
810.0936	391.3474	65535	64679
810.2371	393.5339	65535	64720.8
810.3806	395.7199	65535	64724.7
810.5241	397.9052	65535	64726.1
810.6677	400.09	65535	64723.85
810.8113	402.2743	65535	64723.45
810.9548	404.4579	65535	64725.2
811.0984	406.641	65535	64725
811.2421	408.8235	65535	64724.05
811.3857	411.0054	65535	64721.25
811.5293	413.1868	65535	64719.95
811.673	415.3675	65535	64721.25
811.8166	417.5477	65535	64719.65
811.9603	419.7273	65535	64715.55
812.104	421.9064	65535	64707.75
812.2477	424.0848	65535	64708.95
812.3914	426.2627	65535	64709.8
812.5351	428.4399	65535	64707.25
812.6788	430.6166	65535	64706.9
812.8226	432.7928	65535	64705.55
812.9663	434.9683	65535	64701.65
813.1101	437.1432	65535	64703
813.2539	439.3176	65535	64702.25
813.3977	441.4914	65535	64700.75
813.5415	443.6645	65535	64700
813.6853	445.8371	65535	64700.15
813.8291	448.0091	65535	64705.2
813.973	450.1806	65535	64702.8
814.1168	452.3514	65535	64697.8
814.2607	454.5216	65535	64692.55
814.4046	456.6913	65535	64695.9
814.5485	458.8603	65535	64695.3
814.6924	461.0288	65535	64697.45
814.8363	463.1967	65535	64699.7
814.9802	465.3639	65535	64693.6
815.1241	467.5306	65535	64697.4
815.2681	469.6967	65535	64696.95
815.412	471.8622	65535	64693
815.556	474.0271	65535	64697.7
815.7	476.1914	65535	64691.4
815.844	478.3551	65535	64694.15
815.988	480.5182	65535	64693.45
816.132	482.6807	65535	64696.35
816.276	484.8426	65535	64694.8
816.4201	487.0039	65535	64693.75
816.5641	489.1647	65535	64693.45
816.7082	491.3248	65535	64692
816.8522	493.4843	65535	64689.8
816.9963	495.6432	65535	64690.9
817.1404	497.8015	65535	64689.4
817.2845	499.9592	65535	64692.3
817.4286	502.1163	65535	64689.8
817.5727	504.2728	65535	64684.7
817.7168	506.4287	65535	64691.45
817.861	508.5839	65535	64685.8
818.0051	510.7386	65535	64688.05
818.1493	512.8927	65535	64683.15
818.2935	515.0461	65535	64684.5
818.4377	517.199	65535	64685.95
818.5818	519.3512	65535	64685.6
818.726	521.5029	65535	64679.3
818.8703	523.6539	65535	64683.05
819.0145	525.8043	65535	64681.85
819.1587	527.9541	65535	64677.55
819.303	530.1033	65535	64679.4
819.4472	532.2519	65535	64679.55
819.5915	534.3999	65535	64675.3
819.7357	536.5472	65535	64679.9
819.88	538.694	65535	64680.2
820.0243	540.8401	65535	64679.25
820.1686	542.9856	65535	64674.35
820.3129	545.1305	65535	64676.45
820.4572	547.2748	65535	64672.4
820.6016	549.4185	65535	64671.55
820.7459	551.5615	65535	64676.05
820.8902	553.704	65535	64672.5
821.0346	555.8458	65535	64672.7
821.1789	557.987	65535	64676.2
821.3233	560.1276	65535	64673.85
821.4677	562.2675	65535	64677.6
821.6121	564.4069	65535	64673.15
821.7565	566.5456	65535	64677.55
821.9009	568.6837	65535	64677.15
822.0453	570.8212	65535	64672.85
822.1897	572.958	65535	64674.95
822.3342	575.0942	65535	64676.7
822.4786	577.2299	65535	64674.3
822.6231	579.3648	65535	64674.95
822.7675	581.4992	65535	64677.4
822.912	583.6329	65535	64676.6
823.0565	585.766	65535	64676.5
823.201	587.8985	65535	64677.55
823.3454	590.0304	65535	64649.1
823.4899	592.1616	65535	64670.85
823.6345	594.2922	65535	64671.5
823.779	596.4222	65535	64668.4
823.9235	598.5515	65535	64667.55
824.068	600.6802	65535	64666.15
824.2126	602.8083	65535	64670.75
824.3571	604.9358	65535	64666.1
824.5017	607.0626	65535	64667.2
824.6462	609.1888	65535	64669.2
824.7908	611.3144	65535	64664.75
824.9354	613.4393	65535	64665.95
825.08	615.5636	65535	64666.55
825.2246	617.6873	65535	64665.55
825.3692	619.8103	65535	64664.2
825.5138	621.9327	65535	64661.7
825.6584	624.0544	65535	64666
825.803	626.1756	65535	64666.1
825.9477	628.2961	65535	64663.35
826.0923	630.4159	65535	64664.05
826.237	632.5351	65535	64662.75
826.3816	634.6537	65535	64664.35
826.5263	636.7716	65535	64663.6
826.6709	638.8889	65535	64662.9
826.8156	641.0056	65535	64660.9
826.9603	643.1216	65535	64661.85
827.105	645.237	65535	64661.3
827.2497	647.3518	65535	64662.15
827.3944	649.4659	65535	64662.75
827.5391	651.5793	65535	64660.8
827.6838	653.6922	65535	64662.4
827.8285	655.8043	65535	64662.5
827.9733	657.9159	65535	64661.8
828.118	660.0268	65535	64658.4
828.2627	662.137	65535	64658.65
828.4075	664.2466	65535	64658.6
828.5522	666.3556	65535	64658.3
828.697	668.4639	65535	64657.15
828.8418	670.5716	65535	64657.1
828.9865	672.6786	65535	64658.6
829.1313	674.785	65535	64653.15
829.2761	676.8907	65535	64656.9
829.4209	678.9958	65535	64660.6
829.5657	681.1002	65535	64656.7
829.7105	683.204	65535	64652
829.8553	685.3072	65535	64653.85
830.0001	687.4097	65535	64658.5
830.1449	689.5115	65535	64654.05
830.2898	691.6127	65535	64656.5
830.4346	693.7132	65535	64655.85
830.5794	695.8131	65535	64640.5
830.7243	697.9123	65535	64653.5
830.8691	700.0109	65535	64654
831.014	702.1089	65535	64653.95
831.1588	704.2061	65535	64656.25
831.3037	706.3028	65535	64652.4
831.4486	708.3987	65535	64652.6
831.5935	710.4941	65535	64654.05
831.7383	712.5887	65535	64650.15
831.8832	714.6827	65535	64648.25
832.0281	716.7761	65535	64652.2
832.173	718.8688	65535	64652.2
832.3179	720.9608	65535	64650.2
832.4628	723.0522	65535	64648.7
832.6077	725.1429	65535	64651.55
832.7527	727.233	65535	64657.25
832.8976	729.3224	65535	64651.1
833.0425	731.4112	65535	64651.4
833.1874	733.4993	65535	64648.3
833.3324	735.5867	65535	64649.1
833.4773	737.6735	65535	64648.55
833.6222	739.7596	65535	64646.1
833.7672	741.845	65535	64650.2
833.9122	743.9298	65535	64646.3
834.0571	746.014	65535	64652.05
834.2021	748.0974	65535	64648.85
834.347	750.1802	65535	64648.15
834.492	752.2624	65535	64646.55
834.637	754.3439	65535	64647.45
834.782	756.4247	65535	64637.05
834.9269	758.5048	65535	64650.25
835.0719	760.5843	65535	64645.95
835.2169	762.6631	65535	64647.8
835.3619	764.7413	65535	64647.85
835.5069	766.8188	65535	64646.15
835.6519	768.8956	65535	64646.5
835.7969	770.9718	65535	64645.9
835.9419	773.0473	65535	64648.05
836.0869	775.1221	65535	64647
836.232	777.1962	65535	64647.85
836.377	779.2697	65535	64646.5
836.522	781.3426	65535	64625.05
836.667	783.4147	65535	64641.2
836.8121	785.4862	65535	64647.6
836.9571	787.557	65535	64646.4
837.1021	789.6271	65535	64645.4
837.2472	791.6966	65535	64645.85
837.3922	793.7654	65535	64646.85
837.5373	795.8335	65535	64648.25
837.6823	797.901	65535	64645.65
837.8274	799.9678	65535	64645.45
837.9724	802.0339	65535	64647.85
838.1175	804.0993	65535	64635.4
838.2626	806.1641	65535	64643.95
838.4076	808.2282	65535	64643.65
838.5527	810.2916	65535	64643.35
838.6978	812.3544	65535	64647.85
838.8428	814.4164	65535	64647.85
838.9879	816.4778	65535	64643.3
839.133	818.5385	65535	64646.1
839.2781	820.5986	65535	64643.8
839.4232	822.658	65535	64639.95
839.5682	824.7166	65535	64642.5
839.7133	826.7747	65535	64645.1
839.8584	828.832	65535	64643.35
840.0035	830.8886	65535	64642.5
840.1486	832.9446	65535	64640.75
840.2937	834.9999	65535	64644.2
840.4388	837.0545	65535	64639.15
840.5839	839.1085	65535	64642.2
840.729	841.1618	65535	64640.65
840.8741	843.2143	65535	64643.55
841.0192	845.2662	65535	64643.25
841.1643	847.3175	65535	64644.35
841.3095	849.368	65535	64642.1
841.4546	851.4179	65535	64642.8
841.5997	853.467	65535	64641.95
841.7448	855.5155	65535	64643.85
841.8899	857.5633	65535	64645.2
842.0351	859.6105	65535	64640.95
842.1802	861.6569	65535	64641.45
842.3253	863.7027	65535	64640.65
842.4704	865.7478	65535	64642.15
842.6156	867.7922	65535	64643.95
842.7607	869.8359	65535	64639.15
842.9058	871.8789	65535	64639.5
843.0509	873.9212	65535	64611.15
843.1961	875.9629	65535	64639.85
843.3412	878.0039	65535	64643.7
843.4863	880.0441	65535	64642.05
843.6315	882.0837	65535	64638.35
843.7766	884.1226	65535	64638.25
843.9218	886.1609	65535	64639.75
844.0669	888.1984	65535	64640.95
844.212	890.2352	65535	64640.7
844.3572	892.2714	65535	64635.8
844.5023	894.3069	65535	64640.3
844.6475	896.3416	65535	64639
844.7926	898.3757	65535	64642.1
844.9377	900.4091	65535	64639.6
845.0829	902.4418	65535	64632.65
845.228	904.4739	65535	64635.05
845.3732	906.5052	65535	64637.8
845.5183	908.5358	65535	64641.05
845.6635	910.5658	65535	64637.4
845.8086	912.595	65535	64640.25
845.9538	914.6236	65535	64640.6
846.0989	916.6515	65535	64637.3
846.2441	918.6786	65535	64640.55
846.3892	920.7051	65535	64636.45
846.5344	922.7309	65535	64637.95
846.6795	924.756	65535	64638.05
846.8246	926.7804	65535	64634.5
846.9698	928.8041	65535	64632.2
847.1149	930.8272	65535	64640.5
847.2601	932.8495	65535	64637.5
847.4052	934.8711	65535	64639.25
847.5504	936.892	65535	64636.85
847.6955	938.9123	65535	64638.1
847.8407	940.9318	65535	64639.75
847.9858	942.9506	65535	64635.85
848.131	944.9688	65535	64640.35
848.2761	946.9862	65535	64638.35
848.4213	949.003	65535	64637.8
848.5664	951.019	65535	64641.2
848.7115	953.0344	65535	64636.55
848.8567	955.0491	65535	64637.15
849.0018	957.063	65535	64635.2
849.147	959.0763	65535	64636.4
849.2921	961.0888	65535	64636.65
849.4373	963.1007	65535	64637.95
849.5824	965.1119	65535	64638.35
849.7275	967.1223	65535	64638.5
849.8727	969.1321	65535	64639.4
850.0178	971.1412	65535	64640.05
850.1629	973.1495	65535	64638.25
850.3081	975.1572	65535	64604.7
850.4532	977.1641	65535	64636
850.5983	979.1704	65535	64637.75
850.7435	981.1759	65535	64635.1
850.8886	983.1808	65535	64634.95
851.0337	985.1849	65535	64624.95
851.1788	987.1884	65535	64634.9
851.324	989.1911	65535	64633.35
851.4691	991.1932	65535	64635
851.6142	993.1945	65535	64637.95
851.7593	995.1951	65535	64637.15
851.9045	997.1951	65535	64633.65
852.0496	999.1943	65535	64639.05
852.1947	1001.1928	65535	64635.8
852.3398	1003.1906	65535	64636.4
852.4849	1005.1877	65535	64635.1
852.63	1007.1841	65535	64635.65
852.7751	1009.1798	65535	64638.55
852.9202	1011.1748	65535	64635.85
853.0653	1013.1691	65535	64637.55
853.2104	1015.1627	65535	64637.75
853.3555	1017.1556	65535	64636
853.5006	1019.1477	65535	64634.55
853.6457	1021.1392	65535	64639.6
853.7908	1023.1299	65535	64638.25
853.9359	1025.12	65535	64635.8
854.081	1027.1093	65535	64640.85
854.2261	1029.0979	65535	64642.15
854.3712	1031.0859	65535	64640.4
854.5163	1033.0731	65535	64636.95
854.6613	1035.0596	65535	64637
854.8064	1037.0454	65535	64637.75
854.9515	1039.0304	65535	64636.5
855.0965	1041.0148	65535	64635.5
855.2416	1042.9985	65535	64635.8
855.3867	1044.9814	65535	64638
855.5317	1046.9636	65535	64636.6
855.6768	1048.9452	65535	64638.6
855.8219	1050.926	65535	64637.5
855.9669	1052.9061	65535	64638.8
856.112	1054.8855	65535	64638
856.257	1056.8642	65535	64638.2
856.4021	1058.8421	65535	64633.9
856.5471	1060.8194	65535	64637
856.6921	1062.7959	65535	64638
856.8372	1064.7717	65535	64636.85
856.9822	1066.7469	65535	64635.7
857.1272	1068.7213	65535	64634.65
857.2723	1070.695	65535	64637.55
857.4173	1072.6679	65535	64636.25
857.5623	1074.6402	65535	64634.1
857.7073	1076.6117	65535	64634.4
857.8523	1078.5826	65535	64636.1
857.9973	1080.5527	65535	64633.5
858.1423	1082.5221	65535	64636.85
858.2873	1084.4908	65535	64633.95
858.4323	1086.4587	65535	64635.65
858.5773	1088.426	65535	64633.6
858.7223	1090.3925	65535	64630.8
858.8673	1092.3584	65535	64634.25
859.0123	1094.3235	65535	64635.35
859.1573	1096.2879	65535	64634.8
859.3022	1098.2515	65535	64636.2
859.4472	1100.2145	65535	64635.55
859.5922	1102.1767	65535	64633.25
859.7371	1104.1382	65535	64637
859.8821	1106.099	65535	64633.25
860.027	1108.0591	65535	64635.35
860.172	1110.0185	65535	64635.9
860.3169	1111.9771	65535	64636.45
860.4619	1113.9351	65535	64636.5
860.6068	1115.8923	65535	64635
860.7517	1117.8488	65535	64635.35
860.8967	1119.8045	65535	64634.7
861.0416	1121.7596	65535	64635.6
861.1865	1123.7139	65535	64636.05
861.3314	1125.6675	65535	64636.55
861.4763	1127.6204	65535	64635.9
861.6212	1129.5726	65535	64633.65
861.7661	1131.524	65535	64636.2
861.911	1133.4748	65535	64636.25
862.0559	1135.4248	65535	64634.1
862.2008	1137.3741	65535	64638.7
862.3457	1139.3226	65535	64634.85
862.4905	1141.2705	65535	64635.7
862.6354	1143.2176	65535	64632.05
862.7803	1145.164	65535	64632.55
862.9251	1147.1097	65535	64633.8
863.07	1149.0546	65535	64633.5
863.2148	1150.9989	65535	64634.45
863.3597	1152.9424	65535	64635.3
863.5045	1154.8852	65535	64635.2
863.6493	1156.8272	65535	64635.75
863.7942	1158.7686	65535	64627.7
863.939	1160.7092	65535	64632.05
864.0838	1162.6491	65535	64633.9
864.2286	1164.5883	65535	64635.75
864.3734	1166.5267	65535	64633.95
864.5182	1168.4644	65535	64634.45
864.663	1170.4014	65535	64630.7
864.8078	1172.3377	65535	64636.7
864.9526	1174.2732	65535	64634.65
865.0974	1176.2081	65535	64634.55
865.2421	1178.1421	65535	64630
865.3869	1180.0755	65535	64638.7
865.5317	1182.0082	65535	64635.65
865.6764	1183.9401	65535	64634.35
865.8212	1185.8713	65535	64637.05
865.9659	1187.8017	65535	64637.95
866.1106	1189.7315	65535	64637.75
866.2554	1191.6605	65535	64608.9
866.4001	1193.5888	65535	64635.75
866.5448	1195.5163	65535	64635.1
866.6895	1197.4432	65535	64634.8
866.8342	1199.3693	65535	64635.85
866.9789	1201.2947	65535	64632.65
867.1236	1203.2193	65535	64637
867.2683	1205.1432	65535	64634.85
867.413	1207.0664	65535	64636.1
867.5576	1208.9889	65535	64632.75
867.7023	1210.9106	65535	64635.2
867.847	1212.8316	65535	64635.65
867.9916	1214.7519	65535	64625.9
868.1363	1216.6715	65535	64636.8
868.2809	1218.5903	65535	64634.4
868.4255	1220.5084	65535	64633.95
868.5701	1222.4257	65535	64635.2
868.7148	1224.3424	65535	64637.1
868.8594	1226.2583	65535	64631.5
869.004	1228.1735	65535	64634.45
869.1486	1230.0879	65535	64635.75
869.2932	1232.0016	65535	64637.15
869.4377	1233.9146	65535	64634
869.5823	1235.8269	65535	64633.95
869.7269	1237.7384	65535	64637.1
869.8715	1239.6492	65535	64637
870.016	1241.5592	65535	64636.6
870.1606	1243.4686	65535	64636.1
870.3051	1245.3772	65535	64635.5
870.4496	1247.285	65535	64637
870.5941	1249.1922	65535	64636.5
870.7387	1251.0986	65535	64637.95
870.8832	1253.0042	65535	64636.2
871.0277	1254.9092	65535	64636.05
871.1722	1256.8134	65535	64638.7
871.3167	1258.7169	65535	64638.4
871.4611	1260.6196	65535	64637.8
871.6056	1262.5216	65535	64636.45
871.7501	1264.4229	65535	64638
871.8945	1266.3234	65535	64635.65
872.039	1268.2232	65535	64634.65
872.1834	1270.1223	65535	64633.15
872.3278	1272.0207	65535	64634.6
872.4723	1273.9183	65535	64628.75
872.6167	1275.8151	65535	64634.25
872.7611	1277.7113	65535	64637.2
872.9055	1279.6067	65535	64635.95
873.0499	1281.5014	65535	64633
873.1943	1283.3953	65535	64635.65
873.3386	1285.2885	65535	64637
873.483	1287.181	65535	64636.15
873.6274	1289.0727	65535	64637
873.7717	1290.9637	65535	64635.15
873.9161	1292.854	65535	64636.3
874.0604	1294.7435	65535	64635.55
874.2047	1296.6323	65535	64635.65
874.349	1298.5204	65535	64632.05
874.4933	1300.4077	65535	64634.2
874.6376	1302.2943	65535	64636.25
874.7819	1304.1802	65535	64637.4
874.9262	1306.0653	65535	64634.75
875.0705	1307.9497	65535	64636.5
875.2147	1309.8333	65535	64635.1
875.359	1311.7162	65535	64636.45
875.5032	1313.5984	65535	64631.6
875.6475	1315.4798	65535	64618.15
875.7917	1317.3605	65535	64619.25
875.9359	1319.2405	65535	64635.8
876.0801	1321.1197	65535	64635.3
876.2243	1322.9982	65535	64628.65
876.3685	1324.876	65535	64636.1
876.5127	1326.753	65535	64635.1
876.6569	1328.6293	65535	64634.9
876.801	1330.5048	65535	64632.4
876.9452	1332.3796	65535	64635.35
877.0893	1334.2537	65535	64607.4
877.2335	1336.127	65535	64635.05
877.3776	1337.9996	65535	64634.65
877.5217	1339.8714	65535	64637.45
877.6658	1341.7426	65535	64593.65
877.8099	1343.6129	65535	64636.35
877.954	1345.4826	65535	64634.45
878.0981	1347.3515	65535	64631.1
878.2422	1349.2196	65535	64633.85
878.3862	1351.087	65535	64634.3
878.5303	1352.9537	65535	64632.5
878.6743	1354.8197	65535	64634.85
878.8184	1356.6849	65535	64635
878.9624	1358.5493	65535	64635.7
879.1064	1360.4131	65535	64634.6
879.2504	1362.276	65535	64637.6
879.3944	1364.1383	65535	64634.75
879.5384	1365.9998	65535	64631.2
879.6823	1367.8606	65535	64635.4
879.8263	1369.7206	65535	64634.3
879.9702	1371.5799	65535	64633.2
880.1142	1373.4384	65535	64635
880.2581	1375.2962	65535	64635.95
880.402	1377.1533	65535	64635.3
880.5459	1379.0096	65535	64635.8
880.6898	1380.8652	65535	64636.45
880.8337	1382.7201	65535	64637.35
880.9776	1384.5742	65535	64634.3
881.1215	1386.4275	65535	64634.35
881.2653	1388.2802	65535	64634.55
881.4092	1390.132	65535	64635.5
881.553	1391.9832	65535	64632.9
881.6968	1393.8336	65535	64636
881.8406	1395.6832	65535	64633.55
881.9844	1397.5322	65535	64634.3
882.1282	1399.3803	65535	64631.3
882.272	1401.2278	65535	64634.45
882.4158	1403.0745	65535	64634.9
882.5595	1404.9204	65535	64638.25
882.7033	1406.7656	65535	64634.25
882.847	1408.6101	65535	64635.85
882.9908	1410.4538	65535	64635.9
883.1345	1412.2968	65535	64635.25
883.2782	1414.139	65535	64636.6
883.4219	1415.9805	65535	64636.5
883.5656	1417.8213	65535	64631.4
883.7092	1419.6613	65535	64634.65
883.8529	1421.5006	65535	64634.8
883.9965	1423.3391	65535	64635.8
884.1402	1425.1769	65535	64632.8
884.2838	1427.0139	65535	64633.75
884.4274	1428.8502	65535	64635.7
884.571	1430.6858	65535	64636.1
884.7146	1432.5206	65535	64637.05
884.8582	1434.3547	65535	64637.05
885.0018	1436.188	65535	64637.55
885.1453	1438.0206	65535	64636.6
885.2889	1439.8524	65535	64636.2
885.4324	1441.6835	65535	64633.95
885.5759	1443.5139	65535	64632.9
885.7194	1445.3435	65535	64635.55
885.8629	1447.1724	65535	64637.5
886.0064	1449.0005	65535	64636.1
886.1499	1450.8279	65535	64633.55
886.2933	1452.6545	65535	64634.95
886.4368	1454.4804	65535	64637.2
886.5802	1456.3056	65535	64628.7
886.7237	1458.13	65535	64637.55
886.8671	1459.9536	65535	64636.1
887.0105	1461.7766	65535	64634.65
887.1539	1463.5987	65535	64635.15
887.2972	1465.4202	65535	64632.95
887.4406	1467.2409	65535	64633.6
887.584	1469.0608	65535	64635.5
887.7273	1470.88	65535	64635.85
887.8706	1472.6984	65535	64636.35
888.0139	1474.5161	65535	64633.9
888.1572	1476.3331	65535	64637.7
888.3005	1478.1493	65535	64633.5
888.4438	1479.9648	65535	64636.2
888.5871	1481.7795	65535	64636.7
888.7303	1483.5935	65535	64635.8
888.8736	1485.4067	65535	64635.65
889.0168	1487.2192	65535	64635.5
889.16	1489.031	65535	64633.75
889.3032	1490.842	65535	64635.9
889.4464	1492.6522	65535	64637.1
889.5896	1494.4618	65535	64634.3
889.7327	1496.2705	65535	64635.1
889.8759	1498.0785	65535	64637.35
890.019	1499.8858	65535	64635.7
890.1622	1501.6924	65535	64637.55
890.3053	1503.4981	65535	64635.35
890.4484	1505.3032	65535	64636.95
890.5914	1507.1075	65535	64633.4
890.7345	1508.911	65535	64636.5
890.8776	1510.7138	65535	64635.3
891.0206	1512.5159	65535	64635.9
891.1637	1514.3172	65535	64636.1
891.3067	1516.1178	65535	64636.1
891.4497	1517.9176	65535	64634
891.5927	1519.7166	65535	64638.45
891.7357	1521.515	65535	64632.65
891.8786	1523.3126	65535	64635.05
892.0216	1525.1094	65535	64632.85
892.1645	1526.9055	65535	64637
892.3074	1528.7008	65535	64637.1
892.4503	1530.4954	65535	64631.4
892.5932	1532.2893	65535	64638.4
892.7361	1534.0824	65535	64634.3
892.879	1535.8747	65535	64638.15
893.0218	1537.6663	65535	64637.45
893.1647	1539.4572	65525.6	64628.6
893.3075	1541.2473	65535	64635.9
893.4503	1543.0367	65535	64637.35
893.5931	1544.8253	65530.05	64628.35
893.7359	1546.6132	65533.8	64633.1
893.8787	1548.4003	65527.9	64620.35
894.0214	1550.1867	65524.4	64615.85
894.1642	1551.9723	65517.65	64615.25
894.3069	1553.7572	65518.9	64619.65
894.4496	1555.5414	65530	64631.8
894.5923	1557.3247	65347.9	64450.5
894.735	1559.1074	65525.05	64628.95
894.8777	1560.8893	65492	64594.4
895.0204	1562.6705	65508.6	64612.75
895.163	1564.4509	65374.8	64479.1
895.3056	1566.2305	65464.3	64568.45
895.4482	1568.0094	65511.75	64615.75
895.5908	1569.7876	65471.35	64576.05
895.7334	1571.565	65357.35	64459.1
895.876	1573.3417	65427	64532.05
896.0186	1575.1176	65413.9	64516.3
896.1611	1576.8928	65355.9	64457.55
896.3036	1578.6672	65132.15	64235.2
896.4461	1580.4409	65282.95	64388
896.5886	1582.2138	64847.45	63948.6
896.7311	1583.986	65018.9	64123.25
896.8736	1585.7575	64528.15	63632.4
897.0161	1587.5282	64714.2	63819.65
897.1585	1589.2981	64703.25	63809.2
897.3009	1591.0673	64130.7	63234.7
897.4433	1592.8358	63671.5	62776.55
897.5857	1594.6035	64110.7	63210.9
897.7281	1596.3704	64149.75	63252.95
897.8705	1598.1366	63243.35	62347.15
898.0128	1599.9021	62805.4	61911.85
898.1551	1601.6668	63576.5	62678.85
898.2975	1603.4308	63123.15	62225.35
898.4398	1605.194	63257.95	62356.45
898.5821	1606.9564	62182.4	61287.95
898.7243	1608.7182	62675.75	61778.3
898.8666	1610.4791	62134.75	61240.65
899.0088	1612.2394	62706.25	61810.65
899.1511	1613.9988	62027.75	61132.2
899.2933	1615.7576	62767.9	61871.65
899.4355	1617.5156	62746.5	61846.05
899.5776	1619.2728	63541.15	62645.35
899.7198	1621.0293	62308.7	61414.75
899.862	1622.785	62317.4	61419.75
900.0041	1624.54	62740.25	61842.8
900.1462	1626.2942	62041.9	61145.85
900.2883	1628.0477	61020.55	60121.1
900.4304	1629.8005	60440.6	59541.8
900.5725	1631.5525	61088.8	60193.2
900.7145	1633.3037	59940.65	59047.55
900.8566	1635.0542	59813.1	58918.55
900.9986	1636.804	60112.35	59216.75
901.1406	1638.553	59180.15	58176.65
901.2826	1640.3013	59440.55	58545.4
901.4245	1642.0488	58739.7	57842.6
901.5665	1643.7955	59194.15	58301.4
901.7085	1645.5416	58747.25	57850.5
901.8504	1647.2868	58369.5	57477.35
901.9923	1649.0313	58947.8	58053.2
902.1342	1650.7751	58562.3	57663.85
902.2761	1652.5181	58220.65	57325.95
902.4179	1654.2604	58260.05	57363.45
902.5598	1656.0019	58799.9	57907.55
902.7016	1657.7427	58556.95	57661.65
902.8434	1659.4828	59096.65	58201.3
902.9852	1661.222	58779.8	57884.4
903.127	1662.9606	59076.85	58183.9
903.2687	1664.6984	58473.1	57580.1
903.4105	1666.4354	58398.8	57503.15
903.5522	1668.1717	57445.55	56549.7
903.6939	1669.9072	56706.25	55813
903.8356	1671.642	56404.85	55507.65
903.9773	1673.3761	56061	55168.95
904.119	1675.1094	55698.9	54804.6
904.2606	1676.8419	55106.85	54212.1
904.4022	1678.5737	54978.05	54084.15
904.5439	1680.3048	54638.1	53743.9
904.6855	1682.0351	54344.4	53449.4
904.827	1683.7646	54042.45	53144.3
904.9686	1685.4934	54043.3	53149.15
905.1101	1687.2215	53320.9	52425.4
905.2517	1688.9488	53546	52651.75
905.3932	1690.6754	52590.1	51696.3
905.5347	1692.4012	52863.2	51969.9
905.6761	1694.1263	52720.05	51825.05
905.8176	1695.8506	52432.35	51536.7
905.9591	1697.5742	52218.9	51324.8
906.1005	1699.297	51977.95	51085.2
906.2419	1701.0191	51838.3	50945.2
906.3833	1702.7404	51510.4	50616.3
906.5246	1704.461	51209.75	50313.6
906.666	1706.1808	51106.6	50209.85
906.8073	1707.8999	50902	50006.65
906.9487	1709.6182	50756.15	49860
907.09	1711.3358	50619.95	49725.55
907.2313	1713.0527	50404.05	49512.95
907.3725	1714.7688	50278.55	49377.75
907.5138	1716.4841	49835.8	48940.3
907.655	1718.1987	49903.35	49004.55
907.7962	1719.9126	49663	48771.15
907.9374	1721.6257	49447.55	48553.6
908.0786	1723.338	49428.65	48535.55
908.2198	1725.0496	48928.8	48036.9
908.3609	1726.7605	48856.45	47961.9
908.502	1728.4706	48695.15	47800.05
908.6431	1730.18	48483.55	47588.05
908.7842	1731.8886	48361.05	47467.95
908.9253	1733.5964	48186.75	47274.1
909.0664	1735.3036	48076.7	47181.55
909.2074	1737.0099	47920.05	47028.05
909.3484	1738.7156	47745.7	46855.4
909.4894	1740.4204	47489.8	46594.9
909.6304	1742.1246	47469.9	46575
909.7714	1743.8279	47345.45	46450.5
909.9123	1745.5306	47231.95	46336.1
910.0532	1747.2325	46906.7	46014.4
910.1941	1748.9336	46804.95	45912.15
910.335	1750.634	46634.3	45739.95
910.4759	1752.3336	46512	45620.25
910.6168	1754.0325	46368	45479.3
910.7576	1755.7307	46303.8	45411.2
910.8984	1757.4281	46209	45316.6
911.0392	1759.1247	46108.05	45207.05
911.18	1760.8206	45928.6	45028.35
911.3208	1762.5158	45873.6	44975.4
911.4615	1764.2102	45620.15	44726.8
911.6022	1765.9039	45485.9	44594.35
911.7429	1767.5968	45378.9	44487.5
911.8836	1769.289	45175	44282.85
912.0243	1770.9804	45041.5	44147.3
912.1649	1772.6711	45035.75	44141.95
912.3056	1774.361	44846.05	43951.05
912.4462	1776.0502	44759.75	43866.2
912.5868	1777.7386	44659.8	43764.35
912.7274	1779.4263	44448.15	43553.8
912.8679	1781.1132	44436	43544.15
913.0084	1782.7994	44299.05	43406.1
913.149	1784.4849	44178.65	43286.95
913.2895	1786.1696	43956.95	43057.7
913.4299	1787.8535	43854.75	42962.2
913.5704	1789.5367	43734.6	42844
913.7108	1791.2192	43628.75	42737.15
913.8513	1792.9009	43429.9	42506.35
913.9917	1794.5818	43320.7	42427.1
914.132	1796.2621	43195.6	42301.4
914.2724	1797.9415	43036.1	42142.3
914.4128	1799.6202	42884.15	41992.35
914.5531	1801.2982	42821.15	41928.65
914.6934	1802.9755	42719.3	41826.8
914.8337	1804.6519	42590.8	41696.05
914.9739	1806.3277	42370.7	41479.5
915.1142	1808.0027	42172.6	41281.65
915.2544	1809.6769	42197.6	41305.45
915.3946	1811.3504	42035.05	41141
915.5348	1813.0231	41900.1	41007.45
915.675	1814.6951	41835.2	40943.35
915.8151	1816.3664	41823.15	40928.2
915.9553	1818.0369	41670.05	40776.25
916.0954	1819.7067	41502.95	40610.65
916.2355	1821.3757	41398.15	40502.55
916.3755	1823.044	41275.1	40383.85
916.5156	1824.7115	41167.35	40274.35
916.6556	1826.3783	40962.6	40071.2
916.7956	1828.0443	40838.35	39947.5
916.9356	1829.7096	40740.85	39846.8
917.0756	1831.3741	40689	39792.4
917.2155	1833.0379	40575.6	39680.8
917.3555	1834.701	40425.75	39530.5
917.4954	1836.3633	40309.75	39415.95
917.6353	1838.0248	40217.65	39322.75
917.7751	1839.6856	40091.85	39199.05
917.915	1841.3457	40013.1	39119.45
918.0548	1843.005	39913.9	39022.9
918.1946	1844.6636	39873.4	38983
918.3344	1846.3214	39687.35	38795.5
918.4742	1847.9785	39655.7	38763.15
918.6139	1849.6349	39473.3	38578.3
918.7537	1851.2904	39417.3	38516.15
918.8934	1852.9453	39295.45	38400.5
919.0331	1854.5994	39145.05	38251.6
919.1727	1856.2528	39194.9	38298.95
919.3124	1857.9054	39019.45	38128.6
919.452	1859.5572	38941.9	38050.55
919.5916	1861.2083	38831.55	37938.05
919.7312	1862.8587	38790.1	37896.05
919.8708	1864.5084	38692.85	37799.3
920.0103	1866.1572	38500.2	37607.9
920.1498	1867.8054	38357.5	37465.85
920.2893	1869.4528	38261.4	37370.05
920.4288	1871.0994	38133.7	37240.7
920.5683	1872.7453	38098.8	37206
920.7077	1874.3905	37972.4	37073.85
920.8471	1876.0349	37801.15	36907.15
920.9865	1877.6786	37796.05	36902.85
921.1259	1879.3215	37720.55	36827.35
921.2653	1880.9637	37574.3	36681.3
921.4046	1882.6051	37538.3	36647.5
921.5439	1884.2458	37358.45	36464.1
921.6832	1885.8858	37213.25	36320.95
921.8225	1887.525	37195.35	36302.05
921.9617	1889.1634	37004.7	36113.2
922.101	1890.8011	36821.3	35927.7
922.2402	1892.4381	36739.15	35847.45
922.3794	1894.0743	36722.95	35832.7
922.5185	1895.7098	36571.15	35677.5
922.6577	1897.3446	36452.25	35559.3
922.7968	1898.9786	36359.4	35463
922.9359	1900.6118	36316.55	35424.7
923.075	1902.2443	36103.4	35207.9
923.214	1903.8761	35990.7	35098.95
923.3531	1905.5071	35766.3	34873.4
923.4921	1907.1374	35701.15	34807.95
923.6311	1908.7669	35663	34769.85
923.77	1910.3957	35533.35	34641.85
923.909	1912.0237	35300.55	34408.25
924.0479	1913.651	35285.2	34392.2
924.1868	1915.2776	35169	34279.2
924.3257	1916.9034	34988.75	34097.95
924.4646	1918.5285	34798.95	33906
924.6034	1920.1528	34580.75	33688.05
924.7422	1921.7764	34572.65	33678.95
924.881	1923.3992	34440.25	33548.25
925.0198	1925.0213	34186.5	33294.5
925.1586	1926.6427	34039.3	33149.35
925.2973	1928.2633	34090.6	33089.6
925.436	1929.8832	33912.85	33017.95
925.5747	1931.5023	33688.65	32796.1
925.7134	1933.1207	33626.35	32733.75
925.852	1934.7383	33507.25	32615.4
925.9906	1936.3552	33382.05	32490.95
926.1292	1937.9714	33279.75	32386.9
926.2678	1939.5868	33154.4	32260.35
926.4064	1941.2015	32986.15	32094.2
926.5449	1942.8154	32873	31981.8
926.6834	1944.4286	32705.75	31813.9
926.8219	1946.041	32530.45	31617.05
926.9604	1947.6528	32370.95	31471.35
927.0988	1949.2637	32345.45	31454.05
927.2372	1950.8739	32202.5	31309.8
927.3756	1952.4834	32137.25	31243.6
927.514	1954.0921	32029.4	31135.95
927.6523	1955.7001	31888.95	30992.5
927.7907	1957.3074	31741.3	30850.45
927.929	1958.9139	31622.3	30731.35
928.0673	1960.5197	31547.2	30651.9
928.2055	1962.1247	31361.2	30467.9
928.3438	1963.729	31236.75	30345.7
928.482	1965.3325	31128.9	30212.6
928.6202	1966.9353	31015.55	30124.8
928.7584	1968.5374	30873.15	29980.75
928.8965	1970.1387	30790.45	29901.1
929.0346	1971.7393	30681.35	29788
929.1727	1973.3392	30597.35	29705.85
929.3108	1974.9383	30461.35	29568.6
929.4489	1976.5366	30303.7	29411.85
929.5869	1978.1342	30301.8	29409.1
929.7249	1979.7311	30194.15	29301
929.8629	1981.3273	30124.55	29233
930.0009	1982.9227	29964.2	29071.05
930.1388	1984.5173	29839	28948.1
930.2767	1986.1112	29705.35	28812.8
930.4146	1987.7044	29630.05	28739.15
930.5525	1989.2968	29521.65	28628.45
930.6904	1990.8885	29431.5	28536.15
930.8282	1992.4795	29400	28506.9
930.966	1994.0697	29211.7	28320.45
931.1038	1995.6592	29126	28234.8
931.2415	1997.2479	29045.6	28152.95
931.3793	1998.8359	28970.15	28078.95
931.517	2000.4232	28765.4	27876.6
931.6547	2002.0097	28709.5	27818.85
931.7923	2003.5955	28492.95	27600.3
931.93	2005.1805	28497	27605.95
932.0676	2006.7648	28409.5	27517.7
932.2052	2008.3484	28308.9	27417.15
932.3427	2009.9312	28298.4	27406
932.4803	2011.5133	28193.5	27304.45
932.6178	2013.0946	28061.9	27169.25
932.7553	2014.6752	27952.95	27063.05
932.8928	2016.2551	27892.7	26999.95
933.0302	2017.8342	27762.5	26871.95
933.1676	2019.4126	27651.1	26760.5
933.305	2020.9902	27559.3	26668.7
933.4424	2022.5672	27489.75	26597.8
933.5798	2024.1433	27410	26514.5
933.7171	2025.7188	27293.85	26403.5
933.8544	2027.2935	27210.8	26319.45
933.9917	2028.8674	27131.6	26242.2
934.129	2030.4406	27073.65	26184.05
934.2662	2032.0131	26911.2	26021.15
934.4034	2033.5849	26784.3	25888
934.5406	2035.1559	26757.05	25863.8
934.6778	2036.7261	26689.95	25798.65
934.8149	2038.2957	26612.5	25720.95
934.952	2039.8645	26543	25653
935.0891	2041.4325	26473.3	25578.35
935.2262	2042.9998	26389.9	25498.35
935.3632	2044.5664	26306.85	25413.75
935.5002	2046.1323	26172.85	25280.8
935.6372	2047.6974	26128.9	25239.55
935.7742	2049.2617	26084.25	25193
935.9111	2050.8254	25992.5	25080.6
936.048	2052.3883	25957.25	25065.5
936.1849	2053.9504	25846.55	24954
936.3218	2055.5118	25752.95	24860.6
936.4586	2057.0725	25631.05	24734.95
936.5955	2058.6325	25563.85	24672.8
936.7323	2060.1917	25476.95	24588.1
936.869	2061.7502	25417.9	24524.6
937.0058	2063.3079	25257.9	24367.7
937.1425	2064.8649	25199.3	24304.75
937.2792	2066.4212	25170.2	24278.55
937.4159	2067.9767	25129.6	24239.6
937.5525	2069.5315	24975.95	24084.25
937.6891	2071.0856	24835.35	23941.95
937.8257	2072.6389	24719.55	23828.2
937.9623	2074.1915	24658.85	23770.45
938.0989	2075.7433	24474.65	23580.25
938.2354	2077.2945	24422.15	23530.75
938.3719	2078.8448	24368.4	23475.9
938.5084	2080.3945	24257	23363.85
938.6448	2081.9434	24216.05	23324.3
938.7812	2083.4916	24114.55	23223.1
938.9176	2085.039	24032.85	23138.55
939.054	2086.5857	23970.9	23077.2
939.1903	2088.1317	23943.2	23049.05
939.3267	2089.677	23871.85	22980.15
939.463	2091.2215	23749.05	22856.4
939.5992	2092.7652	23690.6	22796.65
939.7355	2094.3083	23623.2	22731.4
939.8717	2095.8506	23611.9	22721.2
940.0079	2097.3921	23548.65	22657.55
940.1441	2098.933	23432.15	22540.3
940.2802	2100.4731	23400.6	22509.85
940.4163	2102.0124	23368.65	22468.15
940.5524	2103.5511	23302.75	22411.25
940.6885	2105.089	23228.5	22338.55
940.8245	2106.6261	23153.1	22262.5
940.9606	2108.1626	23091.7	22198.3
941.0965	2109.6983	23009.65	22091.4
941.2325	2111.2332	22924.65	22031.75
941.3684	2112.7675	22842.05	21950.65
941.5044	2114.301	22755.2	21861.75
941.6403	2115.8337	22761.85	21869.55
941.7761	2117.3657	22687.2	21796.65
941.912	2118.897	22618.1	21725.25
942.0478	2120.4276	22507.95	21610.45
942.1835	2121.9575	22415.25	21524
942.3193	2123.4866	22369.25	21463.75
942.455	2125.0149	22303.85	21407.05
942.5907	2126.5426	22179.55	21289
942.7264	2128.0695	22141.85	21246.9
942.8621	2129.5956	22067.55	21176.7
942.9977	2131.1211	22031.2	21134.4
943.1333	2132.6458	21947.65	21056.2
943.2689	2134.1698	21909.2	21016.4
943.4044	2135.693	21841.4	20947.3
943.54	2137.2155	21798.2	20903.25
943.6755	2138.7373	21715.05	20822.55
943.8109	2140.2584	21633.05	20742.35
943.9464	2141.7787	21566.65	20669.75
944.0818	2143.2983	21467.75	20576.65
944.2172	2144.8171	21364.5	20472.7
944.3526	2146.3353	21305.8	20411.65
944.4879	2147.8527	21217	20325.65
944.6232	2149.3693	21203.1	20311.9
944.7585	2150.8853	21089.9	20198.3
944.8938	2152.4005	20991.45	20099.2
945.029	2153.9149	20974.1	20081.8
945.1642	2155.4287	20906.3	20015.35
945.2994	2156.9417	20862.75	19968.8
945.4346	2158.454	20741.9	19847.5
945.5697	2159.9655	20706.3	19814.65
945.7048	2161.4764	20662.1	19770.6
945.8399	2162.9865	20589.65	19697.3
945.9749	2164.4958	20546.3	19653.55
946.1099	2166.0045	20449.65	19554.8
946.2449	2167.5124	20438.2	19545.4
946.3799	2169.0195	20324.85	19432.65
946.5148	2170.526	20319.05	19425.35
946.6498	2172.0317	20234.85	19341.35
946.7846	2173.5367	20186.65	19292.5
946.9195	2175.0409	20103.75	19213.65
947.0543	2176.5445	20094.55	19203.55
947.1891	2178.0473	19975.6	19082.9
947.3239	2179.5494	19917.95	19023.55
947.4587	2181.0507	19854.65	18960.55
947.5934	2182.5513	19762.55	18871.6
947.7281	2184.0512	19728	18835.75
947.8628	2185.5504	19608.35	18715.55
947.9974	2187.0488	19510.8	18618.05
948.132	2188.5465	19503.65	18610.1
948.2666	2190.0435	19414.35	18521.3
948.4012	2191.5397	19329.9	18438.15
948.5357	2193.0353	19261.05	18370.3
948.6702	2194.5301	19165	18270.8
948.8047	2196.0241	19118.55	18225.5
948.9392	2197.5175	19064.35	18172.1
949.0736	2199.0101	18953.55	18057.85
949.208	2200.502	18867.75	17977
949.3424	2201.9931	18795.75	17904.35
949.4767	2203.4835	18689.55	17797.15
949.611	2204.9733	18673.4	17774.45
949.7453	2206.4622	18627.45	17734
949.8796	2207.9505	18533.3	17637.5
950.0138	2209.438	18434.65	17543.9
950.148	2210.9248	18377.5	17485
950.2822	2212.4109	18342.85	17452.45
950.4164	2213.8962	18286.85	17393.35
950.5505	2215.3809	18188.35	17295.25
950.6846	2216.8648	18148.65	17254.45
950.8186	2218.3479	18124.85	17228
950.9527	2219.8304	18074.65	17178.4
951.0867	2221.3121	17974.4	17079.65
951.2207	2222.7931	17889.85	16997.4
951.3546	2224.2733	17815.6	16924.15
951.4886	2225.7529	17744.2	16851.65
951.6225	2227.2317	17709.2	16813.55
951.7563	2228.7098	17661.85	16772
951.8902	2230.1872	17599.15	16708.7
952.024	2231.6638	17538.6	16647.15
952.1578	2233.1397	17470.35	16571.5
952.2916	2234.6149	17401.35	16509.9
952.4253	2236.0894	17351.55	16459.5
952.559	2237.5632	17327.75	16426.8
952.6927	2239.0362	17234.2	16344.1
952.8263	2240.5085	17163.5	16270.6
952.9599	2241.9801	17116.2	16223.15
953.0935	2243.4509	17056.05	16164.05
953.2271	2244.921	16973.75	16081.8
953.3606	2246.3904	16929.35	16037.25
953.4941	2247.8591	16862.6	15971.3
953.6276	2249.3271	16813.85	15922.5
953.7611	2250.7943	16717.85	15825.65
953.8945	2252.2608	16675.6	15782.2
954.0279	2253.7266	16610.85	15718.3
954.1612	2255.1917	16572.1	15678.75
954.2946	2256.656	16515.7	15622.95
954.4279	2258.1197	16475.75	15585.4
954.5612	2259.5826	16394.15	15501.25
954.6944	2261.0447	16337.75	15443.4
954.8276	2262.5062	16269.85	15375.65
954.9608	2263.9669	16286.2	15391.8
955.094	2265.4269	16230.6	15338.15
955.2271	2266.8862	16147.3	15254.6
955.3602	2268.3448	16124.05	15231.65
955.4933	2269.8026	16101.95	15209.75
955.6264	2271.2598	16026.75	15133.65
955.7594	2272.7162	15989.55	15097.5
955.8924	2274.1719	15948.55	15055.6
956.0253	2275.6268	15862.1	14969.65
956.1583	2277.0811	15816.35	14925.7
956.2912	2278.5346	15778.35	14887.9
956.4241	2279.9874	15749.85	14858.55
956.5569	2281.4395	15721.7	14831
956.6897	2282.8908	15624.1	14727.4
956.8225	2284.3414	15582.55	14690.25
956.9553	2285.7914	15510.25	14618.7
957.088	2287.2406	15459.65	14566.4
957.2207	2288.689	15395.75	14503.85
957.3534	2290.1368	15373.15	14480.1
957.486	2291.5838	15337.05	14443.9
957.6186	2293.0302	15284.55	14391.1
957.7512	2294.4758	15196.8	14304.85
957.8838	2295.9206	15123.4	14227.8
958.0163	2297.3648	15110.2	14217.9
958.1488	2298.8082	15096.9	14204.65
958.2813	2300.251	15004.4	14113.75
958.4137	2301.693	14961.9	14067.9
958.5461	2303.1343	14954.85	14061.5
958.6785	2304.5748	14886.5	13996.05
958.8108	2306.0147	14822.5	13928.95
958.9432	2307.4538	14795.15	13900.5
959.0754	2308.8922	14760.6	13868.75
959.2077	2310.3299	14739.9	13845.85
959.3399	2311.7669	14664.2	13770.75
959.4721	2313.2031	14613	13724.1
959.6043	2314.6387	14527.45	13635.1
959.7365	2316.0735	14485.9	13594.2
959.8686	2317.5076	14447.05	13554.85
960.0006	2318.941	14410.85	13516.75
960.1327	2320.3737	14370.2	13479.95
960.2647	2321.8056	14309.7	13415.5
960.3967	2323.2369	14270.85	13377.05
960.5287	2324.6674	14210.9	13315.25
960.6606	2326.0972	14165.35	13272.95
960.7925	2327.5263	14125.65	13232.6
960.9244	2328.9547	14072.85	13180.45
961.0562	2330.3823	14048.9	13154.3
961.1881	2331.8092	14034.7	13141.05
961.3198	2333.2355	13916	13023.9
961.4516	2334.661	13897	13003.5
961.5833	2336.0858	13864.2	12969.8
961.715	2337.5098	13825.7	12931.5
961.8467	2338.9332	13795.45	12903.75
961.9783	2340.3558	13736.1	12840.75
962.1099	2341.7778	13703.5	12811.7
962.2415	2343.199	13640.55	12747.2
962.373	2344.6195	13600.7	12708.05
962.5045	2346.0393	13546.65	12654.7
962.636	2347.4583	13524.05	12632.15
962.7675	2348.8767	13471.15	12577
962.8989	2350.2943	13448.85	12556.95
963.0303	2351.7113	13417.05	12523.55
963.1617	2353.1275	13351.8	12459.9
963.293	2354.543	13317.3	12401.45
963.4243	2355.9578	13266.5	12373.75
963.5556	2357.3718	13159.2	12267.65
963.6868	2358.7852	13123.35	12228
963.818	2360.1978	13084.25	12190.05
963.9492	2361.6098	13046.75	12156.05
964.0803	2363.021	12998.9	12103.6
964.2114	2364.4315	12950.95	12057.8
964.3425	2365.8413	12919.3	12022.75
964.4736	2367.2504	12830.1	11940.65
964.6046	2368.6587	12783.75	11891.9
964.7356	2370.0664	12755.6	11863.65
964.8666	2371.4733	12705.05	11813.45
964.9975	2372.8795	12639.45	11747.4
965.1284	2374.285	12595.75	11702.6
965.2593	2375.6899	12527.6	11636.95
965.3901	2377.0939	12472.05	11581.1
965.5209	2378.4973	12417.2	11525.25
965.6517	2379.9	12372.8	11479.6
965.7825	2381.3019	12336.65	11445.4
965.9132	2382.7032	12306.5	11416
966.0439	2384.1037	12269.65	11379.9
966.1745	2385.5035	12242.45	11352.55
966.3051	2386.9027	12172.05	11281.05
966.4357	2388.3011	12152.05	11255.65
966.5663	2389.6987	12089.35	11198.8
966.6968	2391.0957	12070.6	11178.05
966.8273	2392.492	12019.2	11130.65
966.9578	2393.8876	11917.2	11027.65
967.0882	2395.2824	11889.5	10998.5
967.2186	2396.6765	11802.75	10911.65
967.349	2398.07	11766.65	10875.15
967.4793	2399.4627	11754.55	10861.55
967.6097	2400.8547	11706.5	10815.65
967.7399	2402.246	11698.6	10801
967.8702	2403.6366	11594.55	10703.5
968.0004	2405.0265	11559.15	10667.5
968.1306	2406.4156	11497.6	10603
968.2607	2407.8041	11453.25	10560.35
968.3909	2409.1918	11419.45	10527.35
968.521	2410.5789	11380.55	10489.6
968.651	2411.9652	11340.45	10446.55
968.781	2413.3508	11289.9	10398.3
968.911	2414.7358	11229.3	10336.5
969.041	2416.12	11182.45	10291.05
969.1709	2417.5035	11168.9	10278.5
969.3008	2418.8863	11124.3	10232.85
969.4307	2420.2684	11100.4	10208.7
969.5606	2421.6497	11042.8	10151.1
969.6904	2423.0304	10986.05	10093.8
969.8201	2424.4104	10950.6	10057.4
969.9499	2425.7896	10916.75	10018.7
970.0796	2427.1682	10869.85	9978.8
970.2093	2428.546	10898.4	10005.9
970.3389	2429.9232	10848.4	9954.4
970.4685	2431.2996	10775.9	9885.5
970.5981	2432.6753	10769.8	9879
970.7277	2434.0503	10751.1	9858
970.8572	2435.4246	10683.5	9794.1
970.9867	2436.7982	10635.05	9742.8
971.1161	2438.1711	10612.05	9722.35
971.2456	2439.5433	10593.95	9703.15
971.375	2440.9148	10529.75	9636.1
971.5043	2442.2856	10479.2	9588.1
971.6336	2443.6557	10455.8	9562.85
971.7629	2445.025	10400.9	9509.75
971.8922	2446.3937	10380.15	9489.3
972.0214	2447.7617	10357.15	9463.5
972.1506	2449.1289	10321.9	9430.4
972.2798	2450.4955	10305.3	9410.4
972.4089	2451.8613	10257.65	9365.6
972.538	2453.2265	10215	9323
972.6671	2454.5909	10193.55	9301.1
972.7961	2455.9546	10162.15	9271.15
972.9251	2457.3177	10128.1	9237.1
973.0541	2458.68	10116.4	9224.35
973.1831	2460.0416	10080.05	9189.65
973.312	2461.4025	10098.75	9205.95
973.4408	2462.7627	10061	9156.7
973.5697	2464.1222	9996.9	9107.1
973.6985	2465.4811	9965.25	9071.95
973.8273	2466.8392	9916.15	9024.8
973.956	2468.1966	9890.8	8995.95
974.0847	2469.5533	9891.8	8998.7
974.2134	2470.9093	9873.8	8981.8
974.3421	2472.2645	9826.35	8933.35
974.4707	2473.6191	9767.85	8876.65
974.5993	2474.973	9741.85	8851.05
974.7278	2476.3262	9716.1	8823.7
974.8563	2477.6787	9699.4	8807.5
974.9848	2479.0305	9616.9	8725.65
975.1132	2480.3816	9594.95	8699.75
975.2417	2481.7319	9565.85	8672.95
975.37	2483.0816	9537.4	8645.6
975.4984	2484.4306	9503.5	8610.95
975.6267	2485.7789	9446.2	8554.15
975.755	2487.1264	9416.6	8523.1
975.8833	2488.4733	9377.05	8486.45
976.0115	2489.8195	9355.45	8458.3
976.1397	2491.165	9312.85	8416.05
976.2678	2492.5097	9262.5	8368.65
976.3959	2493.8538	9232.9	8340.5
976.524	2495.1972	9196.7	8304.8
976.6521	2496.5398	9140.25	8246.95
976.7801	2497.8818	9139.35	8246.05
976.9081	2499.2231	9090.6	8197.05
977.036	2500.5637	9058.9	8166
977.164	2501.9035	9034.15	8140.25
977.2918	2503.2427	8995.95	8100.25
977.4197	2504.5812	8961.55	8069.4
977.5475	2505.919	8952.5	8058.5
977.6753	2507.256	8927.55	8036.55
977.8031	2508.5924	8889.7	7999.7
977.9308	2509.9281	8853.1	7956.35
978.0585	2511.2631	8800.65	7907.6
978.1861	2512.5974	8788.3	7894.85
978.3137	2513.9309	8758.95	7867.35
978.4413	2515.2638	8769.6	7841.55
978.5689	2516.596	8718.65	7827.1
978.6964	2517.9275	8663.9	7771.1
978.8239	2519.2583	8647.85	7756.3
978.9513	2520.5884	8593.9	7700.3
979.0788	2521.9178	8548.05	7656.85
979.2062	2523.2465	8530.5	7641.2
979.3335	2524.5745	8511.35	7620
979.4608	2525.9018	8458.85	7567
979.5881	2527.2284	8437.95	7547.3
979.7154	2528.5543	8439.95	7549.35
979.8426	2529.8796	8395.6	7503.3
979.9698	2531.2041	8366.15	7475.05
980.0969	2532.5279	8356.5	7464.6
980.224	2533.851	8330.8	7438.65
980.3511	2535.1735	8297.55	7406.05
980.4781	2536.4952	8269.15	7377.15
980.6052	2537.8163	8265.7	7372.95
980.7321	2539.1366	8244.05	7353.1
980.8591	2540.4562	8212.9	7321.5
980.986	2541.7752	8180.8	7288.8
981.1129	2543.0935	8177.8	7286.2
981.2397	2544.411	8153.9	7261.4
981.3665	2545.7279	8141.05	7248.75
981.4933	2547.0441	8135.05	7243.3
981.62	2548.3596	8131.95	7238.15
981.7467	2549.6744	8102.15	7207.7
981.8734	2550.9885	8057.8	7165.05
982.0001	2552.3019	8011.35	7118.95
982.1267	2553.6146	8016.85	7125.7
982.2532	2554.9266	7989.9	7097.55
982.3798	2556.2379	7962.25	7068.9
982.5063	2557.5485	7942.45	7050.6
982.6327	2558.8585	7928.5	7029.25
982.7592	2560.1677	7910.65	7014.1
982.8856	2561.4762	7882.85	6992.8
983.0119	2562.7841	7879.1	6983.15
983.1383	2564.0913	7835.75	6946.5
983.2646	2565.3977	7833.65	6942.4
983.3908	2566.7035	7805.2	6914.65
983.517	2568.0086	7777.05	6884.05
983.6432	2569.313	7771.05	6879.65
983.7694	2570.6167	7740.9	6844.5
983.8955	2571.9197	7721.85	6830.8
984.0216	2573.222	7713.8	6818.65
984.1476	2574.5236	7696.8	6803.6
984.2737	2575.8246	7674.2	6776.95
984.3996	2577.1248	7644.8	6750.45
984.5256	2578.4244	7647.5	6756.3
984.6515	2579.7232	7632.3	6742.8
984.7774	2581.0214	7634.1	6716.95
984.9032	2582.3189	7578.6	6687.85
985.029	2583.6157	7583.75	6688.7
985.1548	2584.9118	7558.85	6665.8
985.2806	2586.2072	7538.1	6647
985.4063	2587.5019	7517.8	6625.8
985.5319	2588.7959	7500.35	6606.35
985.6576	2590.0893	7482.4	6588.05
985.7832	2591.3819	7471.65	6580.05
985.9087	2592.6739	7445.25	6554.55
986.0343	2593.9652	7438.3	6545.2
986.1597	2595.2557	7431.3	6540.65
986.2852	2596.5456	7356.3	6463.85
986.4106	2597.8348	7324.25	6432.35
986.536	2599.1234	7306.7	6414.85
986.6614	2600.4112	7289.15	6397.85
986.7867	2601.6983	7256.4	6360.65
986.912	2602.9848	7243.15	6351.1
987.0372	2604.2705	7218	6319.8
987.1624	2605.5556	7193.9	6301.9
987.2876	2606.84	7176.9	6285.55
987.4128	2608.1237	7134.8	6241.25
987.5379	2609.4067	7107.85	6215.85
987.6629	2610.689	7087.4	6185.7
987.788	2611.9707	7050.7	6154.3
987.913	2613.2516	7024.3	6128.9
988.0379	2614.5319	7009.4	6117.35
988.1629	2615.8115	6983.9	6091
988.2878	2617.0903	6939.1	6046.15
988.4126	2618.3685	6928.7	6036.1
988.5375	2619.6461	6905.95	6013.5
988.6622	2620.9229	6880.8	5989.15
988.787	2622.199	6846.55	5954.85
988.9117	2623.4745	6856	5959.9
989.0364	2624.7493	6801.4	5907.65
989.161	2626.0234	6802.15	5911.7
989.2857	2627.2968	6763.75	5871.9
989.4102	2628.5695	6741.8	5849.15
989.5348	2629.8415	6695.05	5801.1
989.6593	2631.1128	6697.4	5803.3
989.7837	2632.3835	6669.6	5778.1
989.9082	2633.6535	6627.1	5735.5
990.0326	2634.9228	6607.15	5715.4
990.1569	2636.1914	6575.9	5685.3
990.2812	2637.4593	6572.85	5675.45
990.4055	2638.7265	6548.55	5655.35
990.5298	2639.9931	6522.1	5629.95
990.654	2641.259	6503.65	5610.35
990.7782	2642.5242	6506.65	5615.4
990.9023	2643.7887	6471.45	5578.7
991.0264	2645.0525	6459.2	5567.95
991.1505	2646.3156	6414.1	5521.35
991.2745	2647.5781	6402.2	5510.4
991.3985	2648.8398	6368	5477.85
991.5225	2650.1009	6344.55	5442.4
991.6464	2651.3613	6359.25	5466.7
991.7703	2652.6211	6333.85	5442.05
991.8942	2653.8801	6312.7	5421.4
992.018	2655.1385	6287.75	5394.9
992.1418	2656.3961	6280.85	5388.05
992.2655	2657.6531	6268	5378.75
992.3892	2658.9094	6256.55	5365.1
992.5129	2660.1651	6240.75	5347.95
992.6366	2661.42	6211.35	5320.8
992.7602	2662.6743	6216.45	5321.8
992.8837	2663.9279	6195.65	5304.9
993.0073	2665.1808	6175.7	5282
993.1307	2666.433	6160.55	5266.75
993.2542	2667.6846	6138.85	5246.75
993.3776	2668.9354	6120.05	5224.15
993.501	2670.1856	6107.6	5216.05
993.6244	2671.4351	6079	5188.3
993.7477	2672.6839	6069.05	5175.8
993.8709	2673.9321	6051.75	5160.85
993.9942	2675.1795	6047.6	5153.4
994.1174	2676.4263	6023.95	5130.3
994.2405	2677.6724	6005.55	5114.35
994.3637	2678.9179	5986.15	5094.9
994.4868	2680.1626	5966.05	5076.45
994.6098	2681.4067	5949.8	5057.6
994.7328	2682.6501	5938.25	5047.25
994.8558	2683.8928	5922.3	5032.2
994.9788	2685.1348	5897.55	5006.8
995.1017	2686.3761	5862.75	4972.55
995.2245	2687.6168	5847.4	4955.5
995.3474	2688.8568	5814.5	4923.1
995.4702	2690.0961	5818.1	4927.1
995.5929	2691.3348	5812.55	4919.7
995.7156	2692.5727	5794.7	4901.9
995.8383	2693.81	5749.35	4857.05
995.961	2695.0466	5733.25	4843.6
996.0836	2696.2826	5729.6	4838.05
996.2062	2697.5178	5698.95	4803.5
996.3287	2698.7524	5672.75	4779.45
996.4512	2699.9863	5690.05	4795.2
996.5737	2701.2195	5650.1	4759.85
996.6961	2702.452	5657	4764.7
996.8185	2703.6839	5634.2	4742.3
996.9408	2704.9151	5638.6	4749.05
997.0631	2706.1456	5592.65	4701.65
997.1854	2707.3755	5590.1	4697.3
997.3077	2708.6046	5560.45	4667.7
997.4299	2709.8331	5582.3	4690.35
997.552	2711.0609	5553.1	4662.05
997.6742	2712.2881	5543.9	4653.55
997.7963	2713.5145	5532.3	4637.3
997.9183	2714.7403	5517.55	4626.5
998.0403	2715.9654	5503.95	4610
998.1623	2717.1899	5512	4606.8
998.2842	2718.4136	5509.25	4618.3
998.4062	2719.6367	5473.7	4583.2
998.528	2720.8591	5487.25	4590.05
998.6498	2722.0809	5461.8	4570.9
998.7716	2723.3019	5464	4568.75
998.8934	2724.5223	5442.7	4549.5
999.0151	2725.7421	5434.55	4539.9
999.1368	2726.9611	5421.55	4527.4
999.2584	2728.1795	5413	4517
999.38	2729.3972	5398.1	4507.35
999.5016	2730.6142	5371.25	4471.4
999.6231	2731.8306	5329.95	4435.55
999.7446	2733.0462	5289.3	4396.05
999.8661	2734.2612	5256.7	4362.1
999.9875	2735.4756	5240.25	4345.85
1000.1089	2736.6892	5200.95	4308.45
1000.2302	2737.9022	5149.6	4259
1000.3515	2739.1145	5129.45	4236
1000.4728	2740.3262	5111.7	4212.85
1000.594	2741.5372	5062.55	4170.85
1000.7152	2742.7475	5045.9	4154.3
1000.8363	2743.9571	5039.15	4145.8
1000.9575	2745.1661	5005.2	4107.4
1001.0785	2746.3744	4986.7	4093.3
1001.1996	2747.582	4961.4	4070.1
1001.3206	2748.7889	4947	4052.1
1001.4415	2749.9952	4926.85	4034.3
1001.5625	2751.2008	4910.25	4017.2
1001.6833	2752.4057	4898.55	4004.15
1001.8042	2753.61	4865.2	3971.25
1001.925	2754.8136	4842.9	3950.3
1002.0458	2756.0165	4838.15	3946.7
1002.1665	2757.2188	4818.25	3929.2
1002.2872	2758.4204	4800.4	3909.25
1002.4078	2759.6213	4784.25	3890
1002.5285	2760.8215	4786.95	3891.1
1002.649	2762.0211	4772.6	3878
1002.7696	2763.22	4755.35	3859.4
1002.8901	2764.4182	4730.9	3836.5
1003.0106	2765.6158	4719.25	3825.65
1003.131	2766.8127	4705.25	3814.65
1003.2514	2768.009	4671	3778.6
1003.3717	2769.2045	4661.95	3770.95
1003.492	2770.3994	4656.4	3762.85
1003.6123	2771.5936	4646.35	3752.15
1003.7325	2772.7872	4631.8	3739.95
1003.8527	2773.9801	4594.4	3701.5
1003.9729	2775.1723	4593.3	3683.4
1004.093	2776.3639	4576.4	3683.95
1004.2131	2777.5548	4574.55	3680.6
1004.3331	2778.745	4536.45	3643.5
1004.4531	2779.9346	4528.5	3636.25
1004.5731	2781.1235	4519.3	3626.8
1004.693	2782.3117	4518.65	3627.75
1004.8129	2783.4992	4497.45	3606
1004.9328	2784.6861	4513.1	3620.05
1005.0526	2785.8723	4506.9	3615.7
1005.1723	2787.0579	4490.4	3597.1
1005.2921	2788.2428	4490.55	3596.95
1005.4118	2789.427	4472.2	3579.25
1005.5314	2790.6106	4465.7	3572.4
1005.651	2791.7935	4460.1	3568.05
1005.7706	2792.9757	4453.3	3563.45
1005.8902	2794.1573	4457.35	3564.1
1006.0097	2795.3382	4434.3	3541.45
1006.1291	2796.5184	4451.75	3561.9
1006.2485	2797.698	4445.05	3551.95
1006.3679	2798.8769	4460.2	3569.85
1006.4873	2800.0551	4469.75	3578.15
1006.6066	2801.2327	4475	3581.4
1006.7258	2802.4096	4471	3579
1006.8451	2803.5859	4475.85	3583.6
1006.9642	2804.7615	4482.15	3589.9
1007.0834	2805.9364	4500.85	3609.35
1007.2025	2807.1106	4499.8	3609.85
1007.3216	2808.2842	4523.8	3632.3
1007.4406	2809.4572	4539	3647.95
1007.5596	2810.6294	4584.1	3691.3
1007.6785	2811.801	4602.4	3713.65
1007.7975	2812.972	4614.5	3723
1007.9163	2814.1423	4648.45	3757.1
1008.0352	2815.3119	4718.45	3827.85
1008.154	2816.4808	4732.05	3840.4
1008.2727	2817.6491	4766.75	3875.05
1008.3914	2818.8167	4804.65	3912.15
1008.5101	2819.9837	4845.55	3948.85
1008.6288	2821.15	4868.75	3975.2
1008.7474	2822.3157	4906.2	4017.35
1008.8659	2823.4807	4956.75	4064.7
1008.9844	2824.645	4990.95	4098.8
1009.1029	2825.8086	5031.65	4139.2
1009.2214	2826.9716	5049	4158.25
1009.3398	2828.134	5089.8	4199.7
1009.4581	2829.2957	5127.55	4234.65
1009.5764	2830.4567	5121.35	4230.6
1009.6947	2831.617	5150.05	4257.5
1009.813	2832.7767	5142.15	4251.7
1009.9312	2833.9358	5139.05	4249.5
1010.0493	2835.0941	5109.35	4216.25
1010.1675	2836.2519	5105.85	4215.35
1010.2855	2837.4089	5089.55	4197.95
1010.4036	2838.5653	5073.35	4181.65
1010.5216	2839.7211	5081	4189.7
1010.6396	2840.8761	5055.2	4160.7
1010.7575	2842.0306	5077	4186.95
1010.8754	2843.1843	5114.25	4224.5
1010.9932	2844.3374	5138.05	4248.35
1011.111	2845.4899	5193	4302.05
1011.2288	2846.6417	5265.5	4375.3
1011.3465	2847.7928	5321.35	4430.65
1011.4642	2848.9433	5381.6	4491.45
1011.5818	2850.0931	5450.05	4559.85
1011.6995	2851.2422	5538.15	4646.95
1011.817	2852.3907	5596.25	4703.85
1011.9345	2853.5385	5663.75	4771.6
1012.052	2854.6857	5727.3	4809.5
1012.1695	2855.8323	5753.25	4861.95
1012.2869	2856.9781	5799.15	4907.05
1012.4042	2858.1233	5829.3	4937.7
1012.5216	2859.2679	5869.85	4978.4
1012.6389	2860.4118	5897.05	5006.9
1012.7561	2861.555	5932.25	5037.8
1012.8733	2862.6976	5958.15	5062.65
1012.9905	2863.8395	5960.85	5069.8
1013.1076	2864.9808	5984.55	5093.3
1013.2247	2866.1214	5982.05	5090.1
1013.3417	2867.2614	5989.35	5096.15
1013.4587	2868.4007	6003.65	5111.25
1013.5757	2869.5393	6005.25	5113.1
1013.6926	2870.6773	5987.3	5090.4
1013.8095	2871.8146	6007.2	5112.1
1013.9263	2872.9513	5975.85	5083.3
1014.0431	2874.0874	5981.7	5090.7
1014.1599	2875.2227	5967.4	5074.5
1014.2766	2876.3574	5929.6	5037.15
1014.3933	2877.4915	5887.35	4997.95
1014.51	2878.6249	5843.75	4952
1014.6266	2879.7577	5843.25	4949.35
1014.7431	2880.8898	5818.5	4915
1014.8596	2882.0212	5769.8	4877.75
1014.9761	2883.152	5758.2	4867.5
1015.0925	2884.2821	5707.2	4818.25
1015.2089	2885.4116	5692.95	4801.25
1015.3253	2886.5405	5698.8	4805.05
1015.4416	2887.6686	5699.1	4804.1
1015.5579	2888.7962	5677.95	4788
1015.6741	2889.923	5683.7	4793.95
1015.7903	2891.0493	5689.05	4800.5
1015.9065	2892.1748	5679.6	4788
1016.0226	2893.2997	5696.8	4804.05
1016.1387	2894.424	5685.9	4793.05
1016.2547	2895.5476	5704.75	4812.75
1016.3707	2896.6706	5710.85	4820.8
1016.4866	2897.7929	5741.3	4849.9
1016.6025	2898.9145	5760.25	4868.8
1016.7184	2900.0355	5776.95	4882.9
1016.8342	2901.1559	5797.7	4906.5
1016.95	2902.2756	5818.8	4921.35
1017.0658	2903.3946	5838.8	4947.65
1017.1815	2904.513	5859.35	4965.7
1017.2971	2905.6308	5873	4982.9
1017.4127	2906.7479	5896.8	5004.85
1017.5283	2907.8643	5918.65	5027.45
1017.6439	2908.9801	5899.8	5008.95
1017.7594	2910.0953	5902	5010.65
1017.8748	2911.2098	5897.7	5004.4
1017.9902	2912.3236	5885.6	4986.1
1018.1056	2913.4368	5874.35	4978.15
1018.2209	2914.5494	5838.75	4947.45
1018.3362	2915.6613	5802.25	4906.4
1018.4515	2916.7725	5767.15	4873.05
1018.5667	2917.8831	5735.1	4842.85
1018.6819	2918.9931	5702.05	4806.15
1018.797	2920.1024	5649.45	4757.25
1018.9121	2921.211	5628.8	4737.6
1019.0271	2922.319	5602.15	4711.45
1019.1421	2923.4264	5592.65	4702.35
1019.2571	2924.5331	5579.6	4689.85
1019.372	2925.6391	5550.75	4661.4
1019.4869	2926.7445	5524	4634.8
1019.6017	2927.8493	5509.3	4616.75
1019.7165	2928.9534	5498.1	4607.45
1019.8313	2930.0569	5478.1	4582.45
1019.946	2931.1597	5465	4571.1
1020.0606	2932.2619	5435.8	4545.15
1020.1753	2933.3634	5425.65	4533.6
1020.2899	2934.4643	5421	4523.35
1020.4044	2935.5645	5388	4491.1
1020.5189	2936.6641	5336.25	4438.9
1020.6334	2937.763	5287.7	4397.35
1020.7478	2938.8613	5224.55	4333.55
1020.8622	2939.959	5182.1	4284.3
1020.9765	2941.056	5075.95	4185.05
1021.0908	2942.1523	4989.95	4097.3
1021.2051	2943.248	4901.55	4009.05
1021.3193	2944.3431	4794.15	3902.6
1021.4334	2945.4375	4685.25	3794.05
1021.5476	2946.5313	4579.45	3687.8
1021.6617	2947.6244	4449.7	3557.25
1021.7757	2948.7169	4361	3469.25
1021.8897	2949.8087	4244.35	3351.6
1022.0037	2950.8999	4152.6	3261.8
1022.1176	2951.9904	4063.05	3173.65
1022.2315	2953.0803	3978.75	3087.55
1022.3453	2954.1696	3905.6	3014.05
1022.4591	2955.2582	3839.55	2948.85
1022.5728	2956.3462	3792.25	2901.65
1022.6865	2957.4335	3737.6	2846.65
1022.8002	2958.5202	3693.3	2799.55
1022.9138	2959.6062	3660.45	2769.9
1023.0274	2960.6916	3623.95	2733.7
1023.141	2961.7764	3602.9	2711
1023.2545	2962.8605	3586.6	2695.3
1023.3679	2963.9439	3571.95	2681.6
1023.4813	2965.0267	3551.55	2659.9
1023.5947	2966.1089	3551.4	2637.7
1023.708	2967.1905	3517.15	2626
1023.8213	2968.2714	3494.65	2602.4
1023.9346	2969.3516	3482	2592.5
1024.0478	2970.4312	3492.45	2593
1024.1609	2971.5102	3481.05	2589.7
1024.274	2972.5885	3490	2599.35
1024.3871	2973.6662	3468.25	2572.05
1024.5002	2974.7432	3468.5	2577.8
1024.6132	2975.8196	3452.75	2561.65
1024.7261	2976.8954	3428.6	2538.4
1024.839	2977.9705	3398	2506.45
1024.9519	2979.045	3381.5	2492.85
1025.0647	2980.1188	3370.5	2480.4
1025.1775	2981.192	3333.5	2444.3
1025.2902	2982.2645	3303.6	2410
1025.4029	2983.3364	3279.7	2388.6
1025.5156	2984.4077	3230.9	2340.25
1025.6282	2985.4783	3216.85	2320.65
1025.7407	2986.5483	3171.05	2279.25
1025.8532	2987.6177	3141.45	2252.7
1025.9657	2988.6864	3104.1	2213.25
1026.0782	2989.7545	3048.9	2156.85
1026.1906	2990.8219	3023.45	2132.85
1026.3029	2991.8887	2982.05	2089.25
1026.4152	2992.9548	2940.6	2048.3
1026.5275	2994.0204	2906.85	2018.85
1026.6397	2995.0852	2880.75	1992.25
1026.7519	2996.1495	2842.75	1950.85
1026.864	2997.2131	2822.95	1932.05
1026.9761	2998.276	2792.35	1901.65
1027.0882	2999.3383	2757.45	1863.9
1027.2002	3000.4	2736.9	1845.65
1027.3122	3001.4611	2726.5	1835.1
1027.4241	3002.5215	2703.3	1810.9
1027.536	3003.5812	2680.6	1790.75
1027.6478	3004.6404	2665.9	1775.6
1027.7596	3005.6989	2656.1	1765.05
1027.8714	3006.7567	2639.6	1747.45
1027.9831	3007.8139	2651.75	1740.15
1028.0947	3008.8705	2618.9	1728
1028.2064	3009.9264	2607.7	1713.55
1028.3179	3010.9818	2593.4	1703.85
1028.4295	3012.0364	2586.85	1695.8
1028.541	3013.0905	2574.7	1684.7
1028.6524	3014.1439	2568.95	1679.75
1028.7638	3015.1966	2560	1670.3
1028.8752	3016.2487	2555.5	1662.65
1028.9865	3017.3002	2552.5	1654.05
1029.0978	3018.3511	2547.35	1657.1
1029.209	3019.4013	2537.4	1648
1029.3202	3020.4509	2529.7	1638.95
1029.4314	3021.4998	2537.05	1644.85
1029.5425	3022.5481	2522.45	1631.65
1029.6535	3023.5958	2520.55	1629.75
1029.7645	3024.6428	2521.5	1629.8
1029.8755	3025.6892	2520.15	1629.95
1029.9864	3026.735	2509	1616.8
1030.0973	3027.7802	2507.1	1615.3
1030.2082	3028.8247	2506.15	1613.55
1030.319	3029.8685	2492.65	1601.15
1030.4297	3030.9118	2502.75	1610.35
1030.5404	3031.9544	2502.35	1613.9
1030.6511	3032.9963	2505.8	1616.15
1030.7617	3034.0376	2506.3	1616.2
1030.8723	3035.0783	2505.35	1613.7
1030.9829	3036.1184	2491.4	1600.65
1031.0934	3037.1578	2494.6	1605.15
1031.2038	3038.1966	2485.25	1594.6
1031.3142	3039.2348	2489.2	1599.25
1031.4246	3040.2723	2492	1592.75
1031.5349	3041.3092	2476.65	1584.95
1031.6452	3042.3455	2469.7	1577.65
1031.7554	3043.3811	2453.3	1561.5
1031.8656	3044.4161	2453.15	1562.6
1031.9758	3045.4505	2442.75	1553.7
1032.0859	3046.4842	2432.6	1542.4
1032.1959	3047.5173	2421.2	1532.05
1032.3059	3048.5498	2409.55	1518.8
1032.4159	3049.5816	2398.85	1505.85
1032.5258	3050.6128	2387.45	1494.15
1032.6357	3051.6434	2376.2	1484.5
1032.7455	3052.6734	2366.75	1475.1
1032.8553	3053.7027	2344.85	1454.85
1032.9651	3054.7314	2352.5	1462.85
1033.0748	3055.7594	2333.1	1442.6
1033.1845	3056.7868	2330.45	1438.35
1033.2941	3057.8136	2323.05	1431.95
1033.4037	3058.8398	2300.5	1409.85
1033.5132	3059.8653	2294.7	1403.05
1033.6227	3060.8902	2276.55	1386.85
1033.7321	3061.9145	2271.2	1381.35
1033.8415	3062.9381	2264.75	1373.3
1033.9509	3063.9612	2279.15	1372.35
1034.0602	3064.9835	2246.6	1355.45
1034.1694	3066.0053	2246.45	1355.55
1034.2787	3067.0264	2223.4	1332.3
1034.3878	3068.0469	2218.85	1327.55
1034.497	3069.0668	2204.6	1311.2
1034.6061	3070.086	2205.65	1317.45
1034.7151	3071.1046	2192.55	1301.55
1034.8241	3072.1226	2169.05	1276.55
1034.9331	3073.1399	2156.65	1265.7
1035.042	3074.1567	2152.25	1261.95
1035.1508	3075.1727	2134.25	1242.05
1035.2597	3076.1882	2105.75	1216.15
1035.3684	3077.203	2099.55	1207.35
1035.4772	3078.2173	2093.4	1201.6
1035.5859	3079.2308	2083.05	1189.95
1035.6945	3080.2438	2080.45	1187.95
1035.8031	3081.2561	2058.95	1169.2
1035.9117	3082.2678	2044	1153.9
1036.0202	3083.2789	2041.7	1151.75
1036.1286	3084.2893	2023.25	1131.85
1036.2371	3085.2991	2023.4	1133.8
1036.3454	3086.3083	2016.85	1122.8
1036.4538	3087.3169	1998.9	1106.85
1036.562	3088.3248	1990.8	1097.9
1036.6703	3089.3321	1984.4	1092.65
1036.7785	3090.3388	1964.7	1075.45
1036.8866	3091.3449	1964.9	1075.65
1036.9948	3092.3503	1955.85	1065.4
1037.1028	3093.3551	1957.8	1068.75
1037.2108	3094.3593	1940.55	1051.6
1037.3188	3095.3629	1930.3	1041.65
1037.4267	3096.3658	1923.2	1033.15
1037.5346	3097.3681	1918.3	1027.55
1037.6425	3098.3698	1910.7	1018.7
1037.7503	3099.3708	1908.15	1011
1037.858	3100.3713	1906.65	1018.9
1037.9657	3101.3711	1899.65	1008.1
1038.0734	3102.3702	1992.1	987.1
1038.181	3103.3688	1893.3	1001.55
1038.2886	3104.3667	1875.2	985.95
1038.3961	3105.364	1863.35	974.75
1038.5036	3106.3607	1852.85	960.2
1038.611	3107.3568	1855.5	961.9
1038.7184	3108.3522	1849.75	959.45
1038.8257	3109.347	1848.85	956.45
1038.933	3110.3412	1846.7	950.65
1039.0403	3111.3348	1835.85	944.2
1039.1475	3112.3277	1826.95	936.25
1039.2547	3113.32	1814.95	925.85
1039.3618	3114.3117	1816.65	924.45
1039.4689	3115.3028	1808.95	918.55
1039.5759	3116.2932	1812.7	918.9
1039.6829	3117.2831	1797.15	901.85
1039.7898	3118.2723	1793.05	903.2
1039.8967	3119.2608	1785.9	895.6
1040.0035	3120.2488	1793.7	904.6
1040.1103	3121.2361	1779.8	889.25
1040.2171	3122.2229	1767.35	877.05
1040.3238	3123.209	1764.55	872.7
1040.4305	3124.1944	1754.95	864.6
1040.5371	3125.1793	1768.05	876.65
1040.6437	3126.1635	1750	860.15
1040.7502	3127.1471	1745.25	855.35
1040.8567	3128.1301	1742.3	853.15
1040.9631	3129.1125	1744.85	854.3
1041.0695	3130.0942	1734.85	843.5
1041.1759	3131.0753	1744.9	847.4
1041.2822	3132.0558	1736.4	843.5
1041.3884	3133.0357	1720.45	828.05
1041.4946	3134.015	1723.55	832.4
1041.6008	3134.9936	1714.45	824
1041.7069	3135.9716	1727.2	816.95
1041.813	3136.949	1701.5	812.8
1041.919	3137.9258	1703.05	807.75
1042.025	3138.902	1704.45	809.55
1042.1309	3139.8775	1704.35	815.1
1042.2368	3140.8524	1690.5	799.25
1042.3427	3141.8267	1689.5	797.3
1042.4485	3142.8004	1682.95	792.25
1042.5542	3143.7735	1682.55	787.2
1042.6599	3144.7459	1681.4	790.15
1042.7656	3145.7178	1678.8	789.3
1042.8712	3146.689	1667.45	778.45
1042.9768	3147.6596	1657.15	766.2
1043.0823	3148.6295	1654.45	764.45
1043.1878	3149.5989	1657.35	767.5
1043.2932	3150.5676	1649	758.8
1043.3986	3151.5357	1644.65	754.4
1043.5039	3152.5032	1648.2	759.05
1043.6092	3153.4701	1639.25	749.05
1043.7145	3154.4364	1634.65	742.3
1043.8197	3155.402	1635.3	746.35
1043.9248	3156.367	1628.65	737.4
1044.03	3157.3315	1662.85	730.05
1044.135	3158.2952	1623.9	733.85
1044.24	3159.2584	1613.2	722.05
1044.345	3160.221	1612.55	723.2
1044.4499	3161.1829	1600.75	710.55
1044.5548	3162.1442	1600.35	709.95
1044.6596	3163.105	1603.5	714.7
1044.7644	3164.065	1587.95	697.25
1044.8692	3165.0245	1590.55	697.9
1044.9739	3165.9834	1580.9	692.75
1045.0785	3166.9416	1571.85	682.8
1045.1831	3167.8993	1575.4	684.95
1045.2877	3168.8563	1567.3	676.45
1045.3922	3169.8127	1569.9	680.35
1045.4966	3170.7684	1566.75	676.4
1045.6011	3171.7236	1559.55	667.7
1045.7054	3172.6782	1562.15	671.55
1045.8098	3173.6321	1556.6	665.45
1045.914	3174.5854	1555.3	661.35
1046.0183	3175.5381	1547.35	658.2
1046.1224	3176.4902	1535.55	646.2
1046.2266	3177.4417	1537.1	646.85
1046.3307	3178.3926	1534.25	644.25
1046.4347	3179.3428	1530.45	639.7
1046.5387	3180.2924	1531	642.7
1046.6427	3181.2415	1521.45	630.65
1046.7466	3182.1899	1519.25	627.85
1046.8504	3183.1377	1516.8	626.25
1046.9542	3184.0848	1508.7	615.2
1047.058	3185.0314	1510.15	620
1047.1617	3185.9773	1509.1	618.65
1047.2654	3186.9227	1508.2	618.6
1047.369	3187.8674	1495.15	606.15
1047.4726	3188.8115	1498.05	603.9
1047.5761	3189.755	1493.55	603.6
1047.6796	3190.6979	1492.8	601.85
1047.783	3191.6402	1484	595
1047.8864	3192.5818	1487.1	596.15
1047.9898	3193.5229	1503.2	589.35
1048.0931	3194.4633	1478.3	588.55
1048.1963	3195.4031	1484.6	593.85
1048.2995	3196.3423	1471.7	580.65
1048.4027	3197.2809	1465.45	575.55
1048.5058	3198.2189	1470.3	578.35
1048.6089	3199.1563	1466.65	571.1
1048.7119	3200.0931	1461.35	572.9
1048.8148	3201.0292	1455.45	567.3
1048.9178	3201.9648	1450.7	561.1
1049.0206	3202.8997	1452.4	558.9
1049.1235	3203.834	1449.8	559.1
1049.2262	3204.7677	1443.05	553.25
1049.329	3205.7008	1444.7	553.55
1049.4317	3206.6333	1438.65	549.6
1049.5343	3207.5652	1434.4	544
1049.6369	3208.4964	1437	547.05
1049.7394	3209.4271	1426.45	537.65
1049.8419	3210.3571	1423.85	535.1
1049.9444	3211.2865	1428.55	537
1050.0468	3212.2154	1423.35	531.4
1050.1491	3213.1436	1423.9	530.6
1050.2514	3214.0712	1427.8	529.45
1050.3537	3214.9982	1415.7	527.85
1050.4559	3215.9246	1413.1	522.95
1050.5581	3216.8503	1409.6	521.45
1050.6602	3217.7755	1403.8	512.6
1050.7623	3218.7001	1399.55	509.65
1050.8643	3219.624	1403.4	512.15
1050.9663	3220.5473	1399	508
1051.0682	3221.4701	1395.85	502.55
1051.1701	3222.3922	1391.05	498.7
1051.2719	3223.3137	1389.55	498.8
1051.3737	3224.2346	1389.8	499.05
1051.4754	3225.1549	1384.45	494.8
1051.5771	3226.0746	1383.75	494.9
1051.6788	3226.9937	1376.65	487.35
1051.7804	3227.9121	1378.2	489.4
1051.8819	3228.83	1381.45	494.35
1051.9834	3229.7473	1373.25	483.2
1052.0849	3230.6639	1367.8	476.75
1052.1863	3231.5799	1365.2	474.1
1052.2876	3232.4954	1360.25	468.6
1052.3889	3233.4102	1364.6	472.95
1052.4902	3234.3244	1358.3	466.95
1052.5914	3235.238	1360.95	471.45
1052.6926	3236.151	1376.4	465.8
1052.7937	3237.0634	1355.4	466
1052.8948	3237.9752	1349.75	460.55
1052.9958	3238.8864	1347.3	457.7
1053.0968	3239.797	1339.95	451.25
1053.1977	3240.7069	1342.35	452.1
1053.2986	3241.6163	1340.55	448.25
1053.3994	3242.5251	1332.8	443.5
1053.5002	3243.4332	1340.05	450.85
1053.6009	3244.3408	1327.75	438.15
1053.7016	3245.2477	1332.8	443.45
1053.8022	3246.154	1324.9	433
1053.9028	3247.0598	1328.45	436.55
1054.0034	3247.9649	1317.4	427.2
1054.1039	3248.8694	1322.2	433.1
1054.2043	3249.7733	1311.45	422.8
1054.3047	3250.6766	1306.2	415.8
1054.4051	3251.5793	1314.55	423.9
1054.5054	3252.4814	1304	415.5
1054.6056	3253.3829	1297.75	408.25
1054.7058	3254.2838	1302.8	413.35
1054.806	3255.1841	1301.95	411.4
1054.9061	3256.0838	1296.5	407.1
1055.0061	3256.9829	1284.65	395
1055.1062	3257.8814	1284	392.45
1055.2061	3258.7792	1292.9	402.5
1055.306	3259.6765	1285.25	393.05
1055.4059	3260.5731	1275.1	384.95
1055.5057	3261.4692	1267.25	376.6
1055.6055	3262.3647	1264.7	374.3
1055.7052	3263.2595	1265.8	374.6
1055.8049	3264.1538	1252.6	363.75
1055.9045	3265.0474	1255.3	363.8
1056.0041	3265.9404	1246.3	356.7
1056.1036	3266.8329	1238.05	349.95
1056.2031	3267.7247	1240.2	340.3
1056.3025	3268.616	1222.85	333.9
1056.4019	3269.5066	1214.3	322.7
1056.5013	3270.3966	1212.15	320.75
1056.6005	3271.286	1196.95	309.65
