Software Version:	3.9.2.0
Unit SN:	10000200
Spectrometer SN:	6960
Date:	3/6/2024 9:45:40 AM
Data Line Index:	25
Spectral Points:	2048
Integration time (ms):	125
Averages:	20
Delay (ms):	30
Sequence Number:	1
Processing:	dark subtract
Laser Power (mW):	305
Laser Current (mA):	824
Laser Diode Temp (C):	25.1
Laser Case Temp (C):	24.1
System Temp (C):	23.9
Spectrometer Temp (C):	21.6
CCD Temp (C):	-0.021
Secondary Temp (C):	20.048
Heatsink Temp (C):	18.102
CCDPCB Temp (C):	30.682
SecondaryPCB Temp (C):	25.491

Wavelength	RamanShift	Raw Counts	Dark Subtracted
787.061	30.1047	455.45	47.65
787.2016	32.3739	455.2	47.5
787.3422	34.6426	463.85	56.55
787.4828	36.9109	465.15	57.25
787.6235	39.1787	472.15	59
787.7642	41.4461	482.9	69.4
787.9049	43.7131	488.5	68.6
788.0456	45.9796	492.9	71.05
788.1863	48.2456	500.15	73.85
788.3271	50.5112	511.75	81.05
788.4679	52.7764	516.65	82.25
788.6087	55.0411	526.7	88.05
788.7496	57.3054	536.6	93.95
788.8904	59.5692	540.5	96.45
789.0313	61.8326	553	105.3
789.1722	64.0955	566.65	117.6
789.3132	66.3579	580.4	125.9
789.4541	68.6199	594.4	135.3
789.5951	70.8815	618.8	156.4
789.7361	73.1426	675.15	207.65
789.8771	75.4032	813.85	343.8
790.0181	77.6634	1143.5	670.8
790.1592	79.9231	1935.45	1458.95
790.3003	82.1824	3630.6	3149.05
790.4414	84.4412	6583.75	6093.65
790.5825	86.6995	10547.05	10045.35
790.7237	88.9574	14456.75	13945.45
790.8648	91.2148	17342	16824.25
791.006	93.4717	18934.5	18412.1
791.1472	95.7282	19596.2	19071
791.2885	97.9842	19968.1	19441.15
791.4297	100.2398	20092.9	19563.3
791.571	102.4949	20153.55	19621.3
791.7123	104.7495	20183.55	19647.3
791.8536	107.0036	20162.1	19624.05
791.9949	109.2573	20160.35	19626.6
792.1363	111.5105	20212.2	19672.2
792.2777	113.7632	20170.45	19628.05
792.4191	116.0154	20212.9	19662.75
792.5605	118.2672	20273.9	19728.6
792.7019	120.5185	20281.1	19733.2
792.8434	122.7693	20330.55	19779.55
792.9849	125.0197	20343.2	19787.1
793.1264	127.2696	20368.25	19810.9
793.2679	129.519	20454.6	19893.75
793.4094	131.7679	20495	19933.75
793.551	134.0163	20549.1	19983.55
793.6926	136.2642	20561.25	19992.4
793.8342	138.5117	20602.9	20030.85
793.9758	140.7587	20569.45	19996.65
794.1175	143.0052	20638.2	20063.2
794.2591	145.2512	20606.6	20031
794.4008	147.4967	20586.45	20007.85
794.5425	149.7417	20575.8	19994.75
794.6842	151.9863	20582.3	19998.4
794.826	154.2304	20621.35	20031.2
794.9677	156.4739	20557.55	19963.25
795.1095	158.717	20614.2	20019.65
795.2513	160.9596	20632.95	20033.95
795.3931	163.2017	20628.35	20027.2
795.535	165.4433	20615.7	20010.2
795.6768	167.6844	20654.6	20048.2
795.8187	169.925	20707.65	20097.4
795.9606	172.1651	20637.85	20026.5
796.1025	174.4047	20652.85	20039.55
796.2445	176.6439	20654.45	20035.65
796.3864	178.8825	20673.4	20051.6
796.5284	181.1206	20665.75	20040
796.6704	183.3582	20685	20054.15
796.8124	185.5954	20725.4	20092.05
796.9544	187.832	20739.8	20104.1
797.0965	190.0681	20778.9	20140.95
797.2386	192.3037	20815.3	20176.65
797.3806	194.5388	20856.4	20212.15
797.5228	196.7734	20887.2	20240.5
797.6649	199.0075	20957.1	20308.2
797.807	201.2411	21089.45	20441.05
797.9492	203.4742	21093.75	20444.3
798.0914	205.7068	21157.9	20502.5
798.2336	207.9389	21209.85	20557.75
798.3758	210.1704	21265.9	20618.65
798.518	212.4015	21208.35	20568.45
798.6603	214.632	21266.8	20633.45
798.8025	216.862	21284.95	20656.95
798.9448	219.0915	21305.35	20673.9
799.0871	221.3205	21356.65	20723.55
799.2294	223.549	21390.15	20759.45
799.3718	225.777	21457.45	20825.85
799.5141	228.0044	21451.9	20812.45
799.6565	230.2314	21523.7	20881.35
799.7989	232.4578	21501.85	20855.75
799.9413	234.6837	21567.5	20914.7
800.0837	236.909	21590.95	20935.4
800.2262	239.1339	21615.65	20934.3
800.3687	241.3582	21586.4	20919.65
800.5111	243.582	21615.75	20918.8
800.6536	245.8053	21672.9	20988.65
800.7961	248.0281	21646.55	20967.55
800.9387	250.2503	21664.25	20981.15
801.0812	252.472	21676.5	20992.05
801.2238	254.6932	21734.6	21050.85
801.3664	256.9139	21664.4	20979.6
801.509	259.134	21733.6	21043.9
801.6516	261.3536	21731.85	21045
801.7942	263.5727	21780.15	21092.95
801.9369	265.7912	21752.6	21063.9
802.0795	268.0092	21833.5	21148.3
802.2222	270.2267	21850.9	21159.7
802.3649	272.4436	21903.85	21210.7
802.5076	274.6601	21925.35	21222.4
802.6504	276.8759	21920.7	21221.5
802.7931	279.0913	21942.8	21245.2
802.9359	281.3061	21911.4	21210.6
803.0787	283.5204	21998.1	21294.95
803.2215	285.7341	22040.6	21334.45
803.3643	287.9473	22133	21415.8
803.5071	290.16	22111.55	21400.9
803.6499	292.3721	22050.3	21346.85
803.7928	294.5837	22003.4	21300
803.9357	296.7947	21998.15	21293.1
804.0786	299.0052	21953.2	21248.35
804.2215	301.2152	21964	21255.05
804.3644	303.4246	21990.3	21283.85
804.5074	305.6334	21964	21256.4
804.6503	307.8418	21941.4	21228.7
804.7933	310.0495	21952.3	21237.75
804.9363	312.2568	21875.75	21162.45
805.0793	314.4635	21840.9	21123.5
805.2223	316.6696	21818.2	21100.1
805.3653	318.8752	21721.05	20993.05
805.5084	321.0802	21704.1	20984.25
805.6514	323.2847	21707.4	20983.55
805.7945	325.4887	21647.75	20927
805.9376	327.692	21641.45	20918.9
806.0807	329.8949	21783	21057.65
806.2238	332.0972	21744.8	21016.5
806.367	334.2989	21759.2	21030
806.5101	336.5001	21721.25	20992
806.6533	338.7007	21763.05	21031.85
806.7965	340.9008	21738.85	21004.95
806.9397	343.1003	21663.8	20929.8
807.0829	345.2992	21688.9	20953.5
807.2261	347.4976	21659.3	20921.4
807.3693	349.6955	21633.15	20890.55
807.5126	351.8927	21666.55	20924.7
807.6559	354.0895	21588.8	20837.9
807.7991	356.2856	21627.1	20884.5
807.9424	358.4812	21594.95	20850.4
808.0857	360.6763	21629.3	20881.7
808.2291	362.8707	21577.75	20829.75
808.3724	365.0646	21612.05	20861.45
808.5158	367.258	21619.1	20864.1
808.6591	369.4508	21545.05	20788.2
808.8025	371.643	21580	20822.8
808.9459	373.8346	21471.55	20712.35
809.0893	376.0257	21505.1	20743.6
809.2327	378.2162	21460.2	20700.2
809.3762	380.4062	21509.15	20752.35
809.5196	382.5956	21412.3	20652.3
809.6631	384.7844	21428.25	20676.05
809.8066	386.9726	21380.95	20628.45
809.9501	389.1603	21319.85	20567.85
810.0936	391.3474	21303.4	20510.6
810.2371	393.5339	21315.7	20561.25
810.3806	395.7199	21248.3	20495.95
810.5241	397.9052	21237.6	20485.35
810.6677	400.09	21213.55	20459.15
810.8113	402.2743	21274.4	20518.65
810.9548	404.4579	21260.65	20503.35
811.0984	406.641	21315.5	20556.8
811.2421	408.8235	21326.35	20566
811.3857	411.0054	21320.85	20556.4
811.5293	413.1868	21383.35	20617.9
811.673	415.3675	21457.7	20688.15
811.8166	417.5477	21458.3	20686.7
811.9603	419.7273	21361.3	20584.8
812.104	421.9064	21248.35	20466.85
812.2477	424.0848	21191.5	20415.45
812.3914	426.2627	21121.3	20347.05
812.5351	428.4399	21045.5	20269.35
812.6788	430.6166	20985.2	20206.05
812.8226	432.7928	20896.25	20113.1
812.9663	434.9683	20843.8	20061.8
813.1101	437.1432	20806.95	20023.5
813.2539	439.3176	20720.5	19941
813.3977	441.4914	20685.15	19905.85
813.5415	443.6645	20653.5	19871.8
813.6853	445.8371	20581.9	19799.6
813.8291	448.0091	20489.35	19706.2
813.973	450.1806	20476.25	19693.05
814.1168	452.3514	20375.55	19588.8
814.2607	454.5216	20414.45	19617.55
814.4046	456.6913	20302.05	19514.9
814.5485	458.8603	20303.05	19516.9
814.6924	461.0288	20313.05	19526.8
814.8363	463.1967	20237.75	19451.7
814.9802	465.3639	20256.45	19469
815.1241	467.5306	20210.15	19421.15
815.2681	469.6967	20208.5	19419.55
815.412	471.8622	20111	19321.75
815.556	474.0271	20107.9	19317.85
815.7	476.1914	20086.45	19294.6
815.844	478.3551	20072.75	19281.45
815.988	480.5182	20117.4	19325.05
816.132	482.6807	20077.25	19285.5
816.276	484.8426	20142.2	19351.9
816.4201	487.0039	20167.4	19377.7
816.5641	489.1647	20201.5	19408.6
816.7082	491.3248	20273.95	19479.5
816.8522	493.4843	20208.2	19414.55
816.9963	495.6432	20203.2	19407.35
817.1404	497.8015	20137.35	19338.6
817.2845	499.9592	20121.75	19322.65
817.4286	502.1163	20057.1	19258.6
817.5727	504.2728	20011.5	19209.35
817.7168	506.4287	20041.95	19245.75
817.861	508.5839	19961.1	19164.1
818.0051	510.7386	19943.65	19141.8
818.1493	512.8927	19968.4	19162.55
818.2935	515.0461	19976.7	19172.95
818.4377	517.199	19932.65	19131.35
818.5818	519.3512	19950.15	19143.55
818.726	521.5029	19970.4	19160.9
818.8703	523.6539	19992.65	19188.25
819.0145	525.8043	19974.4	19166
819.1587	527.9541	19952.3	19142.65
819.303	530.1033	19909.75	19100.55
819.4472	532.2519	19840.05	19031.3
819.5915	534.3999	19773.5	18963.35
819.7357	536.5472	19777.75	18968.05
819.88	538.694	19778.35	18968.25
820.0243	540.8401	19776.15	18965.55
820.1686	542.9856	19753.05	18940.45
820.3129	545.1305	19719.4	18904.05
820.4572	547.2748	19797.55	18981.9
820.6016	549.4185	19734.8	18914
820.7459	551.5615	19694.7	18878.45
820.8902	553.704	19700	18884.5
821.0346	555.8458	19663.55	18848.65
821.1789	557.987	19650.8	18837.2
821.3233	560.1276	19681.8	18866.15
821.4677	562.2675	19726.8	18911.55
821.6121	564.4069	19734.1	18920.35
821.7565	566.5456	19706.9	18891.8
821.9009	568.6837	19713.5	18899.35
822.0453	570.8212	19574.9	18756.9
822.1897	572.958	19553.65	18736.55
822.3342	575.0942	19464.7	18651.25
822.4786	577.2299	19411.3	18596.25
822.6231	579.3648	19322.75	18509.4
822.7675	581.4992	19247.7	18435.85
822.912	583.6329	19165.05	18351.55
823.0565	585.766	19151	18336.3
823.201	587.8985	19114.55	18299.7
823.3454	590.0304	19137.8	18304.35
823.4899	592.1616	19129.45	18306.45
823.6345	594.2922	19053.6	18231.7
823.779	596.4222	19002.8	18179.35
823.9235	598.5515	18965.65	18141.2
824.068	600.6802	18888	18063.4
824.2126	602.8083	18787.15	17962.45
824.3571	604.9358	18762.45	17937.35
824.5017	607.0626	18700.85	17872.55
824.6462	609.1888	18683.05	17855.9
824.7908	611.3144	18708.45	17881.2
824.9354	613.4393	18669.95	17842.35
825.08	615.5636	18672	17843.2
825.2246	617.6873	18692.2	17865
825.3692	619.8103	18697.8	17867.65
825.5138	621.9327	18688.05	17856.6
825.6584	624.0544	18641.5	17812.25
825.803	626.1756	18603.5	17778.2
825.9477	628.2961	18554.05	17723.95
826.0923	630.4159	18508	17677.7
826.237	632.5351	18529.05	17698.3
826.3816	634.6537	18476.15	17643.95
826.5263	636.7716	18421.25	17586.7
826.6709	638.8889	18426.75	17591.8
826.8156	641.0056	18442.65	17609.25
826.9603	643.1216	18416.4	17583
827.105	645.237	18478.05	17643.05
827.2497	647.3518	18423.2	17589.1
827.3944	649.4659	18381.15	17550.3
827.5391	651.5793	18338.1	17504.9
827.6838	653.6922	18257.8	17425.75
827.8285	655.8043	18214.8	17382.25
827.9733	657.9159	18247.3	17412.65
828.118	660.0268	18221.25	17384.6
828.2627	662.137	18153.2	17315.8
828.4075	664.2466	18143.25	17304.65
828.5522	666.3556	18129.75	17291.15
828.697	668.4639	18092.3	17251.75
828.8418	670.5716	18090.1	17251.95
828.9865	672.6786	18083.6	17244.9
829.1313	674.785	18008.1	17165.35
829.2761	676.8907	17994.2	17155.05
829.4209	678.9958	17977.5	17141.7
829.5657	681.1002	17891.95	17052.15
829.7105	683.204	17896.9	17052.05
829.8553	685.3072	17875.1	17031.2
830.0001	687.4097	17865.75	17023.1
830.1449	689.5115	17826.6	16982.65
830.2898	691.6127	17818.45	16978.45
830.4346	693.7132	17774.3	16930.65
830.5794	695.8131	17788.9	16923.35
830.7243	697.9123	17783.15	16938.3
830.8691	700.0109	17751.85	16909.5
831.014	702.1089	17725.7	16883.45
831.1588	704.2061	17706.15	16861.15
831.3037	706.3028	17728.7	16882.65
831.4486	708.3987	17720	16875.4
831.5935	710.4941	17660.2	16814.6
831.7383	712.5887	17677.5	16832.65
831.8832	714.6827	17706.55	16857.5
832.0281	716.7761	17670.4	16824.4
832.173	718.8688	17691	16843.75
832.3179	720.9608	17603.35	16751.3
832.4628	723.0522	17618.9	16766.55
832.6077	725.1429	17589.4	16740.15
832.7527	727.233	17603.8	16756.65
832.8976	729.3224	17621.45	16774.4
833.0425	731.4112	17592.1	16742.1
833.1874	733.4993	17529.7	16679.1
833.3324	735.5867	17487.35	16636.65
833.4773	737.6735	17440.05	16587.6
833.6222	739.7596	17402.95	16549.35
833.7672	741.845	17347.5	16498.1
833.9122	743.9298	17299.75	16448.85
834.0571	746.014	17292.35	16440.7
834.2021	748.0974	17320.2	16467.8
834.347	750.1802	17233.85	16378
834.492	752.2624	17188.8	16335.9
834.637	754.3439	17101.3	16246.55
834.782	756.4247	17051.7	16189.65
834.9269	758.5048	17011.2	16160.15
835.0719	760.5843	16985.55	16129.2
835.2169	762.6631	16951.75	16098.15
835.3619	764.7413	16964.05	16110.85
835.5069	766.8188	16994.5	16138.65
835.6519	768.8956	16935.15	16077
835.7969	770.9718	16979.95	16125.1
835.9419	773.0473	16916.75	16063.75
836.0869	775.1221	16875.45	16022.25
836.232	777.1962	16819.65	15965.25
836.377	779.2697	16820.2	15964.7
836.522	781.3426	16827.35	15952.9
836.667	783.4147	16808.6	15952.65
836.8121	785.4862	16824.15	15969.8
836.9571	787.557	16726.65	15871.15
837.1021	789.6271	16650.2	15792.15
837.2472	791.6966	16549.85	15692.3
837.3922	793.7654	16462.45	15605
837.5373	795.8335	16422.45	15564.55
837.6823	797.901	16410.05	15553.05
837.8274	799.9678	16359.7	15498.7
837.9724	802.0339	16325.8	15469.5
838.1175	804.0993	16304.9	15439.75
838.2626	806.1641	16273.8	15415.65
838.4076	808.2282	16234	15374.8
838.5527	810.2916	16199.8	15338.8
838.6978	812.3544	16159.75	15300.8
838.8428	814.4164	16144.75	15286.35
838.9879	816.4778	16181.35	15321.7
839.133	818.5385	16098.6	15238.25
839.2781	820.5986	16140.35	15279.25
839.4232	822.658	16129.55	15266.15
839.5682	824.7166	16089.1	15229.95
839.7133	826.7747	16142.35	15283.75
839.8584	828.832	16164.85	15303.45
840.0035	830.8886	16135.35	15275
840.1486	832.9446	16151.65	15290.4
840.2937	834.9999	16092.75	15234.3
840.4388	837.0545	16002.4	15138.05
840.5839	839.1085	16001.2	15139
840.729	841.1618	15919.65	15056.25
840.8741	843.2143	15878.2	15017.3
841.0192	845.2662	15812.25	14949.45
841.1643	847.3175	15782.7	14920.05
841.3095	849.368	15743.05	14879.4
841.4546	851.4179	15730.95	14867.85
841.5997	853.467	15687.3	14823.15
841.7448	855.5155	15672.45	14808.95
841.8899	857.5633	15602.25	14738.75
842.0351	859.6105	15540.75	14677.7
842.1802	861.6569	15543.85	14679.05
842.3253	863.7027	15531.05	14664.1
842.4704	865.7478	15545.4	14680.5
842.6156	867.7922	15477.3	14612.4
842.7607	869.8359	15451.9	14587.25
842.9058	871.8789	15434.1	14570.2
843.0509	873.9212	15461.6	14565.4
843.1961	875.9629	15373.15	14508.8
843.3412	878.0039	15403.75	14536.7
843.4863	880.0441	15375.35	14509.55
843.6315	882.0837	15414.55	14548.75
843.7766	884.1226	15384.75	14518.45
843.9218	886.1609	15359.2	14494.2
844.0669	888.1984	15420.8	14555.65
844.212	890.2352	15409.3	14544.7
844.3572	892.2714	15404.25	14532.85
844.5023	894.3069	15377.25	14508.3
844.6475	896.3416	15287.45	14418.7
844.7926	898.3757	15301.35	14434.5
844.9377	900.4091	15247.6	14377.8
845.0829	902.4418	15201.75	14327.75
845.228	904.4739	15168.25	14299.15
845.3732	906.5052	15157.25	14289.55
845.5183	908.5358	15136.3	14269.35
845.6635	910.5658	15130.65	14261.1
845.8086	912.595	15063.75	14195.35
845.9538	914.6236	14984.8	14118.55
846.0989	916.6515	14994.65	14126.4
846.2441	918.6786	14934.65	14064.3
846.3892	920.7051	14896.9	14028.45
846.5344	922.7309	14933.65	14064.85
846.6795	924.756	14858.85	13988.95
846.8246	926.7804	14890.9	14019.4
846.9698	928.8041	14780.9	13908.25
847.1149	930.8272	14786.4	13915
847.2601	932.8495	14717.6	13847.1
847.4052	934.8711	14702.45	13831.95
847.5504	936.892	14632.35	13761.95
847.6955	938.9123	14638.4	13767.85
847.8407	940.9318	14617.6	13749.15
847.9858	942.9506	14579.35	13708
848.131	944.9688	14510.75	13639.45
848.2761	946.9862	14482.1	13610.3
848.4213	949.003	14404.3	13531.35
848.5664	951.019	14387.3	13517
848.7115	953.0344	14318.35	13445.25
848.8567	955.0491	14324.6	13454.2
849.0018	957.063	14289.8	13416.65
849.147	959.0763	14320.7	13448.95
849.2921	961.0888	14266.7	13392.25
849.4373	963.1007	14242.1	13368.75
849.5824	965.1119	14232.65	13362.3
849.7275	967.1223	14217.55	13346.95
849.8727	969.1321	14177.75	13308.7
850.0178	971.1412	14169.6	13297.45
850.1629	973.1495	14089.8	13219.8
850.3081	975.1572	14142.45	13226.25
850.4532	977.1641	14112.9	13241.7
850.5983	979.1704	14023.25	13149.7
850.7435	981.1759	14014.85	13139.7
850.8886	983.1808	14000.35	13125.95
851.0337	985.1849	13958.7	13075.7
851.1788	987.1884	13909.55	13034.25
851.324	989.1911	13903.75	13026.75
851.4691	991.1932	13865.55	12992.6
851.6142	993.1945	13876.7	13001.8
851.7593	995.1951	13764.55	12888.25
851.9045	997.1951	13739.7	12858.85
852.0496	999.1943	13685.55	12811.7
852.1947	1001.1928	13625.4	12751.55
852.3398	1003.1906	13577.95	12705.55
852.4849	1005.1877	13580.55	12705.15
852.63	1007.1841	13537.65	12663.35
852.7751	1009.1798	13491.25	12617.9
852.9202	1011.1748	13434.45	12558.9
853.0653	1013.1691	13404.65	12526.45
853.2104	1015.1627	13356.5	12480.45
853.3555	1017.1556	13252.65	12379.15
853.5006	1019.1477	13242.35	12368.2
853.6457	1021.1392	13157.2	12284.4
853.7908	1023.1299	13110.75	12238.85
853.9359	1025.12	13052.25	12177.25
854.081	1027.1093	12980.2	12110.25
854.2261	1029.0979	12968.25	12098
854.3712	1031.0859	12964.5	12092.8
854.5163	1033.0731	12939.3	12063.95
854.6613	1035.0596	12883.65	12010.5
854.8064	1037.0454	12822.85	11947.15
854.9515	1039.0304	12787.7	11911.7
855.0965	1041.0148	12725.1	11848.95
855.2416	1042.9985	12702.35	11822.6
855.3867	1044.9814	12695.15	11820.4
855.5317	1046.9636	12591.2	11715.75
855.6768	1048.9452	12565.8	11691.35
855.8219	1050.926	12577.6	11702.55
855.9669	1052.9061	12548.55	11672.95
856.112	1054.8855	12492.55	11614.75
856.257	1056.8642	12474.25	11598.15
856.4021	1058.8421	12491.5	11610.2
856.5471	1060.8194	12432.3	11556.75
856.6921	1062.7959	12422.1	11543.05
856.8372	1064.7717	12404.35	11526.25
856.9822	1066.7469	12338.85	11460.35
857.1272	1068.7213	12339.5	11460.25
857.2723	1070.695	12360	11486.2
857.4173	1072.6679	12268.4	11389.35
857.5623	1074.6402	12293.75	11418.1
857.7073	1076.6117	12263.3	11381.05
857.8523	1078.5826	12284	11406.9
857.9973	1080.5527	12214.85	11334.6
858.1423	1082.5221	12146.6	11268.9
858.2873	1084.4908	12130.15	11252.6
858.4323	1086.4587	12095.55	11218.85
858.5773	1088.426	12059.2	11180.2
858.7223	1090.3925	12006.35	11123.75
858.8673	1092.3584	12016.9	11138.8
859.0123	1094.3235	11963.2	11085.5
859.1573	1096.2879	11936.45	11058.85
859.3022	1098.2515	11921.75	11042.85
859.4472	1100.2145	11936.55	11060.3
859.5922	1102.1767	11928.1	11047.85
859.7371	1104.1382	11916.9	11038.1
859.8821	1106.099	11890.7	11011.85
860.027	1108.0591	11897.7	11020.7
860.172	1110.0185	11912.25	11031.15
860.3169	1111.9771	11919.4	11041.6
860.4619	1113.9351	11866.35	10986.5
860.6068	1115.8923	11900.4	11021.7
860.7517	1117.8488	11877.55	10997.75
860.8967	1119.8045	11802.35	10921.85
861.0416	1121.7596	11741.55	10864.35
861.1865	1123.7139	11660.55	10782.25
861.3314	1125.6675	11591.95	10714.35
861.4763	1127.6204	11599.75	10721.7
861.6212	1129.5726	11562.45	10679.9
861.7661	1131.524	11530.8	10652.6
861.911	1133.4748	11509.05	10628.05
862.0559	1135.4248	11445.05	10565.2
862.2008	1137.3741	11418.25	10539.15
862.3457	1139.3226	11364.9	10481.2
862.4905	1141.2705	11389.25	10507.6
862.6354	1143.2176	11319.55	10433.75
862.7803	1145.164	11305.85	10424.05
862.9251	1147.1097	11276.85	10397.15
863.07	1149.0546	11249.8	10367.15
863.2148	1150.9989	11232	10351.85
863.3597	1152.9424	11227.8	10345.3
863.5045	1154.8852	11205.3	10323.95
863.6493	1156.8272	11166.1	10286.4
863.7942	1158.7686	11166.5	10278.65
863.939	1160.7092	11148.75	10269.1
864.0838	1162.6491	11090.55	10207.6
864.2286	1164.5883	11103.7	10222.1
864.3734	1166.5267	11064.55	10183
864.5182	1168.4644	11100.65	10219.5
864.663	1170.4014	11082.3	10197.05
864.8078	1172.3377	11096.6	10217.5
864.9526	1174.2732	11094.45	10213.8
865.0974	1176.2081	11153	10273.25
865.2421	1178.1421	11168.2	10285.3
865.3869	1180.0755	11225	10347.05
865.5317	1182.0082	11208.65	10326.9
865.6764	1183.9401	11171.9	10291.5
865.8212	1185.8713	11129.15	10247.85
865.9659	1187.8017	11050.9	10172.4
866.1106	1189.7315	10956.5	10078.45
866.2554	1191.6605	10844	9965.7
866.4001	1193.5888	10782.3	9903.9
866.5448	1195.5163	10764.8	9887.15
866.6895	1197.4432	10728.85	9844.95
866.8342	1199.3693	10665.3	9784.9
866.9789	1201.2947	10606.55	9719.1
867.1236	1203.2193	10568.7	9686.6
867.2683	1205.1432	10557.4	9676.5
867.413	1207.0664	10551.7	9669.55
867.5576	1208.9889	10540.3	9654
867.7023	1210.9106	10462.35	9580.55
867.847	1212.8316	10408.6	9529.55
867.9916	1214.7519	10410.05	9519.8
868.1363	1216.6715	10362.4	9481.05
868.2809	1218.5903	10395.4	9514.2
868.4255	1220.5084	10349.6	9467.75
868.5701	1222.4257	10365.45	9485.5
868.7148	1224.3424	10342.2	9461.55
868.8594	1226.2583	10315.9	9428.7
869.004	1228.1735	10296.85	9414.5
869.1486	1230.0879	10277.75	9395.1
869.2932	1232.0016	10289.7	9407.55
869.4377	1233.9146	10282.6	9398.65
869.5823	1235.8269	10251.35	9368.8
869.7269	1237.7384	10280.8	9397.95
869.8715	1239.6492	10210.6	9330.35
870.016	1241.5592	10232.95	9350.75
870.1606	1243.4686	10226.15	9344.3
870.3051	1245.3772	10251.4	9367.95
870.4496	1247.285	10259	9376.5
870.5941	1249.1922	10289.45	9407.85
870.7387	1251.0986	10286.45	9404.95
870.8832	1253.0042	10286.2	9403.5
871.0277	1254.9092	10341.25	9459.3
871.1722	1256.8134	10369.75	9486.65
871.3167	1258.7169	10397.6	9516.5
871.4611	1260.6196	10414.2	9535.75
871.6056	1262.5216	10406.95	9523.05
871.7501	1264.4229	10390.4	9510.95
871.8945	1266.3234	10355.3	9470.55
872.039	1268.2232	10318.45	9434.35
872.1834	1270.1223	10276.1	9393.85
872.3278	1272.0207	10236	9354
872.4723	1273.9183	10199.2	9309.9
872.6167	1275.8151	10173.3	9291.3
872.7611	1277.7113	10201.6	9319.25
872.9055	1279.6067	10206.4	9325.2
873.0499	1281.5014	10270.75	9387.05
873.1943	1283.3953	10352.25	9466.3
873.3386	1285.2885	10465.65	9586
873.483	1287.181	10542.65	9658.6
873.6274	1289.0727	10549.1	9667.55
873.7717	1290.9637	10531.4	9648.75
873.9161	1292.854	10485.3	9601.2
874.0604	1294.7435	10390.5	9506.45
874.2047	1296.6323	10310.4	9426.9
874.349	1298.5204	10252.35	9364.1
874.4933	1300.4077	10201.1	9317.75
874.6376	1302.2943	10167.95	9286.05
874.7819	1304.1802	10146.8	9265.3
874.9262	1306.0653	10091.65	9207.95
875.0705	1307.9497	10071.9	9188.5
875.2147	1309.8333	10045.75	9163.5
875.359	1311.7162	10024.05	9139.85
875.5032	1313.5984	9979.3	9095.3
875.6475	1315.4798	9937.35	9039.3
875.7917	1317.3605	9931.45	9030.3
875.9359	1319.2405	9926.55	9041.5
876.0801	1321.1197	9892.6	9007.45
876.2243	1322.9982	9833.15	8945.15
876.3685	1324.876	9825.25	8942.45
876.5127	1326.753	9725.2	8839.6
876.6569	1328.6293	9696.6	8812.75
876.801	1330.5048	9654	8768.2
876.9452	1332.3796	9575.35	8694.6
877.0893	1334.2537	9526.7	8618.8
877.2335	1336.127	9479.6	8596.75
877.3776	1337.9996	9450.15	8563.7
877.5217	1339.8714	9416.65	8531.15
877.6658	1341.7426	9423.7	8495.9
877.8099	1343.6129	9382.7	8498.2
877.954	1345.4826	9349.95	8465.85
878.0981	1347.3515	9350.85	8464.05
878.2422	1349.2196	9318.4	8434.3
878.3862	1351.087	9305.4	8421
878.5303	1352.9537	9302.2	8419.6
878.6743	1354.8197	9286.55	8402.85
878.8184	1356.6849	9294.7	8409.3
878.9624	1358.5493	9264.6	8380.55
879.1064	1360.4131	9272.75	8390.5
879.2504	1362.276	9271.35	8387.25
879.3944	1364.1383	9270.35	8386.6
879.5384	1365.9998	9277	8387.05
879.6823	1367.8606	9245.55	8360.75
879.8263	1369.7206	9210.3	8325.65
879.9702	1371.5799	9197.7	8311
880.1142	1373.4384	9153.2	8270.1
880.2581	1375.2962	9131.6	8245.4
880.402	1377.1533	9065.75	8182.55
880.5459	1379.0096	8994.25	8109.4
880.6898	1380.8652	9001.25	8117.3
880.8337	1382.7201	8924.9	8042.75
880.9776	1384.5742	8886.45	7998.95
881.1215	1386.4275	8820.35	7935.25
881.2653	1388.2802	8768.2	7883.7
881.4092	1390.132	8760.3	7874.9
881.553	1391.9832	8736.6	7851.55
881.6968	1393.8336	8704.2	7820.55
881.8406	1395.6832	8676.75	7791.6
881.9844	1397.5322	8644.8	7758.9
882.1282	1399.3803	8625.1	7736.6
882.272	1401.2278	8588.45	7705.25
882.4158	1403.0745	8540.25	7657
882.5595	1404.9204	8506.4	7621.95
882.7033	1406.7656	8513.3	7627.9
882.847	1408.6101	8459.5	7574.8
882.9908	1410.4538	8431.95	7547.5
883.1345	1412.2968	8420.55	7535.65
883.2782	1414.139	8387.25	7502.55
883.4219	1415.9805	8359.45	7475.35
883.5656	1417.8213	8334.4	7444.05
883.7092	1419.6613	8330.15	7447.45
883.8529	1421.5006	8320.05	7433.1
883.9965	1423.3391	8345.65	7459.9
884.1402	1425.1769	8342.5	7457.3
884.2838	1427.0139	8361.25	7475.95
884.4274	1428.8502	8388.45	7500.75
884.571	1430.6858	8422.15	7535.15
884.7146	1432.5206	8402.8	7518.4
884.8582	1434.3547	8376.3	7489.85
885.0018	1436.188	8372.15	7488.35
885.1453	1438.0206	8357.95	7476
885.2889	1439.8524	8324.1	7438.4
885.4324	1441.6835	8322.25	7437.65
885.5759	1443.5139	8309.75	7424.1
885.7194	1445.3435	8276.7	7391.3
885.8629	1447.1724	8267.45	7382.35
886.0064	1449.0005	8257.05	7373.05
886.1499	1450.8279	8208.1	7319.95
886.2933	1452.6545	8204.15	7318.85
886.4368	1454.4804	8206.6	7322.6
886.5802	1456.3056	8191.6	7301.15
886.7237	1458.13	8168	7284.85
886.8671	1459.9536	8157.7	7273.6
887.0105	1461.7766	8122.9	7238.4
887.1539	1463.5987	8069	7184.9
887.2972	1465.4202	8018.05	7133.3
887.4406	1467.2409	7995.7	7108.8
887.584	1469.0608	7945.55	7060.25
887.7273	1470.88	7925.95	7041.7
887.8706	1472.6984	7909.5	7025.65
888.0139	1474.5161	7857.2	6970.9
888.1572	1476.3331	7844.55	6962.3
888.3005	1478.1493	7833	6945.65
888.4438	1479.9648	7831.6	6947.1
888.5871	1481.7795	7796.85	6912.8
888.7303	1483.5935	7777.2	6892.85
888.8736	1485.4067	7765.7	6881.3
889.0168	1487.2192	7755.8	6869.1
889.16	1489.031	7758	6872.55
889.3032	1490.842	7739.25	6853.15
889.4464	1492.6522	7728.25	6845.15
889.5896	1494.4618	7706.1	6820.2
889.7327	1496.2705	7688.45	6802.55
889.8759	1498.0785	7676.05	6791.5
890.019	1499.8858	7639.6	6755.5
890.1622	1501.6924	7622.65	6740.45
890.3053	1503.4981	7606.25	6722.6
890.4484	1505.3032	7571.05	6686.3
890.5914	1507.1075	7560.2	6676
890.7345	1508.911	7533.1	6646.1
890.8776	1510.7138	7514.6	6626.95
891.0206	1512.5159	7493	6611.5
891.1637	1514.3172	7461.35	6576.4
891.3067	1516.1178	7411.4	6530.35
891.4497	1517.9176	7424.65	6536.75
891.5927	1519.7166	7392.6	6508.95
891.7357	1521.515	7376.1	6488.1
891.8786	1523.3126	7356.45	6470.3
892.0216	1525.1094	7330.85	6445.45
892.1645	1526.9055	7295.85	6412.6
892.3074	1528.7008	7251.4	6367.85
892.4503	1530.4954	7211.35	6325.7
892.5932	1532.2893	7207.15	6323.7
892.7361	1534.0824	7169.55	6279.35
892.879	1535.8747	7155.45	6271.45
893.0218	1537.6663	7111.5	6227.5
893.1647	1539.4572	7114.85	6231.3
893.3075	1541.2473	7084.85	6199.8
893.4503	1543.0367	7067.5	6185.7
893.5931	1544.8253	7035.1	6145.55
893.7359	1546.6132	7043.25	6156.65
893.8787	1548.4003	7022.8	6129.8
894.0214	1550.1867	6996.75	6104.15
894.1642	1551.9723	6953.15	6064.95
894.3069	1553.7572	6954.95	6069.75
894.4496	1555.5414	6974.8	6093.7
894.5923	1557.3247	6945.25	6062.9
894.735	1559.1074	6930.75	6047.4
894.8777	1560.8893	6936.6	6053.7
895.0204	1562.6705	6934.35	6052.35
895.163	1564.4509	6935.95	6054.25
895.3056	1566.2305	6906.35	6024.9
895.4482	1568.0094	6911.65	6031.3
895.5908	1569.7876	6916	6033.9
895.7334	1571.565	6876.75	5992.85
895.876	1573.3417	6859.6	5975.8
896.0186	1575.1176	6853.2	5970.65
896.1611	1576.8928	6850.6	5968.2
896.3036	1578.6672	6812.3	5930.3
896.4461	1580.4409	6793.25	5910.8
896.5886	1582.2138	6792.05	5906
896.7311	1583.986	6774	5891.85
896.8736	1585.7575	6811.45	5931.75
897.0161	1587.5282	6804.35	5922.8
897.1585	1589.2981	6801.55	5922.1
897.3009	1591.0673	6796.1	5912.05
897.4433	1592.8358	6805.35	5924.6
897.5857	1594.6035	6784.4	5898.8
897.7281	1596.3704	6733.75	5849.05
897.8705	1598.1366	6700.5	5818.8
898.0128	1599.9021	6668.45	5785.85
898.1551	1601.6668	6633.7	5750.35
898.2975	1603.4308	6598.95	5715.55
898.4398	1605.194	6592	5702.5
898.5821	1606.9564	6568.55	5688.1
898.7243	1608.7182	6586.9	5702.25
898.8666	1610.4791	6621.75	5742.95
899.0088	1612.2394	6636.55	5757.3
899.1511	1613.9988	6689.8	5810.05
899.2933	1615.7576	6720.35	5839.95
899.4355	1617.5156	6732	5843.5
899.5776	1619.2728	6702.65	5819.1
899.7198	1621.0293	6626.15	5744.3
899.862	1622.785	6559.55	5673.25
900.0041	1624.54	6438.9	5556.65
900.1462	1626.2942	6365.95	5483.4
900.2883	1628.0477	6270.6	5386.25
900.4304	1629.8005	6202	5316.5
900.5725	1631.5525	6151.6	5269.7
900.7145	1633.3037	6091.35	5209.3
900.8566	1635.0542	6052.45	5171.25
900.9986	1636.804	6007.4	5127.4
901.1406	1638.553	6033.05	5059.1
901.2826	1640.3013	5943.85	5061.65
901.4245	1642.0488	5926.85	5044.7
901.5665	1643.7955	5874.2	4994.55
901.7085	1645.5416	5857.9	4974.95
901.8504	1647.2868	5851.9	4971.8
901.9923	1649.0313	5803.05	4920.65
902.1342	1650.7751	5791	4905.9
902.2761	1652.5181	5761	4880
902.4179	1654.2604	5752.7	4871.1
902.5598	1656.0019	5730.6	4848.65
902.7016	1657.7427	5722.65	4842.4
902.8434	1659.4828	5727.15	4846
902.9852	1661.222	5722.55	4838.65
903.127	1662.9606	5731.4	4851.35
903.2687	1664.6984	5728.05	4844.3
903.4105	1666.4354	5741.85	4859.1
903.5522	1668.1717	5686.85	4803.25
903.6939	1669.9072	5640.65	4758.85
903.8356	1671.642	5603.25	4719.15
903.9773	1673.3761	5558.5	4678.9
904.119	1675.1094	5521.5	4639.7
904.2606	1676.8419	5505.8	4624.4
904.4022	1678.5737	5456.45	4573.25
904.5439	1680.3048	5420.35	4535.55
904.6855	1682.0351	5393.55	4510.1
904.827	1683.7646	5374.4	4490.6
904.9686	1685.4934	5339.35	4457.25
905.1101	1687.2215	5332.15	4447.65
905.2517	1688.9488	5303	4420.7
905.3932	1690.6754	5273.4	4391.55
905.5347	1692.4012	5269.6	4386.45
905.6761	1694.1263	5255.3	4372.8
905.8176	1695.8506	5223.65	4341
905.9591	1697.5742	5206.9	4326.15
906.1005	1699.297	5187.15	4305.9
906.2419	1701.0191	5178.95	4297.45
906.3833	1702.7404	5142.5	4260.65
906.5246	1704.461	5135.2	4253.4
906.666	1706.1808	5108.5	4224.55
906.8073	1707.8999	5085.9	4204.35
906.9487	1709.6182	5079.4	4198.2
907.09	1711.3358	5068.25	4188.45
907.2313	1713.0527	5053.35	4172.8
907.3725	1714.7688	5010.05	4123.8
907.5138	1716.4841	5016.65	4132
907.655	1718.1987	5006	4118.85
907.7962	1719.9126	4986.9	4103.8
907.9374	1721.6257	4965.35	4081.15
908.0786	1723.338	4973.7	4091.9
908.2198	1725.0496	4929.45	4048.65
908.3609	1726.7605	4933.05	4051.1
908.502	1728.4706	4934.8	4050.1
908.6431	1730.18	4905.65	4022
908.7842	1731.8886	4901.25	4023.1
908.9253	1733.5964	4908.15	4022.2
909.0664	1735.3036	4885.55	4003.65
909.2074	1737.0099	4889	4005.9
909.3484	1738.7156	4873.8	3995.15
909.4894	1740.4204	4864.55	3980.95
909.6304	1742.1246	4873	3990.9
909.7714	1743.8279	4842.5	3958.05
909.9123	1745.5306	4833	3951.65
910.0532	1747.2325	4819.8	3939.95
910.1941	1748.9336	4822.7	3942.6
910.335	1750.634	4803.9	3922.1
910.4759	1752.3336	4824.6	3943
910.6168	1754.0325	4806.65	3926.1
910.7576	1755.7307	4798.2	3916.75
910.8984	1757.4281	4802.3	3921
911.0392	1759.1247	4795.15	3905.15
911.18	1760.8206	4789.15	3901.05
911.3208	1762.5158	4767	3880.7
911.4615	1764.2102	4764.95	3884
911.6022	1765.9039	4749.45	3868.1
911.7429	1767.5968	4739.55	3858.35
911.8836	1769.289	4721.55	3839.35
912.0243	1770.9804	4723.25	3840.25
912.1649	1772.6711	4709.75	3827.2
912.3056	1774.361	4701.6	3819.1
912.4462	1776.0502	4691.25	3807.35
912.5868	1777.7386	4688.2	3803.25
912.7274	1779.4263	4681.9	3799.3
912.8679	1781.1132	4666.7	3785.55
913.0084	1782.7994	4668.8	3787.1
913.149	1784.4849	4649	3770.45
913.2895	1786.1696	4648.85	3750
913.4299	1787.8535	4632.3	3752.45
913.5704	1789.5367	4614.8	3735.15
913.7108	1791.2192	4616.1	3734.5
913.8513	1792.9009	4600.6	3687.15
913.9917	1794.5818	4615.8	3733.85
914.132	1796.2621	4577.9	3696.1
914.2724	1797.9415	4573.55	3690.9
914.4128	1799.6202	4560	3676.9
914.5531	1801.2982	4542.2	3658.9
914.6934	1802.9755	4543.6	3662.4
914.8337	1804.6519	4520.45	3638.6
914.9739	1806.3277	4521.45	3642.1
915.1142	1808.0027	4503.55	3624.15
915.2544	1809.6769	4499.25	3619.1
915.3946	1811.3504	4473.9	3591.95
915.5348	1813.0231	4477.35	3594.8
915.675	1814.6951	4471.2	3589.2
915.8151	1816.3664	4465.1	3581.3
915.9553	1818.0369	4462.75	3580.8
916.0954	1819.7067	4445.8	3564.95
916.2355	1821.3757	4441.95	3557.2
916.3755	1823.044	4416.55	3537.25
916.5156	1824.7115	4426.6	3544.95
916.6556	1826.3783	4399.5	3520.4
916.7956	1828.0443	4400.75	3519.2
916.9356	1829.7096	4390.95	3509.15
917.0756	1831.3741	4384.2	3499.4
917.2155	1833.0379	4368.95	3488.05
917.3555	1834.701	4370.35	3488.5
917.4954	1836.3633	4364.8	3483.45
917.6353	1838.0248	4348.2	3465.95
917.7751	1839.6856	4341.8	3461.2
917.915	1841.3457	4338.1	3458.35
918.0548	1843.005	4329.6	3446.75
918.1946	1844.6636	4324.25	3442.9
918.3344	1846.3214	4307.6	3426.7
918.4742	1847.9785	4291.05	3411.15
918.6139	1849.6349	4289.5	3405.9
918.7537	1851.2904	4290.85	3397.8
918.8934	1852.9453	4281.1	3399.6
919.0331	1854.5994	4258.05	3375.85
919.1727	1856.2528	4268.15	3380.9
919.3124	1857.9054	4249.8	3367.8
919.452	1859.5572	4238.25	3356.8
919.5916	1861.2083	4230.15	3349.65
919.7312	1862.8587	4251.25	3367.9
919.8708	1864.5084	4251.9	3369.2
920.0103	1866.1572	4228.2	3348.2
920.1498	1867.8054	4195.95	3312.5
920.2893	1869.4528	4185.9	3304.45
920.4288	1871.0994	4191.7	3310.5
920.5683	1872.7453	4189.6	3307.75
920.7077	1874.3905	4174	3285.2
920.8471	1876.0349	4154.7	3272.05
920.9865	1877.6786	4167.25	3284.15
921.1259	1879.3215	4161.8	3279.3
921.2653	1880.9637	4144.75	3263.05
921.4046	1882.6051	4151.15	3269.15
921.5439	1884.2458	4127.45	3243.8
921.6832	1885.8858	4124.1	3241.75
921.8225	1887.525	4109.1	3226.3
921.9617	1889.1634	4087.8	3205.55
922.101	1890.8011	4097.5	3216.65
922.2402	1892.4381	4093.55	3210.75
922.3794	1894.0743	4091	3208.45
922.5185	1895.7098	4074.85	3193.25
922.6577	1897.3446	4059.4	3176.95
922.7968	1898.9786	4060.6	3176.15
922.9359	1900.6118	4045.6	3163.5
923.075	1902.2443	4028.4	3143.75
923.214	1903.8761	4028.35	3146.3
923.3531	1905.5071	4013.55	3130.4
923.4921	1907.1374	4015.4	3133.9
923.6311	1908.7669	4000.4	3118.25
923.77	1910.3957	4001.9	3119.7
923.909	1912.0237	3979.45	3097.15
924.0479	1913.651	3961.05	3079.5
924.1868	1915.2776	3967.35	3086.15
924.3257	1916.9034	3964.8	3087.55
924.4646	1918.5285	3952.1	3071.4
924.6034	1920.1528	3918.9	3036.5
924.7422	1921.7764	3917.8	3035.8
924.881	1923.3992	3913.35	3031.2
925.0198	1925.0213	3899.05	3016.65
925.1586	1926.6427	3886.65	3005.85
925.2973	1928.2633	4049.15	2958.85
925.436	1929.8832	3907.9	3022.4
925.5747	1931.5023	3849.45	2968.35
925.7134	1933.1207	3870.8	2988.75
925.852	1934.7383	3850.8	2969.25
925.9906	1936.3552	3834.8	2952.15
926.1292	1937.9714	3832.9	2951.6
926.2678	1939.5868	3827.1	2945.3
926.4064	1941.2015	3810.55	2927.9
926.5449	1942.8154	3796.95	2915.75
926.6834	1944.4286	3786.15	2905.95
926.8219	1946.041	3806.45	2905.35
926.9604	1947.6528	3762.1	2876.75
927.0988	1949.2637	3773.25	2892
927.2372	1950.8739	3749.25	2869.25
927.3756	1952.4834	3754.95	2871.05
927.514	1954.0921	3742.4	2861.45
927.6523	1955.7001	3735	2850.85
927.7907	1957.3074	3725.7	2844.5
927.929	1958.9139	3697.35	2817.7
928.0673	1960.5197	3703.5	2821.5
928.2055	1962.1247	3692.65	2811.05
928.3438	1963.729	3679.75	2801.15
928.482	1965.3325	3700.25	2797.75
928.6202	1966.9353	3667	2786.55
928.7584	1968.5374	3655.55	2772.65
928.8965	1970.1387	3654.5	2773.75
929.0346	1971.7393	3660	2777.6
929.1727	1973.3392	3638.4	2756.35
929.3108	1974.9383	3628.45	2748
929.4489	1976.5366	3615.05	2736.3
929.5869	1978.1342	3623.4	2740.9
929.7249	1979.7311	3614.3	2732.7
929.8629	1981.3273	3605.15	2723.65
930.0009	1982.9227	3590.95	2707.55
930.1388	1984.5173	3580.35	2701.45
930.2767	1986.1112	3565.15	2686.2
930.4146	1987.7044	3572.45	2694.75
930.5525	1989.2968	3562.25	2679.85
930.6904	1990.8885	3567.7	2684.05
930.8282	1992.4795	3550.75	2668.7
930.966	1994.0697	3543.95	2665.05
931.1038	1995.6592	3552.5	2673.25
931.2415	1997.2479	3528.1	2646.15
931.3793	1998.8359	3522.7	2643
931.517	2000.4232	3518.45	2640
931.6547	2002.0097	3506	2629.5
931.7923	2003.5955	3506.75	2625.85
931.93	2005.1805	3495	2615.4
932.0676	2006.7648	3489.5	2610.15
932.2052	2008.3484	3483.35	2603.25
932.3427	2009.9312	3486.5	2605.35
932.4803	2011.5133	3473.1	2595.95
932.6178	2013.0946	3469.3	2587.8
932.7553	2014.6752	3466.65	2589.9
932.8928	2016.2551	3460.75	2580.85
933.0302	2017.8342	3450.2	2570.9
933.1676	2019.4126	3444.25	2565.65
933.305	2020.9902	3439.85	2562.9
933.4424	2022.5672	3437.3	2556
933.5798	2024.1433	3434.9	2549.55
933.7171	2025.7188	3422.8	2545.3
933.8544	2027.2935	3421.1	2541.05
933.9917	2028.8674	3414.1	2536.85
934.129	2030.4406	3423.35	2545.8
934.2662	2032.0131	3403.45	2525.85
934.4034	2033.5849	3393.65	2509.65
934.5406	2035.1559	3389.7	2511.55
934.6778	2036.7261	3386.4	2508.4
934.8149	2038.2957	3373.1	2494.7
934.952	2039.8645	3368.25	2488.45
935.0891	2041.4325	3380.65	2497.95
935.2262	2042.9998	3361.55	2483.65
935.3632	2044.5664	3368.65	2487
935.5002	2046.1323	3342.6	2464.6
935.6372	2047.6974	3354.6	2474.8
935.7742	2049.2617	3347.85	2469.65
935.9111	2050.8254	3350.95	2468.8
936.048	2052.3883	3350.75	2472.5
936.1849	2053.9504	3336.75	2458.05
936.3218	2055.5118	3324.45	2443.4
936.4586	2057.0725	3340.75	2459.1
936.5955	2058.6325	3319.85	2440.5
936.7323	2060.1917	3313.4	2436.1
936.869	2061.7502	3301.1	2418.45
937.0058	2063.3079	3298.85	2420.9
937.1425	2064.8649	3286.85	2404.3
937.2792	2066.4212	3300.9	2421.05
937.4159	2067.9767	3299.15	2418.7
937.5525	2069.5315	3275.7	2398.75
937.6891	2071.0856	3280.05	2400.6
937.8257	2072.6389	3271.1	2391.4
937.9623	2074.1915	3263	2386.5
938.0989	2075.7433	3255.55	2375.65
938.2354	2077.2945	3244.6	2367.95
938.3719	2078.8448	3230.45	2351.6
938.5084	2080.3945	3241	2362.05
938.6448	2081.9434	3248.95	2369.8
938.7812	2083.4916	3235	2355.35
938.9176	2085.039	3232.45	2351.85
939.054	2086.5857	3228.05	2348.25
939.1903	2088.1317	3227.35	2346.3
939.3267	2089.677	3215.85	2335.2
939.463	2091.2215	3215.1	2334.25
939.5992	2092.7652	3218.45	2336.95
939.7355	2094.3083	3202.95	2322.55
939.8717	2095.8506	3193.85	2315.25
940.0079	2097.3921	3186.3	2306.3
940.1441	2098.933	3186.7	2306.7
940.2802	2100.4731	3200.95	2319.75
940.4163	2102.0124	3206.7	2308.6
940.5524	2103.5511	3190.25	2309.55
940.6885	2105.089	3195.55	2315.25
940.8245	2106.6261	3190.3	2309.9
940.9606	2108.1626	3185.1	2304.7
941.0965	2109.6983	3212.15	2303.8
941.2325	2111.2332	3179.75	2300.3
941.3684	2112.7675	3156.7	2276.5
941.5044	2114.301	3163.05	2281.95
941.6403	2115.8337	3167.25	2286.5
941.7761	2117.3657	3152.1	2275.3
941.912	2118.897	3144.15	2266.3
942.0478	2120.4276	3146.9	2260.7
942.1835	2121.9575	3140.2	2258.95
942.3193	2123.4866	3137	2256.6
942.455	2125.0149	3141.75	2259.45
942.5907	2126.5426	3122.5	2244.1
942.7264	2128.0695	3131.95	2248.65
942.8621	2129.5956	3113.7	2234.65
942.9977	2131.1211	3112.6	2228.75
943.1333	2132.6458	3109.5	2229.85
943.2689	2134.1698	3106	2227.1
943.4044	2135.693	3087.25	2204.75
943.54	2137.2155	3086.65	2203.6
943.6755	2138.7373	3087.9	2208.3
943.8109	2140.2584	3099.3	2220
943.9464	2141.7787	3090.8	2205.2
944.0818	2143.2983	3074.85	2196.45
944.2172	2144.8171	3067.2	2190.85
944.3526	2146.3353	3062.8	2182.15
944.4879	2147.8527	3054.95	2177.9
944.6232	2149.3693	3058.05	2177.85
944.7585	2150.8853	3044.4	2162.25
944.8938	2152.4005	3027.8	2148.15
945.029	2153.9149	3035.2	2154.65
945.1642	2155.4287	3028.35	2150.4
945.2994	2156.9417	3039.25	2158.5
945.4346	2158.454	3026.3	2144.95
945.5697	2159.9655	3032.05	2152.2
945.7048	2161.4764	3011.4	2132.4
945.8399	2162.9865	3011.95	2132.8
945.9749	2164.4958	3001.1	2121.9
946.1099	2166.0045	2997.75	2114.3
946.2449	2167.5124	2992.75	2112.25
946.3799	2169.0195	2999.6	2121.25
946.5148	2170.526	2985.7	2106.6
946.6498	2172.0317	2992.3	2113.95
946.7846	2173.5367	2976.5	2095.35
946.9195	2175.0409	2969.55	2091.85
947.0543	2176.5445	2968.1	2090.35
947.1891	2178.0473	2964.85	2085.8
947.3239	2179.5494	2952.35	2069.35
947.4587	2181.0507	2939.35	2060.15
947.5934	2182.5513	2941.6	2060.95
947.7281	2184.0512	2944.65	2065.35
947.8628	2185.5504	2939.5	2059.3
947.9974	2187.0488	2914.2	2034.15
948.132	2188.5465	2906.15	2027.35
948.2666	2190.0435	2900	2019.45
948.4012	2191.5397	2910.5	2029.65
948.5357	2193.0353	2907.55	2030.7
948.6702	2194.5301	2894.8	2015.5
948.8047	2196.0241	2889.05	2009.3
948.9392	2197.5175	2881.95	2000.8
949.0736	2199.0101	2875.5	1992.45
949.208	2200.502	2885.65	2005.2
949.3424	2201.9931	2867.95	1988.6
949.4767	2203.4835	2864.25	1982.9
949.611	2204.9733	2854.8	1967.6
949.7453	2206.4622	2852.75	1973.45
949.8796	2207.9505	2838.55	1956.75
950.0138	2209.438	2832.35	1955.9
950.148	2210.9248	2824.95	1944.3
950.2822	2212.4109	2822.15	1945.1
950.4164	2213.8962	2821.95	1940.3
950.5505	2215.3809	2814.8	1933.2
950.6846	2216.8648	2809.3	1928.15
950.8186	2218.3479	2810.7	1925.75
950.9527	2219.8304	2801.35	1918.35
951.0867	2221.3121	2786.75	1905.45
951.2207	2222.7931	2785.95	1907.5
951.3546	2224.2733	2775.65	1895.6
951.4886	2225.7529	2763.05	1881.85
951.6225	2227.2317	2760.8	1879.85
951.7563	2228.7098	2753.55	1876.05
951.8902	2230.1872	2742.5	1864.55
952.024	2231.6638	2747.55	1868.6
952.1578	2233.1397	2747.7	1862.9
952.2916	2234.6149	2724.7	1846.25
952.4253	2236.0894	2743.65	1864.9
952.559	2237.5632	2725.8	1835.4
952.6927	2239.0362	2722	1843.4
952.8263	2240.5085	2716.2	1836.45
952.9599	2241.9801	2706	1826.9
953.0935	2243.4509	2707.6	1828.65
953.2271	2244.921	2694.3	1814.45
953.3606	2246.3904	2696.9	1814.15
953.4941	2247.8591	2687.25	1808.4
953.6276	2249.3271	2670.3	1791.45
953.7611	2250.7943	2663.85	1783.05
953.8945	2252.2608	2661.35	1782
954.0279	2253.7266	2654.2	1774.05
954.1612	2255.1917	2645.2	1765.05
954.2946	2256.656	2645.95	1767.65
954.4279	2258.1197	2648.9	1769.5
954.5612	2259.5826	2637.95	1756.95
954.6944	2261.0447	2652.4	1772.5
954.8276	2262.5062	2635.75	1755.75
954.9608	2263.9669	2630.8	1747.45
955.094	2265.4269	2624.2	1745.7
955.2271	2266.8862	2608.6	1728.45
955.3602	2268.3448	2610.7	1730.7
955.4933	2269.8026	2616.25	1735.8
955.6264	2271.2598	2597.1	1718.1
955.7594	2272.7162	2593	1714.85
955.8924	2274.1719	2591.05	1710.95
956.0253	2275.6268	2589.1	1708.3
956.1583	2277.0811	2583.85	1702.05
956.2912	2278.5346	2575.05	1696.25
956.4241	2279.9874	2584.2	1703.95
956.5569	2281.4395	2589.6	1711.3
956.6897	2282.8908	2573.25	1686.45
956.8225	2284.3414	2553.75	1673.65
956.9553	2285.7914	2549.35	1670.6
957.088	2287.2406	2538.85	1658.3
957.2207	2288.689	2555.3	1675.6
957.3534	2290.1368	2535.2	1656.55
957.486	2291.5838	2529.5	1648.3
957.6186	2293.0302	2539.25	1657.05
957.7512	2294.4758	2527	1646.4
957.8838	2295.9206	2517.6	1634.75
958.0163	2297.3648	2523.85	1644.9
958.1488	2298.8082	2508.25	1625.6
958.2813	2300.251	2519.5	1640.65
958.4137	2301.693	2503.9	1622.1
958.5461	2303.1343	2501.05	1620.5
958.6785	2304.5748	2491.35	1611.65
958.8108	2306.0147	2479.15	1598.6
958.9432	2307.4538	2488.55	1605.3
959.0754	2308.8922	2482.75	1605.9
959.2077	2310.3299	2482.35	1602.85
959.3399	2311.7669	2470.25	1592.4
959.4721	2313.2031	2469.35	1588.3
959.6043	2314.6387	2459.4	1579.15
959.7365	2316.0735	2453.4	1573.7
959.8686	2317.5076	2453.95	1574.7
960.0006	2318.941	2452.6	1573.55
960.1327	2320.3737	2438.2	1557.4
960.2647	2321.8056	2430.8	1549.85
960.3967	2323.2369	2427.8	1547.25
960.5287	2324.6674	2431.1	1548.65
960.6606	2326.0972	2424.75	1542.8
960.7925	2327.5263	2419.2	1538.25
960.9244	2328.9547	2417.25	1536.85
961.0562	2330.3823	2408.45	1527.85
961.1881	2331.8092	2414.15	1530.05
961.3198	2333.2355	2393.6	1512.8
961.4516	2334.661	2395.95	1516.35
961.5833	2336.0858	2395.7	1513
961.715	2337.5098	2394	1515.6
961.8467	2338.9332	2392.2	1509.55
961.9783	2340.3558	2381.25	1498.45
962.1099	2341.7778	2370.85	1490.7
962.2415	2343.199	2375.95	1493.05
962.373	2344.6195	2365.05	1486.3
962.5045	2346.0393	2351.2	1470.65
962.636	2347.4583	2356.85	1476.75
962.7675	2348.8767	2350.45	1468.55
962.8989	2350.2943	2329.45	1449.1
963.0303	2351.7113	2340.25	1458.45
963.1617	2353.1275	2341.5	1459.6
963.293	2354.543	2336.5	1448.8
963.4243	2355.9578	2323.65	1442.15
963.5556	2357.3718	2314.45	1432.85
963.6868	2358.7852	2321.9	1439.8
963.818	2360.1978	2302.95	1422.35
963.9492	2361.6098	2309.15	1430.7
964.0803	2363.021	2296.15	1412.65
964.2114	2364.4315	2290.25	1409.2
964.3425	2365.8413	2301.4	1420.4
964.4736	2367.2504	2273.4	1394.5
964.6046	2368.6587	2271.15	1388.85
964.7356	2370.0664	2274.2	1395.7
964.8666	2371.4733	2265.85	1384.65
964.9975	2372.8795	2262.9	1385
965.1284	2374.285	2256.95	1376.25
965.2593	2375.6899	2235.75	1355.55
965.3901	2377.0939	2229.35	1349.75
965.5209	2378.4973	2232.65	1353.4
965.6517	2379.9	2236.55	1355.4
965.7825	2381.3019	2216	1336.75
965.9132	2382.7032	2209.4	1329.7
966.0439	2384.1037	2213.3	1335.25
966.1745	2385.5035	2211.55	1330.4
966.3051	2386.9027	2207.55	1326.6
966.4357	2388.3011	2208.5	1324.75
966.5663	2389.6987	2187.1	1305
966.6968	2391.0957	2192.85	1312.5
966.8273	2392.492	2174.55	1293.55
966.9578	2393.8876	2177.9	1296.65
967.0882	2395.2824	2167.45	1287.65
967.2186	2396.6765	2163.1	1282.55
967.349	2398.07	2162.85	1281.75
967.4793	2399.4627	2156.8	1274.75
967.6097	2400.8547	2141	1261.5
967.7399	2402.246	2158.65	1273.9
967.8702	2403.6366	2132.25	1251.2
968.0004	2405.0265	2119.1	1238.3
968.1306	2406.4156	2131.9	1245.4
968.2607	2407.8041	2126.1	1241.6
968.3909	2409.1918	2119.05	1235.85
968.521	2410.5789	2111.75	1230.9
968.651	2411.9652	2105.7	1220.6
968.781	2413.3508	2098.45	1216.25
968.911	2414.7358	2092.35	1209.35
969.041	2416.12	2080	1200.55
969.1709	2417.5035	2086.85	1206.9
969.3008	2418.8863	2082.15	1199.4
969.4307	2420.2684	2079.55	1200.1
969.5606	2421.6497	2066.3	1185.5
969.6904	2423.0304	2066.4	1189.2
969.8201	2424.4104	2059.6	1175.35
969.9499	2425.7896	2063.55	1180.25
970.0796	2427.1682	2055	1175.5
970.2093	2428.546	2047	1163.35
970.3389	2429.9232	2047.6	1167.6
970.4685	2431.2996	2046.75	1166.25
970.5981	2432.6753	2038	1157.3
970.7277	2434.0503	2042.8	1160.7
970.8572	2435.4246	2031.85	1151.55
970.9867	2436.7982	2028.8	1146.35
971.1161	2438.1711	2025.4	1144.85
971.2456	2439.5433	2027.35	1144.9
971.375	2440.9148	2017	1128.6
971.5043	2442.2856	2006.15	1125.6
971.6336	2443.6557	2005.45	1123.1
971.7629	2445.025	2001.05	1122.5
971.8922	2446.3937	2005.9	1124.15
972.0214	2447.7617	1990.45	1108.35
972.1506	2449.1289	1995.6	1114.4
972.2798	2450.4955	1998.05	1115.6
972.4089	2451.8613	1981.6	1102.5
972.538	2453.2265	1992.6	1110.65
972.6671	2454.5909	1989.1	1108.75
972.7961	2455.9546	1979.15	1098
972.9251	2457.3177	1969.25	1090
973.0541	2458.68	1961.5	1079.8
973.1831	2460.0416	1972.3	1091.25
973.312	2461.4025	1968.05	1086.05
973.4408	2462.7627	1981.75	1089
973.5697	2464.1222	1959.45	1081.25
973.6985	2465.4811	1955.45	1072.4
973.8273	2466.8392	1960.45	1078.65
973.956	2468.1966	1941.75	1058.9
974.0847	2469.5533	1948.7	1067
974.2134	2470.9093	1937.35	1057.4
974.3421	2472.2645	1942.6	1058.55
974.4707	2473.6191	1930.9	1051.3
974.5993	2474.973	1928.65	1049.05
974.7278	2476.3262	1930.15	1047.05
974.8563	2477.6787	1920.45	1040.7
974.9848	2479.0305	1921.75	1044
975.1132	2480.3816	1910.05	1027.8
975.2417	2481.7319	1910.85	1029.95
975.37	2483.0816	1904.15	1022.1
975.4984	2484.4306	1902.85	1020.25
975.6267	2485.7789	1897.1	1018.7
975.755	2487.1264	1900.75	1018.2
975.8833	2488.4733	1880.65	1001.9
976.0115	2489.8195	1888.15	1000.3
976.1397	2491.165	1889.8	1007.05
976.2678	2492.5097	1875	993.1
976.3959	2493.8538	1880.55	999.4
976.524	2495.1972	1864.65	981.5
976.6521	2496.5398	1868.65	984.55
976.7801	2497.8818	1866.7	984.2
976.9081	2499.2231	1854.95	974.55
977.036	2500.5637	1857.15	974.7
977.164	2501.9035	1863	982.15
977.2918	2503.2427	1853.95	968.55
977.4197	2504.5812	1841.9	962.3
977.5475	2505.919	1841.45	958.15
977.6753	2507.256	1838.15	956.3
977.8031	2508.5924	1823.55	941
977.9308	2509.9281	1838.75	951.2
978.0585	2511.2631	1829.2	948.1
978.1861	2512.5974	1825.6	949.7
978.3137	2513.9309	1816.1	935.35
978.4413	2515.2638	1844.2	933.95
978.5689	2516.596	1813.4	932.3
978.6964	2517.9275	1807.05	926
978.8239	2519.2583	1798.5	916.85
978.9513	2520.5884	1804.5	924.4
979.0788	2521.9178	1798.4	916.75
979.2062	2523.2465	1793.9	913.1
979.3335	2524.5745	1794.6	914.25
979.4608	2525.9018	1792.85	912.05
979.5881	2527.2284	1784.5	903.6
979.7154	2528.5543	1785.55	906.25
979.8426	2529.8796	1780.9	900.1
979.9698	2531.2041	1782.75	904.6
980.0969	2532.5279	1770.9	892.95
980.224	2533.851	1767.9	887.95
980.3511	2535.1735	1767.4	887.5
980.4781	2536.4952	1762.55	882.25
980.6052	2537.8163	1763.85	883.2
980.7321	2539.1366	1763.1	883.25
980.8591	2540.4562	1755.5	872.75
980.986	2541.7752	1760.65	878.95
981.1129	2543.0935	1750.5	869.2
981.2397	2544.411	1748.85	867.25
981.3665	2545.7279	1745.75	866.15
981.4933	2547.0441	1749.05	870.2
981.62	2548.3596	1750.75	867.25
981.7467	2549.6744	1738.6	859.75
981.8734	2550.9885	1747.75	859.45
982.0001	2552.3019	1736.05	855.85
982.1267	2553.6146	1732.25	850.3
982.2532	2554.9266	1738.25	857.3
982.3798	2556.2379	1721.45	838.85
982.5063	2557.5485	1726.05	846.7
982.6327	2558.8585	1726.5	838.05
982.7592	2560.1677	1730.3	847.3
982.8856	2561.4762	1716.1	836.4
983.0119	2562.7841	1723.55	839.55
983.1383	2564.0913	1711.65	832.1
983.2646	2565.3977	1710.6	829.85
983.3908	2566.7035	1707.55	827
983.517	2568.0086	1708.4	825.8
983.6432	2569.313	1702.6	821.1
983.7694	2570.6167	1700.75	816.1
983.8955	2571.9197	1709.55	831.4
984.0216	2573.222	1704.45	819.15
984.1476	2574.5236	1686.45	807.1
984.2737	2575.8246	1698.15	816.05
984.3996	2577.1248	1693	809.35
984.5256	2578.4244	1688.2	808.05
984.6515	2579.7232	1683.75	803.5
984.7774	2581.0214	1705.55	800.05
984.9032	2582.3189	1671.55	793.05
985.029	2583.6157	1680.65	794.75
985.1548	2584.9118	1685.65	806.1
985.2806	2586.2072	1670.4	790.85
985.4063	2587.5019	1678.75	798.8
985.5319	2588.7959	1666.2	784.65
985.6576	2590.0893	1668.15	787.35
985.7832	2591.3819	1667.7	789.25
985.9087	2592.6739	1660.9	780.6
986.0343	2593.9652	1665.85	783.1
986.1597	2595.2557	1652.8	773.7
986.2852	2596.5456	1646.55	763.2
986.4106	2597.8348	1641.7	761.3
986.536	2599.1234	1642.45	762.3
986.6614	2600.4112	1646.75	766.1
986.7867	2601.6983	1642	758.9
986.912	2602.9848	1631.7	752.55
987.0372	2604.2705	1634	745.35
987.1624	2605.5556	1631.85	749.45
987.2876	2606.84	1618.8	736.1
987.4128	2608.1237	1621.25	740.35
987.5379	2609.4067	1614.25	732.05
987.6629	2610.689	1623.8	734.85
987.788	2611.9707	1620.35	737.25
987.913	2613.2516	1611.4	725.35
988.0379	2614.5319	1599.3	720.75
988.1629	2615.8115	1597.95	714.55
988.2878	2617.0903	1597.45	716.65
988.4126	2618.3685	1583.7	702.8
988.5375	2619.6461	1594.9	713.15
988.6622	2620.9229	1592.9	712.2
988.787	2622.199	1586.8	703.35
988.9117	2623.4745	1583.45	701.25
989.0364	2624.7493	1577	695.9
989.161	2626.0234	1577.55	699.55
989.2857	2627.2968	1570.1	689.6
989.4102	2628.5695	1562.45	681.85
989.5348	2629.8415	1567.4	687.85
989.6593	2631.1128	1571	688.4
989.7837	2632.3835	1552.5	670.9
989.9082	2633.6535	1553.55	672.2
990.0326	2634.9228	1557.4	677.15
990.1569	2636.1914	1545.35	664.55
990.2812	2637.4593	1556.45	671.15
990.4055	2638.7265	1543.35	661.9
990.5298	2639.9931	1539.85	659.85
990.654	2641.259	1547.1	664.7
990.7782	2642.5242	1539.55	657.9
990.9023	2643.7887	1536.55	655.85
991.0264	2645.0525	1532.65	653
991.1505	2646.3156	1536.15	656.15
991.2745	2647.5781	1526.95	647.8
991.3985	2648.8398	1526.7	647.15
991.5225	2650.1009	1527.75	640.2
991.6464	2651.3613	1517.35	635.05
991.7703	2652.6211	1521.1	641.45
991.8942	2653.8801	1514.4	635.05
992.018	2655.1385	1508.6	624.05
992.1418	2656.3961	1508.5	628.65
992.2655	2657.6531	1516.7	636.65
992.3892	2658.9094	1508.65	626.45
992.5129	2660.1651	1503.45	626
992.6366	2661.42	1498.75	618.95
992.7602	2662.6743	1502.05	620.55
992.8837	2663.9279	1505.05	623.3
993.0073	2665.1808	1497.95	616
993.1307	2666.433	1492.3	611.5
993.2542	2667.6846	1498	616.95
993.3776	2668.9354	1497	612.15
993.501	2670.1856	1486	604.75
993.6244	2671.4351	1483.1	603.8
993.7477	2672.6839	1487.6	607.1
993.8709	2673.9321	1479.65	599.35
993.9942	2675.1795	1486.55	606.7
994.1174	2676.4263	1481.25	600.5
994.2405	2677.6724	1477.4	598.5
994.3637	2678.9179	1476.3	594.75
994.4868	2680.1626	1478.05	598.65
994.6098	2681.4067	1473.9	593.9
994.7328	2682.6501	1466.85	586.55
994.8558	2683.8928	1460.2	579.2
994.9788	2685.1348	1453	573
995.1017	2686.3761	1455.6	573.45
995.2245	2687.6168	1460.25	582.4
995.3474	2688.8568	1456.45	577.05
995.4702	2690.0961	1441.05	561.55
995.5929	2691.3348	1449.65	567.9
995.7156	2692.5727	1444.9	564.05
995.8383	2693.81	1447.05	566.35
995.961	2695.0466	1440.65	562.7
996.0836	2696.2826	1443.75	563.55
996.2062	2697.5178	1460.45	559.4
996.3287	2698.7524	1430.75	551.1
996.4512	2699.9863	1441.95	559.15
996.5737	2701.2195	1433.85	555.8
996.6961	2702.452	1432.7	551.35
996.8185	2703.6839	1426.35	545.3
996.9408	2704.9151	1427.75	548.9
997.0631	2706.1456	1425.9	545.35
997.1854	2707.3755	1424.85	545.75
997.3077	2708.6046	1424.35	540.25
997.4299	2709.8331	1412.3	529.15
997.552	2711.0609	1416.35	534.9
997.6742	2712.2881	1419.95	540.25
997.7963	2713.5145	1412.55	530.5
997.9183	2714.7403	1404.95	525.6
998.0403	2715.9654	1407.35	527.6
998.1623	2717.1899	1416.75	521.2
998.2842	2718.4136	1405.8	526.05
998.4062	2719.6367	1405.45	525.15
998.528	2720.8591	1406.95	519.8
998.6498	2722.0809	1398.1	516.55
998.7716	2723.3019	1401.9	518.1
998.8934	2724.5223	1397.2	515.85
999.0151	2725.7421	1405	523.3
999.1368	2726.9611	1397.3	514.7
999.2584	2728.1795	1393	507.9
999.38	2729.3972	1388.05	508.3
999.5016	2730.6142	1384.2	492.35
999.6231	2731.8306	1381.75	502.2
999.7446	2733.0462	1379.75	498.5
999.8661	2734.2612	1378.3	492.2
999.9875	2735.4756	1372.15	490.7
1000.1089	2736.6892	1369	487.6
1000.2302	2737.9022	1363.45	484.5
1000.3515	2739.1145	1360.95	480.45
1000.4728	2740.3262	1367.4	480.45
1000.594	2741.5372	1359.9	481.3
1000.7152	2742.7475	1350.65	470.6
1000.8363	2743.9571	1352.3	470.1
1000.9575	2745.1661	1358.55	473.05
1001.0785	2746.3744	1351.55	471.35
1001.1996	2747.582	1347.9	467.05
1001.3206	2748.7889	1348.85	467.1
1001.4415	2749.9952	1348.55	470.3
1001.5625	2751.2008	1341.25	459.65
1001.6833	2752.4057	1344.7	460.2
1001.8042	2753.61	1335.75	456.15
1001.925	2754.8136	1339.2	458.05
1002.0458	2756.0165	1338.1	458.15
1002.1665	2757.2188	1327.7	448.2
1002.2872	2758.4204	1330.3	449.7
1002.4078	2759.6213	1332.45	451.65
1002.5285	2760.8215	1331.85	447.3
1002.649	2762.0211	1327.15	444.9
1002.7696	2763.22	1323.55	441.15
1002.8901	2764.4182	1321.1	438.55
1003.0106	2765.6158	1314.5	434.85
1003.131	2766.8127	1311.75	431.05
1003.2514	2768.009	1310.9	432.65
1003.3717	2769.2045	1311.7	429.9
1003.492	2770.3994	1312.05	430.5
1003.6123	2771.5936	1306.55	426.9
1003.7325	2772.7872	1311.5	432.5
1003.8527	2773.9801	1304.05	421.25
1003.9729	2775.1723	1324.35	427.2
1004.093	2776.3639	1303.4	425.05
1004.2131	2777.5548	1300.4	419.8
1004.3331	2778.745	1298.1	415.8
1004.4531	2779.9346	1293.85	414
1004.5731	2781.1235	1292.5	412.25
1004.693	2782.3117	1294.4	415.3
1004.8129	2783.4992	1291.15	412.7
1004.9328	2784.6861	1290.1	411.7
1005.0526	2785.8723	1293.6	411.85
1005.1723	2787.0579	1290.15	409.9
1005.2921	2788.2428	1282.15	403.65
1005.4118	2789.427	1279.1	400.3
1005.5314	2790.6106	1279.45	399.6
1005.651	2791.7935	1276.3	395.6
1005.7706	2792.9757	1274.05	394.8
1005.8902	2794.1573	1275.7	393.2
1006.0097	2795.3382	1275.05	396.15
1006.1291	2796.5184	1273.85	395.35
1006.2485	2797.698	1273.75	394
1006.3679	2798.8769	1269.3	390.6
1006.4873	2800.0551	1266.25	386.8
1006.6066	2801.2327	1270.4	388.7
1006.7258	2802.4096	1258.85	379.9
1006.8451	2803.5859	1261.35	381.55
1006.9642	2804.7615	1263.85	383.35
1007.0834	2805.9364	1259.2	380.15
1007.2025	2807.1106	1261.15	381.8
1007.3216	2808.2842	1257.75	375.8
1007.4406	2809.4572	1255.85	376.75
1007.5596	2810.6294	1257.55	377.35
1007.6785	2811.801	1253.7	375.7
1007.7975	2812.972	1256.2	376.25
1007.9163	2814.1423	1248.25	367.1
1008.0352	2815.3119	1256	374.75
1008.154	2816.4808	1257.05	377
1008.2727	2817.6491	1256.2	377.55
1008.3914	2818.8167	1258.95	380.5
1008.5101	2819.9837	1267.5	383.15
1008.6288	2821.15	1257.65	378.9
1008.7474	2822.3157	1260.1	381.65
1008.8659	2823.4807	1263.15	383.75
1008.9844	2824.645	1269.4	389.85
1009.1029	2825.8086	1271.95	392.25
1009.2214	2826.9716	1281.85	401.75
1009.3398	2828.134	1286	407.45
1009.4581	2829.2957	1285.35	404.75
1009.5764	2830.4567	1285.7	407.35
1009.6947	2831.617	1282.2	403.15
1009.813	2832.7767	1292.85	412.1
1009.9312	2833.9358	1294.15	415.45
1010.0493	2835.0941	1287.65	404.6
1010.1675	2836.2519	1284.55	405.45
1010.2855	2837.4089	1277.4	398.2
1010.4036	2838.5653	1280.25	401.5
1010.5216	2839.7211	1274.2	394.9
1010.6396	2840.8761	1273.1	392.25
1010.7575	2842.0306	1270.6	391.7
1010.8754	2843.1843	1263	382.95
1010.9932	2844.3374	1267.55	390.1
1011.111	2845.4899	1268.25	388.35
1011.2288	2846.6417	1270.4	391.4
1011.3465	2847.7928	1269.95	391.55
1011.4642	2848.9433	1262.5	381.45
1011.5818	2850.0931	1265.2	386.4
1011.6995	2851.2422	1268.05	386.05
1011.817	2852.3907	1271.6	393.15
1011.9345	2853.5385	1272.5	390.3
1012.052	2854.6857	1273.5	386.55
1012.1695	2855.8323	1262.55	385.05
1012.2869	2856.9781	1267.65	385.65
1012.4042	2858.1233	1272.25	393.65
1012.5216	2859.2679	1270.55	391.7
1012.6389	2860.4118	1276.2	396.95
1012.7561	2861.555	1280.05	397.15
1012.8733	2862.6976	1276.05	396.15
1012.9905	2863.8395	1278.25	399.95
1013.1076	2864.9808	1280.65	400.5
1013.2247	2866.1214	1275.05	397.85
1013.3417	2867.2614	1269.95	390.7
1013.4587	2868.4007	1275.85	394.7
1013.5757	2869.5393	1278.25	398.65
1013.6926	2870.6773	1272.25	390.45
1013.8095	2871.8146	1273.35	390.9
1013.9263	2872.9513	1275.55	393.95
1014.0431	2874.0874	1270	391.25
1014.1599	2875.2227	1272.6	392.85
1014.2766	2876.3574	1269.6	390.05
1014.3933	2877.4915	1268.15	391.1
1014.51	2878.6249	1267	387.3
1014.6266	2879.7577	1271.35	390.25
1014.7431	2880.8898	1277.05	388.5
1014.8596	2882.0212	1271.9	393.35
1014.9761	2883.152	1269.15	390.3
1015.0925	2884.2821	1277.35	398.45
1015.2089	2885.4116	1267.95	388.75
1015.3253	2886.5405	1264	386.45
1015.4416	2887.6686	1274.3	390.9
1015.5579	2888.7962	1266	388.85
1015.6741	2889.923	1265.3	386.7
1015.7903	2891.0493	1265.4	387.6
1015.9065	2892.1748	1268.5	388.95
1016.0226	2893.2997	1263.8	384.25
1016.1387	2894.424	1262.05	384.35
1016.2547	2895.5476	1263.7	385.9
1016.3707	2896.6706	1262.6	383.8
1016.4866	2897.7929	1262.45	382.65
1016.6025	2898.9145	1260.8	380.55
1016.7184	2900.0355	1259.3	379
1016.8342	2901.1559	1254.05	374.25
1016.95	2902.2756	1252.75	373.65
1017.0658	2903.3946	1248.6	370.6
1017.1815	2904.513	1250.3	369.3
1017.2971	2905.6308	1249.35	370.7
1017.4127	2906.7479	1245.45	366.15
1017.5283	2907.8643	1249.1	369.1
1017.6439	2908.9801	1244.7	364.4
1017.7594	2910.0953	1247.35	366.85
1017.8748	2911.2098	1244.7	362.5
1017.9902	2912.3236	1253	366.65
1018.1056	2913.4368	1241.95	360.8
1018.2209	2914.5494	1232.95	353.95
1018.3362	2915.6613	1241.35	356.15
1018.4515	2916.7725	1241.15	360.75
1018.5667	2917.8831	1243.7	364.25
1018.6819	2918.9931	1228.35	346
1018.797	2920.1024	1221.5	339.8
1018.9121	2921.211	1229.95	351.4
1019.0271	2922.319	1223.4	342.55
1019.1421	2923.4264	1221.1	343.1
1019.2571	2924.5331	1226.15	348.55
1019.372	2925.6391	1217.15	339.15
1019.4869	2926.7445	1213.3	337.3
1019.6017	2927.8493	1220.25	340.15
1019.7165	2928.9534	1217.45	336.7
1019.8313	2930.0569	1215.1	333.85
1019.946	2931.1597	1213.5	333.4
1020.0606	2932.2619	1220.15	340.05
1020.1753	2933.3634	1218.15	338.6
1020.2899	2934.4643	1222.05	336.1
1020.4044	2935.5645	1221	335.7
1020.5189	2936.6641	1219.1	336.6
1020.6334	2937.763	1214.05	336.8
1020.7478	2938.8613	1208.6	329
1020.8622	2939.959	1212.8	327.35
1020.9765	2941.056	1208.3	330.55
1021.0908	2942.1523	1203.6	324.3
1021.2051	2943.248	1192.4	312.95
1021.3193	2944.3431	1187.4	308.65
1021.4334	2945.4375	1181.05	302.35
1021.5476	2946.5313	1169.85	290.85
1021.6617	2947.6244	1170.45	291.4
1021.7757	2948.7169	1170.8	291.4
1021.8897	2949.8087	1157.75	279.25
1022.0037	2950.8999	1151.9	271.15
1022.1176	2951.9904	1149.65	271.3
1022.2315	2953.0803	1142.4	262.55
1022.3453	2954.1696	1139.9	261.1
1022.4591	2955.2582	1141	261.5
1022.5728	2956.3462	1134.85	254.35
1022.6865	2957.4335	1132.15	253.15
1022.8002	2958.5202	1136.95	255.3
1022.9138	2959.6062	1128	248.15
1023.0274	2960.6916	1131.95	254.75
1023.141	2961.7764	1126	245.3
1023.2545	2962.8605	1129.95	249.4
1023.3679	2963.9439	1129.4	251.7
1023.4813	2965.0267	1129.4	249
1023.5947	2966.1089	1151.95	247.65
1023.708	2967.1905	1121.05	243.95
1023.8213	2968.2714	1120.4	240.85
1023.9346	2969.3516	1123	241.65
1024.0478	2970.4312	1124.65	237.9
1024.1609	2971.5102	1121.6	243.45
1024.274	2972.5885	1119.3	241.7
1024.3871	2973.6662	1121.15	238.7
1024.5002	2974.7432	1114.75	235.35
1024.6132	2975.8196	1109	230.9
1024.7261	2976.8954	1112.45	234.1
1024.839	2977.9705	1117	237.7
1024.9519	2979.045	1114.4	234.25
1025.0647	2980.1188	1111.5	232
1025.1775	2981.192	1110.05	231.45
1025.2902	2982.2645	1108.65	230.3
1025.4029	2983.3364	1107.45	228.9
1025.5156	2984.4077	1106.4	227.3
1025.6282	2985.4783	1110.75	226.75
1025.7407	2986.5483	1101.75	223.45
1025.8532	2987.6177	1101.75	223.65
1025.9657	2988.6864	1096.5	217.55
1026.0782	2989.7545	1089	207.75
1026.1906	2990.8219	1090.7	212.8
1026.3029	2991.8887	1090.75	209
1026.4152	2992.9548	1091.6	214.35
1026.5275	2994.0204	1083.15	204.95
1026.6397	2995.0852	1083.15	204.1
1026.7519	2996.1495	1081.4	200.65
1026.864	2997.2131	1076.9	197.05
1026.9761	2998.276	1073.05	194.55
1027.0882	2999.3383	1075	193.85
1027.2002	3000.4	1071	190.75
1027.3122	3001.4611	1068.05	189.85
1027.4241	3002.5215	1066.7	188.55
1027.536	3003.5812	1064.65	186.55
1027.6478	3004.6404	1064.85	186.2
1027.7596	3005.6989	1066.8	188.4
1027.8714	3006.7567	1062.85	185.05
1027.9831	3007.8139	1077.55	175.45
1028.0947	3008.8705	1060.05	183
1028.2064	3009.9264	1061.75	179.95
1028.3179	3010.9818	1056	176.3
1028.4295	3012.0364	1059.25	181.8
1028.541	3013.0905	1052.3	172.85
1028.6524	3014.1439	1049.55	171.75
1028.7638	3015.1966	1053.9	176.8
1028.8752	3016.2487	1049.5	170.5
1028.9865	3017.3002	1058.75	172.6
1029.0978	3018.3511	1042.6	166.25
1029.209	3019.4013	1048.2	169.6
1029.3202	3020.4509	1044.25	166.55
1029.4314	3021.4998	1047.9	167.7
1029.5425	3022.5481	1043.75	163.5
1029.6535	3023.5958	1046.45	167.75
1029.7645	3024.6428	1044.85	165.3
1029.8755	3025.6892	1044	165.25
1029.9864	3026.735	1045.55	166.75
1030.0973	3027.7802	1046.75	166.9
1030.2082	3028.8247	1042.45	165.25
1030.319	3029.8685	1040.85	161.35
1030.4297	3030.9118	1041.9	161.8
1030.5404	3031.9544	1038.65	160.5
1030.6511	3032.9963	1038.25	159.85
1030.7617	3034.0376	1040.55	162.4
1030.8723	3035.0783	1039.35	159.9
1030.9829	3036.1184	1037.95	159.55
1031.0934	3037.1578	1036.3	158.75
1031.2038	3038.1966	1032.5	152.2
1031.3142	3039.2348	1034.35	157.85
1031.4246	3040.2723	1041.75	154.85
1031.5349	3041.3092	1034.3	156.75
1031.6452	3042.3455	1031.35	153.1
1031.7554	3043.3811	1035	155.6
1031.8656	3044.4161	1035.8	157.2
1031.9758	3045.4505	1034.05	157.25
1032.0859	3046.4842	1034.85	157.1
1032.1959	3047.5173	1031.2	153.65
1032.3059	3048.5498	1033.95	154.35
1032.4159	3049.5816	1030.35	151.55
1032.5258	3050.6128	1031.8	153.25
1032.6357	3051.6434	1030.5	149.75
1032.7455	3052.6734	1026.3	147.05
1032.8553	3053.7027	1031.8	153.4
1032.9651	3054.7314	1026.85	149.35
1033.0748	3055.7594	1026.65	147.8
1033.1845	3056.7868	1029.45	150.65
1033.2941	3057.8136	1025.2	147.45
1033.4037	3058.8398	1024.8	146.5
1033.5132	3059.8653	1025.35	147.15
1033.6227	3060.8902	1024.6	145.65
1033.7321	3061.9145	1023.95	147.05
1033.8415	3062.9381	1024.4	144.5
1033.9509	3063.9612	1036.5	142.5
1034.0602	3064.9835	1021.4	143.7
1034.1694	3066.0053	1021.8	139.5
1034.2787	3067.0264	1019.2	139.8
1034.3878	3068.0469	1023.7	142.1
1034.497	3069.0668	1020.25	138.55
1034.6061	3070.086	1021.4	143.2
1034.7151	3071.1046	1018.95	142.35
1034.8241	3072.1226	1018.25	138.5
1034.9331	3073.1399	1016.05	138.9
1035.042	3074.1567	1020.25	142.35
1035.1508	3075.1727	1016.8	135.6
1035.2597	3076.1882	1017.2	138.7
1035.3684	3077.203	1014	135.2
1035.4772	3078.2173	1015.25	136.75
1035.5859	3079.2308	1017.55	137.65
1035.6945	3080.2438	1016.9	134.65
1035.8031	3081.2561	1011.6	133
1035.9117	3082.2678	1007.95	128.8
1036.0202	3083.2789	1007.7	128.65
1036.1286	3084.2893	1008	131.75
1036.2371	3085.2991	1008.15	128.95
1036.3454	3086.3083	1007.45	123.55
1036.4538	3087.3169	1007.4	127.25
1036.562	3088.3248	1004.85	125.05
1036.6703	3089.3321	1004.9	124.7
1036.7785	3090.3388	1004.4	127.3
1036.8866	3091.3449	1006.7	127.05
1036.9948	3092.3503	1006.8	127.65
1037.1028	3093.3551	998.75	120.1
1037.2108	3094.3593	997.8	121.05
1037.3188	3095.3629	1001.1	121.5
1037.4267	3096.3658	1000.6	120.6
1037.5346	3097.3681	996.65	119.45
1037.6425	3098.3698	1002.45	123.25
1037.7503	3099.3708	1003.25	119.5
1037.858	3100.3713	997.75	120.35
1037.9657	3101.3711	997.05	117.6
1038.0734	3102.3702	1133.2	119.5
1038.181	3103.3688	996.05	117.1
1038.2886	3104.3667	991.6	114.7
1038.3961	3105.364	991.4	113.55
1038.5036	3106.3607	994.75	116
1038.611	3107.3568	994.9	115.15
1038.7184	3108.3522	992.55	115.65
1038.8257	3109.347	993.05	114.2
1038.933	3110.3412	996.4	114.65
1039.0403	3111.3348	988.95	112.2
1039.1475	3112.3277	989.7	112.1
1039.2547	3113.32	983.2	103.3
1039.3618	3114.3117	988.6	109.15
1039.4689	3115.3028	988.55	108.2
1039.5759	3116.2932	991.55	111.8
1039.6829	3117.2831	991.35	108.7
1039.7898	3118.2723	986.95	108.95
1039.8967	3119.2608	983.3	106.2
1040.0035	3120.2488	985.8	106.85
1040.1103	3121.2361	984.35	106
1040.2171	3122.2229	978.35	97.5
1040.3238	3123.209	982.7	102.5
1040.4305	3124.1944	981.9	103.3
1040.5371	3125.1793	984.15	104.45
1040.6437	3126.1635	980.35	103.75
1040.7502	3127.1471	978.4	100.8
1040.8567	3128.1301	977.55	101.25
1040.9631	3129.1125	979	100.4
1041.0695	3130.0942	977.05	97.5
1041.1759	3131.0753	985.2	98.15
1041.2822	3132.0558	981.7	102.95
1041.3884	3133.0357	975.4	94.1
1041.4946	3134.015	975.85	97.15
1041.6008	3134.9936	976.3	94.45
1041.7069	3135.9716	1000.85	99.6
1041.813	3136.949	974.35	95.65
1041.919	3137.9258	980.6	96.1
1042.025	3138.902	978.1	96.2
1042.1309	3139.8775	975.95	98.75
1042.2368	3140.8524	973.55	94.25
1042.3427	3141.8267	973.3	94
1042.4485	3142.8004	970.25	88.55
1042.5542	3143.7735	975.5	89.6
1042.6599	3144.7459	977.95	97.1
1042.7656	3145.7178	973.75	95.7
1042.8712	3146.689	969.4	93.05
1042.9768	3147.6596	970.65	89.6
1043.0823	3148.6295	970.1	92.85
1043.1878	3149.5989	969.95	91.25
1043.2932	3150.5676	966.85	88.65
1043.3986	3151.5357	966.85	91.25
1043.5039	3152.5032	966.4	86.75
1043.6092	3153.4701	966.75	88.55
1043.7145	3154.4364	968.25	86.25
1043.8197	3155.402	967.65	88.3
1043.9248	3156.367	967.65	87.2
1044.03	3157.3315	1002.85	86.45
1044.135	3158.2952	964.3	84.7
1044.24	3159.2584	964.45	86
1044.345	3160.221	966.5	85.95
1044.4499	3161.1829	963.65	85.1
1044.5548	3162.1442	960.45	82.1
1044.6596	3163.105	961.6	85.75
1044.7644	3164.065	962.7	85.5
1044.8692	3165.0245	964.3	82.1
1044.9739	3165.9834	961.05	83.35
1045.0785	3166.9416	962	85.95
1045.1831	3167.8993	961	83.65
1045.2877	3168.8563	961.65	81.15
1045.3922	3169.8127	961.7	83
1045.4966	3170.7684	958.7	80
1045.6011	3171.7236	957.05	77.15
1045.7054	3172.6782	956.2	77.05
1045.8098	3173.6321	960.5	82.05
1045.914	3174.5854	964.05	79.95
1046.0183	3175.5381	957.1	78.75
1046.1224	3176.4902	955.25	75.7
1046.2266	3177.4417	955.7	79.05
1046.3307	3178.3926	952.9	76.05
1046.4347	3179.3428	954.05	75.5
1046.5387	3180.2924	956.35	78.1
1046.6427	3181.2415	956.75	78.85
1046.7466	3182.1899	956.45	78.05
1046.8504	3183.1377	952.4	75.8
1046.9542	3184.0848	957	76.7
1047.058	3185.0314	953.5	75.2
1047.1617	3185.9773	955.55	74.25
1047.2654	3186.9227	953.05	74.9
1047.369	3187.8674	951.65	75.75
1047.4726	3188.8115	956.55	74.15
1047.5761	3189.755	953.05	77.25
1047.6796	3190.6979	949	71.3
1047.783	3191.6402	946.8	68.2
1047.8864	3192.5818	950.85	73.5
1047.9898	3193.5229	953.2	67.85
1048.0931	3194.4633	950.3	73.7
1048.1963	3195.4031	948.45	68.4
1048.2995	3196.3423	948.1	69.8
1048.4027	3197.2809	948.45	70.15
1048.5058	3198.2189	948.35	71.45
1048.6089	3199.1563	965.95	70.75
1048.7119	3200.0931	944.45	67.55
1048.8148	3201.0292	946.5	68.9
1048.9178	3201.9648	948.2	70.3
1049.0206	3202.8997	949.4	68.25
1049.1235	3203.834	944.55	66.85
1049.2262	3204.7677	945.55	66.4
1049.329	3205.7008	945.2	64.7
1049.4317	3206.6333	942.7	65
1049.5343	3207.5652	947.85	67.5
1049.6369	3208.4964	946.6	68.45
1049.7394	3209.4271	946.8	69.9
1049.8419	3210.3571	944.75	65.7
1049.9444	3211.2865	941.35	61.35
1050.0468	3212.2154	944.7	65.2
1050.1491	3213.1436	944.45	61.5
1050.2514	3214.0712	949.15	64.8
1050.3537	3214.9982	940.1	61
1050.4559	3215.9246	938.75	60.05
1050.5581	3216.8503	941.1	62.65
1050.6602	3217.7755	940.8	63
1050.7623	3218.7001	940.9	64.45
1050.8643	3219.624	940.8	62.35
1050.9663	3220.5473	938.05	60.4
1051.0682	3221.4701	938.95	60.4
1051.1701	3222.3922	941.25	59
1051.2719	3223.3137	937.2	57.65
1051.3737	3224.2346	938.3	60.3
1051.4754	3225.1549	936.65	57.7
1051.5771	3226.0746	934.7	57.85
1051.6788	3226.9937	937.25	56.8
1051.7804	3227.9121	935.6	57.75
1051.8819	3228.83	936.4	59.1
1051.9834	3229.7473	938.05	59.05
1052.0849	3230.6639	931.55	51.5
1052.1863	3231.5799	937.95	58.75
1052.2876	3232.4954	935.85	55.5
1052.3889	3233.4102	937.2	59.75
1052.4902	3234.3244	935.25	56.55
1052.5914	3235.238	932.8	55.05
1052.6926	3236.151	958.2	57.35
1052.7937	3237.0634	932.25	53.35
1052.8948	3237.9752	935.05	56.7
1052.9958	3238.8864	931.75	50.05
1053.0968	3239.797	932.25	55.45
1053.1977	3240.7069	931.85	53.05
1053.2986	3241.6163	931.95	51.2
1053.3994	3242.5251	929.35	53.6
1053.5002	3243.4332	931.2	53.7
1053.6009	3244.3408	932.1	54.05
1053.7016	3245.2477	930.35	52.9
1053.8022	3246.154	930	50.55
1053.9028	3247.0598	933.7	56.3
1054.0034	3247.9649	928.9	49.25
1054.1039	3248.8694	929.55	48.4
1054.2043	3249.7733	927.25	49.5
1054.3047	3250.6766	926.15	48.5
1054.4051	3251.5793	932.55	53.85
1054.5054	3252.4814	927.4	50.85
1054.6056	3253.3829	928.6	51.45
1054.7058	3254.2838	928.3	50.85
1054.806	3255.1841	924.8	47.5
1054.9061	3256.0838	926.9	48.65
1055.0061	3256.9829	923	46.85
1055.1062	3257.8814	929.5	50.4
1055.2061	3258.7792	926.35	47.7
1055.306	3259.6765	926.95	48.85
1055.4059	3260.5731	923.3	46.6
1055.5057	3261.4692	926.15	46.55
1055.6055	3262.3647	923	43.45
1055.7052	3263.2595	925.7	50.1
1055.8049	3264.1538	924.75	48.2
1055.9045	3265.0474	924.45	47.2
1056.0041	3265.9404	920.85	44.2
1056.1036	3266.8329	916.55	38.05
1056.2031	3267.7247	930.65	41.55
1056.3025	3268.616	918.4	41.55
1056.4019	3269.5066	916.2	36.95
1056.5013	3270.3966	919.25	39.6
1056.6005	3271.286	916	38.25
