Software Version:	3.9.2.0
Unit SN:	10000200
Spectrometer SN:	6960
Date:	3/6/2024 10:07:11 AM
Data Line Index:	25
Spectral Points:	2048
Integration time (ms):	125
Averages:	20
Delay (ms):	30
Sequence Number:	1
Processing:	dark subtract
Laser Power (mW):	305
Laser Current (mA):	826
Laser Diode Temp (C):	25.1
Laser Case Temp (C):	24.9
System Temp (C):	24.6
Spectrometer Temp (C):	22.3
CCD Temp (C):	0.001
Secondary Temp (C):	20.008
Heatsink Temp (C):	18.521
CCDPCB Temp (C):	31.405
SecondaryPCB Temp (C):	26.091

Wavelength	RamanShift	Raw Counts	Dark Subtracted
787.061	30.1047	781	371.9
787.2016	32.3739	793.5	386.9
787.3422	34.6426	818.2	411.35
787.4828	36.9109	846.4	436.25
787.6235	39.1787	876.15	464.1
787.7642	41.4461	905.8	488.55
787.9049	43.7131	937.35	516.85
788.0456	45.9796	983.1	558.15
788.1863	48.2456	1010.2	582.55
788.3271	50.5112	1052.25	621.05
788.4679	52.7764	1087.55	653.6
788.6087	55.0411	1134.35	695.55
788.7496	57.3054	1178.5	736
788.8904	59.5692	1220.15	774.4
789.0313	61.8326	1268.7	821.4
789.1722	64.0955	1325.35	873.9
789.3132	66.3579	1393.95	937.55
789.4541	68.6199	1487.7	1028.9
789.5951	70.8815	1637.7	1173.6
789.7361	73.1426	1942.9	1472.25
789.8771	75.4032	2754.05	2282.2
790.0181	77.6634	4812.45	4335.9
790.1592	79.9231	9994.6	9511.8
790.3003	82.1824	25586	25093.5
790.4414	84.4412	49428.15	48916.75
790.5825	86.6995	59246.2	58708.85
790.7237	88.9574	62355.8	61798.4
790.8648	91.2148	63903.7	63331.2
791.006	93.4717	64248.25	63668.6
791.1472	95.7282	64431.9	63845.05
791.2885	97.9842	64535.8	63948.15
791.4297	100.2398	64531.85	63940.5
791.571	102.4949	64539.55	63945.3
791.7123	104.7495	64554.05	63955.35
791.8536	107.0036	64512.05	63914.9
791.9949	109.2573	64618.8	64023.45
792.1363	111.5105	64548.6	63950.35
792.2777	113.7632	64564.75	63962.65
792.4191	116.0154	64631.1	64018.15
792.5605	118.2672	64715.45	64108.75
792.7019	120.5185	64709.35	64099.9
792.8434	122.7693	64711.8	64102.5
792.9849	125.0197	64601.95	63985.9
793.1264	127.2696	64811.75	64190.7
793.2679	129.519	64765.85	64141.35
793.4094	131.7679	64837	64211.05
793.551	134.0163	64665.85	64038.2
793.6926	136.2642	64753.05	64120.15
793.8342	138.5117	64866	64230.4
793.9758	140.7587	64815.5	64180.6
794.1175	143.0052	64806.15	64168.7
794.2591	145.2512	64725.2	64087.45
794.4008	147.4967	64858.35	64217.1
794.5425	149.7417	64822.95	64180.1
794.6842	151.9863	64807.65	64157.45
794.826	154.2304	64751.55	64102.05
794.9677	156.4739	64797.95	64141.3
795.1095	158.717	64884.45	64230.5
795.2513	160.9596	64833.45	64171.95
795.3931	163.2017	64749.75	64088.85
795.535	165.4433	64841.8	64177.6
795.6768	167.6844	64793.25	64126.5
795.8187	169.925	64847.65	64175.95
795.9606	172.1651	64795.4	64123.9
796.1025	174.4047	64843.6	64169.7
796.2445	176.6439	64824.2	64147.5
796.3864	178.8825	64783.3	64105.25
796.5284	181.1206	64886.35	64202.65
796.6704	183.3582	64870.85	64182.6
796.8124	185.5954	64838	64147.35
796.9544	187.832	64841.75	64147.9
797.0965	190.0681	64776.4	64077.7
797.2386	192.3037	64885.3	64183.2
797.3806	194.5388	64985.2	64279.9
797.5228	196.7734	64730.75	64024.35
797.6649	199.0075	64970.55	64261.2
797.807	201.2411	64871.75	64159.25
797.9492	203.4742	65008.7	64297.35
798.0914	205.7068	64972.1	64256.5
798.2336	207.9389	64956.4	64242.9
798.3758	210.1704	64940.35	64233.2
798.518	212.4015	65032.6	64330.6
798.6603	214.632	64933.95	64241.05
798.8025	216.862	65050.45	64360.8
798.9448	219.0915	64960.45	64263.9
799.0871	221.3205	64964.65	64269.15
799.2294	223.549	65064.05	64368.55
799.3718	225.777	65051.6	64358.5
799.5141	228.0044	65108.75	64407.4
799.6565	230.2314	65047.5	64344.05
799.7989	232.4578	65043.8	64339.35
799.9413	234.6837	65061.6	64347.4
800.0837	236.909	65261.45	64544.95
800.2262	239.1339	64989.35	64245.35
800.3687	241.3582	65110.65	64383.2
800.5111	243.582	65111.95	64352.1
800.6536	245.8053	65101.5	64358.4
800.7961	248.0281	65134.35	64396.5
800.9387	250.2503	65165.45	64421.45
801.0812	252.472	65059.25	64313.65
801.2238	254.6932	65130.85	64387.6
801.3664	256.9139	65079.2	64334.05
801.509	259.134	65279.35	64528.2
801.6516	261.3536	65079.1	64330.25
801.7942	263.5727	65163	64412.5
801.9369	265.7912	65106.6	64356.15
802.0795	268.0092	65126.4	64378.2
802.2222	270.2267	65166.1	64420.75
802.3649	272.4436	65071.6	64321.6
802.5076	274.6601	65179.05	64417.2
802.6504	276.8759	65210.65	64450.55
802.7931	279.0913	65132.75	64374.8
802.9359	281.3061	65180.35	64420.8
803.0787	283.5204	65158.7	64395.4
803.2215	285.7341	65157.5	64390.2
803.3643	287.9473	65256.4	64479.25
803.5071	290.16	65167.95	64401.45
803.6499	292.3721	65198.8	64437.8
803.7928	294.5837	65144.2	64379
803.9357	296.7947	65091.2	64326.5
804.0786	299.0052	65244.65	64479.1
804.2215	301.2152	65196.5	64429.25
804.3644	303.4246	65229.35	64464.95
804.5074	305.6334	65240	64475.65
804.6503	307.8418	65139.25	64371.25
804.7933	310.0495	65128.35	64360.45
804.9363	312.2568	65138	64365.8
805.0793	314.4635	65138.15	64363.3
805.2223	316.6696	65189	64414.25
805.3653	318.8752	65244	64460.8
805.5084	321.0802	65050.5	64273.8
805.6514	323.2847	65144.8	64364.1
805.7945	325.4887	65124.6	64341.25
805.9376	327.692	65090.25	64309.6
806.0807	329.8949	65145.95	64359.7
806.2238	332.0972	65104.3	64318.95
806.367	334.2989	65144.05	64352.35
806.5101	336.5001	65200.2	64412.25
806.6533	338.7007	65050.25	64260.4
806.7965	340.9008	65141.65	64352.2
806.9397	343.1003	65169.5	64378.05
807.0829	345.2992	65218.75	64426.3
807.2261	347.4976	65123.7	64330.7
807.3693	349.6955	65179.5	64382.15
807.5126	351.8927	65104.55	64304.2
807.6559	354.0895	65181.15	64373.4
807.7991	356.2856	65179.45	64377.5
807.9424	358.4812	65231.3	64430.05
808.0857	360.6763	65096.25	64296
808.2291	362.8707	65243.95	64437.7
808.3724	365.0646	65140.5	64331.15
808.5158	367.258	65141.25	64328.95
808.6591	369.4508	65066.15	64252.8
808.8025	371.643	65205.6	64392.75
808.9459	373.8346	65138.95	64328.25
809.0893	376.0257	65151.6	64333.25
809.2327	378.2162	65128.9	64311.95
809.3762	380.4062	65022.9	64205.65
809.5196	382.5956	65118.85	64302.1
809.6631	384.7844	65118.95	64309.7
809.8066	386.9726	65168.75	64361.9
809.9501	389.1603	65166.15	64356.3
810.0936	391.3474	65088.1	64237.95
810.2371	393.5339	65154.6	64347.3
810.3806	395.7199	65040.8	64235
810.5241	397.9052	65055.05	64248.1
810.6677	400.09	65092.8	64284.1
810.8113	402.2743	65149.25	64342.55
810.9548	404.4579	65056.85	64243.85
811.0984	406.641	65069.3	64257.1
811.2421	408.8235	65108	64291.15
811.3857	411.0054	65115.45	64297.7
811.5293	413.1868	65131.4	64309.85
811.673	415.3675	65075.5	64252.85
811.8166	417.5477	65081.95	64257.3
811.9603	419.7273	65087.25	64259.7
812.104	421.9064	65073.45	64240.55
812.2477	424.0848	65086.15	64255.4
812.3914	426.2627	65160.85	64333.1
812.5351	428.4399	65060	64232.85
812.6788	430.6166	64974.2	64143.85
812.8226	432.7928	65100.3	64264.15
812.9663	434.9683	65009.55	64176.9
813.1101	437.1432	65000.3	64164.4
813.2539	439.3176	65077.2	64244.1
813.3977	441.4914	64942.8	64113.95
813.5415	443.6645	64967.4	64135.85
813.6853	445.8371	64988.45	64153
813.8291	448.0091	64947.35	64112.7
813.973	450.1806	64892.3	64060.5
814.1168	452.3514	64948.3	64115.35
814.2607	454.5216	64881.65	64038.55
814.4046	456.6913	64938.7	64102.55
814.5485	458.8603	64942.65	64106.5
814.6924	461.0288	64864.1	64033.35
814.8363	463.1967	64950.1	64121.05
814.9802	465.3639	64938.1	64102.45
815.1241	467.5306	64797.45	63960.7
815.2681	469.6967	64890.2	64052.7
815.412	471.8622	64926.3	64091.25
815.556	474.0271	64873.55	64040
815.7	476.1914	64896.6	64057.7
815.844	478.3551	64899.1	64059.65
815.988	480.5182	64958.7	64118.8
816.132	482.6807	64841.8	64005.2
816.276	484.8426	64857.65	64025.95
816.4201	487.0039	64951.1	64113.7
816.5641	489.1647	64948.85	64107
816.7082	491.3248	64818.75	63980.7
816.8522	493.4843	64953.35	64112.4
816.9963	495.6432	64961.8	64123.15
817.1404	497.8015	64838.85	63993.55
817.2845	499.9592	64911.15	64065.2
817.4286	502.1163	64906.35	64057.65
817.5727	504.2728	64904.15	64053.35
817.7168	506.4287	64892.05	64050.4
817.861	508.5839	64837.6	63993.95
818.0051	510.7386	64883.2	64035.95
818.1493	512.8927	64909.2	64057.7
818.2935	515.0461	64859.9	64010.6
818.4377	517.199	64936.6	64083.9
818.5818	519.3512	64885.55	64034.6
818.726	521.5029	64859.85	64005.65
818.8703	523.6539	64879.8	64031.85
819.0145	525.8043	64792.1	63940.15
819.1587	527.9541	64885.35	64029.4
819.303	530.1033	64884.6	64031.25
819.4472	532.2519	64832.25	63977
819.5915	534.3999	64887.15	64034.55
819.7357	536.5472	64916.2	64064.05
819.88	538.694	64779.15	63926.9
820.0243	540.8401	64851.7	63997.9
820.1686	542.9856	64851.05	63991.55
820.3129	545.1305	64912	64051.65
820.4572	547.2748	64828.05	63964.25
820.6016	549.4185	64826.2	63960.25
820.7459	551.5615	64878.75	64017.25
820.8902	553.704	64853.1	63990.6
821.0346	555.8458	64806.5	63944.95
821.1789	557.987	64829.65	63969.3
821.3233	560.1276	64873.45	64011.45
821.4677	562.2675	64817.2	63955.85
821.6121	564.4069	64826.55	63963.9
821.7565	566.5456	64867.55	64007.75
821.9009	568.6837	64777.85	63917.15
822.0453	570.8212	64824.5	63964.35
822.1897	572.958	64712.4	63848.35
822.3342	575.0942	64813.95	63955.15
822.4786	577.2299	64753.8	63896.55
822.6231	579.3648	64745	63893.35
822.7675	581.4992	64717.35	63867.15
822.912	583.6329	64724.2	63873.25
823.0565	585.766	64709.75	63854.85
823.201	587.8985	64750.1	63894.1
823.3454	590.0304	64623.95	63740.6
823.4899	592.1616	64713.25	63847.25
823.6345	594.2922	64659.4	63793.8
823.779	596.4222	64622.75	63753.5
823.9235	598.5515	64633.85	63764.35
824.068	600.6802	64674.85	63808
824.2126	602.8083	64612.8	63745.2
824.3571	604.9358	64594.05	63723.95
824.5017	607.0626	64663.45	63792.65
824.6462	609.1888	64555.95	63681.25
824.7908	611.3144	64631.9	63758
824.9354	613.4393	64579.4	63705.85
825.08	615.5636	64527.95	63654.05
825.2246	617.6873	64575.45	63703.85
825.3692	619.8103	64523	63649.2
825.5138	621.9327	64595	63721.05
825.6584	624.0544	64590.8	63719.6
825.803	626.1756	64560.75	63691.4
825.9477	628.2961	64571.9	63697.8
826.0923	630.4159	64524.05	63649.7
826.237	632.5351	64477.05	63599.5
826.3816	634.6537	64630.3	63753.35
826.5263	636.7716	64476.1	63600.35
826.6709	638.8889	64524.7	63641.85
826.8156	641.0056	64509.7	63630.55
826.9603	643.1216	64520.8	63641.15
827.105	645.237	64556.5	63675.25
827.2497	647.3518	64458.65	63584
827.3944	649.4659	64492.45	63620.9
827.5391	651.5793	64510.75	63637.5
827.6838	653.6922	64524	63652.45
827.8285	655.8043	64402.75	63527.65
827.9733	657.9159	64549.25	63674.9
828.118	660.0268	64273.55	63398.05
828.2627	662.137	64443.45	63566.25
828.4075	664.2466	64455.95	63573.05
828.5522	666.3556	64404.1	63526.2
828.697	668.4639	64446.75	63566.95
828.8418	670.5716	64379.65	63502.6
828.9865	672.6786	64448.75	63567.6
829.1313	674.785	64333.35	63447.5
829.2761	676.8907	64343.95	63464.35
829.4209	678.9958	64365.75	63486.4
829.5657	681.1002	64399.15	63517.25
829.7105	683.204	64299.45	63409.45
829.8553	685.3072	64270.35	63387.1
830.0001	687.4097	64291.2	63405.2
830.1449	689.5115	64266.95	63383.95
830.2898	691.6127	64337.65	63456.3
830.4346	693.7132	64255.45	63374.5
830.5794	695.8131	64281.5	63376.95
830.7243	697.9123	64282.85	63396.85
830.8691	700.0109	64316.55	63428.1
831.014	702.1089	64196.9	63313.75
831.1588	704.2061	64213.95	63330.65
831.3037	706.3028	64220.6	63333.4
831.4486	708.3987	64231.95	63344.5
831.5935	710.4941	64181.85	63294.05
831.7383	712.5887	64238.6	63352.4
831.8832	714.6827	64182.5	63291.65
832.0281	716.7761	64223.9	63339.3
832.173	718.8688	64221	63338.7
832.3179	720.9608	64165.3	63273.95
832.4628	723.0522	64176.1	63280.95
832.6077	725.1429	64129.8	63237.5
832.7527	727.233	64304.7	63415.35
832.8976	729.3224	64036.75	63149
833.0425	731.4112	64102.3	63213.15
833.1874	733.4993	64112.35	63220.6
833.3324	735.5867	64111.3	63223.05
833.4773	737.6735	64072.2	63179.9
833.6222	739.7596	64005.1	63114.3
833.7672	741.845	64020.65	63131.1
833.9122	743.9298	64075.95	63181.9
834.0571	746.014	63974.65	63081.45
834.2021	748.0974	63922.7	63028.9
834.347	750.1802	64009.45	63115.8
834.492	752.2624	63890.7	62995.15
834.637	754.3439	63903	63005
834.782	756.4247	63920.4	63017.3
834.9269	758.5048	63850.65	62960.5
835.0719	760.5843	63852.25	62956.75
835.2169	762.6631	63857.25	62962.5
835.3619	764.7413	63844.1	62949.65
835.5069	766.8188	63854.6	62959.75
835.6519	768.8956	63859.55	62966.45
835.7969	770.9718	63835.85	62943.4
835.9419	773.0473	63810.35	62914.25
836.0869	775.1221	63742.35	62847.55
836.232	777.1962	63720.45	62826.7
836.377	779.2697	63690.8	62793
836.522	781.3426	63678.6	62762.1
836.667	783.4147	63685.1	62786.1
836.8121	785.4862	63668.2	62769.85
836.9571	787.557	63626.05	62730
837.1021	789.6271	63685.25	62789.75
837.2472	791.6966	63638	62740.3
837.3922	793.7654	63578.05	62683.9
837.5373	795.8335	63567.9	62671.95
837.6823	797.901	63562.95	62665
837.8274	799.9678	63541.65	62644.45
837.9724	802.0339	63524.7	62628.15
838.1175	804.0993	63501.6	62592.4
838.2626	806.1641	63494.45	62595.75
838.4076	808.2282	63458.75	62559.5
838.5527	810.2916	63477.95	62578.75
838.6978	812.3544	63478.2	62581.7
838.8428	814.4164	63436.85	62541.05
838.9879	816.4778	63438.25	62536
839.133	818.5385	63431.65	62531.1
839.2781	820.5986	63417.65	62517.65
839.4232	822.658	63400.8	62497.35
839.5682	824.7166	63415.9	62518.35
839.7133	826.7747	63360.15	62461.5
839.8584	828.832	63379.9	62481.8
840.0035	830.8886	63363.15	62461.85
840.1486	832.9446	63355.65	62455.7
840.2937	834.9999	63295	62394.4
840.4388	837.0545	63306.6	62402.3
840.5839	839.1085	63322.95	62420.25
840.729	841.1618	63309.55	62404.65
840.8741	843.2143	63245.65	62346.05
841.0192	845.2662	63218.55	62315.65
841.1643	847.3175	63223.2	62321.9
841.3095	849.368	63171.95	62268.65
841.4546	851.4179	63209.2	62308.35
841.5997	853.467	63150.95	62250.6
841.7448	855.5155	63161.3	62260.15
841.8899	857.5633	63116.35	62214.35
842.0351	859.6105	63091.15	62190.55
842.1802	861.6569	63092.55	62186.95
842.3253	863.7027	63073.95	62168
842.4704	865.7478	63059.15	62157.9
842.6156	867.7922	63047.4	62144.95
842.7607	869.8359	63050.45	62144.3
842.9058	871.8789	63013.85	62110.2
843.0509	873.9212	63033.35	62098.4
843.1961	875.9629	63012.9	62111.8
843.3412	878.0039	63007.1	62100.3
843.4863	880.0441	62988.7	62085.35
843.6315	882.0837	62965.2	62061.3
843.7766	884.1226	62975.1	62066.15
843.9218	886.1609	62982.35	62081.35
844.0669	888.1984	62954.35	62051.1
844.212	890.2352	62977.85	62078.05
844.3572	892.2714	62906	61996.75
844.5023	894.3069	62945.55	62042.75
844.6475	896.3416	62880.9	61973.05
844.7926	898.3757	62881.85	61974.8
844.9377	900.4091	62821.3	61914.8
845.0829	902.4418	62871.9	61962.85
845.228	904.4739	62818.05	61910.65
845.3732	906.5052	62832.9	61924.25
845.5183	908.5358	62779.45	61874.75
845.6635	910.5658	62733.1	61826
845.8086	912.595	62751.25	61846.25
845.9538	914.6236	62642.35	61739
846.0989	916.6515	62755.8	61848.55
846.2441	918.6786	62610.35	61701.7
846.3892	920.7051	62647	61737.95
846.5344	922.7309	62657.9	61752.4
846.6795	924.756	62629.5	61721.9
846.8246	926.7804	62603.25	61695.1
846.9698	928.8041	62468	61560.2
847.1149	930.8272	62525.95	61618.7
847.2601	932.8495	62515.35	61605.8
847.4052	934.8711	62459.95	61549.55
847.5504	936.892	62396.8	61490
847.6955	938.9123	62418.9	61510.15
847.8407	940.9318	62361.8	61455.45
847.9858	942.9506	62330.9	61419.35
848.131	944.9688	62325.15	61417.05
848.2761	946.9862	62238.2	61332.45
848.4213	949.003	62237.9	61332.85
848.5664	951.019	62149	61241.4
848.7115	953.0344	62162.1	61254.05
848.8567	955.0491	62109.3	61200.45
849.0018	957.063	62141.45	61234.7
849.147	959.0763	62146.9	61238.8
849.2921	961.0888	62068.7	61158.55
849.4373	963.1007	62095.7	61186.25
849.5824	965.1119	62107.65	61203.65
849.7275	967.1223	62067.6	61166.05
849.8727	969.1321	62100.05	61199.35
850.0178	971.1412	62018.55	61116.5
850.1629	973.1495	61974.4	61067.35
850.3081	975.1572	61998.9	61053.45
850.4532	977.1641	61965.65	61056.65
850.5983	979.1704	61929.35	61017.5
850.7435	981.1759	61898.95	60986.05
850.8886	983.1808	61844.1	60934.4
851.0337	985.1849	61808.5	60890.6
851.1788	987.1884	61826.05	60914.85
851.324	989.1911	61851.2	60939.85
851.4691	991.1932	61682.3	60773.6
851.6142	993.1945	61693.7	60785.8
851.7593	995.1951	61723.25	60812.7
851.9045	997.1951	61628.55	60712.6
852.0496	999.1943	61569.1	60661.05
852.1947	1001.1928	61526.9	60616.05
852.3398	1003.1906	61536.6	60628.3
852.4849	1005.1877	61419.1	60505.6
852.63	1007.1841	61369.4	60460.9
852.7751	1009.1798	61385.55	60477
852.9202	1011.1748	61356.9	60445.4
853.0653	1013.1691	61303.8	60393.3
853.2104	1015.1627	61121.4	60214.3
853.3555	1017.1556	61159.3	60253.35
853.5006	1019.1477	61164.85	60255.65
853.6457	1021.1392	61053.65	60146.6
853.7908	1023.1299	60947.5	60042
853.9359	1025.12	60959	60058.05
854.081	1027.1093	60919.5	60025.05
854.2261	1029.0979	60919.65	60027.35
854.3712	1031.0859	60837.3	59938.75
854.5163	1033.0731	60745.3	59840.9
854.6613	1035.0596	60760.5	59856.7
854.8064	1037.0454	60715.25	59808.5
854.9515	1039.0304	60662.95	59756.25
855.0965	1041.0148	60528.85	59622.9
855.2416	1042.9985	60542.95	59632
855.3867	1044.9814	60589.5	59681.5
855.5317	1046.9636	60464.05	59554.55
855.6768	1048.9452	60448.8	59541.6
855.8219	1050.926	60430.35	59524.4
855.9669	1052.9061	60446.35	59540
856.112	1054.8855	60390.55	59481.55
856.257	1056.8642	60335.4	59427.1
856.4021	1058.8421	60324.75	59412.3
856.5471	1060.8194	60289.8	59377.1
856.6921	1062.7959	60265.9	59358.7
856.8372	1064.7717	60297.9	59390.95
856.9822	1066.7469	60245.95	59338.15
857.1272	1068.7213	60241.95	59329.9
857.2723	1070.695	60228.65	59321.7
857.4173	1072.6679	60107.3	59198.4
857.5623	1074.6402	60136.55	59228
857.7073	1076.6117	60099.85	59186.2
857.8523	1078.5826	60067.5	59158.95
857.9973	1080.5527	60062.2	59149.3
858.1423	1082.5221	60013.5	59104.75
858.2873	1084.4908	60008.1	59096.45
858.4323	1086.4587	59934.4	59024.9
858.5773	1088.426	59954.15	59044.5
858.7223	1090.3925	59934.25	59020.2
858.8673	1092.3584	59917.05	59010.4
859.0123	1094.3235	59817.1	58907.2
859.1573	1096.2879	59816.95	58910.55
859.3022	1098.2515	59817.85	58910.85
859.4472	1100.2145	59794.75	58886.2
859.5922	1102.1767	59764.2	58853.9
859.7371	1104.1382	59755.15	58847.3
859.8821	1106.099	59730.35	58820.65
860.027	1108.0591	59695.65	58788.9
860.172	1110.0185	59662.8	58753.5
860.3169	1111.9771	59658.35	58751.15
860.4619	1113.9351	59618.4	58707.1
860.6068	1115.8923	59556.35	58647.55
860.7517	1117.8488	59504.55	58594.7
860.8967	1119.8045	59440.05	58532.6
861.0416	1121.7596	59439.45	58529.85
861.1865	1123.7139	59403.7	58496.7
861.3314	1125.6675	59393.2	58485.4
861.4763	1127.6204	59396.3	58488.85
861.6212	1129.5726	59360.55	58450
861.7661	1131.524	59337.45	58428.35
861.911	1133.4748	59320.1	58410.8
862.0559	1135.4248	59259.45	58353
862.2008	1137.3741	59238.15	58329.35
862.3457	1139.3226	59214.85	58301.95
862.4905	1141.2705	59209.55	58297.95
862.6354	1143.2176	59140.2	58223.35
862.7803	1145.164	59138.1	58225.65
862.9251	1147.1097	59090.25	58179.6
863.07	1149.0546	59088.3	58178.55
863.2148	1150.9989	59090.05	58177.35
863.3597	1152.9424	59080.9	58171.85
863.5045	1154.8852	59066.4	58154.55
863.6493	1156.8272	59018.3	58109.3
863.7942	1158.7686	59036.35	58120.1
863.939	1160.7092	58982.5	58071.25
864.0838	1162.6491	58941.7	58031.35
864.2286	1164.5883	58942.75	58033.55
864.3734	1166.5267	58921.75	58010.15
864.5182	1168.4644	58915	58007.8
864.663	1170.4014	58907.35	57992.3
864.8078	1172.3377	58921.05	58011.3
864.9526	1174.2732	58913	58006.35
865.0974	1176.2081	58896.05	57990.1
865.2421	1178.1421	58901.45	57991
865.3869	1180.0755	58924.15	58017.9
865.5317	1182.0082	58878.25	57969.65
865.6764	1183.9401	58871.95	57963.35
865.8212	1185.8713	58840.5	57935.85
865.9659	1187.8017	58784.55	57883.4
866.1106	1189.7315	58750.45	57849.75
866.2554	1191.6605	58705.15	57778.45
866.4001	1193.5888	58664.5	57761.25
866.5448	1195.5163	58595.3	57690.5
866.6895	1197.4432	58590.7	57683.35
866.8342	1199.3693	58574.55	57666.35
866.9789	1201.2947	58513.35	57600
867.1236	1203.2193	58479.95	57572.8
867.2683	1205.1432	58454.85	57548.55
867.413	1207.0664	58444.85	57537.8
867.5576	1208.9889	58404.2	57493.05
867.7023	1210.9106	58362.15	57455.45
867.847	1212.8316	58302.45	57397.45
867.9916	1214.7519	58283.75	57370.1
868.1363	1216.6715	58252.3	57342.85
868.2809	1218.5903	58220.55	57313.35
868.4255	1220.5084	58211.75	57303.7
868.5701	1222.4257	58220.7	57314.35
868.7148	1224.3424	58166.4	57262.2
868.8594	1226.2583	58058.95	57147.9
869.004	1228.1735	58100.25	57191.35
869.1486	1230.0879	58019	57112.1
869.2932	1232.0016	58027.75	57122
869.4377	1233.9146	57954.05	57046.25
869.5823	1235.8269	57961.6	57054.7
869.7269	1237.7384	57934.8	57026.95
869.8715	1239.6492	57882.15	56975.7
870.016	1241.5592	57811	56902.8
870.1606	1243.4686	57837.95	56931.95
870.3051	1245.3772	57749.1	56842.85
870.4496	1247.285	57766.35	56860.8
870.5941	1249.1922	57712.35	56804.9
870.7387	1251.0986	57754.2	56848.75
870.8832	1253.0042	57650.5	56743.35
871.0277	1254.9092	57665.25	56760.3
871.1722	1256.8134	57473.95	56569.75
871.3167	1258.7169	57649.65	56742.5
871.4611	1260.6196	57492.8	56588.35
871.6056	1262.5216	57503.85	56597.05
871.7501	1264.4229	57525.95	56617.2
871.8945	1266.3234	57595.1	56690.5
872.039	1268.2232	57537	56630.6
872.1834	1270.1223	57418.45	56510.8
872.3278	1272.0207	57401.85	56493.75
872.4723	1273.9183	57377.3	56465.8
872.6167	1275.8151	57384.05	56476.9
872.7611	1277.7113	57352.1	56446.15
872.9055	1279.6067	57235.8	56329.2
873.0499	1281.5014	57235.35	56326.15
873.1943	1283.3953	57358.85	56450.1
873.3386	1285.2885	57297.3	56391.9
873.483	1287.181	57300.4	56393.85
873.6274	1289.0727	57324.85	56419.7
873.7717	1290.9637	57081.25	56174.5
873.9161	1292.854	57351.6	56445.85
874.0604	1294.7435	57238.5	56332.35
874.2047	1296.6323	57251.85	56345.35
874.349	1298.5204	57156.85	56246.45
874.4933	1300.4077	57230.1	56322.2
874.6376	1302.2943	57075.65	56170.4
874.7819	1304.1802	57001.55	56095.25
874.9262	1306.0653	56907.45	56001.15
875.0705	1307.9497	56901.05	55995.15
875.2147	1309.8333	56888.1	55979.55
875.359	1311.7162	56807.95	55902.95
875.5032	1313.5984	56810.55	55901.6
875.6475	1315.4798	56664.5	55755.25
875.7917	1317.3605	56692.45	55767.75
875.9359	1319.2405	56669.25	55762.35
876.0801	1321.1197	56509.1	55601.15
876.2243	1322.9982	56533.35	55621.65
876.3685	1324.876	56463.25	55558.2
876.5127	1326.753	56371.55	55463.7
876.6569	1328.6293	56507.45	55599
876.801	1330.5048	56395.4	55485.2
876.9452	1332.3796	56290.65	55383.3
877.0893	1334.2537	56241.4	55309.6
877.2335	1336.127	56309	55400.25
877.3776	1337.9996	56130.75	55224.5
877.5217	1339.8714	56248.2	55339.4
877.6658	1341.7426	55976.5	55026.85
877.8099	1343.6129	56155.6	55249.05
877.954	1345.4826	56121.3	55213.5
878.0981	1347.3515	55883.05	54973.65
878.2422	1349.2196	56051.85	55146.2
878.3862	1351.087	56023.3	55115.25
878.5303	1352.9537	56003.8	55098.45
878.6743	1354.8197	56003.55	55094.9
878.8184	1356.6849	55972.9	55063.8
878.9624	1358.5493	55926.25	55019.25
879.1064	1360.4131	55800.6	54893.95
879.2504	1362.276	55955.15	55051.7
879.3944	1364.1383	55774.15	54868.15
879.5384	1365.9998	55603.85	54692.05
879.6823	1367.8606	55677.8	54770.75
879.8263	1369.7206	55508.7	54600.9
879.9702	1371.5799	55391.85	54482.15
880.1142	1373.4384	55241.6	54333.75
880.2581	1375.2962	55278.8	54370.75
880.402	1377.1533	54922.8	54017.1
880.5459	1379.0096	54793.1	53885.2
880.6898	1380.8652	54723.55	53819.85
880.8337	1382.7201	54567.1	53662.15
880.9776	1384.5742	54615.85	53710.25
881.1215	1386.4275	54214.7	53309.1
881.2653	1388.2802	54296.65	53392.45
881.4092	1390.132	54391.9	53484.65
881.553	1391.9832	54047.85	53141.1
881.6968	1393.8336	53829.5	52923.55
881.8406	1395.6832	53918.85	53008.55
881.9844	1397.5322	53931.5	53027.7
882.1282	1399.3803	53671.85	52761.7
882.272	1401.2278	53609.7	52705.15
882.4158	1403.0745	53533.2	52628.65
882.5595	1404.9204	53447.9	52545.4
882.7033	1406.7656	53456.2	52550.25
882.847	1408.6101	53234.45	52326.4
882.9908	1410.4538	53236.7	52330.1
883.1345	1412.2968	53270.25	52362.6
883.2782	1414.139	53012	52104.8
883.4219	1415.9805	53125.3	52222.2
883.5656	1417.8213	52939	52027.35
883.7092	1419.6613	53056.45	52151.65
883.8529	1421.5006	52899.9	51993.5
883.9965	1423.3391	52835.75	51926.25
884.1402	1425.1769	52857.05	51951.55
884.2838	1427.0139	52981.15	52074.95
884.4274	1428.8502	52930.75	52024.5
884.571	1430.6858	52931.3	52026.8
884.7146	1432.5206	53141.5	52239.15
884.8582	1434.3547	52949.85	52045.5
885.0018	1436.188	52877.15	51971.7
885.1453	1438.0206	52946.5	52036.3
885.2889	1439.8524	52868	51960.05
885.4324	1441.6835	52782.3	51876.9
885.5759	1443.5139	52736.2	51828.5
885.7194	1445.3435	52565.9	51662.35
885.8629	1447.1724	52618.1	51714.3
886.0064	1449.0005	52430.2	51525.2
886.1499	1450.8279	52508.35	51604
886.2933	1452.6545	52471.75	51568.4
886.4368	1454.4804	52425.85	51523.65
886.5802	1456.3056	52335.6	51423.5
886.7237	1458.13	52361.1	51457.15
886.8671	1459.9536	52426.65	51519.8
887.0105	1461.7766	52214.1	51309.4
887.1539	1463.5987	51998	51093.1
887.2972	1465.4202	52006.4	51100.35
887.4406	1467.2409	51899.3	50993.6
887.584	1469.0608	51670.35	50765.15
887.7273	1470.88	51669.15	50763
887.8706	1472.6984	51684.05	50780.8
888.0139	1474.5161	51391.85	50487.25
888.1572	1476.3331	51457.7	50555.45
888.3005	1478.1493	51224.25	50320
888.4438	1479.9648	51213.55	50308.8
888.5871	1481.7795	51240.05	50332.6
888.7303	1483.5935	51217.25	50311.75
888.8736	1485.4067	50999.6	50093.7
889.0168	1487.2192	51069.85	50165.45
889.16	1489.031	50915.95	50012.05
889.3032	1490.842	50912	50010
889.4464	1492.6522	50931.7	50028.45
889.5896	1494.4618	50790.65	49886.15
889.7327	1496.2705	50842.05	49937.95
889.8759	1498.0785	50542.35	49637.5
890.019	1499.8858	50646.6	49741.85
890.1622	1501.6924	50711.25	49808.1
890.3053	1503.4981	50464.2	49559.55
890.4484	1505.3032	50479	49576.55
890.5914	1507.1075	50332.7	49430.7
890.7345	1508.911	50304.85	49401.05
890.8776	1510.7138	50286.3	49383.25
891.0206	1512.5159	50317.25	49411.75
891.1637	1514.3172	49920.35	49019.3
891.3067	1516.1178	49954.15	49051.45
891.4497	1517.9176	50014.65	49106.5
891.5927	1519.7166	49861.2	48959.8
891.7357	1521.515	49790.6	48882.4
891.8786	1523.3126	49668.15	48766.7
892.0216	1525.1094	49686.45	48781.55
892.1645	1526.9055	49567.15	48665.7
892.3074	1528.7008	49525.55	48621.6
892.4503	1530.4954	49309.25	48405.9
892.5932	1532.2893	49381.95	48480.9
892.7361	1534.0824	49173.75	48268.3
892.879	1535.8747	49117.85	48216.4
893.0218	1537.6663	49250.25	48349.85
893.1647	1539.4572	48851	47949.2
893.3075	1541.2473	48933.8	48033.05
893.4503	1543.0367	48860.6	47959.2
893.5931	1544.8253	48701	47797.1
893.7359	1546.6132	48790.4	47887.55
893.8787	1548.4003	48635.2	47723.9
894.0214	1550.1867	48539.95	47631.5
894.1642	1551.9723	48518.45	47611.75
894.3069	1553.7572	48493.55	47593.7
894.4496	1555.5414	48484.95	47585.55
894.5923	1557.3247	48364.05	47465
894.735	1559.1074	48400.55	47506.95
894.8777	1560.8893	48343.2	47445.9
895.0204	1562.6705	48316.65	47417.75
895.163	1564.4509	48199.75	47300.45
895.3056	1566.2305	48180.65	47283.55
895.4482	1568.0094	48326.6	47431.9
895.5908	1569.7876	48261.95	47367.05
895.7334	1571.565	48078.8	47182.3
895.876	1573.3417	48110.3	47213.05
896.0186	1575.1176	48017.6	47120.45
896.1611	1576.8928	47982.2	47086.45
896.3036	1578.6672	47844.5	46950.9
896.4461	1580.4409	47793.3	46903.15
896.5886	1582.2138	47687	46790.6
896.7311	1583.986	47639.65	46743.85
896.8736	1585.7575	47616.1	46723
897.0161	1587.5282	47583.65	46690.75
897.1585	1589.2981	47551.7	46661.9
897.3009	1591.0673	47421.95	46531.05
897.4433	1592.8358	47449.9	46556.5
897.5857	1594.6035	47456.7	46561.05
897.7281	1596.3704	47425.35	46528.2
897.8705	1598.1366	47302.7	46405.55
898.0128	1599.9021	47208.85	46314.4
898.1551	1601.6668	47186.55	46290.9
898.2975	1603.4308	47146.25	46248.9
898.4398	1605.194	47219.95	46321.3
898.5821	1606.9564	47047.2	46156.9
898.7243	1608.7182	47111.55	46219.2
898.8666	1610.4791	47091.75	46204.95
899.0088	1612.2394	47118.75	46231.15
899.1511	1613.9988	47058.15	46170
899.2933	1615.7576	47128.35	46236
899.4355	1617.5156	47157.95	46260.85
899.5776	1619.2728	47197.25	46303.2
899.7198	1621.0293	47047.5	46152.75
899.862	1622.785	46977.25	46082.35
900.0041	1624.54	46893.5	45999.3
900.1462	1626.2942	46762.6	45870.15
900.2883	1628.0477	46489.25	45597.45
900.4304	1629.8005	46316.4	45422.4
900.5725	1631.5525	46295.95	45406.65
900.7145	1633.3037	46114.25	45224.05
900.8566	1635.0542	45985.7	45095.6
900.9986	1636.804	45991.1	45102
901.1406	1638.553	45835	44896.95
901.2826	1640.3013	45780.85	44888.6
901.4245	1642.0488	45621.85	44729.1
901.5665	1643.7955	45648.25	44757.35
901.7085	1645.5416	45529	44639.65
901.8504	1647.2868	45491.95	44600.75
901.9923	1649.0313	45559.85	44669.5
902.1342	1650.7751	45484.65	44591
902.2761	1652.5181	45445	44554
902.4179	1654.2604	45393.45	44504.95
902.5598	1656.0019	45461.4	44566.65
902.7016	1657.7427	45389.75	44496.85
902.8434	1659.4828	45485.95	44593.1
902.9852	1661.222	45380.75	44490.1
903.127	1662.9606	45417.4	44526.8
903.2687	1664.6984	45219.2	44326.6
903.4105	1666.4354	45138.55	44244.25
903.5522	1668.1717	44799.55	43907.45
903.6939	1669.9072	44408.6	43516.55
903.8356	1671.642	44264.15	43369.4
903.9773	1673.3761	44031.35	43140.1
904.119	1675.1094	43863.4	42971.3
904.2606	1676.8419	43543.25	42652.75
904.4022	1678.5737	43489.5	42597.2
904.5439	1680.3048	43313.65	42423.05
904.6855	1682.0351	43177.25	42284.3
904.827	1683.7646	42988.05	42092.75
904.9686	1685.4934	42978.25	42085.35
905.1101	1687.2215	42583.35	41691.95
905.2517	1688.9488	42688.25	41800.15
905.3932	1690.6754	42163.75	41272.9
905.5347	1692.4012	42335.7	41445.85
905.6761	1694.1263	42318.75	41427.3
905.8176	1695.8506	42049.55	41158.35
905.9591	1697.5742	42014.5	41124.65
906.1005	1699.297	41870.05	40981.5
906.2419	1701.0191	41806.45	40916.55
906.3833	1702.7404	41551.25	40663.45
906.5246	1704.461	41315.9	40425.4
906.666	1706.1808	41391.15	40498.5
906.8073	1707.8999	41216.9	40327.85
906.9487	1709.6182	41154.3	40266.1
907.09	1711.3358	41098.3	40211.25
907.2313	1713.0527	40951.3	40066.65
907.3725	1714.7688	40895.45	40001.05
907.5138	1716.4841	40559.85	39666.7
907.655	1718.1987	40628.15	39731.95
907.7962	1719.9126	40462.65	39575.85
907.9374	1721.6257	40435.95	39545.4
908.0786	1723.338	40448.7	39562.45
908.2198	1725.0496	40071.2	39181
908.3609	1726.7605	40048	39158.95
908.502	1728.4706	39952.95	39063.8
908.6431	1730.18	39909.35	39020.45
908.7842	1731.8886	39745.2	38857.9
908.9253	1733.5964	39633.7	38739.7
909.0664	1735.3036	39704.35	38814.85
909.2074	1737.0099	39604.7	38716.15
909.3484	1738.7156	39413.5	38528.05
909.4894	1740.4204	39265.3	38374.1
909.6304	1742.1246	39314.3	38423.8
909.7714	1743.8279	39277.5	38389.6
909.9123	1745.5306	39256.35	38367.8
910.0532	1747.2325	38857.35	37968.3
910.1941	1748.9336	38789.8	37905
910.335	1750.634	38817.35	37925.1
910.4759	1752.3336	38823.2	37934.35
910.6168	1754.0325	38575.7	37688.25
910.7576	1755.7307	38716.05	37831.1
910.8984	1757.4281	38475.45	37584.8
911.0392	1759.1247	38612.25	37714.5
911.18	1760.8206	38291.2	37397.05
911.3208	1762.5158	38268.75	37376.75
911.4615	1764.2102	38219.4	37331.6
911.6022	1765.9039	38116.8	37228.55
911.7429	1767.5968	38051.75	37165.3
911.8836	1769.289	37892.45	37006.15
912.0243	1770.9804	37941.75	37053.35
912.1649	1772.6711	37813.4	36924.25
912.3056	1774.361	37746.7	36855.45
912.4462	1776.0502	37674.75	36785.05
912.5868	1777.7386	37395.3	36504.35
912.7274	1779.4263	37478.75	36590.25
912.8679	1781.1132	37438.55	36552.25
913.0084	1782.7994	37290.4	36402.8
913.149	1784.4849	37264.35	36378.1
913.2895	1786.1696	36971.6	36079.85
913.4299	1787.8535	37101.25	36216.45
913.5704	1789.5367	37000.65	36115.7
913.7108	1791.2192	36832.55	35948.45
913.8513	1792.9009	36661	35740.3
913.9917	1794.5818	36730.5	35840.9
914.132	1796.2621	36548.35	35662.75
914.2724	1797.9415	36488.4	35602.1
914.4128	1799.6202	36398.5	35511.5
914.5531	1801.2982	36396.05	35507.65
914.6934	1802.9755	36170.75	35281.7
914.8337	1804.6519	36133.25	35247.3
914.9739	1806.3277	36194.35	35307.65
915.1142	1808.0027	35801.55	34916.7
915.2544	1809.6769	35883	34999.35
915.3946	1811.3504	35861.55	34974.45
915.5348	1813.0231	35560.75	34673.8
915.675	1814.6951	35658.65	34772
915.8151	1816.3664	35567.6	34678.2
915.9553	1818.0369	35513.55	34624.25
916.0954	1819.7067	35396.5	34510.05
916.2355	1821.3757	35483.1	34595.35
916.3755	1823.044	35269.55	34382.95
916.5156	1824.7115	35145.2	34257.4
916.6556	1826.3783	35066.45	34180.05
916.7956	1828.0443	34927.25	34043.6
916.9356	1829.7096	34852.3	33965.25
917.0756	1831.3741	34731.35	33840.2
917.2155	1833.0379	34741.5	33857.05
917.3555	1834.701	34642.4	33754.8
917.4954	1836.3633	34522.25	33636.35
917.6353	1838.0248	34485.05	33598.85
917.7751	1839.6856	34451.5	33564.5
917.915	1841.3457	34337.25	33452.55
918.0548	1843.005	34377.45	33490.95
918.1946	1844.6636	34277.55	33391.75
918.3344	1846.3214	34062.8	33175.8
918.4742	1847.9785	34114.85	33228.75
918.6139	1849.6349	34016.65	33128.4
918.7537	1851.2904	34040.35	33142.8
918.8934	1852.9453	33845.6	32954.7
919.0331	1854.5994	33807.45	32917.65
919.1727	1856.2528	33806.3	32913.4
919.3124	1857.9054	33676.4	32788.85
919.452	1859.5572	33614.3	32729.25
919.5916	1861.2083	33598.55	32709.8
919.7312	1862.8587	33624.7	32738.5
919.8708	1864.5084	33360.85	32472.8
920.0103	1866.1572	33368.5	32480.1
920.1498	1867.8054	33164.6	32277.75
920.2893	1869.4528	33141.5	32253.15
920.4288	1871.0994	33003.1	32114.25
920.5683	1872.7453	32960.55	32073.1
920.7077	1874.3905	32989.45	32097.05
920.8471	1876.0349	32816.6	31930.7
920.9865	1877.6786	32863.05	31973.1
921.1259	1879.3215	32788.35	31903.4
921.2653	1880.9637	32734.55	31845.75
921.4046	1882.6051	32666.55	31780.7
921.5439	1884.2458	32570.55	31680.85
921.6832	1885.8858	32401.05	31515.85
921.8225	1887.525	32344.5	31458.25
921.9617	1889.1634	32220	31331.9
922.101	1890.8011	32128.35	31240.1
922.2402	1892.4381	32029.25	31143.85
922.3794	1894.0743	32099.8	31212.45
922.5185	1895.7098	31944.15	31057.15
922.6577	1897.3446	31847.5	30958
922.7968	1898.9786	31852.4	30960.15
922.9359	1900.6118	31759.85	30875.15
923.075	1902.2443	31600.8	30709.8
923.214	1903.8761	31622.4	30736.8
923.3531	1905.5071	31366.7	30478.9
923.4921	1907.1374	31245.95	30359.25
923.6311	1908.7669	31251.2	30364.15
923.77	1910.3957	31247.95	30360.3
923.909	1912.0237	30995.55	30108.75
924.0479	1913.651	30934.45	30046.7
924.1868	1915.2776	30905.85	30021.75
924.3257	1916.9034	30790.25	29905.35
924.4646	1918.5285	30627.15	29739.35
924.6034	1920.1528	30474.75	29587.25
924.7422	1921.7764	30471.2	29586.35
924.881	1923.3992	30353.8	29468
925.0198	1925.0213	30180.35	29292.9
925.1586	1926.6427	30028.6	29140.65
925.2973	1928.2633	30171.05	29075.1
925.436	1929.8832	29937.85	29046.9
925.5747	1931.5023	29794	28906.45
925.7134	1933.1207	29705	28818.3
925.852	1934.7383	29653.25	28766.7
925.9906	1936.3552	29549.65	28663.85
926.1292	1937.9714	29469.75	28584.55
926.2678	1939.5868	29366.4	28478.5
926.4064	1941.2015	29196.35	28312.35
926.5449	1942.8154	29131.65	28245.8
926.6834	1944.4286	28995.5	28107.65
926.8219	1946.041	28904.65	27994.75
926.9604	1947.6528	28760.35	27868.95
927.0988	1949.2637	28723.45	27837.7
927.2372	1950.8739	28623.8	27737.3
927.3756	1952.4834	28591.75	27704.6
927.514	1954.0921	28523.45	27638.1
927.6523	1955.7001	28413.85	27523.4
927.7907	1957.3074	28330.05	27446.15
927.929	1958.9139	28163.45	27281.95
928.0673	1960.5197	28129.5	27243
928.2055	1962.1247	27999.9	27116.2
928.3438	1963.729	27856.4	26973.45
928.482	1965.3325	27751.7	26841.55
928.6202	1966.9353	27695	26811.75
928.7584	1968.5374	27613.55	26729.4
928.8965	1970.1387	27485.4	26600.6
929.0346	1971.7393	27448.1	26563.9
929.1727	1973.3392	27325.1	26440.4
929.3108	1974.9383	27200.1	26317.25
929.4489	1976.5366	27094.5	26211.95
929.5869	1978.1342	27082.3	26197.55
929.7249	1979.7311	27024.3	26139.7
929.8629	1981.3273	26915.9	26030.1
930.0009	1982.9227	26846.2	25962.8
930.1388	1984.5173	26744.05	25860.95
930.2767	1986.1112	26644.7	25761.35
930.4146	1987.7044	26632.5	25749.7
930.5525	1989.2968	26504.75	25620.55
930.6904	1990.8885	26465.15	25580
930.8282	1992.4795	26385.65	25501.95
930.966	1994.0697	26320.6	25437.6
931.1038	1995.6592	26223.65	25341.4
931.2415	1997.2479	26152.6	25269.1
931.3793	1998.8359	26045.05	25161.1
931.517	2000.4232	25890.2	25009.95
931.6547	2002.0097	25877.1	24995.8
931.7923	2003.5955	25756.85	24874.75
931.93	2005.1805	25747.25	24863.05
932.0676	2006.7648	25649.8	24767.2
932.2052	2008.3484	25597.65	24715.7
932.3427	2009.9312	25607.6	24723.45
932.4803	2011.5133	25491.1	24612.4
932.6178	2013.0946	25391.9	24511.1
932.7553	2014.6752	25323.45	24443.15
932.8928	2016.2551	25263.85	24381.85
933.0302	2017.8342	25154.9	24273.3
933.1676	2019.4126	25039.15	24158.5
933.305	2020.9902	24989.8	24109.4
933.4424	2022.5672	24938	24055.05
933.5798	2024.1433	24854.4	23970.15
933.7171	2025.7188	24785.05	23906.9
933.8544	2027.2935	24728.65	23847
933.9917	2028.8674	24612.7	23733.7
934.129	2030.4406	24539.65	23660.75
934.2662	2032.0131	24427.35	23546.9
934.4034	2033.5849	24341.3	23453.35
934.5406	2035.1559	24316.2	23437.55
934.6778	2036.7261	24278.35	23397.35
934.8149	2038.2957	24235.7	23353.65
934.952	2039.8645	24182.2	23301.7
935.0891	2041.4325	24196.25	23310.45
935.2262	2042.9998	24040.6	23159.05
935.3632	2044.5664	23994	23109.7
935.5002	2046.1323	23888.4	23008.9
935.6372	2047.6974	23844.75	22964
935.7742	2049.2617	23739.3	22859.65
935.9111	2050.8254	23730.95	22845.9
936.048	2052.3883	23699.55	22816.1
936.1849	2053.9504	23610.15	22727.6
936.3218	2055.5118	23558.15	22675.3
936.4586	2057.0725	23431.45	22545
936.5955	2058.6325	23389.25	22508.7
936.7323	2060.1917	23305.15	22425.25
936.869	2061.7502	23306.05	22423.2
937.0058	2063.3079	23166.25	22287.5
937.1425	2064.8649	23102.45	22219.6
937.2792	2066.4212	23059.8	22178.75
937.4159	2067.9767	22981.45	22100.15
937.5525	2069.5315	22888.45	22008.5
937.6891	2071.0856	22787.8	21906.65
937.8257	2072.6389	22707.65	21826.05
937.9623	2074.1915	22596.7	21718.6
938.0989	2075.7433	22500.05	21616.4
938.2354	2077.2945	22479.05	21599.25
938.3719	2078.8448	22384.9	21501.7
938.5084	2080.3945	22315.7	21434.1
938.6448	2081.9434	22329.7	21448
938.7812	2083.4916	22235.45	21352.45
938.9176	2085.039	22150.55	21266.35
939.054	2086.5857	22105.85	21217.65
939.1903	2088.1317	22053.85	21170.1
939.3267	2089.677	21990.7	21105.05
939.463	2091.2215	21891.7	21005.9
939.5992	2092.7652	21813.05	20927.95
939.7355	2094.3083	21785.05	20901.45
939.8717	2095.8506	21758.65	20876.35
940.0079	2097.3921	21744.2	20864.25
940.1441	2098.933	21686.25	20801.35
940.2802	2100.4731	21616.9	20734.1
940.4163	2102.0124	21573.55	20671.6
940.5524	2103.5511	21521.1	20636.5
940.6885	2105.089	21476.8	20594.35
940.8245	2106.6261	21429.55	20545.5
940.9606	2108.1626	21358.9	20475.8
941.0965	2109.6983	21348.05	20435.2
941.2325	2111.2332	21269.25	20387.1
941.3684	2112.7675	21183.4	20301.2
941.5044	2114.301	21141.45	20254.9
941.6403	2115.8337	21109.9	20227.1
941.7761	2117.3657	21057.45	20175.9
941.912	2118.897	21002.85	20119.55
942.0478	2120.4276	20959.2	20068.2
942.1835	2121.9575	20854.45	19970.5
942.3193	2123.4866	20868.55	19970.3
942.455	2125.0149	20796.6	19909.85
942.5907	2126.5426	20655.75	19775.75
942.7264	2128.0695	20623.25	19736.95
942.8621	2129.5956	20589	19710.8
942.9977	2131.1211	20513.65	19626.3
943.1333	2132.6458	20471.2	19591.75
943.2689	2134.1698	20445.35	19560.25
943.4044	2135.693	20385.2	19499.75
943.54	2137.2155	20318.3	19430.1
943.6755	2138.7373	20256.9	19374.2
943.8109	2140.2584	20175.2	19294.1
943.9464	2141.7787	20122.05	19236.3
944.0818	2143.2983	20057.5	19178.85
944.2172	2144.8171	19963.6	19085.35
944.3526	2146.3353	19903.4	19019.8
944.4879	2147.8527	19816.2	18933.95
944.6232	2149.3693	19822.7	18939.2
944.7585	2150.8853	19741.2	18858.75
944.8938	2152.4005	19655.3	18771.35
945.029	2153.9149	19646.75	18762.7
945.1642	2155.4287	19551.6	18667.4
945.2994	2156.9417	19532.6	18648.25
945.4346	2158.454	19470.35	18587.85
945.5697	2159.9655	19393.2	18511.55
945.7048	2161.4764	19380.3	18499.75
945.8399	2162.9865	19308.65	18424.55
945.9749	2164.4958	19251	18368.9
946.1099	2166.0045	19182.15	18296.35
946.2449	2167.5124	19136.9	18256.2
946.3799	2169.0195	19124.25	18241
946.5148	2170.526	19110.7	18227.45
946.6498	2172.0317	19035.45	18150.4
946.7846	2173.5367	18972.9	18088.45
946.9195	2175.0409	18898.05	18017.2
947.0543	2176.5445	18894.5	18011.25
947.1891	2178.0473	18836.75	17951.6
947.3239	2179.5494	18748.95	17863
947.4587	2181.0507	18675.85	17793.75
947.5934	2182.5513	18627.1	17743.05
947.7281	2184.0512	18577.65	17694.4
947.8628	2185.5504	18490.15	17607.1
947.9974	2187.0488	18394.3	17513.35
948.132	2188.5465	18349.25	17467.75
948.2666	2190.0435	18267.75	17384.55
948.4012	2191.5397	18221.9	17339.35
948.5357	2193.0353	18176.7	17292.9
948.6702	2194.5301	18101.45	17214.35
948.8047	2196.0241	18039.6	17154.15
948.9392	2197.5175	17999.35	17113.1
949.0736	2199.0101	17938.95	17051.2
949.208	2200.502	17861.65	16977.35
949.3424	2201.9931	17780.75	16898.75
949.4767	2203.4835	17735.1	16854.05
949.611	2204.9733	17673.6	16785.2
949.7453	2206.4622	17662.5	16782.4
949.8796	2207.9505	17569.25	16685.25
950.0138	2209.438	17531.1	16650.5
950.148	2210.9248	17427.45	16541.75
950.2822	2212.4109	17384.4	16502.3
950.4164	2213.8962	17342.3	16455.2
950.5505	2215.3809	17280.4	16395.7
950.6846	2216.8648	17263.1	16376.4
950.8186	2218.3479	17236.55	16347.6
950.9527	2219.8304	17142.9	16252.9
951.0867	2221.3121	17074.9	16187.2
951.2207	2222.7931	17018.9	16135.45
951.3546	2224.2733	16929.1	16044.15
951.4886	2225.7529	16897.1	16015.2
951.6225	2227.2317	16843.4	15956.95
951.7563	2228.7098	16826.15	15945.2
951.8902	2230.1872	16735.85	15851.8
952.024	2231.6638	16705.7	15824.75
952.1578	2233.1397	16613.95	15725.4
952.2916	2234.6149	16587.5	15706.35
952.4253	2236.0894	16544.1	15661.45
952.559	2237.5632	16512	15619.85
952.6927	2239.0362	16437	15555.65
952.8263	2240.5085	16366.45	15484.05
952.9599	2241.9801	16330.85	15447.65
953.0935	2243.4509	16229.65	15345.3
953.2271	2244.921	16221.3	15336.95
953.3606	2246.3904	16139.95	15253.3
953.4941	2247.8591	16105.95	15222.35
953.6276	2249.3271	16065.1	15182.45
953.7611	2250.7943	16001.65	15115.95
953.8945	2252.2608	15930.3	15046.2
954.0279	2253.7266	15891.85	15009.7
954.1612	2255.1917	15859.85	14975.55
954.2946	2256.656	15804.95	14923.45
954.4279	2258.1197	15752.1	14870.35
954.5612	2259.5826	15731.4	14846.65
954.6944	2261.0447	15675.6	14790.35
954.8276	2262.5062	15615.2	14727.75
954.9608	2263.9669	15570.5	14685.05
955.094	2265.4269	15553.95	14668.7
955.2271	2266.8862	15486.1	14603.25
955.3602	2268.3448	15451.35	14567.7
955.4933	2269.8026	15434.4	14553.15
955.6264	2271.2598	15378.1	14494.65
955.7594	2272.7162	15350.35	14469.15
955.8924	2274.1719	15302.9	14419.65
956.0253	2275.6268	15238.95	14352.85
956.1583	2277.0811	15219.6	14333.75
956.2912	2278.5346	15169.7	14288.95
956.4241	2279.9874	15153.85	14270
956.5569	2281.4395	15125.5	14245.85
956.6897	2282.8908	15045.8	14156.35
956.8225	2284.3414	15036	14150.4
956.9553	2285.7914	14987.35	14103.95
957.088	2287.2406	14887.1	14000.55
957.2207	2288.689	14874.6	13991.85
957.3534	2290.1368	14830.7	13943.6
957.486	2291.5838	14807.05	13918.7
957.6186	2293.0302	14763.75	13875.5
957.7512	2294.4758	14645.3	13762.25
957.8838	2295.9206	14609.45	13724.1
958.0163	2297.3648	14582.1	13697.45
958.1488	2298.8082	14564.9	13682.95
958.2813	2300.251	14537.7	13651.3
958.4137	2301.693	14465.05	13578.05
958.5461	2303.1343	14446.95	13562.15
958.6785	2304.5748	14389.15	13505.6
958.8108	2306.0147	14307.15	13422.9
958.9432	2307.4538	14302.05	13418.05
959.0754	2308.8922	14273.55	13391.45
959.2077	2310.3299	14210.1	13325.55
959.3399	2311.7669	14203.2	13321.15
959.4721	2313.2031	14164.65	13281.95
959.6043	2314.6387	14083.35	13198.9
959.7365	2316.0735	14051.35	13168.3
959.8686	2317.5076	14023.65	13142.05
960.0006	2318.941	13963.35	13079.05
960.1327	2320.3737	13922.15	13036.35
960.2647	2321.8056	13883.35	12996.4
960.3967	2323.2369	13826.6	12940.05
960.5287	2324.6674	13793.65	12908.85
960.6606	2326.0972	13746.05	12859.5
960.7925	2327.5263	13723.1	12839.05
960.9244	2328.9547	13691.7	12808.4
961.0562	2330.3823	13612.55	12726.35
961.1881	2331.8092	13616.75	12727.5
961.3198	2333.2355	13541.45	12655.5
961.4516	2334.661	13557.45	12673.3
961.5833	2336.0858	13514.65	12627.45
961.715	2337.5098	13460.35	12574.95
961.8467	2338.9332	13447	12561.15
961.9783	2340.3558	13377.15	12490
962.1099	2341.7778	13360.45	12476.8
962.2415	2343.199	13291.05	12405.45
962.373	2344.6195	13258	12374.8
962.5045	2346.0393	13217.4	12334
962.636	2347.4583	13207.25	12323.3
962.7675	2348.8767	13135.95	12251.45
962.8989	2350.2943	13104.75	12217.7
963.0303	2351.7113	13089.7	12202.65
963.1617	2353.1275	13042.7	12155.75
963.293	2354.543	13001.6	12107.2
963.4243	2355.9578	12941	12055.4
963.5556	2357.3718	12884.6	12001
963.6868	2358.7852	12816.45	11930.95
963.818	2360.1978	12798.15	11911.4
963.9492	2361.6098	12782.5	11900.25
964.0803	2363.021	12734.8	11845.75
964.2114	2364.4315	12680	11795.9
964.3425	2365.8413	12652.05	11760.95
964.4736	2367.2504	12606.25	11725
964.6046	2368.6587	12525.65	11642.05
964.7356	2370.0664	12517.45	11636.2
964.8666	2371.4733	12479.85	11593.5
964.9975	2372.8795	12436.2	11553.5
965.1284	2374.285	12381.55	11496.7
965.2593	2375.6899	12343.3	11458.45
965.3901	2377.0939	12270.8	11387
965.5209	2378.4973	12264.2	11381.55
965.6517	2379.9	12190.45	11304.35
965.7825	2381.3019	12163.55	11281.2
965.9132	2382.7032	12111.3	11229.9
966.0439	2384.1037	12078.25	11196.6
966.1745	2385.5035	12036.15	11152.15
966.3051	2386.9027	11987.9	11106.6
966.4357	2388.3011	11971.6	11085.1
966.5663	2389.6987	11960.4	11077.5
966.6968	2391.0957	11912.75	11030.55
966.8273	2392.492	11848.05	10964.7
966.9578	2393.8876	11777.6	10893.9
967.0882	2395.2824	11762.2	10880.25
967.2186	2396.6765	11701.05	10818.75
967.349	2398.07	11651.8	10767.4
967.4793	2399.4627	11619.75	10732.95
967.6097	2400.8547	11588.9	10703.65
967.7399	2402.246	11568.75	10678.6
967.8702	2403.6366	11490.8	10605.85
968.0004	2405.0265	11451.6	10566.65
968.1306	2406.4156	11425.9	10538.2
968.2607	2407.8041	11368	10482.2
968.3909	2409.1918	11313.1	10426.15
968.521	2410.5789	11283.55	10398.6
968.651	2411.9652	11264.5	10376.35
968.781	2413.3508	11218.35	10333.85
968.911	2414.7358	11156.55	10270.25
969.041	2416.12	11137.85	10253.95
969.1709	2417.5035	11099.95	10216.9
969.3008	2418.8863	11041.3	10156.6
969.4307	2420.2684	11010.85	10128.25
969.5606	2421.6497	10951.3	10068
969.6904	2423.0304	10920.7	10038
969.8201	2424.4104	10877.25	9991.2
969.9499	2425.7896	10872.9	9988.75
970.0796	2427.1682	10845.45	9959.75
970.2093	2428.546	10797.8	9914.5
970.3389	2429.9232	10774.65	9887.65
970.4685	2431.2996	10712.65	9828.55
970.5981	2432.6753	10726.1	9842.5
970.7277	2434.0503	10683.15	9798.3
970.8572	2435.4246	10639.25	9753.7
970.9867	2436.7982	10607.7	9721.35
971.1161	2438.1711	10586.55	9702.85
971.2456	2439.5433	10544.7	9660.05
971.375	2440.9148	10487	9601.6
971.5043	2442.2856	10448.6	9564.3
971.6336	2443.6557	10424.75	9539.3
971.7629	2445.025	10368.55	9482.7
971.8922	2446.3937	10367.9	9483.65
972.0214	2447.7617	10299.45	9414.05
972.1506	2449.1289	10316.05	9432.05
972.2798	2450.4955	10259.7	9370.1
972.4089	2451.8613	10255.45	9375.4
972.538	2453.2265	10211.7	9327.7
972.6671	2454.5909	10182.75	9298.65
972.7961	2455.9546	10168.3	9283.35
972.9251	2457.3177	10107.45	9224.35
973.0541	2458.68	10081.75	9195.8
973.1831	2460.0416	10086.8	9204.55
973.312	2461.4025	10052.6	9167.85
973.4408	2462.7627	10046.4	9151.95
973.5697	2464.1222	9984.3	9102.5
973.6985	2465.4811	9966.35	9082.25
973.8273	2466.8392	9913.55	9029.4
973.956	2468.1966	9900	9014.6
974.0847	2469.5533	9891.75	9004.25
974.2134	2470.9093	9865.5	8979.9
974.3421	2472.2645	9795.15	8907.15
974.4707	2473.6191	9796	8913.85
974.5993	2474.973	9744.9	8860.4
974.7278	2476.3262	9729.2	8841.5
974.8563	2477.6787	9696.3	8813.55
974.9848	2479.0305	9621.25	8739.7
975.1132	2480.3816	9608.2	8722.55
975.2417	2481.7319	9583.25	8699.05
975.37	2483.0816	9528.7	8644.5
975.4984	2484.4306	9496	8608.65
975.6267	2485.7789	9470.6	8587.95
975.755	2487.1264	9441.3	8556.45
975.8833	2488.4733	9399	8517.55
976.0115	2489.8195	9384.9	8495.95
976.1397	2491.165	9378.6	8493.3
976.2678	2492.5097	9315.45	8431.3
976.3959	2493.8538	9282.8	8402.1
976.524	2495.1972	9224.4	8338.35
976.6521	2496.5398	9200.5	8314.25
976.7801	2497.8818	9175.9	8287.95
976.9081	2499.2231	9153	8265.45
977.036	2500.5637	9101.6	8216.25
977.164	2501.9035	9097.3	8212.4
977.2918	2503.2427	9069.2	8180.7
977.4197	2504.5812	9018.7	8135.15
977.5475	2505.919	9028.3	8141.95
977.6753	2507.256	8995.5	8110.25
977.8031	2508.5924	8949.5	8065.05
977.9308	2509.9281	8934.65	8044.6
978.0585	2511.2631	8896.5	8014.05
978.1861	2512.5974	8891.5	8007.15
978.3137	2513.9309	8854.25	7971.1
978.4413	2515.2638	8844.45	7932.6
978.5689	2516.596	8773.05	7888.5
978.6964	2517.9275	8727.75	7843.3
978.8239	2519.2583	8691.15	7809.25
978.9513	2520.5884	8666	7780.75
979.0788	2521.9178	8620	7734.2
979.2062	2523.2465	8601	7718
979.3335	2524.5745	8563.2	7680.7
979.4608	2525.9018	8539.95	7653.85
979.5881	2527.2284	8513.9	7630.65
979.7154	2528.5543	8516.4	7633.55
979.8426	2529.8796	8483.1	7597.95
979.9698	2531.2041	8474	7590.85
980.0969	2532.5279	8459.4	7576.6
980.224	2533.851	8436.15	7553.2
980.3511	2535.1735	8412.15	7529.55
980.4781	2536.4952	8376.55	7491.3
980.6052	2537.8163	8390.4	7505.45
980.7321	2539.1366	8336.2	7452.75
980.8591	2540.4562	8310.2	7423.55
980.986	2541.7752	8307.7	7424.85
981.1129	2543.0935	8287.55	7400.6
981.2397	2544.411	8290.55	7404.4
981.3665	2545.7279	8238.85	7355.85
981.4933	2547.0441	8218.25	7333.45
981.62	2548.3596	8233.05	7348.4
981.7467	2549.6744	8196.05	7313.25
981.8734	2550.9885	8183.65	7292.4
982.0001	2552.3019	8141.2	7257.05
982.1267	2553.6146	8128.25	7243.4
982.2532	2554.9266	8106.95	7222.15
982.3798	2556.2379	8071.3	7184.45
982.5063	2557.5485	8062	7178.95
982.6327	2558.8585	8042.85	7150.9
982.7592	2560.1677	8017.15	7127
982.8856	2561.4762	8014.85	7130.1
983.0119	2562.7841	8008.95	7121.55
983.1383	2564.0913	7974.6	7092.3
983.2646	2565.3977	7954.45	7073.85
983.3908	2566.7035	7925.05	7040.7
983.517	2568.0086	7925	7040
983.6432	2569.313	7912.05	7025.8
983.7694	2570.6167	7866.6	6980
983.8955	2571.9197	7861.55	6977.75
984.0216	2573.222	7861.15	6972.95
984.1476	2574.5236	7840.6	6955.5
984.2737	2575.8246	7817.15	6929.8
984.3996	2577.1248	7773.55	6887.8
984.5256	2578.4244	7762.65	6879.25
984.6515	2579.7232	7757.25	6873.25
984.7774	2581.0214	7769.4	6861.35
984.9032	2582.3189	7714.4	6831.8
985.029	2583.6157	7699.7	6810.25
985.1548	2584.9118	7714.9	6831.3
985.2806	2586.2072	7664.35	6781.3
985.4063	2587.5019	7647.15	6765.15
985.5319	2588.7959	7637.6	6752.45
985.6576	2590.0893	7622.4	6737.7
985.7832	2591.3819	7598.5	6715.4
985.9087	2592.6739	7562.55	6678.7
986.0343	2593.9652	7541.45	6657.05
986.1597	2595.2557	7514.05	6631.15
986.2852	2596.5456	7516.85	6630
986.4106	2597.8348	7473.25	6590.35
986.536	2599.1234	7432.4	6550.25
986.6614	2600.4112	7401.15	6518.2
986.7867	2601.6983	7394.65	6506.55
986.912	2602.9848	7349.65	6464.65
987.0372	2604.2705	7326.95	6435.5
987.1624	2605.5556	7325.5	6440.45
987.2876	2606.84	7288.05	6404.45
987.4128	2608.1237	7266.75	6383.45
987.5379	2609.4067	7242.2	6359
987.6629	2610.689	7210.35	6318.3
987.788	2611.9707	7202.35	6316.2
987.913	2613.2516	7171.8	6283.65
988.0379	2614.5319	7103.6	6216.75
988.1629	2615.8115	7092.45	6209.05
988.2878	2617.0903	7075.3	6189.95
988.4126	2618.3685	7045.75	6162.9
988.5375	2619.6461	7042.9	6158.05
988.6622	2620.9229	7020	6135.75
988.787	2622.199	6999.55	6116.25
988.9117	2623.4745	6967.2	6082.7
989.0364	2624.7493	6949.15	6066.2
989.161	2626.0234	6927.15	6046.15
989.2857	2627.2968	6895.75	6010.6
989.4102	2628.5695	6867.35	5980.65
989.5348	2629.8415	6842.5	5957.85
989.6593	2631.1128	6827.8	5943.15
989.7837	2632.3835	6788.15	5906.15
989.9082	2633.6535	6761.8	5879.1
990.0326	2634.9228	6750.6	5865.55
990.1569	2636.1914	6725.25	5843.2
990.2812	2637.4593	6711.75	5822.8
990.4055	2638.7265	6691.65	5807.7
990.5298	2639.9931	6661.85	5777.8
990.654	2641.259	6659.25	5773.25
990.7782	2642.5242	6629.25	5745.75
990.9023	2643.7887	6592.85	5708.15
991.0264	2645.0525	6576.9	5694.5
991.1505	2646.3156	6557.7	5674.05
991.2745	2647.5781	6538.2	5657.4
991.3985	2648.8398	6501.95	5618.8
991.5225	2650.1009	6499.8	5607.05
991.6464	2651.3613	6487.8	5604.4
991.7703	2652.6211	6463.65	5579.9
991.8942	2653.8801	6446.15	5563.75
992.018	2655.1385	6428.65	5543.15
992.1418	2656.3961	6429.6	5546.25
992.2655	2657.6531	6411.35	5528.2
992.3892	2658.9094	6380.55	5494.5
992.5129	2660.1651	6382.45	5500
992.6366	2661.42	6347.5	5464.7
992.7602	2662.6743	6337.3	5452.6
992.8837	2663.9279	6323.1	5442.2
993.0073	2665.1808	6302	5418.75
993.1307	2666.433	6277.65	5395.55
993.2542	2667.6846	6260.4	5377.4
993.3776	2668.9354	6233.3	5346.9
993.501	2670.1856	6235.3	5351.6
993.6244	2671.4351	6210.15	5328.35
993.7477	2672.6839	6211.15	5324.1
993.8709	2673.9321	6200.55	5317.75
993.9942	2675.1795	6165.5	5280.9
994.1174	2676.4263	6142	5259.2
994.2405	2677.6724	6127.65	5244.45
994.3637	2678.9179	6105.3	5221.5
994.4868	2680.1626	6088.95	5205.25
994.6098	2681.4067	6078.75	5195.05
994.7328	2682.6501	6050.2	5166.85
994.8558	2683.8928	6053.25	5168.9
994.9788	2685.1348	6020	5137.55
995.1017	2686.3761	5990.85	5109.5
995.2245	2687.6168	5987.65	5103.45
995.3474	2688.8568	5971.1	5088.45
995.4702	2690.0961	5946.25	5064.05
995.5929	2691.3348	5930.8	5049.15
995.7156	2692.5727	5917.9	5035
995.8383	2693.81	5886.3	5004.4
995.961	2695.0466	5881.95	5001.15
996.0836	2696.2826	5853.8	4968.55
996.2062	2697.5178	5849.05	4965.2
996.3287	2698.7524	5803.6	4920
996.4512	2699.9863	5818.15	4932.8
996.5737	2701.2195	5766.05	4883.2
996.6961	2702.452	5786.5	4901.9
996.8185	2703.6839	5756.45	4871.9
996.9408	2704.9151	5745.65	4863.05
997.0631	2706.1456	5704.6	4820.8
997.1854	2707.3755	5689.8	4806.45
997.3077	2708.6046	5685.65	4801.9
997.4299	2709.8331	5688.8	4802.65
997.552	2711.0609	5668.9	4786.5
997.6742	2712.2881	5653.25	4771.5
997.7963	2713.5145	5640.6	4754.45
997.9183	2714.7403	5617.75	4737
998.0403	2715.9654	5604.35	4721
998.1623	2717.1899	5585.75	4699.15
998.2842	2718.4136	5592.25	4710.55
998.4062	2719.6367	5562.6	4680.05
998.528	2720.8591	5536.95	4647.15
998.6498	2722.0809	5537.5	4655.5
998.7716	2723.3019	5519.8	4633.5
998.8934	2724.5223	5501.1	4617.95
999.0151	2725.7421	5490.2	4603.55
999.1368	2726.9611	5482.45	4598.45
999.2584	2728.1795	5443.45	4553.95
999.38	2729.3972	5444	4561
999.5016	2730.6142	5392.2	4503.25
999.6231	2731.8306	5378.1	4494.05
999.7446	2733.0462	5351.2	4467.8
999.8661	2734.2612	5338.25	4450.65
999.9875	2735.4756	5314.85	4433.65
1000.1089	2736.6892	5288.8	4404.4
1000.2302	2737.9022	5251	4370.15
1000.3515	2739.1145	5236	4354
1000.4728	2740.3262	5212.1	4322.4
1000.594	2741.5372	5169.2	4287.35
1000.7152	2742.7475	5164.1	4281.6
1000.8363	2743.9571	5145.85	4260.05
1000.9575	2745.1661	5120.15	4233.35
1001.0785	2746.3744	5117.85	4233.55
1001.1996	2747.582	5107.3	4224.95
1001.3206	2748.7889	5081	4197.8
1001.4415	2749.9952	5052.45	4168.35
1001.5625	2751.2008	5033.6	4151.3
1001.6833	2752.4057	5030.05	4144
1001.8042	2753.61	5003.75	4123.2
1001.925	2754.8136	4989	4104.9
1002.0458	2756.0165	4981.1	4098.8
1002.1665	2757.2188	4948.85	4067.25
1002.2872	2758.4204	4953.5	4070.8
1002.4078	2759.6213	4929.8	4045.75
1002.5285	2760.8215	4916.9	4030.9
1002.649	2762.0211	4907.7	4024.65
1002.7696	2763.22	4878.25	3993.3
1002.8901	2764.4182	4884	3999
1003.0106	2765.6158	4839.95	3954.95
1003.131	2766.8127	4816.95	3936.3
1003.2514	2768.009	4816.2	3932.95
1003.3717	2769.2045	4804.5	3921.6
1003.492	2770.3994	4798.3	3914.2
1003.6123	2771.5936	4777.5	3894.7
1003.7325	2772.7872	4761.5	3881.7
1003.8527	2773.9801	4736.4	3852.3
1003.9729	2775.1723	4733.8	3835.7
1004.093	2776.3639	4691.4	3809.2
1004.2131	2777.5548	4683.7	3798.8
1004.3331	2778.745	4670.9	3788.35
1004.4531	2779.9346	4668.5	3786.9
1004.5731	2781.1235	4660.2	3775.9
1004.693	2782.3117	4646.55	3765.25
1004.8129	2783.4992	4612.85	3729.4
1004.9328	2784.6861	4609.1	3725.7
1005.0526	2785.8723	4616.1	3731.7
1005.1723	2787.0579	4581.9	3699.8
1005.2921	2788.2428	4581.4	3699.8
1005.4118	2789.427	4569.05	3688.7
1005.5314	2790.6106	4551.25	3671.95
1005.651	2791.7935	4545.2	3661.65
1005.7706	2792.9757	4536	3654.35
1005.8902	2794.1573	4509.75	3627.95
1006.0097	2795.3382	4513.15	3633.45
1006.1291	2796.5184	4495.9	3613.8
1006.2485	2797.698	4490.7	3606
1006.3679	2798.8769	4481.05	3599
1006.4873	2800.0551	4476.95	3596.3
1006.6066	2801.2327	4448.1	3563.2
1006.7258	2802.4096	4441.75	3561.15
1006.8451	2803.5859	4437.2	3554.7
1006.9642	2804.7615	4424.45	3541.9
1007.0834	2805.9364	4423.65	3542.25
1007.2025	2807.1106	4430.9	3549.05
1007.3216	2808.2842	4449.85	3566.5
1007.4406	2809.4572	4430.55	3549.8
1007.5596	2810.6294	4437.05	3553.8
1007.6785	2811.801	4450	3570.35
1007.7975	2812.972	4456.85	3576.5
1007.9163	2814.1423	4461.15	3580.25
1008.0352	2815.3119	4468.9	3587.95
1008.154	2816.4808	4487.95	3607.85
1008.2727	2817.6491	4504.5	3623.4
1008.3914	2818.8167	4522.25	3641.5
1008.5101	2819.9837	4545.95	3658.95
1008.6288	2821.15	4568.75	3689.25
1008.7474	2822.3157	4599.65	3718.85
1008.8659	2823.4807	4596.05	3714.75
1008.9844	2824.645	4611.55	3731.6
1009.1029	2825.8086	4644.85	3763.7
1009.2214	2826.9716	4658.35	3777.8
1009.3398	2828.134	4693.05	3812.55
1009.4581	2829.2957	4721.4	3839.7
1009.5764	2830.4567	4719.15	3839.05
1009.6947	2831.617	4717.35	3833.9
1009.813	2832.7767	4697.5	3815.85
1009.9312	2833.9358	4708.8	3828.05
1010.0493	2835.0941	4693.35	3811.35
1010.1675	2836.2519	4675.65	3795.85
1010.2855	2837.4089	4648.55	3767.1
1010.4036	2838.5653	4624.2	3744.2
1010.5216	2839.7211	4633.85	3754.05
1010.6396	2840.8761	4627.9	3743.7
1010.7575	2842.0306	4612.35	3732.45
1010.8754	2843.1843	4608.2	3729.4
1010.9932	2844.3374	4623.45	3742.9
1011.111	2845.4899	4639.75	3757.2
1011.2288	2846.6417	4666.05	3786.7
1011.3465	2847.7928	4708.05	3827.55
1011.4642	2848.9433	4714.55	3833.8
1011.5818	2850.0931	4744.5	3863.3
1011.6995	2851.2422	4777.75	3893.5
1011.817	2852.3907	4796.55	3913.35
1011.9345	2853.5385	4796.75	3913.15
1012.052	2854.6857	4830.85	3940.7
1012.1695	2855.8323	4851.6	3970.6
1012.2869	2856.9781	4870.3	3989.6
1012.4042	2858.1233	4893.65	4014.35
1012.5216	2859.2679	4890.2	4011.05
1012.6389	2860.4118	4921.9	4039.2
1012.7561	2861.555	4933.4	4047.75
1012.8733	2862.6976	4948.7	4065.1
1012.9905	2863.8395	4970.2	4090.05
1013.1076	2864.9808	4957.7	4076.65
1013.2247	2866.1214	4957.75	4077.85
1013.3417	2867.2614	4964.05	4082.95
1013.4587	2868.4007	4948.4	4064.9
1013.5757	2869.5393	4951.1	4066.9
1013.6926	2870.6773	4949	4066.4
1013.8095	2871.8146	4942.95	4058
1013.9263	2872.9513	4902.05	4016.65
1014.0431	2874.0874	4913.7	4035.4
1014.1599	2875.2227	4895.4	4012.85
1014.2766	2876.3574	4874.55	3994.95
1014.3933	2877.4915	4856.1	3973.75
1014.51	2878.6249	4803.8	3924
1014.6266	2879.7577	4782.65	3901.65
1014.7431	2880.8898	4776.95	3885.6
1014.8596	2882.0212	4748.7	3868.45
1014.9761	2883.152	4737.25	3854.6
1015.0925	2884.2821	4701.75	3820.85
1015.2089	2885.4116	4696.1	3815.2
1015.3253	2886.5405	4689.2	3805.3
1015.4416	2887.6686	4679.15	3794.55
1015.5579	2888.7962	4663.45	3786.3
1015.6741	2889.923	4661.7	3782.75
1015.7903	2891.0493	4665.6	3786.75
1015.9065	2892.1748	4647.75	3765.9
1016.0226	2893.2997	4622.8	3742.7
1016.1387	2894.424	4636.05	3755.95
1016.2547	2895.5476	4626.2	3742.65
1016.3707	2896.6706	4620.15	3741
1016.4866	2897.7929	4638.15	3754.2
1016.6025	2898.9145	4638.3	3757.75
1016.7184	2900.0355	4647.05	3766.75
1016.8342	2901.1559	4655.15	3775
1016.95	2902.2756	4641.85	3759.9
1017.0658	2903.3946	4650.8	3771.9
1017.1815	2904.513	4663.15	3779.6
1017.2971	2905.6308	4660.65	3779.6
1017.4127	2906.7479	4660.5	3778.8
1017.5283	2907.8643	4673.5	3791.6
1017.6439	2908.9801	4669.45	3787.15
1017.7594	2910.0953	4662.3	3781.25
1017.8748	2911.2098	4641.95	3757.45
1017.9902	2912.3236	4646.6	3759.15
1018.1056	2913.4368	4631.1	3746.1
1018.2209	2914.5494	4592	3711.1
1018.3362	2915.6613	4577.05	3690.35
1018.4515	2916.7725	4555.75	3672.5
1018.5667	2917.8831	4522.15	3639.8
1018.6819	2918.9931	4512.45	3627.9
1018.797	2920.1024	4483.85	3601.55
1018.9121	2921.211	4467.05	3586.65
1019.0271	2922.319	4437.65	3557.6
1019.1421	2923.4264	4433.15	3553.55
1019.2571	2924.5331	4411.45	3531.25
1019.372	2925.6391	4387.65	3507.65
1019.4869	2926.7445	4378.95	3499.15
1019.6017	2927.8493	4370.1	3487.5
1019.7165	2928.9534	4364.15	3482.5
1019.8313	2930.0569	4360.5	3476.9
1019.946	2931.1597	4346.7	3464.55
1020.0606	2932.2619	4343.65	3463.4
1020.1753	2933.3634	4343.4	3461.7
1020.2899	2934.4643	4352.25	3464.95
1020.4044	2935.5645	4331.4	3446.5
1020.5189	2936.6641	4294.8	3410.45
1020.6334	2937.763	4264.85	3385.3
1020.7478	2938.8613	4229.15	3348.4
1020.8622	2939.959	4225.65	3339.8
1020.9765	2941.056	4166.45	3287.7
1021.0908	2942.1523	4120	3239.3
1021.2051	2943.248	4073.15	3193.35
1021.3193	2944.3431	3994	3112.75
1021.4334	2945.4375	3934.7	3055.6
1021.5476	2946.5313	3877.2	2998.45
1021.6617	2947.6244	3808.7	2926.7
1021.7757	2948.7169	3756.6	2877.2
1021.8897	2949.8087	3686.6	2806.4
1022.0037	2950.8999	3642.5	2762.45
1022.1176	2951.9904	3586.2	2705.35
1022.2315	2953.0803	3524.65	2645.2
1022.3453	2954.1696	3494.65	2613.7
1022.4591	2955.2582	3461.95	2580.25
1022.5728	2956.3462	3417.55	2536.65
1022.6865	2957.4335	3394.2	2514.5
1022.8002	2958.5202	3358.7	2475.3
1022.9138	2959.6062	3330.55	2451.85
1023.0274	2960.6916	3312.6	2432.7
1023.141	2961.7764	3294.5	2414.55
1023.2545	2962.8605	3282.3	2399.25
1023.3679	2963.9439	3268.5	2389.45
1023.4813	2965.0267	3254.25	2372.55
1023.5947	2966.1089	3255.8	2352.6
1023.708	2967.1905	3229.05	2349.85
1023.8213	2968.2714	3211.15	2331.35
1023.9346	2969.3516	3202.1	2322
1024.0478	2970.4312	3195.45	2305.05
1024.1609	2971.5102	3190.25	2312.4
1024.274	2972.5885	3181.25	2300.5
1024.3871	2973.6662	3179.85	2296.1
1024.5002	2974.7432	3174.45	2294.25
1024.6132	2975.8196	3168.7	2289.55
1024.7261	2976.8954	3148.2	2268.15
1024.839	2977.9705	3141.65	2262.7
1024.9519	2979.045	3134.8	2255
1025.0647	2980.1188	3113.75	2233.95
1025.1775	2981.192	3086.1	2206.5
1025.2902	2982.2645	3072.4	2190.95
1025.4029	2983.3364	3061.7	2180.7
1025.5156	2984.4077	3037.25	2158.35
1025.6282	2985.4783	3017.45	2131.75
1025.7407	2986.5483	2990.5	2113.7
1025.8532	2987.6177	2965.35	2087.3
1025.9657	2988.6864	2949.4	2068.1
1026.0782	2989.7545	2911.95	2030.2
1026.1906	2990.8219	2884	2006.6
1026.3029	2991.8887	2874	1992.3
1026.4152	2992.9548	2837.8	1957.05
1026.5275	2994.0204	2810.65	1930.7
1026.6397	2995.0852	2795.4	1917.15
1026.7519	2996.1495	2776.8	1894.55
1026.864	2997.2131	2762.7	1882.65
1026.9761	2998.276	2719.45	1840.65
1027.0882	2999.3383	2712.45	1833.5
1027.2002	3000.4	2699.35	1820
1027.3122	3001.4611	2681.45	1800.05
1027.4241	3002.5215	2657.95	1779.45
1027.536	3003.5812	2649.3	1771.15
1027.6478	3004.6404	2642.3	1762.95
1027.7596	3005.6989	2631.55	1749.6
1027.8714	3006.7567	2608	1728.2
1027.9831	3007.8139	2622.15	1714.15
1028.0947	3008.8705	2587.55	1708.2
1028.2064	3009.9264	2588.45	1705.3
1028.3179	3010.9818	2564	1685.55
1028.4295	3012.0364	2564.6	1684.7
1028.541	3013.0905	2550.2	1671.25
1028.6524	3014.1439	2538.4	1659.25
1028.7638	3015.1966	2527.4	1646.85
1028.8752	3016.2487	2525.05	1644.95
1028.9865	3017.3002	2525.35	1642.2
1029.0978	3018.3511	2511.75	1632.15
1029.209	3019.4013	2501.2	1622.15
1029.3202	3020.4509	2494.25	1613.75
1029.4314	3021.4998	2498.3	1617.7
1029.5425	3022.5481	2465.25	1585.5
1029.6535	3023.5958	2466.4	1585.8
1029.7645	3024.6428	2466	1585.2
1029.8755	3025.6892	2462.9	1584.1
1029.9864	3026.735	2460.65	1581.05
1030.0973	3027.7802	2448.45	1568.7
1030.2082	3028.8247	2435.2	1556.25
1030.319	3029.8685	2439.4	1558.75
1030.4297	3030.9118	2433.5	1554
1030.5404	3031.9544	2428.15	1550.25
1030.6511	3032.9963	2416.05	1538.45
1030.7617	3034.0376	2422	1543.3
1030.8723	3035.0783	2405.8	1523.75
1030.9829	3036.1184	2406.15	1525.6
1031.0934	3037.1578	2401.2	1522.4
1031.2038	3038.1966	2402.35	1522.05
1031.3142	3039.2348	2393.9	1514.3
1031.4246	3040.2723	2378.65	1490.45
1031.5349	3041.3092	2383.9	1506.5
1031.6452	3042.3455	2371.5	1491.55
1031.7554	3043.3811	2366.5	1488.25
1031.8656	3044.4161	2361.8	1478.75
1031.9758	3045.4505	2346.1	1468.45
1032.0859	3046.4842	2344.1	1462.3
1032.1959	3047.5173	2338.55	1459.35
1032.3059	3048.5498	2341.45	1460.65
1032.4159	3049.5816	2325.25	1444.9
1032.5258	3050.6128	2325.8	1445.3
1032.6357	3051.6434	2323.7	1443
1032.7455	3052.6734	2311.8	1432.45
1032.8553	3053.7027	2301.75	1422.55
1032.9651	3054.7314	2288.9	1409.9
1033.0748	3055.7594	2282.25	1402.55
1033.1845	3056.7868	2280.55	1400.05
1033.2941	3057.8136	2269.1	1389.35
1033.4037	3058.8398	2263.3	1386.4
1033.5132	3059.8653	2258.1	1379.2
1033.6227	3060.8902	2250.5	1373.25
1033.7321	3061.9145	2245.35	1365.5
1033.8415	3062.9381	2236.6	1358.65
1033.9509	3063.9612	2258.9	1362
1034.0602	3064.9835	2233.25	1354.9
1034.1694	3066.0053	2231.25	1348.7
1034.2787	3067.0264	2213.8	1335.35
1034.3878	3068.0469	2204.7	1324.1
1034.497	3069.0668	2195.45	1313.95
1034.6061	3070.086	2181.3	1303.65
1034.7151	3071.1046	2177.45	1297.85
1034.8241	3072.1226	2188.35	1308.85
1034.9331	3073.1399	2166.9	1288.7
1035.042	3074.1567	2159.2	1277.9
1035.1508	3075.1727	2149.45	1269.05
1035.2597	3076.1882	2127.9	1245.8
1035.3684	3077.203	2138.75	1260.3
1035.4772	3078.2173	2126.1	1244.8
1035.5859	3079.2308	2115.3	1234.2
1035.6945	3080.2438	2110.15	1228.8
1035.8031	3081.2561	2094.55	1214.45
1035.9117	3082.2678	2089.1	1211.65
1036.0202	3083.2789	2092.35	1212.8
1036.1286	3084.2893	2081.35	1202.6
1036.2371	3085.2991	2069	1189.4
1036.3454	3086.3083	2071.25	1185.85
1036.4538	3087.3169	2057.15	1176.95
1036.562	3088.3248	2057.25	1178
1036.6703	3089.3321	2049.3	1167.65
1036.7785	3090.3388	2031.65	1155.35
1036.8866	3091.3449	2028.1	1147.6
1036.9948	3092.3503	2019.65	1136.65
1037.1028	3093.3551	2012.9	1133.8
1037.2108	3094.3593	2014.1	1137
1037.3188	3095.3629	2000.6	1122.45
1037.4267	3096.3658	1997.05	1117.3
1037.5346	3097.3681	1982.3	1104.45
1037.6425	3098.3698	1976.35	1096.7
1037.7503	3099.3708	1989.85	1105.5
1037.858	3100.3713	1970.05	1090.6
1037.9657	3101.3711	1964.75	1084.1
1038.0734	3102.3702	2081.2	1063.95
1038.181	3103.3688	1965.65	1084.65
1038.2886	3104.3667	1946.5	1068.4
1038.3961	3105.364	1941.45	1063.95
1038.5036	3106.3607	1934.25	1054.05
1038.611	3107.3568	1925.9	1046.75
1038.7184	3108.3522	1911.6	1032.95
1038.8257	3109.347	1909.6	1031.5
1038.933	3110.3412	1908.75	1025.8
1039.0403	3111.3348	1894.95	1018
1039.1475	3112.3277	1902.2	1023.45
1039.2547	3113.32	1878.35	999.75
1039.3618	3114.3117	1884.45	1004.45
1039.4689	3115.3028	1870.25	990.5
1039.5759	3116.2932	1873.05	991.05
1039.6829	3117.2831	1865.3	981.35
1039.7898	3118.2723	1858.8	979.75
1039.8967	3119.2608	1843.45	965.2
1040.0035	3120.2488	1846.55	968.3
1040.1103	3121.2361	1846.5	966.3
1040.2171	3122.2229	1834.7	954.5
1040.3238	3123.209	1839.1	958.55
1040.4305	3124.1944	1822.2	943.55
1040.5371	3125.1793	1819.85	936.75
1040.6437	3126.1635	1818.5	940
1040.7502	3127.1471	1803.35	924.4
1040.8567	3128.1301	1800.95	920.95
1040.9631	3129.1125	1805.35	925.7
1041.0695	3130.0942	1794.3	916.55
1041.1759	3131.0753	1800.1	910.55
1041.2822	3132.0558	1792.85	912.75
1041.3884	3133.0357	1780.6	899.9
1041.4946	3134.015	1769	889.35
1041.6008	3134.9936	1777.8	896.9
1041.7069	3135.9716	1786.2	884.3
1041.813	3136.949	1755.65	877.2
1041.919	3137.9258	1771.05	886.2
1042.025	3138.902	1765.1	880.2
1042.1309	3139.8775	1756.5	877.6
1042.2368	3140.8524	1745.55	866
1042.3427	3141.8267	1744.95	862.7
1042.4485	3142.8004	1747.8	869.4
1042.5542	3143.7735	1747.8	863.6
1042.6599	3144.7459	1742.55	861.75
1042.7656	3145.7178	1730.75	852
1042.8712	3146.689	1727.4	848.2
1042.9768	3147.6596	1728.35	846.95
1043.0823	3148.6295	1715.85	834.7
1043.1878	3149.5989	1708.5	828.15
1043.2932	3150.5676	1709.65	830.45
1043.3986	3151.5357	1703.3	825.4
1043.5039	3152.5032	1691.8	812.7
1043.6092	3153.4701	1693.5	816.45
1043.7145	3154.4364	1687.75	806.5
1043.8197	3155.402	1684.65	805.6
1043.9248	3156.367	1685.5	803.5
1044.03	3157.3315	1713.15	795.95
1044.135	3158.2952	1677.35	798.55
1044.24	3159.2584	1673.15	794.2
1044.345	3160.221	1661.55	780.4
1044.4499	3161.1829	1652.8	771.25
1044.5548	3162.1442	1643.3	763.85
1044.6596	3163.105	1644.45	766.75
1044.7644	3164.065	1648	770.3
1044.8692	3165.0245	1646.7	764.3
1044.9739	3165.9834	1641.4	764.95
1045.0785	3166.9416	1631.6	752.25
1045.1831	3167.8993	1623.8	745.15
1045.2877	3168.8563	1627.1	747.75
1045.3922	3169.8127	1618.4	738.85
1045.4966	3170.7684	1621.3	741.9
1045.6011	3171.7236	1623.15	743.8
1045.7054	3172.6782	1607.35	725.95
1045.8098	3173.6321	1607.75	728.25
1045.914	3174.5854	1607.35	723.25
1046.0183	3175.5381	1603.9	726.5
1046.1224	3176.4902	1594.45	716
1046.2266	3177.4417	1583.15	702.65
1046.3307	3178.3926	1581.35	703.1
1046.4347	3179.3428	1579.1	700.75
1046.5387	3180.2924	1566.8	689.5
1046.6427	3181.2415	1573.25	694.6
1046.7466	3182.1899	1576.6	696.45
1046.8504	3183.1377	1567.15	690.6
1046.9542	3184.0848	1566.1	682.45
1047.058	3185.0314	1551	670.55
1047.1617	3185.9773	1551.4	672.8
1047.2654	3186.9227	1543.25	661.25
1047.369	3187.8674	1540.05	660.3
1047.4726	3188.8115	1551.9	669.05
1047.5761	3189.755	1541.35	664.1
1047.6796	3190.6979	1534.6	656.95
1047.783	3191.6402	1531	653
1047.8864	3192.5818	1529.15	650.1
1047.9898	3193.5229	1541.65	645.6
1048.0931	3194.4633	1522.4	641.75
1048.1963	3195.4031	1515.85	636.6
1048.2995	3196.3423	1518.2	639.45
1048.4027	3197.2809	1510.1	629.6
1048.5058	3198.2189	1513.9	636.35
1048.6089	3199.1563	1520.9	624.95
1048.7119	3200.0931	1501.85	624.55
1048.8148	3201.0292	1499.35	619.35
1048.9178	3201.9648	1502.1	624.5
1049.0206	3202.8997	1497.85	615.95
1049.1235	3203.834	1495.9	617.35
1049.2262	3204.7677	1478.85	600.25
1049.329	3205.7008	1486.1	603.5
1049.4317	3206.6333	1480.25	603.2
1049.5343	3207.5652	1481.1	602.7
1049.6369	3208.4964	1467.25	588.9
1049.7394	3209.4271	1470.9	593.8
1049.8419	3210.3571	1467.35	588.05
1049.9444	3211.2865	1467.25	589.8
1050.0468	3212.2154	1462.45	582.65
1050.1491	3213.1436	1467.6	586.45
1050.2514	3214.0712	1466.05	581.25
1050.3537	3214.9982	1457.15	578.35
1050.4559	3215.9246	1450.5	569.25
1050.5581	3216.8503	1448.5	570
1050.6602	3217.7755	1440.25	561.35
1050.7623	3218.7001	1445.65	568.5
1050.8643	3219.624	1443.15	564.8
1050.9663	3220.5473	1438.7	559.7
1051.0682	3221.4701	1440.7	561.5
1051.1701	3222.3922	1430.8	549.45
1051.2719	3223.3137	1427.35	548.8
1051.3737	3224.2346	1424.85	543
1051.4754	3225.1549	1419.7	543.15
1051.5771	3226.0746	1421.7	544.3
1051.6788	3226.9937	1413.9	535.1
1051.7804	3227.9121	1408.35	530.35
1051.8819	3228.83	1416.55	540.1
1051.9834	3229.7473	1410.55	530.65
1052.0849	3230.6639	1411	531.65
1052.1863	3231.5799	1395.85	515.25
1052.2876	3232.4954	1395.45	513.6
1052.3889	3233.4102	1396.05	518.85
1052.4902	3234.3244	1390.2	510.6
1052.5914	3235.238	1391	513.4
1052.6926	3236.151	1404	504.3
1052.7937	3237.0634	1383.6	506.25
1052.8948	3237.9752	1384.25	506.3
1052.9958	3238.8864	1373.15	492.25
1053.0968	3239.797	1372.65	494.8
1053.1977	3240.7069	1370.7	492.5
1053.2986	3241.6163	1370.95	491.7
1053.3994	3242.5251	1365.3	488.8
1053.5002	3243.4332	1359.45	481.6
1053.6009	3244.3408	1355.55	477.5
1053.7016	3245.2477	1354.7	476.85
1053.8022	3246.154	1350.55	470.65
1053.9028	3247.0598	1347	467.05
1054.0034	3247.9649	1345.1	465.4
1054.1039	3248.8694	1341.25	461.15
1054.2043	3249.7733	1339.25	461.9
1054.3047	3250.6766	1338.4	460.55
1054.4051	3251.5793	1339.6	462.8
1054.5054	3252.4814	1335.4	456.5
1054.6056	3253.3829	1332.1	453.7
1054.7058	3254.2838	1324.6	447.55
1054.806	3255.1841	1319.35	439.95
1054.9061	3256.0838	1326.05	447.35
1055.0061	3256.9829	1315.7	438.5
1055.1062	3257.8814	1313.45	433.1
1055.2061	3258.7792	1312.35	432.6
1055.306	3259.6765	1309.95	430.15
1055.4059	3260.5731	1301.9	424.8
1055.5057	3261.4692	1295.95	415.25
1055.6055	3262.3647	1288.95	409.1
1055.7052	3263.2595	1289.5	412.35
1055.8049	3264.1538	1277.95	399.2
1055.9045	3265.0474	1270.9	392.95
1056.0041	3265.9404	1266.3	389.15
1056.1036	3266.8329	1256	377.1
1056.2031	3267.7247	1262.7	375.2
1056.3025	3268.616	1244.8	369.05
1056.4019	3269.5066	1238.7	362.15
1056.5013	3270.3966	1228.6	347.45
1056.6005	3271.286	1211.9	334.35
