Software Version:	3.9.2.0
Unit SN:	10000200
Spectrometer SN:	6960
Date:	3/6/2024 10:18:40 AM
Data Line Index:	25
Spectral Points:	2048
Integration time (ms):	125
Averages:	20
Delay (ms):	30
Sequence Number:	1
Processing:	dark subtract
Laser Power (mW):	305
Laser Current (mA):	825
Laser Diode Temp (C):	25.1
Laser Case Temp (C):	25.3
System Temp (C):	25
Spectrometer Temp (C):	22.6
CCD Temp (C):	0.002
Secondary Temp (C):	20.007
Heatsink Temp (C):	20.38
CCDPCB Temp (C):	32.528
SecondaryPCB Temp (C):	26.292

Wavelength	RamanShift	Raw Counts	Dark Subtracted
787.061	30.1047	1087.95	677.9
787.2016	32.3739	1114.8	704.85
787.3422	34.6426	1159.15	750.45
787.4828	36.9109	1199.8	788.65
787.6235	39.1787	1246.8	831.1
787.7642	41.4461	1313.7	891.65
787.9049	43.7131	1376.45	951.85
788.0456	45.9796	1424.25	998.9
788.1863	48.2456	1491.85	1061.7
788.3271	50.5112	1556.1	1120.95
788.4679	52.7764	1619.95	1183
788.6087	55.0411	1692.65	1252
788.7496	57.3054	1768.15	1322.15
788.8904	59.5692	1858.15	1408.6
789.0313	61.8326	1939	1488.5
789.1722	64.0955	2044.95	1592.75
789.3132	66.3579	2163.2	1705.35
789.4541	68.6199	2313.2	1851.5
789.5951	70.8815	2556.5	2090.3
789.7361	73.1426	3084.75	2614.15
789.8771	75.4032	4442.2	3968.7
790.0181	77.6634	7959.9	7482.7
790.1592	79.9231	17343.35	16859.1
790.3003	82.1824	54372.45	53874.4
790.4414	84.4412	65535	65017.7
790.5825	86.6995	65535	64994.1
790.7237	88.9574	65535	64964.5
790.8648	91.2148	65535	64951.9
791.006	93.4717	65535	64939.5
791.1472	95.7282	65535	64933.5
791.2885	97.9842	65535	64929.7
791.4297	100.2398	65535	64926.85
791.571	102.4949	65535	64925.7
791.7123	104.7495	65535	64920.1
791.8536	107.0036	65535	64919.75
791.9949	109.2573	65535	64924.6
792.1363	111.5105	65535	64919.95
792.2777	113.7632	65535	64919.5
792.4191	116.0154	65535	64906.9
792.5605	118.2672	65535	64911.1
792.7019	120.5185	65535	64912.8
792.8434	122.7693	65535	64908.85
792.9849	125.0197	65535	64906.15
793.1264	127.2696	65535	64900.3
793.2679	129.519	65535	64895.9
793.4094	131.7679	65535	64896.4
793.551	134.0163	65535	64894.05
793.6926	136.2642	65535	64889.3
793.8342	138.5117	65535	64878.8
793.9758	140.7587	65535	64887.05
794.1175	143.0052	65535	64882.25
794.2591	145.2512	65535	64882.7
794.4008	147.4967	65535	64881.25
794.5425	149.7417	65535	64878.6
794.6842	151.9863	65535	64871.7
794.826	154.2304	65535	64871.75
794.9677	156.4739	65535	64862.4
795.1095	158.717	65535	64866.65
795.2513	160.9596	65535	64856.45
795.3931	163.2017	65535	64858.55
795.535	165.4433	65535	64854
795.6768	167.6844	65535	64854.05
795.8187	169.925	65535	64850.75
795.9606	172.1651	65535	64845.65
796.1025	174.4047	65535	64846.2
796.2445	176.6439	65535	64845.9
796.3864	178.8825	65535	64839.9
796.5284	181.1206	65535	64834.85
796.6704	183.3582	65535	64828.7
796.8124	185.5954	65535	64829.65
796.9544	187.832	65535	64826.85
797.0965	190.0681	65535	64826.75
797.2386	192.3037	65535	64823.35
797.3806	194.5388	65535	64817.35
797.5228	196.7734	65535	64819.8
797.6649	199.0075	65535	64818.75
797.807	201.2411	65535	64811.05
797.9492	203.4742	65535	64811.75
798.0914	205.7068	65535	64807.85
798.2336	207.9389	65535	64809.4
798.3758	210.1704	65535	64813.3
798.518	212.4015	65535	64820.15
798.6603	214.632	65535	64828.85
798.8025	216.862	65535	64829.6
798.9448	219.0915	65535	64826.4
799.0871	221.3205	65535	64826.25
799.2294	223.549	65535	64828.2
799.3718	225.777	65535	64831.25
799.5141	228.0044	65535	64820.05
799.6565	230.2314	65535	64821.65
799.7989	232.4578	65535	64816.05
799.9413	234.6837	65535	64813.1
800.0837	236.909	65535	64806.5
800.2262	239.1339	65535	64785.55
800.3687	241.3582	65535	64798.5
800.5111	243.582	65535	64765.8
800.6536	245.8053	65535	64779.7
800.7961	248.0281	65535	64783.5
800.9387	250.2503	65535	64782.4
801.0812	252.472	65535	64782.55
801.2238	254.6932	65535	64779.5
801.3664	256.9139	65535	64777.55
801.509	259.134	65535	64772.15
801.6516	261.3536	65535	64779.2
801.7942	263.5727	65535	64776.95
801.9369	265.7912	65535	64776.25
802.0795	268.0092	65535	64777.65
802.2222	270.2267	65535	64774.45
802.3649	272.4436	65535	64775.3
802.5076	274.6601	65535	64763.35
802.6504	276.8759	65535	64766.5
802.7931	279.0913	65535	64766.8
802.9359	281.3061	65535	64765.7
803.0787	283.5204	65535	64760.3
803.2215	285.7341	65535	64759
803.3643	287.9473	65535	64747.25
803.5071	290.16	65535	64753.9
803.6499	292.3721	65535	64763.35
803.7928	294.5837	65535	64760.2
803.9357	296.7947	65535	64759.5
804.0786	299.0052	65535	64761.9
804.2215	301.2152	65535	64756.7
804.3644	303.4246	65535	64760.4
804.5074	305.6334	65535	64761.9
804.6503	307.8418	65535	64756.5
804.7933	310.0495	65535	64753.7
804.9363	312.2568	65535	64757.25
805.0793	314.4635	65535	64756.35
805.2223	316.6696	65535	64752.15
805.3653	318.8752	65535	64742.45
805.5084	321.0802	65535	64748.9
805.6514	323.2847	65535	64744.05
805.7945	325.4887	65535	64749.35
805.9376	327.692	65535	64746.95
806.0807	329.8949	65535	64744.3
806.2238	332.0972	65535	64743.25
806.367	334.2989	65535	64739.05
806.5101	336.5001	65535	64739.65
806.6533	338.7007	65535	64740.2
806.7965	340.9008	65535	64737.25
806.9397	343.1003	65535	64733.75
807.0829	345.2992	65535	64730.95
807.2261	347.4976	65535	64730.4
807.3693	349.6955	65535	64728.7
807.5126	351.8927	65535	64729.95
807.6559	354.0895	65535	64716.6
807.7991	356.2856	65535	64728.45
807.9424	358.4812	65535	64730.4
808.0857	360.6763	65535	64726.3
808.2291	362.8707	65535	64722.75
808.3724	365.0646	65535	64721.5
808.5158	367.258	65535	64719.1
808.6591	369.4508	65535	64714.85
808.8025	371.643	65535	64715
808.9459	373.8346	65535	64712.7
809.0893	376.0257	65535	64710.75
809.2327	378.2162	65535	64710.3
809.3762	380.4062	65535	64712
809.5196	382.5956	65535	64715.15
809.6631	384.7844	65535	64713.55
809.8066	386.9726	65535	64715.5
809.9501	389.1603	65535	64724.25
810.0936	391.3474	65535	64679.35
810.2371	393.5339	65535	64718.4
810.3806	395.7199	65535	64720.25
810.5241	397.9052	65535	64720.1
810.6677	400.09	65535	64721.2
810.8113	402.2743	65535	64721.55
810.9548	404.4579	65535	64719.8
811.0984	406.641	65535	64718.15
811.2421	408.8235	65535	64718.35
811.3857	411.0054	65535	64713.1
811.5293	413.1868	65535	64707.85
811.673	415.3675	65535	64708.5
811.8166	417.5477	65535	64705.45
811.9603	419.7273	65535	64702.4
812.104	421.9064	65535	64695.55
812.2477	424.0848	65535	64699.85
812.3914	426.2627	65535	64699.05
812.5351	428.4399	65535	64700.3
812.6788	430.6166	65535	64697.1
812.8226	432.7928	65535	64692
812.9663	434.9683	65535	64695.95
813.1101	437.1432	65535	64693.25
813.2539	439.3176	65535	64695.55
813.3977	441.4914	65535	64694.8
813.5415	443.6645	65535	64693.65
813.6853	445.8371	65535	64694.7
813.8291	448.0091	65535	64696.8
813.973	450.1806	65535	64697.35
814.1168	452.3514	65535	64690.3
814.2607	454.5216	65535	64686.2
814.4046	456.6913	65535	64692.75
814.5485	458.8603	65535	64691.75
814.6924	461.0288	65535	64689.9
814.8363	463.1967	65535	64687.55
814.9802	465.3639	65535	64690.65
815.1241	467.5306	65535	64688.65
815.2681	469.6967	65535	64687.7
815.412	471.8622	65535	64692.05
815.556	474.0271	65535	64692.7
815.7	476.1914	65535	64684.4
815.844	478.3551	65535	64690.25
815.988	480.5182	65535	64690.05
816.132	482.6807	65535	64689.2
816.276	484.8426	65535	64689.85
816.4201	487.0039	65535	64687.05
816.5641	489.1647	65535	64681.9
816.7082	491.3248	65535	64685.4
816.8522	493.4843	65535	64683.3
816.9963	495.6432	65535	64685.05
817.1404	497.8015	65535	64682.05
817.2845	499.9592	65535	64682.35
817.4286	502.1163	65535	64679.1
817.5727	504.2728	65535	64679.25
817.7168	506.4287	65535	64681.3
817.861	508.5839	65535	64679.35
818.0051	510.7386	65535	64681.6
818.1493	512.8927	65535	64679.4
818.2935	515.0461	65535	64676.85
818.4377	517.199	65535	64679.15
818.5818	519.3512	65535	64676.3
818.726	521.5029	65535	64671.85
818.8703	523.6539	65535	64674.95
819.0145	525.8043	65535	64674.9
819.1587	527.9541	65535	64671.3
819.303	530.1033	65535	64671.55
819.4472	532.2519	65535	64674.45
819.5915	534.3999	65535	64671.2
819.7357	536.5472	65535	64672.05
819.88	538.694	65535	64673.8
820.0243	540.8401	65535	64670.75
820.1686	542.9856	65535	64670.45
820.3129	545.1305	65535	64669.7
820.4572	547.2748	65535	64668.75
820.6016	549.4185	65535	64667.4
820.7459	551.5615	65535	64668.3
820.8902	553.704	65535	64668.5
821.0346	555.8458	65535	64671.25
821.1789	557.987	65535	64670.85
821.3233	560.1276	65535	64668.2
821.4677	562.2675	65535	64667.95
821.6121	564.4069	65535	64666.4
821.7565	566.5456	65535	64668.55
821.9009	568.6837	65535	64666.55
822.0453	570.8212	65535	64664.65
822.1897	572.958	65535	64665.6
822.3342	575.0942	65535	64667.65
822.4786	577.2299	65535	64665.15
822.6231	579.3648	65535	64669.35
822.7675	581.4992	65535	64669.45
822.912	583.6329	65535	64668.4
823.0565	585.766	65535	64668.35
823.201	587.8985	65535	64672.1
823.3454	590.0304	65535	64644.2
823.4899	592.1616	65535	64661.7
823.6345	594.2922	65535	64663
823.779	596.4222	65535	64663.95
823.9235	598.5515	65535	64663.5
824.068	600.6802	65535	64661.45
824.2126	602.8083	65535	64665.35
824.3571	604.9358	65535	64661.5
824.5017	607.0626	65535	64664.1
824.6462	609.1888	65535	64658.8
824.7908	611.3144	65535	64658.1
824.9354	613.4393	65535	64660.9
825.08	615.5636	65535	64659.95
825.2246	617.6873	65535	64658.7
825.3692	619.8103	65535	64657.4
825.5138	621.9327	65535	64656.75
825.6584	624.0544	65535	64660.45
825.803	626.1756	65535	64661.25
825.9477	628.2961	65535	64658.6
826.0923	630.4159	65535	64658.05
826.237	632.5351	65535	64655.5
826.3816	634.6537	65535	64658.1
826.5263	636.7716	65535	64655.8
826.6709	638.8889	65535	64656.65
826.8156	641.0056	65535	64657.25
826.9603	643.1216	65535	64652.4
827.105	645.237	65535	64652.55
827.2497	647.3518	65535	64655.5
827.3944	649.4659	65535	64655.65
827.5391	651.5793	65535	64653.15
827.6838	653.6922	65535	64657.3
827.8285	655.8043	65535	64655.35
827.9733	657.9159	65535	64656.3
828.118	660.0268	65535	64649.65
828.2627	662.137	65535	64650.9
828.4075	664.2466	65535	64649.6
828.5522	666.3556	65535	64650.05
828.697	668.4639	65535	64650.95
828.8418	670.5716	65535	64653.6
828.9865	672.6786	65535	64650.15
829.1313	674.785	65535	64648.35
829.2761	676.8907	65535	64654.8
829.4209	678.9958	65535	64652.15
829.5657	681.1002	65535	64651.3
829.7105	683.204	65535	64647.4
829.8553	685.3072	65535	64649.3
830.0001	687.4097	65535	64649.75
830.1449	689.5115	65535	64649.5
830.2898	691.6127	65535	64649.95
830.4346	693.7132	65535	64652.15
830.5794	695.8131	65535	64633.65
830.7243	697.9123	65535	64646.65
830.8691	700.0109	65535	64646.65
831.014	702.1089	65535	64648.3
831.1588	704.2061	65535	64647.45
831.3037	706.3028	65535	64646.65
831.4486	708.3987	65535	64644.9
831.5935	710.4941	65535	64647.75
831.7383	712.5887	65535	64645.6
831.8832	714.6827	65535	64643.4
832.0281	716.7761	65535	64644.95
832.173	718.8688	65535	64642.5
832.3179	720.9608	65535	64642.55
832.4628	723.0522	65535	64641.25
832.6077	725.1429	65535	64645.8
832.7527	727.233	65535	64646.05
832.8976	729.3224	65535	64643.8
833.0425	731.4112	65535	64643.75
833.1874	733.4993	65535	64644.7
833.3324	735.5867	65535	64644.6
833.4773	737.6735	65535	64644.7
833.6222	739.7596	65535	64642.35
833.7672	741.845	65535	64646.2
833.9122	743.9298	65535	64639.3
834.0571	746.014	65535	64642.45
834.2021	748.0974	65535	64640.3
834.347	750.1802	65535	64642.85
834.492	752.2624	65535	64645.4
834.637	754.3439	65535	64641.15
834.782	756.4247	65535	64633.05
834.9269	758.5048	65535	64642.75
835.0719	760.5843	65535	64641.55
835.2169	762.6631	65535	64639.5
835.3619	764.7413	65535	64642.85
835.5069	766.8188	65535	64640.55
835.6519	768.8956	65535	64642
835.7969	770.9718	65535	64641.9
835.9419	773.0473	65535	64639.55
836.0869	775.1221	65535	64642.2
836.232	777.1962	65535	64643.25
836.377	779.2697	65535	64641.25
836.522	781.3426	65535	64620.55
836.667	783.4147	65535	64639.4
836.8121	785.4862	65535	64640.85
836.9571	787.557	65535	64641.05
837.1021	789.6271	65535	64642.05
837.2472	791.6966	65535	64639
837.3922	793.7654	65535	64640.55
837.5373	795.8335	65535	64640.05
837.6823	797.901	65535	64642
837.8274	799.9678	65535	64639.95
837.9724	802.0339	65535	64640.1
838.1175	804.0993	65535	64628.7
838.2626	806.1641	65535	64639.5
838.4076	808.2282	65535	64640.45
838.5527	810.2916	65535	64637.95
838.6978	812.3544	65535	64639.75
838.8428	814.4164	65535	64641.25
838.9879	816.4778	65535	64640.8
839.133	818.5385	65535	64636.2
839.2781	820.5986	65535	64638.05
839.4232	822.658	65535	64637.6
839.5682	824.7166	65535	64640.75
839.7133	826.7747	65535	64637.85
839.8584	828.832	65535	64637.85
840.0035	830.8886	65535	64636.45
840.1486	832.9446	65535	64637.7
840.2937	834.9999	65535	64639.85
840.4388	837.0545	65535	64636.7
840.5839	839.1085	65535	64638.65
840.729	841.1618	65535	64635.55
840.8741	843.2143	65535	64637.25
841.0192	845.2662	65535	64636.55
841.1643	847.3175	65535	64638.9
841.3095	849.368	65535	64639.65
841.4546	851.4179	65535	64638.45
841.5997	853.467	65535	64640.6
841.7448	855.5155	65535	64635.1
841.8899	857.5633	65535	64637.75
842.0351	859.6105	65535	64636.75
842.1802	861.6569	65535	64635.9
842.3253	863.7027	65535	64634.15
842.4704	865.7478	65535	64636.8
842.6156	867.7922	65535	64636.85
842.7607	869.8359	65535	64636.35
842.9058	871.8789	65535	64636
843.0509	873.9212	65535	64603.8
843.1961	875.9629	65535	64635.35
843.3412	878.0039	65535	64635.1
843.4863	880.0441	65535	64638.15
843.6315	882.0837	65535	64634.75
843.7766	884.1226	65535	64632.35
843.9218	886.1609	65535	64636.5
844.0669	888.1984	65535	64636.55
844.212	890.2352	65535	64636.05
844.3572	892.2714	65535	64631.6
844.5023	894.3069	65535	64636.75
844.6475	896.3416	65535	64634.05
844.7926	898.3757	65535	64636.35
844.9377	900.4091	65535	64631.7
845.0829	902.4418	65535	64629.25
845.228	904.4739	65535	64632.65
845.3732	906.5052	65535	64633.75
845.5183	908.5358	65535	64636.6
845.6635	910.5658	65535	64633.5
845.8086	912.595	65535	64635.9
845.9538	914.6236	65535	64630.35
846.0989	916.6515	65535	64637.75
846.2441	918.6786	65535	64634.2
846.3892	920.7051	65535	64631.6
846.5344	922.7309	65535	64634.65
846.6795	924.756	65535	64635
846.8246	926.7804	65535	64631.65
846.9698	928.8041	65535	64630.35
847.1149	930.8272	65535	64632.7
847.2601	932.8495	65535	64633.35
847.4052	934.8711	65535	64633
847.5504	936.892	65535	64633.85
847.6955	938.9123	65535	64630.9
847.8407	940.9318	65535	64633.65
847.9858	942.9506	65535	64630.8
848.131	944.9688	65535	64633.95
848.2761	946.9862	65535	64635.15
848.4213	949.003	65535	64635.5
848.5664	951.019	65535	64629.6
848.7115	953.0344	65535	64634.7
848.8567	955.0491	65535	64633.85
849.0018	957.063	65535	64630.95
849.147	959.0763	65535	64632.9
849.2921	961.0888	65535	64630.6
849.4373	963.1007	65535	64633.5
849.5824	965.1119	65535	64631.95
849.7275	967.1223	65535	64632.9
849.8727	969.1321	65535	64635.15
850.0178	971.1412	65535	64636.2
850.1629	973.1495	65535	64633.35
850.3081	975.1572	65535	64599.65
850.4532	977.1641	65535	64634.9
850.5983	979.1704	65535	64630.9
850.7435	981.1759	65535	64627.5
850.8886	983.1808	65535	64630.9
851.0337	985.1849	65535	64621.6
851.1788	987.1884	65535	64627.9
851.324	989.1911	65535	64630.6
851.4691	991.1932	65535	64629.6
851.6142	993.1945	65535	64633.85
851.7593	995.1951	65535	64634.35
851.9045	997.1951	65535	64627.5
852.0496	999.1943	65535	64632.15
852.1947	1001.1928	65535	64631.25
852.3398	1003.1906	65535	64634.85
852.4849	1005.1877	65535	64631.3
852.63	1007.1841	65535	64632.5
852.7751	1009.1798	65535	64634.5
852.9202	1011.1748	65535	64633.1
853.0653	1013.1691	65535	64629.25
853.2104	1015.1627	65535	64632.7
853.3555	1017.1556	65535	64631.3
853.5006	1019.1477	65535	64635.3
853.6457	1021.1392	65535	64634.65
853.7908	1023.1299	65535	64635.65
853.9359	1025.12	65535	64632.45
854.081	1027.1093	65535	64639.95
854.2261	1029.0979	65535	64637.9
854.3712	1031.0859	65535	64637.5
854.5163	1033.0731	65535	64631.1
854.6613	1035.0596	65535	64634.05
854.8064	1037.0454	65535	64631.7
854.9515	1039.0304	65535	64630.5
855.0965	1041.0148	65535	64632.85
855.2416	1042.9985	65535	64633.7
855.3867	1044.9814	65535	64631.75
855.5317	1046.9636	65535	64631.8
855.6768	1048.9452	65535	64634.55
855.8219	1050.926	65535	64635.4
855.9669	1052.9061	65535	64633.4
856.112	1054.8855	65535	64632.55
856.257	1056.8642	65535	64633
856.4021	1058.8421	65535	64628.45
856.5471	1060.8194	65535	64633.2
856.6921	1062.7959	65535	64636.05
856.8372	1064.7717	65535	64631.6
856.9822	1066.7469	65535	64631.9
857.1272	1068.7213	65535	64630.4
857.2723	1070.695	65535	64633.85
857.4173	1072.6679	65535	64631.6
857.5623	1074.6402	65535	64632.6
857.7073	1076.6117	65535	64627.45
857.8523	1078.5826	65535	64631.3
857.9973	1080.5527	65535	64632.05
858.1423	1082.5221	65535	64634.1
858.2873	1084.4908	65535	64635
858.4323	1086.4587	65535	64632.2
858.5773	1088.426	65535	64632.4
858.7223	1090.3925	65535	64631.4
858.8673	1092.3584	65535	64631.7
859.0123	1094.3235	65535	64636.3
859.1573	1096.2879	65535	64632.45
859.3022	1098.2515	65535	64635.05
859.4472	1100.2145	65535	64634.7
859.5922	1102.1767	65535	64629.25
859.7371	1104.1382	65535	64632.1
859.8821	1106.099	65535	64631.7
860.027	1108.0591	65535	64634.15
860.172	1110.0185	65535	64631.3
860.3169	1111.9771	65535	64632.55
860.4619	1113.9351	65535	64633.3
860.6068	1115.8923	65535	64634.1
860.7517	1117.8488	65535	64632.4
860.8967	1119.8045	65535	64632.75
861.0416	1121.7596	65535	64631.8
861.1865	1123.7139	65535	64629.75
861.3314	1125.6675	65535	64632.05
861.4763	1127.6204	65535	64633.65
861.6212	1129.5726	65535	64630.95
861.7661	1131.524	65535	64635.35
861.911	1133.4748	65535	64633.75
862.0559	1135.4248	65535	64634.5
862.2008	1137.3741	65535	64632.7
862.3457	1139.3226	65535	64633.05
862.4905	1141.2705	65535	64633.5
862.6354	1143.2176	65535	64624.85
862.7803	1145.164	65535	64626.65
862.9251	1147.1097	65535	64633.45
863.07	1149.0546	65535	64630.15
863.2148	1150.9989	65535	64632.2
863.3597	1152.9424	65535	64632.6
863.5045	1154.8852	65535	64633
863.6493	1156.8272	65535	64635.75
863.7942	1158.7686	65535	64625.35
863.939	1160.7092	65535	64631.65
864.0838	1162.6491	65535	64631.35
864.2286	1164.5883	65535	64634.5
864.3734	1166.5267	65535	64632.55
864.5182	1168.4644	65535	64631.6
864.663	1170.4014	65535	64630.15
864.8078	1172.3377	65535	64634.7
864.9526	1174.2732	65535	64632.55
865.0974	1176.2081	65535	64634.3
865.2421	1178.1421	65535	64629.35
865.3869	1180.0755	65535	64633.4
865.5317	1182.0082	65535	64634.3
865.6764	1183.9401	65535	64632.8
865.8212	1185.8713	65535	64635.2
865.9659	1187.8017	65535	64635.3
866.1106	1189.7315	65535	64634.85
866.2554	1191.6605	65535	64609.75
866.4001	1193.5888	65535	64635
866.5448	1195.5163	65535	64637.1
866.6895	1197.4432	65535	64632
866.8342	1199.3693	65535	64635.45
866.9789	1201.2947	65535	64629
867.1236	1203.2193	65535	64634.1
867.2683	1205.1432	65535	64632.85
867.413	1207.0664	65535	64630.05
867.5576	1208.9889	65535	64630.75
867.7023	1210.9106	65535	64633.6
867.847	1212.8316	65535	64636.05
867.9916	1214.7519	65535	64625.65
868.1363	1216.6715	65535	64634.3
868.2809	1218.5903	65535	64635.7
868.4255	1220.5084	65535	64633.25
868.5701	1222.4257	65535	64631.6
868.7148	1224.3424	65535	64635.3
868.8594	1226.2583	65535	64630.4
869.004	1228.1735	65535	64632.95
869.1486	1230.0879	65535	64632.25
869.2932	1232.0016	65535	64634.3
869.4377	1233.9146	65535	64631
869.5823	1235.8269	65535	64634.05
869.7269	1237.7384	65535	64634.4
869.8715	1239.6492	65535	64636.05
870.016	1241.5592	65535	64632.1
870.1606	1243.4686	65535	64635.6
870.3051	1245.3772	65535	64635
870.4496	1247.285	65535	64636.15
870.5941	1249.1922	65535	64633.8
870.7387	1251.0986	65535	64636
870.8832	1253.0042	65535	64633.9
871.0277	1254.9092	65535	64633.3
871.1722	1256.8134	65535	64634.75
871.3167	1258.7169	65535	64633.35
871.4611	1260.6196	65535	64634.7
871.6056	1262.5216	65535	64633.75
871.7501	1264.4229	65535	64636.25
871.8945	1266.3234	65535	64635.45
872.039	1268.2232	65535	64634.9
872.1834	1270.1223	65535	64634.3
872.3278	1272.0207	65535	64634.35
872.4723	1273.9183	65535	64629.35
872.6167	1275.8151	65535	64633.45
872.7611	1277.7113	65535	64632.45
872.9055	1279.6067	65535	64635.95
873.0499	1281.5014	65535	64632.9
873.1943	1283.3953	65535	64632.7
873.3386	1285.2885	65535	64635.1
873.483	1287.181	65535	64633.5
873.6274	1289.0727	65535	64634
873.7717	1290.9637	65535	64634.65
873.9161	1292.854	65535	64638.35
874.0604	1294.7435	65535	64634.3
874.2047	1296.6323	65535	64633.85
874.349	1298.5204	65535	64629.15
874.4933	1300.4077	65535	64634.8
874.6376	1302.2943	65535	64635.5
874.7819	1304.1802	65535	64635.75
874.9262	1306.0653	65535	64633.9
875.0705	1307.9497	65535	64635.85
875.2147	1309.8333	65535	64634.05
875.359	1311.7162	65535	64634.3
875.5032	1313.5984	65535	64632.95
875.6475	1315.4798	65535	64623.2
875.7917	1317.3605	65535	64618.9
875.9359	1319.2405	65535	64632.65
876.0801	1321.1197	65535	64631.75
876.2243	1322.9982	65535	64632.7
876.3685	1324.876	65535	64632.15
876.5127	1326.753	65535	64636.3
876.6569	1328.6293	65535	64632.5
876.801	1330.5048	65535	64631.85
876.9452	1332.3796	65535	64634
877.0893	1334.2537	65535	64612
877.2335	1336.127	65535	64633.7
877.3776	1337.9996	65535	64634.65
877.5217	1339.8714	65535	64632.75
877.6658	1341.7426	65535	64589.55
877.8099	1343.6129	65535	64632.3
877.954	1345.4826	65535	64634.3
878.0981	1347.3515	65535	64631.2
878.2422	1349.2196	65535	64632.1
878.3862	1351.087	65535	64636.85
878.5303	1352.9537	65535	64634.65
878.6743	1354.8197	65535	64632.05
878.8184	1356.6849	65535	64635.5
878.9624	1358.5493	65535	64633.35
879.1064	1360.4131	65535	64634
879.2504	1362.276	65535	64637.25
879.3944	1364.1383	65535	64636.7
879.5384	1365.9998	65535	64628.6
879.6823	1367.8606	65535	64634.2
879.8263	1369.7206	65535	64634.75
879.9702	1371.5799	65535	64633.8
880.1142	1373.4384	65535	64635.5
880.2581	1375.2962	65535	64634.85
880.402	1377.1533	65535	64634.6
880.5459	1379.0096	65535	64634.55
880.6898	1380.8652	65535	64635.15
880.8337	1382.7201	65535	64635.75
880.9776	1384.5742	65535	64634.2
881.1215	1386.4275	65535	64636.7
881.2653	1388.2802	65535	64635.65
881.4092	1390.132	65535	64635.6
881.553	1391.9832	65535	64632.8
881.6968	1393.8336	65535	64636.2
881.8406	1395.6832	65535	64633.25
881.9844	1397.5322	65535	64633.65
882.1282	1399.3803	65535	64629.1
882.272	1401.2278	65535	64634.9
882.4158	1403.0745	65535	64637.3
882.5595	1404.9204	65535	64637.7
882.7033	1406.7656	65535	64635
882.847	1408.6101	65535	64634.15
882.9908	1410.4538	65535	64635
883.1345	1412.2968	65535	64635.85
883.2782	1414.139	65535	64636.25
883.4219	1415.9805	65535	64634.85
883.5656	1417.8213	65535	64627.05
883.7092	1419.6613	65535	64634.75
883.8529	1421.5006	65535	64634.6
883.9965	1423.3391	65535	64634.2
884.1402	1425.1769	65535	64634.95
884.2838	1427.0139	65535	64635.15
884.4274	1428.8502	65535	64633.95
884.571	1430.6858	65535	64635.5
884.7146	1432.5206	65535	64634.45
884.8582	1434.3547	65535	64634.2
885.0018	1436.188	65535	64634.65
885.1453	1438.0206	65535	64635.3
885.2889	1439.8524	65535	64635.15
885.4324	1441.6835	65535	64634.75
885.5759	1443.5139	65535	64631.05
885.7194	1445.3435	65535	64634.9
885.8629	1447.1724	65535	64636.25
886.0064	1449.0005	65535	64635.4
886.1499	1450.8279	65535	64634.7
886.2933	1452.6545	65535	64636.05
886.4368	1454.4804	65535	64637.2
886.5802	1456.3056	65535	64627.05
886.7237	1458.13	65535	64637.3
886.8671	1459.9536	65535	64636.4
887.0105	1461.7766	65535	64636.75
887.1539	1463.5987	65535	64633.95
887.2972	1465.4202	65535	64637.05
887.4406	1467.2409	65535	64635.85
887.584	1469.0608	65535	64639.5
887.7273	1470.88	65535	64636.3
887.8706	1472.6984	65535	64637.75
888.0139	1474.5161	65535	64632.75
888.1572	1476.3331	65535	64637.05
888.3005	1478.1493	65535	64638.1
888.4438	1479.9648	65535	64633.35
888.5871	1481.7795	65535	64633.6
888.7303	1483.5935	65535	64635.8
888.8736	1485.4067	65535	64636.15
889.0168	1487.2192	65535	64637.75
889.16	1489.031	65535	64633.3
889.3032	1490.842	65535	64635.25
889.4464	1492.6522	65535	64636.45
889.5896	1494.4618	65535	64634.6
889.7327	1496.2705	65535	64635.5
889.8759	1498.0785	65535	64633.25
890.019	1499.8858	65535	64634.45
890.1622	1501.6924	65535	64637
890.3053	1503.4981	65535	64634.35
890.4484	1505.3032	65535	64634.2
890.5914	1507.1075	65535	64636.75
890.7345	1508.911	65535	64638
890.8776	1510.7138	65535	64636.7
891.0206	1512.5159	65535	64636.8
891.1637	1514.3172	65535	64634.4
891.3067	1516.1178	65535	64637.4
891.4497	1517.9176	65535	64633.95
891.5927	1519.7166	65535	64637.7
891.7357	1521.515	65535	64632.5
891.8786	1523.3126	65535	64636.3
892.0216	1525.1094	65535	64636.75
892.1645	1526.9055	65535	64637.2
892.3074	1528.7008	65535	64635.85
892.4503	1530.4954	65535	64635.5
892.5932	1532.2893	65535	64639.4
892.7361	1534.0824	65535	64632.4
892.879	1535.8747	65535	64636.7
893.0218	1537.6663	65535	64634.45
893.1647	1539.4572	65535	64637.65
893.3075	1541.2473	65535	64639.1
893.4503	1543.0367	65535	64637.25
893.5931	1544.8253	65535	64634.15
893.7359	1546.6132	65535	64634.55
893.8787	1548.4003	65535	64629.8
894.0214	1550.1867	65535	64628.35
894.1642	1551.9723	65535	64630.7
894.3069	1553.7572	65535	64636.35
894.4496	1555.5414	65535	64640.5
894.5923	1557.3247	65535	64637.55
894.735	1559.1074	65535	64638.25
894.8777	1560.8893	65535	64638.65
895.0204	1562.6705	65535	64637.85
895.163	1564.4509	65535	64638.3
895.3056	1566.2305	65535	64640.2
895.4482	1568.0094	65535	64640
895.5908	1569.7876	65535	64637.6
895.7334	1571.565	65535	64638
895.876	1573.3417	65535	64639.6
896.0186	1575.1176	65535	64638.7
896.1611	1576.8928	65535	64640
896.3036	1578.6672	65535	64642.5
896.4461	1580.4409	65535	64642.7
896.5886	1582.2138	65535	64640.45
896.7311	1583.986	65535	64637.5
896.8736	1585.7575	65535	64641.2
897.0161	1587.5282	65535	64641.6
897.1585	1589.2981	65535	64641.95
897.3009	1591.0673	65535	64640.4
897.4433	1592.8358	65535	64639
897.5857	1594.6035	65535	64638.5
897.7281	1596.3704	65535	64638.95
897.8705	1598.1366	65535	64641.2
898.0128	1599.9021	65535	64641.5
898.1551	1601.6668	65535	64640.3
898.2975	1603.4308	65535	64638.95
898.4398	1605.194	65535	64635.95
898.5821	1606.9564	65535	64641.5
898.7243	1608.7182	65535	64637.15
898.8666	1610.4791	65535	64641.5
899.0088	1612.2394	65535	64642.7
899.1511	1613.9988	65534.35	64641.55
899.2933	1615.7576	65535	64641.75
899.4355	1617.5156	65535	64636.25
899.5776	1619.2728	65535	64641.75
899.7198	1621.0293	65531.9	64640.55
899.862	1622.785	65531.4	64635.75
900.0041	1624.54	65535	64638.9
900.1462	1626.2942	65527.2	64630.75
900.2883	1628.0477	65516.8	64621.45
900.4304	1629.8005	65452.95	64553.8
900.5725	1631.5525	65521.5	64629.25
900.7145	1633.3037	65454.7	64561.1
900.8566	1635.0542	65447.3	64554.5
900.9986	1636.804	65498.75	64605.45
901.1406	1638.553	65376.9	64399.6
901.2826	1640.3013	65434.95	64540.65
901.4245	1642.0488	65349.65	64454.05
901.5665	1643.7955	65435.95	64546
901.7085	1645.5416	65350.95	64457.65
901.8504	1647.2868	65250.5	64357.45
901.9923	1649.0313	65421.6	64527.4
902.1342	1650.7751	65329.45	64432.15
902.2761	1652.5181	65251.1	64356.5
902.4179	1654.2604	65264.5	64370.75
902.5598	1656.0019	65282.35	64389.4
902.7016	1657.7427	65219.45	64325.95
902.8434	1659.4828	65326.85	64433.35
902.9852	1661.222	65192.25	64298.55
903.127	1662.9606	65344.35	64452.45
903.2687	1664.6984	65159.5	64266.15
903.4105	1666.4354	65251.8	64357.35
903.5522	1668.1717	65072.65	64178.3
903.6939	1669.9072	64924.35	64032.55
903.8356	1671.642	64913.5	64019.7
903.9773	1673.3761	64881	63988.55
904.119	1675.1094	64865.9	63972.05
904.2606	1676.8419	64733.85	63843.15
904.4022	1678.5737	64790.55	63898.1
904.5439	1680.3048	64730.7	63836.9
904.6855	1682.0351	64668.15	63775.75
904.827	1683.7646	64608.75	63713.05
904.9686	1685.4934	64656.45	63761.75
905.1101	1687.2215	64442.9	63549.2
905.2517	1688.9488	64622.75	63730.65
905.3932	1690.6754	64323.85	63432.5
905.5347	1692.4012	64453.45	63561.2
905.6761	1694.1263	64448.1	63555.95
905.8176	1695.8506	64357.4	63462.45
905.9591	1697.5742	64352.35	63459.95
906.1005	1699.297	64338.45	63445.7
906.2419	1701.0191	64346.45	63453.3
906.3833	1702.7404	64192.6	63301.65
906.5246	1704.461	64164.25	63271.45
906.666	1706.1808	64195.7	63302.6
906.8073	1707.8999	64177.35	63285.8
906.9487	1709.6182	64146.35	63254.7
907.09	1711.3358	64108.95	63218.05
907.2313	1713.0527	64091.4	63198.9
907.3725	1714.7688	64086.9	63192.55
907.5138	1716.4841	63903.1	63009.5
907.655	1718.1987	63982.55	63087.2
907.7962	1719.9126	63937.2	63044.45
907.9374	1721.6257	63968	63072.85
908.0786	1723.338	63977.4	63085.2
908.2198	1725.0496	63750.9	62860.6
908.3609	1726.7605	63776.9	62884.15
908.502	1728.4706	63722.35	62830.25
908.6431	1730.18	63774.1	62879.45
908.7842	1731.8886	63687.3	62796.9
908.9253	1733.5964	63615.7	62718.6
909.0664	1735.3036	63709.6	62815.3
909.2074	1737.0099	63641.35	62751.55
909.3484	1738.7156	63534.6	62645
909.4894	1740.4204	63469.25	62574.9
909.6304	1742.1246	63501.85	62607.9
909.7714	1743.8279	63524.35	62631.95
909.9123	1745.5306	63516.15	62625.75
910.0532	1747.2325	63223.65	62334.05
910.1941	1748.9336	63236.55	62346.2
910.335	1750.634	63310.05	62416
910.4759	1752.3336	63381.05	62491.5
910.6168	1754.0325	63170.2	62279.85
910.7576	1755.7307	63344.3	62453.4
910.8984	1757.4281	63070	62180.45
911.0392	1759.1247	63268.05	62369.05
911.18	1760.8206	62944.5	62046.2
911.3208	1762.5158	62983	62087.45
911.4615	1764.2102	63033.5	62145.1
911.6022	1765.9039	62973.95	62084.3
911.7429	1767.5968	62865.55	61975.4
911.8836	1769.289	62787.15	61895.4
912.0243	1770.9804	62855.95	61963.15
912.1649	1772.6711	62762.25	61871.1
912.3056	1774.361	62664.8	61774.05
912.4462	1776.0502	62693.4	61802.05
912.5868	1777.7386	62348.95	61455.4
912.7274	1779.4263	62515.45	61624.2
912.8679	1781.1132	62534.3	61644.05
913.0084	1782.7994	62460.35	61569.15
913.149	1784.4849	62469.85	61579.4
913.2895	1786.1696	62051.3	61152.95
913.4299	1787.8535	62275.2	61384.8
913.5704	1789.5367	62330.75	61440.5
913.7108	1791.2192	62081.45	61191.6
913.8513	1792.9009	61897.6	60981.7
913.9917	1794.5818	62092.35	61200.4
914.132	1796.2621	61879.3	60990.2
914.2724	1797.9415	61898.55	61008.8
914.4128	1799.6202	61820.8	60929.55
914.5531	1801.2982	61825.05	60934.15
914.6934	1802.9755	61573.45	60682.1
914.8337	1804.6519	61490.2	60598.9
914.9739	1806.3277	61821.95	60931.35
915.1142	1808.0027	61230.55	60340.95
915.2544	1809.6769	61449	60559.45
915.3946	1811.3504	61491.5	60601
915.5348	1813.0231	61005.65	60113.6
915.675	1814.6951	61354.95	60464
915.8151	1816.3664	61141.15	60248.55
915.9553	1818.0369	61179.55	60286.4
916.0954	1819.7067	61007.3	60118.95
916.2355	1821.3757	61236.8	60344.75
916.3755	1823.044	60859.65	59970.1
916.5156	1824.7115	60567.2	59675.15
916.6556	1826.3783	60734.9	59846.75
916.7956	1828.0443	60714.85	59826.25
916.9356	1829.7096	60536.05	59643.5
917.0756	1831.3741	60145.35	59250.65
917.2155	1833.0379	60417.85	59527.3
917.3555	1834.701	60372.45	59480.05
917.4954	1836.3633	60054.25	59163.65
917.6353	1838.0248	60319.6	59429
917.7751	1839.6856	60123.55	59234.85
917.915	1841.3457	59740.25	58851.6
918.0548	1843.005	60130.7	59240.55
918.1946	1844.6636	59896.55	59005.05
918.3344	1846.3214	59337.55	58445.75
918.4742	1847.9785	59531.85	58643.5
918.6139	1849.6349	59457.7	58565.65
918.7537	1851.2904	59848.4	58949.05
918.8934	1852.9453	59168.35	58276.55
919.0331	1854.5994	59467.6	58572.75
919.1727	1856.2528	59456.6	58560.2
919.3124	1857.9054	59076.65	58185.1
919.452	1859.5572	58844	57955
919.5916	1861.2083	59075.25	58184.1
919.7312	1862.8587	59462.75	58572.4
919.8708	1864.5084	58263.6	57370.95
920.0103	1866.1572	58822.1	57931.5
920.1498	1867.8054	58214.3	57324.65
920.2893	1869.4528	58508.7	57618.8
920.4288	1871.0994	58094.9	57205.35
920.5683	1872.7453	57933.7	57043.55
920.7077	1874.3905	58306.5	57410.25
920.8471	1876.0349	57736.35	56843.55
920.9865	1877.6786	58192.5	57299.1
921.1259	1879.3215	57570.1	56680.45
921.2653	1880.9637	58201.8	57312.2
921.4046	1882.6051	57585.25	56696.85
921.5439	1884.2458	57338.2	56444.8
921.6832	1885.8858	57001.25	56109.8
921.8225	1887.525	57283.4	56392.85
921.9617	1889.1634	57180.3	56289.95
922.101	1890.8011	56896.2	56003.85
922.2402	1892.4381	56288.45	55397.1
922.3794	1894.0743	56996.2	56106.85
922.5185	1895.7098	56573.45	55685
922.6577	1897.3446	56201.4	55311.4
922.7968	1898.9786	56334.75	55439.3
922.9359	1900.6118	55935.25	55042.75
923.075	1902.2443	55644.9	54752.3
923.214	1903.8761	56042.1	55152.5
923.3531	1905.5071	55596.85	54705.1
923.4921	1907.1374	54742.9	53851.85
923.6311	1908.7669	55171.1	54279.4
923.77	1910.3957	55482.75	54595
923.909	1912.0237	54814.8	53924.05
924.0479	1913.651	54457.1	53566.55
924.1868	1915.2776	54254.9	53365.85
924.3257	1916.9034	54357	53469.9
924.4646	1918.5285	53990.05	53100.25
924.6034	1920.1528	54067.95	53177
924.7422	1921.7764	53768.05	52879.55
924.881	1923.3992	53721.5	52831.75
925.0198	1925.0213	53325.05	52436
925.1586	1926.6427	52791.05	51903.05
925.2973	1928.2633	53094.05	52124.25
925.436	1929.8832	52888.7	51995.2
925.5747	1931.5023	52706.45	51817.7
925.7134	1933.1207	52158.3	51267.05
925.852	1934.7383	52446.1	51556.85
925.9906	1936.3552	52014.35	51125.25
926.1292	1937.9714	52075.1	51184.6
926.2678	1939.5868	52069.05	51176.2
926.4064	1941.2015	51559.2	50668
926.5449	1942.8154	51101.1	50209.85
926.6834	1944.4286	51221.8	50332.95
926.8219	1946.041	51212.05	50303.2
926.9604	1947.6528	50805.25	49911.05
927.0988	1949.2637	50640.5	49753.4
927.2372	1950.8739	50377.15	49487.05
927.3756	1952.4834	50464.8	49575.5
927.514	1954.0921	50271.75	49381.45
927.6523	1955.7001	49874.8	48980.4
927.7907	1957.3074	49993.65	49105.6
927.929	1958.9139	49461.3	48572.9
928.0673	1960.5197	49606.4	48714.85
928.2055	1962.1247	49366.5	48477.3
928.3438	1963.729	49078.3	48189.9
928.482	1965.3325	48855.2	47943.1
928.6202	1966.9353	48964.55	48075.3
928.7584	1968.5374	48548.7	47657.7
928.8965	1970.1387	48394.3	47504.4
929.0346	1971.7393	48382.15	47493.1
929.1727	1973.3392	48106.8	47217.3
929.3108	1974.9383	47875.85	46985.55
929.4489	1976.5366	47724.6	46837.65
929.5869	1978.1342	47643.2	46754
929.7249	1979.7311	47522.7	46633.55
929.8629	1981.3273	47385.55	46493.95
930.0009	1982.9227	47198.95	46307.1
930.1388	1984.5173	47168.65	46279.25
930.2767	1986.1112	46838.15	45950.9
930.4146	1987.7044	46910.7	46023.05
930.5525	1989.2968	46490.85	45599.95
930.6904	1990.8885	46580.25	45687
930.8282	1992.4795	46408.4	45518.5
930.966	1994.0697	46248.45	45359.85
931.1038	1995.6592	46111.1	45222.15
931.2415	1997.2479	45892.95	45003.75
931.3793	1998.8359	45840.85	44953.25
931.517	2000.4232	45619.4	44732.6
931.6547	2002.0097	45532.05	44645.55
931.7923	2003.5955	45272.65	44381.75
931.93	2005.1805	45238.1	44348.6
932.0676	2006.7648	45115.45	44226.7
932.2052	2008.3484	44936.3	44047.15
932.3427	2009.9312	44959.9	44068.35
932.4803	2011.5133	44811.25	43924
932.6178	2013.0946	44633.8	43744.65
932.7553	2014.6752	44474.7	43587.35
932.8928	2016.2551	44323	43435.3
933.0302	2017.8342	44180.25	43290.95
933.1676	2019.4126	44018.45	43131.3
933.305	2020.9902	43833.7	42948.2
933.4424	2022.5672	43714.15	42825.05
933.5798	2024.1433	43590	42695.3
933.7171	2025.7188	43484.05	42596.4
933.8544	2027.2935	43292.3	42404.45
933.9917	2028.8674	43157.15	42270.1
934.129	2030.4406	43071.95	42184.9
934.2662	2032.0131	42873.35	41985.4
934.4034	2033.5849	42648.8	41755.55
934.5406	2035.1559	42645.65	41758.1
934.6778	2036.7261	42595.05	41706.4
934.8149	2038.2957	42429.25	41541.25
934.952	2039.8645	42352.85	41465.05
935.0891	2041.4325	42380.1	41491.3
935.2262	2042.9998	42193.9	41306.55
935.3632	2044.5664	41952.35	41062.6
935.5002	2046.1323	41860.5	40971.55
935.6372	2047.6974	41749.9	40861.2
935.7742	2049.2617	41633.5	40747.3
935.9111	2050.8254	41697.45	40804.45
936.048	2052.3883	41460.6	40571.6
936.1849	2053.9504	41354.7	40464.05
936.3218	2055.5118	41268.2	40379.85
936.4586	2057.0725	41053.45	40161.8
936.5955	2058.6325	40989.85	40100.8
936.7323	2060.1917	40806.95	39919.05
936.869	2061.7502	40688.45	39797.9
937.0058	2063.3079	40562.4	39673.35
937.1425	2064.8649	40434	39543.7
937.2792	2066.4212	40360.75	39470.6
937.4159	2067.9767	40219.75	39331.2
937.5525	2069.5315	40078.05	39190.35
937.6891	2071.0856	39806.45	38919.6
937.8257	2072.6389	39693.8	38804.95
937.9623	2074.1915	39525.2	38639.85
938.0989	2075.7433	39306.15	38416.7
938.2354	2077.2945	39306.3	38419.6
938.3719	2078.8448	39115.75	38226.1
938.5084	2080.3945	38969.15	38081.95
938.6448	2081.9434	38914.5	38025
938.7812	2083.4916	38799.35	37909.95
938.9176	2085.039	38662.55	37772.75
939.054	2086.5857	38569.3	37679.35
939.1903	2088.1317	38553.4	37664.95
939.3267	2089.677	38424.05	37536.1
939.463	2091.2215	38301.4	37413.95
939.5992	2092.7652	38182.35	37290.85
939.7355	2094.3083	38120.5	37231.15
939.8717	2095.8506	38009.1	37120.75
940.0079	2097.3921	37967.2	37082.1
940.1441	2098.933	37868	36977.05
940.2802	2100.4731	37735.75	36847.6
940.4163	2102.0124	37637.9	36743.15
940.5524	2103.5511	37525.55	36638.55
940.6885	2105.089	37444.85	36555.3
940.8245	2106.6261	37373.65	36485.4
940.9606	2108.1626	37231.9	36342.45
941.0965	2109.6983	37179.3	36262.2
941.2325	2111.2332	37054.3	36164.9
941.3684	2112.7675	36952.05	36062.8
941.5044	2114.301	36856.85	35966.25
941.6403	2115.8337	36814.6	35926.4
941.7761	2117.3657	36692.45	35804.65
941.912	2118.897	36606.4	35717.65
942.0478	2120.4276	36428.65	35534.3
942.1835	2121.9575	36291.9	35403.2
942.3193	2123.4866	36292.5	35390.25
942.455	2125.0149	36162.8	35270.7
942.5907	2126.5426	35940.3	35053.35
942.7264	2128.0695	35826	34933.05
942.8621	2129.5956	35812.95	34925.55
942.9977	2131.1211	35744.95	34853.7
943.1333	2132.6458	35627.05	34739.65
943.2689	2134.1698	35520.45	34631.9
943.4044	2135.693	35425.3	34533.4
943.54	2137.2155	35389.95	34499.05
943.6755	2138.7373	35281.45	34391.95
943.8109	2140.2584	35172.05	34284.3
943.9464	2141.7787	35052.5	34158.8
944.0818	2143.2983	34867.95	33980.7
944.2172	2144.8171	34682.1	33795
944.3526	2146.3353	34627.95	33739.9
944.4879	2147.8527	34454.35	33567.3
944.6232	2149.3693	34465.25	33574.4
944.7585	2150.8853	34259.75	33369.55
944.8938	2152.4005	34108.25	33220.85
945.029	2153.9149	34095	33206.2
945.1642	2155.4287	34003.8	33114.8
945.2994	2156.9417	33908.3	33017.8
945.4346	2158.454	33833.65	32942.25
945.5697	2159.9655	33666	32777.6
945.7048	2161.4764	33637.15	32749.75
945.8399	2162.9865	33539.95	32651.6
945.9749	2164.4958	33420.05	32530.95
946.1099	2166.0045	33283.15	32391.4
946.2449	2167.5124	33281.15	32392
946.3799	2169.0195	33198.8	32311.9
946.5148	2170.526	33156.5	32266.55
946.6498	2172.0317	32970.8	32082.3
946.7846	2173.5367	32898.75	32009.8
946.9195	2175.0409	32774.8	31886.15
947.0543	2176.5445	32749.3	31861.6
947.1891	2178.0473	32614.05	31726.15
947.3239	2179.5494	32458.55	31567.2
947.4587	2181.0507	32322.35	31431.35
947.5934	2182.5513	32284.2	31394.95
947.7281	2184.0512	32165.4	31274.75
947.8628	2185.5504	32102.35	31213.8
947.9974	2187.0488	31871.55	30984.25
948.132	2188.5465	31779.25	30892.35
948.2666	2190.0435	31706.5	30818.25
948.4012	2191.5397	31581.85	30693.65
948.5357	2193.0353	31531.8	30643.35
948.6702	2194.5301	31338.9	30449.1
948.8047	2196.0241	31258.75	30368.65
948.9392	2197.5175	31149.4	30260.6
949.0736	2199.0101	31033.6	30141.15
949.208	2200.502	30834.75	29946.7
949.3424	2201.9931	30737.65	29850.15
949.4767	2203.4835	30603.05	29714.25
949.611	2204.9733	30585.1	29689.7
949.7453	2206.4622	30502.85	29616.45
949.8796	2207.9505	30431	29538.75
950.0138	2209.438	30226.15	29340.1
950.148	2210.9248	30159.95	29271.45
950.2822	2212.4109	30044.6	29158.1
950.4164	2213.8962	29954.25	29063.9
950.5505	2215.3809	29900.65	29008.4
950.6846	2216.8648	29820.6	28932.15
950.8186	2218.3479	29691.1	28795.85
950.9527	2219.8304	29580.9	28688.4
951.0867	2221.3121	29483.95	28595
951.2207	2222.7931	29369.9	28481.1
951.3546	2224.2733	29288.55	28399.65
951.4886	2225.7529	29162.85	28274.3
951.6225	2227.2317	29031.7	28140.95
951.7563	2228.7098	29022.1	28135.7
951.8902	2230.1872	28851.85	27962.65
952.024	2231.6638	28774.65	27886.65
952.1578	2233.1397	28662.5	27767.8
952.2916	2234.6149	28573.95	27686.6
952.4253	2236.0894	28528.3	27640.05
952.559	2237.5632	28449.45	27560.8
952.6927	2239.0362	28299.5	27411.55
952.8263	2240.5085	28229.6	27342.4
952.9599	2241.9801	28140.5	27251.2
953.0935	2243.4509	28063.5	27174.8
953.2271	2244.921	27925.75	27036.75
953.3606	2246.3904	27807.65	26916.1
953.4941	2247.8591	27744.15	26857.25
953.6276	2249.3271	27672.55	26784.95
953.7611	2250.7943	27504.35	26612.8
953.8945	2252.2608	27426.15	26540.3
954.0279	2253.7266	27387	26499.35
954.1612	2255.1917	27257.45	26369.6
954.2946	2256.656	27183.5	26294.65
954.4279	2258.1197	27120.7	26233.5
954.5612	2259.5826	27020.45	26131.05
954.6944	2261.0447	27031.6	26141.05
954.8276	2262.5062	26872.1	25981.05
954.9608	2263.9669	26764.9	25874.05
955.094	2265.4269	26752.05	25863.95
955.2271	2266.8862	26694.55	25807.2
955.3602	2268.3448	26605.1	25716.7
955.4933	2269.8026	26579.45	25690.8
955.6264	2271.2598	26460.45	25572.6
955.7594	2272.7162	26342.05	25454.5
955.8924	2274.1719	26252.55	25364.6
956.0253	2275.6268	26154.35	25266.8
956.1583	2277.0811	26126.85	25237.35
956.2912	2278.5346	26050.2	25163.15
956.4241	2279.9874	25970.25	25081.25
956.5569	2281.4395	25955.6	25066.65
956.6897	2282.8908	25851.6	24959.05
956.8225	2284.3414	25764.4	24875.25
956.9553	2285.7914	25665.65	24778.25
957.088	2287.2406	25567.35	24680.8
957.2207	2288.689	25558.15	24670.7
957.3534	2290.1368	25468.4	24578.85
957.486	2291.5838	25346.4	24454.95
957.6186	2293.0302	25272.8	24381.25
957.7512	2294.4758	25201.3	24312.7
957.8838	2295.9206	25086.85	24195.15
958.0163	2297.3648	24996.3	24107.85
958.1488	2298.8082	24954.1	24066.7
958.2813	2300.251	24892.1	24003.85
958.4137	2301.693	24791.4	23900.9
958.5461	2303.1343	24809.5	23921.45
958.6785	2304.5748	24672.3	23781.9
958.8108	2306.0147	24556.7	23668.35
958.9432	2307.4538	24496.85	23607.85
959.0754	2308.8922	24410.65	23523.9
959.2077	2310.3299	24343.85	23456.2
959.3399	2311.7669	24289.4	23401
959.4721	2313.2031	24201.25	23312.25
959.6043	2314.6387	24089.7	23203.5
959.7365	2316.0735	24017.2	23128.45
959.8686	2317.5076	23968.95	23080.7
960.0006	2318.941	23907.4	23017.9
960.1327	2320.3737	23798.35	22908.35
960.2647	2321.8056	23729.35	22838.35
960.3967	2323.2369	23650.95	22760.25
960.5287	2324.6674	23595.1	22704.75
960.6606	2326.0972	23509.85	22619.85
960.7925	2327.5263	23414.3	22526.6
960.9244	2328.9547	23355.75	22465.7
961.0562	2330.3823	23300.75	22412.1
961.1881	2331.8092	23260.6	22369.1
961.3198	2333.2355	23094.95	22205.6
961.4516	2334.661	23091.95	22202.55
961.5833	2336.0858	23086.45	22195.2
961.715	2337.5098	22955.45	22066.9
961.8467	2338.9332	22913.4	22026.5
961.9783	2340.3558	22800.35	21910.45
962.1099	2341.7778	22742.7	21853.75
962.2415	2343.199	22668.85	21776.75
962.373	2344.6195	22635.95	21748.1
962.5045	2346.0393	22535.9	21648.4
962.636	2347.4583	22512.4	21623
962.7675	2348.8767	22411.3	21521.1
962.8989	2350.2943	22368.6	21478.2
963.0303	2351.7113	22306.5	21417.1
963.1617	2353.1275	22252.5	21364.9
963.293	2354.543	22145.95	21249.5
963.4243	2355.9578	22044.15	21154.35
963.5556	2357.3718	21933.3	21042.85
963.6868	2358.7852	21825.55	20935.15
963.818	2360.1978	21782.15	20892.75
963.9492	2361.6098	21742.4	20854.05
964.0803	2363.021	21669.55	20777.8
964.2114	2364.4315	21625.5	20736.7
964.3425	2365.8413	21540.55	20650
964.4736	2367.2504	21453.2	20566.25
964.6046	2368.6587	21379.7	20490.35
964.7356	2370.0664	21255.45	20365.95
964.8666	2371.4733	21171.4	20281.05
964.9975	2372.8795	21136.65	20247.95
965.1284	2374.285	21054.25	20165.4
965.2593	2375.6899	20927	20040.7
965.3901	2377.0939	20848.35	19961
965.5209	2378.4973	20794.3	19907
965.6517	2379.9	20726.1	19837.75
965.7825	2381.3019	20660.4	19773.85
965.9132	2382.7032	20593.85	19707.05
966.0439	2384.1037	20560.65	19675.4
966.1745	2385.5035	20460	19573
966.3051	2386.9027	20398.8	19514.55
966.4357	2388.3011	20347.85	19456.3
966.5663	2389.6987	20295.05	19403.05
966.6968	2391.0957	20188.9	19301.9
966.8273	2392.492	20158.85	19273.65
966.9578	2393.8876	20011.65	19124.7
967.0882	2395.2824	19949.9	19064.4
967.2186	2396.6765	19874.3	18987.65
967.349	2398.07	19797.3	18911.45
967.4793	2399.4627	19766.05	18877.3
967.6097	2400.8547	19693.65	18805.45
967.7399	2402.246	19595.9	18701.45
967.8702	2403.6366	19462.55	18573.55
968.0004	2405.0265	19400.5	18513.75
968.1306	2406.4156	19380.15	18488.4
968.2607	2407.8041	19292.45	18403.65
968.3909	2409.1918	19196.15	18307
968.521	2410.5789	19101.65	18212.95
968.651	2411.9652	19046.85	18156.1
968.781	2413.3508	18969.3	18080.6
968.911	2414.7358	18914.05	18024.45
969.041	2416.12	18803.1	17916.3
969.1709	2417.5035	18806.9	17918.85
969.3008	2418.8863	18683.3	17797.05
969.4307	2420.2684	18646.15	17756.25
969.5606	2421.6497	18557.05	17668.7
969.6904	2423.0304	18425.6	17536.3
969.8201	2424.4104	18412.75	17522.85
969.9499	2425.7896	18349	17459.5
970.0796	2427.1682	18294	17406.6
970.2093	2428.546	18260.75	17371.35
970.3389	2429.9232	18193.15	17304.6
970.4685	2431.2996	18159.1	17270.1
970.5981	2432.6753	18119.35	17232.45
970.7277	2434.0503	18041	17152.85
970.8572	2435.4246	17963.55	17076.3
970.9867	2436.7982	17888.05	16999.15
971.1161	2438.1711	17834.2	16947.45
971.2456	2439.5433	17773.85	16886.65
971.375	2440.9148	17694.4	16802.2
971.5043	2442.2856	17624.25	16737.3
971.6336	2443.6557	17573.3	16683.55
971.7629	2445.025	17516.9	16630.05
971.8922	2446.3937	17474.8	16585.75
972.0214	2447.7617	17385.8	16497.4
972.1506	2449.1289	17364.45	16478.05
972.2798	2450.4955	17328	16435.95
972.4089	2451.8613	17230	16341.1
972.538	2453.2265	17216.7	16329.85
972.6671	2454.5909	17178.1	16289.3
972.7961	2455.9546	17121.4	16236.1
972.9251	2457.3177	17066.6	16178.35
973.0541	2458.68	17009.75	16120.35
973.1831	2460.0416	16969.05	16081.4
973.312	2461.4025	16914.7	16024.3
973.4408	2462.7627	16873.85	15974
973.5697	2464.1222	16815.95	15929.35
973.6985	2465.4811	16750.85	15864.15
973.8273	2466.8392	16686.75	15797.4
973.956	2468.1966	16633.3	15741.25
974.0847	2469.5533	16626.85	15735.35
974.2134	2470.9093	16578.35	15691.25
974.3421	2472.2645	16520.55	15630.6
974.4707	2473.6191	16455.95	15567.9
974.5993	2474.973	16386.7	15498.3
974.7278	2476.3262	16349.15	15460.2
974.8563	2477.6787	16267.1	15378.95
974.9848	2479.0305	16208.6	15320.8
975.1132	2480.3816	16146.05	15254.65
975.2417	2481.7319	16079.85	15191.65
975.37	2483.0816	16001.15	15111.2
975.4984	2484.4306	15970.15	15081.05
975.6267	2485.7789	15910.25	15023.1
975.755	2487.1264	15812.2	14923.4
975.8833	2488.4733	15749.7	14862.2
976.0115	2489.8195	15734.2	14837.9
976.1397	2491.165	15650.75	14758.3
976.2678	2492.5097	15600.75	14711.35
976.3959	2493.8538	15550.2	14663.6
976.524	2495.1972	15494.35	14607.9
976.6521	2496.5398	15400.6	14511.4
976.7801	2497.8818	15361.4	14471.8
976.9081	2499.2231	15275.5	14387.1
977.036	2500.5637	15235.55	14348.05
977.164	2501.9035	15196.35	14307.1
977.2918	2503.2427	15177.65	14288.05
977.4197	2504.5812	15096.2	14211.2
977.5475	2505.919	15063.5	14173.4
977.6753	2507.256	15022.15	14134.35
977.8031	2508.5924	14923.8	14037.85
977.9308	2509.9281	14883.5	13990.3
978.0585	2511.2631	14828.7	13939.8
978.1861	2512.5974	14789.9	13902.55
978.3137	2513.9309	14749.65	13859.9
978.4413	2515.2638	14713.55	13798.1
978.5689	2516.596	14642	13753
978.6964	2517.9275	14561.7	13673.35
978.8239	2519.2583	14500.2	13611.5
978.9513	2520.5884	14471.95	13582.9
979.0788	2521.9178	14413.4	13524.9
979.2062	2523.2465	14372.95	13485.5
979.3335	2524.5745	14317.3	13428.35
979.4608	2525.9018	14275.8	13387.5
979.5881	2527.2284	14231.85	13344.45
979.7154	2528.5543	14195.4	13308.35
979.8426	2529.8796	14146.3	13259.2
979.9698	2531.2041	14110.1	13222.25
980.0969	2532.5279	14082.5	13195.9
980.224	2533.851	14049.95	13160
980.3511	2535.1735	13975.65	13087.6
980.4781	2536.4952	13971.35	13085.6
980.6052	2537.8163	13941.85	13054.6
980.7321	2539.1366	13879.85	12992.15
980.8591	2540.4562	13823.85	12934.35
980.986	2541.7752	13806.65	12918.8
981.1129	2543.0935	13771.7	12883.1
981.2397	2544.411	13722.2	12834.1
981.3665	2545.7279	13694.95	12807.7
981.4933	2547.0441	13660.55	12773.5
981.62	2548.3596	13661.05	12770.65
981.7467	2549.6744	13602.2	12712.5
981.8734	2550.9885	13558.95	12662.65
982.0001	2552.3019	13513.65	12626
982.1267	2553.6146	13476.65	12588.35
982.2532	2554.9266	13433.15	12546.35
982.3798	2556.2379	13408.15	12520.45
982.5063	2557.5485	13384	12496.25
982.6327	2558.8585	13312.45	12418.9
982.7592	2560.1677	13314.9	12422
982.8856	2561.4762	13271.8	12382.2
983.0119	2562.7841	13258.85	12368.8
983.1383	2564.0913	13217.2	12328.9
983.2646	2565.3977	13204.15	12317.8
983.3908	2566.7035	13145.95	12258.55
983.517	2568.0086	13141.75	12251
983.6432	2569.313	13119.15	12232.3
983.7694	2570.6167	13076	12186.3
983.8955	2571.9197	13046.9	12160.65
984.0216	2573.222	13037.9	12145.25
984.1476	2574.5236	12995.4	12105.9
984.2737	2575.8246	12942.45	12051.45
984.3996	2577.1248	12907.45	12017.25
984.5256	2578.4244	12899.45	12010.85
984.6515	2579.7232	12857.15	11967.3
984.7774	2581.0214	12851.8	11940.95
984.9032	2582.3189	12796.35	11908.15
985.029	2583.6157	12791.9	11900.5
985.1548	2584.9118	12774.3	11885.75
985.2806	2586.2072	12721.75	11833.75
985.4063	2587.5019	12656.3	11767.9
985.5319	2588.7959	12617.3	11729.6
985.6576	2590.0893	12623.15	11734.45
985.7832	2591.3819	12563.9	11677.5
985.9087	2592.6739	12490.1	11603.85
986.0343	2593.9652	12471.15	11584.45
986.1597	2595.2557	12406	11519.7
986.2852	2596.5456	12347.55	11457.95
986.4106	2597.8348	12330.2	11441.35
986.536	2599.1234	12274.65	11387.4
986.6614	2600.4112	12229.95	11342.35
986.7867	2601.6983	12190.3	11300.45
986.912	2602.9848	12150.8	11262.4
987.0372	2604.2705	12115.55	11219.8
987.1624	2605.5556	12059.85	11171.85
987.2876	2606.84	12009.4	11123.4
987.4128	2608.1237	11955.65	11065.05
987.5379	2609.4067	11915.1	11027.15
987.6629	2610.689	11883.75	10988.5
987.788	2611.9707	11843.8	10948.85
987.913	2613.2516	11797.45	10904.6
988.0379	2614.5319	11726.25	10839.25
988.1629	2615.8115	11685.55	10795.5
988.2878	2617.0903	11662.45	10773.9
988.4126	2618.3685	11603.2	10715.3
988.5375	2619.6461	11582.9	10694.65
988.6622	2620.9229	11539	10651.55
988.787	2622.199	11520.4	10633.1
988.9117	2623.4745	11467.65	10578.4
989.0364	2624.7493	11422.6	10535.4
989.161	2626.0234	11379	10493.25
989.2857	2627.2968	11325.25	10438.1
989.4102	2628.5695	11295.15	10407.45
989.5348	2629.8415	11206.9	10319.9
989.6593	2631.1128	11185.1	10297.15
989.7837	2632.3835	11142.45	10255
989.9082	2633.6535	11116	10227.7
990.0326	2634.9228	11044.75	10157.4
990.1569	2636.1914	11019.05	10131.75
990.2812	2637.4593	10987.3	10092.8
990.4055	2638.7265	10943.95	10056.75
990.5298	2639.9931	10891.15	10005.15
990.654	2641.259	10895.85	10008.15
990.7782	2642.5242	10847	9960.2
990.9023	2643.7887	10815.2	9926.3
991.0264	2645.0525	10770.9	9883.3
991.1505	2646.3156	10710.75	9821.45
991.2745	2647.5781	10673.95	9787.5
991.3985	2648.8398	10663.8	9777.65
991.5225	2650.1009	10660.2	9735.8
991.6464	2651.3613	10615.5	9727
991.7703	2652.6211	10601.85	9714.6
991.8942	2653.8801	10539.95	9654.55
992.018	2655.1385	10494.4	9604.7
992.1418	2656.3961	10483.35	9595.55
992.2655	2657.6531	10453.1	9565.4
992.3892	2658.9094	10407.65	9519.1
992.5129	2660.1651	10385.05	9497.85
992.6366	2661.42	10354.9	9467.25
992.7602	2662.6743	10332.65	9445.75
992.8837	2663.9279	10327.8	9440.9
993.0073	2665.1808	10269.7	9381.95
993.1307	2666.433	10281.75	9394.65
993.2542	2667.6846	10215.8	9328.1
993.3776	2668.9354	10206.85	9317
993.501	2670.1856	10163.9	9274.45
993.6244	2671.4351	10117.5	9229.75
993.7477	2672.6839	10109.3	9220.2
993.8709	2673.9321	10080.85	9195.1
993.9942	2675.1795	10036.25	9149.35
994.1174	2676.4263	10011.55	9124.7
994.2405	2677.6724	9972.75	9084.7
994.3637	2678.9179	9934.5	9046.8
994.4868	2680.1626	9891.75	9005.55
994.6098	2681.4067	9914.85	9026.35
994.7328	2682.6501	9847.4	8958.35
994.8558	2683.8928	9799.1	8911.5
994.9788	2685.1348	9760.3	8873.15
995.1017	2686.3761	9729.4	8843.3
995.2245	2687.6168	9701.15	8815.35
995.3474	2688.8568	9689	8801.1
995.4702	2690.0961	9624.2	8738.05
995.5929	2691.3348	9592	8705.1
995.7156	2692.5727	9590.5	8702
995.8383	2693.81	9563.9	8675.2
995.961	2695.0466	9534.75	8648.65
996.0836	2696.2826	9489	8599.4
996.2062	2697.5178	9468.2	8578.35
996.3287	2698.7524	9445.2	8557.4
996.4512	2699.9863	9418.75	8529.85
996.5737	2701.2195	9378.35	8491.85
996.6961	2702.452	9368.45	8480.1
996.8185	2703.6839	9335.8	8448.3
996.9408	2704.9151	9309.05	8422.55
997.0631	2706.1456	9255.55	8365.1
997.1854	2707.3755	9207.25	8319.75
997.3077	2708.6046	9215.55	8326.4
997.4299	2709.8331	9184.05	8295.6
997.552	2711.0609	9136.85	8251.45
997.6742	2712.2881	9116.15	8229.05
997.7963	2713.5145	9069.15	8179
997.9183	2714.7403	9062.55	8175.6
998.0403	2715.9654	9030.7	8143
998.1623	2717.1899	9001.4	8112.65
998.2842	2718.4136	8993.35	8104.45
998.4062	2719.6367	8963.45	8076.2
998.528	2720.8591	8944.25	8050.1
998.6498	2722.0809	8879.8	7992.1
998.7716	2723.3019	8861.35	7970.6
998.8934	2724.5223	8837.85	7948.65
999.0151	2725.7421	8823.4	7934.05
999.1368	2726.9611	8809.05	7920.55
999.2584	2728.1795	8760.95	7869
999.38	2729.3972	8717.6	7828.9
999.5016	2730.6142	8677.35	7783.6
999.6231	2731.8306	8638.2	7748.15
999.7446	2733.0462	8594.15	7705
999.8661	2734.2612	8558.2	7666.85
999.9875	2735.4756	8508.65	7620.05
1000.1089	2736.6892	8493.2	7604.6
1000.2302	2737.9022	8434.3	7548.1
1000.3515	2739.1145	8370.2	7482.05
1000.4728	2740.3262	8344.85	7451.8
1000.594	2741.5372	8294.2	7406.95
1000.7152	2742.7475	8276.85	7389.2
1000.8363	2743.9571	8230.55	7342.8
1000.9575	2745.1661	8212.45	7322.65
1001.0785	2746.3744	8193.7	7305.7
1001.1996	2747.582	8153.6	7265.6
1001.3206	2748.7889	8123.2	7230.75
1001.4415	2749.9952	8085.35	7200.55
1001.5625	2751.2008	8070.75	7184.25
1001.6833	2752.4057	8037.15	7146.7
1001.8042	2753.61	8003.8	7115.6
1001.925	2754.8136	7961.6	7072.95
1002.0458	2756.0165	7932.55	7043.7
1002.1665	2757.2188	7919.8	7034.6
1002.2872	2758.4204	7876.8	6991.05
1002.4078	2759.6213	7840.35	6952.8
1002.5285	2760.8215	7842.8	6950.8
1002.649	2762.0211	7809.3	6919.1
1002.7696	2763.22	7765.15	6875.8
1002.8901	2764.4182	7745.8	6856.45
1003.0106	2765.6158	7733.65	6848.5
1003.131	2766.8127	7703.95	6815.6
1003.2514	2768.009	7687.2	6799.6
1003.3717	2769.2045	7660.7	6771.9
1003.492	2770.3994	7650.55	6761.25
1003.6123	2771.5936	7609.2	6719.15
1003.7325	2772.7872	7548.8	6663.6
1003.8527	2773.9801	7515.75	6625.25
1003.9729	2775.1723	7496.8	6593.1
1004.093	2776.3639	7468.9	6580.1
1004.2131	2777.5548	7447.7	6558.5
1004.3331	2778.745	7413.4	6524.6
1004.4531	2779.9346	7390.3	6505.1
1004.5731	2781.1235	7370.9	6482.15
1004.693	2782.3117	7370.35	6482.25
1004.8129	2783.4992	7334.3	6447.8
1004.9328	2784.6861	7306.05	6418.35
1005.0526	2785.8723	7309.55	6423.25
1005.1723	2787.0579	7283.2	6394.6
1005.2921	2788.2428	7263.2	6377.05
1005.4118	2789.427	7216.4	6329.6
1005.5314	2790.6106	7205	6319.2
1005.651	2791.7935	7205.25	6316.45
1005.7706	2792.9757	7164.95	6278.4
1005.8902	2794.1573	7145.2	6256.95
1006.0097	2795.3382	7131.1	6242.55
1006.1291	2796.5184	7108	6222.85
1006.2485	2797.698	7107.9	6218.3
1006.3679	2798.8769	7089.05	6201.7
1006.4873	2800.0551	7044.85	6158.75
1006.6066	2801.2327	7030.2	6142.4
1006.7258	2802.4096	7018.15	6132.6
1006.8451	2803.5859	7022.45	6135.1
1006.9642	2804.7615	6989.8	6101.6
1007.0834	2805.9364	6982.55	6095.85
1007.2025	2807.1106	6986.75	6098.6
1007.3216	2808.2842	6976.15	6088.2
1007.4406	2809.4572	6981.25	6095.5
1007.5596	2810.6294	6985.1	6096
1007.6785	2811.801	6999.2	6110.8
1007.7975	2812.972	7008.1	6122.35
1007.9163	2814.1423	7019.45	6132.1
1008.0352	2815.3119	7042.05	6156.4
1008.154	2816.4808	7065.2	6180.1
1008.2727	2817.6491	7096.25	6208.2
1008.3914	2818.8167	7129.15	6243.45
1008.5101	2819.9837	7135.8	6244.65
1008.6288	2821.15	7160.35	6272.15
1008.7474	2822.3157	7169.35	6283.85
1008.8659	2823.4807	7198.75	6311.65
1008.9844	2824.645	7256.7	6367.45
1009.1029	2825.8086	7268.2	6383
1009.2214	2826.9716	7313.15	6427.3
1009.3398	2828.134	7323.8	6438.85
1009.4581	2829.2957	7361.95	6474
1009.5764	2830.4567	7365.2	6478.75
1009.6947	2831.617	7383.3	6494.4
1009.813	2832.7767	7374.9	6487.4
1009.9312	2833.9358	7346.45	6458.35
1010.0493	2835.0941	7331.15	6443.35
1010.1675	2836.2519	7299.4	6413.2
1010.2855	2837.4089	7252.65	6366
1010.4036	2838.5653	7245.2	6359.5
1010.5216	2839.7211	7208.8	6323.3
1010.6396	2840.8761	7198.75	6309.75
1010.7575	2842.0306	7198.35	6311.2
1010.8754	2843.1843	7211.05	6325.25
1010.9932	2844.3374	7222.35	6336.6
1011.111	2845.4899	7244.75	6357.4
1011.2288	2846.6417	7277	6392.2
1011.3465	2847.7928	7321	6436.2
1011.4642	2848.9433	7345.75	6459.4
1011.5818	2850.0931	7393.25	6507.35
1011.6995	2851.2422	7441.15	6552.85
1011.817	2852.3907	7493.85	6605.9
1011.9345	2853.5385	7541.75	6652.4
1012.052	2854.6857	7538.2	6642.3
1012.1695	2855.8323	7534.65	6650.25
1012.2869	2856.9781	7572.75	6687.2
1012.4042	2858.1233	7578.45	6692.15
1012.5216	2859.2679	7613.75	6728.2
1012.6389	2860.4118	7637.25	6748.55
1012.7561	2861.555	7655.25	6762.05
1012.8733	2862.6976	7677.95	6789.25
1012.9905	2863.8395	7688.45	6802.1
1013.1076	2864.9808	7692.45	6806.65
1013.2247	2866.1214	7701.7	6816.35
1013.3417	2867.2614	7684.75	6799.7
1013.4587	2868.4007	7684.8	6797.6
1013.5757	2869.5393	7670.95	6781.8
1013.6926	2870.6773	7653.35	6764.2
1013.8095	2871.8146	7656.25	6766.2
1013.9263	2872.9513	7625.9	6734.95
1014.0431	2874.0874	7600.45	6712.7
1014.1599	2875.2227	7576.95	6691.8
1014.2766	2876.3574	7535.35	6648.95
1014.3933	2877.4915	7479.55	6593.05
1014.51	2878.6249	7441.45	6556.65
1014.6266	2879.7577	7420.05	6531.3
1014.7431	2880.8898	7366.25	6471.5
1014.8596	2882.0212	7339.75	6455.95
1014.9761	2883.152	7308.2	6420.8
1015.0925	2884.2821	7284.3	6398.45
1015.2089	2885.4116	7253.95	6368.7
1015.3253	2886.5405	7216.2	6330.05
1015.4416	2887.6686	7219.45	6329.05
1015.5579	2888.7962	7190.85	6303.95
1015.6741	2889.923	7178.65	6293.2
1015.7903	2891.0493	7173.6	6288.1
1015.9065	2892.1748	7163.7	6277.3
1016.0226	2893.2997	7147.9	6260.45
1016.1387	2894.424	7144.7	6257.35
1016.2547	2895.5476	7119.3	6234.15
1016.3707	2896.6706	7124.9	6237.8
1016.4866	2897.7929	7137.3	6251.55
1016.6025	2898.9145	7144.3	6257.6
1016.7184	2900.0355	7130	6241.1
1016.8342	2901.1559	7118.55	6230.2
1016.95	2902.2756	7153.95	6266.4
1017.0658	2903.3946	7179.6	6293.8
1017.1815	2904.513	7154.85	6266.85
1017.2971	2905.6308	7140.3	6255.85
1017.4127	2906.7479	7163.15	6276.65
1017.5283	2907.8643	7160.1	6273.1
1017.6439	2908.9801	7149	6261.95
1017.7594	2910.0953	7158.6	6271.35
1017.8748	2911.2098	7124	6234.5
1017.9902	2912.3236	7109.3	6215.75
1018.1056	2913.4368	7077.95	6188.55
1018.2209	2914.5494	7027.65	6140.05
1018.3362	2915.6613	6994.15	6101.75
1018.4515	2916.7725	6963.55	6075
1018.5667	2917.8831	6926.75	6040
1018.6819	2918.9931	6888.3	5999.95
1018.797	2920.1024	6833.1	5944.45
1018.9121	2921.211	6811.1	5922.85
1019.0271	2922.319	6780.4	5893.15
1019.1421	2923.4264	6753.2	5867.85
1019.2571	2924.5331	6736.8	5850.2
1019.372	2925.6391	6705.65	5818.45
1019.4869	2926.7445	6696.75	5809.8
1019.6017	2927.8493	6672.8	5785.8
1019.7165	2928.9534	6648.2	5761.55
1019.8313	2930.0569	6646.05	5758.6
1019.946	2931.1597	6639.1	5751.5
1020.0606	2932.2619	6621.2	5734.7
1020.1753	2933.3634	6630.95	5745.5
1020.2899	2934.4643	6600.35	5705.85
1020.4044	2935.5645	6574.5	5681.35
1020.5189	2936.6641	6527.45	5635.65
1020.6334	2937.763	6486.7	5602.35
1020.7478	2938.8613	6450.75	5562.85
1020.8622	2939.959	6388.85	5497.3
1020.9765	2941.056	6311.2	5424.7
1021.0908	2942.1523	6238.5	5350.85
1021.2051	2943.248	6165.75	5279.85
1021.3193	2944.3431	6073.75	5188.5
1021.4334	2945.4375	5973.15	5085.55
1021.5476	2946.5313	5860.4	4975.55
1021.6617	2947.6244	5764.5	4879.95
1021.7757	2948.7169	5664.85	4778.2
1021.8897	2949.8087	5577.95	4690.8
1022.0037	2950.8999	5477	4591.25
1022.1176	2951.9904	5397.85	4511.4
1022.2315	2953.0803	5330.55	4443.35
1022.3453	2954.1696	5251.8	4365.1
1022.4591	2955.2582	5197.2	4312.65
1022.5728	2956.3462	5132.4	4246.8
1022.6865	2957.4335	5087.95	4200.95
1022.8002	2958.5202	5046.6	4158.6
1022.9138	2959.6062	5024.5	4137.6
1023.0274	2960.6916	4962.15	4075.45
1023.141	2961.7764	4958.4	4071.7
1023.2545	2962.8605	4896.75	4010.9
1023.3679	2963.9439	4888.4	4002.75
1023.4813	2965.0267	4862.75	3974.75
1023.5947	2966.1089	4864.55	3956
1023.708	2967.1905	4814.4	3928.3
1023.8213	2968.2714	4801.2	3917.25
1023.9346	2969.3516	4782.9	3897.4
1024.0478	2970.4312	4786.3	3893.35
1024.1609	2971.5102	4746.2	3861.55
1024.274	2972.5885	4746.75	3861.05
1024.3871	2973.6662	4739.85	3849.55
1024.5002	2974.7432	4720.15	3834.2
1024.6132	2975.8196	4696.9	3811.65
1024.7261	2976.8954	4666.75	3781.7
1024.839	2977.9705	4653.85	3767.3
1024.9519	2979.045	4631.3	3745.85
1025.0647	2980.1188	4618.4	3733.3
1025.1775	2981.192	4593.5	3708.7
1025.2902	2982.2645	4564.35	3676.85
1025.4029	2983.3364	4532.2	3644.95
1025.5156	2984.4077	4478.95	3593.95
1025.6282	2985.4783	4464.2	3572.6
1025.7407	2986.5483	4418.6	3532.5
1025.8532	2987.6177	4385.55	3499
1025.9657	2988.6864	4344.5	3456.15
1026.0782	2989.7545	4305.3	3416.8
1026.1906	2990.8219	4272.9	3387.9
1026.3029	2991.8887	4221.45	3332.6
1026.4152	2992.9548	4191.05	3305.45
1026.5275	2994.0204	4160.65	3272.75
1026.6397	2995.0852	4120.3	3235.15
1026.7519	2996.1495	4091.8	3204.15
1026.864	2997.2131	4057.9	3172.5
1026.9761	2998.276	4003.15	3117.45
1027.0882	2999.3383	3989.2	3103.55
1027.2002	3000.4	3953.75	3066.15
1027.3122	3001.4611	3950.3	3064.1
1027.4241	3002.5215	3909.1	3021.6
1027.536	3003.5812	3878.6	2990.8
1027.6478	3004.6404	3870.65	2985.55
1027.7596	3005.6989	3863.8	2977.55
1027.8714	3006.7567	3823.3	2937.05
1027.9831	3007.8139	3835.9	2921.1
1028.0947	3008.8705	3807.25	2920.9
1028.2064	3009.9264	3769.75	2878.85
1028.3179	3010.9818	3758.25	2872.45
1028.4295	3012.0364	3740.65	2853.75
1028.541	3013.0905	3732.5	2844.65
1028.6524	3014.1439	3721.35	2835.05
1028.7638	3015.1966	3700.15	2815.7
1028.8752	3016.2487	3681.65	2797.05
1028.9865	3017.3002	3667.05	2776.45
1029.0978	3018.3511	3666.95	2782.8
1029.209	3019.4013	3655.9	2768.9
1029.3202	3020.4509	3646.35	2762.65
1029.4314	3021.4998	3623.65	2738.95
1029.5425	3022.5481	3616.05	2729.55
1029.6535	3023.5958	3607.25	2721.65
1029.7645	3024.6428	3597.15	2711.45
1029.8755	3025.6892	3588.85	2702.25
1029.9864	3026.735	3567.55	2682.4
1030.0973	3027.7802	3562.45	2675.25
1030.2082	3028.8247	3539.05	2654.15
1030.319	3029.8685	3527.2	2640.2
1030.4297	3030.9118	3508.75	2620.7
1030.5404	3031.9544	3515.1	2629.4
1030.6511	3032.9963	3506.1	2619.95
1030.7617	3034.0376	3498.55	2611.5
1030.8723	3035.0783	3485.25	2598.15
1030.9829	3036.1184	3494.4	2607.15
1031.0934	3037.1578	3474.9	2591.2
1031.2038	3038.1966	3474.7	2588.95
1031.3142	3039.2348	3470.8	2585.05
1031.4246	3040.2723	3470.2	2574.4
1031.5349	3041.3092	3444.6	2559.5
1031.6452	3042.3455	3422.95	2537.45
1031.7554	3043.3811	3399.95	2512.25
1031.8656	3044.4161	3404.8	2519.35
1031.9758	3045.4505	3385.05	2500
1032.0859	3046.4842	3393.35	2505.3
1032.1959	3047.5173	3365.7	2480.25
1032.3059	3048.5498	3365.55	2479.1
1032.4159	3049.5816	3345.3	2460.1
1032.5258	3050.6128	3338.65	2450.4
1032.6357	3051.6434	3325.35	2438.75
1032.7455	3052.6734	3327.7	2440.7
1032.8553	3053.7027	3301.15	2414.75
1032.9651	3054.7314	3295.65	2410.25
1033.0748	3055.7594	3280.15	2394.05
1033.1845	3056.7868	3268.95	2383.15
1033.2941	3057.8136	3253.85	2369.3
1033.4037	3058.8398	3244	2359.8
1033.5132	3059.8653	3237.9	2351.9
1033.6227	3060.8902	3219.65	2332.55
1033.7321	3061.9145	3210.6	2326
1033.8415	3062.9381	3190.9	2303.85
1033.9509	3063.9612	3202.2	2302.8
1034.0602	3064.9835	3168.55	2283.95
1034.1694	3066.0053	3170.7	2281.8
1034.2787	3067.0264	3153.25	2267.9
1034.3878	3068.0469	3132.05	2243.8
1034.497	3069.0668	3135.85	2247.25
1034.6061	3070.086	3107.85	2222.35
1034.7151	3071.1046	3109.5	2222.65
1034.8241	3072.1226	3086.7	2198.1
1034.9331	3073.1399	3074.6	2188.5
1035.042	3074.1567	3062.65	2176.9
1035.1508	3075.1727	3051.8	2164.95
1035.2597	3076.1882	3032.8	2147.8
1035.3684	3077.203	3027.95	2140.8
1035.4772	3078.2173	3002.8	2115.8
1035.5859	3079.2308	2992.8	2102.2
1035.6945	3080.2438	2972.55	2083.55
1035.8031	3081.2561	2947.95	2060.75
1035.9117	3082.2678	2942.8	2056.45
1036.0202	3083.2789	2947.25	2063.4
1036.1286	3084.2893	2925.05	2041.1
1036.2371	3085.2991	2912.1	2027.75
1036.3454	3086.3083	2909.5	2020.35
1036.4538	3087.3169	2884.15	1996.05
1036.562	3088.3248	2881.65	1994.85
1036.6703	3089.3321	2870.2	1982.35
1036.7785	3090.3388	2859.95	1975.6
1036.8866	3091.3449	2833.85	1947.45
1036.9948	3092.3503	2848.05	1960.75
1037.1028	3093.3551	2834.9	1948.45
1037.2108	3094.3593	2811.25	1926.95
1037.3188	3095.3629	2800.55	1915.5
1037.4267	3096.3658	2786.95	1899.7
1037.5346	3097.3681	2783.55	1898.45
1037.6425	3098.3698	2779.15	1891.55
1037.7503	3099.3708	2761.2	1869.6
1037.858	3100.3713	2752.55	1866.8
1037.9657	3101.3711	2739.45	1853.55
1038.0734	3102.3702	2815.8	1792.9
1038.181	3103.3688	2732.85	1843.35
1038.2886	3104.3667	2709.1	1825.2
1038.3961	3105.364	2694.35	1809.35
1038.5036	3106.3607	2674.15	1786.75
1038.611	3107.3568	2658.85	1773.3
1038.7184	3108.3522	2650.3	1766.15
1038.8257	3109.347	2646.4	1759.15
1038.933	3110.3412	2644.4	1755.45
1039.0403	3111.3348	2632.7	1745.15
1039.1475	3112.3277	2624.2	1738.85
1039.2547	3113.32	2602.7	1718.85
1039.3618	3114.3117	2601.45	1714.3
1039.4689	3115.3028	2596.15	1710.7
1039.5759	3116.2932	2580.25	1691.7
1039.6829	3117.2831	2572.9	1678.5
1039.7898	3118.2723	2548.3	1663.95
1039.8967	3119.2608	2547.2	1660.95
1040.0035	3120.2488	2534.2	1649.2
1040.1103	3121.2361	2534.05	1646.05
1040.2171	3122.2229	2517.45	1630.3
1040.3238	3123.209	2502.85	1616.25
1040.4305	3124.1944	2507.45	1622.35
1040.5371	3125.1793	2497.5	1610.25
1040.6437	3126.1635	2488.4	1603.25
1040.7502	3127.1471	2468.35	1582.75
1040.8567	3128.1301	2468.4	1583.05
1040.9631	3129.1125	2452.6	1567.1
1041.0695	3130.0942	2442.95	1556.25
1041.1759	3131.0753	2450.4	1557.3
1041.2822	3132.0558	2437.95	1549.4
1041.3884	3133.0357	2434.55	1548.65
1041.4946	3134.015	2420.1	1533.8
1041.6008	3134.9936	2416.8	1528.85
1041.7069	3135.9716	2432.05	1527.25
1041.813	3136.949	2403.35	1516.45
1041.919	3137.9258	2402.55	1512.25
1042.025	3138.902	2386.85	1495.15
1042.1309	3139.8775	2395.15	1510.75
1042.2368	3140.8524	2375.95	1489.25
1042.3427	3141.8267	2378.1	1490.15
1042.4485	3142.8004	2364.25	1477.5
1042.5542	3143.7735	2362.45	1471.35
1042.6599	3144.7459	2346.7	1457.35
1042.7656	3145.7178	2341.65	1455.6
1042.8712	3146.689	2325.85	1439.25
1042.9768	3147.6596	2319.8	1432.2
1043.0823	3148.6295	2320.65	1432.95
1043.1878	3149.5989	2311.3	1424.9
1043.2932	3150.5676	2300.85	1416.65
1043.3986	3151.5357	2291.35	1407.6
1043.5039	3152.5032	2284.55	1399.5
1043.6092	3153.4701	2273.8	1388.6
1043.7145	3154.4364	2285.25	1395.15
1043.8197	3155.402	2253.65	1369.45
1043.9248	3156.367	2266.15	1376.95
1044.03	3157.3315	2293.15	1363.2
1044.135	3158.2952	2253.55	1367
1044.24	3159.2584	2232.35	1347.75
1044.345	3160.221	2234.6	1347.35
1044.4499	3161.1829	2222.9	1337.1
1044.5548	3162.1442	2204.4	1320.45
1044.6596	3163.105	2197.5	1312.6
1044.7644	3164.065	2185.55	1299.5
1044.8692	3165.0245	2193.6	1304.4
1044.9739	3165.9834	2172.35	1288.9
1045.0785	3166.9416	2177.35	1292.35
1045.1831	3167.8993	2163.75	1278.25
1045.2877	3168.8563	2166.35	1278.45
1045.3922	3169.8127	2145.1	1259.65
1045.4966	3170.7684	2146.65	1259.95
1045.6011	3171.7236	2144.6	1259.1
1045.7054	3172.6782	2133.75	1247.65
1045.8098	3173.6321	2125.4	1237.65
1045.914	3174.5854	2126.4	1234.8
1046.0183	3175.5381	2113.1	1227.35
1046.1224	3176.4902	2108.55	1224.25
1046.2266	3177.4417	2089.2	1201.8
1046.3307	3178.3926	2095.1	1209.7
1046.4347	3179.3428	2082	1198.65
1046.5387	3180.2924	2077.5	1191.75
1046.6427	3181.2415	2069.85	1180.95
1046.7466	3182.1899	2059	1171.75
1046.8504	3183.1377	2070.65	1185.35
1046.9542	3184.0848	2050.5	1162.3
1047.058	3185.0314	2034.25	1148.4
1047.1617	3185.9773	2040.5	1152.4
1047.2654	3186.9227	2041.8	1156.65
1047.369	3187.8674	2015.45	1130.7
1047.4726	3188.8115	2022.65	1133.75
1047.5761	3189.755	2011.25	1125.95
1047.6796	3190.6979	2017.25	1131.75
1047.783	3191.6402	2009	1124
1047.8864	3192.5818	1998.85	1113.85
1047.9898	3193.5229	2005.55	1103.45
1048.0931	3194.4633	1992.6	1106.55
1048.1963	3195.4031	1990.05	1105.4
1048.2995	3196.3423	1970.45	1084.75
1048.4027	3197.2809	1963.55	1078.55
1048.5058	3198.2189	1975.3	1088.85
1048.6089	3199.1563	1970.65	1068.7
1048.7119	3200.0931	1951.55	1065.5
1048.8148	3201.0292	1943.75	1060.55
1048.9178	3201.9648	1942.1	1057.8
1049.0206	3202.8997	1939.15	1051.45
1049.1235	3203.834	1932.15	1046.15
1049.2262	3204.7677	1919.2	1033.25
1049.329	3205.7008	1923.15	1035.25
1049.4317	3206.6333	1910.3	1024.25
1049.5343	3207.5652	1917.9	1029.5
1049.6369	3208.4964	1901.7	1015.1
1049.7394	3209.4271	1906.15	1021
1049.8419	3210.3571	1895	1009.8
1049.9444	3211.2865	1885.9	1000.55
1050.0468	3212.2154	1884.15	997.6
1050.1491	3213.1436	1881.9	994.9
1050.2514	3214.0712	1880	988.05
1050.3537	3214.9982	1861.65	975.95
1050.4559	3215.9246	1869.45	984.3
1050.5581	3216.8503	1859.3	973.5
1050.6602	3217.7755	1853.45	966.4
1050.7623	3218.7001	1847	960.8
1050.8643	3219.624	1842.9	957.15
1050.9663	3220.5473	1838.05	952
1051.0682	3221.4701	1833.45	945.2
1051.1701	3222.3922	1831.35	942.7
1051.2719	3223.3137	1824.3	939.1
1051.3737	3224.2346	1816.05	930.1
1051.4754	3225.1549	1821.1	935.35
1051.5771	3226.0746	1808	922.9
1051.6788	3226.9937	1804.35	918.5
1051.7804	3227.9121	1797	912.6
1051.8819	3228.83	1793.95	909.1
1051.9834	3229.7473	1785.9	899.05
1052.0849	3230.6639	1782.5	896.55
1052.1863	3231.5799	1778.95	893.1
1052.2876	3232.4954	1779.7	891.5
1052.3889	3233.4102	1769.75	885.25
1052.4902	3234.3244	1764.2	878.35
1052.5914	3235.238	1764.85	878.95
1052.6926	3236.151	1769.1	857.75
1052.7937	3237.0634	1751.15	867.9
1052.8948	3237.9752	1739.85	854.4
1052.9958	3238.8864	1742.4	855.75
1053.0968	3239.797	1742.2	857.6
1053.1977	3240.7069	1725.5	841.6
1053.2986	3241.6163	1728.3	842.5
1053.3994	3242.5251	1708.9	825.3
1053.5002	3243.4332	1705.9	819.45
1053.6009	3244.3408	1708.85	821.6
1053.7016	3245.2477	1704.1	819.3
1053.8022	3246.154	1694.25	807.95
1053.9028	3247.0598	1690.3	802.05
1054.0034	3247.9649	1679.5	793.55
1054.1039	3248.8694	1684.15	797.7
1054.2043	3249.7733	1671.2	786.45
1054.3047	3250.6766	1678.55	792.2
1054.4051	3251.5793	1669.5	783.2
1054.5054	3252.4814	1661.5	776.8
1054.6056	3253.3829	1659.65	772.45
1054.7058	3254.2838	1656.6	771.1
1054.806	3255.1841	1650.8	766.45
1054.9061	3256.0838	1635.15	749.2
1055.0061	3256.9829	1631.15	746.05
1055.1062	3257.8814	1622.3	733.3
1055.2061	3258.7792	1624.5	736.75
1055.306	3259.6765	1619.25	733.05
1055.4059	3260.5731	1609.5	724.3
1055.5057	3261.4692	1592.15	707.45
1055.6055	3262.3647	1600.35	715.2
1055.7052	3263.2595	1576.5	692.2
1055.8049	3264.1538	1573.75	689.7
1055.9045	3265.0474	1562.55	676.35
1056.0041	3265.9404	1556.35	670.8
1056.1036	3266.8329	1543.9	657.55
1056.2031	3267.7247	1530.4	633.45
1056.3025	3268.616	1510	624.6
1056.4019	3269.5066	1495.9	607.95
1056.5013	3270.3966	1481.8	592.95
1056.6005	3271.286	1460.4	576.4
