Software Version:	3.9.2.0
Unit SN:	10000200
Spectrometer SN:	6960
Date:	3/6/2024 9:26:08 AM
Data Line Index:	25
Spectral Points:	2048
Integration time (ms):	125
Averages:	20
Delay (ms):	30
Sequence Number:	1
Processing:	dark subtract
Laser Power (mW):	305
Laser Current (mA):	818
Laser Diode Temp (C):	25.1
Laser Case Temp (C):	22.9
System Temp (C):	22.7
Spectrometer Temp (C):	20.7
CCD Temp (C):	-0.046
Secondary Temp (C):	20.001
Heatsink Temp (C):	17.498
CCDPCB Temp (C):	29.537
SecondaryPCB Temp (C):	25.124

Wavelength	RamanShift	Raw Counts	Dark Subtracted
787.061	30.1047	632.25	225.1
787.2016	32.3739	645.15	240.35
787.3422	34.6426	659.25	252.7
787.4828	36.9109	676.8	266.9
787.6235	39.1787	689	277.4
787.7642	41.4461	711.75	294.2
787.9049	43.7131	733.8	313.05
788.0456	45.9796	755.5	332.85
788.1863	48.2456	779.15	350.95
788.3271	50.5112	804.5	374
788.4679	52.7764	826.15	392.1
788.6087	55.0411	845.3	407.3
788.7496	57.3054	884.85	441.35
788.8904	59.5692	903.05	456.95
789.0313	61.8326	938.4	492
789.1722	64.0955	974.85	527.05
789.3132	66.3579	1020.1	566.05
789.4541	68.6199	1073.7	615.9
789.5951	70.8815	1174.5	713.8
789.7361	73.1426	1375.75	910.8
789.8771	75.4032	1902	1431.7
790.0181	77.6634	3202.25	2729.6
790.1592	79.9231	6401.05	5927.2
790.3003	82.1824	13491.4	13012.8
790.4414	84.4412	27018.25	26532.85
790.5825	86.6995	49455.35	48964.2
790.7237	88.9574	61431.8	60934.8
790.8648	91.2148	65476.4	64975.8
791.006	93.4717	65535	65031
791.1472	95.7282	65535	65028.2
791.2885	97.9842	65535	65028.5
791.4297	100.2398	65535	65027.35
791.571	102.4949	65535	65020.7
791.7123	104.7495	65535	65015.7
791.8536	107.0036	65535	65016.35
791.9949	109.2573	65535	65020.7
792.1363	111.5105	65535	65017.1
792.2777	113.7632	65535	65015.6
792.4191	116.0154	65535	65001.7
792.5605	118.2672	65535	65008.55
792.7019	120.5185	65535	65007.15
792.8434	122.7693	65535	65004.1
792.9849	125.0197	65535	64998.45
793.1264	127.2696	65535	64994.1
793.2679	129.519	65535	64993.4
793.4094	131.7679	65535	64991.6
793.551	134.0163	65535	64988.75
793.6926	136.2642	65535	64986.75
793.8342	138.5117	65535	64981.95
793.9758	140.7587	65535	64981.4
794.1175	143.0052	65535	64980.65
794.2591	145.2512	65535	64977.85
794.4008	147.4967	65535	64975.4
794.5425	149.7417	65535	64972.05
794.6842	151.9863	65535	64967.95
794.826	154.2304	65535	64964.9
794.9677	156.4739	65535	64959.2
795.1095	158.717	65535	64958.55
795.2513	160.9596	65535	64951.85
795.3931	163.2017	65535	64953.15
795.535	165.4433	65535	64950.7
795.6768	167.6844	65535	64946.85
795.8187	169.925	65535	64943.75
795.9606	172.1651	65535	64941.05
796.1025	174.4047	65535	64937.15
796.2445	176.6439	65535	64936.15
796.3864	178.8825	65535	64934.75
796.5284	181.1206	65535	64930.6
796.6704	183.3582	65535	64923.6
796.8124	185.5954	65535	64921.45
796.9544	187.832	65535	64919.65
797.0965	190.0681	65535	64915.2
797.2386	192.3037	65535	64913.45
797.3806	194.5388	65535	64908.8
797.5228	196.7734	65535	64910.1
797.6649	199.0075	65535	64908.45
797.807	201.2411	65535	64908.85
797.9492	203.4742	65535	64904.8
798.0914	205.7068	65535	64899.2
798.2336	207.9389	65535	64898.7
798.3758	210.1704	65535	64907.5
798.518	212.4015	65535	64921
798.6603	214.632	65535	64923.4
798.8025	216.862	65535	64922.95
798.9448	219.0915	65535	64918.8
799.0871	221.3205	65535	64917.25
799.2294	223.549	65535	64923.85
799.3718	225.777	65535	64922.4
799.5141	228.0044	65535	64912.25
799.6565	230.2314	65535	64910.65
799.7989	232.4578	65535	64906.05
799.9413	234.6837	65535	64898.8
800.0837	236.909	65535	64898.6
800.2262	239.1339	65535	64871.8
800.3687	241.3582	65535	64887.45
800.5111	243.582	65535	64856.85
800.6536	245.8053	65535	64869.1
800.7961	248.0281	65535	64874.2
800.9387	250.2503	65535	64870.05
801.0812	252.472	65535	64870.45
801.2238	254.6932	65535	64870.4
801.3664	256.9139	65535	64869.2
801.509	259.134	65535	64864.15
801.6516	261.3536	65535	64867.55
801.7942	263.5727	65535	64863.35
801.9369	265.7912	65535	64864.05
802.0795	268.0092	65535	64866.2
802.2222	270.2267	65535	64861.7
802.3649	272.4436	65535	64859.45
802.5076	274.6601	65535	64850.4
802.6504	276.8759	65535	64856.15
802.7931	279.0913	65535	64854.95
802.9359	281.3061	65535	64851.95
803.0787	283.5204	65535	64848.25
803.2215	285.7341	65535	64846.3
803.3643	287.9473	65535	64837.55
803.5071	290.16	65535	64844.9
803.6499	292.3721	65535	64851.85
803.7928	294.5837	65535	64851.1
803.9357	296.7947	65535	64848.7
804.0786	299.0052	65535	64847.35
804.2215	301.2152	65535	64842.8
804.3644	303.4246	65535	64847.55
804.5074	305.6334	65535	64845.85
804.6503	307.8418	65535	64839.55
804.7933	310.0495	65535	64838.35
804.9363	312.2568	65535	64840.55
805.0793	314.4635	65535	64837.45
805.2223	316.6696	65535	64837
805.3653	318.8752	65535	64825.9
805.5084	321.0802	65535	64832.55
805.6514	323.2847	65535	64830.35
805.7945	325.4887	65535	64831
805.9376	327.692	65535	64829.95
806.0807	329.8949	65535	64826.8
806.2238	332.0972	65535	64826.9
806.367	334.2989	65535	64818.55
806.5101	336.5001	65535	64822.6
806.6533	338.7007	65535	64822.75
806.7965	340.9008	65535	64820.85
806.9397	343.1003	65535	64818.3
807.0829	345.2992	65535	64817.15
807.2261	347.4976	65535	64815.7
807.3693	349.6955	65535	64813
807.5126	351.8927	65535	64812.25
807.6559	354.0895	65535	64798.1
807.7991	356.2856	65535	64809.75
807.9424	358.4812	65535	64808.05
808.0857	360.6763	65535	64804.8
808.2291	362.8707	65535	64802.65
808.3724	365.0646	65535	64802.35
808.5158	367.258	65535	64799.4
808.6591	369.4508	65535	64795.9
808.8025	371.643	65535	64797.2
808.9459	373.8346	65535	64794.5
809.0893	376.0257	65535	64789.4
809.2327	378.2162	65535	64792.1
809.3762	380.4062	65535	64791.5
809.5196	382.5956	65535	64796.5
809.6631	384.7844	65535	64803
809.8066	386.9726	65535	64801.55
809.9501	389.1603	65535	64801.85
810.0936	391.3474	65535	64755.45
810.2371	393.5339	65535	64798.05
810.3806	395.7199	65535	64801.15
810.5241	397.9052	65535	64799.85
810.6677	400.09	65535	64795.6
810.8113	402.2743	65535	64794.85
810.9548	404.4579	65535	64792.5
811.0984	406.641	65535	64789.9
811.2421	408.8235	65535	64790.9
811.3857	411.0054	65535	64787.7
811.5293	413.1868	65535	64782.8
811.673	415.3675	65535	64780.3
811.8166	417.5477	65535	64778
811.9603	419.7273	65535	64776.9
812.104	421.9064	65535	64769.1
812.2477	424.0848	65535	64776.9
812.3914	426.2627	65535	64776.25
812.5351	428.4399	65535	64775.25
812.6788	430.6166	65535	64770.65
812.8226	432.7928	65535	64769.4
812.9663	434.9683	65535	64768.55
813.1101	437.1432	65535	64770.5
813.2539	439.3176	65535	64770.1
813.3977	441.4914	65535	64768.75
813.5415	443.6645	65535	64764.7
813.6853	445.8371	65535	64767.65
813.8291	448.0091	65535	64769.15
813.973	450.1806	65535	64765.6
814.1168	452.3514	65535	64762.5
814.2607	454.5216	65535	64755.25
814.4046	456.6913	65535	64758.7
814.5485	458.8603	65535	64763.25
814.6924	461.0288	65535	64764.8
814.8363	463.1967	65535	64764.25
814.9802	465.3639	65535	64759.4
815.1241	467.5306	65535	64759.9
815.2681	469.6967	65535	64761.5
815.412	471.8622	65535	64759.3
815.556	474.0271	65535	64761.55
815.7	476.1914	65535	64758.05
815.844	478.3551	65535	64757.6
815.988	480.5182	65535	64756.95
816.132	482.6807	65535	64754.45
816.276	484.8426	65535	64757.25
816.4201	487.0039	65535	64757.5
816.5641	489.1647	65535	64755
816.7082	491.3248	65535	64753.55
816.8522	493.4843	65535	64753.8
816.9963	495.6432	65535	64752.2
817.1404	497.8015	65535	64750
817.2845	499.9592	65535	64750.9
817.4286	502.1163	65535	64749.6
817.5727	504.2728	65535	64749.4
817.7168	506.4287	65535	64750.5
817.861	508.5839	65535	64748.55
818.0051	510.7386	65535	64748.3
818.1493	512.8927	65535	64738.3
818.2935	515.0461	65535	64747.05
818.4377	517.199	65535	64746.8
818.5818	519.3512	65535	64744.15
818.726	521.5029	65535	64737.9
818.8703	523.6539	65535	64740.4
819.0145	525.8043	65535	64742.25
819.1587	527.9541	65535	64739.05
819.303	530.1033	65535	64740.5
819.4472	532.2519	65535	64742.65
819.5915	534.3999	65535	64737.75
819.7357	536.5472	65535	64737.35
819.88	538.694	65535	64740
820.0243	540.8401	65535	64738.4
820.1686	542.9856	65535	64735.65
820.3129	545.1305	65535	64736.4
820.4572	547.2748	65535	64735.45
820.6016	549.4185	65535	64733.45
820.7459	551.5615	65535	64736.2
820.8902	553.704	65535	64735.1
821.0346	555.8458	65535	64735.2
821.1789	557.987	65535	64735.9
821.3233	560.1276	65535	64733.8
821.4677	562.2675	65535	64735
821.6121	564.4069	65535	64733.55
821.7565	566.5456	65535	64734.15
821.9009	568.6837	65535	64733.5
822.0453	570.8212	65535	64734.3
822.1897	572.958	65535	64731.3
822.3342	575.0942	65535	64732.85
822.4786	577.2299	65535	64729.7
822.6231	579.3648	65535	64732.7
822.7675	581.4992	65535	64728.95
822.912	583.6329	65535	64730.8
823.0565	585.766	65535	64731.15
823.201	587.8985	65535	64728.9
823.3454	590.0304	65535	64703.85
823.4899	592.1616	65535	64722.3
823.6345	594.2922	65535	64725.75
823.779	596.4222	65535	64724.45
823.9235	598.5515	65535	64724.1
824.068	600.6802	65535	64726.4
824.2126	602.8083	65535	64725.15
824.3571	604.9358	65535	64722.75
824.5017	607.0626	65535	64722.9
824.6462	609.1888	65535	64719.15
824.7908	611.3144	65535	64721.55
824.9354	613.4393	65535	64721.3
825.08	615.5636	65535	64721.3
825.2246	617.6873	65535	64721.5
825.3692	619.8103	65535	64718.9
825.5138	621.9327	65535	64717.35
825.6584	624.0544	65535	64720
825.803	626.1756	65535	64718.65
825.9477	628.2961	65535	64717.95
826.0923	630.4159	65535	64717.85
826.237	632.5351	65535	64717.05
826.3816	634.6537	65535	64717.95
826.5263	636.7716	65535	64715.65
826.6709	638.8889	65535	64714.2
826.8156	641.0056	65535	64714.1
826.9603	643.1216	65535	64712.75
827.105	645.237	65535	64714.95
827.2497	647.3518	65535	64713.25
827.3944	649.4659	65535	64715.55
827.5391	651.5793	65535	64714.85
827.6838	653.6922	65535	64713.8
827.8285	655.8043	65535	64711.35
827.9733	657.9159	65535	64710.6
828.118	660.0268	65535	64711.15
828.2627	662.137	65535	64712.2
828.4075	664.2466	65535	64706.8
828.5522	666.3556	65535	64712.6
828.697	668.4639	65535	64707.35
828.8418	670.5716	65535	64711.75
828.9865	672.6786	65535	64704.6
829.1313	674.785	65535	64707.6
829.2761	676.8907	65535	64706.9
829.4209	678.9958	65535	64710.25
829.5657	681.1002	65535	64707.5
829.7105	683.204	65535	64702.95
829.8553	685.3072	65535	64706.15
830.0001	687.4097	65535	64706.9
830.1449	689.5115	65535	64704.15
830.2898	691.6127	65535	64705.85
830.4346	693.7132	65535	64705.1
830.5794	695.8131	65535	64684.75
830.7243	697.9123	65535	64702.95
830.8691	700.0109	65535	64703.3
831.014	702.1089	65535	64704.65
831.1588	704.2061	65535	64705.7
831.3037	706.3028	65535	64701.7
831.4486	708.3987	65535	64701.8
831.5935	710.4941	65535	64701.3
831.7383	712.5887	65535	64699.9
831.8832	714.6827	65535	64697.6
832.0281	716.7761	65535	64701.3
832.173	718.8688	65535	64698.25
832.3179	720.9608	65535	64696.7
832.4628	723.0522	65535	64697.65
832.6077	725.1429	65535	64699
832.7527	727.233	65535	64698.9
832.8976	729.3224	65535	64698.55
833.0425	731.4112	65535	64698.1
833.1874	733.4993	65535	64696.05
833.3324	735.5867	65535	64696.4
833.4773	737.6735	65535	64696.65
833.6222	739.7596	65535	64694.65
833.7672	741.845	65535	64696.7
833.9122	743.9298	65535	64695.55
834.0571	746.014	65535	64695.6
834.2021	748.0974	65535	64694.4
834.347	750.1802	65535	64695.45
834.492	752.2624	65535	64694.45
834.637	754.3439	65535	64693.35
834.782	756.4247	65535	64685.8
834.9269	758.5048	65535	64693.7
835.0719	760.5843	65535	64693.35
835.2169	762.6631	65535	64691.65
835.3619	764.7413	65535	64693.7
835.5069	766.8188	65535	64693.2
835.6519	768.8956	65535	64689.05
835.7969	770.9718	65535	64692.7
835.9419	773.0473	65535	64692.7
836.0869	775.1221	65535	64691.7
836.232	777.1962	65535	64691.25
836.377	779.2697	65535	64690.4
836.522	781.3426	65535	64680.8
836.667	783.4147	65535	64688.25
836.8121	785.4862	65535	64690.45
836.9571	787.557	65535	64690
837.1021	789.6271	65535	64691.9
837.2472	791.6966	65535	64690.45
837.3922	793.7654	65535	64689.3
837.5373	795.8335	65535	64688.2
837.6823	797.901	65535	64689.7
837.8274	799.9678	65535	64687.4
837.9724	802.0339	65535	64690.35
838.1175	804.0993	65535	64680.7
838.2626	806.1641	65534.25	64687.75
838.4076	808.2282	65530.85	64685.2
838.5527	810.2916	65528.85	64678.9
838.6978	812.3544	65535	64689.55
838.8428	814.4164	65529.95	64683.15
838.9879	816.4778	65527.4	64679.6
839.133	818.5385	65530.75	64682.2
839.2781	820.5986	65531.85	64684.35
839.4232	822.658	65533.8	64683.2
839.5682	824.7166	65535	64688.45
839.7133	826.7747	65508.3	64659.95
839.8584	828.832	65513.95	64665.7
840.0035	830.8886	65529.85	64678.75
840.1486	832.9446	65533.7	64683.45
840.2937	834.9999	65446.15	64597.4
840.4388	837.0545	65499.8	64645.65
840.5839	839.1085	65528.45	64678.1
840.729	841.1618	65513.2	64657.7
840.8741	843.2143	65405.85	64553.1
841.0192	845.2662	65399.95	64550.25
841.1643	847.3175	65471.35	64619.95
841.3095	849.368	65242.4	64389.8
841.4546	851.4179	65476.85	64624.55
841.5997	853.467	65371.7	64520.1
841.7448	855.5155	65463.75	64611.3
841.8899	857.5633	65315.35	64463.45
842.0351	859.6105	65278.55	64426.95
842.1802	861.6569	65394.4	64543.15
842.3253	863.7027	65138.8	64285
842.4704	865.7478	65254.75	64401.45
842.6156	867.7922	65204.35	64352.45
842.7607	869.8359	65323	64469.45
842.9058	871.8789	65006.2	64151.7
843.0509	873.9212	65147.75	64262.25
843.1961	875.9629	65236.45	64383.55
843.3412	878.0039	65124.95	64267.2
843.4863	880.0441	64983.95	64129.25
843.6315	882.0837	65051.25	64196.05
843.7766	884.1226	65050.1	64194.45
843.9218	886.1609	65075.4	64221.2
844.0669	888.1984	64941.1	64087
844.212	890.2352	65182.4	64330.25
844.3572	892.2714	64931.6	64070.95
844.5023	894.3069	65085.6	64229.1
844.6475	896.3416	64903.7	64048.45
844.7926	898.3757	64875.8	64020
844.9377	900.4091	64427.75	63571.5
845.0829	902.4418	65056.55	64195.9
845.228	904.4739	64755.8	63895.05
845.3732	906.5052	64782	63924.6
845.5183	908.5358	64661	63805.95
845.6635	910.5658	64582.4	63722.35
845.8086	912.595	64631.7	63775.9
845.9538	914.6236	64130.65	63275.45
846.0989	916.6515	64848.9	63992.9
846.2441	918.6786	64140.7	63281.55
846.3892	920.7051	64360.1	63500.55
846.5344	922.7309	64222	63361.3
846.6795	924.756	64340.75	63483.05
846.8246	926.7804	64108	63245.8
846.9698	928.8041	63477.45	62615
847.1149	930.8272	64028.4	63170.8
847.2601	932.8495	64094.7	63233.45
847.4052	934.8711	63663.45	62801.65
847.5504	936.892	63301.3	62441.3
847.6955	938.9123	63733.8	62872.65
847.8407	940.9318	63465.45	62606.65
847.9858	942.9506	63408.65	62548.9
848.131	944.9688	63501.45	62640.8
848.2761	946.9862	62581.3	61722.3
848.4213	949.003	63062.15	62203.55
848.5664	951.019	62120.55	61258.45
848.7115	953.0344	62321.3	61459.2
848.8567	955.0491	62127.65	61265.2
849.0018	957.063	62495.6	61633.95
849.147	959.0763	62581.55	61720.65
849.2921	961.0888	61697.1	60833.6
849.4373	963.1007	62292.7	61429.8
849.5824	965.1119	62278.45	61416.05
849.7275	967.1223	61647.3	60785.15
849.8727	969.1321	62355.2	61494.6
850.0178	971.1412	61420.9	60560.15
850.1629	973.1495	61111.5	60249.85
850.3081	975.1572	61575.7	60667.85
850.4532	977.1641	61110.5	60249.15
850.5983	979.1704	61087.25	60222.35
850.7435	981.1759	61164.65	60297.9
850.8886	983.1808	60592.65	59729.85
851.0337	985.1849	60558.5	59689
851.1788	987.1884	60611.1	59744.8
851.324	989.1911	61009.3	60141.2
851.4691	991.1932	59655	58788.4
851.6142	993.1945	59902	59038.15
851.7593	995.1951	60316.45	59452.25
851.9045	997.1951	59641.65	58772.3
852.0496	999.1943	59473.9	58612.7
852.1947	1001.1928	59257.45	58393.4
852.3398	1003.1906	59455.8	58593.15
852.4849	1005.1877	58671.9	57804.75
852.63	1007.1841	58455.7	57589.35
852.7751	1009.1798	58570.95	57707.5
852.9202	1011.1748	58585.9	57718.5
853.0653	1013.1691	58483.2	57618.2
853.2104	1015.1627	57123.7	56257.85
853.3555	1017.1556	57719.3	56855.35
853.5006	1019.1477	57995.2	57129.75
853.6457	1021.1392	57327.95	56464
853.7908	1023.1299	56453.2	55587.1
853.9359	1025.12	56964.15	56096.85
854.081	1027.1093	56431.55	55567.75
854.2261	1029.0979	56377.5	55514.5
854.3712	1031.0859	56279.75	55416.4
854.5163	1033.0731	55632.5	54767.95
854.6613	1035.0596	55817.5	54952.2
854.8064	1037.0454	55843.35	54976.1
854.9515	1039.0304	55416.4	54549.4
855.0965	1041.0148	54794	53927.65
855.2416	1042.9985	54998.55	54132.75
855.3867	1044.9814	55267.4	54399.85
855.5317	1046.9636	54612.5	53742.75
855.6768	1048.9452	54606.25	53739.85
855.8219	1050.926	54474.05	53610.1
855.9669	1052.9061	54475.1	53610.45
856.112	1054.8855	54552.95	53686.85
856.257	1056.8642	54035.7	53167.35
856.4021	1058.8421	53911.6	53038.3
856.5471	1060.8194	53824.2	52955.65
856.6921	1062.7959	53625.9	52757.6
856.8372	1064.7717	53824.8	52956.1
856.9822	1066.7469	53569.55	52697.7
857.1272	1068.7213	53660.1	52789.35
857.2723	1070.695	53460.7	52591.65
857.4173	1072.6679	53041.35	52170.6
857.5623	1074.6402	53316.15	52447.55
857.7073	1076.6117	53087.75	52214.55
857.8523	1078.5826	53041.1	52171.35
857.9973	1080.5527	52916.95	52046.8
858.1423	1082.5221	52617.15	51748.6
858.2873	1084.4908	52565.25	51697.35
858.4323	1086.4587	52350.5	51481.2
858.5773	1088.426	52233.9	51363.55
858.7223	1090.3925	52107.85	51234.4
858.8673	1092.3584	51972.45	51104.15
859.0123	1094.3235	51745.15	50876.8
859.1573	1096.2879	51686.7	50815.75
859.3022	1098.2515	51646.9	50778.15
859.4472	1100.2145	51605.55	50737.55
859.5922	1102.1767	51445.2	50572.3
859.7371	1104.1382	51483	50614.45
859.8821	1106.099	51312.2	50441.1
860.027	1108.0591	51219.8	50350.8
860.172	1110.0185	50897.75	50026.15
860.3169	1111.9771	51169.6	50300.45
860.4619	1113.9351	51049.7	50177.9
860.6068	1115.8923	50937.75	50066.5
860.7517	1117.8488	50913.3	50040.5
860.8967	1119.8045	50568.5	49696.85
861.0416	1121.7596	50518.15	49647.6
861.1865	1123.7139	50155	49284.4
861.3314	1125.6675	50076.2	49205.85
861.4763	1127.6204	49955.55	49083.7
861.6212	1129.5726	49826.9	48954.65
861.7661	1131.524	49828.2	48958.6
861.911	1133.4748	49702.55	48831.4
862.0559	1135.4248	49453.25	48581.35
862.2008	1137.3741	49310	48438.3
862.3457	1139.3226	49205.45	48331.95
862.4905	1141.2705	49219.45	48346.6
862.6354	1143.2176	48919.5	48042.35
862.7803	1145.164	48869.2	47997.35
862.9251	1147.1097	48886.65	48014.3
863.07	1149.0546	48797.3	47924.55
863.2148	1150.9989	48711.9	47840.3
863.3597	1152.9424	48592.05	47718.8
863.5045	1154.8852	48546.6	47674.85
863.6493	1156.8272	48489.25	47618.45
863.7942	1158.7686	48549.95	47671.5
863.939	1160.7092	48237.35	47364.85
864.0838	1162.6491	48046.05	47172.35
864.2286	1164.5883	48055.5	47183.9
864.3734	1166.5267	47914.95	47042.95
864.5182	1168.4644	48038.8	47165.6
864.663	1170.4014	47900.8	47024.25
864.8078	1172.3377	47963.85	47094.9
864.9526	1174.2732	47989.6	47118.95
865.0974	1176.2081	48018.9	47145.95
865.2421	1178.1421	48007.35	47130.85
865.3869	1180.0755	48117.5	47245.9
865.5317	1182.0082	47995	47121.95
865.6764	1183.9401	47949.25	47075.05
865.8212	1185.8713	47696.25	46824.05
865.9659	1187.8017	47501.6	46629.8
866.1106	1189.7315	47361.85	46488.8
866.2554	1191.6605	46993.75	46122.55
866.4001	1193.5888	46733.95	45862.65
866.5448	1195.5163	46601.65	45728.75
866.6895	1197.4432	46473	45598.8
866.8342	1199.3693	46384.55	45510.9
866.9789	1201.2947	46170.45	45293.35
867.1236	1203.2193	46025.6	45153.2
867.2683	1205.1432	45905.95	45030.1
867.413	1207.0664	45740.9	44867.25
867.5576	1208.9889	45599.35	44722.05
867.7023	1210.9106	45461.65	44585.65
867.847	1212.8316	45272.8	44400.7
867.9916	1214.7519	45230.6	44345.75
868.1363	1216.6715	45103.75	44230
868.2809	1218.5903	45047.75	44174.15
868.4255	1220.5084	44975	44101.8
868.5701	1222.4257	44968.55	44094.15
868.7148	1224.3424	44763.05	43889.95
868.8594	1226.2583	44710.05	43832.25
869.004	1228.1735	44635.25	43759.5
869.1486	1230.0879	44430.75	43553.25
869.2932	1232.0016	44423	43550.55
869.4377	1233.9146	44341.5	43464.55
869.5823	1235.8269	44232.7	43361.1
869.7269	1237.7384	44237.05	43361.8
869.8715	1239.6492	44019.9	43146.85
870.016	1241.5592	44019.9	43143.4
870.1606	1243.4686	43918.65	43046.7
870.3051	1245.3772	43940.45	43066.05
870.4496	1247.285	43932.7	43058.75
870.5941	1249.1922	43825.75	42949.45
870.7387	1251.0986	43905.4	43031.45
870.8832	1253.0042	43748.6	42873.1
871.0277	1254.9092	43792.7	42916.3
871.1722	1256.8134	43809	42934.55
871.3167	1258.7169	44011.6	43137.5
871.4611	1260.6196	43918.45	43042.95
871.6056	1262.5216	44003.8	43124.75
871.7501	1264.4229	43835.8	42960.2
871.8945	1266.3234	43812.7	42937.6
872.039	1268.2232	43687.25	42811.25
872.1834	1270.1223	43463.6	42586.55
872.3278	1272.0207	43388.05	42510.15
872.4723	1273.9183	43246.8	42363.85
872.6167	1275.8151	43212.75	42337.25
872.7611	1277.7113	43178.3	42300.1
872.9055	1279.6067	43171.85	42298.4
873.0499	1281.5014	43212.05	42332.9
873.1943	1283.3953	43437.2	42560.05
873.3386	1285.2885	43655.6	42779.5
873.483	1287.181	43842.55	42963
873.6274	1289.0727	44002.9	43126.05
873.7717	1290.9637	43808.2	42930.5
873.9161	1292.854	43621.8	42746.9
874.0604	1294.7435	43274.25	42399.55
874.2047	1296.6323	43096.5	42219.95
874.349	1298.5204	42875.65	41994.25
874.4933	1300.4077	42766.15	41891
874.6376	1302.2943	42635.9	41758.1
874.7819	1304.1802	42581.5	41706.25
874.9262	1306.0653	42441.05	41561.8
875.0705	1307.9497	42324.05	41447.6
875.2147	1309.8333	42338.25	41461
875.359	1311.7162	42220.45	41343.35
875.5032	1313.5984	42181.45	41303.05
875.6475	1315.4798	42008.45	41119.35
875.7917	1317.3605	41981.95	41101.55
875.9359	1319.2405	41983.1	41106.1
876.0801	1321.1197	41909.05	41029.7
876.2243	1322.9982	41787.2	40905.25
876.3685	1324.876	41756.1	40879.85
876.5127	1326.753	41508.35	40630.05
876.6569	1328.6293	41460.5	40581.85
876.801	1330.5048	41331.65	40451.85
876.9452	1332.3796	41085.25	40210.35
877.0893	1334.2537	40975.35	40071.55
877.2335	1336.127	40781.2	39904.15
877.3776	1337.9996	40746.7	39868.95
877.5217	1339.8714	40575.5	39697.9
877.6658	1341.7426	40488	39567.3
877.8099	1343.6129	40448.3	39570.65
877.954	1345.4826	40296.9	39419.65
878.0981	1347.3515	40352.75	39472.7
878.2422	1349.2196	40218.4	39339.3
878.3862	1351.087	40186.9	39308.9
878.5303	1352.9537	40161.7	39284.45
878.6743	1354.8197	40159.1	39281.65
878.8184	1356.6849	40100.75	39222.3
878.9624	1358.5493	40009.7	39133.7
879.1064	1360.4131	39987.65	39108.65
879.2504	1362.276	39868.7	38991.8
879.3944	1364.1383	39883.35	39006.8
879.5384	1365.9998	39774.25	38892.4
879.6823	1367.8606	39663.3	38783.45
879.8263	1369.7206	39632.05	38751.5
879.9702	1371.5799	39519.85	38639.7
880.1142	1373.4384	39415.6	38537.6
880.2581	1375.2962	39368.9	38489.4
880.402	1377.1533	39163.2	38284.55
880.5459	1379.0096	38968.35	38090.15
880.6898	1380.8652	38793.8	37917.5
880.8337	1382.7201	38713.65	37837.4
880.9776	1384.5742	38456.55	37577.05
881.1215	1386.4275	38290.05	37411.75
881.2653	1388.2802	38128.4	37252.05
881.4092	1390.132	37978.75	37103.05
881.553	1391.9832	37996.7	37117.55
881.6968	1393.8336	37785.8	36908.8
881.8406	1395.6832	37708.4	36829.75
881.9844	1397.5322	37541.2	36660.6
882.1282	1399.3803	37432.3	36548.45
882.272	1401.2278	37283.95	36403.85
882.4158	1403.0745	37223.1	36344.1
882.5595	1404.9204	36993.7	36117.1
882.7033	1406.7656	36991.7	36112.15
882.847	1408.6101	36782.3	35902.45
882.9908	1410.4538	36682.95	35804.05
883.1345	1412.2968	36577.15	35696.6
883.2782	1414.139	36462.1	35582.1
883.4219	1415.9805	36365.9	35489.15
883.5656	1417.8213	36246.75	35348
883.7092	1419.6613	36181.95	35303.7
883.8529	1421.5006	36153.35	35273.05
883.9965	1423.3391	36067.2	35188.85
884.1402	1425.1769	36003.5	35120.5
884.2838	1427.0139	36102	35222.55
884.4274	1428.8502	36129.55	35248
884.571	1430.6858	36111	35232.45
884.7146	1432.5206	35964.95	35085.25
884.8582	1434.3547	35946.3	35065.85
885.0018	1436.188	35898.7	35020.15
885.1453	1438.0206	35832.25	34951.55
885.2889	1439.8524	35665.05	34785.95
885.4324	1441.6835	35710.9	34828.5
885.5759	1443.5139	35588.7	34704.8
885.7194	1445.3435	35456.75	34576.75
885.8629	1447.1724	35474.65	34594.45
886.0064	1449.0005	35433.7	34554.5
886.1499	1450.8279	35366.7	34486.8
886.2933	1452.6545	35320.1	34441.05
886.4368	1454.4804	35325.65	34448.1
886.5802	1456.3056	35161.25	34275.8
886.7237	1458.13	35139.05	34260.2
886.8671	1459.9536	35099.1	34218.8
887.0105	1461.7766	35005.1	34126.75
887.1539	1463.5987	34880.6	34002.6
887.2972	1465.4202	34710	33830.65
887.4406	1467.2409	34614.85	33734.45
887.584	1469.0608	34584.15	33706.35
887.7273	1470.88	34469.3	33588
887.8706	1472.6984	34397.45	33518.85
888.0139	1474.5161	34279.75	33397.95
888.1572	1476.3331	34184.3	33305.2
888.3005	1478.1493	34123.35	33242.1
888.4438	1479.9648	34061.6	33182.65
888.5871	1481.7795	34006.35	33125.15
888.7303	1483.5935	34000.65	33122.3
888.8736	1485.4067	33880.25	33001
889.0168	1487.2192	33859.3	32978.55
889.16	1489.031	33867.95	32986.45
889.3032	1490.842	33728.95	32850.6
889.4464	1492.6522	33744.4	32863.2
889.5896	1494.4618	33620.2	32741.45
889.7327	1496.2705	33578.4	32700.15
889.8759	1498.0785	33514.55	32634.25
890.019	1499.8858	33423.95	32545.3
890.1622	1501.6924	33330.35	32450.75
890.3053	1503.4981	33284.75	32405.15
890.4484	1505.3032	33223.2	32342.25
890.5914	1507.1075	33162.2	32282.4
890.7345	1508.911	33106	32225.6
890.8776	1510.7138	33009.35	32130.8
891.0206	1512.5159	32864.55	31983.3
891.1637	1514.3172	32806.1	31927.25
891.3067	1516.1178	32690.45	31809.6
891.4497	1517.9176	32671.6	31787.65
891.5927	1519.7166	32579.15	31699.85
891.7357	1521.515	32455.8	31570.5
891.8786	1523.3126	32372.8	31492.45
892.0216	1525.1094	32327.7	31446.8
892.1645	1526.9055	32149.1	31268.85
892.3074	1528.7008	32077.8	31198
892.4503	1530.4954	31905.05	31017.85
892.5932	1532.2893	31846.3	30968.05
892.7361	1534.0824	31687.05	30801.75
892.879	1535.8747	31659.2	30778.8
893.0218	1537.6663	31566.75	30686.65
893.1647	1539.4572	31452.95	30572.55
893.3075	1541.2473	31412.2	30530.3
893.4503	1543.0367	31269.85	30389.9
893.5931	1544.8253	31174.9	30289.6
893.7359	1546.6132	31163.65	30283.35
893.8787	1548.4003	30977.65	30087.9
894.0214	1550.1867	30958.65	30070.5
894.1642	1551.9723	30868.1	29982.4
894.3069	1553.7572	30836.55	29954.6
894.4496	1555.5414	30750.95	29869.45
894.5923	1557.3247	30722.4	29842.6
894.735	1559.1074	30631.15	29752.9
894.8777	1560.8893	30589.4	29708.95
895.0204	1562.6705	30523.3	29643.65
895.163	1564.4509	30466.25	29588.25
895.3056	1566.2305	30383.45	29505.5
895.4482	1568.0094	30447.3	29567
895.5908	1569.7876	30382.9	29503.85
895.7334	1571.565	30292.6	29411.15
895.876	1573.3417	30276.65	29395.65
896.0186	1575.1176	30185.7	29305.9
896.1611	1576.8928	30128.1	29245.35
896.3036	1578.6672	30020.85	29143.2
896.4461	1580.4409	29921.75	29042.75
896.5886	1582.2138	29853.1	28972.65
896.7311	1583.986	29840.05	28959.2
896.8736	1585.7575	29867.95	28989.1
897.0161	1587.5282	29825.05	28946.8
897.1585	1589.2981	29846.65	28966.7
897.3009	1591.0673	29742.25	28860.7
897.4433	1592.8358	29742.3	28864.1
897.5857	1594.6035	29633.55	28751.75
897.7281	1596.3704	29512	28632.55
897.8705	1598.1366	29363.85	28484.15
898.0128	1599.9021	29234.25	28355.85
898.1551	1601.6668	29070.8	28187.65
898.2975	1603.4308	28873.75	27993.4
898.4398	1605.194	28802.65	27917.15
898.5821	1606.9564	28758.5	27880.05
898.7243	1608.7182	28826.35	27941.65
898.8666	1610.4791	28787.1	27907.15
899.0088	1612.2394	28825.9	27947.4
899.1511	1613.9988	28860.5	27980.5
899.2933	1615.7576	28987.8	28109.55
899.4355	1617.5156	28998.45	28112.45
899.5776	1619.2728	28940.45	28060.15
899.7198	1621.0293	28760.55	27883.3
899.862	1622.785	28572.55	27691.25
900.0041	1624.54	28280.15	27397.8
900.1462	1626.2942	28080.85	27200.65
900.2883	1628.0477	27798.4	26916.45
900.4304	1629.8005	27635.2	26751.2
900.5725	1631.5525	27453.3	26573.45
900.7145	1633.3037	27281.15	26401.25
900.8566	1635.0542	27215.35	26336.35
900.9986	1636.804	27044.7	26163.1
901.1406	1638.553	27033.05	26063.45
901.2826	1640.3013	26844.8	25965.1
901.4245	1642.0488	26721.5	25839.3
901.5665	1643.7955	26663.1	25784.55
901.7085	1645.5416	26570.35	25689.45
901.8504	1647.2868	26469.85	25590.5
901.9923	1649.0313	26360.5	25482.1
902.1342	1650.7751	26316.5	25435
902.2761	1652.5181	26198.65	25320
902.4179	1654.2604	26090.6	25210.2
902.5598	1656.0019	26063.05	25182.4
902.7016	1657.7427	26066	25188.45
902.8434	1659.4828	25996.15	25115.6
902.9852	1661.222	25944.4	25064.1
903.127	1662.9606	25884.8	25004.1
903.2687	1664.6984	25892.5	25011.45
903.4105	1666.4354	25907	25024.5
903.5522	1668.1717	25807.25	24927.7
903.6939	1669.9072	25632.65	24753.7
903.8356	1671.642	25560.95	24677.55
903.9773	1673.3761	25458.2	24578.05
904.119	1675.1094	25285.05	24404.9
904.2606	1676.8419	25148.4	24269.3
904.4022	1678.5737	25013.45	24132.9
904.5439	1680.3048	24944.45	24062.7
904.6855	1682.0351	24816.2	23936.7
904.827	1683.7646	24683	23800.2
904.9686	1685.4934	24629.9	23750.65
905.1101	1687.2215	24499.7	23619.7
905.2517	1688.9488	24387.3	23505.3
905.3932	1690.6754	24277.45	23397.55
905.5347	1692.4012	24216.75	23337.95
905.6761	1694.1263	24128.3	23247.65
905.8176	1695.8506	24098.8	23218.15
905.9591	1697.5742	23984.15	23104
906.1005	1699.297	23864.45	22983.2
906.2419	1701.0191	23760.55	22882.25
906.3833	1702.7404	23708.2	22829.05
906.5246	1704.461	23574.55	22693.25
906.666	1706.1808	23494.55	22611.75
906.8073	1707.8999	23435.25	22552.05
906.9487	1709.6182	23362.7	22480.15
907.09	1711.3358	23308.35	22427.85
907.2313	1713.0527	23188.15	22309.35
907.3725	1714.7688	23096.65	22210.95
907.5138	1716.4841	23044.05	22162.9
907.655	1718.1987	23030.4	22145.3
907.7962	1719.9126	22926.6	22047.75
907.9374	1721.6257	22840.9	21958.4
908.0786	1723.338	22829	21949.4
908.2198	1725.0496	22690.85	21809.2
908.3609	1726.7605	22650.1	21769.05
908.502	1728.4706	22570.9	21687.5
908.6431	1730.18	22474.4	21590.5
908.7842	1731.8886	22445.2	21565.8
908.9253	1733.5964	22388	21484.45
909.0664	1735.3036	22314.55	21430.6
909.2074	1737.0099	22324.6	21443.95
909.3484	1738.7156	22250.85	21371.75
909.4894	1740.4204	22152.6	21267.85
909.6304	1742.1246	22118.2	21236.3
909.7714	1743.8279	22099.2	21218.85
909.9123	1745.5306	22064.35	21183.1
910.0532	1747.2325	21995.95	21115.65
910.1941	1748.9336	21936.95	21056.9
910.335	1750.634	21825.35	20943.05
910.4759	1752.3336	21790	20909.75
910.6168	1754.0325	21785.15	20905.35
910.7576	1755.7307	21719.15	20838.7
910.8984	1757.4281	21737.15	20857.2
911.0392	1759.1247	21702.6	20812.45
911.18	1760.8206	21627.55	20742.45
911.3208	1762.5158	21600.1	20716.3
911.4615	1764.2102	21489.75	20608.15
911.6022	1765.9039	21428.35	20550.05
911.7429	1767.5968	21373.15	20491.15
911.8836	1769.289	21359.05	20478.8
912.0243	1770.9804	21273.65	20392
912.1649	1772.6711	21277.65	20399.2
912.3056	1774.361	21222.05	20340.15
912.4462	1776.0502	21183.85	20301.85
912.5868	1777.7386	21157.95	20272.6
912.7274	1779.4263	21060.3	20181.3
912.8679	1781.1132	21040	20157.25
913.0084	1782.7994	20979.45	20097.5
913.149	1784.4849	20891.35	20010.2
913.2895	1786.1696	20865.5	19966.25
913.4299	1787.8535	20801.75	19922
913.5704	1789.5367	20734.55	19852.2
913.7108	1791.2192	20700.45	19819.45
913.8513	1792.9009	20627.3	19730.2
913.9917	1794.5818	20599	19716.95
914.132	1796.2621	20537.95	19657.5
914.2724	1797.9415	20471.2	19589.75
914.4128	1799.6202	20437	19554.75
914.5531	1801.2982	20361.95	19481.85
914.6934	1802.9755	20322.35	19440.45
914.8337	1804.6519	20294	19414.05
914.9739	1806.3277	20191.6	19313.25
915.1142	1808.0027	20129.15	19249.4
915.2544	1809.6769	20089.55	19209.35
915.3946	1811.3504	20049.1	19167.95
915.5348	1813.0231	19996.65	19114.8
915.675	1814.6951	19950.3	19069.85
915.8151	1816.3664	19951.3	19068.3
915.9553	1818.0369	19914.95	19034.8
916.0954	1819.7067	19815.1	18934.8
916.2355	1821.3757	19800.2	18918.2
916.3755	1823.044	19777.4	18896.9
916.5156	1824.7115	19705.2	18821.6
916.6556	1826.3783	19613.65	18735.2
916.7956	1828.0443	19594.4	18714.45
916.9356	1829.7096	19519.85	18636.75
917.0756	1831.3741	19528.05	18644.75
917.2155	1833.0379	19467.85	18588.45
917.3555	1834.701	19411.8	18528.35
917.4954	1836.3633	19391.05	18510.05
917.6353	1838.0248	19324.45	18440.55
917.7751	1839.6856	19272.5	18391.45
917.915	1841.3457	19263.5	18385.6
918.0548	1843.005	19186.25	18306.75
918.1946	1844.6636	19173.4	18292.35
918.3344	1846.3214	19094.15	18213.1
918.4742	1847.9785	19115.75	18237.2
918.6139	1849.6349	19043.35	18162.3
918.7537	1851.2904	18963.35	18073.4
918.8934	1852.9453	18915.35	18033.45
919.0331	1854.5994	18855	17971.2
919.1727	1856.2528	18858.05	17971.95
919.3124	1857.9054	18815.05	17933.2
919.452	1859.5572	18784.15	17906.3
919.5916	1861.2083	18761.45	17878.65
919.7312	1862.8587	18704.95	17823.75
919.8708	1864.5084	18660.2	17779.55
920.0103	1866.1572	18618.95	17737.1
920.1498	1867.8054	18536.5	17655.7
920.2893	1869.4528	18512.6	17630.85
920.4288	1871.0994	18436.35	17554.7
920.5683	1872.7453	18421.95	17540.3
920.7077	1874.3905	18374.05	17487.55
920.8471	1876.0349	18321.7	17439.8
920.9865	1877.6786	18309.2	17428.6
921.1259	1879.3215	18280.5	17399.25
921.2653	1880.9637	18234.7	17352.55
921.4046	1882.6051	18219	17337.05
921.5439	1884.2458	18152	17269.75
921.6832	1885.8858	18094	17211.95
921.8225	1887.525	18084.85	17203.7
921.9617	1889.1634	17974.35	17094.6
922.101	1890.8011	17933.8	17053.5
922.2402	1892.4381	17912.35	17031.35
922.3794	1894.0743	17878	16999.15
922.5185	1895.7098	17829.5	16947.4
922.6577	1897.3446	17811.15	16930.45
922.7968	1898.9786	17757.1	16872.25
922.9359	1900.6118	17716.15	16835.65
923.075	1902.2443	17607.2	16724.45
923.214	1903.8761	17607.75	16725.3
923.3531	1905.5071	17506.95	16622.1
923.4921	1907.1374	17458.65	16575.75
923.6311	1908.7669	17458.35	16576.75
923.77	1910.3957	17415	16533.5
923.909	1912.0237	17295.05	16414.75
924.0479	1913.651	17259.3	16376.15
924.1868	1915.2776	17205.2	16324.1
924.3257	1916.9034	17124.35	16245.9
924.4646	1918.5285	17095.45	16215.7
924.6034	1920.1528	16995.95	16112.55
924.7422	1921.7764	16996.45	16115.2
924.881	1923.3992	16908.3	16028.2
925.0198	1925.0213	16801.35	15920.25
925.1586	1926.6427	16741.4	15862.4
925.2973	1928.2633	16863.3	15774.7
925.436	1929.8832	16700.6	15815.1
925.5747	1931.5023	16611.2	15730.75
925.7134	1933.1207	16562.85	15678.7
925.852	1934.7383	16532.45	15650.85
925.9906	1936.3552	16457.3	15577.5
926.1292	1937.9714	16425.95	15545.1
926.2678	1939.5868	16346.7	15463.8
926.4064	1941.2015	16279.15	15396.95
926.5449	1942.8154	16237.7	15356.45
926.6834	1944.4286	16151.65	15270.9
926.8219	1946.041	16098.3	15195.4
926.9604	1947.6528	16012.7	15128.65
927.0988	1949.2637	16001.2	15121.15
927.2372	1950.8739	15976.1	15094.85
927.3756	1952.4834	15904.45	15023.7
927.514	1954.0921	15880.75	14996.7
927.6523	1955.7001	15810.75	14927.2
927.7907	1957.3074	15807.8	14927.7
927.929	1958.9139	15707.35	14825.85
928.0673	1960.5197	15680.5	14798.25
928.2055	1962.1247	15613.75	14731.5
928.3438	1963.729	15551.95	14672.35
928.482	1965.3325	15494.65	14590.7
928.6202	1966.9353	15455.2	14575.7
928.7584	1968.5374	15388.2	14506.1
928.8965	1970.1387	15328	14447.25
929.0346	1971.7393	15263.8	14381.7
929.1727	1973.3392	15255.8	14376.55
929.3108	1974.9383	15221.6	14339.85
929.4489	1976.5366	15085.25	14205.7
929.5869	1978.1342	15127.85	14245.65
929.7249	1979.7311	15073.75	14191.55
929.8629	1981.3273	15062.7	14181.1
930.0009	1982.9227	15001.45	14117.95
930.1388	1984.5173	14923.3	14042
930.2767	1986.1112	14861.3	13982.5
930.4146	1987.7044	14859.3	13980.45
930.5525	1989.2968	14810.55	13928.8
930.6904	1990.8885	14764.35	13881.15
930.8282	1992.4795	14756.25	13873.35
930.966	1994.0697	14697.85	13816.9
931.1038	1995.6592	14644.65	13763.4
931.2415	1997.2479	14584.45	13702.3
931.3793	1998.8359	14555.65	13674.7
931.517	2000.4232	14465.7	13587.75
931.6547	2002.0097	14484.15	13604.3
931.7923	2003.5955	14354.95	13472.4
931.93	2005.1805	14372.35	13489.8
932.0676	2006.7648	14373.05	13492.9
932.2052	2008.3484	14303.3	13421.7
932.3427	2009.9312	14300.8	13418.05
932.4803	2011.5133	14213.65	13336.45
932.6178	2013.0946	14141.15	13260.3
932.7553	2014.6752	14112.7	13233.75
932.8928	2016.2551	14067.05	13187.1
933.0302	2017.8342	14034.2	13155.8
933.1676	2019.4126	13990.75	13112.15
933.305	2020.9902	13927.15	13046.5
933.4424	2022.5672	13903.2	13021.5
933.5798	2024.1433	13899	13013.5
933.7171	2025.7188	13868.3	12988.35
933.8544	2027.2935	13819.55	12937.35
933.9917	2028.8674	13763.75	12882.4
934.129	2030.4406	13705.1	12825.5
934.2662	2032.0131	13660.25	12779.75
934.4034	2033.5849	13601.45	12718.1
934.5406	2035.1559	13586.7	12706.6
934.6778	2036.7261	13571.65	12693.15
934.8149	2038.2957	13519.8	12639.5
934.952	2039.8645	13520.9	12640.45
935.0891	2041.4325	13485.9	12603.05
935.2262	2042.9998	13443.25	12565
935.3632	2044.5664	13438.55	12556
935.5002	2046.1323	13360.3	12480.15
935.6372	2047.6974	13340.45	12459.45
935.7742	2049.2617	13293.1	12413.8
935.9111	2050.8254	13301.45	12401.45
936.048	2052.3883	13288.35	12408.5
936.1849	2053.9504	13238.95	12359.8
936.3218	2055.5118	13182.15	12301.5
936.4586	2057.0725	13107.15	12221.45
936.5955	2058.6325	13097.25	12214.7
936.7323	2060.1917	13077.1	12197.75
936.869	2061.7502	13027.25	12143.8
937.0058	2063.3079	13004.25	12126.65
937.1425	2064.8649	12977.55	12094
937.2792	2066.4212	12933.7	12053.15
937.4159	2067.9767	12918.85	12039.85
937.5525	2069.5315	12882.85	12000.6
937.6891	2071.0856	12836.15	11956
937.8257	2072.6389	12776.75	11896
937.9623	2074.1915	12708.45	11830.6
938.0989	2075.7433	12653.35	11771.95
938.2354	2077.2945	12617.3	11741.4
938.3719	2078.8448	12611.3	11732.6
938.5084	2080.3945	12546.3	11665.65
938.6448	2081.9434	12562.55	11681.2
938.7812	2083.4916	12494.65	11612.95
938.9176	2085.039	12445.15	11563.75
939.054	2086.5857	12399.45	11516.15
939.1903	2088.1317	12399.3	11519.3
939.3267	2089.677	12369.6	11487.7
939.463	2091.2215	12327.4	11446.65
939.5992	2092.7652	12289.35	11407.6
939.7355	2094.3083	12269.95	11389.1
939.8717	2095.8506	12261.75	11382.25
940.0079	2097.3921	12275.6	11394.1
940.1441	2098.933	12224.55	11344.2
940.2802	2100.4731	12201.05	11320.85
940.4163	2102.0124	12197.35	11301.15
940.5524	2103.5511	12149.3	11269.8
940.6885	2105.089	12120.35	11240.75
940.8245	2106.6261	12114.05	11231.9
940.9606	2108.1626	12092.2	11210
941.0965	2109.6983	12101.55	11191.75
941.2325	2111.2332	12036.75	11156.25
941.3684	2112.7675	11988.4	11107.45
941.5044	2114.301	11962.4	11079.6
941.6403	2115.8337	11954.5	11074.85
941.7761	2117.3657	11909.25	11028.8
941.912	2118.897	11873.45	10992.65
942.0478	2120.4276	11852.15	10966.2
942.1835	2121.9575	11796.45	10915.9
942.3193	2123.4866	11778.3	10896.65
942.455	2125.0149	11752.3	10869.55
942.5907	2126.5426	11688.95	10809.25
942.7264	2128.0695	11690.8	10806.25
942.8621	2129.5956	11637.35	10757.55
942.9977	2131.1211	11600.6	10712.95
943.1333	2132.6458	11575.45	10695.4
943.2689	2134.1698	11538.75	10657.6
943.4044	2135.693	11532.95	10652.35
943.54	2137.2155	11505.45	10623.3
943.6755	2138.7373	11476.4	10597.55
943.8109	2140.2584	11434.95	10555.8
943.9464	2141.7787	11402.95	10517.35
944.0818	2143.2983	11358.15	10479.6
944.2172	2144.8171	11303.2	10421.9
944.3526	2146.3353	11280.95	10399.05
944.4879	2147.8527	11229.55	10350.9
944.6232	2149.3693	11253.3	10371.75
944.7585	2150.8853	11212.7	10334.85
944.8938	2152.4005	11152.15	10271.75
945.029	2153.9149	11143.2	10263.55
945.1642	2155.4287	11091.7	10212.9
945.2994	2156.9417	11044.4	10163.15
945.4346	2158.454	11029.65	10145
945.5697	2159.9655	11006.05	10126.05
945.7048	2161.4764	11018.1	10138.7
945.8399	2162.9865	10941.4	10063.1
945.9749	2164.4958	10930.55	10048.65
946.1099	2166.0045	10886.2	10003.45
946.2449	2167.5124	10882.95	10004.7
946.3799	2169.0195	10837.35	9956.4
946.5148	2170.526	10843.8	9965.25
946.6498	2172.0317	10785.85	9905.5
946.7846	2173.5367	10743.45	9862.45
946.9195	2175.0409	10730.85	9851.1
947.0543	2176.5445	10721.1	9840.75
947.1891	2178.0473	10665.45	9785.1
947.3239	2179.5494	10620.9	9736.25
947.4587	2181.0507	10573.45	9692.6
947.5934	2182.5513	10549.6	9669.55
947.7281	2184.0512	10541.45	9662.85
947.8628	2185.5504	10514.6	9632.9
947.9974	2187.0488	10461.9	9582.95
948.132	2188.5465	10425.6	9544.1
948.2666	2190.0435	10391.7	9510.1
948.4012	2191.5397	10361	9479.95
948.5357	2193.0353	10321.95	9442.4
948.6702	2194.5301	10291.85	9410.35
948.8047	2196.0241	10248.4	9366.6
948.9392	2197.5175	10234	9353.6
949.0736	2199.0101	10226.35	9343
949.208	2200.502	10140.2	9260.35
949.3424	2201.9931	10105.8	9224.65
949.4767	2203.4835	10062.8	9180.2
949.611	2204.9733	10027.35	9140.7
949.7453	2206.4622	10013	9134.75
949.8796	2207.9505	10001.5	9118.75
950.0138	2209.438	9955.6	9077.95
950.148	2210.9248	9918.4	9037.1
950.2822	2212.4109	9917.1	9035.45
950.4164	2213.8962	9876.15	8993.55
950.5505	2215.3809	9854.2	8972.05
950.6846	2216.8648	9835.1	8954.35
950.8186	2218.3479	9798.05	8912.75
950.9527	2219.8304	9747.85	8865.7
951.0867	2221.3121	9711.2	8827.9
951.2207	2222.7931	9690.2	8810.55
951.3546	2224.2733	9631.45	8749.5
951.4886	2225.7529	9613.05	8732.3
951.6225	2227.2317	9587.85	8704.65
951.7563	2228.7098	9567.9	8687.75
951.8902	2230.1872	9526.8	8648.1
952.024	2231.6638	9505.4	8624.75
952.1578	2233.1397	9482	8597
952.2916	2234.6149	9460.05	8579.7
952.4253	2236.0894	9409	8528.25
952.559	2237.5632	9390.9	8509.4
952.6927	2239.0362	9352.5	8470.85
952.8263	2240.5085	9328.1	8448.25
952.9599	2241.9801	9264.05	8385.7
953.0935	2243.4509	9272.6	8393
953.2271	2244.921	9236.7	8358.1
953.3606	2246.3904	9204.6	8319.85
953.4941	2247.8591	9179	8299.6
953.6276	2249.3271	9155.3	8276.15
953.7611	2250.7943	9102.65	8222.05
953.8945	2252.2608	9075.35	8194.8
954.0279	2253.7266	9067.8	8187
954.1612	2255.1917	9024.9	8144.1
954.2946	2256.656	8994.6	8114.2
954.4279	2258.1197	8965.85	8085.15
954.5612	2259.5826	8955.95	8075.2
954.6944	2261.0447	8952.6	8070.35
954.8276	2262.5062	8891.9	8009.2
954.9608	2263.9669	8866.9	7985.75
955.094	2265.4269	8856.15	7976.3
955.2271	2266.8862	8802.7	7921.3
955.3602	2268.3448	8801.05	7919.8
955.4933	2269.8026	8807.7	7927.4
955.6264	2271.2598	8763.85	7884.15
955.7594	2272.7162	8747.5	7868.75
955.8924	2274.1719	8713.25	7832.45
956.0253	2275.6268	8677.55	7796.05
956.1583	2277.0811	8669.65	7790.85
956.2912	2278.5346	8619.9	7737.7
956.4241	2279.9874	8631.9	7752.45
956.5569	2281.4395	8599.85	7720.65
956.6897	2282.8908	8575.1	7690.8
956.8225	2284.3414	8565.7	7684.35
956.9553	2285.7914	8528.9	7648.6
957.088	2287.2406	8493.35	7610.8
957.2207	2288.689	8496.3	7616.15
957.3534	2290.1368	8461.6	7580.3
957.486	2291.5838	8431.8	7548.05
957.6186	2293.0302	8425.15	7545.45
957.7512	2294.4758	8389.85	7508.75
957.8838	2295.9206	8342.1	7460.7
958.0163	2297.3648	8325.95	7445.3
958.1488	2298.8082	8314	7433.55
958.2813	2300.251	8275.85	7395.85
958.4137	2301.693	8268.8	7386
958.5461	2303.1343	8269.25	7386.8
958.6785	2304.5748	8215.75	7337.05
958.8108	2306.0147	8164.3	7282.6
958.9432	2307.4538	8177.4	7294.7
959.0754	2308.8922	8152.5	7272.9
959.2077	2310.3299	8111.5	7231.55
959.3399	2311.7669	8084.6	7203.15
959.4721	2313.2031	8051.45	7171.8
959.6043	2314.6387	8025.05	7146.5
959.7365	2316.0735	8015.85	7136.3
959.8686	2317.5076	7986.05	7106.35
960.0006	2318.941	7964.2	7083
960.1327	2320.3737	7949.6	7069.2
960.2647	2321.8056	7933.3	7049.15
960.3967	2323.2369	7905.6	7024.35
960.5287	2324.6674	7890.3	7008.5
960.6606	2326.0972	7857.7	6974.7
960.7925	2327.5263	7818.1	6939.25
960.9244	2328.9547	7800.65	6918.7
961.0562	2330.3823	7804.6	6924
961.1881	2331.8092	7767.15	6882.25
961.3198	2333.2355	7738.8	6859.9
961.4516	2334.661	7724.95	6842.65
961.5833	2336.0858	7700.45	6817.85
961.715	2337.5098	7679.3	6798.7
961.8467	2338.9332	7695.95	6817.75
961.9783	2340.3558	7640.85	6755.2
962.1099	2341.7778	7607.75	6726.45
962.2415	2343.199	7577.35	6694.2
962.373	2344.6195	7546.45	6667.2
962.5045	2346.0393	7550.45	6670.7
962.636	2347.4583	7541.7	6659.25
962.7675	2348.8767	7516.85	6635.9
962.8989	2350.2943	7484.1	6604.15
963.0303	2351.7113	7481.6	6602.5
963.1617	2353.1275	7436.15	6554.9
963.293	2354.543	7429.7	6541.6
963.4243	2355.9578	7398.9	6519.6
963.5556	2357.3718	7359.4	6477.05
963.6868	2358.7852	7332.6	6449
963.818	2360.1978	7307.15	6425.9
963.9492	2361.6098	7307.8	6426.6
964.0803	2363.021	7274.45	6390.1
964.2114	2364.4315	7264.75	6385.4
964.3425	2365.8413	7225.5	6339.25
964.4736	2367.2504	7222.8	6344
964.6046	2368.6587	7194.35	6314.05
964.7356	2370.0664	7146.15	6264.05
964.8666	2371.4733	7134.05	6251.7
964.9975	2372.8795	7122.2	6240.05
965.1284	2374.285	7101.6	6221.4
965.2593	2375.6899	7055.65	6175.45
965.3901	2377.0939	7032.5	6153.1
965.5209	2378.4973	6976.65	6095.9
965.6517	2379.9	6979.5	6097.8
965.7825	2381.3019	6986.55	6106.95
965.9132	2382.7032	6956.3	6077.45
966.0439	2384.1037	6940.5	6060.8
966.1745	2385.5035	6918	6036.65
966.3051	2386.9027	6881.35	5999.75
966.4357	2388.3011	6870.45	5987.2
966.5663	2389.6987	6861.95	5982.65
966.6968	2391.0957	6843.15	5961.15
966.8273	2392.492	6812.95	5930.4
966.9578	2393.8876	6775.15	5893.3
967.0882	2395.2824	6747.45	5866.2
967.2186	2396.6765	6715.55	5835.45
967.349	2398.07	6695.6	5812.85
967.4793	2399.4627	6676.75	5794.2
967.6097	2400.8547	6667.7	5786.75
967.7399	2402.246	6641.4	5754.65
967.8702	2403.6366	6622.75	5742.75
968.0004	2405.0265	6582.2	5701.95
968.1306	2406.4156	6543.5	5656.35
968.2607	2407.8041	6526.75	5640.65
968.3909	2409.1918	6507.3	5625.05
968.521	2410.5789	6492.6	5610
968.651	2411.9652	6495.05	5611.5
968.781	2413.3508	6446.1	5564.65
968.911	2414.7358	6433.9	5552.05
969.041	2416.12	6400.85	5520.5
969.1709	2417.5035	6380.65	5500.55
969.3008	2418.8863	6344.75	5461.7
969.4307	2420.2684	6338.6	5458.45
969.5606	2421.6497	6300.95	5420
969.6904	2423.0304	6299.9	5418.65
969.8201	2424.4104	6261.15	5381.35
969.9499	2425.7896	6249.4	5361.4
970.0796	2427.1682	6226.75	5347.05
970.2093	2428.546	6201.85	5319.85
970.3389	2429.9232	6191.35	5307.45
970.4685	2431.2996	6172.05	5292.7
970.5981	2432.6753	6155.85	5273.15
970.7277	2434.0503	6148.85	5267.8
970.8572	2435.4246	6096.8	5216.55
970.9867	2436.7982	6093.6	5210
971.1161	2438.1711	6070.95	5190.45
971.2456	2439.5433	6076.4	5195.8
971.375	2440.9148	6050	5162.4
971.5043	2442.2856	6015.95	5135.55
971.6336	2443.6557	6011.1	5128.55
971.7629	2445.025	5969.1	5088.35
971.8922	2446.3937	5969.45	5087.7
972.0214	2447.7617	5951.15	5069.45
972.1506	2449.1289	5950.6	5070.85
972.2798	2450.4955	5938.7	5052.1
972.4089	2451.8613	5905.5	5026.25
972.538	2453.2265	5887.4	5005.15
972.6671	2454.5909	5872.45	4990.3
972.7961	2455.9546	5856	4975.75
972.9251	2457.3177	5855.7	4974.45
973.0541	2458.68	5833.75	4952.1
973.1831	2460.0416	5800.4	4918.85
973.312	2461.4025	5802.75	4921.4
973.4408	2462.7627	5792.4	4900.75
973.5697	2464.1222	5766.95	4885.2
973.6985	2465.4811	5753	4870.3
973.8273	2466.8392	5721.4	4840.3
973.956	2468.1966	5709.35	4825
974.0847	2469.5533	5722.15	4839.4
974.2134	2470.9093	5675.5	4794.15
974.3421	2472.2645	5660.95	4780.3
974.4707	2473.6191	5676	4793.45
974.5993	2474.973	5635.45	4755.7
974.7278	2476.3262	5611.7	4728.95
974.8563	2477.6787	5581	4701.6
974.9848	2479.0305	5550.15	4670.1
975.1132	2480.3816	5538.75	4656.2
975.2417	2481.7319	5529.5	4649.45
975.37	2483.0816	5494.9	4612.9
975.4984	2484.4306	5492.35	4610.15
975.6267	2485.7789	5482.85	4601.9
975.755	2487.1264	5461.8	4579.75
975.8833	2488.4733	5437.25	4558.55
976.0115	2489.8195	5412.7	4526.4
976.1397	2491.165	5377.05	4492
976.2678	2492.5097	5375	4490.85
976.3959	2493.8538	5349.7	4469.75
976.524	2495.1972	5333.8	4450.9
976.6521	2496.5398	5324.8	4442.95
976.7801	2497.8818	5319.75	4438.4
976.9081	2499.2231	5302.4	4421.5
977.036	2500.5637	5272.3	4389
977.164	2501.9035	5241.1	4360.4
977.2918	2503.2427	5235.2	4350.05
977.4197	2504.5812	5223.4	4343.7
977.5475	2505.919	5213	4328.6
977.6753	2507.256	5202.65	4321.45
977.8031	2508.5924	5166.7	4285.35
977.9308	2509.9281	5158.4	4269.9
978.0585	2511.2631	5149.1	4267.05
978.1861	2512.5974	5141.55	4261.85
978.3137	2513.9309	5115.85	4234
978.4413	2515.2638	5122.55	4213.75
978.5689	2516.596	5080.65	4200.05
978.6964	2517.9275	5075.35	4193.15
978.8239	2519.2583	5062.45	4181.75
978.9513	2520.5884	5025.45	4141.8
979.0788	2521.9178	5012.8	4130.9
979.2062	2523.2465	5010.25	4130.45
979.3335	2524.5745	4978.85	4098.85
979.4608	2525.9018	4966.2	4084.35
979.5881	2527.2284	4952.85	4071.1
979.7154	2528.5543	4949.05	4067.7
979.8426	2529.8796	4921.7	4041.5
979.9698	2531.2041	4895.05	4015
980.0969	2532.5279	4905.35	4022.7
980.224	2533.851	4899.85	4017.8
980.3511	2535.1735	4879.3	3999.9
980.4781	2536.4952	4867.1	3984.65
980.6052	2537.8163	4858.45	3977.25
980.7321	2539.1366	4850.55	3971.35
980.8591	2540.4562	4817	3935.4
980.986	2541.7752	4833.05	3952.3
981.1129	2543.0935	4801.75	3919.25
981.2397	2544.411	4793.7	3912.4
981.3665	2545.7279	4788.15	3908.45
981.4933	2547.0441	4790.75	3910.4
981.62	2548.3596	4785.1	3901.75
981.7467	2549.6744	4767.85	3888.1
981.8734	2550.9885	4753.35	3862.3
982.0001	2552.3019	4725.35	3845.8
982.1267	2553.6146	4725.35	3844.25
982.2532	2554.9266	4711.35	3830.75
982.3798	2556.2379	4705.55	3823.4
982.5063	2557.5485	4687.85	3808
982.6327	2558.8585	4674.3	3783.65
982.7592	2560.1677	4657.85	3773.25
982.8856	2561.4762	4640.8	3759.9
983.0119	2562.7841	4638.25	3753.25
983.1383	2564.0913	4620.1	3740.05
983.2646	2565.3977	4612.65	3732.25
983.3908	2566.7035	4622.6	3741.45
983.517	2568.0086	4593.45	3711.05
983.6432	2569.313	4603.45	3721.3
983.7694	2570.6167	4591.4	3709.65
983.8955	2571.9197	4572.9	3693.75
984.0216	2573.222	4562.3	3677.45
984.1476	2574.5236	4536.5	3655.7
984.2737	2575.8246	4540.5	3655.9
984.3996	2577.1248	4533.95	3648.75
984.5256	2578.4244	4522.85	3642.15
984.6515	2579.7232	4521.95	3640
984.7774	2581.0214	4526.4	3620.55
984.9032	2582.3189	4491.7	3611.6
985.029	2583.6157	4482.75	3597.3
985.1548	2584.9118	4483.2	3602.4
985.2806	2586.2072	4466.5	3584.95
985.4063	2587.5019	4434.75	3552.45
985.5319	2588.7959	4436.45	3553.65
985.6576	2590.0893	4432.9	3549.75
985.7832	2591.3819	4413.25	3533.85
985.9087	2592.6739	4393.5	3511.35
986.0343	2593.9652	4387	3504.05
986.1597	2595.2557	4379.05	3498.6
986.2852	2596.5456	4352.15	3470.75
986.4106	2597.8348	4340.75	3462.7
986.536	2599.1234	4321.3	3439.7
986.6614	2600.4112	4321	3439.45
986.7867	2601.6983	4297.7	3412.25
986.912	2602.9848	4287.45	3405.5
987.0372	2604.2705	4264.95	3377.15
987.1624	2605.5556	4261.9	3381.3
987.2876	2606.84	4247.2	3367.05
987.4128	2608.1237	4235.9	3354.25
987.5379	2609.4067	4238.15	3356.15
987.6629	2610.689	4212.7	3324.45
987.788	2611.9707	4204.15	3321.6
987.913	2613.2516	4181	3295.35
988.0379	2614.5319	4143.2	3262.3
988.1629	2615.8115	4151.6	3271.2
988.2878	2617.0903	4133.8	3251
988.4126	2618.3685	4117.8	3236.55
988.5375	2619.6461	4105.3	3224
988.6622	2620.9229	4094.45	3213.95
988.787	2622.199	4089.2	3206.45
988.9117	2623.4745	4085.75	3205.95
989.0364	2624.7493	4055.75	3173.8
989.161	2626.0234	4034.55	3154.85
989.2857	2627.2968	4028.1	3147.25
989.4102	2628.5695	4013.85	3131.7
989.5348	2629.8415	3984.15	3102.9
989.6593	2631.1128	3994.05	3108.45
989.7837	2632.3835	3972	3093.75
989.9082	2633.6535	3959.35	3078.05
990.0326	2634.9228	3949.75	3068.5
990.1569	2636.1914	3936.8	3056.65
990.2812	2637.4593	3932.75	3045.65
990.4055	2638.7265	3910.05	3027.4
990.5298	2639.9931	3900.65	3020.05
990.654	2641.259	3890.8	3007.65
990.7782	2642.5242	3870.85	2990.7
990.9023	2643.7887	3872.85	2992.5
991.0264	2645.0525	3862.8	2980.9
991.1505	2646.3156	3849.95	2967.2
991.2745	2647.5781	3829	2947.45
991.3985	2648.8398	3802.45	2920.65
991.5225	2650.1009	3831.8	2914.35
991.6464	2651.3613	3789.65	2908.6
991.7703	2652.6211	3795.1	2916.15
991.8942	2653.8801	3781.9	2901.25
992.018	2655.1385	3765.65	2882.8
992.1418	2656.3961	3767.7	2885.75
992.2655	2657.6531	3750.25	2870.8
992.3892	2658.9094	3732.65	2851.25
992.5129	2660.1651	3728.45	2848.75
992.6366	2661.42	3721.25	2839.9
992.7602	2662.6743	3721.9	2839.55
992.8837	2663.9279	3724.15	2844.75
993.0073	2665.1808	3692.6	2811.05
993.1307	2666.433	3695.8	2812.3
993.2542	2667.6846	3672.8	2792.45
993.3776	2668.9354	3675.15	2789.45
993.501	2670.1856	3659.2	2776.8
993.6244	2671.4351	3646.75	2767
993.7477	2672.6839	3640.15	2757.6
993.8709	2673.9321	3621	2740.45
993.9942	2675.1795	3620.8	2741.05
994.1174	2676.4263	3608.55	2728.7
994.2405	2677.6724	3598.5	2718
994.3637	2678.9179	3584.55	2703.15
994.4868	2680.1626	3570.15	2689.95
994.6098	2681.4067	3571.75	2690.9
994.7328	2682.6501	3553.95	2670.95
994.8558	2683.8928	3553.45	2673.05
994.9788	2685.1348	3523.1	2642.9
995.1017	2686.3761	3514.8	2633.8
995.2245	2687.6168	3504.9	2623.3
995.3474	2688.8568	3497.45	2616.3
995.4702	2690.0961	3493.6	2612.9
995.5929	2691.3348	3500.45	2619.65
995.7156	2692.5727	3478.7	2598.8
995.8383	2693.81	3461.45	2581.1
995.961	2695.0466	3442.15	2560.85
996.0836	2696.2826	3437.1	2555.85
996.2062	2697.5178	3446.05	2546.4
996.3287	2698.7524	3427.7	2547.5
996.4512	2699.9863	3413.35	2529.45
996.5737	2701.2195	3411.6	2531.2
996.6961	2702.452	3394.35	2510.6
996.8185	2703.6839	3386.7	2503.55
996.9408	2704.9151	3383.2	2505.15
997.0631	2706.1456	3369.45	2488.55
997.1854	2707.3755	3355.65	2473.35
997.3077	2708.6046	3340.35	2457.15
997.4299	2709.8331	3338.3	2458.05
997.552	2711.0609	3321.55	2440.55
997.6742	2712.2881	3315.65	2436.1
997.7963	2713.5145	3302.95	2418.2
997.9183	2714.7403	3290.8	2410.3
998.0403	2715.9654	3276.5	2393.75
998.1623	2717.1899	3288.45	2392.5
998.2842	2718.4136	3268.75	2388.55
998.4062	2719.6367	3261.25	2381.65
998.528	2720.8591	3253.45	2367.15
998.6498	2722.0809	3237.95	2356.25
998.7716	2723.3019	3228.3	2342.85
998.8934	2724.5223	3233.75	2347.9
999.0151	2725.7421	3211.35	2329.95
999.1368	2726.9611	3205.1	2320.25
999.2584	2728.1795	3191.45	2306.75
999.38	2729.3972	3181.55	2300.9
999.5016	2730.6142	3159.2	2270.4
999.6231	2731.8306	3145.2	2262.35
999.7446	2733.0462	3147.6	2264.7
999.8661	2734.2612	3139.7	2252.3
999.9875	2735.4756	3117.55	2234.95
1000.1089	2736.6892	3097.75	2214.1
1000.2302	2737.9022	3107.6	2227.45
1000.3515	2739.1145	3093.5	2213.95
1000.4728	2740.3262	3090.65	2201.75
1000.594	2741.5372	3067.15	2187
1000.7152	2742.7475	3047.85	2166.9
1000.8363	2743.9571	3065.25	2182.65
1000.9575	2745.1661	3055.35	2169.55
1001.0785	2746.3744	3035.9	2155.65
1001.1996	2747.582	3025.5	2145.35
1001.3206	2748.7889	3024.45	2141.95
1001.4415	2749.9952	3007.6	2126.85
1001.5625	2751.2008	2994.4	2111.7
1001.6833	2752.4057	3002.2	2118.75
1001.8042	2753.61	2977.55	2095.75
1001.925	2754.8136	2983.85	2099.95
1002.0458	2756.0165	2967.2	2086.4
1002.1665	2757.2188	2958.25	2078.4
1002.2872	2758.4204	2943.5	2062.35
1002.4078	2759.6213	2940.05	2056.85
1002.5285	2760.8215	2938.9	2054.95
1002.649	2762.0211	2922	2040.7
1002.7696	2763.22	2918.05	2035.3
1002.8901	2764.4182	2918.65	2035.75
1003.0106	2765.6158	2912.5	2031.8
1003.131	2766.8127	2892.85	2012.35
1003.2514	2768.009	2881.9	2002.6
1003.3717	2769.2045	2876.85	1996.5
1003.492	2770.3994	2858.55	1977.2
1003.6123	2771.5936	2863.05	1982.8
1003.7325	2772.7872	2844.7	1965.1
1003.8527	2773.9801	2846.75	1963.4
1003.9729	2775.1723	2846.05	1947.3
1004.093	2776.3639	2833.05	1954.8
1004.2131	2777.5548	2815.55	1933.65
1004.3331	2778.745	2814.5	1932.45
1004.4531	2779.9346	2814.7	1934.1
1004.5731	2781.1235	2791.3	1910.45
1004.693	2782.3117	2788.8	1907.65
1004.8129	2783.4992	2777.15	1896.5
1004.9328	2784.6861	2770.6	1889.35
1005.0526	2785.8723	2760.1	1877.85
1005.1723	2787.0579	2756.05	1876.8
1005.2921	2788.2428	2736.9	1855.3
1005.4118	2789.427	2747.3	1866.05
1005.5314	2790.6106	2729.5	1849.9
1005.651	2791.7935	2726.35	1843.35
1005.7706	2792.9757	2709.7	1831.6
1005.8902	2794.1573	2702.7	1820.5
1006.0097	2795.3382	2702.2	1821
1006.1291	2796.5184	2690.75	1812.85
1006.2485	2797.698	2690.8	1810.85
1006.3679	2798.8769	2674.65	1794.45
1006.4873	2800.0551	2666.35	1784.75
1006.6066	2801.2327	2670	1786.4
1006.7258	2802.4096	2648.25	1767.1
1006.8451	2803.5859	2634.55	1752.75
1006.9642	2804.7615	2629.9	1749.15
1007.0834	2805.9364	2628.05	1748.6
1007.2025	2807.1106	2618.65	1737.5
1007.3216	2808.2842	2615.2	1734.65
1007.4406	2809.4572	2613.9	1732.35
1007.5596	2810.6294	2597.9	1715.75
1007.6785	2811.801	2610.15	1731.35
1007.7975	2812.972	2585.55	1706.5
1007.9163	2814.1423	2588.8	1709.05
1008.0352	2815.3119	2589.15	1706.75
1008.154	2816.4808	2580.7	1700.75
1008.2727	2817.6491	2584.45	1704.35
1008.3914	2818.8167	2588.45	1708.8
1008.5101	2819.9837	2576.7	1692.3
1008.6288	2821.15	2568.45	1688.15
1008.7474	2822.3157	2586.2	1705.2
1008.8659	2823.4807	2581.6	1701.35
1008.9844	2824.645	2589.1	1707.7
1009.1029	2825.8086	2614.9	1736.8
1009.2214	2826.9716	2613.1	1733.25
1009.3398	2828.134	2618.2	1737.5
1009.4581	2829.2957	2625.35	1744.65
1009.5764	2830.4567	2625.75	1744.1
1009.6947	2831.617	2617.95	1737.5
1009.813	2832.7767	2628.5	1748.25
1009.9312	2833.9358	2625.05	1744.8
1010.0493	2835.0941	2614.15	1732.3
1010.1675	2836.2519	2609.35	1728.05
1010.2855	2837.4089	2609.6	1730.4
1010.4036	2838.5653	2586.2	1707.85
1010.5216	2839.7211	2572.4	1691.8
1010.6396	2840.8761	2570.25	1688.9
1010.7575	2842.0306	2555.65	1677.4
1010.8754	2843.1843	2546.65	1665.65
1010.9932	2844.3374	2551.1	1671.75
1011.111	2845.4899	2551.35	1668.8
1011.2288	2846.6417	2538.8	1659.25
1011.3465	2847.7928	2537.05	1656.75
1011.4642	2848.9433	2538.55	1657.4
1011.5818	2850.0931	2539.75	1660.45
1011.6995	2851.2422	2535.25	1652.8
1011.817	2852.3907	2535.15	1654.15
1011.9345	2853.5385	2527.85	1647.8
1012.052	2854.6857	2534.2	1644.05
1012.1695	2855.8323	2521.65	1642.05
1012.2869	2856.9781	2511	1632.4
1012.4042	2858.1233	2527.5	1645.05
1012.5216	2859.2679	2512.25	1631.35
1012.6389	2860.4118	2507	1625.85
1012.7561	2861.555	2515.45	1630.25
1012.8733	2862.6976	2522.9	1641.25
1012.9905	2863.8395	2510.6	1630.8
1013.1076	2864.9808	2512	1631.7
1013.2247	2866.1214	2510.2	1631.8
1013.3417	2867.2614	2491.9	1609.55
1013.4587	2868.4007	2497.7	1614.45
1013.5757	2869.5393	2504.6	1622.4
1013.6926	2870.6773	2500.6	1616.55
1013.8095	2871.8146	2498.1	1615.75
1013.9263	2872.9513	2492.85	1610.25
1014.0431	2874.0874	2482.45	1601.9
1014.1599	2875.2227	2479.95	1598.5
1014.2766	2876.3574	2478.6	1597.45
1014.3933	2877.4915	2472.75	1591.5
1014.51	2878.6249	2458.75	1578.8
1014.6266	2879.7577	2460.35	1579.9
1014.7431	2880.8898	2466.15	1573.8
1014.8596	2882.0212	2457.65	1579.35
1014.9761	2883.152	2452.25	1571.1
1015.0925	2884.2821	2447.35	1568.8
1015.2089	2885.4116	2436.8	1556.4
1015.3253	2886.5405	2435.7	1555.25
1015.4416	2887.6686	2438.75	1554.1
1015.5579	2888.7962	2436.9	1557.85
1015.6741	2889.923	2416.2	1537
1015.7903	2891.0493	2421.9	1541
1015.9065	2892.1748	2404.75	1523.45
1016.0226	2893.2997	2403.95	1522.1
1016.1387	2894.424	2388.95	1508.95
1016.2547	2895.5476	2382.5	1504
1016.3707	2896.6706	2389.8	1511.35
1016.4866	2897.7929	2376.8	1494.3
1016.6025	2898.9145	2383.6	1503.85
1016.7184	2900.0355	2380.5	1500.35
1016.8342	2901.1559	2362.9	1482.35
1016.95	2902.2756	2340.6	1460.75
1017.0658	2903.3946	2343.6	1463.35
1017.1815	2904.513	2344.6	1461.8
1017.2971	2905.6308	2336.9	1457.8
1017.4127	2906.7479	2329.75	1448.8
1017.5283	2907.8643	2320.55	1438.25
1017.6439	2908.9801	2321.15	1439.15
1017.7594	2910.0953	2310.9	1430.3
1017.8748	2911.2098	2303.85	1421.45
1017.9902	2912.3236	2306.5	1417.25
1018.1056	2913.4368	2302.75	1419.75
1018.2209	2914.5494	2298.45	1417.75
1018.3362	2915.6613	2291.45	1406.25
1018.4515	2916.7725	2280.2	1397.45
1018.5667	2917.8831	2270.1	1387.5
1018.6819	2918.9931	2262.1	1380.7
1018.797	2920.1024	2256.25	1374.25
1018.9121	2921.211	2228.4	1348.2
1019.0271	2922.319	2224.65	1343.7
1019.1421	2923.4264	2221.65	1343.15
1019.2571	2924.5331	2209.7	1330.1
1019.372	2925.6391	2212.05	1333.6
1019.4869	2926.7445	2214.8	1335.4
1019.6017	2927.8493	2208.9	1327.7
1019.7165	2928.9534	2193.65	1312
1019.8313	2930.0569	2199.55	1316.85
1019.946	2931.1597	2192.35	1308.95
1020.0606	2932.2619	2192.75	1314.05
1020.1753	2933.3634	2188.85	1309.4
1020.2899	2934.4643	2198.35	1310.9
1020.4044	2935.5645	2202.6	1315.3
1020.5189	2936.6641	2195.6	1310.15
1020.6334	2937.763	2180.7	1300.55
1020.7478	2938.8613	2192.4	1312.05
1020.8622	2939.959	2184.2	1298.1
1020.9765	2941.056	2156.15	1275.55
1021.0908	2942.1523	2152.9	1271.3
1021.2051	2943.248	2136.55	1255.45
1021.3193	2944.3431	2126.8	1247.2
1021.4334	2945.4375	2106.05	1224.25
1021.5476	2946.5313	2078.45	1200.75
1021.6617	2947.6244	2068.6	1188.15
1021.7757	2948.7169	2049.2	1168.1
1021.8897	2949.8087	2042.05	1160.35
1022.0037	2950.8999	2024.85	1143.15
1022.1176	2951.9904	2004.1	1124.1
1022.2315	2953.0803	1996.2	1115.05
1022.3453	2954.1696	2000	1118.25
1022.4591	2955.2582	1974.65	1093.8
1022.5728	2956.3462	1976	1097.2
1022.6865	2957.4335	1956.25	1075.45
1022.8002	2958.5202	1959.25	1077.35
1022.9138	2959.6062	1942.55	1062.25
1023.0274	2960.6916	1941.7	1060.9
1023.141	2961.7764	1935.6	1055.15
1023.2545	2962.8605	1935.4	1053.95
1023.3679	2963.9439	1930.05	1050.2
1023.4813	2965.0267	1934.45	1052.4
1023.5947	2966.1089	1931.95	1028.5
1023.708	2967.1905	1906.7	1028.25
1023.8213	2968.2714	1910.4	1032.35
1023.9346	2969.3516	1900.25	1022.3
1024.0478	2970.4312	1905.15	1016.7
1024.1609	2971.5102	1885.7	1006.5
1024.274	2972.5885	1892.5	1015.15
1024.3871	2973.6662	1892.9	1007.35
1024.5002	2974.7432	1881.05	1001.9
1024.6132	2975.8196	1871.55	990.5
1024.7261	2976.8954	1864.4	985.4
1024.839	2977.9705	1872.2	992.2
1024.9519	2979.045	1864.05	985.7
1025.0647	2980.1188	1857.8	979.4
1025.1775	2981.192	1852.6	973.15
1025.2902	2982.2645	1858.85	978.05
1025.4029	2983.3364	1848.1	967.55
1025.5156	2984.4077	1836.95	956.15
1025.6282	2985.4783	1832.15	947.15
1025.7407	2986.5483	1826.5	947.3
1025.8532	2987.6177	1812.5	932.8
1025.9657	2988.6864	1817.75	936.35
1026.0782	2989.7545	1800.7	917.65
1026.1906	2990.8219	1797	916.7
1026.3029	2991.8887	1788.5	905.75
1026.4152	2992.9548	1783	902.25
1026.5275	2994.0204	1777.6	897.7
1026.6397	2995.0852	1760.65	881.3
1026.7519	2996.1495	1764.1	883.3
1026.864	2997.2131	1752.4	871.05
1026.9761	2998.276	1743.35	863.85
1027.0882	2999.3383	1736.6	854.3
1027.2002	3000.4	1726.35	845.3
1027.3122	3001.4611	1734.55	854.45
1027.4241	3002.5215	1716.5	836.05
1027.536	3003.5812	1716.7	835.65
1027.6478	3004.6404	1711.45	832.85
1027.7596	3005.6989	1715.2	830.95
1027.8714	3006.7567	1703.85	822.8
1027.9831	3007.8139	1725.6	821.5
1028.0947	3008.8705	1695.65	815.75
1028.2064	3009.9264	1694.35	808.25
1028.3179	3010.9818	1680.2	800.15
1028.4295	3012.0364	1680.2	798.65
1028.541	3013.0905	1676.45	796.1
1028.6524	3014.1439	1667.45	787.55
1028.7638	3015.1966	1669.65	790.05
1028.8752	3016.2487	1667.2	786.15
1028.9865	3017.3002	1665.8	782.9
1029.0978	3018.3511	1656.4	777.15
1029.209	3019.4013	1650.8	770.7
1029.3202	3020.4509	1650	770.35
1029.4314	3021.4998	1654.3	773.1
1029.5425	3022.5481	1643.95	763.25
1029.6535	3023.5958	1635.85	755.1
1029.7645	3024.6428	1628.55	747.05
1029.8755	3025.6892	1634.35	755.55
1029.9864	3026.735	1631.2	751
1030.0973	3027.7802	1622.1	742.1
1030.2082	3028.8247	1618.85	741.35
1030.319	3029.8685	1619.05	738.15
1030.4297	3030.9118	1618.65	737.25
1030.5404	3031.9544	1601.45	722.35
1030.6511	3032.9963	1606.35	727.15
1030.7617	3034.0376	1598.15	716.65
1030.8723	3035.0783	1600.45	718.85
1030.9829	3036.1184	1601.8	719.05
1031.0934	3037.1578	1597.25	720.65
1031.2038	3038.1966	1592.4	710.2
1031.3142	3039.2348	1589.55	710.1
1031.4246	3040.2723	1596.9	708.6
1031.5349	3041.3092	1587.7	707.5
1031.6452	3042.3455	1587.15	706.85
1031.7554	3043.3811	1577.4	695.3
1031.8656	3044.4161	1580.35	701.4
1031.9758	3045.4505	1571.4	689.85
1032.0859	3046.4842	1572.35	691.9
1032.1959	3047.5173	1576	696.45
1032.3059	3048.5498	1565.5	683.85
1032.4159	3049.5816	1563.45	682.55
1032.5258	3050.6128	1557.85	676.75
1032.6357	3051.6434	1557	676.25
1032.7455	3052.6734	1556.6	676.9
1032.8553	3053.7027	1551.55	670.25
1032.9651	3054.7314	1550.65	672.05
1033.0748	3055.7594	1545.45	667.45
1033.1845	3056.7868	1547.65	664.6
1033.2941	3057.8136	1541.45	662.3
1033.4037	3058.8398	1537.95	658.15
1033.5132	3059.8653	1536.75	655.3
1033.6227	3060.8902	1539.35	658.05
1033.7321	3061.9145	1535.8	656.4
1033.8415	3062.9381	1521.25	640.1
1033.9509	3063.9612	1541.9	647.6
1034.0602	3064.9835	1523.15	643.35
1034.1694	3066.0053	1524.95	642.8
1034.2787	3067.0264	1515.85	634.9
1034.3878	3068.0469	1524.2	641.25
1034.497	3069.0668	1521.45	638.8
1034.6061	3070.086	1517.15	637.15
1034.7151	3071.1046	1519.1	640.3
1034.8241	3072.1226	1510.85	630.4
1034.9331	3073.1399	1507.75	628.1
1035.042	3074.1567	1501.1	620.2
1035.1508	3075.1727	1498.2	616.5
1035.2597	3076.1882	1498.5	619.35
1035.3684	3077.203	1489.75	608.2
1035.4772	3078.2173	1489.4	608.75
1035.5859	3079.2308	1489.2	605.75
1035.6945	3080.2438	1490.7	609.1
1035.8031	3081.2561	1482.8	601.85
1035.9117	3082.2678	1472.25	592.25
1036.0202	3083.2789	1478.95	598.2
1036.1286	3084.2893	1472.7	589.7
1036.2371	3085.2991	1469.6	588.4
1036.3454	3086.3083	1464.55	579.65
1036.4538	3087.3169	1465.1	584.6
1036.562	3088.3248	1460.25	578.85
1036.6703	3089.3321	1448.55	569.1
1036.7785	3090.3388	1450	569.85
1036.8866	3091.3449	1446.9	565.85
1036.9948	3092.3503	1452.5	569.75
1037.1028	3093.3551	1445.85	567.6
1037.2108	3094.3593	1443.1	563.3
1037.3188	3095.3629	1439.9	560.55
1037.4267	3096.3658	1441.05	559.2
1037.5346	3097.3681	1437.5	558.15
1037.6425	3098.3698	1431.85	547.85
1037.7503	3099.3708	1439.25	552.8
1037.858	3100.3713	1420.8	541.15
1037.9657	3101.3711	1426.75	543.9
1038.0734	3102.3702	1548.5	532.7
1038.181	3103.3688	1420.7	540.75
1038.2886	3104.3667	1402.35	523.05
1038.3961	3105.364	1403.6	522.75
1038.5036	3106.3607	1404.65	524.4
1038.611	3107.3568	1404.25	520.75
1038.7184	3108.3522	1394.85	516.75
1038.8257	3109.347	1399.75	519.35
1038.933	3110.3412	1400.3	516.45
1039.0403	3111.3348	1390.7	511.65
1039.1475	3112.3277	1389.7	508.85
1039.2547	3113.32	1385.7	505.8
1039.3618	3114.3117	1378.5	497.65
1039.4689	3115.3028	1379.6	498.5
1039.5759	3116.2932	1378.85	496.55
1039.6829	3117.2831	1378.5	491.05
1039.7898	3118.2723	1374	495.4
1039.8967	3119.2608	1366.9	485.5
1040.0035	3120.2488	1364.05	482.65
1040.1103	3121.2361	1357.35	476.85
1040.2171	3122.2229	1354.5	474.6
1040.3238	3123.209	1357.15	475.3
1040.4305	3124.1944	1361.7	480.35
1040.5371	3125.1793	1350.25	468.35
1040.6437	3126.1635	1347.8	466.7
1040.7502	3127.1471	1342.35	462.7
1040.8567	3128.1301	1342.9	463.65
1040.9631	3129.1125	1339.7	459.05
1041.0695	3130.0942	1337.5	457.3
1041.1759	3131.0753	1345.1	456.05
1041.2822	3132.0558	1339.85	457.4
1041.3884	3133.0357	1338.05	456.25
1041.4946	3134.015	1324.5	441.5
1041.6008	3134.9936	1326.2	443.1
1041.7069	3135.9716	1350.2	450.2
1041.813	3136.949	1329.85	449
1041.919	3137.9258	1330.25	444.1
1042.025	3138.902	1320.25	435.85
1042.1309	3139.8775	1318.4	437.65
1042.2368	3140.8524	1319.75	441.5
1042.3427	3141.8267	1321.3	440.4
1042.4485	3142.8004	1321.9	441.7
1042.5542	3143.7735	1320.9	434.9
1042.6599	3144.7459	1313.55	430.85
1042.7656	3145.7178	1314.6	431.95
1042.8712	3146.689	1305.65	425.8
1042.9768	3147.6596	1303.1	421.85
1043.0823	3148.6295	1301.1	418.85
1043.1878	3149.5989	1304.05	425.75
1043.2932	3150.5676	1295.4	415.65
1043.3986	3151.5357	1291.55	412.45
1043.5039	3152.5032	1289.75	408.75
1043.6092	3153.4701	1291.15	412.3
1043.7145	3154.4364	1292.3	411.25
1043.8197	3155.402	1286.15	406.2
1043.9248	3156.367	1282.1	399.4
1044.03	3157.3315	1318.15	399
1044.135	3158.2952	1279.05	397.2
1044.24	3159.2584	1277.5	397.6
1044.345	3160.221	1277.8	395.85
1044.4499	3161.1829	1273.5	394.65
1044.5548	3162.1442	1267.25	385.85
1044.6596	3163.105	1266.8	387.4
1044.7644	3164.065	1270.1	387.9
1044.8692	3165.0245	1265.15	381.85
1044.9739	3165.9834	1265.55	387.15
1045.0785	3166.9416	1255.7	376.55
1045.1831	3167.8993	1252.75	371.6
1045.2877	3168.8563	1259.55	377.8
1045.3922	3169.8127	1249.75	368.75
1045.4966	3170.7684	1251.1	370.55
1045.6011	3171.7236	1242.3	360.55
1045.7054	3172.6782	1247.45	369.35
1045.8098	3173.6321	1247.5	365.75
1045.914	3174.5854	1246.15	360.8
1046.0183	3175.5381	1242.05	364.35
1046.1224	3176.4902	1240.7	359.2
1046.2266	3177.4417	1242.95	363.85
1046.3307	3178.3926	1234.4	354
1046.4347	3179.3428	1230.6	352.05
1046.5387	3180.2924	1225.95	347
1046.6427	3181.2415	1224.85	344.8
1046.7466	3182.1899	1229.85	348.85
1046.8504	3183.1377	1221.65	342.2
1046.9542	3184.0848	1226.8	344.75
1047.058	3185.0314	1220.85	341.7
1047.1617	3185.9773	1219.95	339
1047.2654	3186.9227	1215.35	335.45
1047.369	3187.8674	1214.45	335.15
1047.4726	3188.8115	1216.45	332.05
1047.5761	3189.755	1210.95	330.7
1047.6796	3190.6979	1215.65	335.8
1047.783	3191.6402	1214.55	335.7
1047.8864	3192.5818	1209.35	327.75
1047.9898	3193.5229	1213.2	325.05
1048.0931	3194.4633	1206.8	327.6
1048.1963	3195.4031	1202.3	322
1048.2995	3196.3423	1196.8	316.25
1048.4027	3197.2809	1202.8	323.7
1048.5058	3198.2189	1197.55	317
1048.6089	3199.1563	1200.8	313.95
1048.7119	3200.0931	1189.1	309.35
1048.8148	3201.0292	1189.3	310.65
1048.9178	3201.9648	1187.4	307.05
1049.0206	3202.8997	1191.8	307.65
1049.1235	3203.834	1187.1	308.75
1049.2262	3204.7677	1183.55	303.6
1049.329	3205.7008	1184.4	302.45
1049.4317	3206.6333	1184.55	307
1049.5343	3207.5652	1182.7	299.35
1049.6369	3208.4964	1180.85	302.9
1049.7394	3209.4271	1176.85	297.95
1049.8419	3210.3571	1180.45	298.6
1049.9444	3211.2865	1178.65	297.4
1050.0468	3212.2154	1170.3	287.65
1050.1491	3213.1436	1179.8	295.85
1050.2514	3214.0712	1176.5	289.85
1050.3537	3214.9982	1171.6	292.55
1050.4559	3215.9246	1172.6	293.5
1050.5581	3216.8503	1166.55	286.3
1050.6602	3217.7755	1164.45	283.55
1050.7623	3218.7001	1160.35	281.2
1050.8643	3219.624	1158.8	278.8
1050.9663	3220.5473	1158.2	278.25
1051.0682	3221.4701	1157.95	276.5
1051.1701	3222.3922	1160.55	278.15
1051.2719	3223.3137	1161.55	281.75
1051.3737	3224.2346	1154.35	273.6
1051.4754	3225.1549	1152.35	272.5
1051.5771	3226.0746	1149.4	269.7
1051.6788	3226.9937	1148.75	269.6
1051.7804	3227.9121	1148.25	269.75
1051.8819	3228.83	1146.8	265.05
1051.9834	3229.7473	1147.25	266.65
1052.0849	3230.6639	1144.85	265.4
1052.1863	3231.5799	1141.5	261.55
1052.2876	3232.4954	1139.35	258.15
1052.3889	3233.4102	1138.85	257.55
1052.4902	3234.3244	1137.75	258.65
1052.5914	3235.238	1132	250.75
1052.6926	3236.151	1163.9	260.6
1052.7937	3237.0634	1126.55	248.2
1052.8948	3237.9752	1130.95	252.6
1052.9958	3238.8864	1125.65	247
1053.0968	3239.797	1134	253.35
1053.1977	3240.7069	1128.45	248.55
1053.2986	3241.6163	1127.55	246.3
1053.3994	3242.5251	1118.05	238.7
1053.5002	3243.4332	1123.4	244.45
1053.6009	3244.3408	1125.6	244.5
1053.7016	3245.2477	1118.95	240.5
1053.8022	3246.154	1119.95	237.4
1053.9028	3247.0598	1119.1	238.2
1054.0034	3247.9649	1116.55	236.9
1054.1039	3248.8694	1110.7	230.75
1054.2043	3249.7733	1112.25	231.2
1054.3047	3250.6766	1108.1	228.5
1054.4051	3251.5793	1112.3	231.9
1054.5054	3252.4814	1108.1	228.85
1054.6056	3253.3829	1109.7	230.9
1054.7058	3254.2838	1106.15	225.4
1054.806	3255.1841	1097.95	219
1054.9061	3256.0838	1102.4	222.6
1055.0061	3256.9829	1100.65	222.05
1055.1062	3257.8814	1100.55	219.2
1055.2061	3258.7792	1096.95	215.25
1055.306	3259.6765	1093.7	213.8
1055.4059	3260.5731	1087.45	209.65
1055.5057	3261.4692	1087.8	204.8
1055.6055	3262.3647	1085.65	206.3
1055.7052	3263.2595	1080.9	199.2
1055.8049	3264.1538	1079.5	201
1055.9045	3265.0474	1073.1	191.75
1056.0041	3265.9404	1077.05	197.9
1056.1036	3266.8329	1076.65	199.7
1056.2031	3267.7247	1077.45	186
1056.3025	3268.616	1065.05	186
1056.4019	3269.5066	1058.5	177.4
1056.5013	3270.3966	1054.95	170.25
1056.6005	3271.286	1046.7	167.45
