Software Version:	3.9.2.0
Unit SN:	10000200
Spectrometer SN:	6960
Date:	3/6/2024 9:46:15 AM
Data Line Index:	25
Spectral Points:	2048
Integration time (ms):	125
Averages:	20
Delay (ms):	30
Sequence Number:	1
Processing:	dark subtract
Laser Power (mW):	305
Laser Current (mA):	824
Laser Diode Temp (C):	25.1
Laser Case Temp (C):	24.2
System Temp (C):	24
Spectrometer Temp (C):	21.5
CCD Temp (C):	-0.026
Secondary Temp (C):	20.004
Heatsink Temp (C):	18.188
CCDPCB Temp (C):	30.916
SecondaryPCB Temp (C):	25.691

Wavelength	RamanShift	Raw Counts	Dark Subtracted
787.061	30.1047	455.35	49.35
787.2016	32.3739	455	49.45
787.3422	34.6426	459.55	53.5
787.4828	36.9109	464.95	57.8
787.6235	39.1787	471.2	59.75
787.7642	41.4461	480.5	64.5
787.9049	43.7131	487.8	67.8
788.0456	45.9796	494.55	71.25
788.1863	48.2456	500.6	74.8
788.3271	50.5112	505.6	76.3
788.4679	52.7764	513.9	80.5
788.6087	55.0411	525.85	89.55
788.7496	57.3054	537	93.65
788.8904	59.5692	544.3	100.05
789.0313	61.8326	548.95	102.25
789.1722	64.0955	563.8	113.95
789.3132	66.3579	576.55	123.3
789.4541	68.6199	591.55	130.35
789.5951	70.8815	617.15	154.95
789.7361	73.1426	670.65	204.2
789.8771	75.4032	806.55	336.85
790.0181	77.6634	1137.25	662.85
790.1592	79.9231	1913.35	1436.3
790.3003	82.1824	3557.5	3076.15
790.4414	84.4412	6431	5937.65
790.5825	86.6995	10359.1	9855.3
790.7237	88.9574	14211.7	13697
790.8648	91.2148	17036.8	16518.95
791.006	93.4717	18593.75	18069.85
791.1472	95.7282	19244.25	18716.75
791.2885	97.9842	19598.5	19069.8
791.4297	100.2398	19747.4	19213.6
791.571	102.4949	19800.2	19265.8
791.7123	104.7495	19840.35	19300.05
791.8536	107.0036	19818.45	19277.8
791.9949	109.2573	19821.65	19284.15
792.1363	111.5105	19819.2	19279.25
792.2777	113.7632	19834.2	19289.6
792.4191	116.0154	19825.2	19273.6
792.5605	118.2672	19900.4	19351.7
792.7019	120.5185	19908.3	19357
792.8434	122.7693	19966.7	19412.25
792.9849	125.0197	20018.35	19460.9
793.1264	127.2696	19989	19428.55
793.2679	129.519	20067.5	19504.6
793.4094	131.7679	20126.2	19560.9
793.551	134.0163	20172	19602.3
793.6926	136.2642	20183.8	19612.1
793.8342	138.5117	20228.05	19649.9
793.9758	140.7587	20215.9	19639.8
794.1175	143.0052	20245.95	19667.75
794.2591	145.2512	20247.75	19670.45
794.4008	147.4967	20228.45	19648.2
794.5425	149.7417	20179.6	19594
794.6842	151.9863	20177.45	19586.6
794.826	154.2304	20241.9	19648.6
794.9677	156.4739	20215.65	19617
795.1095	158.717	20242.85	19643.95
795.2513	160.9596	20243.75	19642.1
795.3931	163.2017	20265.85	19661.5
795.535	165.4433	20289.3	19680.85
795.6768	167.6844	20296.6	19685.65
795.8187	169.925	20294.4	19681.65
795.9606	172.1651	20214.8	19598.05
796.1025	174.4047	20241.5	19623.25
796.2445	176.6439	20269.05	19650
796.3864	178.8825	20251	19627.25
796.5284	181.1206	20286.75	19660.8
796.6704	183.3582	20312.45	19680.95
796.8124	185.5954	20329.3	19696.65
796.9544	187.832	20315.6	19677.5
797.0965	190.0681	20372.3	19732.1
797.2386	192.3037	20419.55	19777.6
797.3806	194.5388	20441.9	19796.3
797.5228	196.7734	20519.5	19871.7
797.6649	199.0075	20578.3	19928.2
797.807	201.2411	20642.95	19993.15
797.9492	203.4742	20692.95	20040.25
798.0914	205.7068	20793.25	20134.65
798.2336	207.9389	20800.55	20143.65
798.3758	210.1704	20867.25	20220
798.518	212.4015	20841.35	20201
798.6603	214.632	20875.05	20240.25
798.8025	216.862	20893.35	20260.35
798.9448	219.0915	20893.9	20258.2
799.0871	221.3205	20973.1	20335.4
799.2294	223.549	20984.4	20350.2
799.3718	225.777	21066.4	20431.8
799.5141	228.0044	21032.85	20388.9
799.6565	230.2314	21121.2	20475.4
799.7989	232.4578	21124.25	20474.2
799.9413	234.6837	21181.45	20524.25
800.0837	236.909	21222.35	20561.55
800.2262	239.1339	21216.9	20531.9
800.3687	241.3582	21213.95	20545.35
800.5111	243.582	21247.9	20548.6
800.6536	245.8053	21228.15	20541.4
800.7961	248.0281	21247.05	20565.4
800.9387	250.2503	21272	20587.85
801.0812	252.472	21255.1	20569.6
801.2238	254.6932	21333.5	20645.35
801.3664	256.9139	21274.2	20584.65
801.509	259.134	21292.2	20598.55
801.6516	261.3536	21317.95	20628.6
801.7942	263.5727	21399.45	20706.9
801.9369	265.7912	21331.75	20635
802.0795	268.0092	21385	20694.2
802.2222	270.2267	21445.5	20753.25
802.3649	272.4436	21479.85	20785.9
802.5076	274.6601	21486.5	20781.35
802.6504	276.8759	21482.8	20781.95
802.7931	279.0913	21538.5	20837.5
802.9359	281.3061	21530.05	20828.65
803.0787	283.5204	21597.25	20890.5
803.2215	285.7341	21617.55	20904.75
803.3643	287.9473	21656.3	20937.2
803.5071	290.16	21681.4	20967.9
803.6499	292.3721	21641.65	20936.2
803.7928	294.5837	21592.25	20884.35
803.9357	296.7947	21573.95	20866.9
804.0786	299.0052	21559.1	20848.85
804.2215	301.2152	21512.9	20800
804.3644	303.4246	21546.6	20836.4
804.5074	305.6334	21503.25	20793.15
804.6503	307.8418	21530.25	20816.2
804.7933	310.0495	21511.4	20796.35
804.9363	312.2568	21473.4	20756.95
805.0793	314.4635	21376.3	20658.45
805.2223	316.6696	21364.85	20644.7
805.3653	318.8752	21263.35	20534.1
805.5084	321.0802	21282.7	20558.45
805.6514	323.2847	21283.25	20559.35
805.7945	325.4887	21227.05	20503.15
805.9376	327.692	21244.85	20519
806.0807	329.8949	21319.2	20591.8
806.2238	332.0972	21309.4	20579.85
806.367	334.2989	21353.15	20620.5
806.5101	336.5001	21294.25	20559.95
806.6533	338.7007	21313.45	20581.45
806.7965	340.9008	21317.95	20584.15
806.9397	343.1003	21278.3	20540.65
807.0829	345.2992	21239.3	20498.95
807.2261	347.4976	21223.75	20485.1
807.3693	349.6955	21223.85	20480.45
807.5126	351.8927	21281.25	20536.2
807.6559	354.0895	21212.1	20453.35
807.7991	356.2856	21190.85	20445.3
807.9424	358.4812	21174.25	20426.35
808.0857	360.6763	21206	20458.35
808.2291	362.8707	21177.05	20426.8
808.3724	365.0646	21194.65	20439.7
808.5158	367.258	21179.3	20422.95
808.6591	369.4508	21141	20380.4
808.8025	371.643	21149.9	20390.45
808.9459	373.8346	21063.05	20304.25
809.0893	376.0257	21125.85	20362.6
809.2327	378.2162	21076.6	20314.05
809.3762	380.4062	21111.95	20352.85
809.5196	382.5956	21033.4	20273.15
809.6631	384.7844	20995.05	20239.7
809.8066	386.9726	20931.55	20175
809.9501	389.1603	20906.05	20150.1
810.0936	391.3474	20898.1	20102.9
810.2371	393.5339	20872.8	20113.95
810.3806	395.7199	20828.6	20074.5
810.5241	397.9052	20840.65	20084.3
810.6677	400.09	20820.35	20061.5
810.8113	402.2743	20834	20077.85
810.9548	404.4579	20819.9	20058.8
811.0984	406.641	20901.4	20138.85
811.2421	408.8235	20922.9	20158.75
811.3857	411.0054	20932.8	20167
811.5293	413.1868	20998.8	20227.5
811.673	415.3675	21020.1	20247.25
811.8166	417.5477	21070.55	20297.3
811.9603	419.7273	20992.25	20215.7
812.104	421.9064	20811.9	20028.1
812.2477	424.0848	20771.9	19994.2
812.3914	426.2627	20667.6	19891.6
812.5351	428.4399	20627.85	19850.55
812.6788	430.6166	20558.15	19774.95
812.8226	432.7928	20507.15	19720.75
812.9663	434.9683	20435.65	19651.55
813.1101	437.1432	20382.55	19595.65
813.2539	439.3176	20317.35	19533.05
813.3977	441.4914	20245.4	19462.55
813.5415	443.6645	20232.35	19448.4
813.6853	445.8371	20138	19353.65
813.8291	448.0091	20086.8	19300.2
813.973	450.1806	20025.05	19236.75
814.1168	452.3514	19980.2	19192.2
814.2607	454.5216	19972.55	19176.1
814.4046	456.6913	19876.5	19083.55
814.5485	458.8603	19901.65	19113.95
814.6924	461.0288	19894.05	19104.45
814.8363	463.1967	19849.55	19059.55
814.9802	465.3639	19922.2	19131.65
815.1241	467.5306	19860.4	19069.3
815.2681	469.6967	19805.2	19014.65
815.412	471.8622	19747.05	18955.45
815.556	474.0271	19736.3	18945.3
815.7	476.1914	19716.65	18922.4
815.844	478.3551	19700.3	18904.9
815.988	480.5182	19728.55	18934.8
816.132	482.6807	19707.25	18915.05
816.276	484.8426	19741.6	18950.3
816.4201	487.0039	19746.45	18952.5
816.5641	489.1647	19796.5	19000.15
816.7082	491.3248	19845.9	19048.55
816.8522	493.4843	19818.9	19022.25
816.9963	495.6432	19789.25	18991.2
817.1404	497.8015	19707.25	18903.05
817.2845	499.9592	19725.85	18920.75
817.4286	502.1163	19720.15	18917.85
817.5727	504.2728	19609.35	18805.6
817.7168	506.4287	19655.95	18855.9
817.861	508.5839	19581.85	18779.85
818.0051	510.7386	19558.65	18758.05
818.1493	512.8927	19528.65	18722
818.2935	515.0461	19556.65	18751.75
818.4377	517.199	19541.5	18732.75
818.5818	519.3512	19576.3	18769.4
818.726	521.5029	19590.15	18776.5
818.8703	523.6539	19556.3	18749.1
819.0145	525.8043	19542.65	18731.95
819.1587	527.9541	19538.35	18726.7
819.303	530.1033	19485.75	18674.3
819.4472	532.2519	19414.4	18605.25
819.5915	534.3999	19377.65	18566.45
819.7357	536.5472	19376.4	18565.1
819.88	538.694	19379.7	18570.65
820.0243	540.8401	19373.1	18559.25
820.1686	542.9856	19367.7	18551.65
820.3129	545.1305	19360.7	18545.6
820.4572	547.2748	19379.7	18562.15
820.6016	549.4185	19383.75	18565.95
820.7459	551.5615	19320.85	18505.2
820.8902	553.704	19321.65	18504.6
821.0346	555.8458	19293.2	18477.95
821.1789	557.987	19343.45	18528.4
821.3233	560.1276	19301.75	18481.2
821.4677	562.2675	19325.45	18507.55
821.6121	564.4069	19325.75	18505.5
821.7565	566.5456	19310.45	18494.8
821.9009	568.6837	19289.25	18472
822.0453	570.8212	19190.65	18374.15
822.1897	572.958	19147.55	18328.6
822.3342	575.0942	19056.45	18239.2
822.4786	577.2299	19039.55	18220.25
822.6231	579.3648	18953.05	18135.8
822.7675	581.4992	18842.1	18024.4
822.912	583.6329	18790.35	17974.25
823.0565	585.766	18765.75	17945.35
823.201	587.8985	18798.05	17978.65
823.3454	590.0304	18752.9	17919.8
823.4899	592.1616	18725.5	17899.8
823.6345	594.2922	18688.95	17865.85
823.779	596.4222	18636.1	17812.15
823.9235	598.5515	18552.55	17725.45
824.068	600.6802	18493.5	17668.85
824.2126	602.8083	18429.25	17602.7
824.3571	604.9358	18411.1	17582.45
824.5017	607.0626	18392.45	17564.45
824.6462	609.1888	18384.65	17553.45
824.7908	611.3144	18358.6	17528.15
824.9354	613.4393	18282.65	17453.75
825.08	615.5636	18309.75	17480.4
825.2246	617.6873	18321.5	17492.25
825.3692	619.8103	18343.45	17510.5
825.5138	621.9327	18321.7	17489.45
825.6584	624.0544	18279.55	17449.05
825.803	626.1756	18236.1	17404.35
825.9477	628.2961	18176.8	17344.8
826.0923	630.4159	18154.6	17322.5
826.237	632.5351	18119.4	17288.65
826.3816	634.6537	18114	17281.35
826.5263	636.7716	18090.8	17255.9
826.6709	638.8889	18081.1	17244.75
826.8156	641.0056	18104.3	17266.75
826.9603	643.1216	18041.7	17204.75
827.105	645.237	18094.4	17257.65
827.2497	647.3518	18059.6	17223.6
827.3944	649.4659	18007.95	17172.45
827.5391	651.5793	17989.6	17154.9
827.6838	653.6922	17951.5	17115.4
827.8285	655.8043	17912.55	17075.7
827.9733	657.9159	17911.05	17071.85
828.118	660.0268	17870	17030.6
828.2627	662.137	17808.5	16970.85
828.4075	664.2466	17810.8	16969.3
828.5522	666.3556	17787.55	16948.9
828.697	668.4639	17739.8	16898.55
828.8418	670.5716	17728.95	16887.5
828.9865	672.6786	17733.05	16891.1
829.1313	674.785	17677.8	16834.15
829.2761	676.8907	17603.8	16762.25
829.4209	678.9958	17628.9	16789.1
829.5657	681.1002	17553.05	16710.6
829.7105	683.204	17573.2	16724.8
829.8553	685.3072	17555.6	16712.15
830.0001	687.4097	17486.5	16642.5
830.1449	689.5115	17522.3	16677.9
830.2898	691.6127	17472.2	16628.15
830.4346	693.7132	17454.35	16610.15
830.5794	695.8131	17484.55	16618.75
830.7243	697.9123	17446.4	16600.35
830.8691	700.0109	17411.5	16566.8
831.014	702.1089	17401.6	16556.5
831.1588	704.2061	17366.95	16522.9
831.3037	706.3028	17375.65	16525.85
831.4486	708.3987	17380.65	16534.95
831.5935	710.4941	17340.6	16493.25
831.7383	712.5887	17327.6	16478.2
831.8832	714.6827	17322.7	16469.45
832.0281	716.7761	17286.25	16438.4
832.173	718.8688	17288.3	16437.2
832.3179	720.9608	17265.1	16410.1
832.4628	723.0522	17269.1	16414.05
832.6077	725.1429	17236.45	16385.25
832.7527	727.233	17211.3	16362.3
832.8976	729.3224	17258.5	16407.2
833.0425	731.4112	17249.3	16397.9
833.1874	733.4993	17218.7	16366.1
833.3324	735.5867	17173.8	16321.15
833.4773	737.6735	17149.5	16297.2
833.6222	739.7596	17061.05	16207.7
833.7672	741.845	16993.1	16140.65
833.9122	743.9298	16959.6	16105.7
834.0571	746.014	16964.65	16112.1
834.2021	748.0974	16957.95	16101.1
834.347	750.1802	16898.35	16041.4
834.492	752.2624	16869.45	16015.25
834.637	754.3439	16785.3	15929.85
834.782	756.4247	16711.95	15846.5
834.9269	758.5048	16653.4	15798.5
835.0719	760.5843	16631	15774.9
835.2169	762.6631	16594	15739.9
835.3619	764.7413	16580.45	15723.8
835.5069	766.8188	16641.45	15784.7
835.6519	768.8956	16587.25	15728.3
835.7969	770.9718	16656.25	15801.05
835.9419	773.0473	16535.05	15678.65
836.0869	775.1221	16562.3	15706.95
836.232	777.1962	16492.45	15636.55
836.377	779.2697	16486.7	15629.5
836.522	781.3426	16481.3	15603.85
836.667	783.4147	16465.95	15606.65
836.8121	785.4862	16473.6	15616.7
836.9571	787.557	16408.75	15551.25
837.1021	789.6271	16343.45	15482.7
837.2472	791.6966	16226.8	15367.05
837.3922	793.7654	16151.3	15289.7
837.5373	795.8335	16104.7	15247.25
837.6823	797.901	16050.6	15192.5
837.8274	799.9678	16031.4	15172.75
837.9724	802.0339	15996.05	15136.25
838.1175	804.0993	15994.8	15126.45
838.2626	806.1641	15965.95	15105.65
838.4076	808.2282	15916.15	15055.9
838.5527	810.2916	15901.65	15040.25
838.6978	812.3544	15869.8	15011
838.8428	814.4164	15838	14979.25
838.9879	816.4778	15868.45	15005.05
839.133	818.5385	15815.75	14954.2
839.2781	820.5986	15812.65	14951.35
839.4232	822.658	15840.05	14975.55
839.5682	824.7166	15795.1	14933.95
839.7133	826.7747	15882.6	15019.75
839.8584	828.832	15882.3	15020.75
840.0035	830.8886	15835.4	14970.15
840.1486	832.9446	15832.3	14966.5
840.2937	834.9999	15764.35	14904.35
840.4388	837.0545	15743.9	14877.7
840.5839	839.1085	15681.2	14817.7
840.729	841.1618	15627.4	14759.95
840.8741	843.2143	15564.6	14701.1
841.0192	845.2662	15507.45	14644.2
841.1643	847.3175	15482.25	14619.55
841.3095	849.368	15463.15	14598.05
841.4546	851.4179	15423.7	14557.85
841.5997	853.467	15358.75	14493.5
841.7448	855.5155	15366.05	14502
841.8899	857.5633	15316.45	14452.6
842.0351	859.6105	15280.15	14415.7
842.1802	861.6569	15286.95	14419.75
842.3253	863.7027	15205.15	14339.2
842.4704	865.7478	15222.05	14357.3
842.6156	867.7922	15200.5	14334.05
842.7607	869.8359	15178.8	14310.35
842.9058	871.8789	15180.15	14311.2
843.0509	873.9212	15177.3	14281.35
843.1961	875.9629	15093.55	14225.8
843.3412	878.0039	15102.45	14235.2
843.4863	880.0441	15088.15	14220.65
843.6315	882.0837	15097.85	14228.7
843.7766	884.1226	15096.55	14228.35
843.9218	886.1609	15081.7	14215.45
844.0669	888.1984	15114.95	14247.75
844.212	890.2352	15149.1	14282.4
844.3572	892.2714	15129.55	14258
844.5023	894.3069	15089.1	14218.2
844.6475	896.3416	14984.55	14114.6
844.7926	898.3757	14983.1	14114.8
844.9377	900.4091	14956.9	14086.95
845.0829	902.4418	14952.3	14077.4
845.228	904.4739	14880	14010.4
845.3732	906.5052	14868.2	13994.1
845.5183	908.5358	14825.1	13956.55
845.6635	910.5658	14815.1	13943.4
845.8086	912.595	14763.05	13892.55
845.9538	914.6236	14746.3	13878.3
846.0989	916.6515	14719.75	13849.45
846.2441	918.6786	14667.25	13793.8
846.3892	920.7051	14677.8	13805.5
846.5344	922.7309	14643.55	13771.7
846.6795	924.756	14579.6	13709.65
846.8246	926.7804	14618.85	13745.55
846.9698	928.8041	14503.6	13628.65
847.1149	930.8272	14501.45	13626.9
847.2601	932.8495	14417.05	13542.75
847.4052	934.8711	14406.15	13531.9
847.5504	936.892	14370	13498.1
847.6955	938.9123	14329.3	13456.65
847.8407	940.9318	14314.55	13442.5
847.9858	942.9506	14294.3	13421.1
848.131	944.9688	14242.05	13369.2
848.2761	946.9862	14229.85	13356.6
848.4213	949.003	14119.9	13247.85
848.5664	951.019	14083.3	13208.4
848.7115	953.0344	14062.25	13188.85
848.8567	955.0491	14013.8	13139.85
849.0018	957.063	13971.65	13097.5
849.147	959.0763	14018.5	13146.8
849.2921	961.0888	13940.55	13064.9
849.4373	963.1007	13952.2	13080.1
849.5824	965.1119	13956.25	13083.7
849.7275	967.1223	13917.9	13046
849.8727	969.1321	13914.7	13042.35
850.0178	971.1412	13883.8	13011.25
850.1629	973.1495	13849.2	12974.75
850.3081	975.1572	13850.45	12929.35
850.4532	977.1641	13813.9	12941.55
850.5983	979.1704	13757.55	12883.85
850.7435	981.1759	13740.9	12862.8
850.8886	983.1808	13693	12817.95
851.0337	985.1849	13674.55	12788.3
851.1788	987.1884	13659.75	12784.4
851.324	989.1911	13624	12746.3
851.4691	991.1932	13622.2	12746.15
851.6142	993.1945	13565.55	12690.3
851.7593	995.1951	13495.9	12617.3
851.9045	997.1951	13477.8	12596.25
852.0496	999.1943	13422.25	12548.05
852.1947	1001.1928	13376.05	12498.9
852.3398	1003.1906	13314.45	12438.85
852.4849	1005.1877	13322.4	12446.45
852.63	1007.1841	13267.3	12392.3
852.7751	1009.1798	13238.95	12361.9
852.9202	1011.1748	13200.35	12324.4
853.0653	1013.1691	13187.55	12310.85
853.2104	1015.1627	13088.45	12212
853.3555	1017.1556	12985.15	12108.75
853.5006	1019.1477	12992.7	12115.05
853.6457	1021.1392	12882.3	12007.55
853.7908	1023.1299	12847.75	11972.15
853.9359	1025.12	12783.9	11908.75
854.081	1027.1093	12754.25	11881.8
854.2261	1029.0979	12728.55	11858.2
854.3712	1031.0859	12685.75	11813.4
854.5163	1033.0731	12661.6	11782.45
854.6613	1035.0596	12671.55	11793.9
854.8064	1037.0454	12558.85	11680.2
854.9515	1039.0304	12547.25	11669.8
855.0965	1041.0148	12460.15	11581.9
855.2416	1042.9985	12431.05	11552.35
855.3867	1044.9814	12416.15	11539.9
855.5317	1046.9636	12363.55	11486.1
855.6768	1048.9452	12329.25	11452.25
855.8219	1050.926	12343.9	11468
855.9669	1052.9061	12295.8	11419.4
856.112	1054.8855	12261.95	11382.9
856.257	1056.8642	12231.4	11353.55
856.4021	1058.8421	12228.3	11344.9
856.5471	1060.8194	12190.85	11311.4
856.6921	1062.7959	12167.7	11290.6
856.8372	1064.7717	12152.45	11274.8
856.9822	1066.7469	12126.8	11245.55
857.1272	1068.7213	12109.5	11227.85
857.2723	1070.695	12106.6	11226.65
857.4173	1072.6679	12036.9	11158.4
857.5623	1074.6402	12032.45	11151.5
857.7073	1076.6117	12045.65	11160
857.8523	1078.5826	12031.9	11153.9
857.9973	1080.5527	11967.7	11085.85
858.1423	1082.5221	11922.1	11041.95
858.2873	1084.4908	11881.5	11005.2
858.4323	1086.4587	11833.2	10953
858.5773	1088.426	11812.4	10934.55
858.7223	1090.3925	11757.7	10873
858.8673	1092.3584	11744.85	10866.05
859.0123	1094.3235	11697.9	10819.1
859.1573	1096.2879	11709.7	10829.2
859.3022	1098.2515	11704.05	10823.4
859.4472	1100.2145	11683.05	10804.05
859.5922	1102.1767	11652.5	10768.9
859.7371	1104.1382	11681.55	10802.55
859.8821	1106.099	11667.75	10786
860.027	1108.0591	11641.85	10760
860.172	1110.0185	11648.5	10764.7
860.3169	1111.9771	11672.8	10789.2
860.4619	1113.9351	11657.45	10779.95
860.6068	1115.8923	11666.55	10786
860.7517	1117.8488	11605.85	10724.05
860.8967	1119.8045	11562.05	10684.25
861.0416	1121.7596	11522.5	10641.7
861.1865	1123.7139	11410.2	10530.05
861.3314	1125.6675	11348	10468.6
861.4763	1127.6204	11361.65	10481.5
861.6212	1129.5726	11325.1	10442.55
861.7661	1131.524	11331.55	10449.9
861.911	1133.4748	11297.6	10416.3
862.0559	1135.4248	11226	10342.75
862.2008	1137.3741	11181.75	10300.8
862.3457	1139.3226	11142.15	10261.55
862.4905	1141.2705	11130.15	10247.5
862.6354	1143.2176	11074.55	10187.55
862.7803	1145.164	11079	10196.2
862.9251	1147.1097	11060	10178.65
863.07	1149.0546	11076.55	10193.25
863.2148	1150.9989	11002.6	10123.15
863.3597	1152.9424	10998	10114.45
863.5045	1154.8852	10940.15	10059.1
863.6493	1156.8272	10931.1	10049.75
863.7942	1158.7686	10949.65	10059.4
863.939	1160.7092	10927.9	10046.6
864.0838	1162.6491	10892.75	10007.2
864.2286	1164.5883	10886.6	10006
864.3734	1166.5267	10832.75	9949.8
864.5182	1168.4644	10833.7	9949.95
864.663	1170.4014	10815.4	9927.05
864.8078	1172.3377	10884.65	10004.45
864.9526	1174.2732	10882.3	9999.9
865.0974	1176.2081	10877.8	9995.45
865.2421	1178.1421	10954.85	10070.65
865.3869	1180.0755	10972.1	10091.9
865.5317	1182.0082	10966.7	10083.95
865.6764	1183.9401	10957.25	10073.95
865.8212	1185.8713	10889.05	10009.1
865.9659	1187.8017	10800.65	9920.05
866.1106	1189.7315	10723.7	9846.15
866.2554	1191.6605	10605.5	9724.65
866.4001	1193.5888	10547.65	9667.8
866.5448	1195.5163	10544.75	9661.55
866.6895	1197.4432	10511.75	9628.85
866.8342	1199.3693	10453.75	9568.45
866.9789	1201.2947	10397.4	9512
867.1236	1203.2193	10381.1	9499.2
867.2683	1205.1432	10345.65	9462
867.413	1207.0664	10318	9436.05
867.5576	1208.9889	10313.9	9426.35
867.7023	1210.9106	10262.85	9379.4
867.847	1212.8316	10200.35	9317.4
867.9916	1214.7519	10209.35	9317.55
868.1363	1216.6715	10173.4	9291.3
868.2809	1218.5903	10160.9	9277.6
868.4255	1220.5084	10157.05	9271.75
868.5701	1222.4257	10144.2	9261.95
868.7148	1224.3424	10105.95	9224.6
868.8594	1226.2583	10111.8	9224.85
869.004	1228.1735	10117.35	9235.25
869.1486	1230.0879	10058.35	9174.35
869.2932	1232.0016	10060.3	9176.95
869.4377	1233.9146	10077.15	9192.15
869.5823	1235.8269	10032.6	9150.35
869.7269	1237.7384	10053.65	9169.6
869.8715	1239.6492	10010.3	9124.95
870.016	1241.5592	9991.25	9108.15
870.1606	1243.4686	9996.15	9113.3
870.3051	1245.3772	10036.95	9154.6
870.4496	1247.285	10052.7	9168.85
870.5941	1249.1922	10053.65	9171.05
870.7387	1251.0986	10102.1	9220.45
870.8832	1253.0042	10100.9	9216.7
871.0277	1254.9092	10126.45	9242.45
871.1722	1256.8134	10154.35	9271.25
871.3167	1258.7169	10174.8	9289.35
871.4611	1260.6196	10206.85	9324.55
871.6056	1262.5216	10177.1	9291.4
871.7501	1264.4229	10141	9257.7
871.8945	1266.3234	10141.25	9257.7
872.039	1268.2232	10101.1	9214.85
872.1834	1270.1223	10050.05	9165.65
872.3278	1272.0207	10013.05	9131.35
872.4723	1273.9183	9996.9	9106.05
872.6167	1275.8151	9975.75	9095.05
872.7611	1277.7113	9980.35	9094.95
872.9055	1279.6067	9992.2	9109.55
873.0499	1281.5014	10043.7	9157.3
873.1943	1283.3953	10129.45	9243.8
873.3386	1285.2885	10269.75	9387.9
873.483	1287.181	10303.15	9418.25
873.6274	1289.0727	10351.75	9469.2
873.7717	1290.9637	10320.55	9437.05
873.9161	1292.854	10288.6	9404.35
874.0604	1294.7435	10178.7	9295.15
874.2047	1296.6323	10129.2	9243.4
874.349	1298.5204	10066.75	9177.7
874.4933	1300.4077	9978.7	9094.35
874.6376	1302.2943	9939.1	9054.95
874.7819	1304.1802	9938.15	9055.15
874.9262	1306.0653	9899.7	9013.3
875.0705	1307.9497	9853.45	8968.15
875.2147	1309.8333	9841.1	8955.95
875.359	1311.7162	9793.95	8907.5
875.5032	1313.5984	9781.4	8895.15
875.6475	1315.4798	9726.15	8831.7
875.7917	1317.3605	9698.8	8796.4
875.9359	1319.2405	9703.8	8817.45
876.0801	1321.1197	9683.5	8799
876.2243	1322.9982	9623.45	8735
876.3685	1324.876	9591.65	8708.75
876.5127	1326.753	9502.9	8617.25
876.6569	1328.6293	9478.45	8594.2
876.801	1330.5048	9430.7	8543.2
876.9452	1332.3796	9347.05	8463.75
877.0893	1334.2537	9338	8428.1
877.2335	1336.127	9297.85	8413.85
877.3776	1337.9996	9264.3	8379.75
877.5217	1339.8714	9225.65	8340.85
877.6658	1341.7426	9220.35	8292.25
877.8099	1343.6129	9184.35	8296.75
877.954	1345.4826	9144.1	8260.3
878.0981	1347.3515	9140.25	8252.1
878.2422	1349.2196	9122.55	8235.4
878.3862	1351.087	9112	8225.95
878.5303	1352.9537	9102.35	8217.8
878.6743	1354.8197	9106.6	8221.9
878.8184	1356.6849	9094.5	8208.65
878.9624	1358.5493	9086.1	8201.6
879.1064	1360.4131	9081.3	8196.05
879.2504	1362.276	9082.3	8199.2
879.3944	1364.1383	9072.35	8186.95
879.5384	1365.9998	9071.65	8180.8
879.6823	1367.8606	9026	8141.75
879.8263	1369.7206	9014	8126.5
879.9702	1371.5799	8979.65	8093.35
880.1142	1373.4384	8961.85	8073.65
880.2581	1375.2962	8956.1	8069.7
880.402	1377.1533	8877.25	7992
880.5459	1379.0096	8813.1	7925.45
880.6898	1380.8652	8751.1	7867.6
880.8337	1382.7201	8729.5	7845.65
880.9776	1384.5742	8686.7	7798.7
881.1215	1386.4275	8647.5	7760.85
881.2653	1388.2802	8615.85	7730.95
881.4092	1390.132	8573.75	7687.8
881.553	1391.9832	8565	7675.15
881.6968	1393.8336	8523.15	7635.35
881.8406	1395.6832	8485.45	7596.35
881.9844	1397.5322	8470	7584.05
882.1282	1399.3803	8432.1	7544.25
882.272	1401.2278	8397.1	7511.5
882.4158	1403.0745	8362.6	7477.65
882.5595	1404.9204	8329.9	7445.8
882.7033	1406.7656	8296	7409.8
882.847	1408.6101	8274.1	7390.3
882.9908	1410.4538	8244.15	7356.45
883.1345	1412.2968	8220.8	7335.65
883.2782	1414.139	8209.7	7323.6
883.4219	1415.9805	8185.2	7299.75
883.5656	1417.8213	8175.35	7284
883.7092	1419.6613	8141.5	7258.15
883.8529	1421.5006	8160.2	7272.9
883.9965	1423.3391	8164.25	7280.85
884.1402	1425.1769	8148.6	7259.65
884.2838	1427.0139	8210.8	7324.85
884.4274	1428.8502	8222.9	7334.5
884.571	1430.6858	8257.75	7371.45
884.7146	1432.5206	8223.35	7338.25
884.8582	1434.3547	8207.8	7321.55
885.0018	1436.188	8180.3	7292.05
885.1453	1438.0206	8171.4	7282.75
885.2889	1439.8524	8133.25	7246.85
885.4324	1441.6835	8152.85	7266
885.5759	1443.5139	8126.9	7238.9
885.7194	1445.3435	8096.8	7211.1
885.8629	1447.1724	8085.45	7198.6
886.0064	1449.0005	8057.55	7172.35
886.1499	1450.8279	8057.25	7170.15
886.2933	1452.6545	8045.1	7161.45
886.4368	1454.4804	8030.3	7144.7
886.5802	1456.3056	8015.3	7121.85
886.7237	1458.13	7986.95	7102.95
886.8671	1459.9536	7963.3	7079.5
887.0105	1461.7766	7945.3	7058.95
887.1539	1463.5987	7899.8	7010.4
887.2972	1465.4202	7852.15	6967.6
887.4406	1467.2409	7805.3	6917.4
887.584	1469.0608	7801.25	6916.75
887.7273	1470.88	7747.65	6859.8
887.8706	1472.6984	7735.4	6849.65
888.0139	1474.5161	7669.95	6783.3
888.1572	1476.3331	7644.45	6759.45
888.3005	1478.1493	7627.15	6741.05
888.4438	1479.9648	7646.6	6760.2
888.5871	1481.7795	7628.9	6744.05
888.7303	1483.5935	7628.95	6743.65
888.8736	1485.4067	7605.8	6720.6
889.0168	1487.2192	7607.1	6720.6
889.16	1489.031	7584.15	6698.25
889.3032	1490.842	7559.15	6675.1
889.4464	1492.6522	7546	6660.15
889.5896	1494.4618	7546.35	6659.5
889.7327	1496.2705	7509.05	6624.05
889.8759	1498.0785	7487.75	6599.1
890.019	1499.8858	7456.4	6569.35
890.1622	1501.6924	7433	6548.35
890.3053	1503.4981	7421.6	6534.5
890.4484	1505.3032	7399.45	6512.25
890.5914	1507.1075	7385.6	6498.8
890.7345	1508.911	7387.4	6501.2
890.8776	1510.7138	7360.2	6472.55
891.0206	1512.5159	7319.25	6430.7
891.1637	1514.3172	7281.95	6399.05
891.3067	1516.1178	7249.25	6364.75
891.4497	1517.9176	7254.2	6363.55
891.5927	1519.7166	7239.1	6354.5
891.7357	1521.515	7213.35	6322.15
891.8786	1523.3126	7184.65	6298.6
892.0216	1525.1094	7160.45	6271.7
892.1645	1526.9055	7134.15	6249.9
892.3074	1528.7008	7096.9	6212.45
892.4503	1530.4954	7064.95	6179
892.5932	1532.2893	7043.6	6158.55
892.7361	1534.0824	7006.1	6115.5
892.879	1535.8747	6998.05	6112.05
893.0218	1537.6663	6970.15	6083.2
893.1647	1539.4572	6948.7	6060.4
893.3075	1541.2473	6928.95	6043.2
893.4503	1543.0367	6906.6	6021.4
893.5931	1544.8253	6864.95	5975.85
893.7359	1546.6132	6866.4	5980.5
893.8787	1548.4003	6849.15	5954.8
894.0214	1550.1867	6828.7	5935.15
894.1642	1551.9723	6813.65	5924.2
894.3069	1553.7572	6791.25	5906.45
894.4496	1555.5414	6797	5911.75
894.5923	1557.3247	6779.35	5894.75
894.735	1559.1074	6789.25	5905.8
894.8777	1560.8893	6778.75	5894.05
895.0204	1562.6705	6758.85	5875.15
895.163	1564.4509	6760.65	5877.55
895.3056	1566.2305	6748.35	5864.3
895.4482	1568.0094	6779.1	5896.65
895.5908	1569.7876	6741	5855.25
895.7334	1571.565	6724.2	5839.4
895.876	1573.3417	6705.2	5822.15
896.0186	1575.1176	6685.4	5800.45
896.1611	1576.8928	6673	5788.4
896.3036	1578.6672	6640.15	5759.05
896.4461	1580.4409	6643.05	5761.75
896.5886	1582.2138	6648.35	5762.8
896.7311	1583.986	6648.4	5762.65
896.8736	1585.7575	6640.95	5756.3
897.0161	1587.5282	6654.55	5772.65
897.1585	1589.2981	6654.45	5772.55
897.3009	1591.0673	6623.35	5739.9
897.4433	1592.8358	6632	5749.15
897.5857	1594.6035	6607.1	5721.3
897.7281	1596.3704	6596.8	5711.9
897.8705	1598.1366	6541.4	5658.9
898.0128	1599.9021	6508.35	5626.6
898.1551	1601.6668	6467.15	5584
898.2975	1603.4308	6427.65	5539.25
898.4398	1605.194	6433.55	5546.25
898.5821	1606.9564	6417.1	5533.85
898.7243	1608.7182	6451.75	5567.65
898.8666	1610.4791	6469.35	5588.55
899.0088	1612.2394	6485.5	5603.3
899.1511	1613.9988	6527.55	5646.55
899.2933	1615.7576	6548	5668.05
899.4355	1617.5156	6558.95	5669.25
899.5776	1619.2728	6542.15	5659.85
899.7198	1621.0293	6481.95	5599.3
899.862	1622.785	6392.35	5506.8
900.0041	1624.54	6281.9	5396.8
900.1462	1626.2942	6194.8	5311.95
900.2883	1628.0477	6103.55	5218.7
900.4304	1629.8005	6043.2	5157.95
900.5725	1631.5525	5987.8	5106.5
900.7145	1633.3037	5951.8	5068.1
900.8566	1635.0542	5911.3	5027.7
900.9986	1636.804	5876.35	4994
901.1406	1638.553	5910.1	4935.5
901.2826	1640.3013	5820.6	4939.8
901.4245	1642.0488	5763.15	4876.9
901.5665	1643.7955	5732.3	4849.75
901.7085	1645.5416	5697.8	4813.8
901.8504	1647.2868	5701.25	4818.45
901.9923	1649.0313	5655.5	4772.65
902.1342	1650.7751	5650.85	4763.95
902.2761	1652.5181	5624.2	4742.8
902.4179	1654.2604	5620.8	4737.95
902.5598	1656.0019	5594.85	4715.1
902.7016	1657.7427	5593.6	4710.05
902.8434	1659.4828	5587.6	4706.9
902.9852	1661.222	5583.85	4699.15
903.127	1662.9606	5567.9	4684.1
903.2687	1664.6984	5588.45	4704.45
903.4105	1666.4354	5599.7	4714.7
903.5522	1668.1717	5554.15	4670.9
903.6939	1669.9072	5485.3	4600.75
903.8356	1671.642	5465.05	4578.85
903.9773	1673.3761	5423.45	4539.8
904.119	1675.1094	5394.5	4510.8
904.2606	1676.8419	5345.9	4461.9
904.4022	1678.5737	5301.9	4418.75
904.5439	1680.3048	5288.75	4406.45
904.6855	1682.0351	5273.4	4390.9
904.827	1683.7646	5255.5	4370.3
904.9686	1685.4934	5236.6	4353.7
905.1101	1687.2215	5185.1	4302.55
905.2517	1688.9488	5163.1	4278.95
905.3932	1690.6754	5145.8	4264.75
905.5347	1692.4012	5127.5	4242.55
905.6761	1694.1263	5121.25	4238.95
905.8176	1695.8506	5111.1	4227
905.9591	1697.5742	5081	4199.45
906.1005	1699.297	5074.1	4194.1
906.2419	1701.0191	5038.7	4157.8
906.3833	1702.7404	5003.6	4122.35
906.5246	1704.461	4988.2	4104.75
906.666	1706.1808	4968.55	4084.85
906.8073	1707.8999	4961.35	4075.7
906.9487	1709.6182	4941.65	4061.15
907.09	1711.3358	4914.05	4032.55
907.2313	1713.0527	4920.2	4038.9
907.3725	1714.7688	4905.15	4019.25
907.5138	1716.4841	4870.45	3986.7
907.655	1718.1987	4867.85	3979.55
907.7962	1719.9126	4859.05	3979.15
907.9374	1721.6257	4841	3956.1
908.0786	1723.338	4832.7	3952.1
908.2198	1725.0496	4811.15	3927.4
908.3609	1726.7605	4806.5	3923.9
908.502	1728.4706	4790.05	3906.35
908.6431	1730.18	4785.5	3901.35
908.7842	1731.8886	4792.5	3912.6
908.9253	1733.5964	4784.35	3896.35
909.0664	1735.3036	4769.25	3885.4
909.2074	1737.0099	4744.3	3862.8
909.3484	1738.7156	4765.35	3885
909.4894	1740.4204	4727.1	3841.5
909.6304	1742.1246	4740.4	3856.55
909.7714	1743.8279	4740.7	3859.55
909.9123	1745.5306	4721	3837.8
910.0532	1747.2325	4713.55	3831.75
910.1941	1748.9336	4717.8	3835.9
910.335	1750.634	4691.1	3806.8
910.4759	1752.3336	4694.4	3812.4
910.6168	1754.0325	4678.55	3799.65
910.7576	1755.7307	4677.35	3795.6
910.8984	1757.4281	4687.1	3805
911.0392	1759.1247	4681.85	3789.2
911.18	1760.8206	4661.6	3774.15
911.3208	1762.5158	4670.35	3785.5
911.4615	1764.2102	4659.8	3779.1
911.6022	1765.9039	4625.75	3743.7
911.7429	1767.5968	4625.7	3744.1
911.8836	1769.289	4607.5	3725.7
912.0243	1770.9804	4599.15	3714.7
912.1649	1772.6711	4607.4	3723.4
912.3056	1774.361	4599.2	3715.8
912.4462	1776.0502	4582.95	3698.85
912.5868	1777.7386	4563.05	3676.75
912.7274	1779.4263	4570.65	3689.95
912.8679	1781.1132	4571.9	3688.15
913.0084	1782.7994	4555.55	3673
913.149	1784.4849	4544	3664.9
913.2895	1786.1696	4526.25	3623.2
913.4299	1787.8535	4515.9	3634.85
913.5704	1789.5367	4503.05	3620.2
913.7108	1791.2192	4490.2	3605.5
913.8513	1792.9009	4490.5	3577.8
913.9917	1794.5818	4478.65	3593.3
914.132	1796.2621	4460.3	3579.05
914.2724	1797.9415	4464.2	3582.4
914.4128	1799.6202	4439.95	3556.1
914.5531	1801.2982	4436.45	3554.95
914.6934	1802.9755	4428.8	3546.5
914.8337	1804.6519	4414.9	3532.4
914.9739	1806.3277	4397.9	3516.15
915.1142	1808.0027	4377.65	3495.6
915.2544	1809.6769	4387.4	3506.4
915.3946	1811.3504	4371.2	3487.95
915.5348	1813.0231	4357.3	3475.25
915.675	1814.6951	4364.2	3482
915.8151	1816.3664	4354.85	3471.75
915.9553	1818.0369	4348.85	3465.85
916.0954	1819.7067	4325	3443.55
916.2355	1821.3757	4322.15	3436.2
916.3755	1823.044	4315.65	3432.65
916.5156	1824.7115	4315.15	3432.95
916.6556	1826.3783	4286	3403.7
916.7956	1828.0443	4280	3398.85
916.9356	1829.7096	4292.1	3409.45
917.0756	1831.3741	4285.5	3399.45
917.2155	1833.0379	4271.75	3390.75
917.3555	1834.701	4263.3	3381.25
917.4954	1836.3633	4252.35	3370.25
917.6353	1838.0248	4237.75	3354.4
917.7751	1839.6856	4227.35	3342.45
917.915	1841.3457	4232.6	3351.8
918.0548	1843.005	4219.7	3337.9
918.1946	1844.6636	4214.15	3332.05
918.3344	1846.3214	4220.35	3338.55
918.4742	1847.9785	4201.35	3318.8
918.6139	1849.6349	4188.1	3305.5
918.7537	1851.2904	4179.1	3288.85
918.8934	1852.9453	4167.9	3284.7
919.0331	1854.5994	4153.3	3268.45
919.1727	1856.2528	4157.7	3268.55
919.3124	1857.9054	4159.85	3276.8
919.452	1859.5572	4146.45	3265.95
919.5916	1861.2083	4132.15	3248.45
919.7312	1862.8587	4144.25	3262
919.8708	1864.5084	4127.5	3243.3
920.0103	1866.1572	4111.05	3228
920.1498	1867.8054	4103.9	3222.65
920.2893	1869.4528	4093.4	3210.8
920.4288	1871.0994	4083.35	3200.55
920.5683	1872.7453	4067.75	3184.5
920.7077	1874.3905	4070.45	3182.05
920.8471	1876.0349	4057.45	3173.6
920.9865	1877.6786	4053.75	3169.15
921.1259	1879.3215	4062.95	3178.8
921.2653	1880.9637	4055.1	3170.3
921.4046	1882.6051	4034.55	3150.4
921.5439	1884.2458	4036.9	3152.3
921.6832	1885.8858	4016.3	3132.05
921.8225	1887.525	4018.3	3136.55
921.9617	1889.1634	4007.35	3126.3
922.101	1890.8011	3994.1	3111.85
922.2402	1892.4381	3987.2	3104.75
922.3794	1894.0743	3988.15	3106.4
922.5185	1895.7098	3959.3	3075.95
922.6577	1897.3446	3966.45	3083.45
922.7968	1898.9786	3968.45	3079.65
922.9359	1900.6118	3948.15	3067.55
923.075	1902.2443	3943.25	3060.55
923.214	1903.8761	3942.15	3059.7
923.3531	1905.5071	3928	3044.15
923.4921	1907.1374	3915.3	3030.35
923.6311	1908.7669	3901.05	3020.8
923.77	1910.3957	3897.3	3013.7
923.909	1912.0237	3884.1	2998.15
924.0479	1913.651	3888.6	3006.7
924.1868	1915.2776	3885.7	3003.55
924.3257	1916.9034	3852.85	2971.75
924.4646	1918.5285	3860.95	2978.85
924.6034	1920.1528	3844.6	2961.35
924.7422	1921.7764	3845.95	2963.7
924.881	1923.3992	3831.9	2950.8
925.0198	1925.0213	3801.9	2919.1
925.1586	1926.6427	3787.95	2906.6
925.2973	1928.2633	3958.35	2858.3
925.436	1929.8832	3814.4	2928.85
925.5747	1931.5023	3775.55	2891.5
925.7134	1933.1207	3757.4	2874.9
925.852	1934.7383	3759.25	2874.95
925.9906	1936.3552	3751.5	2869.1
926.1292	1937.9714	3738.8	2857
926.2678	1939.5868	3726.7	2844.45
926.4064	1941.2015	3714.3	2829.25
926.5449	1942.8154	3697.75	2815.15
926.6834	1944.4286	3706.45	2824.05
926.8219	1946.041	3708.7	2804.65
926.9604	1947.6528	3670.3	2784.05
927.0988	1949.2637	3670.7	2788.1
927.2372	1950.8739	3659.1	2775.25
927.3756	1952.4834	3668.7	2785.65
927.514	1954.0921	3656.6	2773.1
927.6523	1955.7001	3645.65	2759.65
927.7907	1957.3074	3639.35	2759.95
927.929	1958.9139	3626.9	2746.4
928.0673	1960.5197	3621.35	2735.5
928.2055	1962.1247	3599.55	2717.9
928.3438	1963.729	3599.45	2718.95
928.482	1965.3325	3603.05	2699.6
928.6202	1966.9353	3578.1	2697.35
928.7584	1968.5374	3579.9	2697.6
928.8965	1970.1387	3590.15	2708.7
929.0346	1971.7393	3577.6	2695.35
929.1727	1973.3392	3547.8	2667.15
929.3108	1974.9383	3536.4	2654.4
929.4489	1976.5366	3528.2	2647.45
929.5869	1978.1342	3543.3	2661.1
929.7249	1979.7311	3533.25	2649.8
929.8629	1981.3273	3521.65	2640.75
930.0009	1982.9227	3516.6	2635.4
930.1388	1984.5173	3503.95	2622.1
930.2767	1986.1112	3493.85	2615.1
930.4146	1987.7044	3484.3	2605.4
930.5525	1989.2968	3482.1	2599.2
930.6904	1990.8885	3486.3	2599.9
930.8282	1992.4795	3487.35	2605.2
930.966	1994.0697	3456.35	2575.45
931.1038	1995.6592	3473.05	2593.55
931.2415	1997.2479	3458.85	2578
931.3793	1998.8359	3446.1	2564.85
931.517	2000.4232	3445.65	2567.25
931.6547	2002.0097	3428.9	2550.25
931.7923	2003.5955	3410.45	2530.35
931.93	2005.1805	3422.15	2538.85
932.0676	2006.7648	3428.9	2549.2
932.2052	2008.3484	3416.7	2534
932.3427	2009.9312	3404.7	2521.6
932.4803	2011.5133	3409.1	2531.95
932.6178	2013.0946	3385.65	2504.95
932.7553	2014.6752	3383.95	2505.85
932.8928	2016.2551	3385.2	2504.8
933.0302	2017.8342	3383.9	2503.9
933.1676	2019.4126	3368.85	2491.85
933.305	2020.9902	3363.55	2485.75
933.4424	2022.5672	3341.2	2461.05
933.5798	2024.1433	3357.75	2472.2
933.7171	2025.7188	3347.2	2466.65
933.8544	2027.2935	3331.3	2452.05
933.9917	2028.8674	3332.2	2449.8
934.129	2030.4406	3328.3	2450.25
934.2662	2032.0131	3329.85	2447.95
934.4034	2033.5849	3316.05	2432.3
934.5406	2035.1559	3310.85	2432.8
934.6778	2036.7261	3301.6	2424
934.8149	2038.2957	3306.45	2426
934.952	2039.8645	3298.45	2419.45
935.0891	2041.4325	3305	2421.8
935.2262	2042.9998	3293.7	2416.65
935.3632	2044.5664	3299	2416
935.5002	2046.1323	3302.3	2423.45
935.6372	2047.6974	3270.9	2390.7
935.7742	2049.2617	3254.8	2376
935.9111	2050.8254	3272.15	2389.05
936.048	2052.3883	3271.5	2390.05
936.1849	2053.9504	3258.2	2377.85
936.3218	2055.5118	3258.75	2377.35
936.4586	2057.0725	3251.2	2367
936.5955	2058.6325	3256.5	2377.9
936.7323	2060.1917	3234.05	2353.3
936.869	2061.7502	3243.55	2361.7
937.0058	2063.3079	3240.45	2362.85
937.1425	2064.8649	3217.3	2335.1
937.2792	2066.4212	3238.1	2357.8
937.4159	2067.9767	3228	2350.45
937.5525	2069.5315	3222.6	2342
937.6891	2071.0856	3207.6	2328
937.8257	2072.6389	3204.2	2322.3
937.9623	2074.1915	3177.85	2301.75
938.0989	2075.7433	3179.75	2298.7
938.2354	2077.2945	3187.7	2307.25
938.3719	2078.8448	3179.9	2300.45
938.5084	2080.3945	3171.6	2292.8
938.6448	2081.9434	3183	2303.1
938.7812	2083.4916	3166.3	2284.45
938.9176	2085.039	3163.75	2281.15
939.054	2086.5857	3165.65	2283.45
939.1903	2088.1317	3167.55	2286.35
939.3267	2089.677	3155.35	2272.1
939.463	2091.2215	3145	2266.1
939.5992	2092.7652	3146.3	2263.1
939.7355	2094.3083	3147.95	2266.8
939.8717	2095.8506	3142.75	2263.6
940.0079	2097.3921	3142	2261.9
940.1441	2098.933	3135.1	2256.1
940.2802	2100.4731	3119.65	2239
940.4163	2102.0124	3132.65	2233.95
940.5524	2103.5511	3123.45	2243.9
940.6885	2105.089	3133.25	2252.25
940.8245	2106.6261	3119.45	2241.8
940.9606	2108.1626	3111.95	2230.65
941.0965	2109.6983	3136.7	2226.25
941.2325	2111.2332	3114.3	2235.85
941.3684	2112.7675	3093.9	2210.9
941.5044	2114.301	3095	2212.25
941.6403	2115.8337	3108.4	2226.65
941.7761	2117.3657	3090.05	2210
941.912	2118.897	3093.05	2211.2
942.0478	2120.4276	3090.3	2203.4
942.1835	2121.9575	3081.5	2200.55
942.3193	2123.4866	3079.3	2196.3
942.455	2125.0149	3077.25	2193.35
942.5907	2126.5426	3048.25	2169.2
942.7264	2128.0695	3061.95	2178.3
942.8621	2129.5956	3053.75	2175.3
942.9977	2131.1211	3059.45	2174.35
943.1333	2132.6458	3041	2161.45
943.2689	2134.1698	3046.45	2167
943.4044	2135.693	3047	2164.15
943.54	2137.2155	3032.05	2149.45
943.6755	2138.7373	3022.8	2142.7
943.8109	2140.2584	3026.3	2147.8
943.9464	2141.7787	3029.8	2144.7
944.0818	2143.2983	3009.1	2129.9
944.2172	2144.8171	2999.5	2121.15
944.3526	2146.3353	3003.4	2120.9
944.4879	2147.8527	2985.7	2105.85
944.6232	2149.3693	2992.55	2113.25
944.7585	2150.8853	2996.85	2115.1
944.8938	2152.4005	2968.85	2089.55
945.029	2153.9149	2982.25	2101.8
945.1642	2155.4287	2967.85	2088.5
945.2994	2156.9417	2974.1	2092.8
945.4346	2158.454	2963.7	2079.65
945.5697	2159.9655	2963.15	2084.5
945.7048	2161.4764	2957.65	2077.75
945.8399	2162.9865	2951.9	2073.55
945.9749	2164.4958	2943.6	2062.8
946.1099	2166.0045	2948.2	2065.35
946.2449	2167.5124	2948.8	2068.3
946.3799	2169.0195	2932.3	2052.8
946.5148	2170.526	2933.65	2052.25
946.6498	2172.0317	2918.3	2037.85
946.7846	2173.5367	2930.35	2048.85
946.9195	2175.0409	2925.35	2047.15
947.0543	2176.5445	2918.4	2040.7
947.1891	2178.0473	2916.45	2033.95
947.3239	2179.5494	2899.2	2014.85
947.4587	2181.0507	2892.85	2012.05
947.5934	2182.5513	2898.6	2019.5
947.7281	2184.0512	2884.05	2004.9
947.8628	2185.5504	2881.1	1999.9
947.9974	2187.0488	2876.85	1998.4
948.132	2188.5465	2869.6	1988.3
948.2666	2190.0435	2857.75	1977.55
948.4012	2191.5397	2856.15	1976.9
948.5357	2193.0353	2840.75	1961.35
948.6702	2194.5301	2843.6	1961.95
948.8047	2196.0241	2831.95	1949.7
948.9392	2197.5175	2819.2	1939.25
949.0736	2199.0101	2824.25	1940.85
949.208	2200.502	2803.9	1925.55
949.3424	2201.9931	2813.5	1933.05
949.4767	2203.4835	2798.8	1919.15
949.611	2204.9733	2807.5	1922.15
949.7453	2206.4622	2801.6	1923.05
949.8796	2207.9505	2777.45	1893.45
950.0138	2209.438	2787.3	1908.5
950.148	2210.9248	2768.4	1886.2
950.2822	2212.4109	2768.1	1889.3
950.4164	2213.8962	2753.5	1868.6
950.5505	2215.3809	2765.85	1884.85
950.6846	2216.8648	2738.5	1858.3
950.8186	2218.3479	2759.1	1874.25
950.9527	2219.8304	2734.9	1851.85
951.0867	2221.3121	2726.75	1843.85
951.2207	2222.7931	2730.05	1849.55
951.3546	2224.2733	2725.65	1844.95
951.4886	2225.7529	2719.85	1839.7
951.6225	2227.2317	2717.15	1834.3
951.7563	2228.7098	2717.15	1839.05
951.8902	2230.1872	2697.1	1816.95
952.024	2231.6638	2704.3	1825
952.1578	2233.1397	2699	1814.2
952.2916	2234.6149	2688.3	1809.1
952.4253	2236.0894	2680.9	1799.15
952.559	2237.5632	2695.8	1804.45
952.6927	2239.0362	2669.65	1789.6
952.8263	2240.5085	2662.75	1782.3
952.9599	2241.9801	2648.8	1769.65
953.0935	2243.4509	2645.55	1763.1
953.2271	2244.921	2646.45	1765.2
953.3606	2246.3904	2638.8	1754.3
953.4941	2247.8591	2638.75	1759.45
953.6276	2249.3271	2632.4	1750.85
953.7611	2250.7943	2631.6	1752.45
953.8945	2252.2608	2618.85	1738.55
954.0279	2253.7266	2613.85	1732.9
954.1612	2255.1917	2606.35	1725.9
954.2946	2256.656	2610.75	1728.75
954.4279	2258.1197	2590.45	1709.85
954.5612	2259.5826	2592.95	1711.45
954.6944	2261.0447	2590.45	1711.45
954.8276	2262.5062	2581.75	1699.4
954.9608	2263.9669	2574.05	1690.7
955.094	2265.4269	2579.95	1700.7
955.2271	2266.8862	2566.9	1686.8
955.3602	2268.3448	2577.95	1698.2
955.4933	2269.8026	2574.05	1694.4
955.6264	2271.2598	2559.85	1679.25
955.7594	2272.7162	2548.3	1671.2
955.8924	2274.1719	2551.1	1669.75
956.0253	2275.6268	2541.2	1660.65
956.1583	2277.0811	2542.05	1662.1
956.2912	2278.5346	2528.8	1648
956.4241	2279.9874	2534	1657.1
956.5569	2281.4395	2525.15	1645.2
956.6897	2282.8908	2523.75	1639.45
956.8225	2284.3414	2527.1	1645.75
956.9553	2285.7914	2506.8	1629.35
957.088	2287.2406	2498.7	1615.4
957.2207	2288.689	2495.75	1616.2
957.3534	2290.1368	2508.3	1624.75
957.486	2291.5838	2494.8	1611.75
957.6186	2293.0302	2500.5	1617.9
957.7512	2294.4758	2493.75	1613
957.8838	2295.9206	2477.85	1594.15
958.0163	2297.3648	2478.55	1598.9
958.1488	2298.8082	2464.4	1584.15
958.2813	2300.251	2467.9	1589.65
958.4137	2301.693	2468.1	1586.45
958.5461	2303.1343	2468	1588.1
958.6785	2304.5748	2435.75	1555.65
958.8108	2306.0147	2442.95	1563.85
958.9432	2307.4538	2448.2	1565.95
959.0754	2308.8922	2443.15	1563.85
959.2077	2310.3299	2426.9	1548.5
959.3399	2311.7669	2430.45	1550.1
959.4721	2313.2031	2423.4	1542.75
959.6043	2314.6387	2425.4	1545.3
959.7365	2316.0735	2414.8	1533.55
959.8686	2317.5076	2405.7	1526.95
960.0006	2318.941	2405.2	1523.85
960.1327	2320.3737	2400.9	1520.25
960.2647	2321.8056	2394.25	1511.2
960.3967	2323.2369	2397.8	1516.2
960.5287	2324.6674	2384.3	1499.85
960.6606	2326.0972	2386.8	1504.5
960.7925	2327.5263	2377.3	1495.7
960.9244	2328.9547	2374.7	1493.75
961.0562	2330.3823	2368.4	1488.25
961.1881	2331.8092	2385.25	1500.8
961.3198	2333.2355	2357.95	1477
961.4516	2334.661	2356.15	1475.25
961.5833	2336.0858	2354.8	1473.8
961.715	2337.5098	2346.8	1465.6
961.8467	2338.9332	2336.2	1454.35
961.9783	2340.3558	2340.75	1454.75
962.1099	2341.7778	2340.5	1461.1
962.2415	2343.199	2335.35	1451.65
962.373	2344.6195	2317.7	1437.05
962.5045	2346.0393	2320.65	1442.15
962.636	2347.4583	2319.95	1437.5
962.7675	2348.8767	2308.9	1427.85
962.8989	2350.2943	2311.95	1428.55
963.0303	2351.7113	2310.95	1428.85
963.1617	2353.1275	2304.35	1420.65
963.293	2354.543	2302.35	1410.7
963.4243	2355.9578	2277.45	1395.9
963.5556	2357.3718	2282.2	1400.7
963.6868	2358.7852	2261.5	1377.05
963.818	2360.1978	2270.15	1387.35
963.9492	2361.6098	2276	1395.65
964.0803	2363.021	2261.65	1377
964.2114	2364.4315	2250.85	1370.1
964.3425	2365.8413	2249.6	1367.45
964.4736	2367.2504	2246.45	1366
964.6046	2368.6587	2239.9	1359.65
964.7356	2370.0664	2234.2	1354.45
964.8666	2371.4733	2236.95	1355.95
964.9975	2372.8795	2226.7	1346
965.1284	2374.285	2217.7	1337.75
965.2593	2375.6899	2202.75	1324.8
965.3901	2377.0939	2194.45	1314.65
965.5209	2378.4973	2190.75	1309.75
965.6517	2379.9	2177.95	1295.4
965.7825	2381.3019	2186.6	1304.85
965.9132	2382.7032	2176.9	1295.7
966.0439	2384.1037	2172.4	1292.95
966.1745	2385.5035	2173.45	1291.95
966.3051	2386.9027	2160.55	1281.5
966.4357	2388.3011	2166.6	1283
966.5663	2389.6987	2158.4	1277
966.6968	2391.0957	2147.5	1266.9
966.8273	2392.492	2145.3	1267.5
966.9578	2393.8876	2135.5	1252.05
967.0882	2395.2824	2127.1	1245.45
967.2186	2396.6765	2120.3	1238.45
967.349	2398.07	2121.4	1240.4
967.4793	2399.4627	2127.45	1244.45
967.6097	2400.8547	2120.3	1238.4
967.7399	2402.246	2117.2	1228.4
967.8702	2403.6366	2107.35	1225.05
968.0004	2405.0265	2091.05	1208.7
968.1306	2406.4156	2095.65	1208.55
968.2607	2407.8041	2096.3	1208.4
968.3909	2409.1918	2088.65	1205.3
968.521	2410.5789	2078.15	1193.95
968.651	2411.9652	2079.5	1194.9
968.781	2413.3508	2071.4	1190.4
968.911	2414.7358	2060.4	1176.55
969.041	2416.12	2049.3	1169.2
969.1709	2417.5035	2052.6	1169.5
969.3008	2418.8863	2051.15	1168.7
969.4307	2420.2684	2046.7	1165.05
969.5606	2421.6497	2036	1151.1
969.6904	2423.0304	2034.1	1153.8
969.8201	2424.4104	2029.1	1146.8
969.9499	2425.7896	2030.45	1147
970.0796	2427.1682	2013.3	1131.35
970.2093	2428.546	2013.1	1130.1
970.3389	2429.9232	2028	1144.8
970.4685	2431.2996	2007.55	1126.15
970.5981	2432.6753	2007.2	1126.6
970.7277	2434.0503	2008.05	1126.95
970.8572	2435.4246	1998.1	1116.05
970.9867	2436.7982	1993.5	1110.7
971.1161	2438.1711	1993.65	1113.15
971.2456	2439.5433	1997.6	1113.3
971.375	2440.9148	1985.45	1099.95
971.5043	2442.2856	1980.35	1098.9
971.6336	2443.6557	1984.15	1099.3
971.7629	2445.025	1967	1083.6
971.8922	2446.3937	1972.25	1089.55
972.0214	2447.7617	1969	1085.85
972.1506	2449.1289	1957.05	1075.45
972.2798	2450.4955	1971.95	1085.6
972.4089	2451.8613	1949.4	1069.5
972.538	2453.2265	1956.2	1075.5
972.6671	2454.5909	1957.8	1074.8
972.7961	2455.9546	1946.55	1066
972.9251	2457.3177	1946.1	1064.85
973.0541	2458.68	1940.15	1057.9
973.1831	2460.0416	1943.6	1062.95
973.312	2461.4025	1936.9	1053.05
973.4408	2462.7627	1943	1050.85
973.5697	2464.1222	1925.15	1045.75
973.6985	2465.4811	1927.55	1047.4
973.8273	2466.8392	1930.05	1050
973.956	2468.1966	1927.3	1044.6
974.0847	2469.5533	1912.85	1029.95
974.2134	2470.9093	1909.7	1027.6
974.3421	2472.2645	1906.45	1022.15
974.4707	2473.6191	1903.75	1021.45
974.5993	2474.973	1913.5	1032.2
974.7278	2476.3262	1910.7	1027.1
974.8563	2477.6787	1894.85	1011.55
974.9848	2479.0305	1886.75	1006.2
975.1132	2480.3816	1892.4	1007.8
975.2417	2481.7319	1886	1006.4
975.37	2483.0816	1862.5	980.7
975.4984	2484.4306	1878.85	996.95
975.6267	2485.7789	1869.25	990.9
975.755	2487.1264	1858.8	973.25
975.8833	2488.4733	1854.3	973.4
976.0115	2489.8195	1861.3	973.5
976.1397	2491.165	1854.75	969.85
976.2678	2492.5097	1844.3	960.9
976.3959	2493.8538	1847.75	967.9
976.524	2495.1972	1838.65	954
976.6521	2496.5398	1834.5	952.7
976.7801	2497.8818	1835.7	952.8
976.9081	2499.2231	1838.85	957
977.036	2500.5637	1831.65	949.15
977.164	2501.9035	1827.7	944.95
977.2918	2503.2427	1825.4	940
977.4197	2504.5812	1817.1	933.95
977.5475	2505.919	1810.85	928.45
977.6753	2507.256	1818.45	937.4
977.8031	2508.5924	1806.55	925
977.9308	2509.9281	1812.65	926.4
978.0585	2511.2631	1801.65	920
978.1861	2512.5974	1795.5	915.3
978.3137	2513.9309	1800.55	917.15
978.4413	2515.2638	1828.35	916.55
978.5689	2516.596	1787.9	908.35
978.6964	2517.9275	1781.6	897.05
978.8239	2519.2583	1785.4	901.2
978.9513	2520.5884	1779.9	896.55
979.0788	2521.9178	1770.35	888.4
979.2062	2523.2465	1765.7	885.55
979.3335	2524.5745	1760.2	877.3
979.4608	2525.9018	1765.4	882.85
979.5881	2527.2284	1752.75	872.35
979.7154	2528.5543	1756.05	876.5
979.8426	2529.8796	1748.2	865.3
979.9698	2531.2041	1746.75	863.35
980.0969	2532.5279	1754.75	874.05
980.224	2533.851	1740.1	858.3
980.3511	2535.1735	1739.2	856.2
980.4781	2536.4952	1735	854.1
980.6052	2537.8163	1739.25	856.35
980.7321	2539.1366	1731	851.05
980.8591	2540.4562	1722.1	840.55
980.986	2541.7752	1732.95	851.05
981.1129	2543.0935	1732.9	852.4
981.2397	2544.411	1733.3	850.7
981.3665	2545.7279	1724.55	842.6
981.4933	2547.0441	1726.65	845.25
981.62	2548.3596	1720.6	835.75
981.7467	2549.6744	1715	833.5
981.8734	2550.9885	1716.15	825.4
982.0001	2552.3019	1712.7	832.55
982.1267	2553.6146	1712.95	829.55
982.2532	2554.9266	1704.55	823.35
982.3798	2556.2379	1703	819.35
982.5063	2557.5485	1705.1	825.95
982.6327	2558.8585	1699.95	812.25
982.7592	2560.1677	1694.35	808.4
982.8856	2561.4762	1689.6	808.15
983.0119	2562.7841	1695.5	810.8
983.1383	2564.0913	1681	800.25
983.2646	2565.3977	1679.65	797.9
983.3908	2566.7035	1674.35	795.25
983.517	2568.0086	1692.05	806.7
983.6432	2569.313	1679.7	797
983.7694	2570.6167	1680.55	796.45
983.8955	2571.9197	1680.65	801.35
984.0216	2573.222	1678.4	792.15
984.1476	2574.5236	1665.25	783.25
984.2737	2575.8246	1671.4	787.8
984.3996	2577.1248	1674.15	792.3
984.5256	2578.4244	1666.1	785.3
984.6515	2579.7232	1661.55	779.75
984.7774	2581.0214	1686.7	781.4
984.9032	2582.3189	1665.2	783.75
985.029	2583.6157	1660.8	772.5
985.1548	2584.9118	1652.15	771.25
985.2806	2586.2072	1645.55	764.65
985.4063	2587.5019	1648.15	766
985.5319	2588.7959	1645.5	762.3
985.6576	2590.0893	1642.25	760.65
985.7832	2591.3819	1642.2	760.8
985.9087	2592.6739	1640.85	760.3
986.0343	2593.9652	1635.5	752.7
986.1597	2595.2557	1633.8	752
986.2852	2596.5456	1630.45	748.55
986.4106	2597.8348	1626.9	745.6
986.536	2599.1234	1616.9	735.1
986.6614	2600.4112	1614.05	732.4
986.7867	2601.6983	1616.05	731.9
986.912	2602.9848	1610.15	728.8
987.0372	2604.2705	1622.55	734.25
987.1624	2605.5556	1604.65	721.45
987.2876	2606.84	1600.55	720.35
987.4128	2608.1237	1605.55	723.35
987.5379	2609.4067	1595.5	714.5
987.6629	2610.689	1601.85	710.8
987.788	2611.9707	1590.95	703.75
987.913	2613.2516	1583.4	698.45
988.0379	2614.5319	1577.2	693.35
988.1629	2615.8115	1581.15	699.45
988.2878	2617.0903	1574.45	691.3
988.4126	2618.3685	1574.8	691.35
988.5375	2619.6461	1566.75	683.8
988.6622	2620.9229	1564.65	685.4
988.787	2622.199	1564.85	682.55
988.9117	2623.4745	1564.2	682.25
989.0364	2624.7493	1562.15	681.05
989.161	2626.0234	1565.35	683.65
989.2857	2627.2968	1556.6	672.7
989.4102	2628.5695	1557.05	674.1
989.5348	2629.8415	1554.4	673.75
989.6593	2631.1128	1546.8	663.4
989.7837	2632.3835	1547.4	666.65
989.9082	2633.6535	1536.8	655.25
990.0326	2634.9228	1537.1	657.6
990.1569	2636.1914	1523.3	644.5
990.2812	2637.4593	1537.65	650.4
990.4055	2638.7265	1526.8	645.8
990.5298	2639.9931	1518.5	637.75
990.654	2641.259	1524.75	641.35
990.7782	2642.5242	1526.4	643.75
990.9023	2643.7887	1518.65	635.7
991.0264	2645.0525	1518.4	635.85
991.1505	2646.3156	1518.25	634.65
991.2745	2647.5781	1511	631.05
991.3985	2648.8398	1502.05	623.65
991.5225	2650.1009	1509.5	618.8
991.6464	2651.3613	1497.55	616.25
991.7703	2652.6211	1499.5	619.1
991.8942	2653.8801	1494.95	615.35
992.018	2655.1385	1498.55	613.75
992.1418	2656.3961	1492.65	610.35
992.2655	2657.6531	1498.1	617.5
992.3892	2658.9094	1486.7	605.4
992.5129	2660.1651	1484.45	603.5
992.6366	2661.42	1487.8	606.2
992.7602	2662.6743	1490.65	608.5
992.8837	2663.9279	1486.8	605.25
993.0073	2665.1808	1478.85	597.15
993.1307	2666.433	1477.25	594.7
993.2542	2667.6846	1478.6	599.05
993.3776	2668.9354	1482.85	597.4
993.501	2670.1856	1470.15	590.25
993.6244	2671.4351	1467.5	587.6
993.7477	2672.6839	1470.55	588.4
993.8709	2673.9321	1463.45	585.7
993.9942	2675.1795	1466.6	584.55
994.1174	2676.4263	1464.05	583.75
994.2405	2677.6724	1457.25	574.6
994.3637	2678.9179	1454.85	573.1
994.4868	2680.1626	1457	574.5
994.6098	2681.4067	1456.55	575.7
994.7328	2682.6501	1445.4	565.7
994.8558	2683.8928	1447.05	567.8
994.9788	2685.1348	1441.85	561.35
995.1017	2686.3761	1439.35	557
995.2245	2687.6168	1438.5	557.9
995.3474	2688.8568	1440.35	560.1
995.4702	2690.0961	1435.05	556.35
995.5929	2691.3348	1436.85	557.65
995.7156	2692.5727	1431	549.8
995.8383	2693.81	1435.2	552.5
995.961	2695.0466	1428.75	550.3
996.0836	2696.2826	1427.6	546
996.2062	2697.5178	1438.4	538.05
996.3287	2698.7524	1425.1	545.55
996.4512	2699.9863	1415.9	532.75
996.5737	2701.2195	1416.25	537.65
996.6961	2702.452	1420.9	538.35
996.8185	2703.6839	1418.3	537.95
996.9408	2704.9151	1412.85	532.5
997.0631	2706.1456	1411.4	529.25
997.1854	2707.3755	1412.5	530.5
997.3077	2708.6046	1407.1	524.2
997.4299	2709.8331	1402.25	520.75
997.552	2711.0609	1394.8	513.8
997.6742	2712.2881	1396.9	514.6
997.7963	2713.5145	1385.7	502.15
997.9183	2714.7403	1393.05	512.2
998.0403	2715.9654	1395.95	514.6
998.1623	2717.1899	1405.65	510.85
998.2842	2718.4136	1383.35	501.9
998.4062	2719.6367	1383.2	502.6
998.528	2720.8591	1389.95	501.3
998.6498	2722.0809	1381.9	500.9
998.7716	2723.3019	1388.95	504.45
998.8934	2724.5223	1386.1	503.55
999.0151	2725.7421	1384.15	504.5
999.1368	2726.9611	1379.25	496.65
999.2584	2728.1795	1373.2	486.9
999.38	2729.3972	1373.5	494.05
999.5016	2730.6142	1376.95	483.85
999.6231	2731.8306	1365.55	485.6
999.7446	2733.0462	1357.3	475.2
999.8661	2734.2612	1365.25	479
999.9875	2735.4756	1355.95	474.55
1000.1089	2736.6892	1360.25	478.55
1000.2302	2737.9022	1346.5	468.1
1000.3515	2739.1145	1348.85	468.9
1000.4728	2740.3262	1352.4	463.75
1000.594	2741.5372	1346.85	466.85
1000.7152	2742.7475	1346.95	464.85
1000.8363	2743.9571	1342.9	460.75
1000.9575	2745.1661	1348.25	463.45
1001.0785	2746.3744	1335.85	452.7
1001.1996	2747.582	1332.8	452.7
1001.3206	2748.7889	1336.45	451.9
1001.4415	2749.9952	1330	448.5
1001.5625	2751.2008	1325.1	443.65
1001.6833	2752.4057	1337	453.95
1001.8042	2753.61	1326.55	445.1
1001.925	2754.8136	1328.75	446.1
1002.0458	2756.0165	1315.8	436.15
1002.1665	2757.2188	1322.7	442.2
1002.2872	2758.4204	1313.35	434.4
1002.4078	2759.6213	1313.7	429.9
1002.5285	2760.8215	1326.3	442.4
1002.649	2762.0211	1307.25	424.9
1002.7696	2763.22	1309.35	426.8
1002.8901	2764.4182	1304.1	420.1
1003.0106	2765.6158	1307.65	427.25
1003.131	2766.8127	1306	424.85
1003.2514	2768.009	1305.1	425.45
1003.3717	2769.2045	1293.75	411.2
1003.492	2770.3994	1302	420.15
1003.6123	2771.5936	1294.9	412.9
1003.7325	2772.7872	1300.2	418.55
1003.8527	2773.9801	1289.15	406.2
1003.9729	2775.1723	1305	408.25
1004.093	2776.3639	1286.05	404.6
1004.2131	2777.5548	1286.9	403.2
1004.3331	2778.745	1283.5	401.45
1004.4531	2779.9346	1280.5	398.9
1004.5731	2781.1235	1284.7	404.3
1004.693	2782.3117	1276.4	395.45
1004.8129	2783.4992	1276.15	396.65
1004.9328	2784.6861	1278.15	397.75
1005.0526	2785.8723	1278.8	398.25
1005.1723	2787.0579	1273.65	391.8
1005.2921	2788.2428	1271.3	390.15
1005.4118	2789.427	1271.6	392.15
1005.5314	2790.6106	1268.4	388.55
1005.651	2791.7935	1273.6	392.95
1005.7706	2792.9757	1260.9	382.4
1005.8902	2794.1573	1268.85	385.8
1006.0097	2795.3382	1257.55	377.75
1006.1291	2796.5184	1256.35	376.7
1006.2485	2797.698	1258.4	376.3
1006.3679	2798.8769	1255.95	375.15
1006.4873	2800.0551	1264.8	385.1
1006.6066	2801.2327	1253.55	371.5
1006.7258	2802.4096	1252.05	371.9
1006.8451	2803.5859	1247.4	364.9
1006.9642	2804.7615	1246.85	367.05
1007.0834	2805.9364	1243.15	362.45
1007.2025	2807.1106	1244.65	363.55
1007.3216	2808.2842	1243.65	362.6
1007.4406	2809.4572	1244.45	363.2
1007.5596	2810.6294	1247.95	367.3
1007.6785	2811.801	1247.9	367.3
1007.7975	2812.972	1244.7	364.7
1007.9163	2814.1423	1238.1	357.95
1008.0352	2815.3119	1247.8	366.95
1008.154	2816.4808	1246.9	368.75
1008.2727	2817.6491	1248.6	366.85
1008.3914	2818.8167	1240.6	361.15
1008.5101	2819.9837	1251.65	366.85
1008.6288	2821.15	1249.2	367.65
1008.7474	2822.3157	1246.9	365.2
1008.8659	2823.4807	1254.2	372.35
1008.9844	2824.645	1260.25	377.3
1009.1029	2825.8086	1263.1	384
1009.2214	2826.9716	1267.45	386.4
1009.3398	2828.134	1272.25	394.3
1009.4581	2829.2957	1273.7	393.4
1009.5764	2830.4567	1277.35	399.05
1009.6947	2831.617	1276.7	396.45
1009.813	2832.7767	1278.2	397.7
1009.9312	2833.9358	1279.65	399.15
1010.0493	2835.0941	1281.5	398.45
1010.1675	2836.2519	1268.65	386.55
1010.2855	2837.4089	1277.6	397
1010.4036	2838.5653	1265.35	387.1
1010.5216	2839.7211	1266.8	386.1
1010.6396	2840.8761	1264.5	381.2
1010.7575	2842.0306	1261.3	381.8
1010.8754	2843.1843	1258.85	379.6
1010.9932	2844.3374	1253.65	373.75
1011.111	2845.4899	1254.95	375.45
1011.2288	2846.6417	1257.05	377.55
1011.3465	2847.7928	1254.7	374.9
1011.4642	2848.9433	1261.15	382.7
1011.5818	2850.0931	1259.5	381
1011.6995	2851.2422	1255.25	375.3
1011.817	2852.3907	1257.8	377.7
1011.9345	2853.5385	1258.05	374.6
1012.052	2854.6857	1263.9	374.3
1012.1695	2855.8323	1249.7	370.7
1012.2869	2856.9781	1260.55	379.65
1012.4042	2858.1233	1256.4	375.85
1012.5216	2859.2679	1260.35	379.9
1012.6389	2860.4118	1260.5	380.7
1012.7561	2861.555	1262.4	378.3
1012.8733	2862.6976	1264.3	382.4
1012.9905	2863.8395	1263.2	383.25
1013.1076	2864.9808	1263.55	384.55
1013.2247	2866.1214	1258.1	378.75
1013.3417	2867.2614	1262.95	383.2
1013.4587	2868.4007	1260.3	377.1
1013.5757	2869.5393	1260.25	379.5
1013.6926	2870.6773	1258.85	374.9
1013.8095	2871.8146	1261.35	378.2
1013.9263	2872.9513	1258.9	375.95
1014.0431	2874.0874	1255.65	376.8
1014.1599	2875.2227	1260.35	379.3
1014.2766	2876.3574	1257.8	375.8
1014.3933	2877.4915	1261.15	382.95
1014.51	2878.6249	1259.8	381.15
1014.6266	2879.7577	1261.85	378.45
1014.7431	2880.8898	1269.35	378.75
1014.8596	2882.0212	1258.2	380.35
1014.9761	2883.152	1255.55	374.6
1015.0925	2884.2821	1262.9	384.15
1015.2089	2885.4116	1265.55	385.3
1015.3253	2886.5405	1259	379.15
1015.4416	2887.6686	1263.75	381.75
1015.5579	2888.7962	1251.85	374.3
1015.6741	2889.923	1249.2	370.7
1015.7903	2891.0493	1260.3	381.2
1015.9065	2892.1748	1254.9	374.8
1016.0226	2893.2997	1250.5	371.6
1016.1387	2894.424	1252.35	372.85
1016.2547	2895.5476	1252	374.25
1016.3707	2896.6706	1252.05	374.15
1016.4866	2897.7929	1248.05	368.2
1016.6025	2898.9145	1246.75	366.4
1016.7184	2900.0355	1249.9	368.45
1016.8342	2901.1559	1244.1	363.6
1016.95	2902.2756	1246.15	366.25
1017.0658	2903.3946	1240.45	361.05
1017.1815	2904.513	1248.85	366.35
1017.2971	2905.6308	1241.4	363.15
1017.4127	2906.7479	1240.7	360.95
1017.5283	2907.8643	1242.3	361.55
1017.6439	2908.9801	1231.45	352.25
1017.7594	2910.0953	1232.7	353.25
1017.8748	2911.2098	1242.85	358.05
1017.9902	2912.3236	1239.55	350.5
1018.1056	2913.4368	1236.3	355.45
1018.2209	2914.5494	1234.75	355.15
1018.3362	2915.6613	1228.45	341.7
1018.4515	2916.7725	1231.1	346.85
1018.5667	2917.8831	1225.6	346.05
1018.6819	2918.9931	1225.2	342.85
1018.797	2920.1024	1216.55	335.2
1018.9121	2921.211	1213.7	334.15
1019.0271	2922.319	1215.35	335.3
1019.1421	2923.4264	1213.85	335.45
1019.2571	2924.5331	1205.95	327.15
1019.372	2925.6391	1202.1	323.95
1019.4869	2926.7445	1209.8	330.3
1019.6017	2927.8493	1211.45	331.2
1019.7165	2928.9534	1209.05	331.15
1019.8313	2930.0569	1207.95	324.6
1019.946	2931.1597	1207.2	327.85
1020.0606	2932.2619	1206.85	327.15
1020.1753	2933.3634	1207.55	325.75
1020.2899	2934.4643	1219.95	334.35
1020.4044	2935.5645	1217.15	331.7
1020.5189	2936.6641	1215.1	333.7
1020.6334	2937.763	1206.4	327.4
1020.7478	2938.8613	1202.8	321.55
1020.8622	2939.959	1208.9	325
1020.9765	2941.056	1194.7	315.1
1021.0908	2942.1523	1192.65	312.2
1021.2051	2943.248	1182.4	300.75
1021.3193	2944.3431	1177.95	298.05
1021.4334	2945.4375	1173.8	292.75
1021.5476	2946.5313	1168.7	290.05
1021.6617	2947.6244	1163.9	282.35
1021.7757	2948.7169	1163.35	281.4
1021.8897	2949.8087	1153.45	273.05
1022.0037	2950.8999	1147.15	266.6
1022.1176	2951.9904	1145.7	265.85
1022.2315	2953.0803	1132.35	250.55
1022.3453	2954.1696	1135.45	255.45
1022.4591	2955.2582	1133.4	253.35
1022.5728	2956.3462	1128.7	248.9
1022.6865	2957.4335	1126.15	247.15
1022.8002	2958.5202	1129.1	248.4
1022.9138	2959.6062	1119.6	241.6
1023.0274	2960.6916	1123.9	244.35
1023.141	2961.7764	1122.25	240.9
1023.2545	2962.8605	1121.6	242.75
1023.3679	2963.9439	1122.25	240.1
1023.4813	2965.0267	1121.9	242
1023.5947	2966.1089	1142.95	239.9
1023.708	2967.1905	1108.45	231.25
1023.8213	2968.2714	1115.35	236.45
1023.9346	2969.3516	1115	235.9
1024.0478	2970.4312	1121.35	236.5
1024.1609	2971.5102	1107.45	229.45
1024.274	2972.5885	1107.6	229.35
1024.3871	2973.6662	1111.1	225.15
1024.5002	2974.7432	1110.7	230.9
1024.6132	2975.8196	1103.85	223
1024.7261	2976.8954	1107.05	230.3
1024.839	2977.9705	1107.7	229
1024.9519	2979.045	1102.45	223
1025.0647	2980.1188	1104.5	224.45
1025.1775	2981.192	1100.4	220.95
1025.2902	2982.2645	1100.65	220.45
1025.4029	2983.3364	1099.45	219.4
1025.5156	2984.4077	1097.3	217.4
1025.6282	2985.4783	1102.15	216.05
1025.7407	2986.5483	1090.6	211.15
1025.8532	2987.6177	1088	207.45
1025.9657	2988.6864	1092.45	211.85
1026.0782	2989.7545	1084.55	203.45
1026.1906	2990.8219	1085.2	205.8
1026.3029	2991.8887	1089.45	205.6
1026.4152	2992.9548	1084.15	204
1026.5275	2994.0204	1077.15	197.7
1026.6397	2995.0852	1075.25	195.95
1026.7519	2996.1495	1077.45	196.5
1026.864	2997.2131	1078.7	201.75
1026.9761	2998.276	1070.3	192.2
1027.0882	2999.3383	1071.8	192.05
1027.2002	3000.4	1066.9	187.2
1027.3122	3001.4611	1061.6	180.6
1027.4241	3002.5215	1058.95	179.65
1027.536	3003.5812	1060.05	181.1
1027.6478	3004.6404	1060.2	180.4
1027.7596	3005.6989	1060.5	178.25
1027.8714	3006.7567	1053.5	173.55
1027.9831	3007.8139	1077.3	175.35
1028.0947	3008.8705	1055.8	177.05
1028.2064	3009.9264	1058.2	174.2
1028.3179	3010.9818	1051.6	170.2
1028.4295	3012.0364	1048.95	169
1028.541	3013.0905	1050.1	170.45
1028.6524	3014.1439	1051.5	171
1028.7638	3015.1966	1047.35	169.9
1028.8752	3016.2487	1050.1	170.6
1028.9865	3017.3002	1053.9	166.55
1029.0978	3018.3511	1041.25	164.5
1029.209	3019.4013	1044.5	164.7
1029.3202	3020.4509	1039.15	163.05
1029.4314	3021.4998	1042.55	160.8
1029.5425	3022.5481	1044.95	166.7
1029.6535	3023.5958	1046.15	167.25
1029.7645	3024.6428	1044.15	164.1
1029.8755	3025.6892	1041	162.8
1029.9864	3026.735	1041.1	161.25
1030.0973	3027.7802	1038.75	158.25
1030.2082	3028.8247	1038.05	160.15
1030.319	3029.8685	1033.95	153.25
1030.4297	3030.9118	1038.65	158.8
1030.5404	3031.9544	1037.4	157.8
1030.6511	3032.9963	1035.6	155.8
1030.7617	3034.0376	1034.2	154.2
1030.8723	3035.0783	1034.9	153.45
1030.9829	3036.1184	1032.95	152.3
1031.0934	3037.1578	1033.5	153.5
1031.2038	3038.1966	1033.65	152.8
1031.3142	3039.2348	1031.1	155.85
1031.4246	3040.2723	1037.25	149.75
1031.5349	3041.3092	1025.2	147.55
1031.6452	3042.3455	1026.9	145.75
1031.7554	3043.3811	1027.75	146.45
1031.8656	3044.4161	1025.6	144.95
1031.9758	3045.4505	1028.45	147.6
1032.0859	3046.4842	1030.3	150.35
1032.1959	3047.5173	1026.15	148.15
1032.3059	3048.5498	1027.85	147.6
1032.4159	3049.5816	1029	149.1
1032.5258	3050.6128	1025.65	147.65
1032.6357	3051.6434	1027.05	146.95
1032.7455	3052.6734	1026.3	147.4
1032.8553	3053.7027	1027.45	147
1032.9651	3054.7314	1024.35	145.75
1033.0748	3055.7594	1022.55	145.15
1033.1845	3056.7868	1021.85	141.9
1033.2941	3057.8136	1021.65	144.05
1033.4037	3058.8398	1020.9	142.45
1033.5132	3059.8653	1018.55	140.2
1033.6227	3060.8902	1022.9	145.85
1033.7321	3061.9145	1020.05	140.65
1033.8415	3062.9381	1022.05	144.2
1033.9509	3063.9612	1034.2	138.4
1034.0602	3064.9835	1020.9	141.95
1034.1694	3066.0053	1018.4	136.2
1034.2787	3067.0264	1018	139.05
1034.3878	3068.0469	1016.75	136.3
1034.497	3069.0668	1018.35	136.15
1034.6061	3070.086	1015.65	137.05
1034.7151	3071.1046	1015.55	137.1
1034.8241	3072.1226	1017.45	137.35
1034.9331	3073.1399	1017.15	138.4
1035.042	3074.1567	1013.25	133.05
1035.1508	3075.1727	1012.65	131.65
1035.2597	3076.1882	1013.4	136.05
1035.3684	3077.203	1010.65	130.85
1035.4772	3078.2173	1010.6	130.9
1035.5859	3079.2308	1010.7	129.1
1035.6945	3080.2438	1009.7	128.55
1035.8031	3081.2561	1009.7	131
1035.9117	3082.2678	1002.75	121.8
1036.0202	3083.2789	1008.35	128.9
1036.1286	3084.2893	1002.05	122.15
1036.2371	3085.2991	1008.05	129.3
1036.3454	3086.3083	1008.8	123.9
1036.4538	3087.3169	1004.7	123.3
1036.562	3088.3248	1005.95	124.5
1036.6703	3089.3321	1004.4	123.65
1036.7785	3090.3388	1003	123.2
1036.8866	3091.3449	998.55	117.8
1036.9948	3092.3503	1002.9	121.1
1037.1028	3093.3551	997.25	119.6
1037.2108	3094.3593	999.65	122.7
1037.3188	3095.3629	1000.7	120.95
1037.4267	3096.3658	997.4	116.25
1037.5346	3097.3681	995.6	116.3
1037.6425	3098.3698	997.1	117.75
1037.7503	3099.3708	1003.2	117.85
1037.858	3100.3713	990.45	112.85
1037.9657	3101.3711	993	111.85
1038.0734	3102.3702	1126.5	111.1
1038.181	3103.3688	997.35	116.8
1038.2886	3104.3667	989.4	112
1038.3961	3105.364	989.25	109.3
1038.5036	3106.3607	991.05	110.5
1038.611	3107.3568	992.6	113.15
1038.7184	3108.3522	988.8	109.2
1038.8257	3109.347	991.15	112.05
1038.933	3110.3412	993.15	108.55
1039.0403	3111.3348	990.3	109.9
1039.1475	3112.3277	985.6	106.15
1039.2547	3113.32	981	101.5
1039.3618	3114.3117	986.4	108.4
1039.4689	3115.3028	983.5	103.6
1039.5759	3116.2932	983.65	101.6
1039.6829	3117.2831	991.2	105.65
1039.7898	3118.2723	984.05	104.75
1039.8967	3119.2608	981.7	100.5
1040.0035	3120.2488	979.8	98.8
1040.1103	3121.2361	979.5	98.75
1040.2171	3122.2229	976.65	96.25
1040.3238	3123.209	978.95	99.65
1040.4305	3124.1944	980.2	101.2
1040.5371	3125.1793	980.45	99.85
1040.6437	3126.1635	974.65	96.05
1040.7502	3127.1471	975	96.5
1040.8567	3128.1301	975.85	96.05
1040.9631	3129.1125	977.45	99.05
1041.0695	3130.0942	976.5	96.3
1041.1759	3131.0753	983.1	96.75
1041.2822	3132.0558	979.6	98.45
1041.3884	3133.0357	972.8	91
1041.4946	3134.015	977.6	97.35
1041.6008	3134.9936	973.75	93
1041.7069	3135.9716	996	96.55
1041.813	3136.949	972.4	95.2
1041.919	3137.9258	976.5	91.6
1042.025	3138.902	977.8	93.85
1042.1309	3139.8775	972.2	94.6
1042.2368	3140.8524	970.5	91.3
1042.3427	3141.8267	975.75	95.2
1042.4485	3142.8004	972.9	92.15
1042.5542	3143.7735	975.3	89.4
1042.6599	3144.7459	971.6	91.05
1042.7656	3145.7178	969.05	88.85
1042.8712	3146.689	968.45	90.05
1042.9768	3147.6596	972.75	91.4
1043.0823	3148.6295	971.45	92.25
1043.1878	3149.5989	967.95	89.55
1043.2932	3150.5676	967.75	90.1
1043.3986	3151.5357	962.8	85.7
1043.5039	3152.5032	962.5	83
1043.6092	3153.4701	963.95	86.8
1043.7145	3154.4364	967.8	84.2
1043.8197	3155.402	962.15	83.6
1043.9248	3156.367	966.15	84.3
1044.03	3157.3315	1001.05	82.05
1044.135	3158.2952	964.3	86.3
1044.24	3159.2584	964.6	85.9
1044.345	3160.221	961.85	83.2
1044.4499	3161.1829	960.8	82.8
1044.5548	3162.1442	959.4	81
1044.6596	3163.105	961.3	81.75
1044.7644	3164.065	957.6	78.75
1044.8692	3165.0245	964	81.75
1044.9739	3165.9834	961.25	83.7
1045.0785	3166.9416	958.85	79.65
1045.1831	3167.8993	961	81.1
1045.2877	3168.8563	958.8	78.55
1045.3922	3169.8127	955.05	75.8
1045.4966	3170.7684	956.95	78.9
1045.6011	3171.7236	957.35	77.4
1045.7054	3172.6782	950.25	72
1045.8098	3173.6321	958	78.95
1045.914	3174.5854	958	75.55
1046.0183	3175.5381	955.05	77.1
1046.1224	3176.4902	953.3	74.2
1046.2266	3177.4417	951.05	71.75
1046.3307	3178.3926	951.3	72.1
1046.4347	3179.3428	955	77.85
1046.5387	3180.2924	955.55	75.15
1046.6427	3181.2415	953.2	72.8
1046.7466	3182.1899	954.95	74.05
1046.8504	3183.1377	949.4	70.3
1046.9542	3184.0848	955.05	73.55
1047.058	3185.0314	948.8	68.25
1047.1617	3185.9773	946.95	66.3
1047.2654	3186.9227	953.05	72.55
1047.369	3187.8674	952.35	74.5
1047.4726	3188.8115	953.8	68.8
1047.5761	3189.755	949.75	71.9
1047.6796	3190.6979	950.2	72.05
1047.783	3191.6402	947	68.55
1047.8864	3192.5818	947.2	69.85
1047.9898	3193.5229	952.8	66.9
1048.0931	3194.4633	946.95	68
1048.1963	3195.4031	945.75	67.05
1048.2995	3196.3423	950.2	69.95
1048.4027	3197.2809	946.85	68.15
1048.5058	3198.2189	945.55	66.6
1048.6089	3199.1563	962.95	65.6
1048.7119	3200.0931	945.8	67.6
1048.8148	3201.0292	941.35	64.4
1048.9178	3201.9648	942.35	64.45
1049.0206	3202.8997	946.3	65.45
1049.1235	3203.834	944.7	64.45
1049.2262	3204.7677	943	65.45
1049.329	3205.7008	946.3	66.45
1049.4317	3206.6333	941.55	65.4
1049.5343	3207.5652	945.7	65
1049.6369	3208.4964	944.95	65.7
1049.7394	3209.4271	943.7	65.95
1049.8419	3210.3571	942.85	65.25
1049.9444	3211.2865	942.4	61
1050.0468	3212.2154	943.35	63.3
1050.1491	3213.1436	943.6	59.3
1050.2514	3214.0712	950.15	65.15
1050.3537	3214.9982	942	62.6
1050.4559	3215.9246	939.75	60.45
1050.5581	3216.8503	938.35	60.05
1050.6602	3217.7755	936.45	57
1050.7623	3218.7001	934.95	58.3
1050.8643	3219.624	937.8	58.25
1050.9663	3220.5473	938.05	58.6
1051.0682	3221.4701	936.6	53.65
1051.1701	3222.3922	937.75	58.05
1051.2719	3223.3137	938.15	59.9
1051.3737	3224.2346	937.15	58.1
1051.4754	3225.1549	937.5	59.45
1051.5771	3226.0746	936.05	57.95
1051.6788	3226.9937	937.35	58.35
1051.7804	3227.9121	935.05	57.3
1051.8819	3228.83	933.25	54.5
1051.9834	3229.7473	936.1	58.55
1052.0849	3230.6639	937.65	59.2
1052.1863	3231.5799	934.15	54.7
1052.2876	3232.4954	933.75	55.2
1052.3889	3233.4102	934.05	53.6
1052.4902	3234.3244	933.6	53.45
1052.5914	3235.238	931.6	51.5
1052.6926	3236.151	956.9	55.35
1052.7937	3237.0634	931.8	54.2
1052.8948	3237.9752	932.35	52
1052.9958	3238.8864	933.35	56.5
1053.0968	3239.797	931.3	51.25
1053.1977	3240.7069	931.6	51.05
1053.2986	3241.6163	933.65	52.4
1053.3994	3242.5251	927.45	51.2
1053.5002	3243.4332	930.05	52.75
1053.6009	3244.3408	930.4	52.65
1053.7016	3245.2477	926.5	47.7
1053.8022	3246.154	928.1	47.75
1053.9028	3247.0598	929.7	48.95
1054.0034	3247.9649	928.3	48.65
1054.1039	3248.8694	930.05	52.35
1054.2043	3249.7733	931.15	50.55
1054.3047	3250.6766	929	50.2
1054.4051	3251.5793	927.55	46.85
1054.5054	3252.4814	927.3	48
1054.6056	3253.3829	928.65	49.05
1054.7058	3254.2838	925.25	46.7
1054.806	3255.1841	925.55	45.15
1054.9061	3256.0838	924.5	45.25
1055.0061	3256.9829	923.15	45.55
1055.1062	3257.8814	927.7	45.25
1055.2061	3258.7792	927.55	47
1055.306	3259.6765	922.65	42.5
1055.4059	3260.5731	924.1	45.1
1055.5057	3261.4692	921	40.05
1055.6055	3262.3647	922.55	43.7
1055.7052	3263.2595	919.15	40.65
1055.8049	3264.1538	921.5	42.9
1055.9045	3265.0474	920.85	42.25
1056.0041	3265.9404	918.7	39.4
1056.1036	3266.8329	916.85	37.35
1056.2031	3267.7247	928.95	41.1
1056.3025	3268.616	916.6	38.3
1056.4019	3269.5066	913.25	33.8
1056.5013	3270.3966	920.1	37.1
1056.6005	3271.286	914.6	38.45
