Software Version:	3.9.2.0
Unit SN:	10000200
Spectrometer SN:	6960
Date:	3/6/2024 9:27:03 AM
Data Line Index:	25
Spectral Points:	2048
Integration time (ms):	125
Averages:	20
Delay (ms):	30
Sequence Number:	1
Processing:	dark subtract
Laser Power (mW):	305
Laser Current (mA):	818
Laser Diode Temp (C):	25
Laser Case Temp (C):	23.1
System Temp (C):	22.8
Spectrometer Temp (C):	20.6
CCD Temp (C):	-0.035
Secondary Temp (C):	20.006
Heatsink Temp (C):	17.587
CCDPCB Temp (C):	29.56
SecondaryPCB Temp (C):	25.113

Wavelength	RamanShift	Raw Counts	Dark Subtracted
787.061	30.1047	560.7	151.3
787.2016	32.3739	565.1	159.4
787.3422	34.6426	575.65	168.35
787.4828	36.9109	583.7	174.5
787.6235	39.1787	602.45	190.4
787.7642	41.4461	619.65	203.7
787.9049	43.7131	631.6	212.75
788.0456	45.9796	640.45	218
788.1863	48.2456	661.85	233.8
788.3271	50.5112	678.05	247.65
788.4679	52.7764	694.65	259.1
788.6087	55.0411	713.05	274.35
788.7496	57.3054	737.15	295.4
788.8904	59.5692	750.25	305.4
789.0313	61.8326	775.6	330.1
789.1722	64.0955	806.1	358.55
789.3132	66.3579	837.7	383.45
789.4541	68.6199	870.9	413.15
789.5951	70.8815	942.5	479.7
789.7361	73.1426	1092.95	627.15
789.8771	75.4032	1460.75	990.9
790.0181	77.6634	2367.85	1896.4
790.1592	79.9231	4608.95	4134.75
790.3003	82.1824	9478.1	8998.9
790.4414	84.4412	18144.25	17658.15
790.5825	86.6995	30211.4	29718.1
790.7237	88.9574	41370.25	40869.65
790.8648	91.2148	49788.1	49283.85
791.006	93.4717	52366.3	51860.25
791.1472	95.7282	53707.2	53198.1
791.2885	97.9842	54425.85	53914.65
791.4297	100.2398	54575.95	54063.8
791.571	102.4949	54641	54124.25
791.7123	104.7495	54925.65	54404.15
791.8536	107.0036	54566.95	54046.75
791.9949	109.2573	55442.5	54923.45
792.1363	111.5105	54976.55	54454.8
792.2777	113.7632	55290.4	54764.65
792.4191	116.0154	55639.95	55104.9
792.5605	118.2672	56245.1	55716.75
792.7019	120.5185	56304.4	55775
792.8434	122.7693	56354	55818.2
792.9849	125.0197	55546.65	55007.15
793.1264	127.2696	57214.45	56672
793.2679	129.519	56941.5	56394.65
793.4094	131.7679	57620.1	57072.9
793.551	134.0163	56243.9	55694.4
793.6926	136.2642	56955.6	56402.55
793.8342	138.5117	58000.5	57443.85
793.9758	140.7587	57662.95	57108.2
794.1175	143.0052	57653.15	57091
794.2591	145.2512	56870.25	56309.1
794.4008	147.4967	58036.6	57471.45
794.5425	149.7417	57816.95	57250.7
794.6842	151.9863	57818.45	57249.15
794.826	154.2304	57364.55	56790.85
794.9677	156.4739	57845.9	57264.75
795.1095	158.717	58630.05	58049.4
795.2513	160.9596	58169.75	57585.9
795.3931	163.2017	57529.7	56943.7
795.535	165.4433	58526.1	57937.7
795.6768	167.6844	58112.65	57520.45
795.8187	169.925	58684.8	58091.1
795.9606	172.1651	58216	57617.6
796.1025	174.4047	58657.05	58057.45
796.2445	176.6439	58564.15	57959.6
796.3864	178.8825	58349.15	57744.45
796.5284	181.1206	59306.05	58697.15
796.6704	183.3582	59153.85	58540.6
796.8124	185.5954	58958.2	58341.15
796.9544	187.832	59012.35	58392.7
797.0965	190.0681	58478.75	57854.85
797.2386	192.3037	59519.85	58896.35
797.3806	194.5388	60634.1	60007.4
797.5228	196.7734	58138.9	57511.35
797.6649	199.0075	60660.65	60032.05
797.807	201.2411	59660.4	59027.45
797.9492	203.4742	61141.2	60506.65
798.0914	205.7068	60636.05	59999.4
798.2336	207.9389	60622.9	59986.15
798.3758	210.1704	60489.35	59862.4
798.518	212.4015	61472.5	60852.75
798.6603	214.632	60361	59746.05
798.8025	216.862	61663.75	61050
798.9448	219.0915	60840.2	60222.55
799.0871	221.3205	60810.15	60190.1
799.2294	223.549	61938.25	61324.75
799.3718	225.777	61679	61059.6
799.5141	228.0044	62365.65	61739.8
799.6565	230.2314	61703.5	61074.05
799.7989	232.4578	61662.55	61030.85
799.9413	234.6837	61919.85	61279.8
800.0837	236.909	63866.8	63225.45
800.2262	239.1339	61131.9	60466.7
800.3687	241.3582	62452.3	61800.25
800.5111	243.582	62614.75	61931.45
800.6536	245.8053	62463.05	61794.3
800.7961	248.0281	62821.05	62158.1
800.9387	250.2503	63159	62493
801.0812	252.472	62158.15	61490.45
801.2238	254.6932	63017.35	62349.75
801.3664	256.9139	62542.75	61872.8
801.509	259.134	64229.9	63557.45
801.6516	261.3536	62574.95	61903.1
801.7942	263.5727	63355.4	62681.05
801.9369	265.7912	62909.45	62236.25
802.0795	268.0092	63195.5	62521.55
802.2222	270.2267	63556.55	62881.7
802.3649	272.4436	62606.5	61928.85
802.5076	274.6601	63607.25	62920.05
802.6504	276.8759	63950.75	63267.8
802.7931	279.0913	63381.25	62699.3
802.9359	281.3061	63894.15	63208.5
803.0787	283.5204	63782.9	63094.7
803.2215	285.7341	63851.1	63161.35
803.3643	287.9473	64338.75	63638.55
803.5071	290.16	63870	63177.65
803.6499	292.3721	63946.45	63259.7
803.7928	294.5837	63539.15	62849.9
803.9357	296.7947	62892.3	62202.4
804.0786	299.0052	64241.95	63550.9
804.2215	301.2152	63843.75	63150.7
804.3644	303.4246	64144.8	63452.25
804.5074	305.6334	64283.35	63590.85
804.6503	307.8418	63563.2	62866.9
804.7933	310.0495	63463.3	62765.85
804.9363	312.2568	63646.3	62948.8
805.0793	314.4635	63647.3	62947.1
805.2223	316.6696	64148.65	63444.05
805.3653	318.8752	64421.55	63708.3
805.5084	321.0802	62729.75	62022.95
805.6514	323.2847	63680.95	62972.9
805.7945	325.4887	63458.15	62749.85
805.9376	327.692	63283.4	62573.8
806.0807	329.8949	63732.35	63023.7
806.2238	332.0972	63455.7	62743.35
806.367	334.2989	63880.1	63164.3
806.5101	336.5001	64309.6	63593.8
806.6533	338.7007	63058.1	62340.35
806.7965	340.9008	63851.1	63135.35
806.9397	343.1003	64013	63292.35
807.0829	345.2992	64318.65	63597.9
807.2261	347.4976	63633.2	62910.5
807.3693	349.6955	63975	63249.85
807.5126	351.8927	63397.95	62671.85
807.6559	354.0895	63945.75	63206.15
807.7991	356.2856	63876.4	63145.85
807.9424	358.4812	64381.95	63650.95
808.0857	360.6763	63221.7	62488.35
808.2291	362.8707	64458.4	63724
808.3724	365.0646	63721.4	62983.5
808.5158	367.258	63737.6	62998.7
808.6591	369.4508	62962.4	62218.55
808.8025	371.643	64243.8	63502.7
808.9459	373.8346	63674.75	62932.25
809.0893	376.0257	63873.55	63130.75
809.2327	378.2162	63705.35	62962.2
809.3762	380.4062	62669.2	61927
809.5196	382.5956	63695.85	62957.5
809.6631	384.7844	63443	62708.5
809.8066	386.9726	63957.8	63220.55
809.9501	389.1603	63781.7	63044.7
810.0936	391.3474	63165	62380.8
810.2371	393.5339	63738.75	62996.9
810.3806	395.7199	62648.9	61911.8
810.5241	397.9052	62916.1	62176.6
810.6677	400.09	63221.15	62480
810.8113	402.2743	64045.45	63300.9
810.9548	404.4579	62858.85	62114.6
811.0984	406.641	63064.7	62315.95
811.2421	408.8235	63306.35	62556.65
811.3857	411.0054	63455.65	62704.25
811.5293	413.1868	63562.85	62810.7
811.673	415.3675	63079.65	62320.7
811.8166	417.5477	63120.75	62362.15
811.9603	419.7273	63191.9	62429.15
812.104	421.9064	62987.05	62221.35
812.2477	424.0848	63025.5	62265.35
812.3914	426.2627	63784.85	63024.05
812.5351	428.4399	62774.15	62009.25
812.6788	430.6166	61695.2	60926.55
812.8226	432.7928	63005.95	62236.65
812.9663	434.9683	62143.75	61374.9
813.1101	437.1432	62024.45	61256.1
813.2539	439.3176	62980.1	62211.85
813.3977	441.4914	61561.3	60792.3
813.5415	443.6645	61816.95	61046.2
813.6853	445.8371	62025.95	61255.3
813.8291	448.0091	61436.6	60667.15
813.973	450.1806	61037.8	60265.85
814.1168	452.3514	61390.6	60615.25
814.2607	454.5216	60643.65	59860.35
814.4046	456.6913	61458.35	60682.6
814.5485	458.8603	61561.65	60788.1
814.6924	461.0288	60508.45	59733.8
814.8363	463.1967	61468	60693
814.9802	465.3639	61210.85	60434.25
815.1241	467.5306	59685.4	58908.3
815.2681	469.6967	60607.85	59829.8
815.412	471.8622	61180.9	60403.45
815.556	474.0271	60441.2	59664.55
815.7	476.1914	60650	59868.95
815.844	478.3551	60716.9	59938.2
815.988	480.5182	61668.45	60887.3
816.132	482.6807	60176.15	59396.3
816.276	484.8426	60207.7	59429.2
816.4201	487.0039	61284.75	60504.3
816.5641	489.1647	61176.15	60394.3
816.7082	491.3248	59766.1	58983.4
816.8522	493.4843	61161.95	60379.35
816.9963	495.6432	61205	60419.85
817.1404	497.8015	59772.65	58985.05
817.2845	499.9592	60571.65	59784.95
817.4286	502.1163	60478.5	59690.75
817.5727	504.2728	60448.75	59659.25
817.7168	506.4287	60357.4	59570.5
817.861	508.5839	59803.45	59014.8
818.0051	510.7386	60369.05	59580.8
818.1493	512.8927	60463.7	59664.8
818.2935	515.0461	60181.2	59385.65
818.4377	517.199	60836.8	60043.5
818.5818	519.3512	60075.8	59282.75
818.726	521.5029	60030.6	59231.55
818.8703	523.6539	60218.65	59424.95
819.0145	525.8043	59270.35	58474.95
819.1587	527.9541	60099.8	59302.6
819.303	530.1033	59939.2	59142.1
819.4472	532.2519	59438.7	58642.4
819.5915	534.3999	60100.05	59300.65
819.7357	536.5472	60423.35	59625.15
819.88	538.694	58980.2	58181.75
820.0243	540.8401	59599.85	58801.5
820.1686	542.9856	59571.7	58769.95
820.3129	545.1305	60070.8	59268.45
820.4572	547.2748	59212.2	58411.55
820.6016	549.4185	59248.55	58446.2
820.7459	551.5615	59980	59180.1
820.8902	553.704	59691.7	58890.1
821.0346	555.8458	59157.1	58357.05
821.1789	557.987	59322.3	58522.05
821.3233	560.1276	59595.3	58794
821.4677	562.2675	59131.15	58328.8
821.6121	564.4069	59284.85	58481.9
821.7565	566.5456	59788.75	58988
821.9009	568.6837	58732.65	57926.65
822.0453	570.8212	59198.2	58393.6
822.1897	572.958	58061.35	57254.3
822.3342	575.0942	59125.5	58320.5
822.4786	577.2299	58425.2	57617.7
822.6231	579.3648	58231.05	57423.85
822.7675	581.4992	58001.8	57195.8
822.912	583.6329	57888.1	57081.8
823.0565	585.766	57838.4	57031.3
823.201	587.8985	58150.15	57342.25
823.3454	590.0304	57032.15	56198
823.4899	592.1616	57906.95	57093.55
823.6345	594.2922	57454.5	56642.8
823.779	596.4222	57012.8	56199.4
823.9235	598.5515	57109	56296.65
824.068	600.6802	57340.3	56529.95
824.2126	602.8083	56599.5	55787.65
824.3571	604.9358	56503.8	55690.8
824.5017	607.0626	57069.85	56256.05
824.6462	609.1888	56192.05	55377.4
824.7908	611.3144	56723.8	55908.3
824.9354	613.4393	56283.15	55469.8
825.08	615.5636	56016.05	55199.3
825.2246	617.6873	56410.15	55594.7
825.3692	619.8103	55929	55110.1
825.5138	621.9327	56488.35	55667.9
825.6584	624.0544	56585.75	55766.8
825.803	626.1756	56159.8	55342.3
825.9477	628.2961	56115.95	55297.75
826.0923	630.4159	55676.35	54857.5
826.237	632.5351	55599.75	54779.2
826.3816	634.6537	56544.55	55723.7
826.5263	636.7716	55445.35	54622.4
826.6709	638.8889	55684.9	54864.85
826.8156	641.0056	55549.15	54728.1
826.9603	643.1216	55766.75	54944.65
827.105	645.237	55929.7	55102.9
827.2497	647.3518	55298.75	54475.4
827.3944	649.4659	55396.15	54571.9
827.5391	651.5793	55412.7	54590
827.6838	653.6922	55443.95	54621.65
827.8285	655.8043	54834.25	54009.25
827.9733	657.9159	55742.8	54917.35
828.118	660.0268	54170.65	53343.6
828.2627	662.137	54842.8	54015.6
828.4075	664.2466	54996.45	54166.95
828.5522	666.3556	54681.55	53853.3
828.697	668.4639	54803.55	53971.25
828.8418	670.5716	54594.65	53767.5
828.9865	672.6786	54772.05	53942.25
829.1313	674.785	54140.75	53311.6
829.2761	676.8907	54221.9	53390.85
829.4209	678.9958	54255.9	53427.45
829.5657	681.1002	54400.8	53569.45
829.7105	683.204	53869.45	53035.85
829.8553	685.3072	53734.9	52901.5
830.0001	687.4097	53766.2	52935.95
830.1449	689.5115	53752.95	52918.7
830.2898	691.6127	54036.2	53204.5
830.4346	693.7132	53557.85	52726.2
830.5794	695.8131	53722.1	52869.25
830.7243	697.9123	53739.15	52906.65
830.8691	700.0109	53792.3	52961.05
831.014	702.1089	53174.6	52342.6
831.1588	704.2061	53408.1	52575.6
831.3037	706.3028	53390.85	52555.05
831.4486	708.3987	53357.4	52519.8
831.5935	710.4941	53179.05	52341.55
831.7383	712.5887	53382.1	52544.4
831.8832	714.6827	53205.2	52367.85
832.0281	716.7761	53304.75	52469
832.173	718.8688	53197.35	52359.05
832.3179	720.9608	52837.4	51996.6
832.4628	723.0522	52974.35	52133.85
832.6077	725.1429	52591.95	51754.15
832.7527	727.233	53306.85	52467.8
832.8976	729.3224	52361.15	51522.9
833.0425	731.4112	52595.75	51755.15
833.1874	733.4993	52547.55	51705.6
833.3324	735.5867	52443.8	51601.45
833.4773	737.6735	52263.85	51423.5
833.6222	739.7596	52021.3	51179.95
833.7672	741.845	51990.6	51150.15
833.9122	743.9298	51998.55	51156.25
834.0571	746.014	51787.75	50947.3
834.2021	748.0974	51666	50824.65
834.347	750.1802	51774.2	50930.3
834.492	752.2624	51275	50433.5
834.637	754.3439	51187.15	50344.55
834.782	756.4247	51213.3	50358.9
834.9269	758.5048	50863.75	50020
835.0719	760.5843	50849.65	50005.9
835.2169	762.6631	50720.8	49875.7
835.3619	764.7413	50596.15	49753.85
835.5069	766.8188	50661.55	49815.65
835.6519	768.8956	50562.9	49719.75
835.7969	770.9718	50558.9	49714.75
835.9419	773.0473	50396.1	49551.85
836.0869	775.1221	50198.65	49354.5
836.232	777.1962	50021.4	49176.65
836.377	779.2697	49919	49072.45
836.522	781.3426	49908.3	49053.8
836.667	783.4147	49866.35	49018.75
836.8121	785.4862	49815.2	48971.8
836.9571	787.557	49638.2	48790.55
837.1021	789.6271	49594.85	48749.4
837.2472	791.6966	49350	48503.3
837.3922	793.7654	49074.55	48228.6
837.5373	795.8335	49128.1	48279.75
837.6823	797.901	48948.55	48101.65
837.8274	799.9678	48839.8	47991.25
837.9724	802.0339	48715.15	47867.75
838.1175	804.0993	48714.25	47857.95
838.2626	806.1641	48502.25	47650.5
838.4076	808.2282	48381.65	47531.85
838.5527	810.2916	48360.05	47510.15
838.6978	812.3544	48312.2	47466.1
838.8428	814.4164	48150.55	47302.65
838.9879	816.4778	48247.15	47397.05
839.133	818.5385	48015.15	47166.25
839.2781	820.5986	48029.85	47180
839.4232	822.658	48071.85	47219.75
839.5682	824.7166	47853.45	47002.9
839.7133	826.7747	47964.45	47112.35
839.8584	828.832	47892.65	47042.2
840.0035	830.8886	47766	46914.2
840.1486	832.9446	47779.5	46926.8
840.2937	834.9999	47572.35	46721.45
840.4388	837.0545	47476.25	46623.5
840.5839	839.1085	47410.2	46558.3
840.729	841.1618	47286.85	46431.7
840.8741	843.2143	47068.15	46216.5
841.0192	845.2662	46922.1	46067.4
841.1643	847.3175	46908.85	46057.85
841.3095	849.368	46722.8	45870.3
841.4546	851.4179	46687.9	45836.5
841.5997	853.467	46470.05	45616.5
841.7448	855.5155	46496.4	45642.6
841.8899	857.5633	46385.3	45532.3
842.0351	859.6105	46225.85	45372.45
842.1802	861.6569	46237.75	45382.7
842.3253	863.7027	46123.55	45266.1
842.4704	865.7478	46072.75	45217.35
842.6156	867.7922	45955.35	45100.55
842.7607	869.8359	45842.45	44986.9
842.9058	871.8789	45817.95	44961.45
843.0509	873.9212	45757.95	44872.45
843.1961	875.9629	45561.7	44706.9
843.3412	878.0039	45581.95	44726.9
843.4863	880.0441	45509.7	44654.6
843.6315	882.0837	45551.75	44696.6
843.7766	884.1226	45486.9	44631.5
843.9218	886.1609	45437.7	44581.9
844.0669	888.1984	45450.3	44594.55
844.212	890.2352	45546.9	44690.05
844.3572	892.2714	45346.4	44483.75
844.5023	894.3069	45340.2	44483.25
844.6475	896.3416	45153.25	44294.55
844.7926	898.3757	45063.75	44206
844.9377	900.4091	45008.15	44149.85
845.0829	902.4418	44924.8	44059
845.228	904.4739	44664.8	43805.7
845.3732	906.5052	44664.2	43804.1
845.5183	908.5358	44638.25	43781.45
845.6635	910.5658	44518.45	43657.05
845.8086	912.595	44444.3	43584.4
845.9538	914.6236	44267.8	43409.75
846.0989	916.6515	44257.8	43399.65
846.2441	918.6786	44064.3	43201.65
846.3892	920.7051	44031.7	43169.65
846.5344	922.7309	44089.55	43229.95
846.6795	924.756	43875.2	43013.9
846.8246	926.7804	43924.5	43062.35
846.9698	928.8041	43546.95	42686.65
847.1149	930.8272	43603.2	42741.25
847.2601	932.8495	43322.95	42458.85
847.4052	934.8711	43341.3	42480.85
847.5504	936.892	43157.45	42294.9
847.6955	938.9123	43026.75	42164.35
847.8407	940.9318	42980.65	42118.9
847.9858	942.9506	42816.75	41953.25
848.131	944.9688	42633.15	41772
848.2761	946.9862	42597.1	41737.2
848.4213	949.003	42330.7	41467.4
848.5664	951.019	42225.55	41361.95
848.7115	953.0344	42124.9	41262.3
848.8567	955.0491	42044.5	41181.5
849.0018	957.063	42045.2	41183.1
849.147	959.0763	42092.9	41230.65
849.2921	961.0888	41884.1	41020.55
849.4373	963.1007	41848.3	40985.45
849.5824	965.1119	41779.65	40917.85
849.7275	967.1223	41711.55	40850.25
849.8727	969.1321	41665.75	40805.35
850.0178	971.1412	41576.4	40713.8
850.1629	973.1495	41412.1	40548.85
850.3081	975.1572	41415.1	40504.15
850.4532	977.1641	41366.05	40502.45
850.5983	979.1704	41148.2	40282.95
850.7435	981.1759	41041.1	40173.85
850.8886	983.1808	41030.1	40165.25
851.0337	985.1849	40908.95	40036.7
851.1788	987.1884	40822.95	39955.1
851.324	989.1911	40738.65	39872.2
851.4691	991.1932	40658.7	39792.55
851.6142	993.1945	40495.15	39630.25
851.7593	995.1951	40285.25	39420
851.9045	997.1951	40271.7	39400.9
852.0496	999.1943	40093.2	39228.05
852.1947	1001.1928	39896.95	39031.75
852.3398	1003.1906	39799.25	38935.25
852.4849	1005.1877	39741.75	38873.6
852.63	1007.1841	39526.9	38661.45
852.7751	1009.1798	39423.4	38558.5
852.9202	1011.1748	39302.05	38437.15
853.0653	1013.1691	39161.2	38295.7
853.2104	1015.1627	39019.4	38153.05
853.3555	1017.1556	38675.85	37810.55
853.5006	1019.1477	38660.35	37792.2
853.6457	1021.1392	38436.55	37571.2
853.7908	1023.1299	38344.4	37478.95
853.9359	1025.12	38180.15	37311.35
854.081	1027.1093	38003.4	37139.8
854.2261	1029.0979	37956.1	37091.05
854.3712	1031.0859	37715.15	36850.3
854.5163	1033.0731	37656.7	36789.55
854.6613	1035.0596	37543.7	36676.7
854.8064	1037.0454	37407.45	36539.85
854.9515	1039.0304	37326.7	36459.3
855.0965	1041.0148	37134.45	36267.25
855.2416	1042.9985	36983	36112.75
855.3867	1044.9814	36991.65	36125.55
855.5317	1046.9636	36814	35944.15
855.6768	1048.9452	36627.7	35759.75
855.8219	1050.926	36672.2	35806.9
855.9669	1052.9061	36538.8	35673.2
856.112	1054.8855	36467.35	35597.6
856.257	1056.8642	36395.3	35525.2
856.4021	1058.8421	36355.6	35481.9
856.5471	1060.8194	36218.65	35349.3
856.6921	1062.7959	36172.8	35303.65
856.8372	1064.7717	36134.55	35265.15
856.9822	1066.7469	36034.35	35165.1
857.1272	1068.7213	35943.2	35072.8
857.2723	1070.695	35887.1	35018.9
857.4173	1072.6679	35714.95	34845.6
857.5623	1074.6402	35691.6	34823.75
857.7073	1076.6117	35722	34845.3
857.8523	1078.5826	35658.45	34788.75
857.9973	1080.5527	35570.6	34697.35
858.1423	1082.5221	35396.25	34526.75
858.2873	1084.4908	35313	34443.75
858.4323	1086.4587	35148.5	34278
858.5773	1088.426	35153.4	34282.05
858.7223	1090.3925	34994.1	34117.65
858.8673	1092.3584	34969.7	34098.3
859.0123	1094.3235	34778.2	33908.25
859.1573	1096.2879	34701.2	33829.75
859.3022	1098.2515	34670.4	33800.6
859.4472	1100.2145	34652.15	33781.8
859.5922	1102.1767	34539.55	33666.75
859.7371	1104.1382	34542.25	33671.8
859.8821	1106.099	34474.3	33601.05
860.027	1108.0591	34432.9	33562.15
860.172	1110.0185	34349.5	33477.8
860.3169	1111.9771	34329.25	33458.6
860.4619	1113.9351	34208.05	33337.7
860.6068	1115.8923	34176	33304.5
860.7517	1117.8488	34144.2	33269.45
860.8967	1119.8045	33992.5	33121.9
861.0416	1121.7596	33907.45	33036.2
861.1865	1123.7139	33672.25	32800.95
861.3314	1125.6675	33539.75	32667.4
861.4763	1127.6204	33556.65	32684.2
861.6212	1129.5726	33449.7	32575.05
861.7661	1131.524	33442.85	32572.05
861.911	1133.4748	33389.45	32517.75
862.0559	1135.4248	33240.15	32365.9
862.2008	1137.3741	33090.9	32218.5
862.3457	1139.3226	33011.7	32137.9
862.4905	1141.2705	33043.25	32171.1
862.6354	1143.2176	32831.15	31952.5
862.7803	1145.164	32844.05	31970.2
862.9251	1147.1097	32762.05	31889.55
863.07	1149.0546	32726.95	31854.5
863.2148	1150.9989	32681.15	31805.2
863.3597	1152.9424	32635.25	31761.6
863.5045	1154.8852	32532.95	31660.3
863.6493	1156.8272	32506.75	31634.3
863.7942	1158.7686	32498.4	31619.05
863.939	1160.7092	32395.15	31522.8
864.0838	1162.6491	32256.7	31381.65
864.2286	1164.5883	32226.55	31353.25
864.3734	1166.5267	32148.65	31273.8
864.5182	1168.4644	32169.75	31295.25
864.663	1170.4014	32129.55	31250.7
864.8078	1172.3377	32160.6	31289.4
864.9526	1174.2732	32114.75	31242.9
865.0974	1176.2081	32155.95	31282.75
865.2421	1178.1421	32162.8	31287.3
865.3869	1180.0755	32273.55	31402.65
865.5317	1182.0082	32176.1	31303.45
865.6764	1183.9401	32174.45	31301.05
865.8212	1185.8713	31978.55	31104.6
865.9659	1187.8017	31851.75	30978.2
866.1106	1189.7315	31767.5	30893.95
866.2554	1191.6605	31492.1	30616.95
866.4001	1193.5888	31281.45	30407
866.5448	1195.5163	31254.35	30381.95
866.6895	1197.4432	31123.6	30246.95
866.8342	1199.3693	31016.05	30142.95
866.9789	1201.2947	30866.55	29989.05
867.1236	1203.2193	30730.95	29854.9
867.2683	1205.1432	30748.55	29874.05
867.413	1207.0664	30672.35	29797.85
867.5576	1208.9889	30609.4	29730.55
867.7023	1210.9106	30382.5	29507.35
867.847	1212.8316	30292.9	29417.35
867.9916	1214.7519	30284.25	29399.65
868.1363	1216.6715	30189.3	29315.05
868.2809	1218.5903	30184.85	29309.75
868.4255	1220.5084	30083.85	29208.4
868.5701	1222.4257	30109.2	29234
868.7148	1224.3424	29941.35	29068.7
868.8594	1226.2583	29876.15	28993.65
869.004	1228.1735	29820.15	28945.9
869.1486	1230.0879	29705.1	28830.9
869.2932	1232.0016	29667.35	28793.65
869.4377	1233.9146	29656.75	28778.25
869.5823	1235.8269	29616.45	28740
869.7269	1237.7384	29627.25	28751.75
869.8715	1239.6492	29440.75	28565.25
870.016	1241.5592	29448.55	28571.1
870.1606	1243.4686	29396.1	28519.8
870.3051	1245.3772	29365.35	28490.8
870.4496	1247.285	29396.25	28519.5
870.5941	1249.1922	29369.05	28492.8
870.7387	1251.0986	29388.2	28513.1
870.8832	1253.0042	29302.1	28425.35
871.0277	1254.9092	29351.55	28476.15
871.1722	1256.8134	29368.85	28493.65
871.3167	1258.7169	29444.3	28568.4
871.4611	1260.6196	29381.95	28504.4
871.6056	1262.5216	29415.4	28538.6
871.7501	1264.4229	29399.25	28523.6
871.8945	1266.3234	29361.75	28484.85
872.039	1268.2232	29223.55	28347.1
872.1834	1270.1223	29149.8	28271.7
872.3278	1272.0207	29075.4	28197.45
872.4723	1273.9183	29006.95	28124.7
872.6167	1275.8151	28916.7	28039.8
872.7611	1277.7113	28918.9	28041.3
872.9055	1279.6067	28882.7	28005.05
873.0499	1281.5014	28963.25	28084.25
873.1943	1283.3953	29085.45	28205.7
873.3386	1285.2885	29276.55	28399.3
873.483	1287.181	29345.3	28469.15
873.6274	1289.0727	29480.7	28605.3
873.7717	1290.9637	29385.75	28509.2
873.9161	1292.854	29269.8	28392.25
874.0604	1294.7435	29047.05	28168.9
874.2047	1296.6323	28891.15	28013.45
874.349	1298.5204	28786.1	27904.7
874.4933	1300.4077	28621.2	27742.95
874.6376	1302.2943	28533.05	27655.4
874.7819	1304.1802	28551.35	27672.4
874.9262	1306.0653	28446.5	27567.05
875.0705	1307.9497	28360.65	27483.4
875.2147	1309.8333	28316.1	27440.2
875.359	1311.7162	28317.55	27439.8
875.5032	1313.5984	28242.5	27363.25
875.6475	1315.4798	28139.65	27252.55
875.7917	1317.3605	28053.95	27173.8
875.9359	1319.2405	28150.15	27268.6
876.0801	1321.1197	28032	27151.6
876.2243	1322.9982	27934.4	27050.35
876.3685	1324.876	27941.3	27063.2
876.5127	1326.753	27823.4	26946.15
876.6569	1328.6293	27745.75	26868.45
876.801	1330.5048	27631.85	26751.5
876.9452	1332.3796	27422.5	26546.15
877.0893	1334.2537	27403.25	26498.65
877.2335	1336.127	27259.4	26380.65
877.3776	1337.9996	27236.5	26358.05
877.5217	1339.8714	27134	26255.55
877.6658	1341.7426	27110.7	26188.05
877.8099	1343.6129	27054.1	26176.15
877.954	1345.4826	26956.25	26077.5
878.0981	1347.3515	26952.4	26071.95
878.2422	1349.2196	26869.2	25990.85
878.3862	1351.087	26913.85	26034.65
878.5303	1352.9537	26866.8	25988.5
878.6743	1354.8197	26851.45	25971.35
878.8184	1356.6849	26852.05	25973.2
878.9624	1358.5493	26731.55	25854.4
879.1064	1360.4131	26715.65	25836.95
879.2504	1362.276	26674.2	25795.75
879.3944	1364.1383	26660.45	25782.05
879.5384	1365.9998	26607.6	25723.9
879.6823	1367.8606	26545.1	25668.05
879.8263	1369.7206	26455	25573.75
879.9702	1371.5799	26424.9	25545.4
880.1142	1373.4384	26378.9	25500.2
880.2581	1375.2962	26344.5	25464.45
880.402	1377.1533	26135.5	25258.4
880.5459	1379.0096	26017.95	25140.65
880.6898	1380.8652	25967.65	25088.05
880.8337	1382.7201	25856.6	24978.4
880.9776	1384.5742	25724.4	24845.75
881.1215	1386.4275	25590.25	24710.45
881.2653	1388.2802	25528.7	24651.4
881.4092	1390.132	25433.4	24555.05
881.553	1391.9832	25389.85	24510.65
881.6968	1393.8336	25257.35	24377.3
881.8406	1395.6832	25225.8	24344.4
881.9844	1397.5322	25087.55	24209.8
882.1282	1399.3803	25047.4	24160.6
882.272	1401.2278	24932	24053.55
882.4158	1403.0745	24881.8	24004.4
882.5595	1404.9204	24697.8	23818.45
882.7033	1406.7656	24687.75	23808.25
882.847	1408.6101	24603.65	23724.4
882.9908	1410.4538	24529.75	23651.8
883.1345	1412.2968	24428.5	23549.3
883.2782	1414.139	24339.7	23459.8
883.4219	1415.9805	24320.65	23439.5
883.5656	1417.8213	24250.1	23349.65
883.7092	1419.6613	24208.15	23329.2
883.8529	1421.5006	24166.65	23285.35
883.9965	1423.3391	24113.85	23233.2
884.1402	1425.1769	24083.85	23202.9
884.2838	1427.0139	24107.2	23226.75
884.4274	1428.8502	24120.3	23237.7
884.571	1430.6858	24160.4	23279.9
884.7146	1432.5206	24065.65	23187.2
884.8582	1434.3547	24044.4	23163
885.0018	1436.188	23973.05	23092.8
885.1453	1438.0206	23923.45	23040.8
885.2889	1439.8524	23859.45	22978.4
885.4324	1441.6835	23854.05	22973.4
885.5759	1443.5139	23798.85	22914.8
885.7194	1445.3435	23712.25	22832.4
885.8629	1447.1724	23721.65	22842.5
886.0064	1449.0005	23678.75	22799.65
886.1499	1450.8279	23637.1	22754
886.2933	1452.6545	23590.35	22710
886.4368	1454.4804	23598.3	22718.55
886.5802	1456.3056	23562.65	22675.25
886.7237	1458.13	23460.05	22580.75
886.8671	1459.9536	23445.95	22565.4
887.0105	1461.7766	23350.9	22471.7
887.1539	1463.5987	23286.95	22405.65
887.2972	1465.4202	23226.85	22348.6
887.4406	1467.2409	23111.6	22232.8
887.584	1469.0608	23093.1	22213.95
887.7273	1470.88	23017.7	22136.7
887.8706	1472.6984	22968.65	22089.8
888.0139	1474.5161	22853.6	21973.15
888.1572	1476.3331	22793.5	21913
888.3005	1478.1493	22751.6	21871.5
888.4438	1479.9648	22719.65	21840.75
888.5871	1481.7795	22644.1	21763.4
888.7303	1483.5935	22647.9	21766.75
888.8736	1485.4067	22599.8	21719.2
889.0168	1487.2192	22592.1	21712.2
889.16	1489.031	22589.1	21708.55
889.3032	1490.842	22516.5	21635.4
889.4464	1492.6522	22517	21638
889.5896	1494.4618	22430.65	21550.7
889.7327	1496.2705	22424.25	21544.7
889.8759	1498.0785	22363.55	21482.3
890.019	1499.8858	22282.9	21401.25
890.1622	1501.6924	22215.7	21334.65
890.3053	1503.4981	22217.05	21337.4
890.4484	1505.3032	22153.95	21271.25
890.5914	1507.1075	22098.75	21214.8
890.7345	1508.911	22082.5	21202.05
890.8776	1510.7138	22016.6	21135.9
891.0206	1512.5159	21937	21057.45
891.1637	1514.3172	21863.15	20982
891.3067	1516.1178	21802.05	20923.1
891.4497	1517.9176	21754	20872.5
891.5927	1519.7166	21697.75	20819.95
891.7357	1521.515	21626.3	20740.5
891.8786	1523.3126	21580.85	20699.95
892.0216	1525.1094	21527.2	20643.2
892.1645	1526.9055	21450.2	20570.6
892.3074	1528.7008	21396.7	20515.25
892.4503	1530.4954	21258.75	20372.45
892.5932	1532.2893	21220.9	20343.55
892.7361	1534.0824	21132.95	20247.6
892.879	1535.8747	21091.45	20211.8
893.0218	1537.6663	21026.8	20143.5
893.1647	1539.4572	20979.9	20099.2
893.3075	1541.2473	20929.8	20047.85
893.4503	1543.0367	20848.6	19969.45
893.5931	1544.8253	20739.55	19856
893.7359	1546.6132	20733.45	19851.85
893.8787	1548.4003	20643.9	19754.6
894.0214	1550.1867	20673.05	19783.9
894.1642	1551.9723	20556.45	19673.85
894.3069	1553.7572	20480.9	19597.55
894.4496	1555.5414	20441.85	19561
894.5923	1557.3247	20438.7	19557.3
894.735	1559.1074	20367.4	19487.8
894.8777	1560.8893	20330.6	19449.8
895.0204	1562.6705	20285.5	19404.75
895.163	1564.4509	20266.65	19386.4
895.3056	1566.2305	20220	19340
895.4482	1568.0094	20232.4	19353.25
895.5908	1569.7876	20201.4	19319.9
895.7334	1571.565	20134.95	19252.05
895.876	1573.3417	20095.45	19215
896.0186	1575.1176	20059	19178.85
896.1611	1576.8928	19990.95	19109.65
896.3036	1578.6672	19943.7	19063.85
896.4461	1580.4409	19900.25	19021.65
896.5886	1582.2138	19888.5	19006.3
896.7311	1583.986	19858.4	18978.25
896.8736	1585.7575	19874.1	18995.4
897.0161	1587.5282	19857.15	18978.7
897.1585	1589.2981	19872.45	18993.75
897.3009	1591.0673	19771.3	18891.8
897.4433	1592.8358	19765.55	18885.6
897.5857	1594.6035	19683.2	18802.2
897.7281	1596.3704	19605.15	18724.2
897.8705	1598.1366	19514.8	18633.45
898.0128	1599.9021	19444.25	18564.85
898.1551	1601.6668	19303.65	18421.2
898.2975	1603.4308	19246.4	18365.6
898.4398	1605.194	19165.65	18281.15
898.5821	1606.9564	19145.95	18265.45
898.7243	1608.7182	19112.85	18228.85
898.8666	1610.4791	19159.7	18280.5
899.0088	1612.2394	19184	18304.5
899.1511	1613.9988	19203.2	18322.25
899.2933	1615.7576	19243.35	18362.75
899.4355	1617.5156	19326.15	18440.45
899.5776	1619.2728	19255.45	18375.15
899.7198	1621.0293	19159.45	18281.2
899.862	1622.785	18957.65	18073.6
900.0041	1624.54	18776.85	17894.65
900.1462	1626.2942	18660.4	17777.6
900.2883	1628.0477	18432.8	17550.1
900.4304	1629.8005	18314.9	17430.3
900.5725	1631.5525	18208.65	17327.4
900.7145	1633.3037	18086.85	17207.9
900.8566	1635.0542	18047.15	17168.45
900.9986	1636.804	17929.1	17048.65
901.1406	1638.553	17939.05	16973.35
901.2826	1640.3013	17823.25	16944.9
901.4245	1642.0488	17678.8	16797.5
901.5665	1643.7955	17670.1	16790.9
901.7085	1645.5416	17584.95	16705.05
901.8504	1647.2868	17547.6	16666.85
901.9923	1649.0313	17439.05	16558
902.1342	1650.7751	17453.35	16569.55
902.2761	1652.5181	17399.75	16520
902.4179	1654.2604	17310.7	16427.65
902.5598	1656.0019	17259.25	16380.75
902.7016	1657.7427	17223.25	16342.8
902.8434	1659.4828	17232.8	16355.1
902.9852	1661.222	17194.3	16312.4
903.127	1662.9606	17147.45	16267.9
903.2687	1664.6984	17128.6	16246.7
903.4105	1666.4354	17127.5	16247.25
903.5522	1668.1717	17079.4	16199.75
903.6939	1669.9072	16953.15	16072.25
903.8356	1671.642	16893.25	16010.25
903.9773	1673.3761	16803.25	15921.55
904.119	1675.1094	16723.15	15841.9
904.2606	1676.8419	16654.65	15774.05
904.4022	1678.5737	16573.8	15692.8
904.5439	1680.3048	16474.3	15593.5
904.6855	1682.0351	16385.05	15504.45
904.827	1683.7646	16326.85	15442.55
904.9686	1685.4934	16259.75	15379.95
905.1101	1687.2215	16188.9	15306.2
905.2517	1688.9488	16119.4	15239.2
905.3932	1690.6754	16033.7	15155.65
905.5347	1692.4012	16055.95	15174.8
905.6761	1694.1263	15993.1	15113.35
905.8176	1695.8506	15945.65	15064.45
905.9591	1697.5742	15876.2	14995.55
906.1005	1699.297	15808.35	14926.95
906.2419	1701.0191	15707.25	14826.55
906.3833	1702.7404	15648.9	14767.2
906.5246	1704.461	15564.35	14683.05
906.666	1706.1808	15518.55	14638.55
906.8073	1707.8999	15484.85	14603.85
906.9487	1709.6182	15421.8	14541.1
907.09	1711.3358	15397.15	14517.75
907.2313	1713.0527	15353.6	14475.5
907.3725	1714.7688	15288.2	14402.65
907.5138	1716.4841	15219	14336.9
907.655	1718.1987	15185.35	14299.25
907.7962	1719.9126	15179.95	14300.7
907.9374	1721.6257	15118.9	14235.25
908.0786	1723.338	15066.2	14183.35
908.2198	1725.0496	14992.9	14111.5
908.3609	1726.7605	14988.15	14107.75
908.502	1728.4706	14948.55	14068.55
908.6431	1730.18	14873.7	13992.6
908.7842	1731.8886	14850.4	13968.85
908.9253	1733.5964	14815.65	13915
909.0664	1735.3036	14768.5	13885.85
909.2074	1737.0099	14764.15	13883.35
909.3484	1738.7156	14728.8	13848
909.4894	1740.4204	14626.15	13740.95
909.6304	1742.1246	14686.25	13804.4
909.7714	1743.8279	14624.9	13744.85
909.9123	1745.5306	14601.15	13720.3
910.0532	1747.2325	14541.55	13661
910.1941	1748.9336	14514.35	13635.45
910.335	1750.634	14479.45	13597.9
910.4759	1752.3336	14477.45	13597.85
910.6168	1754.0325	14433.7	13553
910.7576	1755.7307	14395.1	13515.9
910.8984	1757.4281	14398.7	13519.2
911.0392	1759.1247	14377.4	13485.35
911.18	1760.8206	14367.3	13481.15
911.3208	1762.5158	14317.3	13433.2
911.4615	1764.2102	14263.25	13383.1
911.6022	1765.9039	14219.6	13339.85
911.7429	1767.5968	14197.5	13318.4
911.8836	1769.289	14158.75	13276.05
912.0243	1770.9804	14130.7	13251.1
912.1649	1772.6711	14098.85	13218.95
912.3056	1774.361	14058.25	13174.3
912.4462	1776.0502	14032.7	13151.65
912.5868	1777.7386	14019.8	13135.65
912.7274	1779.4263	13942.3	13062
912.8679	1781.1132	13944.85	13063.6
913.0084	1782.7994	13889.8	13008.05
913.149	1784.4849	13855.6	12975.2
913.2895	1786.1696	13829.05	12930.45
913.4299	1787.8535	13803.25	12925.35
913.5704	1789.5367	13757.95	12877.95
913.7108	1791.2192	13755.7	12874
913.8513	1792.9009	13707.95	12809.2
913.9917	1794.5818	13640.9	12757.1
914.132	1796.2621	13636.7	12757.65
914.2724	1797.9415	13602.05	12720.9
914.4128	1799.6202	13563.5	12685.15
914.5531	1801.2982	13515.9	12634.65
914.6934	1802.9755	13491.85	12611.45
914.8337	1804.6519	13448.2	12566.8
914.9739	1806.3277	13382.5	12502.85
915.1142	1808.0027	13332.7	12453.7
915.2544	1809.6769	13317.15	12436.4
915.3946	1811.3504	13288.5	12408.3
915.5348	1813.0231	13268.5	12388.3
915.675	1814.6951	13279.3	12398.9
915.8151	1816.3664	13251.1	12368.65
915.9553	1818.0369	13197.1	12313.9
916.0954	1819.7067	13161.3	12281.8
916.2355	1821.3757	13133.8	12250.05
916.3755	1823.044	13112.7	12232.6
916.5156	1824.7115	13085.15	12203.7
916.6556	1826.3783	13025.85	12144.7
916.7956	1828.0443	13007.55	12128.85
916.9356	1829.7096	12961.25	12078.5
917.0756	1831.3741	12987.3	12103.2
917.2155	1833.0379	12946.8	12066.4
917.3555	1834.701	12891.55	12007.75
917.4954	1836.3633	12874.75	11994.9
917.6353	1838.0248	12844.6	11962.25
917.7751	1839.6856	12816.8	11935.8
917.915	1841.3457	12781.9	11901.85
918.0548	1843.005	12737.25	11855.45
918.1946	1844.6636	12743.4	11865.45
918.3344	1846.3214	12669.8	11787
918.4742	1847.9785	12671.45	11790.1
918.6139	1849.6349	12627.65	11747.7
918.7537	1851.2904	12609.55	11718
918.8934	1852.9453	12551.9	11670.85
919.0331	1854.5994	12543.9	11660.75
919.1727	1856.2528	12553.5	11668.15
919.3124	1857.9054	12492.65	11611.75
919.452	1859.5572	12465	11583.25
919.5916	1861.2083	12447.25	11564.85
919.7312	1862.8587	12445.75	11563.85
919.8708	1864.5084	12441.8	11559.75
920.0103	1866.1572	12391.55	11511.95
920.1498	1867.8054	12336.45	11455.2
920.2893	1869.4528	12286.2	11406.1
920.4288	1871.0994	12259.7	11377.2
920.5683	1872.7453	12248.25	11367.9
920.7077	1874.3905	12229.45	11340.6
920.8471	1876.0349	12222.8	11340.9
920.9865	1877.6786	12192.25	11309.85
921.1259	1879.3215	12169.95	11288.95
921.2653	1880.9637	12145.9	11262.85
921.4046	1882.6051	12124.35	11245.35
921.5439	1884.2458	12080.2	11198.9
921.6832	1885.8858	12021.65	11141.2
921.8225	1887.525	12004.6	11124.2
921.9617	1889.1634	11965.05	11081.5
922.101	1890.8011	11934	11052.85
922.2402	1892.4381	11895	11013.35
922.3794	1894.0743	11915.05	11034
922.5185	1895.7098	11864.95	10984.55
922.6577	1897.3446	11830.35	10948.05
922.7968	1898.9786	11810.7	10927.1
922.9359	1900.6118	11802.15	10921.65
923.075	1902.2443	11737.05	10851.9
923.214	1903.8761	11711	10831.55
923.3531	1905.5071	11671.95	10789.1
923.4921	1907.1374	11644	10763.2
923.6311	1908.7669	11592.75	10713
923.77	1910.3957	11579.95	10699.5
923.909	1912.0237	11504.35	10622.7
924.0479	1913.651	11528.25	10646.2
924.1868	1915.2776	11481.95	10601.6
924.3257	1916.9034	11425.85	10546.55
924.4646	1918.5285	11372.7	10494.3
924.6034	1920.1528	11330.6	10450.05
924.7422	1921.7764	11327.8	10448.05
924.881	1923.3992	11281.6	10403.2
925.0198	1925.0213	11192.15	10310.2
925.1586	1926.6427	11154.5	10274.85
925.2973	1928.2633	11317.55	10229.45
925.436	1929.8832	11126.65	10241.85
925.5747	1931.5023	11064.95	10183.95
925.7134	1933.1207	11066.2	10184.55
925.852	1934.7383	11036.25	10154.4
925.9906	1936.3552	11006.7	10126.5
926.1292	1937.9714	10987.1	10107
926.2678	1939.5868	10927.75	10046.6
926.4064	1941.2015	10861.55	9981.35
926.5449	1942.8154	10855	9972.3
926.6834	1944.4286	10790.65	9910.05
926.8219	1946.041	10762.35	9856.05
926.9604	1947.6528	10701.7	9815.65
927.0988	1949.2637	10685.4	9803.75
927.2372	1950.8739	10654.2	9771.4
927.3756	1952.4834	10622.45	9741.05
927.514	1954.0921	10620.65	9737.05
927.6523	1955.7001	10589	9704.6
927.7907	1957.3074	10559.15	9679.25
927.929	1958.9139	10515.1	9634.1
928.0673	1960.5197	10475.75	9593.35
928.2055	1962.1247	10424.6	9544.55
928.3438	1963.729	10389.4	9510.85
928.482	1965.3325	10360.35	9456.4
928.6202	1966.9353	10333.35	9454.9
928.7584	1968.5374	10315.35	9432.9
928.8965	1970.1387	10272.35	9391.9
929.0346	1971.7393	10257	9376
929.1727	1973.3392	10208.8	9328.3
929.3108	1974.9383	10193.6	9312.35
929.4489	1976.5366	10145.05	9263.6
929.5869	1978.1342	10140.4	9258.5
929.7249	1979.7311	10126.2	9244.65
929.8629	1981.3273	10066.75	9186.7
930.0009	1982.9227	10072.65	9190.6
930.1388	1984.5173	9998.35	9118.4
930.2767	1986.1112	9984.65	9105.3
930.4146	1987.7044	9977.7	9098.15
930.5525	1989.2968	9929.3	9047.35
930.6904	1990.8885	9941.45	9057.5
930.8282	1992.4795	9891.05	9009.15
930.966	1994.0697	9862.3	8979.85
931.1038	1995.6592	9833.95	8952.35
931.2415	1997.2479	9764.25	8884.3
931.3793	1998.8359	9764	8883.6
931.517	2000.4232	9743.85	8864.15
931.6547	2002.0097	9703.95	8825.35
931.7923	2003.5955	9665.45	8785.95
931.93	2005.1805	9671.2	8788.4
932.0676	2006.7648	9635.05	8755.4
932.2052	2008.3484	9602.3	8721.5
932.3427	2009.9312	9595	8713.4
932.4803	2011.5133	9548.3	8669.65
932.6178	2013.0946	9530.75	8652.55
932.7553	2014.6752	9500.15	8621.25
932.8928	2016.2551	9472.45	8591.35
933.0302	2017.8342	9441.85	8563.35
933.1676	2019.4126	9416.95	8537.7
933.305	2020.9902	9386	8507.45
933.4424	2022.5672	9370.1	8488.2
933.5798	2024.1433	9341.85	8455.75
933.7171	2025.7188	9311.75	8432.95
933.8544	2027.2935	9302.65	8422
933.9917	2028.8674	9276.7	8395.7
934.129	2030.4406	9238.9	8360.3
934.2662	2032.0131	9188.6	8307
934.4034	2033.5849	9190.25	8305.7
934.5406	2035.1559	9167.95	8287.3
934.6778	2036.7261	9144.3	8264
934.8149	2038.2957	9106.6	8228.85
934.952	2039.8645	9087.75	8207.05
935.0891	2041.4325	9118.7	8235.7
935.2262	2042.9998	9068.85	8190.5
935.3632	2044.5664	9050.5	8170.05
935.5002	2046.1323	9017.35	8136.9
935.6372	2047.6974	9002.35	8122.7
935.7742	2049.2617	8984.05	8104.7
935.9111	2050.8254	8985.8	8084.7
936.048	2052.3883	8958.45	8076.5
936.1849	2053.9504	8928.15	8047.6
936.3218	2055.5118	8906.1	8025.3
936.4586	2057.0725	8886.95	8001.25
936.5955	2058.6325	8851.9	7972.55
936.7323	2060.1917	8828.9	7948.25
936.869	2061.7502	8826.4	7942.15
937.0058	2063.3079	8767.6	7887.35
937.1425	2064.8649	8751.95	7868.5
937.2792	2066.4212	8756.05	7877.05
937.4159	2067.9767	8729.3	7848.15
937.5525	2069.5315	8714.65	7835.35
937.6891	2071.0856	8698	7817.6
937.8257	2072.6389	8652.95	7771.8
937.9623	2074.1915	8612.95	7736.85
938.0989	2075.7433	8562.05	7681.1
938.2354	2077.2945	8572.25	7694.9
938.3719	2078.8448	8554	7674.3
938.5084	2080.3945	8531.45	7651.45
938.6448	2081.9434	8498.85	7621.15
938.7812	2083.4916	8489.4	7609.3
938.9176	2085.039	8454.15	7572.25
939.054	2086.5857	8441.5	7559.95
939.1903	2088.1317	8419.05	7538.6
939.3267	2089.677	8406.55	7525.65
939.463	2091.2215	8383.95	7504.15
939.5992	2092.7652	8364.65	7484.3
939.7355	2094.3083	8341.25	7459.95
939.8717	2095.8506	8333.8	7454.25
940.0079	2097.3921	8330.25	7452.45
940.1441	2098.933	8316.65	7436.55
940.2802	2100.4731	8285.75	7406.55
940.4163	2102.0124	8272.4	7375.2
940.5524	2103.5511	8260.75	7378.6
940.6885	2105.089	8262.05	7381.15
940.8245	2106.6261	8238.6	7359.2
940.9606	2108.1626	8213.7	7331.6
941.0965	2109.6983	8228	7319.45
941.2325	2111.2332	8186.6	7305.55
941.3684	2112.7675	8162.45	7281.2
941.5044	2114.301	8127.6	7245.95
941.6403	2115.8337	8119.85	7239.25
941.7761	2117.3657	8115.45	7236.35
941.912	2118.897	8102.75	7220.95
942.0478	2120.4276	8083.3	7197.35
942.1835	2121.9575	8049.3	7171
942.3193	2123.4866	8037.75	7155.8
942.455	2125.0149	8013.95	7128.5
942.5907	2126.5426	7976.75	7097.15
942.7264	2128.0695	7956.1	7070.85
942.8621	2129.5956	7951.85	7074
942.9977	2131.1211	7940.85	7056.55
943.1333	2132.6458	7907.45	7028.7
943.2689	2134.1698	7911.85	7030.8
943.4044	2135.693	7903.55	7021.85
943.54	2137.2155	7860.7	6978.9
943.6755	2138.7373	7833.2	6953.05
943.8109	2140.2584	7828.65	6949.9
943.9464	2141.7787	7802.65	6917.85
944.0818	2143.2983	7764.05	6884.2
944.2172	2144.8171	7738.25	6858.35
944.3526	2146.3353	7725.9	6844.3
944.4879	2147.8527	7679.55	6801.6
944.6232	2149.3693	7677.8	6797.55
944.7585	2150.8853	7658.5	6776.6
944.8938	2152.4005	7638.9	6758.35
945.029	2153.9149	7627.05	6744.9
945.1642	2155.4287	7592	6712.65
945.2994	2156.9417	7577.35	6695.75
945.4346	2158.454	7568.35	6685.95
945.5697	2159.9655	7547.85	6668.8
945.7048	2161.4764	7524.6	6646.35
945.8399	2162.9865	7508.3	6628.9
945.9749	2164.4958	7485.65	6603.65
946.1099	2166.0045	7458.9	6575.9
946.2449	2167.5124	7449.5	6570.4
946.3799	2169.0195	7437.2	6556.5
946.5148	2170.526	7410.3	6530.2
946.6498	2172.0317	7390.95	6510.5
946.7846	2173.5367	7368.25	6487.5
946.9195	2175.0409	7340.15	6462.05
947.0543	2176.5445	7364.45	6485.45
947.1891	2178.0473	7334.15	6451.65
947.3239	2179.5494	7307.65	6425.4
947.4587	2181.0507	7256.3	6374.85
947.5934	2182.5513	7241.65	6363
947.7281	2184.0512	7243.1	6361.55
947.8628	2185.5504	7210.6	6329.65
947.9974	2187.0488	7184.05	6303.85
948.132	2188.5465	7170.15	6292.9
948.2666	2190.0435	7145.6	6264.55
948.4012	2191.5397	7135.2	6255.75
948.5357	2193.0353	7093.1	6212.45
948.6702	2194.5301	7071.45	6189.7
948.8047	2196.0241	7063.9	6182.75
948.9392	2197.5175	7026.7	6148.55
949.0736	2199.0101	7016.45	6131.3
949.208	2200.502	6992.15	6112.4
949.3424	2201.9931	6945.5	6063.4
949.4767	2203.4835	6913.55	6032.1
949.611	2204.9733	6929	6045.05
949.7453	2206.4622	6910.7	6031.85
949.8796	2207.9505	6878.8	5997
950.0138	2209.438	6863.8	5986.1
950.148	2210.9248	6838.35	5956.45
950.2822	2212.4109	6828.8	5951.4
950.4164	2213.8962	6797.55	5914.65
950.5505	2215.3809	6793.8	5912
950.6846	2216.8648	6775.75	5896.35
950.8186	2218.3479	6741.45	5856.85
950.9527	2219.8304	6703.6	5819.55
951.0867	2221.3121	6693.9	5812.25
951.2207	2222.7931	6682.1	5800.5
951.3546	2224.2733	6665.8	5783.95
951.4886	2225.7529	6614.6	5733.85
951.6225	2227.2317	6599.9	5718.5
951.7563	2228.7098	6601.9	5724.05
951.8902	2230.1872	6595.6	5714.95
952.024	2231.6638	6560.5	5679.45
952.1578	2233.1397	6545.15	5657.6
952.2916	2234.6149	6537.55	5656.9
952.4253	2236.0894	6511.15	5630.55
952.559	2237.5632	6492.6	5610.65
952.6927	2239.0362	6459.3	5579.65
952.8263	2240.5085	6445.7	5566.3
952.9599	2241.9801	6445.7	5564.75
953.0935	2243.4509	6415	5533.95
953.2271	2244.921	6384.65	5503.6
953.3606	2246.3904	6376.2	5493.55
953.4941	2247.8591	6360.4	5480.35
953.6276	2249.3271	6366.5	5485.2
953.7611	2250.7943	6319.15	5440.45
953.8945	2252.2608	6294.2	5413.35
954.0279	2253.7266	6290.05	5411.4
954.1612	2255.1917	6266.1	5385.3
954.2946	2256.656	6256	5374.85
954.4279	2258.1197	6226	5345.45
954.5612	2259.5826	6208.9	5326.85
954.6944	2261.0447	6177.3	5296.7
954.8276	2262.5062	6164.7	5282.7
954.9608	2263.9669	6169.4	5287.25
955.094	2265.4269	6143.4	5264.35
955.2271	2266.8862	6135.75	5253.9
955.3602	2268.3448	6135.3	5254.55
955.4933	2269.8026	6108.5	5227.95
955.6264	2271.2598	6087.45	5208.45
955.7594	2272.7162	6084	5206
955.8924	2274.1719	6054.95	5173.45
956.0253	2275.6268	6038.05	5156.45
956.1583	2277.0811	6025.05	5144.25
956.2912	2278.5346	6016	5136.35
956.4241	2279.9874	6001.3	5119.9
956.5569	2281.4395	5991.85	5112.9
956.6897	2282.8908	5974.25	5089.15
956.8225	2284.3414	5966.8	5085.8
956.9553	2285.7914	5938	5058.55
957.088	2287.2406	5936.95	5056.6
957.2207	2288.689	5893.2	5012.9
957.3534	2290.1368	5886.35	5005.05
957.486	2291.5838	5885.9	5003.55
957.6186	2293.0302	5851.55	4970.35
957.7512	2294.4758	5839.3	4958.7
957.8838	2295.9206	5806.95	4923.1
958.0163	2297.3648	5802.4	4922.05
958.1488	2298.8082	5787	4908.3
958.2813	2300.251	5751.3	4871.95
958.4137	2301.693	5768.8	4884.9
958.5461	2303.1343	5747.95	4869.35
958.6785	2304.5748	5728.2	4844.4
958.8108	2306.0147	5685.9	4805.35
958.9432	2307.4538	5690.45	4808.5
959.0754	2308.8922	5685.85	4807.6
959.2077	2310.3299	5660.6	4780.15
959.3399	2311.7669	5636.1	4757.15
959.4721	2313.2031	5630.9	4750.55
959.6043	2314.6387	5605.6	4724.05
959.7365	2316.0735	5586.85	4707.05
959.8686	2317.5076	5581.65	4700
960.0006	2318.941	5573.65	4692.75
960.1327	2320.3737	5551.35	4669.2
960.2647	2321.8056	5548.5	4668.1
960.3967	2323.2369	5527.6	4646.95
960.5287	2324.6674	5526.75	4643.9
960.6606	2326.0972	5508.3	4626.2
960.7925	2327.5263	5477	4597.65
960.9244	2328.9547	5450.9	4570
961.0562	2330.3823	5438.75	4558.1
961.1881	2331.8092	5450.8	4569.05
961.3198	2333.2355	5416.45	4536.05
961.4516	2334.661	5400.25	4519.9
961.5833	2336.0858	5393.1	4509.45
961.715	2337.5098	5383.65	4503.3
961.8467	2338.9332	5377.6	4495.45
961.9783	2340.3558	5349.9	4467.5
962.1099	2341.7778	5333.9	4452.7
962.2415	2343.199	5312.2	4428.65
962.373	2344.6195	5295.2	4415.35
962.5045	2346.0393	5273	4392.9
962.636	2347.4583	5264.95	4383.65
962.7675	2348.8767	5280.05	4400.1
962.8989	2350.2943	5252.95	4372.05
963.0303	2351.7113	5252.35	4369
963.1617	2353.1275	5212.8	4333.95
963.293	2354.543	5228.65	4338.3
963.4243	2355.9578	5209.5	4329.65
963.5556	2357.3718	5165.35	4284.4
963.6868	2358.7852	5153.55	4270.6
963.818	2360.1978	5138.25	4256.65
963.9492	2361.6098	5120.15	4239.4
964.0803	2363.021	5127.35	4240.5
964.2114	2364.4315	5091	4210.05
964.3425	2365.8413	5088.35	4201.05
964.4736	2367.2504	5074.2	4195.55
964.6046	2368.6587	5037.8	4157.75
964.7356	2370.0664	5020.25	4139.85
964.8666	2371.4733	5024.65	4142.5
964.9975	2372.8795	5001.5	4122.2
965.1284	2374.285	4993.5	4112.15
965.2593	2375.6899	4973.8	4094.05
965.3901	2377.0939	4945.65	4065.45
965.5209	2378.4973	4943.6	4063.35
965.6517	2379.9	4927.25	4046.25
965.7825	2381.3019	4915.75	4036.25
965.9132	2382.7032	4900.5	4019.05
966.0439	2384.1037	4902.7	4024.65
966.1745	2385.5035	4881.65	4001.8
966.3051	2386.9027	4856.75	3976.05
966.4357	2388.3011	4842.25	3958.4
966.5663	2389.6987	4840.9	3958.9
966.6968	2391.0957	4810.85	3929.85
966.8273	2392.492	4798.65	3918.6
966.9578	2393.8876	4764.2	3881.55
967.0882	2395.2824	4748.85	3870.35
967.2186	2396.6765	4737.5	3860.8
967.349	2398.07	4720.05	3839.35
967.4793	2399.4627	4720.55	3838.35
967.6097	2400.8547	4709.95	3828.3
967.7399	2402.246	4693.2	3806.35
967.8702	2403.6366	4668.25	3788.15
968.0004	2405.0265	4663.1	3781.55
968.1306	2406.4156	4642.6	3757.9
968.2607	2407.8041	4609	3725.05
968.3909	2409.1918	4589.15	3707.2
968.521	2410.5789	4580.65	3698.95
968.651	2411.9652	4581.4	3697.8
968.781	2413.3508	4562.65	3681.15
968.911	2414.7358	4553.55	3671.15
969.041	2416.12	4542.5	3661.4
969.1709	2417.5035	4515.2	3633.4
969.3008	2418.8863	4511.6	3630.9
969.4307	2420.2684	4503.85	3620.95
969.5606	2421.6497	4487.8	3606.8
969.6904	2423.0304	4438.55	3556.1
969.8201	2424.4104	4444.35	3563.15
969.9499	2425.7896	4436.1	3555.15
970.0796	2427.1682	4413.5	3532
970.2093	2428.546	4417.9	3534.5
970.3389	2429.9232	4394.9	3511.35
970.4685	2431.2996	4397.9	3516.45
970.5981	2432.6753	4380.65	3499.6
970.7277	2434.0503	4368.85	3487
970.8572	2435.4246	4355.25	3473.45
970.9867	2436.7982	4326.05	3441.85
971.1161	2438.1711	4320.6	3439.8
971.2456	2439.5433	4302.8	3422.05
971.375	2440.9148	4298.5	3414.25
971.5043	2442.2856	4256.2	3376.1
971.6336	2443.6557	4277.3	3395.9
971.7629	2445.025	4246.85	3365.15
971.8922	2446.3937	4237.5	3355.1
972.0214	2447.7617	4233.65	3350.7
972.1506	2449.1289	4221.65	3340.3
972.2798	2450.4955	4210.75	3326.55
972.4089	2451.8613	4203.4	3322.9
972.538	2453.2265	4205.45	3325.3
972.6671	2454.5909	4193	3312.25
972.7961	2455.9546	4166.2	3284.65
972.9251	2457.3177	4152.05	3271.45
973.0541	2458.68	4150.9	3266.65
973.1831	2460.0416	4146.45	3266.2
973.312	2461.4025	4138.55	3255.4
973.4408	2462.7627	4136.5	3245.8
973.5697	2464.1222	4121.85	3243.25
973.6985	2465.4811	4100.95	3219.3
973.8273	2466.8392	4069.2	3187.25
973.956	2468.1966	4067.95	3183.55
974.0847	2469.5533	4074.5	3191.2
974.2134	2470.9093	4056.6	3177.1
974.3421	2472.2645	4045.05	3163.45
974.4707	2473.6191	4045.55	3166.05
974.5993	2474.973	4039	3158.15
974.7278	2476.3262	4009.85	3127
974.8563	2477.6787	3994.8	3114.95
974.9848	2479.0305	3968.35	3086.7
975.1132	2480.3816	3979.6	3096.85
975.2417	2481.7319	3949.1	3069.25
975.37	2483.0816	3942.45	3058.35
975.4984	2484.4306	3955.7	3072.75
975.6267	2485.7789	3913.15	3033.2
975.755	2487.1264	3913.35	3029
975.8833	2488.4733	3873	2994.95
976.0115	2489.8195	3880.8	2994
976.1397	2491.165	3867.35	2985.3
976.2678	2492.5097	3859.95	2976.5
976.3959	2493.8538	3840.2	2959.95
976.524	2495.1972	3821.25	2938.95
976.6521	2496.5398	3817.15	2933.5
976.7801	2497.8818	3814.75	2932.2
976.9081	2499.2231	3796.55	2916.55
977.036	2500.5637	3784.3	2900.7
977.164	2501.9035	3769.45	2887.55
977.2918	2503.2427	3777.25	2893.75
977.4197	2504.5812	3765.15	2886.5
977.5475	2505.919	3735.9	2852.05
977.6753	2507.256	3718.15	2838.9
977.8031	2508.5924	3714.55	2833.95
977.9308	2509.9281	3716.85	2831.8
978.0585	2511.2631	3702.2	2822.85
978.1861	2512.5974	3691	2810.15
978.3137	2513.9309	3690.55	2809.3
978.4413	2515.2638	3681.25	2774.05
978.5689	2516.596	3666.95	2786.45
978.6964	2517.9275	3645.8	2764.3
978.8239	2519.2583	3642.65	2761.3
978.9513	2520.5884	3619.45	2737.45
979.0788	2521.9178	3611.65	2729.7
979.2062	2523.2465	3604.1	2723.45
979.3335	2524.5745	3592.75	2710.65
979.4608	2525.9018	3582.75	2701.75
979.5881	2527.2284	3556.3	2677.2
979.7154	2528.5543	3563.75	2681.55
979.8426	2529.8796	3552.8	2673.4
979.9698	2531.2041	3536.1	2655.1
980.0969	2532.5279	3543	2663.5
980.224	2533.851	3532.25	2649.6
980.3511	2535.1735	3530.2	2650.05
980.4781	2536.4952	3520.7	2643.75
980.6052	2537.8163	3514.7	2633.6
980.7321	2539.1366	3493	2611.55
980.8591	2540.4562	3488.6	2607.4
980.986	2541.7752	3486.45	2605.5
981.1129	2543.0935	3483.6	2603.6
981.2397	2544.411	3465.45	2584.35
981.3665	2545.7279	3474.5	2594.8
981.4933	2547.0441	3467.85	2586.05
981.62	2548.3596	3455.15	2572.4
981.7467	2549.6744	3437.65	2558.45
981.8734	2550.9885	3429.15	2539
982.0001	2552.3019	3420.6	2540.7
982.1267	2553.6146	3425.4	2544
982.2532	2554.9266	3407.2	2527.65
982.3798	2556.2379	3392.9	2510.65
982.5063	2557.5485	3388.95	2509.8
982.6327	2558.8585	3387.45	2499.05
982.7592	2560.1677	3379.8	2495.65
982.8856	2561.4762	3368.5	2486.7
983.0119	2562.7841	3375.2	2492.2
983.1383	2564.0913	3362.6	2483.5
983.2646	2565.3977	3361.2	2481.9
983.3908	2566.7035	3349.4	2467.55
983.517	2568.0086	3346.4	2463.85
983.6432	2569.313	3339.25	2457.25
983.7694	2570.6167	3339.95	2456.55
983.8955	2571.9197	3322.55	2441.4
984.0216	2573.222	3319.95	2437.5
984.1476	2574.5236	3298.5	2417.1
984.2737	2575.8246	3303.7	2419.65
984.3996	2577.1248	3308.25	2424.5
984.5256	2578.4244	3295.6	2415.35
984.6515	2579.7232	3288.5	2407.8
984.7774	2581.0214	3291.1	2385.2
984.9032	2582.3189	3272.2	2392.65
985.029	2583.6157	3265.8	2378.55
985.1548	2584.9118	3261.55	2382.2
985.2806	2586.2072	3252.55	2371.35
985.4063	2587.5019	3248.1	2366.7
985.5319	2588.7959	3237.6	2356.95
985.6576	2590.0893	3227	2345.15
985.7832	2591.3819	3228.8	2349.4
985.9087	2592.6739	3209.65	2331.45
986.0343	2593.9652	3202.45	2320.7
986.1597	2595.2557	3185.55	2304.55
986.2852	2596.5456	3175	2292.1
986.4106	2597.8348	3163.5	2282.8
986.536	2599.1234	3171.7	2292.25
986.6614	2600.4112	3143.3	2261.85
986.7867	2601.6983	3140.95	2257.75
986.912	2602.9848	3128.6	2248.2
987.0372	2604.2705	3122.25	2234
987.1624	2605.5556	3120.25	2241.9
987.2876	2606.84	3091.75	2213
987.4128	2608.1237	3096.1	2214.6
987.5379	2609.4067	3077.2	2196.95
987.6629	2610.689	3077.85	2188.35
987.788	2611.9707	3085	2201.1
987.913	2613.2516	3055.15	2169.35
988.0379	2614.5319	3045.3	2163.9
988.1629	2615.8115	3030.1	2148.05
988.2878	2617.0903	3027.8	2145
988.4126	2618.3685	3018	2136.35
988.5375	2619.6461	3007.35	2125.65
988.6622	2620.9229	2999.4	2119.8
988.787	2622.199	2996.7	2116.3
988.9117	2623.4745	2985.65	2104.05
989.0364	2624.7493	2974.25	2093.55
989.161	2626.0234	2972.3	2090.5
989.2857	2627.2968	2957.95	2076.1
989.4102	2628.5695	2948.7	2066.65
989.5348	2629.8415	2935.35	2054.2
989.6593	2631.1128	2943.35	2060.3
989.7837	2632.3835	2920.65	2040.6
989.9082	2633.6535	2924.5	2043
990.0326	2634.9228	2900.85	2021.2
990.1569	2636.1914	2889.65	2010.35
990.2812	2637.4593	2892.3	2006.65
990.4055	2638.7265	2886.05	2005.6
990.5298	2639.9931	2860.95	1980.85
990.654	2641.259	2851	1969.8
990.7782	2642.5242	2836.1	1955.15
990.9023	2643.7887	2842.3	1961.5
991.0264	2645.0525	2846.05	1966.35
991.1505	2646.3156	2830.35	1948.2
991.2745	2647.5781	2818.65	1939
991.3985	2648.8398	2813.8	1934.55
991.5225	2650.1009	2848.65	1930.95
991.6464	2651.3613	2805.45	1925.55
991.7703	2652.6211	2797.45	1915.35
991.8942	2653.8801	2790.3	1908.85
992.018	2655.1385	2792.15	1910.5
992.1418	2656.3961	2782.05	1900.65
992.2655	2657.6531	2774.85	1893.1
992.3892	2658.9094	2773.4	1891.5
992.5129	2660.1651	2763.2	1884.2
992.6366	2661.42	2763.1	1881.45
992.7602	2662.6743	2755.05	1875
992.8837	2663.9279	2741.9	1862
993.0073	2665.1808	2737.4	1853.5
993.1307	2666.433	2723.5	1842.7
993.2542	2667.6846	2723.05	1841.8
993.3776	2668.9354	2727.15	1842.5
993.501	2670.1856	2693.9	1813.35
993.6244	2671.4351	2705.2	1825.6
993.7477	2672.6839	2702.45	1820.9
993.8709	2673.9321	2688.1	1806.35
993.9942	2675.1795	2679.65	1800.25
994.1174	2676.4263	2669.4	1790.1
994.2405	2677.6724	2664.05	1784.55
994.3637	2678.9179	2668.7	1787.8
994.4868	2680.1626	2659.35	1779.8
994.6098	2681.4067	2655.4	1774.3
994.7328	2682.6501	2656.1	1778.55
994.8558	2683.8928	2629.95	1748.05
994.9788	2685.1348	2636.25	1756.25
995.1017	2686.3761	2621.2	1740.85
995.2245	2687.6168	2615.05	1735.85
995.3474	2688.8568	2614.7	1734.05
995.4702	2690.0961	2601.7	1723.1
995.5929	2691.3348	2604.55	1723.15
995.7156	2692.5727	2604.95	1724.15
995.8383	2693.81	2577.1	1696.5
995.961	2695.0466	2571.7	1692.2
996.0836	2696.2826	2569.2	1688.1
996.2062	2697.5178	2578.8	1677.75
996.3287	2698.7524	2568.1	1685.7
996.4512	2699.9863	2545.75	1662.6
996.5737	2701.2195	2541.3	1662.05
996.6961	2702.452	2533.95	1650.5
996.8185	2703.6839	2528.95	1647.15
996.9408	2704.9151	2519.95	1640.6
997.0631	2706.1456	2513.5	1632.6
997.1854	2707.3755	2508.95	1627.5
997.3077	2708.6046	2508.7	1628.15
997.4299	2709.8331	2495.55	1614.2
997.552	2711.0609	2486.4	1606.9
997.6742	2712.2881	2481.65	1599.9
997.7963	2713.5145	2475.35	1592
997.9183	2714.7403	2469.15	1589.95
998.0403	2715.9654	2479.35	1597.85
998.1623	2717.1899	2473.95	1578.25
998.2842	2718.4136	2458.5	1578.05
998.4062	2719.6367	2448.95	1567.8
998.528	2720.8591	2439.9	1553.1
998.6498	2722.0809	2433.15	1552.75
998.7716	2723.3019	2434.75	1549.55
998.8934	2724.5223	2424.3	1543.6
999.0151	2725.7421	2419.8	1535.15
999.1368	2726.9611	2415.1	1533.4
999.2584	2728.1795	2411.7	1527.1
999.38	2729.3972	2388.2	1508.95
999.5016	2730.6142	2391.85	1498.4
999.6231	2731.8306	2386.5	1504.1
999.7446	2733.0462	2371.55	1489.4
999.8661	2734.2612	2365.95	1480.55
999.9875	2735.4756	2356.75	1474.3
1000.1089	2736.6892	2349.75	1468.75
1000.2302	2737.9022	2343.5	1463.85
1000.3515	2739.1145	2341.4	1461.5
1000.4728	2740.3262	2329.95	1440.9
1000.594	2741.5372	2316.25	1434.35
1000.7152	2742.7475	2312.8	1432.3
1000.8363	2743.9571	2308.7	1425.95
1000.9575	2745.1661	2307	1422.6
1001.0785	2746.3744	2302.6	1420.8
1001.1996	2747.582	2294.95	1415.95
1001.3206	2748.7889	2286.05	1404.35
1001.4415	2749.9952	2290.1	1410.6
1001.5625	2751.2008	2281.25	1398.85
1001.6833	2752.4057	2281.75	1399.7
1001.8042	2753.61	2269.25	1385.75
1001.925	2754.8136	2266.85	1385.4
1002.0458	2756.0165	2257.45	1376.75
1002.1665	2757.2188	2247.35	1367.15
1002.2872	2758.4204	2247.55	1367.2
1002.4078	2759.6213	2240.45	1357
1002.5285	2760.8215	2232.8	1347.6
1002.649	2762.0211	2218.6	1335.85
1002.7696	2763.22	2222.85	1338.8
1002.8901	2764.4182	2207.05	1323.25
1003.0106	2765.6158	2212.15	1331.9
1003.131	2766.8127	2209.55	1327.8
1003.2514	2768.009	2196.35	1315.85
1003.3717	2769.2045	2193.1	1310.85
1003.492	2770.3994	2198.75	1317.7
1003.6123	2771.5936	2189.7	1308.35
1003.7325	2772.7872	2182.9	1304.15
1003.8527	2773.9801	2169.8	1288.45
1003.9729	2775.1723	2181.65	1284.2
1004.093	2776.3639	2158.6	1279.4
1004.2131	2777.5548	2164.65	1282.15
1004.3331	2778.745	2140.45	1259.55
1004.4531	2779.9346	2140.15	1259.9
1004.5731	2781.1235	2147.85	1267.2
1004.693	2782.3117	2144.15	1264.95
1004.8129	2783.4992	2127.95	1247.55
1004.9328	2784.6861	2123.95	1246.15
1005.0526	2785.8723	2119.3	1237.55
1005.1723	2787.0579	2122.9	1241.8
1005.2921	2788.2428	2107.2	1226.9
1005.4118	2789.427	2099.8	1220.25
1005.5314	2790.6106	2094.35	1213.35
1005.651	2791.7935	2094.7	1211.05
1005.7706	2792.9757	2079.65	1198.35
1005.8902	2794.1573	2089.3	1206.35
1006.0097	2795.3382	2077.5	1196.75
1006.1291	2796.5184	2068.05	1188.05
1006.2485	2797.698	2063.65	1180.8
1006.3679	2798.8769	2061.6	1181.1
1006.4873	2800.0551	2046.5	1166.35
1006.6066	2801.2327	2042.65	1160.45
1006.7258	2802.4096	2032.3	1153.35
1006.8451	2803.5859	2032.65	1149.7
1006.9642	2804.7615	2040.1	1158.1
1007.0834	2805.9364	2033.65	1151.85
1007.2025	2807.1106	2019.15	1138.2
1007.3216	2808.2842	2020.8	1140.25
1007.4406	2809.4572	2003.8	1122.85
1007.5596	2810.6294	2001.6	1121.95
1007.6785	2811.801	2010.25	1129.25
1007.7975	2812.972	1999.15	1119.55
1007.9163	2814.1423	2004.7	1124.65
1008.0352	2815.3119	2008.4	1126.25
1008.154	2816.4808	1999.95	1120.45
1008.2727	2817.6491	1997.75	1116.95
1008.3914	2818.8167	1999	1119.9
1008.5101	2819.9837	2007.65	1123
1008.6288	2821.15	2004.45	1122.7
1008.7474	2822.3157	2007.3	1126.35
1008.8659	2823.4807	2006.8	1126.05
1008.9844	2824.645	2010.65	1128.25
1009.1029	2825.8086	2017.7	1137.3
1009.2214	2826.9716	2020.65	1141.95
1009.3398	2828.134	2028.1	1149.05
1009.4581	2829.2957	2025.3	1146.75
1009.5764	2830.4567	2031.95	1153.3
1009.6947	2831.617	2036.95	1155.9
1009.813	2832.7767	2034.9	1154.45
1009.9312	2833.9358	2030	1149.5
1010.0493	2835.0941	2027.65	1145.2
1010.1675	2836.2519	2012.4	1133.05
1010.2855	2837.4089	2014.1	1135.85
1010.4036	2838.5653	2007.5	1128.75
1010.5216	2839.7211	2001.4	1122.55
1010.6396	2840.8761	1993	1110.25
1010.7575	2842.0306	1977.85	1098.15
1010.8754	2843.1843	1981.45	1102.1
1010.9932	2844.3374	1978.55	1099.85
1011.111	2845.4899	1975.8	1095.35
1011.2288	2846.6417	1979.55	1100.25
1011.3465	2847.7928	1983.95	1106.2
1011.4642	2848.9433	1970.25	1090.3
1011.5818	2850.0931	1965.85	1085.45
1011.6995	2851.2422	1972.45	1090.55
1011.817	2852.3907	1967.85	1087.55
1011.9345	2853.5385	1978.45	1098.4
1012.052	2854.6857	1980.3	1091.9
1012.1695	2855.8323	1956.1	1075.8
1012.2869	2856.9781	1953.6	1073.5
1012.4042	2858.1233	1960.15	1079.75
1012.5216	2859.2679	1958.5	1078.05
1012.6389	2860.4118	1961.55	1080.65
1012.7561	2861.555	1953.95	1068.7
1012.8733	2862.6976	1954.4	1074.55
1012.9905	2863.8395	1964.95	1083.95
1013.1076	2864.9808	1956.25	1074.85
1013.2247	2866.1214	1957.65	1078.1
1013.3417	2867.2614	1954.95	1074.1
1013.4587	2868.4007	1960.5	1079.4
1013.5757	2869.5393	1951.9	1068.55
1013.6926	2870.6773	1941.85	1061.05
1013.8095	2871.8146	1950.7	1068.15
1013.9263	2872.9513	1940.05	1057.35
1014.0431	2874.0874	1932.35	1051.35
1014.1599	2875.2227	1944	1062.8
1014.2766	2876.3574	1933.05	1051.6
1014.3933	2877.4915	1939.5	1059.45
1014.51	2878.6249	1927.55	1047.7
1014.6266	2879.7577	1932.45	1050.5
1014.7431	2880.8898	1934.6	1043.55
1014.8596	2882.0212	1925.6	1047.25
1014.9761	2883.152	1921.75	1041.6
1015.0925	2884.2821	1909.5	1029.15
1015.2089	2885.4116	1918.2	1037.65
1015.3253	2886.5405	1919.35	1036.6
1015.4416	2887.6686	1924.35	1040.6
1015.5579	2888.7962	1902.6	1022.6
1015.6741	2889.923	1892	1012.85
1015.7903	2891.0493	1899.45	1020.8
1015.9065	2892.1748	1894	1014.3
1016.0226	2893.2997	1891.2	1009.4
1016.1387	2894.424	1878.85	999.05
1016.2547	2895.5476	1891.3	1010.45
1016.3707	2896.6706	1879.55	1002.15
1016.4866	2897.7929	1878.85	997.85
1016.6025	2898.9145	1862.8	981.4
1016.7184	2900.0355	1870.7	990.05
1016.8342	2901.1559	1857.4	974.7
1016.95	2902.2756	1863.75	985.25
1017.0658	2903.3946	1852.2	971.5
1017.1815	2904.513	1851.75	969
1017.2971	2905.6308	1845.1	965.2
1017.4127	2906.7479	1836.5	954.75
1017.5283	2907.8643	1833.25	951.7
1017.6439	2908.9801	1830	948.65
1017.7594	2910.0953	1834	954.35
1017.8748	2911.2098	1832.75	949.55
1017.9902	2912.3236	1824.85	938.25
1018.1056	2913.4368	1820.8	936.1
1018.2209	2914.5494	1814	934.15
1018.3362	2915.6613	1811.65	922.5
1018.4515	2916.7725	1803.65	922.35
1018.5667	2917.8831	1802.5	921.95
1018.6819	2918.9931	1802.3	919.8
1018.797	2920.1024	1784.1	903.25
1018.9121	2921.211	1780.05	900.35
1019.0271	2922.319	1773.75	892.55
1019.1421	2923.4264	1773.9	895.4
1019.2571	2924.5331	1764.55	885.85
1019.372	2925.6391	1767.5	887.15
1019.4869	2926.7445	1761.2	881.95
1019.6017	2927.8493	1761.05	880.15
1019.7165	2928.9534	1753.8	872.4
1019.8313	2930.0569	1758	875.3
1019.946	2931.1597	1757.95	877
1020.0606	2932.2619	1756.8	875.5
1020.1753	2933.3634	1748.4	867.25
1020.2899	2934.4643	1757.5	872.2
1020.4044	2935.5645	1763.4	875.95
1020.5189	2936.6641	1756.3	872.6
1020.6334	2937.763	1737.75	860.05
1020.7478	2938.8613	1738.6	858.9
1020.8622	2939.959	1742.45	857.05
1020.9765	2941.056	1726.15	847.95
1021.0908	2942.1523	1713.75	831.55
1021.2051	2943.248	1711.45	830.3
1021.3193	2944.3431	1693.35	812.45
1021.4334	2945.4375	1683.15	802.3
1021.5476	2946.5313	1676.85	800.1
1021.6617	2947.6244	1666.8	785.65
1021.7757	2948.7169	1654.65	774.75
1021.8897	2949.8087	1646.4	766.3
1022.0037	2950.8999	1634	753.45
1022.1176	2951.9904	1626.7	747.1
1022.2315	2953.0803	1622.95	742.9
1022.3453	2954.1696	1611.25	730.2
1022.4591	2955.2582	1605.5	724.05
1022.5728	2956.3462	1604.3	726.25
1022.6865	2957.4335	1593.8	711.45
1022.8002	2958.5202	1597.6	715.1
1022.9138	2959.6062	1588.4	709.3
1023.0274	2960.6916	1584.6	704.55
1023.141	2961.7764	1577.65	697.4
1023.2545	2962.8605	1579.85	698.8
1023.3679	2963.9439	1566.4	686.25
1023.4813	2965.0267	1577.15	695.75
1023.5947	2966.1089	1591.1	688.7
1023.708	2967.1905	1564.35	685.35
1023.8213	2968.2714	1559.25	678.95
1023.9346	2969.3516	1559.35	679.6
1024.0478	2970.4312	1557.45	670.8
1024.1609	2971.5102	1539.85	659.6
1024.274	2972.5885	1543.5	663.95
1024.3871	2973.6662	1546.05	661.85
1024.5002	2974.7432	1542.75	664.75
1024.6132	2975.8196	1542.6	662.6
1024.7261	2976.8954	1533.75	655.35
1024.839	2977.9705	1533.55	653.35
1024.9519	2979.045	1540.9	662.35
1025.0647	2980.1188	1522.8	644.05
1025.1775	2981.192	1522.7	643.4
1025.2902	2982.2645	1523.9	642.9
1025.4029	2983.3364	1514.95	634.95
1025.5156	2984.4077	1509.15	629.45
1025.6282	2985.4783	1506.5	622.7
1025.7407	2986.5483	1500.35	619.95
1025.8532	2987.6177	1497.35	617.9
1025.9657	2988.6864	1489.4	608.15
1026.0782	2989.7545	1492.25	611.65
1026.1906	2990.8219	1485.8	608.2
1026.3029	2991.8887	1478.85	598.2
1026.4152	2992.9548	1472.55	593.2
1026.5275	2994.0204	1475.1	595.75
1026.6397	2995.0852	1462.5	583.85
1026.7519	2996.1495	1459.25	579.4
1026.864	2997.2131	1456.3	577.2
1026.9761	2998.276	1456.95	578.3
1027.0882	2999.3383	1450.85	571.7
1027.2002	3000.4	1443	561.2
1027.3122	3001.4611	1434.25	553.85
1027.4241	3002.5215	1431.5	550.2
1027.536	3003.5812	1422	541.05
1027.6478	3004.6404	1424.1	543.6
1027.7596	3005.6989	1421.15	539.5
1027.8714	3006.7567	1422.35	543.75
1027.9831	3007.8139	1442.9	539.4
1028.0947	3008.8705	1416.25	537.1
1028.2064	3009.9264	1417.9	533.8
1028.3179	3010.9818	1403.55	524.15
1028.4295	3012.0364	1400.05	520.15
1028.541	3013.0905	1403.2	522.85
1028.6524	3014.1439	1397.15	515.85
1028.7638	3015.1966	1398.6	518.7
1028.8752	3016.2487	1391.3	512.5
1028.9865	3017.3002	1399.25	515.6
1029.0978	3018.3511	1396.3	517.75
1029.209	3019.4013	1395.75	517.65
1029.3202	3020.4509	1393.7	513.3
1029.4314	3021.4998	1388.35	508.8
1029.5425	3022.5481	1380.45	500.4
1029.6535	3023.5958	1374.35	492.05
1029.7645	3024.6428	1381.6	502
1029.8755	3025.6892	1372.7	493.05
1029.9864	3026.735	1370.4	491.3
1030.0973	3027.7802	1370.9	490.7
1030.2082	3028.8247	1372.65	490.55
1030.319	3029.8685	1365.7	486.4
1030.4297	3030.9118	1361.1	479.45
1030.5404	3031.9544	1358.1	479.6
1030.6511	3032.9963	1355.9	476.4
1030.7617	3034.0376	1360.05	479.5
1030.8723	3035.0783	1358.2	475.3
1030.9829	3036.1184	1345.45	466
1031.0934	3037.1578	1348.6	469.35
1031.2038	3038.1966	1348.3	469.4
1031.3142	3039.2348	1340.7	461.75
1031.4246	3040.2723	1356.3	466.4
1031.5349	3041.3092	1343.9	462.65
1031.6452	3042.3455	1344.45	463.85
1031.7554	3043.3811	1339.05	458.65
1031.8656	3044.4161	1335.15	455.1
1031.9758	3045.4505	1336.2	458.1
1032.0859	3046.4842	1339.9	459.8
1032.1959	3047.5173	1321	443.35
1032.3059	3048.5498	1335.85	454.75
1032.4159	3049.5816	1331.5	450.6
1032.5258	3050.6128	1334.1	454.15
1032.6357	3051.6434	1327.8	448.4
1032.7455	3052.6734	1325.8	442.65
1032.8553	3053.7027	1323.75	442.75
1032.9651	3054.7314	1321.05	442.9
1033.0748	3055.7594	1314.45	434.45
1033.1845	3056.7868	1317.3	436.3
1033.2941	3057.8136	1316.75	438.55
1033.4037	3058.8398	1316.25	437.85
1033.5132	3059.8653	1316.45	435.9
1033.6227	3060.8902	1306.7	424.75
1033.7321	3061.9145	1313.8	433.45
1033.8415	3062.9381	1317.35	440.35
1033.9509	3063.9612	1323.15	427.55
1034.0602	3064.9835	1303.1	422.95
1034.1694	3066.0053	1306.45	423.25
1034.2787	3067.0264	1302.25	422.95
1034.3878	3068.0469	1305.8	424.75
1034.497	3069.0668	1299.55	416.75
1034.6061	3070.086	1300.25	421.35
1034.7151	3071.1046	1291.1	411.1
1034.8241	3072.1226	1292.95	416
1034.9331	3073.1399	1290.9	411.05
1035.042	3074.1567	1287.5	408.95
1035.1508	3075.1727	1285.95	404.35
1035.2597	3076.1882	1290.05	410.3
1035.3684	3077.203	1283.2	402.35
1035.4772	3078.2173	1285.4	402.2
1035.5859	3079.2308	1284.6	403.2
1035.6945	3080.2438	1277.15	394.35
1035.8031	3081.2561	1278.1	397.8
1035.9117	3082.2678	1271.7	393
1036.0202	3083.2789	1272.65	392.35
1036.1286	3084.2893	1264.25	385.05
1036.2371	3085.2991	1266.4	386.3
1036.3454	3086.3083	1266.75	381.1
1036.4538	3087.3169	1264.05	382.35
1036.562	3088.3248	1261.95	380.7
1036.6703	3089.3321	1258.6	377.25
1036.7785	3090.3388	1253.3	374.9
1036.8866	3091.3449	1255.25	375.45
1036.9948	3092.3503	1256.8	373.8
1037.1028	3093.3551	1244.5	367.7
1037.2108	3094.3593	1252.3	372.9
1037.3188	3095.3629	1246.5	367.95
1037.4267	3096.3658	1244.7	363.4
1037.5346	3097.3681	1241.6	361.55
1037.6425	3098.3698	1245	364.05
1037.7503	3099.3708	1245.65	358.2
1037.858	3100.3713	1233.95	356
1037.9657	3101.3711	1235.15	355.15
1038.0734	3102.3702	1365.8	348.65
1038.181	3103.3688	1233.15	351.15
1038.2886	3104.3667	1220.9	341.95
1038.3961	3105.364	1227.55	349
1038.5036	3106.3607	1225.95	344.6
1038.611	3107.3568	1223.6	341.5
1038.7184	3108.3522	1221.1	341.8
1038.8257	3109.347	1219.65	340
1038.933	3110.3412	1220.95	336.15
1039.0403	3111.3348	1218.1	339.35
1039.1475	3112.3277	1216.25	337.95
1039.2547	3113.32	1208.85	328.75
1039.3618	3114.3117	1207.3	326.95
1039.4689	3115.3028	1206.95	327.7
1039.5759	3116.2932	1199.4	319.85
1039.6829	3117.2831	1205.6	320.9
1039.7898	3118.2723	1204.5	325.05
1039.8967	3119.2608	1201.55	320.05
1040.0035	3120.2488	1200.5	320.15
1040.1103	3121.2361	1192.85	311.5
1040.2171	3122.2229	1198.15	317.6
1040.3238	3123.209	1192.55	312.65
1040.4305	3124.1944	1194.85	315.35
1040.5371	3125.1793	1194.85	313.25
1040.6437	3126.1635	1183.8	304.3
1040.7502	3127.1471	1182.6	304.15
1040.8567	3128.1301	1184.85	304.1
1040.9631	3129.1125	1185.6	306.1
1041.0695	3130.0942	1179.3	299.6
1041.1759	3131.0753	1191.5	305.3
1041.2822	3132.0558	1181	299.05
1041.3884	3133.0357	1176.8	295.55
1041.4946	3134.015	1174.2	294.2
1041.6008	3134.9936	1171.6	289.35
1041.7069	3135.9716	1196.25	295.85
1041.813	3136.949	1166.25	286.25
1041.919	3137.9258	1177.1	291.65
1042.025	3138.902	1174.5	292.3
1042.1309	3139.8775	1168.35	289
1042.2368	3140.8524	1168	287.7
1042.3427	3141.8267	1171.05	290.5
1042.4485	3142.8004	1166.35	286.7
1042.5542	3143.7735	1164.25	279.45
1042.6599	3144.7459	1163.55	283
1042.7656	3145.7178	1161.85	280.3
1042.8712	3146.689	1158.35	279.35
1042.9768	3147.6596	1156.05	271.8
1043.0823	3148.6295	1158.65	277.6
1043.1878	3149.5989	1155.9	275.3
1043.2932	3150.5676	1153.05	274.7
1043.3986	3151.5357	1155.9	278
1043.5039	3152.5032	1148.8	269.6
1043.6092	3153.4701	1148.6	270.5
1043.7145	3154.4364	1149.55	266.45
1043.8197	3155.402	1147.25	268.65
1043.9248	3156.367	1149.35	265.65
1044.03	3157.3315	1182.95	264.25
1044.135	3158.2952	1140.95	260.9
1044.24	3159.2584	1136.95	255.65
1044.345	3160.221	1140.1	259.15
1044.4499	3161.1829	1136.9	256.15
1044.5548	3162.1442	1138.45	258.05
1044.6596	3163.105	1133.5	254.35
1044.7644	3164.065	1132.55	252
1044.8692	3165.0245	1133.85	251.35
1044.9739	3165.9834	1130.55	250.4
1045.0785	3166.9416	1130.4	249.2
1045.1831	3167.8993	1124.95	245.85
1045.2877	3168.8563	1124.85	244.9
1045.3922	3169.8127	1126.9	247.25
1045.4966	3170.7684	1123.35	242.45
1045.6011	3171.7236	1122	240.8
1045.7054	3172.6782	1121.05	241.9
1045.8098	3173.6321	1117	236.8
1045.914	3174.5854	1119.15	234.45
1046.0183	3175.5381	1117.85	238.05
1046.1224	3176.4902	1115.6	235.15
1046.2266	3177.4417	1114.95	234.15
1046.3307	3178.3926	1109.2	232.3
1046.4347	3179.3428	1108.15	227.8
1046.5387	3180.2924	1107.3	228.2
1046.6427	3181.2415	1102.6	221.35
1046.7466	3182.1899	1105.65	224.2
1046.8504	3183.1377	1105.1	224.85
1046.9542	3184.0848	1111.4	227.65
1047.058	3185.0314	1103.85	223.3
1047.1617	3185.9773	1106.9	227.6
1047.2654	3186.9227	1097.9	217.25
1047.369	3187.8674	1100.15	219.95
1047.4726	3188.8115	1104.2	219.45
1047.5761	3189.755	1098.4	221.4
1047.6796	3190.6979	1095.4	216.05
1047.783	3191.6402	1089.15	209.05
1047.8864	3192.5818	1095.35	216.8
1047.9898	3193.5229	1100.4	214.85
1048.0931	3194.4633	1092.9	213.35
1048.1963	3195.4031	1094.45	214.5
1048.2995	3196.3423	1089.75	211.25
1048.4027	3197.2809	1090.75	211.6
1048.5058	3198.2189	1089.25	208.5
1048.6089	3199.1563	1094.7	206.75
1048.7119	3200.0931	1083.75	204.45
1048.8148	3201.0292	1088.25	208.6
1048.9178	3201.9648	1083.1	203.5
1049.0206	3202.8997	1084.8	201.25
1049.1235	3203.834	1079.05	199.1
1049.2262	3204.7677	1081.75	201.7
1049.329	3205.7008	1082.4	202.45
1049.4317	3206.6333	1075.8	198.05
1049.5343	3207.5652	1081.35	198.6
1049.6369	3208.4964	1078.25	197.2
1049.7394	3209.4271	1071.6	193.9
1049.8419	3210.3571	1076.75	198.25
1049.9444	3211.2865	1071.65	190.7
1050.0468	3212.2154	1074	194.1
1050.1491	3213.1436	1073.85	190.4
1050.2514	3214.0712	1077.35	190.15
1050.3537	3214.9982	1070	190.95
1050.4559	3215.9246	1069.7	187.95
1050.5581	3216.8503	1069	189.65
1050.6602	3217.7755	1067.8	188.75
1050.7623	3218.7001	1064.95	185.65
1050.8643	3219.624	1069.7	188.9
1050.9663	3220.5473	1059.15	179.35
1051.0682	3221.4701	1064.85	186.15
1051.1701	3222.3922	1063.4	181.75
1051.2719	3223.3137	1060.7	181.05
1051.3737	3224.2346	1061.75	180.6
1051.4754	3225.1549	1057.65	178
1051.5771	3226.0746	1058.7	178.85
1051.6788	3226.9937	1057.5	176.7
1051.7804	3227.9121	1056.55	177
1051.8819	3228.83	1051	169.95
1051.9834	3229.7473	1052.2	173.75
1052.0849	3230.6639	1051.9	172.05
1052.1863	3231.5799	1051.15	171.45
1052.2876	3232.4954	1051.45	172.45
1052.3889	3233.4102	1053.75	174.9
1052.4902	3234.3244	1052.8	172.4
1052.5914	3235.238	1048.3	170.95
1052.6926	3236.151	1072	167.4
1052.7937	3237.0634	1048.95	171.85
1052.8948	3237.9752	1047.7	168.1
1052.9958	3238.8864	1040.35	160.35
1053.0968	3239.797	1042.8	163.05
1053.1977	3240.7069	1046.1	165.8
1053.2986	3241.6163	1046.65	166.05
1053.3994	3242.5251	1041.45	163.45
1053.5002	3243.4332	1039.05	159.65
1053.6009	3244.3408	1043.5	165
1053.7016	3245.2477	1034.9	154.7
1053.8022	3246.154	1039.55	160.4
1053.9028	3247.0598	1035.95	154.8
1054.0034	3247.9649	1031.9	150.95
1054.1039	3248.8694	1032.8	150.2
1054.2043	3249.7733	1033.1	151.65
1054.3047	3250.6766	1027.9	147.65
1054.4051	3251.5793	1036.8	155.25
1054.5054	3252.4814	1032	153
1054.6056	3253.3829	1024.8	145.2
1054.7058	3254.2838	1026.25	146.25
1054.806	3255.1841	1030.35	150.3
1054.9061	3256.0838	1027.1	147.6
1055.0061	3256.9829	1023.6	145.35
1055.1062	3257.8814	1024.65	143.7
1055.2061	3258.7792	1024.6	142.45
1055.306	3259.6765	1021.25	141.4
1055.4059	3260.5731	1013.75	133.55
1055.5057	3261.4692	1016.6	136.85
1055.6055	3262.3647	1016.95	137.25
1055.7052	3263.2595	1011.95	130.15
1055.8049	3264.1538	1012.4	134.4
1055.9045	3265.0474	1011.2	130.7
1056.0041	3265.9404	1010.85	131.9
1056.1036	3266.8329	1005	126.3
1056.2031	3267.7247	1014.65	124.9
1056.3025	3268.616	1001.9	124.2
1056.4019	3269.5066	997.65	117.3
1056.5013	3270.3966	998.3	115.35
1056.6005	3271.286	988.75	108.65
