Software Version:	3.9.2.0
Unit SN:	10000200
Spectrometer SN:	6960
Date:	3/6/2024 10:42:20 AM
Data Line Index:	25
Spectral Points:	2048
Integration time (ms):	125
Averages:	20
Delay (ms):	30
Sequence Number:	1
Processing:	dark subtract
Laser Power (mW):	305
Laser Current (mA):	821
Laser Diode Temp (C):	25.1
Laser Case Temp (C):	27
System Temp (C):	26.9
Spectrometer Temp (C):	24.2
CCD Temp (C):	-0.005
Secondary Temp (C):	20.013
Heatsink Temp (C):	22.586
CCDPCB Temp (C):	36.418
SecondaryPCB Temp (C):	33.572

Wavelength	RamanShift	Raw Counts	Dark Subtracted
787.061	30.1047	1121.95	709.2
787.2016	32.3739	1152.6	741.25
787.3422	34.6426	1193.1	779.35
787.4828	36.9109	1248.2	833.95
787.6235	39.1787	1304.2	884.45
787.7642	41.4461	1366	942.75
787.9049	43.7131	1424.15	997.05
788.0456	45.9796	1487.4	1059.15
788.1863	48.2456	1557.05	1123.15
788.3271	50.5112	1626.05	1189.9
788.4679	52.7764	1695.45	1255.85
788.6087	55.0411	1776.2	1333.6
788.7496	57.3054	1857.85	1408.95
788.8904	59.5692	1941.35	1491.05
789.0313	61.8326	2051.9	1597.55
789.1722	64.0955	2156.5	1697.9
789.3132	66.3579	2288.05	1825.15
789.4541	68.6199	2431.85	1965.25
789.5951	70.8815	2669.65	2200.3
789.7361	73.1426	3190.9	2716
789.8771	75.4032	4487.9	4009.8
790.0181	77.6634	7848.5	7364.85
790.1592	79.9231	16551.7	16061.1
790.3003	82.1824	54153.9	53652.45
790.4414	84.4412	65535	65015.95
790.5825	86.6995	65535	64986.4
790.7237	88.9574	65535	64962.05
790.8648	91.2148	65535	64943.1
791.006	93.4717	65535	64932.8
791.1472	95.7282	65535	64927.05
791.2885	97.9842	65535	64923.75
791.4297	100.2398	65535	64918.7
791.571	102.4949	65535	64917.8
791.7123	104.7495	65535	64911.45
791.8536	107.0036	65535	64911.6
791.9949	109.2573	65535	64915.85
792.1363	111.5105	65535	64912.55
792.2777	113.7632	65535	64908.75
792.4191	116.0154	65535	64901.35
792.5605	118.2672	65535	64903.95
792.7019	120.5185	65535	64905.35
792.8434	122.7693	65535	64905.7
792.9849	125.0197	65535	64900.75
793.1264	127.2696	65535	64896.8
793.2679	129.519	65535	64891.35
793.4094	131.7679	65535	64888.5
793.551	134.0163	65535	64883.65
793.6926	136.2642	65535	64881
793.8342	138.5117	65535	64872.15
793.9758	140.7587	65535	64878.1
794.1175	143.0052	65535	64878.35
794.2591	145.2512	65535	64875.3
794.4008	147.4967	65535	64873.95
794.5425	149.7417	65535	64870.2
794.6842	151.9863	65535	64866.8
794.826	154.2304	65535	64869.25
794.9677	156.4739	65535	64860.4
795.1095	158.717	65535	64862.1
795.2513	160.9596	65535	64855.9
795.3931	163.2017	65535	64853.9
795.535	165.4433	65535	64849.65
795.6768	167.6844	65535	64848.5
795.8187	169.925	65535	64847.95
795.9606	172.1651	65535	64845.7
796.1025	174.4047	65535	64838.2
796.2445	176.6439	65535	64840.1
796.3864	178.8825	65535	64834.2
796.5284	181.1206	65535	64832.15
796.6704	183.3582	65535	64829.05
796.8124	185.5954	65535	64826.75
796.9544	187.832	65535	64820.9
797.0965	190.0681	65535	64819.45
797.2386	192.3037	65535	64820.35
797.3806	194.5388	65535	64809.3
797.5228	196.7734	65535	64813.75
797.6649	199.0075	65535	64808.45
797.807	201.2411	65535	64810.95
797.9492	203.4742	65535	64809.95
798.0914	205.7068	65535	64803.4
798.2336	207.9389	65535	64801.8
798.3758	210.1704	65535	64799.95
798.518	212.4015	65535	64804
798.6603	214.632	65535	64809.6
798.8025	216.862	65535	64818.05
798.9448	219.0915	65535	64818.4
799.0871	221.3205	65535	64818.45
799.2294	223.549	65535	64825.65
799.3718	225.777	65535	64824.35
799.5141	228.0044	65535	64819.65
799.6565	230.2314	65535	64820.35
799.7989	232.4578	65535	64815.95
799.9413	234.6837	65535	64808.2
800.0837	236.909	65535	64805.5
800.2262	239.1339	65535	64780.95
800.3687	241.3582	65535	64798.3
800.5111	243.582	65535	64766.3
800.6536	245.8053	65535	64775.8
800.7961	248.0281	65535	64784.4
800.9387	250.2503	65535	64778.05
801.0812	252.472	65535	64772.2
801.2238	254.6932	65535	64775.6
801.3664	256.9139	65535	64770.35
801.509	259.134	65535	64768.55
801.6516	261.3536	65535	64775.4
801.7942	263.5727	65535	64771.1
801.9369	265.7912	65535	64770.5
802.0795	268.0092	65535	64769.3
802.2222	270.2267	65535	64768.75
802.3649	272.4436	65535	64767.7
802.5076	274.6601	65535	64760.3
802.6504	276.8759	65535	64766.35
802.7931	279.0913	65535	64758
802.9359	281.3061	65535	64761.55
803.0787	283.5204	65535	64758.4
803.2215	285.7341	65535	64756.15
803.3643	287.9473	65535	64739.2
803.5071	290.16	65535	64748.55
803.6499	292.3721	65535	64757.8
803.7928	294.5837	65535	64755.55
803.9357	296.7947	65535	64753.2
804.0786	299.0052	65535	64754.2
804.2215	301.2152	65535	64751
804.3644	303.4246	65535	64756.55
804.5074	305.6334	65535	64753.05
804.6503	307.8418	65535	64747.9
804.7933	310.0495	65535	64748.45
804.9363	312.2568	65535	64751.7
805.0793	314.4635	65535	64749.35
805.2223	316.6696	65535	64745.35
805.3653	318.8752	65535	64736.05
805.5084	321.0802	65535	64745.95
805.6514	323.2847	65535	64739.1
805.7945	325.4887	65535	64747.2
805.9376	327.692	65535	64742.15
806.0807	329.8949	65535	64739.45
806.2238	332.0972	65535	64738.35
806.367	334.2989	65535	64736.9
806.5101	336.5001	65535	64735.9
806.6533	338.7007	65535	64737.2
806.7965	340.9008	65535	64733.5
806.9397	343.1003	65535	64728.85
807.0829	345.2992	65535	64729
807.2261	347.4976	65535	64729.45
807.3693	349.6955	65535	64725.05
807.5126	351.8927	65535	64726.6
807.6559	354.0895	65535	64716
807.7991	356.2856	65535	64722
807.9424	358.4812	65535	64723.05
808.0857	360.6763	65535	64719.55
808.2291	362.8707	65535	64719.15
808.3724	365.0646	65535	64715.7
808.5158	367.258	65535	64717.85
808.6591	369.4508	65535	64716.1
808.8025	371.643	65535	64710.15
808.9459	373.8346	65535	64710.85
809.0893	376.0257	65535	64709.8
809.2327	378.2162	65535	64710
809.3762	380.4062	65535	64706.05
809.5196	382.5956	65535	64707.2
809.6631	384.7844	65535	64708.65
809.8066	386.9726	65535	64707.2
809.9501	389.1603	65535	64712.9
810.0936	391.3474	65535	64669.1
810.2371	393.5339	65535	64709
810.3806	395.7199	65535	64717.45
810.5241	397.9052	65535	64714.75
810.6677	400.09	65535	64713.9
810.8113	402.2743	65535	64712.6
810.9548	404.4579	65535	64714.65
811.0984	406.641	65535	64715.15
811.2421	408.8235	65535	64711
811.3857	411.0054	65535	64711.15
811.5293	413.1868	65535	64708.8
811.673	415.3675	65535	64705.55
811.8166	417.5477	65535	64708
811.9603	419.7273	65535	64698.25
812.104	421.9064	65535	64690
812.2477	424.0848	65535	64694.05
812.3914	426.2627	65535	64696
812.5351	428.4399	65535	64694.65
812.6788	430.6166	65535	64695.9
812.8226	432.7928	65535	64692.2
812.9663	434.9683	65535	64693.9
813.1101	437.1432	65535	64689.9
813.2539	439.3176	65535	64690.55
813.3977	441.4914	65535	64694.7
813.5415	443.6645	65535	64690.2
813.6853	445.8371	65535	64689.6
813.8291	448.0091	65535	64693.45
813.973	450.1806	65535	64689.6
814.1168	452.3514	65535	64688.75
814.2607	454.5216	65535	64680.45
814.4046	456.6913	65535	64690.25
814.5485	458.8603	65535	64689.8
814.6924	461.0288	65535	64687
814.8363	463.1967	65535	64689.2
814.9802	465.3639	65535	64685.1
815.1241	467.5306	65535	64683.35
815.2681	469.6967	65535	64687.95
815.412	471.8622	65535	64687.45
815.556	474.0271	65535	64685.75
815.7	476.1914	65535	64685
815.844	478.3551	65535	64684.95
815.988	480.5182	65535	64687
816.132	482.6807	65535	64680.3
816.276	484.8426	65535	64684.9
816.4201	487.0039	65535	64682.45
816.5641	489.1647	65535	64681.95
816.7082	491.3248	65535	64683.3
816.8522	493.4843	65535	64679.95
816.9963	495.6432	65535	64681.55
817.1404	497.8015	65535	64675.9
817.2845	499.9592	65535	64675.8
817.4286	502.1163	65535	64678.2
817.5727	504.2728	65535	64677.55
817.7168	506.4287	65535	64676.1
817.861	508.5839	65535	64679.7
818.0051	510.7386	65535	64677.7
818.1493	512.8927	65535	64672
818.2935	515.0461	65535	64675.7
818.4377	517.199	65535	64676.85
818.5818	519.3512	65535	64674.35
818.726	521.5029	65535	64668.65
818.8703	523.6539	65535	64674.35
819.0145	525.8043	65535	64670.25
819.1587	527.9541	65535	64669.6
819.303	530.1033	65535	64675.2
819.4472	532.2519	65535	64670.8
819.5915	534.3999	65535	64670.8
819.7357	536.5472	65535	64669.45
819.88	538.694	65535	64668.2
820.0243	540.8401	65535	64672.35
820.1686	542.9856	65535	64667.15
820.3129	545.1305	65535	64668.25
820.4572	547.2748	65535	64664.65
820.6016	549.4185	65535	64666.35
820.7459	551.5615	65535	64665.7
820.8902	553.704	65535	64664.85
821.0346	555.8458	65535	64666.1
821.1789	557.987	65535	64672.5
821.3233	560.1276	65535	64662.8
821.4677	562.2675	65535	64668.6
821.6121	564.4069	65535	64666
821.7565	566.5456	65535	64670.85
821.9009	568.6837	65535	64665.05
822.0453	570.8212	65535	64666.55
822.1897	572.958	65535	64664.5
822.3342	575.0942	65535	64666.35
822.4786	577.2299	65535	64665.85
822.6231	579.3648	65535	64667.95
822.7675	581.4992	65535	64666.15
822.912	583.6329	65535	64668.45
823.0565	585.766	65535	64667.9
823.201	587.8985	65535	64669.05
823.3454	590.0304	65535	64643.4
823.4899	592.1616	65535	64657.45
823.6345	594.2922	65535	64662.85
823.779	596.4222	65535	64659.3
823.9235	598.5515	65535	64656.3
824.068	600.6802	65535	64661.25
824.2126	602.8083	65535	64662.25
824.3571	604.9358	65535	64657.25
824.5017	607.0626	65535	64660.45
824.6462	609.1888	65535	64659.35
824.7908	611.3144	65535	64657.5
824.9354	613.4393	65535	64656.85
825.08	615.5636	65535	64658.8
825.2246	617.6873	65535	64659.3
825.3692	619.8103	65535	64658.1
825.5138	621.9327	65535	64656.7
825.6584	624.0544	65535	64659.2
825.803	626.1756	65535	64659.8
825.9477	628.2961	65535	64659.75
826.0923	630.4159	65535	64658.85
826.237	632.5351	65535	64655.3
826.3816	634.6537	65535	64656.35
826.5263	636.7716	65535	64655.55
826.6709	638.8889	65535	64651.3
826.8156	641.0056	65535	64653.85
826.9603	643.1216	65535	64650.6
827.105	645.237	65535	64652.5
827.2497	647.3518	65535	64652.9
827.3944	649.4659	65535	64657.3
827.5391	651.5793	65535	64651.25
827.6838	653.6922	65535	64654.55
827.8285	655.8043	65535	64653.55
827.9733	657.9159	65535	64653
828.118	660.0268	65535	64650.8
828.2627	662.137	65535	64649.45
828.4075	664.2466	65535	64651.55
828.5522	666.3556	65535	64650.6
828.697	668.4639	65535	64650.35
828.8418	670.5716	65535	64649.95
828.9865	672.6786	65535	64650.75
829.1313	674.785	65535	64646.6
829.2761	676.8907	65535	64645.3
829.4209	678.9958	65535	64652.95
829.5657	681.1002	65535	64650.55
829.7105	683.204	65535	64643.4
829.8553	685.3072	65535	64647.4
830.0001	687.4097	65535	64648.4
830.1449	689.5115	65535	64646
830.2898	691.6127	65535	64649.55
830.4346	693.7132	65535	64648.1
830.5794	695.8131	65535	64632.1
830.7243	697.9123	65535	64644.8
830.8691	700.0109	65535	64648.25
831.014	702.1089	65535	64646.85
831.1588	704.2061	65535	64645.85
831.3037	706.3028	65535	64646.25
831.4486	708.3987	65535	64642.7
831.5935	710.4941	65535	64646.65
831.7383	712.5887	65535	64643.55
831.8832	714.6827	65535	64640.05
832.0281	716.7761	65535	64646.6
832.173	718.8688	65535	64643.5
832.3179	720.9608	65535	64640.25
832.4628	723.0522	65535	64641.85
832.6077	725.1429	65535	64640.85
832.7527	727.233	65535	64643.85
832.8976	729.3224	65535	64642.8
833.0425	731.4112	65535	64642.15
833.1874	733.4993	65535	64641.6
833.3324	735.5867	65535	64642.7
833.4773	737.6735	65535	64640.8
833.6222	739.7596	65535	64641.45
833.7672	741.845	65535	64643.2
833.9122	743.9298	65535	64641.75
834.0571	746.014	65535	64641
834.2021	748.0974	65535	64639.45
834.347	750.1802	65535	64642.2
834.492	752.2624	65535	64641.35
834.637	754.3439	65535	64641.05
834.782	756.4247	65535	64634.55
834.9269	758.5048	65535	64644.5
835.0719	760.5843	65535	64639.8
835.2169	762.6631	65535	64641
835.3619	764.7413	65535	64637.65
835.5069	766.8188	65535	64638.8
835.6519	768.8956	65535	64638.4
835.7969	770.9718	65535	64641
835.9419	773.0473	65535	64640.5
836.0869	775.1221	65535	64638.85
836.232	777.1962	65535	64639.9
836.377	779.2697	65535	64638.8
836.522	781.3426	65535	64620.35
836.667	783.4147	65535	64639.9
836.8121	785.4862	65535	64641.2
836.9571	787.557	65535	64637.4
837.1021	789.6271	65535	64638.75
837.2472	791.6966	65535	64638.7
837.3922	793.7654	65535	64637.95
837.5373	795.8335	65535	64640.1
837.6823	797.901	65535	64638.95
837.8274	799.9678	65535	64637.3
837.9724	802.0339	65535	64642
838.1175	804.0993	65535	64628.05
838.2626	806.1641	65535	64637.4
838.4076	808.2282	65535	64638.45
838.5527	810.2916	65535	64634.5
838.6978	812.3544	65535	64640.15
838.8428	814.4164	65535	64640.5
838.9879	816.4778	65535	64636.05
839.133	818.5385	65535	64634.1
839.2781	820.5986	65535	64637
839.4232	822.658	65535	64638.25
839.5682	824.7166	65535	64638.05
839.7133	826.7747	65535	64638.5
839.8584	828.832	65535	64635.9
840.0035	830.8886	65535	64635.5
840.1486	832.9446	65535	64633
840.2937	834.9999	65535	64638.35
840.4388	837.0545	65535	64634.35
840.5839	839.1085	65535	64637.35
840.729	841.1618	65535	64631.05
840.8741	843.2143	65535	64635.05
841.0192	845.2662	65535	64636.95
841.1643	847.3175	65535	64639.25
841.3095	849.368	65535	64635.5
841.4546	851.4179	65535	64634.6
841.5997	853.467	65535	64637.75
841.7448	855.5155	65535	64636.95
841.8899	857.5633	65535	64635
842.0351	859.6105	65535	64636.85
842.1802	861.6569	65535	64635.55
842.3253	863.7027	65535	64634
842.4704	865.7478	65535	64635.6
842.6156	867.7922	65535	64635.3
842.7607	869.8359	65535	64635
842.9058	871.8789	65535	64633.2
843.0509	873.9212	65535	64601.3
843.1961	875.9629	65535	64636.9
843.3412	878.0039	65535	64632.7
843.4863	880.0441	65535	64638.85
843.6315	882.0837	65535	64634
843.7766	884.1226	65535	64632.75
843.9218	886.1609	65535	64634.75
844.0669	888.1984	65535	64639.3
844.212	890.2352	65535	64636.8
844.3572	892.2714	65535	64630.3
844.5023	894.3069	65535	64632.25
844.6475	896.3416	65535	64631.5
844.7926	898.3757	65535	64635.75
844.9377	900.4091	65535	64632.6
845.0829	902.4418	65535	64629.6
845.228	904.4739	65535	64632.95
845.3732	906.5052	65535	64633.7
845.5183	908.5358	65535	64636.7
845.6635	910.5658	65535	64630.4
845.8086	912.595	65535	64634.95
845.9538	914.6236	65535	64632.95
846.0989	916.6515	65535	64633.6
846.2441	918.6786	65535	64634.6
846.3892	920.7051	65535	64633.9
846.5344	922.7309	65535	64634.25
846.6795	924.756	65535	64631.35
846.8246	926.7804	65535	64629.65
846.9698	928.8041	65535	64629.5
847.1149	930.8272	65535	64633.05
847.2601	932.8495	65535	64629.95
847.4052	934.8711	65535	64633.7
847.5504	936.892	65535	64630.7
847.6955	938.9123	65535	64631.7
847.8407	940.9318	65535	64631.6
847.9858	942.9506	65535	64630.55
848.131	944.9688	65535	64631.65
848.2761	946.9862	65535	64630.7
848.4213	949.003	65535	64631.75
848.5664	951.019	65535	64632.25
848.7115	953.0344	65535	64632.25
848.8567	955.0491	65535	64632.2
849.0018	957.063	65535	64633.3
849.147	959.0763	65535	64630.6
849.2921	961.0888	65535	64629.05
849.4373	963.1007	65535	64634.45
849.5824	965.1119	65535	64634.05
849.7275	967.1223	65535	64633.3
849.8727	969.1321	65535	64636.9
850.0178	971.1412	65535	64631.7
850.1629	973.1495	65535	64633.1
850.3081	975.1572	65535	64585.65
850.4532	977.1641	65535	64634
850.5983	979.1704	65535	64631
850.7435	981.1759	65535	64627.35
850.8886	983.1808	65535	64629.25
851.0337	985.1849	65535	64620.05
851.1788	987.1884	65535	64630.1
851.324	989.1911	65535	64629.3
851.4691	991.1932	65535	64629.7
851.6142	993.1945	65535	64635.55
851.7593	995.1951	65535	64630.3
851.9045	997.1951	65535	64624.6
852.0496	999.1943	65535	64633.85
852.1947	1001.1928	65535	64629.95
852.3398	1003.1906	65535	64630.9
852.4849	1005.1877	65535	64632.95
852.63	1007.1841	65535	64633.15
852.7751	1009.1798	65535	64633
852.9202	1011.1748	65535	64630.95
853.0653	1013.1691	65535	64629.15
853.2104	1015.1627	65535	64632.2
853.3555	1017.1556	65535	64631.45
853.5006	1019.1477	65535	64629.55
853.6457	1021.1392	65535	64632.8
853.7908	1023.1299	65535	64634.85
853.9359	1025.12	65535	64632.8
854.081	1027.1093	65535	64636.7
854.2261	1029.0979	65535	64637.9
854.3712	1031.0859	65535	64635.45
854.5163	1033.0731	65535	64633.85
854.6613	1035.0596	65535	64633.2
854.8064	1037.0454	65535	64633.1
854.9515	1039.0304	65535	64633
855.0965	1041.0148	65535	64631.6
855.2416	1042.9985	65535	64629.1
855.3867	1044.9814	65535	64633.3
855.5317	1046.9636	65535	64630.3
855.6768	1048.9452	65535	64634.25
855.8219	1050.926	65535	64635.5
855.9669	1052.9061	65535	64634.5
856.112	1054.8855	65535	64631.8
856.257	1056.8642	65535	64633.05
856.4021	1058.8421	65535	64628.1
856.5471	1060.8194	65535	64630.85
856.6921	1062.7959	65535	64632.85
856.8372	1064.7717	65535	64630.45
856.9822	1066.7469	65535	64631.45
857.1272	1068.7213	65535	64629.2
857.2723	1070.695	65535	64633.1
857.4173	1072.6679	65535	64631.9
857.5623	1074.6402	65535	64630.9
857.7073	1076.6117	65535	64624.35
857.8523	1078.5826	65535	64628.45
857.9973	1080.5527	65535	64628.05
858.1423	1082.5221	65535	64631.05
858.2873	1084.4908	65535	64630.95
858.4323	1086.4587	65535	64630.1
858.5773	1088.426	65535	64629
858.7223	1090.3925	65535	64626.65
858.8673	1092.3584	65535	64630.5
859.0123	1094.3235	65535	64632.4
859.1573	1096.2879	65535	64631.7
859.3022	1098.2515	65535	64633.4
859.4472	1100.2145	65535	64630.55
859.5922	1102.1767	65535	64628.85
859.7371	1104.1382	65535	64633.95
859.8821	1106.099	65535	64629.1
860.027	1108.0591	65535	64635.1
860.172	1110.0185	65535	64631.85
860.3169	1111.9771	65535	64633.45
860.4619	1113.9351	65535	64630.8
860.6068	1115.8923	65535	64628.65
860.7517	1117.8488	65535	64629.7
860.8967	1119.8045	65535	64630.65
861.0416	1121.7596	65535	64631.1
861.1865	1123.7139	65535	64630.4
861.3314	1125.6675	65535	64632.1
861.4763	1127.6204	65535	64632.3
861.6212	1129.5726	65535	64633
861.7661	1131.524	65535	64630.9
861.911	1133.4748	65535	64630
862.0559	1135.4248	65535	64630.5
862.2008	1137.3741	65535	64631
862.3457	1139.3226	65535	64629.85
862.4905	1141.2705	65535	64630.35
862.6354	1143.2176	65535	64626.4
862.7803	1145.164	65535	64628.15
862.9251	1147.1097	65535	64634.85
863.07	1149.0546	65535	64630.55
863.2148	1150.9989	65535	64630.8
863.3597	1152.9424	65535	64632.45
863.5045	1154.8852	65535	64630.25
863.6493	1156.8272	65535	64632.2
863.7942	1158.7686	65535	64624.95
863.939	1160.7092	65535	64633.2
864.0838	1162.6491	65535	64629.2
864.2286	1164.5883	65535	64633
864.3734	1166.5267	65535	64632.2
864.5182	1168.4644	65535	64632.95
864.663	1170.4014	65535	64628.55
864.8078	1172.3377	65535	64632.7
864.9526	1174.2732	65535	64633.25
865.0974	1176.2081	65535	64632.9
865.2421	1178.1421	65535	64629.75
865.3869	1180.0755	65535	64631.45
865.5317	1182.0082	65535	64632.95
865.6764	1183.9401	65535	64631.65
865.8212	1185.8713	65535	64633.75
865.9659	1187.8017	65535	64635.05
866.1106	1189.7315	65535	64636.45
866.2554	1191.6605	65535	64603.1
866.4001	1193.5888	65535	64634.05
866.5448	1195.5163	65535	64632.7
866.6895	1197.4432	65535	64631.3
866.8342	1199.3693	65535	64632.2
866.9789	1201.2947	65535	64629.3
867.1236	1203.2193	65535	64631.3
867.2683	1205.1432	65535	64631.85
867.413	1207.0664	65535	64629.75
867.5576	1208.9889	65535	64632.8
867.7023	1210.9106	65535	64631.55
867.847	1212.8316	65535	64632.5
867.9916	1214.7519	65535	64623.4
868.1363	1216.6715	65535	64634.5
868.2809	1218.5903	65535	64632.05
868.4255	1220.5084	65535	64632.25
868.5701	1222.4257	65535	64631.15
868.7148	1224.3424	65535	64631.75
868.8594	1226.2583	65535	64627.8
869.004	1228.1735	65535	64630.9
869.1486	1230.0879	65535	64633.35
869.2932	1232.0016	65535	64633.6
869.4377	1233.9146	65535	64630.3
869.5823	1235.8269	65535	64631.75
869.7269	1237.7384	65535	64631.2
869.8715	1239.6492	65535	64633.3
870.016	1241.5592	65535	64632.35
870.1606	1243.4686	65535	64633.05
870.3051	1245.3772	65535	64632.2
870.4496	1247.285	65535	64632.3
870.5941	1249.1922	65535	64632.9
870.7387	1251.0986	65535	64632.45
870.8832	1253.0042	65535	64633.05
871.0277	1254.9092	65535	64630.75
871.1722	1256.8134	65535	64633.35
871.3167	1258.7169	65535	64631.9
871.4611	1260.6196	65535	64631.7
871.6056	1262.5216	65535	64630.5
871.7501	1264.4229	65535	64632.9
871.8945	1266.3234	65535	64633
872.039	1268.2232	65535	64632.35
872.1834	1270.1223	65535	64630.65
872.3278	1272.0207	65535	64630.95
872.4723	1273.9183	65535	64624.9
872.6167	1275.8151	65535	64632.6
872.7611	1277.7113	65535	64632.9
872.9055	1279.6067	65535	64632.65
873.0499	1281.5014	65535	64631.55
873.1943	1283.3953	65535	64629.3
873.3386	1285.2885	65535	64633.05
873.483	1287.181	65535	64634.65
873.6274	1289.0727	65535	64632.95
873.7717	1290.9637	65535	64633.45
873.9161	1292.854	65535	64633.7
874.0604	1294.7435	65535	64631.85
874.2047	1296.6323	65535	64631.1
874.349	1298.5204	65535	64629.55
874.4933	1300.4077	65535	64631.8
874.6376	1302.2943	65535	64633.35
874.7819	1304.1802	65535	64634
874.9262	1306.0653	65535	64631.05
875.0705	1307.9497	65535	64629.85
875.2147	1309.8333	65535	64631.65
875.359	1311.7162	65535	64633.7
875.5032	1313.5984	65535	64629.1
875.6475	1315.4798	65535	64618.45
875.7917	1317.3605	65535	64616.85
875.9359	1319.2405	65535	64630.6
876.0801	1321.1197	65535	64630.25
876.2243	1322.9982	65535	64627.5
876.3685	1324.876	65535	64632.5
876.5127	1326.753	65535	64631.75
876.6569	1328.6293	65535	64631.15
876.801	1330.5048	65535	64632.05
876.9452	1332.3796	65535	64631.3
877.0893	1334.2537	65535	64607.85
877.2335	1336.127	65535	64632.2
877.3776	1337.9996	65535	64633.7
877.5217	1339.8714	65535	64633.2
877.6658	1341.7426	65535	64589.7
877.8099	1343.6129	65535	64632.1
877.954	1345.4826	65535	64632.5
878.0981	1347.3515	65535	64629.9
878.2422	1349.2196	65535	64631.25
878.3862	1351.087	65535	64631.1
878.5303	1352.9537	65535	64631.55
878.6743	1354.8197	65535	64632.55
878.8184	1356.6849	65535	64634.1
878.9624	1358.5493	65535	64633.75
879.1064	1360.4131	65535	64634.3
879.2504	1362.276	65535	64633.45
879.3944	1364.1383	65535	64634.15
879.5384	1365.9998	65535	64628.2
879.6823	1367.8606	65535	64629.6
879.8263	1369.7206	65535	64633.3
879.9702	1371.5799	65535	64630.05
880.1142	1373.4384	65535	64633.3
880.2581	1375.2962	65535	64631.95
880.402	1377.1533	65535	64633.5
880.5459	1379.0096	65535	64632.05
880.6898	1380.8652	65535	64633.2
880.8337	1382.7201	65535	64633.2
880.9776	1384.5742	65535	64633.35
881.1215	1386.4275	65535	64628.65
881.2653	1388.2802	65535	64631.65
881.4092	1390.132	65535	64634.3
881.553	1391.9832	65535	64631.95
881.6968	1393.8336	65535	64631.4
881.8406	1395.6832	65535	64632.85
881.9844	1397.5322	65535	64632.45
882.1282	1399.3803	65535	64628.05
882.272	1401.2278	65535	64633
882.4158	1403.0745	65535	64631.3
882.5595	1404.9204	65535	64633.6
882.7033	1406.7656	65535	64634.4
882.847	1408.6101	65535	64634.5
882.9908	1410.4538	65535	64634.95
883.1345	1412.2968	65535	64633.15
883.2782	1414.139	65535	64632
883.4219	1415.9805	65535	64633.15
883.5656	1417.8213	65535	64627.95
883.7092	1419.6613	65535	64632.55
883.8529	1421.5006	65535	64632.8
883.9965	1423.3391	65535	64632.8
884.1402	1425.1769	65535	64630.6
884.2838	1427.0139	65535	64632.3
884.4274	1428.8502	65535	64630.85
884.571	1430.6858	65535	64633.3
884.7146	1432.5206	65535	64635.25
884.8582	1434.3547	65535	64632.5
885.0018	1436.188	65535	64634.7
885.1453	1438.0206	65535	64633.75
885.2889	1439.8524	65535	64634.45
885.4324	1441.6835	65535	64630.95
885.5759	1443.5139	65535	64630.05
885.7194	1445.3435	65535	64631.25
885.8629	1447.1724	65535	64634
886.0064	1449.0005	65535	64633.3
886.1499	1450.8279	65535	64632.8
886.2933	1452.6545	65535	64633.55
886.4368	1454.4804	65535	64634.65
886.5802	1456.3056	65535	64628.6
886.7237	1458.13	65535	64632.5
886.8671	1459.9536	65535	64633.95
887.0105	1461.7766	65535	64635.25
887.1539	1463.5987	65535	64635.6
887.2972	1465.4202	65535	64633.45
887.4406	1467.2409	65535	64634.05
887.584	1469.0608	65535	64634.85
887.7273	1470.88	65535	64630.2
887.8706	1472.6984	65535	64634
888.0139	1474.5161	65535	64630.5
888.1572	1476.3331	65535	64632.55
888.3005	1478.1493	65535	64633.35
888.4438	1479.9648	65535	64633.5
888.5871	1481.7795	65535	64635.1
888.7303	1483.5935	65535	64636.5
888.8736	1485.4067	65535	64634.35
889.0168	1487.2192	65535	64633.65
889.16	1489.031	65535	64632.3
889.3032	1490.842	65535	64633.5
889.4464	1492.6522	65535	64634.05
889.5896	1494.4618	65535	64633.9
889.7327	1496.2705	65535	64634.15
889.8759	1498.0785	65535	64634.5
890.019	1499.8858	65535	64633.2
890.1622	1501.6924	65535	64633.95
890.3053	1503.4981	65535	64635.15
890.4484	1505.3032	65535	64631.95
890.5914	1507.1075	65535	64633.65
890.7345	1508.911	65535	64631.75
890.8776	1510.7138	65535	64630.65
891.0206	1512.5159	65535	64633.6
891.1637	1514.3172	65535	64636.35
891.3067	1516.1178	65535	64637.2
891.4497	1517.9176	65535	64632.15
891.5927	1519.7166	65535	64634.25
891.7357	1521.515	65535	64627.1
891.8786	1523.3126	65535	64635
892.0216	1525.1094	65535	64633.35
892.1645	1526.9055	65535	64635.8
892.3074	1528.7008	65535	64636.75
892.4503	1530.4954	65535	64629.75
892.5932	1532.2893	65535	64635.4
892.7361	1534.0824	65535	64631.85
892.879	1535.8747	65535	64635.05
893.0218	1537.6663	65535	64634.2
893.1647	1539.4572	65535	64634.9
893.3075	1541.2473	65535	64635.4
893.4503	1543.0367	65535	64635
893.5931	1544.8253	65535	64629.75
893.7359	1546.6132	65535	64632.35
893.8787	1548.4003	65535	64624.3
894.0214	1550.1867	65535	64627.6
894.1642	1551.9723	65535	64632.75
894.3069	1553.7572	65535	64634.55
894.4496	1555.5414	65535	64636.4
894.5923	1557.3247	65535	64635.4
894.735	1559.1074	65535	64635.95
894.8777	1560.8893	65535	64637.7
895.0204	1562.6705	65535	64637.15
895.163	1564.4509	65535	64636.45
895.3056	1566.2305	65535	64636.35
895.4482	1568.0094	65535	64637
895.5908	1569.7876	65535	64637.45
895.7334	1571.565	65535	64635.5
895.876	1573.3417	65535	64636.1
896.0186	1575.1176	65535	64637.8
896.1611	1576.8928	65535	64637.3
896.3036	1578.6672	65531.3	64634.05
896.4461	1580.4409	65535	64638.55
896.5886	1582.2138	65525.85	64627.55
896.7311	1583.986	65531.15	64629.75
896.8736	1585.7575	65515.85	64619.65
897.0161	1587.5282	65526.85	64630.4
897.1585	1589.2981	65525	64627.85
897.3009	1591.0673	65502.35	64604.85
897.4433	1592.8358	65457.1	64560.75
897.5857	1594.6035	65507.85	64610.05
897.7281	1596.3704	65503.6	64606
897.8705	1598.1366	65397.15	64499.25
898.0128	1599.9021	65321.25	64426.25
898.1551	1601.6668	65468.8	64569.9
898.2975	1603.4308	65406.65	64507.95
898.4398	1605.194	65405.65	64504.45
898.5821	1606.9564	65170.7	64274.4
898.7243	1608.7182	65311.6	64411.8
898.8666	1610.4791	65183.45	64288.45
899.0088	1612.2394	65333.45	64439.55
899.1511	1613.9988	65085.8	64190.45
899.2933	1615.7576	65344.15	64450
899.4355	1617.5156	65342.65	64439.85
899.5776	1619.2728	65462.95	64564.55
899.7198	1621.0293	65189.6	64292.95
899.862	1622.785	65192.8	64289.75
900.0041	1624.54	65305.2	64404.55
900.1462	1626.2942	65088.65	64192.05
900.2883	1628.0477	64601.5	63702.8
900.4304	1629.8005	63978.45	63080.2
900.5725	1631.5525	64676.25	63780.2
900.7145	1633.3037	63703.9	62806.8
900.8566	1635.0542	63519.7	62624.3
900.9986	1636.804	64058.2	63162.95
901.1406	1638.553	62897.8	61921.05
901.2826	1640.3013	63249.75	62352.45
901.4245	1642.0488	62510.95	61613.9
901.5665	1643.7955	63107	62212.55
901.7085	1645.5416	62585.35	61690.55
901.8504	1647.2868	62009.8	61112.05
901.9923	1649.0313	62917.25	62022
902.1342	1650.7751	62408.05	61509
902.2761	1652.5181	62017.8	61122.35
902.4179	1654.2604	62116.15	61220
902.5598	1656.0019	62489.4	61591.8
902.7016	1657.7427	62268.4	61371.7
902.8434	1659.4828	62918.95	62021.95
902.9852	1661.222	62346.9	61449.75
903.127	1662.9606	63073.5	62179.4
903.2687	1664.6984	62082.1	61184.85
903.4105	1666.4354	62399.1	61503.4
903.5522	1668.1717	61194.4	60297.95
903.6939	1669.9072	60213.15	59317.3
903.8356	1671.642	60045	59147.7
903.9773	1673.3761	59707	58810.8
904.119	1675.1094	59485.4	58590.6
904.2606	1676.8419	58799.7	57905.5
904.4022	1678.5737	58803.4	57908.65
904.5439	1680.3048	58370.65	57475.25
904.6855	1682.0351	58032.05	57135.85
904.827	1683.7646	57694.1	56796
904.9686	1685.4934	57930.5	57036.5
905.1101	1687.2215	56757.25	55860.75
905.2517	1688.9488	57462	56567.15
905.3932	1690.6754	55827	54932.85
905.5347	1692.4012	56470.65	55578.6
905.6761	1694.1263	56407.3	55512.15
905.8176	1695.8506	55928.55	55030.85
905.9591	1697.5742	55823.9	54929.6
906.1005	1699.297	55555.15	54662.1
906.2419	1701.0191	55539.25	54644.55
906.3833	1702.7404	54929.25	54034.1
906.5246	1704.461	54621.15	53726.4
906.666	1706.1808	54666.45	53769.6
906.8073	1707.8999	54566.65	53670.5
906.9487	1709.6182	54222.85	53330.3
907.09	1711.3358	54208.8	53313.75
907.2313	1713.0527	53956.75	53061.85
907.3725	1714.7688	53904.95	53002.85
907.5138	1716.4841	53232.8	52339.5
907.655	1718.1987	53408.6	52509.55
907.7962	1719.9126	53114.3	52222.3
907.9374	1721.6257	53011.5	52115.65
908.0786	1723.338	53050.15	52154.85
908.2198	1725.0496	52305	51410.45
908.3609	1726.7605	52272.25	51378.2
908.502	1728.4706	52052.95	51156.7
908.6431	1730.18	51888.85	50990.55
908.7842	1731.8886	51737.55	50844.2
908.9253	1733.5964	51549.5	50634.75
909.0664	1735.3036	51587.4	50692.65
909.2074	1737.0099	51363.45	50470.35
909.3484	1738.7156	51116.5	50223.2
909.4894	1740.4204	50838.7	49942.65
909.6304	1742.1246	50845.35	49949.05
909.7714	1743.8279	50738.1	49843.95
909.9123	1745.5306	50721.45	49827.8
910.0532	1747.2325	50225.2	49331.8
910.1941	1748.9336	50090.1	49196.65
910.335	1750.634	49940.6	49045.3
910.4759	1752.3336	49915.55	49020.45
910.6168	1754.0325	49716.3	48823.4
910.7576	1755.7307	49670.95	48778.65
910.8984	1757.4281	49506.25	48613.5
911.0392	1759.1247	49487.75	48586.35
911.18	1760.8206	49222	48323.65
911.3208	1762.5158	49110.05	48213.1
911.4615	1764.2102	48928.3	48037.2
911.6022	1765.9039	48757.9	47866.2
911.7429	1767.5968	48668.05	47774.7
911.8836	1769.289	48510.65	47616.75
912.0243	1770.9804	48392.5	47497.4
912.1649	1772.6711	48294.5	47401.95
912.3056	1774.361	48152.8	47259.05
912.4462	1776.0502	48048.4	47153.7
912.5868	1777.7386	47829.1	46932.8
912.7274	1779.4263	47711.4	46815.85
912.8679	1781.1132	47686.3	46794.25
913.0084	1782.7994	47497.4	46603.9
913.149	1784.4849	47365.05	46472.8
913.2895	1786.1696	47126.7	46226.85
913.4299	1787.8535	47051.05	46158.05
913.5704	1789.5367	46895	46003
913.7108	1791.2192	46798.3	45903.75
913.8513	1792.9009	46652.8	45730.2
913.9917	1794.5818	46532.2	45637.95
914.132	1796.2621	46371.05	45479.4
914.2724	1797.9415	46242	45347.95
914.4128	1799.6202	46101.3	45209.55
914.5531	1801.2982	45981.6	45088.4
914.6934	1802.9755	45878.4	44984.1
914.8337	1804.6519	45793.95	44899.1
914.9739	1806.3277	45559.75	44666.9
915.1142	1808.0027	45293.9	44401.75
915.2544	1809.6769	45238.55	44345.45
915.3946	1811.3504	45068.6	44173.4
915.5348	1813.0231	44976.1	44083.4
915.675	1814.6951	44979.85	44086.4
915.8151	1816.3664	44947.45	44052.55
915.9553	1818.0369	44792.85	43900
916.0954	1819.7067	44576.45	43684.9
916.2355	1821.3757	44544.2	43648.75
916.3755	1823.044	44421.5	43528.85
916.5156	1824.7115	44259	43366.8
916.6556	1826.3783	44077.5	43186.15
916.7956	1828.0443	43902.5	43010.75
916.9356	1829.7096	43803.5	42909.25
917.0756	1831.3741	43780.85	42883
917.2155	1833.0379	43615.95	42721.2
917.3555	1834.701	43504.1	42610.1
917.4954	1836.3633	43368.5	42475.3
917.6353	1838.0248	43232.1	42337.9
917.7751	1839.6856	43152.2	42258.25
917.915	1841.3457	43060	42169.2
918.0548	1843.005	42905	42013.05
918.1946	1844.6636	42840.65	41948.6
918.3344	1846.3214	42655.05	41758.85
918.4742	1847.9785	42604.7	41711.6
918.6139	1849.6349	42540.6	41647.65
918.7537	1851.2904	42372.8	41469.85
918.8934	1852.9453	42238.35	41344.25
919.0331	1854.5994	42045.9	41150.25
919.1727	1856.2528	42074.9	41178.2
919.3124	1857.9054	41978.7	41086.95
919.452	1859.5572	41929.45	41038.05
919.5916	1861.2083	41804.9	40911.55
919.7312	1862.8587	41763.45	40866.85
919.8708	1864.5084	41634.55	40740.6
920.0103	1866.1572	41496.8	40602.65
920.1498	1867.8054	41302.2	40410.05
920.2893	1869.4528	41211.6	40317.5
920.4288	1871.0994	41069.7	40176.8
920.5683	1872.7453	41045.15	40152.1
920.7077	1874.3905	40917.45	40019.1
920.8471	1876.0349	40746.15	39850.9
920.9865	1877.6786	40714.7	39819.5
921.1259	1879.3215	40641.35	39750.6
921.2653	1880.9637	40530.45	39635.2
921.4046	1882.6051	40417.9	39525.75
921.5439	1884.2458	40309.9	39416.25
921.6832	1885.8858	40104.55	39210.25
921.8225	1887.525	40064.9	39173.1
921.9617	1889.1634	39838.35	38946.95
922.101	1890.8011	39734.05	38841.9
922.2402	1892.4381	39563.3	38671.05
922.3794	1894.0743	39514.65	38621.4
922.5185	1895.7098	39453.95	38559.35
922.6577	1897.3446	39344.25	38450.85
922.7968	1898.9786	39241.85	38345.55
922.9359	1900.6118	39124.1	38231.25
923.075	1902.2443	38926.35	38032.65
923.214	1903.8761	38824.5	37932.05
923.3531	1905.5071	38578	37683.7
923.4921	1907.1374	38445.95	37553.6
923.6311	1908.7669	38405.05	37511.1
923.77	1910.3957	38342.2	37449.8
923.909	1912.0237	38080.05	37185.5
924.0479	1913.651	37972.95	37080.5
924.1868	1915.2776	37919.9	37028.5
924.3257	1916.9034	37707.2	36817.95
924.4646	1918.5285	37530.05	36639.6
924.6034	1920.1528	37294.7	36402.35
924.7422	1921.7764	37295.65	36404.6
924.881	1923.3992	37146.9	36254.5
925.0198	1925.0213	36898.6	36006.25
925.1586	1926.6427	36728.85	35836.7
925.2973	1928.2633	36735.3	35727
925.436	1929.8832	36541.6	35646.6
925.5747	1931.5023	36322.8	35431.3
925.7134	1933.1207	36258.6	35366.55
925.852	1934.7383	36151.9	35258.9
925.9906	1936.3552	36039.55	35147.35
926.1292	1937.9714	35924.45	35033.65
926.2678	1939.5868	35734.25	34840.35
926.4064	1941.2015	35563.3	34669.55
926.5449	1942.8154	35501.55	34608.7
926.6834	1944.4286	35323.85	34429
926.8219	1946.041	35163.2	34252.3
926.9604	1947.6528	34975.15	34077.3
927.0988	1949.2637	34910.7	34017.65
927.2372	1950.8739	34802.5	33909.45
927.3756	1952.4834	34677.1	33786.45
927.514	1954.0921	34613.8	33720.8
927.6523	1955.7001	34449.25	33550.55
927.7907	1957.3074	34279.5	33389.35
927.929	1958.9139	34204.7	33313.8
928.0673	1960.5197	34080.65	33187.15
928.2055	1962.1247	33896.35	33003.8
928.3438	1963.729	33766.65	32875.25
928.482	1965.3325	33674.2	32757.5
928.6202	1966.9353	33517.15	32627.15
928.7584	1968.5374	33332.4	32441.15
928.8965	1970.1387	33275.55	32382.4
929.0346	1971.7393	33137.9	32246.1
929.1727	1973.3392	33028.95	32137.65
929.3108	1974.9383	32870.9	31980.55
929.4489	1976.5366	32731.1	31838.75
929.5869	1978.1342	32669.2	31775.65
929.7249	1979.7311	32625.2	31732.7
929.8629	1981.3273	32475.9	31583.1
930.0009	1982.9227	32381	31487.1
930.1388	1984.5173	32243.9	31353.25
930.2767	1986.1112	32128.35	31236.7
930.4146	1987.7044	32049.35	31160.5
930.5525	1989.2968	31916.3	31022.85
930.6904	1990.8885	31845.2	30949.75
930.8282	1992.4795	31754.5	30861.25
930.966	1994.0697	31592.85	30699.35
931.1038	1995.6592	31507.15	30615.85
931.2415	1997.2479	31385.3	30493.6
931.3793	1998.8359	31284	30390.85
931.517	2000.4232	31103.85	30214.65
931.6547	2002.0097	31000.1	30109.7
931.7923	2003.5955	30886.85	29996.65
931.93	2005.1805	30849.55	29955.15
932.0676	2006.7648	30735.95	29844.3
932.2052	2008.3484	30583.55	29692.55
932.3427	2009.9312	30635.15	29740.65
932.4803	2011.5133	30472.65	29583.25
932.6178	2013.0946	30350.55	29458.8
932.7553	2014.6752	30257.05	29367.3
932.8928	2016.2551	30220.6	29329.45
933.0302	2017.8342	30043.2	29151.15
933.1676	2019.4126	29947	29056.55
933.305	2020.9902	29831.9	28941.8
933.4424	2022.5672	29747.25	28856.15
933.5798	2024.1433	29689.2	28791.95
933.7171	2025.7188	29538.25	28646.8
933.8544	2027.2935	29455.3	28563.85
933.9917	2028.8674	29337.5	28449.2
934.129	2030.4406	29250.2	28362
934.2662	2032.0131	29081.1	28191.75
934.4034	2033.5849	28984.35	28087.05
934.5406	2035.1559	28950.3	28059.65
934.6778	2036.7261	28861.15	27972.8
934.8149	2038.2957	28769.55	27879.35
934.952	2039.8645	28719.75	27829.95
935.0891	2041.4325	28747.95	27852.9
935.2262	2042.9998	28571.8	27682.05
935.3632	2044.5664	28508.6	27616.1
935.5002	2046.1323	28379.25	27488.8
935.6372	2047.6974	28281.2	27389.7
935.7742	2049.2617	28195.95	27304.55
935.9111	2050.8254	28180.85	27266.95
936.048	2052.3883	28116.5	27224.4
936.1849	2053.9504	27993.85	27104.45
936.3218	2055.5118	27907.5	27016.4
936.4586	2057.0725	27790.75	26897.4
936.5955	2058.6325	27688.9	26799.25
936.7323	2060.1917	27597.7	26706.75
936.869	2061.7502	27526.25	26632.6
937.0058	2063.3079	27370.5	26478.2
937.1425	2064.8649	27297	26404.35
937.2792	2066.4212	27247.9	26354.85
937.4159	2067.9767	27164.5	26273.6
937.5525	2069.5315	26975.8	26084.9
937.6891	2071.0856	26877.55	25984.95
937.8257	2072.6389	26785.75	25894.3
937.9623	2074.1915	26639.1	25750.5
938.0989	2075.7433	26527.1	25633.65
938.2354	2077.2945	26486.1	25594.75
938.3719	2078.8448	26422.3	25532.4
938.5084	2080.3945	26283.65	25392.85
938.6448	2081.9434	26252.15	25359.25
938.7812	2083.4916	26231.7	25340.1
938.9176	2085.039	26048.25	25154.55
939.054	2086.5857	25982.4	25090.35
939.1903	2088.1317	25910.35	25018.35
939.3267	2089.677	25815.85	24923.35
939.463	2091.2215	25701.75	24809.15
939.5992	2092.7652	25666.25	24775.5
939.7355	2094.3083	25567.15	24675.35
939.8717	2095.8506	25553.1	24662.25
940.0079	2097.3921	25536.9	24646.1
940.1441	2098.933	25423.4	24532.2
940.2802	2100.4731	25331.8	24440.5
940.4163	2102.0124	25303.1	24405.4
940.5524	2103.5511	25202.9	24311.2
940.6885	2105.089	25132.55	24240.7
940.8245	2106.6261	25072.85	24179.5
940.9606	2108.1626	25006.45	24114.65
941.0965	2109.6983	24973.05	24051
941.2325	2111.2332	24882.9	23990.4
941.3684	2112.7675	24805.9	23913.15
941.5044	2114.301	24684.7	23792.4
941.6403	2115.8337	24663.4	23772.2
941.7761	2117.3657	24600.5	23709.35
941.912	2118.897	24494.45	23601.7
942.0478	2120.4276	24418.05	23521.95
942.1835	2121.9575	24298.8	23406.45
942.3193	2123.4866	24327.2	23421.3
942.455	2125.0149	24219.3	23324.35
942.5907	2126.5426	24071.5	23179.7
942.7264	2128.0695	23992.15	23098.05
942.8621	2129.5956	23969.65	23080.65
942.9977	2131.1211	23874.5	22977.65
943.1333	2132.6458	23809	22918.45
943.2689	2134.1698	23789.95	22897.7
943.4044	2135.693	23699.8	22803.4
943.54	2137.2155	23592.4	22697.1
943.6755	2138.7373	23516.2	22621.9
943.8109	2140.2584	23489.4	22598.8
943.9464	2141.7787	23415.2	22519.45
944.0818	2143.2983	23278.3	22387.7
944.2172	2144.8171	23124.1	22234.75
944.3526	2146.3353	23098.45	22205.7
944.4879	2147.8527	23009.5	22119.75
944.6232	2149.3693	22989.2	22097.3
944.7585	2150.8853	22841.7	21949.5
944.8938	2152.4005	22766.05	21874.9
945.029	2153.9149	22766	21873.65
945.1642	2155.4287	22682.6	21789.2
945.2994	2156.9417	22596.35	21703.95
945.4346	2158.454	22538.7	21643
945.5697	2159.9655	22442.4	21549.8
945.7048	2161.4764	22408.3	21517.8
945.8399	2162.9865	22340.45	21447.75
945.9749	2164.4958	22287.75	21394.85
946.1099	2166.0045	22190.1	21296.05
946.2449	2167.5124	22173.45	21282.65
946.3799	2169.0195	22100.05	21210.7
946.5148	2170.526	22050.75	21159.3
946.6498	2172.0317	21991.7	21099.5
946.7846	2173.5367	21923.35	21031.3
946.9195	2175.0409	21794.2	20902.65
947.0543	2176.5445	21815.15	20924.3
947.1891	2178.0473	21689.55	20797.7
947.3239	2179.5494	21619.9	20724.75
947.4587	2181.0507	21524.9	20632.55
947.5934	2182.5513	21458.05	20566.05
947.7281	2184.0512	21424.85	20531.85
947.8628	2185.5504	21321.55	20430.9
947.9974	2187.0488	21190.85	20299.55
948.132	2188.5465	21173.5	20281.85
948.2666	2190.0435	21056.7	20164.3
948.4012	2191.5397	20991.9	20099.45
948.5357	2193.0353	20924.1	20032.2
948.6702	2194.5301	20808.6	19916.5
948.8047	2196.0241	20743.65	19852.45
948.9392	2197.5175	20683.6	19791.45
949.0736	2199.0101	20597.35	19701.85
949.208	2200.502	20472.95	19581.85
949.3424	2201.9931	20413	19521.85
949.4767	2203.4835	20355.5	19462.5
949.611	2204.9733	20261.7	19364.5
949.7453	2206.4622	20244.3	19353.25
949.8796	2207.9505	20145.15	19250.2
950.0138	2209.438	20047.35	19156.75
950.148	2210.9248	19977.7	19086.1
950.2822	2212.4109	19918.35	19028.7
950.4164	2213.8962	19854.35	18958.25
950.5505	2215.3809	19753.95	18858.75
950.6846	2216.8648	19739.55	18847.1
950.8186	2218.3479	19650.2	18753.65
950.9527	2219.8304	19605.15	18710.4
951.0867	2221.3121	19494.5	18600.65
951.2207	2222.7931	19437.75	18545.55
951.3546	2224.2733	19378.05	18487.85
951.4886	2225.7529	19301.3	18408.05
951.6225	2227.2317	19204.95	18310.6
951.7563	2228.7098	19213.55	18323.1
951.8902	2230.1872	19081.45	18190.05
952.024	2231.6638	19075.55	18184.4
952.1578	2233.1397	18974.05	18077.75
952.2916	2234.6149	18935.6	18043.95
952.4253	2236.0894	18859.65	17967.5
952.559	2237.5632	18843.3	17942.45
952.6927	2239.0362	18735.1	17844.1
952.8263	2240.5085	18653.85	17762.1
952.9599	2241.9801	18583.45	17693.3
953.0935	2243.4509	18499.15	17608.15
953.2271	2244.921	18447.25	17557.3
953.3606	2246.3904	18365.65	17469.85
953.4941	2247.8591	18331.75	17439.35
953.6276	2249.3271	18288.85	17398.35
953.7611	2250.7943	18205.35	17315.35
953.8945	2252.2608	18108.75	17217.5
954.0279	2253.7266	18089.65	17197.95
954.1612	2255.1917	18031.1	17138.15
954.2946	2256.656	17954.7	17060.75
954.4279	2258.1197	17890.05	16998.6
954.5612	2259.5826	17837.65	16945.1
954.6944	2261.0447	17803.25	16909.3
954.8276	2262.5062	17708.55	16812.8
954.9608	2263.9669	17704.9	16810.65
955.094	2265.4269	17649.1	16759.7
955.2271	2266.8862	17572.3	16682.2
955.3602	2268.3448	17520.5	16628.8
955.4933	2269.8026	17489.2	16597.85
955.6264	2271.2598	17420.65	16529.65
955.7594	2272.7162	17346.3	16455.15
955.8924	2274.1719	17296.8	16404.4
956.0253	2275.6268	17211.15	16317.85
956.1583	2277.0811	17206.3	16313.05
956.2912	2278.5346	17141.45	16247.7
956.4241	2279.9874	17129.15	16237.25
956.5569	2281.4395	17064.1	16173.1
956.6897	2282.8908	16987.3	16092.6
956.8225	2284.3414	16950.95	16058.7
956.9553	2285.7914	16894.65	16005.95
957.088	2287.2406	16851.6	15956.85
957.2207	2288.689	16779.45	15887.4
957.3534	2290.1368	16727.9	15833.95
957.486	2291.5838	16656.75	15762.1
957.6186	2293.0302	16599.2	15705.25
957.7512	2294.4758	16511.85	15620.2
957.8838	2295.9206	16458	15563.85
958.0163	2297.3648	16433.55	15540.2
958.1488	2298.8082	16377.9	15486.35
958.2813	2300.251	16355.45	15463.95
958.4137	2301.693	16300	15406.1
958.5461	2303.1343	16276.6	15385.35
958.6785	2304.5748	16195.6	15303.05
958.8108	2306.0147	16115.65	15225.25
958.9432	2307.4538	16075.75	15179.7
959.0754	2308.8922	16050.75	15160.05
959.2077	2310.3299	16003.75	15113.05
959.3399	2311.7669	15918.75	15027.8
959.4721	2313.2031	15896.6	15005.05
959.6043	2314.6387	15805	14914.35
959.7365	2316.0735	15747.3	14854.6
959.8686	2317.5076	15706.25	14816.4
960.0006	2318.941	15680.5	14789.1
960.1327	2320.3737	15628.15	14736.2
960.2647	2321.8056	15577.8	14684.65
960.3967	2323.2369	15487.85	14595.45
960.5287	2324.6674	15471.7	14578.45
960.6606	2326.0972	15404.05	14509
960.7925	2327.5263	15358.05	14467.55
960.9244	2328.9547	15311.75	14419.95
961.0562	2330.3823	15276.1	14384.3
961.1881	2331.8092	15220.8	14326.3
961.3198	2333.2355	15174.75	14282.35
961.4516	2334.661	15134.6	14241.5
961.5833	2336.0858	15115.5	14221.05
961.715	2337.5098	15068.75	14175.75
961.8467	2338.9332	15029.7	14137.6
961.9783	2340.3558	14936.3	14040.1
962.1099	2341.7778	14883.65	13993.1
962.2415	2343.199	14806.4	13911.95
962.373	2344.6195	14772.35	13879.05
962.5045	2346.0393	14746.3	13854.55
962.636	2347.4583	14750	13857.4
962.7675	2348.8767	14620.95	13730.6
962.8989	2350.2943	14637.05	13744.55
963.0303	2351.7113	14587	13693.6
963.1617	2353.1275	14507.05	13614.35
963.293	2354.543	14498.4	13596.75
963.4243	2355.9578	14426	13533.85
963.5556	2357.3718	14333.25	13443.3
963.6868	2358.7852	14258.7	13365.15
963.818	2360.1978	14196.3	13303.85
963.9492	2361.6098	14195.55	13305.65
964.0803	2363.021	14141.8	13246.9
964.2114	2364.4315	14099.65	13209.1
964.3425	2365.8413	14054.3	13161.75
964.4736	2367.2504	14011.85	13120.2
964.6046	2368.6587	13897.35	13006.2
964.7356	2370.0664	13825.1	12934.05
964.8666	2371.4733	13791.05	12899.45
964.9975	2372.8795	13742.05	12849.1
965.1284	2374.285	13671.6	12780.05
965.2593	2375.6899	13619.85	12731.05
965.3901	2377.0939	13564.45	12672.3
965.5209	2378.4973	13530.3	12638.3
965.6517	2379.9	13502.9	12610.35
965.7825	2381.3019	13436.35	12543.9
965.9132	2382.7032	13382.9	12492.15
966.0439	2384.1037	13389.05	12500.7
966.1745	2385.5035	13311.25	12419.75
966.3051	2386.9027	13274.1	12383.95
966.4357	2388.3011	13227.55	12332.6
966.5663	2389.6987	13201.95	12311.9
966.6968	2391.0957	13122.3	12231.65
966.8273	2392.492	13062.2	12172.6
966.9578	2393.8876	12952.25	12060.25
967.0882	2395.2824	12915.5	12024.65
967.2186	2396.6765	12880.55	11990.7
967.349	2398.07	12818.75	11929.05
967.4793	2399.4627	12814.6	11922.7
967.6097	2400.8547	12757.45	11867.75
967.7399	2402.246	12688.95	11793.55
967.8702	2403.6366	12637.15	11745.5
968.0004	2405.0265	12569	11680.15
968.1306	2406.4156	12513.25	11617.55
968.2607	2407.8041	12489.25	11595.2
968.3909	2409.1918	12427.9	11536.1
968.521	2410.5789	12384.4	11492.55
968.651	2411.9652	12313.1	11420.55
968.781	2413.3508	12261.65	11370.8
968.911	2414.7358	12232.9	11341.35
969.041	2416.12	12165.9	11276.3
969.1709	2417.5035	12167.1	11276.75
969.3008	2418.8863	12111.5	11217.5
969.4307	2420.2684	12083.65	11193.1
969.5606	2421.6497	12029.95	11137.6
969.6904	2423.0304	11958.05	11067.9
969.8201	2424.4104	11944.75	11053.4
969.9499	2425.7896	11917.7	11023.7
970.0796	2427.1682	11867.7	10977.85
970.2093	2428.546	11825	10931.9
970.3389	2429.9232	11784.15	10891.8
970.4685	2431.2996	11728.5	10838.05
970.5981	2432.6753	11744.5	10854.15
970.7277	2434.0503	11682.35	10791.4
970.8572	2435.4246	11645.45	10754.25
970.9867	2436.7982	11585	10691.75
971.1161	2438.1711	11577.8	10689
971.2456	2439.5433	11525.65	10634.05
971.375	2440.9148	11463.2	10571.85
971.5043	2442.2856	11413.4	10520.2
971.6336	2443.6557	11371.7	10479.9
971.7629	2445.025	11333.6	10443.3
971.8922	2446.3937	11304.85	10413.6
972.0214	2447.7617	11272.6	10380.2
972.1506	2449.1289	11254	10364.15
972.2798	2450.4955	11204.6	10311.15
972.4089	2451.8613	11156	10266.5
972.538	2453.2265	11129.5	10238.05
972.6671	2454.5909	11118.3	10226.4
972.7961	2455.9546	11091.5	10202.2
972.9251	2457.3177	11041.45	10152.35
973.0541	2458.68	10995.6	10103.5
973.1831	2460.0416	10967.2	10075.45
973.312	2461.4025	10963.05	10071.45
973.4408	2462.7627	10945.15	10041.3
973.5697	2464.1222	10889.9	9999.15
973.6985	2465.4811	10886.85	9994.9
973.8273	2466.8392	10807.45	9916
973.956	2468.1966	10780.1	9885.3
974.0847	2469.5533	10776.35	9883.1
974.2134	2470.9093	10756.15	9863.55
974.3421	2472.2645	10703.75	9811.25
974.4707	2473.6191	10628.1	9736.95
974.5993	2474.973	10591.9	9701
974.7278	2476.3262	10573.4	9681.5
974.8563	2477.6787	10517.3	9627
974.9848	2479.0305	10493.2	9602.25
975.1132	2480.3816	10452.7	9558.15
975.2417	2481.7319	10410.85	9520.25
975.37	2483.0816	10383.45	9490.55
975.4984	2484.4306	10310.95	9418.55
975.6267	2485.7789	10277	9386.4
975.755	2487.1264	10226.6	9333.55
975.8833	2488.4733	10190.65	9300
976.0115	2489.8195	10155.3	9246
976.1397	2491.165	10121.35	9227.05
976.2678	2492.5097	10089.25	9194.3
976.3959	2493.8538	10046.45	9155.7
976.524	2495.1972	10014.1	9122.7
976.6521	2496.5398	9955.45	9062.2
976.7801	2497.8818	9933.65	9040.65
976.9081	2499.2231	9918.8	9028
977.036	2500.5637	9859.3	8965.5
977.164	2501.9035	9821.8	8928.85
977.2918	2503.2427	9784.05	8889.55
977.4197	2504.5812	9770.3	8880.15
977.5475	2505.919	9737	8843.1
977.6753	2507.256	9717.1	8826.6
977.8031	2508.5924	9678.35	8786.55
977.9308	2509.9281	9642	8743.95
978.0585	2511.2631	9613.2	8722.3
978.1861	2512.5974	9595.95	8705.05
978.3137	2513.9309	9536.2	8645.1
978.4413	2515.2638	9526	8610.15
978.5689	2516.596	9475.4	8584.4
978.6964	2517.9275	9430.85	8538.05
978.8239	2519.2583	9415.5	8523.2
978.9513	2520.5884	9350.85	8457.25
979.0788	2521.9178	9308.95	8415.75
979.2062	2523.2465	9309.05	8418
979.3335	2524.5745	9267.6	8378.2
979.4608	2525.9018	9233.35	8342.3
979.5881	2527.2284	9213.55	8321.9
979.7154	2528.5543	9148.75	8257.1
979.8426	2529.8796	9150.65	8259.85
979.9698	2531.2041	9143.25	8251.6
980.0969	2532.5279	9124.85	8235.95
980.224	2533.851	9077.45	8185.15
980.3511	2535.1735	9081.65	8191.8
980.4781	2536.4952	9043.75	8150.1
980.6052	2537.8163	9017.8	8126.15
980.7321	2539.1366	8948.8	8058
980.8591	2540.4562	8935	8043.4
980.986	2541.7752	8938.8	8046.25
981.1129	2543.0935	8926	8035.05
981.2397	2544.411	8899.65	8005.4
981.3665	2545.7279	8860.95	7969.55
981.4933	2547.0441	8845.15	7953
981.62	2548.3596	8833.4	7936.05
981.7467	2549.6744	8805.25	7914.5
981.8734	2550.9885	8777.05	7885.45
982.0001	2552.3019	8729.55	7837.95
982.1267	2553.6146	8724.85	7831.7
982.2532	2554.9266	8694.1	7800.9
982.3798	2556.2379	8658.2	7766
982.5063	2557.5485	8647.25	7756.55
982.6327	2558.8585	8634.8	7738
982.7592	2560.1677	8600.4	7704.65
982.8856	2561.4762	8575.2	7683.05
983.0119	2562.7841	8559.3	7663.3
983.1383	2564.0913	8530.6	7639.35
983.2646	2565.3977	8533.8	7644.6
983.3908	2566.7035	8490	7599
983.517	2568.0086	8469.95	7576.95
983.6432	2569.313	8451.9	7560.7
983.7694	2570.6167	8445.1	7549.5
983.8955	2571.9197	8399.3	7508.8
984.0216	2573.222	8404.3	7509
984.1476	2574.5236	8372.35	7480.5
984.2737	2575.8246	8343.85	7449.5
984.3996	2577.1248	8333.3	7438.7
984.5256	2578.4244	8332.85	7441.35
984.6515	2579.7232	8289.15	7397.85
984.7774	2581.0214	8283.85	7368.85
984.9032	2582.3189	8267.6	7377
985.029	2583.6157	8263.6	7367.05
985.1548	2584.9118	8230.55	7340.1
985.2806	2586.2072	8205.55	7315.9
985.4063	2587.5019	8194.3	7305
985.5319	2588.7959	8175.95	7284.35
985.6576	2590.0893	8154.75	7261.75
985.7832	2591.3819	8114.85	7222.25
985.9087	2592.6739	8076.3	7185.15
986.0343	2593.9652	8031	7139.5
986.1597	2595.2557	8032.05	7140.85
986.2852	2596.5456	8007.1	7113.55
986.4106	2597.8348	7987.35	7097.35
986.536	2599.1234	7938.9	7049.75
986.6614	2600.4112	7923.75	7032
986.7867	2601.6983	7884.25	6989.25
986.912	2602.9848	7886.8	6996.15
987.0372	2604.2705	7839.8	6943.6
987.1624	2605.5556	7834.45	6942.6
987.2876	2606.84	7777.4	6884.6
987.4128	2608.1237	7748.45	6858.1
987.5379	2609.4067	7721.55	6830.25
987.6629	2610.689	7693.4	6794.6
987.788	2611.9707	7666.05	6770.1
987.913	2613.2516	7625.65	6729.15
988.0379	2614.5319	7616.05	6725.25
988.1629	2615.8115	7563.8	6672.2
988.2878	2617.0903	7554.7	6662.55
988.4126	2618.3685	7509.75	6617.2
988.5375	2619.6461	7497.15	6605.2
988.6622	2620.9229	7467	6574
988.787	2622.199	7448.4	6556.25
988.9117	2623.4745	7425.9	6532.7
989.0364	2624.7493	7411.8	6518.75
989.161	2626.0234	7395.05	6504.85
989.2857	2627.2968	7370.9	6482.35
989.4102	2628.5695	7334.05	6441.15
989.5348	2629.8415	7304.2	6414.5
989.6593	2631.1128	7270.5	6376.35
989.7837	2632.3835	7245.95	6355.4
989.9082	2633.6535	7216.05	6326.05
990.0326	2634.9228	7212.95	6321.9
990.1569	2636.1914	7177.7	6286.6
990.2812	2637.4593	7156.25	6262.35
990.4055	2638.7265	7121.2	6228.3
990.5298	2639.9931	7071.65	6181.3
990.654	2641.259	7067.8	6175.35
990.7782	2642.5242	7063.55	6169.35
990.9023	2643.7887	7017.3	6124.55
991.0264	2645.0525	7009.6	6117.6
991.1505	2646.3156	6991.6	6098.2
991.2745	2647.5781	6970.45	6079.35
991.3985	2648.8398	6938.3	6047.55
991.5225	2650.1009	6915.9	6016.95
991.6464	2651.3613	6900.7	6009.3
991.7703	2652.6211	6875.7	5983.7
991.8942	2653.8801	6837.1	5945.3
992.018	2655.1385	6829.55	5934.85
992.1418	2656.3961	6822.75	5932.3
992.2655	2657.6531	6802.3	5911.5
992.3892	2658.9094	6780.05	5887.9
992.5129	2660.1651	6771.15	5880.65
992.6366	2661.42	6732.3	5840.45
992.7602	2662.6743	6752.55	5861.5
992.8837	2663.9279	6725.3	5836.2
993.0073	2665.1808	6696.65	5804.4
993.1307	2666.433	6678.95	5787.75
993.2542	2667.6846	6647.85	5758.15
993.3776	2668.9354	6638.3	5743.85
993.501	2670.1856	6621.7	5729.65
993.6244	2671.4351	6598.2	5707.2
993.7477	2672.6839	6586.9	5695.75
993.8709	2673.9321	6576.95	5684.2
993.9942	2675.1795	6552.2	5661.4
994.1174	2676.4263	6511.3	5618.9
994.2405	2677.6724	6517.7	5626.7
994.3637	2678.9179	6501.4	5609.85
994.4868	2680.1626	6482.75	5592
994.6098	2681.4067	6468.1	5576.1
994.7328	2682.6501	6446.9	5555.6
994.8558	2683.8928	6425.9	5535.7
994.9788	2685.1348	6390.35	5500.8
995.1017	2686.3761	6375.8	5483.8
995.2245	2687.6168	6340.4	5449.25
995.3474	2688.8568	6319.85	5428.5
995.4702	2690.0961	6317.15	5427.25
995.5929	2691.3348	6285.35	5393.45
995.7156	2692.5727	6263.55	5372.15
995.8383	2693.81	6258.3	5366.45
995.961	2695.0466	6214.9	5324.55
996.0836	2696.2826	6203.15	5309.75
996.2062	2697.5178	6193.6	5301.15
996.3287	2698.7524	6163.6	5271.45
996.4512	2699.9863	6167.45	5274.4
996.5737	2701.2195	6129.25	5240.55
996.6961	2702.452	6124.45	5232.3
996.8185	2703.6839	6093.55	5202.6
996.9408	2704.9151	6081.2	5190.55
997.0631	2706.1456	6073.7	5181.5
997.1854	2707.3755	6065.4	5172.2
997.3077	2708.6046	6052.55	5157.95
997.4299	2709.8331	6017.65	5126.65
997.552	2711.0609	6016.95	5125.25
997.6742	2712.2881	6002.35	5111.05
997.7963	2713.5145	5982.4	5091.15
997.9183	2714.7403	5977.8	5086.8
998.0403	2715.9654	5969.65	5077.85
998.1623	2717.1899	5966.5	5060.75
998.2842	2718.4136	5957.4	5066.35
998.4062	2719.6367	5933.25	5043.05
998.528	2720.8591	5931.75	5033.9
998.6498	2722.0809	5902.35	5011.25
998.7716	2723.3019	5897.45	5003.2
998.8934	2724.5223	5884.65	4993.15
999.0151	2725.7421	5888.25	4994.65
999.1368	2726.9611	5884.7	4992.35
999.2584	2728.1795	5852.9	4957.25
999.38	2729.3972	5815.75	4924.75
999.5016	2730.6142	5794.95	4890.85
999.6231	2731.8306	5764.4	4871.7
999.7446	2733.0462	5720.8	4826.7
999.8661	2734.2612	5679.55	4782.6
999.9875	2735.4756	5647.6	4754.9
1000.1089	2736.6892	5600.85	4708.9
1000.2302	2737.9022	5587.5	4698.65
1000.3515	2739.1145	5553.6	4661.4
1000.4728	2740.3262	5524.6	4626.5
1000.594	2741.5372	5479.45	4587.3
1000.7152	2742.7475	5460.7	4568.25
1000.8363	2743.9571	5454.55	4560.35
1000.9575	2745.1661	5408.8	4512.3
1001.0785	2746.3744	5388.55	4496.3
1001.1996	2747.582	5372.9	4483.55
1001.3206	2748.7889	5346.1	4452.7
1001.4415	2749.9952	5333.35	4443.25
1001.5625	2751.2008	5303.05	4411.7
1001.6833	2752.4057	5282.95	4390.25
1001.8042	2753.61	5262.3	4368.95
1001.925	2754.8136	5245.85	4352.5
1002.0458	2756.0165	5229.5	4338.65
1002.1665	2757.2188	5222.45	4331.6
1002.2872	2758.4204	5196.1	4303.95
1002.4078	2759.6213	5181	4288.65
1002.5285	2760.8215	5181.7	4286.25
1002.649	2762.0211	5160.8	4267.5
1002.7696	2763.22	5141.5	4247.6
1002.8901	2764.4182	5137.65	4244.7
1003.0106	2765.6158	5118.55	4225.85
1003.131	2766.8127	5086.05	4194.8
1003.2514	2768.009	5060.45	4170.2
1003.3717	2769.2045	5038.9	4145.3
1003.492	2770.3994	5029.55	4135.55
1003.6123	2771.5936	5022.05	4130.6
1003.7325	2772.7872	5000.3	4109.25
1003.8527	2773.9801	4981.75	4090.1
1003.9729	2775.1723	4972.7	4063.4
1004.093	2776.3639	4937.55	4047
1004.2131	2777.5548	4938.4	4045.45
1004.3331	2778.745	4926.75	4034.4
1004.4531	2779.9346	4923.15	4032.8
1004.5731	2781.1235	4898	4006.05
1004.693	2782.3117	4879.3	3988.4
1004.8129	2783.4992	4876.25	3986.55
1004.9328	2784.6861	4853.65	3961.15
1005.0526	2785.8723	4867.1	3975.4
1005.1723	2787.0579	4835.2	3942.95
1005.2921	2788.2428	4831.15	3938.95
1005.4118	2789.427	4820.6	3930.6
1005.5314	2790.6106	4811.45	3920.5
1005.651	2791.7935	4826.1	3934.3
1005.7706	2792.9757	4815	3922.65
1005.8902	2794.1573	4817.7	3925.65
1006.0097	2795.3382	4806.45	3915.4
1006.1291	2796.5184	4786	3897.7
1006.2485	2797.698	4800.05	3907.6
1006.3679	2798.8769	4794.85	3904.75
1006.4873	2800.0551	4808.15	3915.5
1006.6066	2801.2327	4804.8	3910.5
1006.7258	2802.4096	4808.9	3919.55
1006.8451	2803.5859	4811	3919.75
1006.9642	2804.7615	4805.75	3914.95
1007.0834	2805.9364	4826.6	3937.15
1007.2025	2807.1106	4834.5	3941.85
1007.3216	2808.2842	4851.95	3961.4
1007.4406	2809.4572	4879.5	3989.6
1007.5596	2810.6294	4895.1	4003.65
1007.6785	2811.801	4923.1	4034.5
1007.7975	2812.972	4969.05	4080.5
1007.9163	2814.1423	4973.8	4081.7
1008.0352	2815.3119	5024.45	4133.3
1008.154	2816.4808	5051.95	4160.55
1008.2727	2817.6491	5112.1	4219.6
1008.3914	2818.8167	5130.7	4241.65
1008.5101	2819.9837	5157.25	4263
1008.6288	2821.15	5198.5	4309.5
1008.7474	2822.3157	5207.5	4317.95
1008.8659	2823.4807	5267.9	4377.7
1008.9844	2824.645	5309.2	4417.4
1009.1029	2825.8086	5304.35	4412.5
1009.2214	2826.9716	5352.95	4462.1
1009.3398	2828.134	5384.3	4493.05
1009.4581	2829.2957	5405.6	4515.45
1009.5764	2830.4567	5414	4525.9
1009.6947	2831.617	5437.5	4545.7
1009.813	2832.7767	5448.7	4558.8
1009.9312	2833.9358	5445.55	4554.6
1010.0493	2835.0941	5424.2	4531.1
1010.1675	2836.2519	5399.35	4508.6
1010.2855	2837.4089	5394.25	4503.95
1010.4036	2838.5653	5376.6	4484.55
1010.5216	2839.7211	5344.6	4454.1
1010.6396	2840.8761	5369.3	4476.45
1010.7575	2842.0306	5375.45	4486.75
1010.8754	2843.1843	5407.3	4517.1
1010.9932	2844.3374	5447.55	4556.2
1011.111	2845.4899	5479.05	4586.8
1011.2288	2846.6417	5549.95	4659.05
1011.3465	2847.7928	5606.4	4716.45
1011.4642	2848.9433	5683.2	4792.9
1011.5818	2850.0931	5747.15	4857.85
1011.6995	2851.2422	5831.9	4939.35
1011.817	2852.3907	5898.65	5003.55
1011.9345	2853.5385	5961.9	5068.95
1012.052	2854.6857	6019.95	5101.45
1012.1695	2855.8323	6043.5	5154.05
1012.2869	2856.9781	6073.4	5184.65
1012.4042	2858.1233	6109.35	5219.65
1012.5216	2859.2679	6137.6	5247.15
1012.6389	2860.4118	6186.75	5294.75
1012.7561	2861.555	6185.65	5289.85
1012.8733	2862.6976	6236.2	5343.25
1012.9905	2863.8395	6230.4	5340.75
1013.1076	2864.9808	6240.05	5349.1
1013.2247	2866.1214	6230.7	5342.4
1013.3417	2867.2614	6253.35	5362.95
1013.4587	2868.4007	6268	5375.25
1013.5757	2869.5393	6258.05	5364.95
1013.6926	2870.6773	6259.85	5366
1013.8095	2871.8146	6273.05	5375.65
1013.9263	2872.9513	6250.2	5356.55
1014.0431	2874.0874	6241.1	5349.5
1014.1599	2875.2227	6214.1	5324.4
1014.2766	2876.3574	6185.85	5295.55
1014.3933	2877.4915	6152.25	5262.1
1014.51	2878.6249	6097.2	5206.3
1014.6266	2879.7577	6078.95	5188.3
1014.7431	2880.8898	6052.15	5152.4
1014.8596	2882.0212	6014.2	5123.85
1014.9761	2883.152	5975	5085.15
1015.0925	2884.2821	5959.05	5069.15
1015.2089	2885.4116	5945.25	5057.45
1015.3253	2886.5405	5935.4	5044.2
1015.4416	2887.6686	5934.6	5039.9
1015.5579	2888.7962	5919.3	5032.85
1015.6741	2889.923	5905.9	5017.1
1015.7903	2891.0493	5898.05	5007.65
1015.9065	2892.1748	5950.75	5060.25
1016.0226	2893.2997	5928.05	5034.95
1016.1387	2894.424	5933.75	5043.25
1016.2547	2895.5476	5922.7	5032.7
1016.3707	2896.6706	5953.4	5063.35
1016.4866	2897.7929	5977.9	5087.55
1016.6025	2898.9145	5994.3	5103.85
1016.7184	2900.0355	5998.4	5107.9
1016.8342	2901.1559	6027.35	5136.75
1016.95	2902.2756	6042.9	5152.75
1017.0658	2903.3946	6066.4	5177.2
1017.1815	2904.513	6085.25	5190.05
1017.2971	2905.6308	6087.9	5197.55
1017.4127	2906.7479	6092.3	5203.2
1017.5283	2907.8643	6119.45	5228.45
1017.6439	2908.9801	6119.15	5230.45
1017.7594	2910.0953	6119.65	5229.65
1017.8748	2911.2098	6099.4	5205.55
1017.9902	2912.3236	6106.3	5207.35
1018.1056	2913.4368	6070.75	5175.75
1018.2209	2914.5494	6056.3	5164.9
1018.3362	2915.6613	5998.75	5102.8
1018.4515	2916.7725	5973.15	5078.85
1018.5667	2917.8831	5959.9	5068.6
1018.6819	2918.9931	5891.4	4996.65
1018.797	2920.1024	5860.4	4969.15
1018.9121	2921.211	5827.95	4937.45
1019.0271	2922.319	5802.5	4910.2
1019.1421	2923.4264	5781.2	4890.5
1019.2571	2924.5331	5741.35	4851.8
1019.372	2925.6391	5733.4	4841.9
1019.4869	2926.7445	5707.5	4819.7
1019.6017	2927.8493	5701	4809.75
1019.7165	2928.9534	5692.25	4802.1
1019.8313	2930.0569	5659	4765.7
1019.946	2931.1597	5650.05	4759.95
1020.0606	2932.2619	5641.7	4750.55
1020.1753	2933.3634	5631.85	4741.05
1020.2899	2934.4643	5615.05	4717.3
1020.4044	2935.5645	5573.55	4673.75
1020.5189	2936.6641	5540.95	4645.3
1020.6334	2937.763	5455.85	4563.6
1020.7478	2938.8613	5424.85	4534.45
1020.8622	2939.959	5357.45	4462.85
1020.9765	2941.056	5276.85	4386.5
1021.0908	2942.1523	5206.15	4313.25
1021.2051	2943.248	5090.3	4200.65
1021.3193	2944.3431	4989.95	4100.75
1021.4334	2945.4375	4881.75	3991.15
1021.5476	2946.5313	4777.65	3887.8
1021.6617	2947.6244	4641.65	3751
1021.7757	2948.7169	4537.05	3644.85
1021.8897	2949.8087	4446.45	3554.65
1022.0037	2950.8999	4338.4	3448.35
1022.1176	2951.9904	4243.65	3354.05
1022.2315	2953.0803	4158.9	3268.2
1022.3453	2954.1696	4098.75	3208.3
1022.4591	2955.2582	4034.35	3144.95
1022.5728	2956.3462	3972.8	3082.55
1022.6865	2957.4335	3931.15	3038.35
1022.8002	2958.5202	3880.9	2989.75
1022.9138	2959.6062	3849.95	2959.1
1023.0274	2960.6916	3811.9	2923.1
1023.141	2961.7764	3790.35	2900.75
1023.2545	2962.8605	3766.55	2876.65
1023.3679	2963.9439	3751	2861.55
1023.4813	2965.0267	3724.25	2833.9
1023.5947	2966.1089	3724.9	2811.6
1023.708	2967.1905	3688.55	2798.6
1023.8213	2968.2714	3671.9	2779.55
1023.9346	2969.3516	3679.2	2788.45
1024.0478	2970.4312	3655.4	2758.4
1024.1609	2971.5102	3651.45	2761.15
1024.274	2972.5885	3649.35	2761.8
1024.3871	2973.6662	3651.4	2756.2
1024.5002	2974.7432	3625.75	2737.55
1024.6132	2975.8196	3629.55	2739.75
1024.7261	2976.8954	3602.85	2714.45
1024.839	2977.9705	3597	2707.75
1024.9519	2979.045	3554.8	2665.6
1025.0647	2980.1188	3534.8	2646.45
1025.1775	2981.192	3503.85	2615.45
1025.2902	2982.2645	3476.75	2584.1
1025.4029	2983.3364	3446.8	2556.65
1025.5156	2984.4077	3416.95	2527.75
1025.6282	2985.4783	3385.7	2488.55
1025.7407	2986.5483	3346.4	2456.55
1025.8532	2987.6177	3297.25	2407.95
1025.9657	2988.6864	3252.7	2363.45
1026.0782	2989.7545	3219.1	2327.25
1026.1906	2990.8219	3189.15	2300.5
1026.3029	2991.8887	3154.75	2261.75
1026.4152	2992.9548	3121.95	2230.75
1026.5275	2994.0204	3086	2197.1
1026.6397	2995.0852	3046.4	2156
1026.7519	2996.1495	3012.65	2121.45
1026.864	2997.2131	2982	2091.4
1026.9761	2998.276	2947.45	2056.75
1027.0882	2999.3383	2927.95	2036.6
1027.2002	3000.4	2905.4	2013.15
1027.3122	3001.4611	2882.9	1992.6
1027.4241	3002.5215	2861.8	1970.9
1027.536	3003.5812	2828.7	1939.2
1027.6478	3004.6404	2820.7	1930.75
1027.7596	3005.6989	2810.95	1920.8
1027.8714	3006.7567	2789.5	1898.05
1027.9831	3007.8139	2792.7	1878.95
1028.0947	3008.8705	2776.5	1885.25
1028.2064	3009.9264	2764.5	1871.45
1028.3179	3010.9818	2748.25	1858.65
1028.4295	3012.0364	2733.15	1843.15
1028.541	3013.0905	2718.65	1828.65
1028.6524	3014.1439	2718.75	1828.3
1028.7638	3015.1966	2700.85	1812.15
1028.8752	3016.2487	2706.15	1815.1
1028.9865	3017.3002	2700.6	1805.15
1029.0978	3018.3511	2688.9	1800.35
1029.209	3019.4013	2685.55	1796.85
1029.3202	3020.4509	2687.5	1796.95
1029.4314	3021.4998	2677.5	1789
1029.5425	3022.5481	2666.7	1778.05
1029.6535	3023.5958	2659.05	1768.3
1029.7645	3024.6428	2676.95	1784.5
1029.8755	3025.6892	2662.75	1774.4
1029.9864	3026.735	2665.6	1774
1030.0973	3027.7802	2655.9	1765.55
1030.2082	3028.8247	2647.4	1757
1030.319	3029.8685	2631.95	1740.85
1030.4297	3030.9118	2642.35	1751.35
1030.5404	3031.9544	2637.8	1748.85
1030.6511	3032.9963	2644.7	1754.25
1030.7617	3034.0376	2640.85	1750.35
1030.8723	3035.0783	2628.5	1737.55
1030.9829	3036.1184	2643.95	1751.65
1031.0934	3037.1578	2631.2	1741.4
1031.2038	3038.1966	2633.6	1742.65
1031.3142	3039.2348	2618.2	1729.55
1031.4246	3040.2723	2618.5	1723.85
1031.5349	3041.3092	2605.45	1715.7
1031.6452	3042.3455	2605.65	1715.9
1031.7554	3043.3811	2589.7	1698.35
1031.8656	3044.4161	2582.9	1691.5
1031.9758	3045.4505	2577.55	1688.85
1032.0859	3046.4842	2576.05	1685.15
1032.1959	3047.5173	2551.1	1663.65
1032.3059	3048.5498	2534.65	1646.35
1032.4159	3049.5816	2526.2	1635
1032.5258	3050.6128	2517.3	1624.8
1032.6357	3051.6434	2511.3	1619.6
1032.7455	3052.6734	2500.8	1609.9
1032.8553	3053.7027	2492.05	1599.55
1032.9651	3054.7314	2478.15	1588.95
1033.0748	3055.7594	2467.4	1578.5
1033.1845	3056.7868	2453.15	1562.45
1033.2941	3057.8136	2435.5	1545.95
1033.4037	3058.8398	2425.4	1535.45
1033.5132	3059.8653	2423.85	1532.1
1033.6227	3060.8902	2409.9	1520.1
1033.7321	3061.9145	2393	1504.15
1033.8415	3062.9381	2386.4	1497.7
1033.9509	3063.9612	2399.15	1491.45
1034.0602	3064.9835	2369.8	1479.4
1034.1694	3066.0053	2354.45	1462.45
1034.2787	3067.0264	2347.9	1457.85
1034.3878	3068.0469	2336.35	1445.2
1034.497	3069.0668	2326.15	1433.05
1034.6061	3070.086	2323.15	1436.3
1034.7151	3071.1046	2297.3	1406.6
1034.8241	3072.1226	2298.3	1406.7
1034.9331	3073.1399	2278.25	1388.4
1035.042	3074.1567	2261.2	1370.85
1035.1508	3075.1727	2250.5	1358
1035.2597	3076.1882	2237	1346.2
1035.3684	3077.203	2226.2	1335.2
1035.4772	3078.2173	2204.65	1312.5
1035.5859	3079.2308	2201.5	1310.3
1035.6945	3080.2438	2189.15	1296.75
1035.8031	3081.2561	2178	1287.95
1035.9117	3082.2678	2159.75	1270.55
1036.0202	3083.2789	2153.05	1261.6
1036.1286	3084.2893	2139.45	1250.45
1036.2371	3085.2991	2130.6	1240
1036.3454	3086.3083	2132.15	1236.3
1036.4538	3087.3169	2112	1220.85
1036.562	3088.3248	2103.9	1212.3
1036.6703	3089.3321	2100.4	1210.75
1036.7785	3090.3388	2089.1	1200.85
1036.8866	3091.3449	2079.6	1190.3
1036.9948	3092.3503	2074.2	1181.55
1037.1028	3093.3551	2069.9	1181.9
1037.2108	3094.3593	2052.75	1163.25
1037.3188	3095.3629	2047.55	1157.55
1037.4267	3096.3658	2037.85	1146.4
1037.5346	3097.3681	2030.95	1140.95
1037.6425	3098.3698	2026.95	1136.65
1037.7503	3099.3708	2015.85	1123.85
1037.858	3100.3713	2014.7	1125.5
1037.9657	3101.3711	1997.6	1107.3
1038.0734	3102.3702	2112.75	1089.15
1038.181	3103.3688	2007.7	1114.2
1038.2886	3104.3667	1978.95	1089.25
1038.3961	3105.364	1971.4	1080.75
1038.5036	3106.3607	1978.25	1088.25
1038.611	3107.3568	1960.1	1069.75
1038.7184	3108.3522	1947.3	1058.2
1038.8257	3109.347	1938.05	1048.05
1038.933	3110.3412	1955.25	1060.7
1039.0403	3111.3348	1930.45	1040.65
1039.1475	3112.3277	1927.5	1036.8
1039.2547	3113.32	1916.45	1027.5
1039.3618	3114.3117	1913.05	1025.8
1039.4689	3115.3028	1908.85	1018.3
1039.5759	3116.2932	1900.65	1009.5
1039.6829	3117.2831	1908.4	1011.6
1039.7898	3118.2723	1895.95	1006
1039.8967	3119.2608	1883.4	995.1
1040.0035	3120.2488	1881.85	993.1
1040.1103	3121.2361	1878.9	990.05
1040.2171	3122.2229	1863.85	974.55
1040.3238	3123.209	1859.15	968.1
1040.4305	3124.1944	1851.7	961.4
1040.5371	3125.1793	1850.45	957.25
1040.6437	3126.1635	1856.1	966.4
1040.7502	3127.1471	1847.85	959.5
1040.8567	3128.1301	1836.3	946.8
1040.9631	3129.1125	1826.35	936.95
1041.0695	3130.0942	1823	933.25
1041.1759	3131.0753	1832.85	932.3
1041.2822	3132.0558	1810.85	918.2
1041.3884	3133.0357	1813.65	922.65
1041.4946	3134.015	1810.3	920.75
1041.6008	3134.9936	1805.6	914.35
1041.7069	3135.9716	1821.95	913.1
1041.813	3136.949	1798.85	909.1
1041.919	3137.9258	1792.4	895.8
1042.025	3138.902	1787.6	893.25
1042.1309	3139.8775	1783.2	894.2
1042.2368	3140.8524	1779.35	889.45
1042.3427	3141.8267	1779.8	889.6
1042.4485	3142.8004	1772.2	881.45
1042.5542	3143.7735	1768.45	873.5
1042.6599	3144.7459	1773.9	879.9
1042.7656	3145.7178	1765.6	874.55
1042.8712	3146.689	1752.15	862.4
1042.9768	3147.6596	1750.35	858.3
1043.0823	3148.6295	1744.3	855.35
1043.1878	3149.5989	1745.65	856.15
1043.2932	3150.5676	1732.15	844.1
1043.3986	3151.5357	1725.2	838.95
1043.5039	3152.5032	1723.85	834.6
1043.6092	3153.4701	1718.25	829.95
1043.7145	3154.4364	1717	824.7
1043.8197	3155.402	1709.4	821.15
1043.9248	3156.367	1702.15	812.55
1044.03	3157.3315	1743.1	807.95
1044.135	3158.2952	1698.85	810.1
1044.24	3159.2584	1694.75	806.15
1044.345	3160.221	1691.3	799.8
1044.4499	3161.1829	1683.25	793.75
1044.5548	3162.1442	1680.65	791.35
1044.6596	3163.105	1673.65	783.15
1044.7644	3164.065	1666.3	774.85
1044.8692	3165.0245	1666.4	773.55
1044.9739	3165.9834	1655.3	767.55
1045.0785	3166.9416	1653.5	764.25
1045.1831	3167.8993	1644.5	755.15
1045.2877	3168.8563	1648.65	758.95
1045.3922	3169.8127	1638.8	749.6
1045.4966	3170.7684	1635.4	747.25
1045.6011	3171.7236	1632.3	740.8
1045.7054	3172.6782	1627.6	738.8
1045.8098	3173.6321	1623.45	732.6
1045.914	3174.5854	1627.75	734.85
1046.0183	3175.5381	1619.2	730
1046.1224	3176.4902	1607.5	717.2
1046.2266	3177.4417	1605.55	715.95
1046.3307	3178.3926	1599.8	711.05
1046.4347	3179.3428	1606.1	717.05
1046.5387	3180.2924	1593.5	705.3
1046.6427	3181.2415	1586.35	697.45
1046.7466	3182.1899	1579.55	689.5
1046.8504	3183.1377	1586.25	698.2
1046.9542	3184.0848	1581.85	687.2
1047.058	3185.0314	1576.15	685.3
1047.1617	3185.9773	1574.75	685.4
1047.2654	3186.9227	1571.9	683.35
1047.369	3187.8674	1561.3	672.8
1047.4726	3188.8115	1559	664.65
1047.5761	3189.755	1565.65	676.25
1047.6796	3190.6979	1554.65	665.6
1047.783	3191.6402	1549.35	661.55
1047.8864	3192.5818	1553.5	664.35
1047.9898	3193.5229	1553.15	651.1
1048.0931	3194.4633	1544.55	653.2
1048.1963	3195.4031	1536.3	646.95
1048.2995	3196.3423	1531.9	642.6
1048.4027	3197.2809	1528.25	638.4
1048.5058	3198.2189	1525.05	637.2
1048.6089	3199.1563	1528.25	632.6
1048.7119	3200.0931	1523.8	635.75
1048.8148	3201.0292	1512.8	623.15
1048.9178	3201.9648	1515.1	624.75
1049.0206	3202.8997	1513.2	620.45
1049.1235	3203.834	1503.6	613.35
1049.2262	3204.7677	1504.1	614.45
1049.329	3205.7008	1502	610.7
1049.4317	3206.6333	1503.65	617.1
1049.5343	3207.5652	1504.05	613.3
1049.6369	3208.4964	1492.65	603.85
1049.7394	3209.4271	1492.8	604.55
1049.8419	3210.3571	1487.35	600.25
1049.9444	3211.2865	1488.8	599
1050.0468	3212.2154	1484.7	594.95
1050.1491	3213.1436	1479.7	586.2
1050.2514	3214.0712	1482.15	586.9
1050.3537	3214.9982	1476.4	586.5
1050.4559	3215.9246	1467.8	576.55
1050.5581	3216.8503	1465.3	578.5
1050.6602	3217.7755	1455.5	566.85
1050.7623	3218.7001	1473.45	585.1
1050.8643	3219.624	1463.2	573.4
1050.9663	3220.5473	1459.35	569.4
1051.0682	3221.4701	1451.45	561.1
1051.1701	3222.3922	1452.35	561.9
1051.2719	3223.3137	1453.45	564.8
1051.3737	3224.2346	1444.15	557
1051.4754	3225.1549	1442.55	554.2
1051.5771	3226.0746	1430.95	542.35
1051.6788	3226.9937	1440.05	551.25
1051.7804	3227.9121	1428.25	540.95
1051.8819	3228.83	1428.9	540.15
1051.9834	3229.7473	1436.4	547.4
1052.0849	3230.6639	1425.95	536.75
1052.1863	3231.5799	1424.6	536.2
1052.2876	3232.4954	1420.35	530.9
1052.3889	3233.4102	1416.65	528.7
1052.4902	3234.3244	1413	523.1
1052.5914	3235.238	1416.1	528.8
1052.6926	3236.151	1433.1	521.4
1052.7937	3237.0634	1397.2	509.9
1052.8948	3237.9752	1399.65	510.05
1052.9958	3238.8864	1396.7	508.5
1053.0968	3239.797	1396.7	507.8
1053.1977	3240.7069	1396.3	507.55
1053.2986	3241.6163	1387.65	496.75
1053.3994	3242.5251	1383.05	494.6
1053.5002	3243.4332	1382.95	494.15
1053.6009	3244.3408	1380.75	491.5
1053.7016	3245.2477	1374.6	484.75
1053.8022	3246.154	1372.6	481.9
1053.9028	3247.0598	1365	475.75
1054.0034	3247.9649	1360.9	471.25
1054.1039	3248.8694	1360.2	472.95
1054.2043	3249.7733	1357.35	469.05
1054.3047	3250.6766	1358.85	469.8
1054.4051	3251.5793	1353.1	461.35
1054.5054	3252.4814	1350.5	461.3
1054.6056	3253.3829	1340.05	451.85
1054.7058	3254.2838	1349.35	460.9
1054.806	3255.1841	1341.8	453.65
1054.9061	3256.0838	1340	451.15
1055.0061	3256.9829	1335.3	446.9
1055.1062	3257.8814	1327.6	437.7
1055.2061	3258.7792	1331.75	440.95
1055.306	3259.6765	1320.25	430.35
1055.4059	3260.5731	1312.1	424.25
1055.5057	3261.4692	1312.45	422.9
1055.6055	3262.3647	1309.2	419.95
1055.7052	3263.2595	1307.15	418.1
1055.8049	3264.1538	1296.7	408.4
1055.9045	3265.0474	1293.95	404.1
1056.0041	3265.9404	1281.35	393.7
1056.1036	3266.8329	1278.65	392
1056.2031	3267.7247	1275.05	372.9
1056.3025	3268.616	1264.15	375.75
1056.4019	3269.5066	1255.75	367.6
1056.5013	3270.3966	1245	354.9
1056.6005	3271.286	1232.35	343.25
