Software Version:	3.9.2.0
Unit SN:	10000200
Spectrometer SN:	6960
Date:	3/6/2024 9:28:48 AM
Data Line Index:	25
Spectral Points:	2048
Integration time (ms):	125
Averages:	20
Delay (ms):	30
Sequence Number:	1
Processing:	dark subtract
Laser Power (mW):	305
Laser Current (mA):	820
Laser Diode Temp (C):	25.1
Laser Case Temp (C):	23.3
System Temp (C):	23
Spectrometer Temp (C):	20.7
CCD Temp (C):	-0.024
Secondary Temp (C):	20.011
Heatsink Temp (C):	17.651
CCDPCB Temp (C):	29.682
SecondaryPCB Temp (C):	25.224

Wavelength	RamanShift	Raw Counts	Dark Subtracted
787.061	30.1047	533.8	126.1
787.2016	32.3739	536.35	131.35
787.3422	34.6426	545.05	135.9
787.4828	36.9109	554.6	146.9
787.6235	39.1787	567.8	155.75
787.7642	41.4461	579.55	162.6
787.9049	43.7131	596.45	178.2
788.0456	45.9796	608.8	185.45
788.1863	48.2456	622.05	196.2
788.3271	50.5112	639.45	208.2
788.4679	52.7764	652.85	219.05
788.6087	55.0411	668.9	231.05
788.7496	57.3054	689.7	246
788.8904	59.5692	699.45	256.95
789.0313	61.8326	722.4	277.65
789.1722	64.0955	739.4	292.5
789.3132	66.3579	771.05	316.25
789.4541	68.6199	802.75	344
789.5951	70.8815	861.65	399.35
789.7361	73.1426	990.95	525.7
789.8771	75.4032	1297.05	828
790.0181	77.6634	2074.6	1601.35
790.1592	79.9231	3956.7	3481.75
790.3003	82.1824	8083.25	7602.9
790.4414	84.4412	15371.25	14885.5
790.5825	86.6995	25193.3	24698.6
790.7237	88.9574	34559.25	34056.75
790.8648	91.2148	41389.85	40883.25
791.006	93.4717	44635.4	44123.55
791.1472	95.7282	46086.7	45572.8
791.2885	97.9842	46709.25	46193.45
791.4297	100.2398	47121.55	46602.8
791.571	102.4949	46777.85	46254.35
791.7123	104.7495	47353.15	46828.95
791.8536	107.0036	46944.7	46415.4
791.9949	109.2573	47728.2	47203.35
792.1363	111.5105	47029.2	46502.25
792.2777	113.7632	47728.25	47199.2
792.4191	116.0154	47784.5	47243.95
792.5605	118.2672	48202.75	47667
792.7019	120.5185	48187.35	47650.5
792.8434	122.7693	48203.4	47662.85
792.9849	125.0197	47898.6	47353.25
793.1264	127.2696	48771.35	48220.6
793.2679	129.519	48876.75	48327.1
793.4094	131.7679	49317.85	48765.6
793.551	134.0163	48034.9	47478.8
793.6926	136.2642	48633.25	48073.45
793.8342	138.5117	49576.05	49013.75
793.9758	140.7587	49281.8	48723.1
794.1175	143.0052	49482.95	48917.35
794.2591	145.2512	48803.9	48236.3
794.4008	147.4967	49689.2	49120.6
794.5425	149.7417	49337.65	48766.3
794.6842	151.9863	49492.1	48916.35
794.826	154.2304	48728.6	48149.2
794.9677	156.4739	49454.15	48869.7
795.1095	158.717	49769.35	49187.3
795.2513	160.9596	49593.9	49004.95
795.3931	163.2017	48993.8	48401.45
795.535	165.4433	49800.8	49207.4
795.6768	167.6844	49450.65	48852.3
795.8187	169.925	49890.65	49292.9
795.9606	172.1651	49648.6	49045.7
796.1025	174.4047	49497.6	48888.9
796.2445	176.6439	49814.9	49206.9
796.3864	178.8825	49879.15	49268.8
796.5284	181.1206	50176.15	49560.1
796.6704	183.3582	50273.6	49654.7
796.8124	185.5954	49752.25	49130.75
796.9544	187.832	50121.1	49496.05
797.0965	190.0681	49812.15	49184.15
797.2386	192.3037	50551.55	49919.75
797.3806	194.5388	51298	50665.4
797.5228	196.7734	49717.55	49084.55
797.6649	199.0075	51020.85	50387.9
797.807	201.2411	50727.55	50092.2
797.9492	203.4742	51482.75	50844.55
798.0914	205.7068	51402	50759.3
798.2336	207.9389	51387.9	50745.6
798.3758	210.1704	51264.6	50629.55
798.518	212.4015	52012.75	51384.4
798.6603	214.632	50955.25	50333.25
798.8025	216.862	51888.6	51268.4
798.9448	219.0915	51869.25	51244.75
799.0871	221.3205	51460.75	50833.65
799.2294	223.549	52172.35	51550.6
799.3718	225.777	52167.9	51544.15
799.5141	228.0044	52368.55	51736.05
799.6565	230.2314	52215.9	51581.1
799.7989	232.4578	52218.4	51581.25
799.9413	234.6837	52279.4	51631.5
800.0837	236.909	53618.1	52971.65
800.2262	239.1339	51852.9	51183.1
800.3687	241.3582	52613.1	51955.25
800.5111	243.582	52613.6	51928.05
800.6536	245.8053	52823.55	52149.85
800.7961	248.0281	52776.4	52108.05
800.9387	250.2503	53117.85	52445.95
801.0812	252.472	52652.45	51978.35
801.2238	254.6932	52851.75	52178
801.3664	256.9139	52781.6	52106.95
801.509	259.134	53975.5	53294.5
801.6516	261.3536	52425.75	51749.25
801.7942	263.5727	53583.6	52904.8
801.9369	265.7912	53018.6	52341.55
802.0795	268.0092	53246.2	52565.45
802.2222	270.2267	53288.85	52607.85
802.3649	272.4436	52851.7	52169.95
802.5076	274.6601	53378.9	52685.4
802.6504	276.8759	53676.1	52983.9
802.7931	279.0913	53588.95	52899.55
802.9359	281.3061	53433.2	52744.75
803.0787	283.5204	53746	53052.55
803.2215	285.7341	53530.9	52836.35
803.3643	287.9473	54303.25	53595.75
803.5071	290.16	53625.5	52927.85
803.6499	292.3721	54248.8	53554.75
803.7928	294.5837	53333.2	52638.45
803.9357	296.7947	53046.05	52348.8
804.0786	299.0052	53890.05	53191.85
804.2215	301.2152	53383.45	52681.95
804.3644	303.4246	54202.4	53506.55
804.5074	305.6334	54108.65	53409.4
804.6503	307.8418	53276.5	52573.85
804.7933	310.0495	53657.8	52954.85
804.9363	312.2568	53396.1	52692.7
805.0793	314.4635	53418.5	52711.05
805.2223	316.6696	53667.45	52957.65
805.3653	318.8752	54107.75	53387.7
805.5084	321.0802	52693.9	51983.75
805.6514	323.2847	53157.7	52445.6
805.7945	325.4887	53315.45	52604.3
805.9376	327.692	52912.05	52201
806.0807	329.8949	53403.75	52689.65
806.2238	332.0972	53158.2	52441.8
806.367	334.2989	53422.7	52701.6
806.5101	336.5001	54021.3	53300.05
806.6533	338.7007	53036.55	52313.45
806.7965	340.9008	53445.95	52725.35
806.9397	343.1003	53502.65	52777.65
807.0829	345.2992	53908.75	53181.05
807.2261	347.4976	53362.5	52634.45
807.3693	349.6955	53526.7	52795.7
807.5126	351.8927	53182.6	52451.6
807.6559	354.0895	53618.95	52876.15
807.7991	356.2856	53433.4	52697.85
807.9424	358.4812	53893.1	53158.9
808.0857	360.6763	53307.85	52569
808.2291	362.8707	53536.45	52797.7
808.3724	365.0646	53372.1	52629
808.5158	367.258	53392.75	52650.65
808.6591	369.4508	53045.9	52299.8
808.8025	371.643	53536.45	52792.2
808.9459	373.8346	53368	52619.55
809.0893	376.0257	53240.95	52489.75
809.2327	378.2162	53071.5	52323.3
809.3762	380.4062	52747.05	51995.5
809.5196	382.5956	52965.8	52216.2
809.6631	384.7844	53125.4	52384.05
809.8066	386.9726	53206.05	52461.85
809.9501	389.1603	53355.8	52616.25
810.0936	391.3474	52662.4	51872.3
810.2371	393.5339	53272	52524.85
810.3806	395.7199	52508	51764.6
810.5241	397.9052	52545.25	51800.7
810.6677	400.09	52737.2	51992.15
810.8113	402.2743	52886.45	52138
810.9548	404.4579	52782.15	52034.4
811.0984	406.641	52541.25	51789.9
811.2421	408.8235	52877.3	52125.95
811.3857	411.0054	52822.15	52065.75
811.5293	413.1868	52802.15	52044.25
811.673	415.3675	52831.35	52067.45
811.8166	417.5477	52906.95	52144.15
811.9603	419.7273	52738.15	51971.95
812.104	421.9064	52546.75	51776.45
812.2477	424.0848	52673.4	51904.8
812.3914	426.2627	52762.6	51995.4
812.5351	428.4399	52149.55	51382.85
812.6788	430.6166	51898.65	51128.25
812.8226	432.7928	52315.9	51542.45
812.9663	434.9683	51814.55	51042.25
813.1101	437.1432	51861	51085.45
813.2539	439.3176	52033.05	51261.15
813.3977	441.4914	51448.4	50675.3
813.5415	443.6645	51604.8	50828.85
813.6853	445.8371	51456.45	50679.95
813.8291	448.0091	51124.85	50350
813.973	450.1806	51058.6	50281.2
814.1168	452.3514	50938.05	50161.6
814.2607	454.5216	50806.75	50020.4
814.4046	456.6913	50791.85	50013.15
814.5485	458.8603	50910.65	50131.4
814.6924	461.0288	50693.15	49914.75
814.8363	463.1967	50794.8	50015.85
814.9802	465.3639	50850.15	50068.8
815.1241	467.5306	50326.1	49545.25
815.2681	469.6967	50448.55	49669.55
815.412	471.8622	50452.8	49672.6
815.556	474.0271	50316.25	49535.6
815.7	476.1914	50334.1	49548.35
815.844	478.3551	50344.6	49560.4
815.988	480.5182	50564.75	49780.55
816.132	482.6807	50240.5	49454.55
816.276	484.8426	50358.75	49575
816.4201	487.0039	50631.15	49844.4
816.5641	489.1647	50575.55	49787
816.7082	491.3248	50277.8	49491.7
816.8522	493.4843	50546.5	49757.15
816.9963	495.6432	50565.05	49778.25
817.1404	497.8015	50097.9	49306.6
817.2845	499.9592	50357	49567.45
817.4286	502.1163	50285.85	49494.1
817.5727	504.2728	50123.3	49327.7
817.7168	506.4287	50317.4	49525.55
817.861	508.5839	50001.75	49208
818.0051	510.7386	50019.55	49226.8
818.1493	512.8927	50113.55	49311.6
818.2935	515.0461	50024.7	49230.6
818.4377	517.199	50173	49377.75
818.5818	519.3512	50152.1	49355.15
818.726	521.5029	49912	49109.45
818.8703	523.6539	50060.85	49263
819.0145	525.8043	49710.2	48908.35
819.1587	527.9541	49867.6	49064.6
819.303	530.1033	49805.85	49003.65
819.4472	532.2519	49591.3	48789.4
819.5915	534.3999	49635.2	48833.2
819.7357	536.5472	49734.05	48931.9
819.88	538.694	49397.75	48596.15
820.0243	540.8401	49638.65	48834.5
820.1686	542.9856	49572.1	48765.95
820.3129	545.1305	49586.25	48780.5
820.4572	547.2748	49593.95	48787.4
820.6016	549.4185	49532.4	48723.5
820.7459	551.5615	49511.05	48705.9
820.8902	553.704	49450.25	48643.75
821.0346	555.8458	49329.55	48523.4
821.1789	557.987	49358.1	48552.65
821.3233	560.1276	49371.6	48564.8
821.4677	562.2675	49343.65	48537.35
821.6121	564.4069	49252.1	48444.85
821.7565	566.5456	49272.05	48464.4
821.9009	568.6837	49142.75	48333.7
822.0453	570.8212	49042.2	48234.75
822.1897	572.958	48760.8	47949.65
822.3342	575.0942	48761.55	47952.1
822.4786	577.2299	48560	47749.75
822.6231	579.3648	48459.9	47649.75
822.7675	581.4992	48217.15	47406.4
822.912	583.6329	48081.1	47270.95
823.0565	585.766	48094.45	47280.75
823.201	587.8985	48071.55	47261.55
823.3454	590.0304	47775.65	46942
823.4899	592.1616	47846.05	47030.05
823.6345	594.2922	47763.85	46947.7
823.779	596.4222	47616.85	46799.6
823.9235	598.5515	47530.9	46715.55
824.068	600.6802	47387.6	46571.45
824.2126	602.8083	47114.65	46294.1
824.3571	604.9358	47161.95	46343.35
824.5017	607.0626	47051.3	46232
824.6462	609.1888	46969.25	46147.85
824.7908	611.3144	46991	46169.95
824.9354	613.4393	46814.1	45994.85
825.08	615.5636	46806.15	45985.6
825.2246	617.6873	46888.55	46069.8
825.3692	619.8103	46891.65	46070.2
825.5138	621.9327	46733.8	45908.25
825.6584	624.0544	46732.9	45911.4
825.803	626.1756	46641.65	45818.05
825.9477	628.2961	46518.05	45695.7
826.0923	630.4159	46451.3	45628.15
826.237	632.5351	46458.9	45634.9
826.3816	634.6537	46424.95	45600.35
826.5263	636.7716	46333.25	45505.5
826.6709	638.8889	46345.6	45520.6
826.8156	641.0056	46381.75	45558.75
826.9603	643.1216	46222.9	45394.6
827.105	645.237	46334.6	45506
827.2497	647.3518	46173	45346.2
827.3944	649.4659	46163.4	45337.2
827.5391	651.5793	46060.95	45235.3
827.6838	653.6922	45943.75	45117
827.8285	655.8043	45892.75	45065.85
827.9733	657.9159	45942.9	45114.3
828.118	660.0268	45715.8	44885.35
828.2627	662.137	45609.6	44779.4
828.4075	664.2466	45637.6	44804.05
828.5522	666.3556	45583.8	44754.3
828.697	668.4639	45465.9	44631.15
828.8418	670.5716	45494	44665.7
828.9865	672.6786	45441.4	44607.85
829.1313	674.785	45269.55	44435.3
829.2761	676.8907	45116.9	44281.25
829.4209	678.9958	45184.3	44352.8
829.5657	681.1002	45036.5	44201.5
829.7105	683.204	44909.35	44072.4
829.8553	685.3072	44867.1	44031.4
830.0001	687.4097	44823.65	43990.6
830.1449	689.5115	44816.65	43979.85
830.2898	691.6127	44811.35	43976.1
830.4346	693.7132	44668.5	43833
830.5794	695.8131	44735.25	43879.75
830.7243	697.9123	44655.3	43817.95
830.8691	700.0109	44610.35	43771.5
831.014	702.1089	44558.2	43722.45
831.1588	704.2061	44465.35	43628.25
831.3037	706.3028	44473.85	43635.2
831.4486	708.3987	44481.9	43644.05
831.5935	710.4941	44379.25	43541.1
831.7383	712.5887	44311.45	43471.05
831.8832	714.6827	44231.1	43388.5
832.0281	716.7761	44220.15	43381.25
832.173	718.8688	44209.45	43368.8
832.3179	720.9608	44055.75	43212.15
832.4628	723.0522	44079.5	43236.05
832.6077	725.1429	43980.05	43138
832.7527	727.233	43951.6	43109.4
832.8976	729.3224	43993.55	43152.95
833.0425	731.4112	43865.65	43024.35
833.1874	733.4993	43765.5	42920.3
833.3324	735.5867	43636.45	42792.35
833.4773	737.6735	43611.65	42766.75
833.6222	739.7596	43443.3	42598.7
833.7672	741.845	43323.55	42480.55
833.9122	743.9298	43279.5	42431.85
834.0571	746.014	43151.35	42309.3
834.2021	748.0974	43178.95	42330.85
834.347	750.1802	42979	42132.8
834.492	752.2624	42825.5	41980.15
834.637	754.3439	42708.9	41861.95
834.782	756.4247	42606.6	41755.45
834.9269	758.5048	42475.15	41628.3
835.0719	760.5843	42388.75	41543
835.2169	762.6631	42299.7	41451.9
835.3619	764.7413	42201.05	41356.65
835.5069	766.8188	42233.55	41385.95
835.6519	768.8956	42107	41256.85
835.7969	770.9718	42134.1	41286.25
835.9419	773.0473	41890.85	41043.65
836.0869	775.1221	41894.1	41047.6
836.232	777.1962	41725.1	40878.15
836.377	779.2697	41761.55	40911.35
836.522	781.3426	41678.4	40817.25
836.667	783.4147	41630.35	40779.7
836.8121	785.4862	41549.3	40699.65
836.9571	787.557	41480.45	40631.5
837.1021	789.6271	41336.35	40486.05
837.2472	791.6966	41160.05	40310.3
837.3922	793.7654	40948.9	40097.6
837.5373	795.8335	40963.05	40110.65
837.6823	797.901	40779	39929.55
837.8274	799.9678	40719.2	39866.8
837.9724	802.0339	40648.2	39796.1
838.1175	804.0993	40610.5	39747.95
838.2626	806.1641	40444.25	39590.5
838.4076	808.2282	40344.25	39494.4
838.5527	810.2916	40327.15	39472.2
838.6978	812.3544	40296.9	39445.1
838.8428	814.4164	40172.25	39320.15
838.9879	816.4778	40257.35	39403.6
839.133	818.5385	40143.05	39291.35
839.2781	820.5986	40123.05	39269.7
839.4232	822.658	40134	39278.55
839.5682	824.7166	39988.5	39133.3
839.7133	826.7747	40106.4	39252.9
839.8584	828.832	40041.75	39188.45
840.0035	830.8886	39843.75	38987.5
840.1486	832.9446	39863.4	39007.85
840.2937	834.9999	39735.4	38881.25
840.4388	837.0545	39675.85	38817.1
840.5839	839.1085	39603.2	38746.65
840.729	841.1618	39486.9	38627.5
840.8741	843.2143	39346.6	38491.35
841.0192	845.2662	39166.7	38311.05
841.1643	847.3175	39161.85	38305.75
841.3095	849.368	39026.75	38169.05
841.4546	851.4179	38946.85	38091.4
841.5997	853.467	38766.7	37910.75
841.7448	855.5155	38765.8	37909.2
841.8899	857.5633	38694.95	37837.6
842.0351	859.6105	38588.5	37734.1
842.1802	861.6569	38573.4	37716.9
842.3253	863.7027	38472.45	37612.5
842.4704	865.7478	38438.05	37578.9
842.6156	867.7922	38398	37538.8
842.7607	869.8359	38304.2	37447.6
842.9058	871.8789	38237.1	37379.05
843.0509	873.9212	38223.8	37335.2
843.1961	875.9629	38042.3	37184.9
843.3412	878.0039	38066.2	37205.05
843.4863	880.0441	37988.7	37129.55
843.6315	882.0837	37995.45	37133.5
843.7766	884.1226	37942.15	37081
843.9218	886.1609	37898	37037.95
844.0669	888.1984	37920.75	37060.75
844.212	890.2352	37977.45	37118.55
844.3572	892.2714	37905.05	37041.7
844.5023	894.3069	37853.65	36994.2
844.6475	896.3416	37674.45	36814.35
844.7926	898.3757	37677.05	36816.65
844.9377	900.4091	37574.05	36711.8
845.0829	902.4418	37497.9	36630.9
845.228	904.4739	37370.55	36508.2
845.3732	906.5052	37284.5	36420.75
845.5183	908.5358	37222.5	36360.8
845.6635	910.5658	37205.1	36341.45
845.8086	912.595	37098.1	36235.9
845.9538	914.6236	36983.35	36120.65
846.0989	916.6515	36899.05	36037.35
846.2441	918.6786	36772.85	35908.35
846.3892	920.7051	36771.65	35908.05
846.5344	922.7309	36781.9	35919.2
846.6795	924.756	36628	35765.5
846.8246	926.7804	36629.2	35765.1
846.9698	928.8041	36279.65	35415.45
847.1149	930.8272	36405.3	35542.05
847.2601	932.8495	36192.5	35328.6
847.4052	934.8711	36187.65	35323.45
847.5504	936.892	35984.35	35121.1
847.6955	938.9123	35896.65	35029.65
847.8407	940.9318	35816.05	34951.7
847.9858	942.9506	35714.2	34849.35
848.131	944.9688	35633.1	34767.95
848.2761	946.9862	35491.1	34626.05
848.4213	949.003	35326.1	34460.8
848.5664	951.019	35214.75	34350.7
848.7115	953.0344	35126.65	34261.75
848.8567	955.0491	35097.7	34232.7
849.0018	957.063	35095.7	34231.25
849.147	959.0763	35112.75	34247.75
849.2921	961.0888	34956.45	34088.65
849.4373	963.1007	34938	34071.95
849.5824	965.1119	34896.5	34032.1
849.7275	967.1223	34811.05	33947.15
849.8727	969.1321	34750.7	33884.7
850.0178	971.1412	34707.9	33843.5
850.1629	973.1495	34551.25	33685.8
850.3081	975.1572	34574	33659.05
850.4532	977.1641	34515.1	33649.35
850.5983	979.1704	34356.3	33487.6
850.7435	981.1759	34236.15	33365.3
850.8886	983.1808	34233.75	33365.3
851.0337	985.1849	34132.65	33260.55
851.1788	987.1884	34083.95	33214.3
851.324	989.1911	33959.7	33091.5
851.4691	991.1932	33942.3	33074.2
851.6142	993.1945	33765.9	32900.5
851.7593	995.1951	33599.7	32731.05
851.9045	997.1951	33573.6	32699.8
852.0496	999.1943	33412.45	32543.6
852.1947	1001.1928	33311.6	32441.65
852.3398	1003.1906	33146.65	32278.5
852.4849	1005.1877	33179.4	32310.2
852.63	1007.1841	33017.3	32147.6
852.7751	1009.1798	32895.65	32028.15
852.9202	1011.1748	32739.9	31870.7
853.0653	1013.1691	32671.95	31800.7
853.2104	1015.1627	32565.6	31693.3
853.3555	1017.1556	32305.7	31436.1
853.5006	1019.1477	32249.5	31379.6
853.6457	1021.1392	32063.65	31197.05
853.7908	1023.1299	31982.6	31113.95
853.9359	1025.12	31838.3	30969.15
854.081	1027.1093	31707.4	30840.85
854.2261	1029.0979	31644.1	30778.85
854.3712	1031.0859	31495.95	30626.95
854.5163	1033.0731	31441.5	30572.05
854.6613	1035.0596	31307.15	30433.85
854.8064	1037.0454	31169.95	30301
854.9515	1039.0304	31125.4	30253.2
855.0965	1041.0148	30944.6	30073.35
855.2416	1042.9985	30873.4	30004.55
855.3867	1044.9814	30854.55	29984.45
855.5317	1046.9636	30651.4	29777.2
855.6768	1048.9452	30588.85	29719.75
855.8219	1050.926	30558.25	29688.5
855.9669	1052.9061	30497.45	29626.35
856.112	1054.8855	30372.95	29502.7
856.257	1056.8642	30359	29488.1
856.4021	1058.8421	30351.4	29477.7
856.5471	1060.8194	30199.4	29327.1
856.6921	1062.7959	30120.45	29249.15
856.8372	1064.7717	30086	29210.8
856.9822	1066.7469	30010.6	29138
857.1272	1068.7213	29953.35	29078.5
857.2723	1070.695	29893.05	29023.05
857.4173	1072.6679	29749.95	28878.9
857.5623	1074.6402	29770.65	28896.6
857.7073	1076.6117	29752.8	28876.8
857.8523	1078.5826	29702.6	28830.4
857.9973	1080.5527	29526.45	28652.35
858.1423	1082.5221	29441.4	28570.25
858.2873	1084.4908	29373.85	28499.85
858.4323	1086.4587	29306.6	28433.25
858.5773	1088.426	29210.65	28336.95
858.7223	1090.3925	29089.4	28210.9
858.8673	1092.3584	29079.85	28208.25
859.0123	1094.3235	28943.3	28071.1
859.1573	1096.2879	28882.05	28008.1
859.3022	1098.2515	28844.5	27974
859.4472	1100.2145	28880.7	28007.3
859.5922	1102.1767	28786.4	27911.15
859.7371	1104.1382	28727	27853.35
859.8821	1106.099	28701.6	27826.7
860.027	1108.0591	28619.25	27745.7
860.172	1110.0185	28600.55	27725.45
860.3169	1111.9771	28614.15	27742.4
860.4619	1113.9351	28518.65	27646.2
860.6068	1115.8923	28474.1	27597.35
860.7517	1117.8488	28420.55	27545.25
860.8967	1119.8045	28318.25	27442.65
861.0416	1121.7596	28220.3	27345.35
861.1865	1123.7139	28019.6	27146.05
861.3314	1125.6675	27884.6	27010.25
861.4763	1127.6204	27921.75	27049.1
861.6212	1129.5726	27798.55	26921.35
861.7661	1131.524	27798.4	26923.5
861.911	1133.4748	27787.95	26913
862.0559	1135.4248	27630.5	26755.6
862.2008	1137.3741	27565.8	26692.4
862.3457	1139.3226	27423.4	26548.85
862.4905	1141.2705	27452.6	26579.25
862.6354	1143.2176	27328.95	26448.95
862.7803	1145.164	27295.7	26417.75
862.9251	1147.1097	27245.15	26368.1
863.07	1149.0546	27194.65	26317.1
863.2148	1150.9989	27135.1	26259.75
863.3597	1152.9424	27154.1	26277.75
863.5045	1154.8852	27030.35	26153.35
863.6493	1156.8272	27029.65	26155.85
863.7942	1158.7686	27051.55	26169.9
863.939	1160.7092	26876.4	26001.65
864.0838	1162.6491	26781.55	25903.05
864.2286	1164.5883	26753.6	25879.6
864.3734	1166.5267	26716.25	25836.4
864.5182	1168.4644	26730.95	25853.75
864.663	1170.4014	26644.65	25763.35
864.8078	1172.3377	26708.9	25834.9
864.9526	1174.2732	26685.7	25809.8
865.0974	1176.2081	26721.3	25846.6
865.2421	1178.1421	26728.8	25848.25
865.3869	1180.0755	26814.35	25938.95
865.5317	1182.0082	26741.6	25867.9
865.6764	1183.9401	26710.45	25832.35
865.8212	1185.8713	26571.7	25698.55
865.9659	1187.8017	26450.5	25574.35
866.1106	1189.7315	26347.9	25473.2
866.2554	1191.6605	26138.8	25263.35
866.4001	1193.5888	25968.05	25091.6
866.5448	1195.5163	25912.85	25036.55
866.6895	1197.4432	25776.95	24899.45
866.8342	1199.3693	25680.25	24806.15
866.9789	1201.2947	25587.4	24709.2
867.1236	1203.2193	25551.55	24674.3
867.2683	1205.1432	25470.6	24592.95
867.413	1207.0664	25370.55	24493.85
867.5576	1208.9889	25335.55	24454.75
867.7023	1210.9106	25227.15	24349
867.847	1212.8316	25092.3	24215.45
867.9916	1214.7519	25111.15	24224.55
868.1363	1216.6715	25000.05	24123.45
868.2809	1218.5903	25014.2	24138.6
868.4255	1220.5084	24942.35	24066.8
868.5701	1222.4257	24960.25	24080.7
868.7148	1224.3424	24809.85	23933.7
868.8594	1226.2583	24750.8	23869.8
869.004	1228.1735	24718	23838.5
869.1486	1230.0879	24625.2	23745.3
869.2932	1232.0016	24642.5	23765.5
869.4377	1233.9146	24573.45	23694.7
869.5823	1235.8269	24538.95	23661.5
869.7269	1237.7384	24562.25	23683.65
869.8715	1239.6492	24387.2	23509.75
870.016	1241.5592	24366.35	23488.25
870.1606	1243.4686	24299.05	23421
870.3051	1245.3772	24382.45	23505
870.4496	1247.285	24338.05	23459.4
870.5941	1249.1922	24317.55	23438.9
870.7387	1251.0986	24376.2	23498.85
870.8832	1253.0042	24298.65	23421.95
871.0277	1254.9092	24318.55	23438.75
871.1722	1256.8134	24320.1	23441.45
871.3167	1258.7169	24436.5	23556.35
871.4611	1260.6196	24424.15	23543.7
871.6056	1262.5216	24447.35	23567.15
871.7501	1264.4229	24356.55	23478.5
871.8945	1266.3234	24347.15	23467.3
872.039	1268.2232	24273.5	23392
872.1834	1270.1223	24143.45	23264.25
872.3278	1272.0207	24107.2	23227.4
872.4723	1273.9183	24020.55	23136.1
872.6167	1275.8151	23965	23088.25
872.7611	1277.7113	23956.75	23077.05
872.9055	1279.6067	23965.1	23086.6
873.0499	1281.5014	24016.1	23135.85
873.1943	1283.3953	24131.9	23250.55
873.3386	1285.2885	24278.55	23400.35
873.483	1287.181	24407.15	23526.75
873.6274	1289.0727	24443.7	23563.55
873.7717	1290.9637	24394.35	23516.5
873.9161	1292.854	24299.9	23421.95
874.0604	1294.7435	24090.55	23210
874.2047	1296.6323	23944.2	23063.45
874.349	1298.5204	23853.85	22971.5
874.4933	1300.4077	23715.9	22833.25
874.6376	1302.2943	23632.4	22753.55
874.7819	1304.1802	23663	22782.5
874.9262	1306.0653	23538.65	22657.3
875.0705	1307.9497	23519.4	22639.55
875.2147	1309.8333	23473.2	22594.9
875.359	1311.7162	23427.1	22548.1
875.5032	1313.5984	23372.75	22490.65
875.6475	1315.4798	23326.05	22432.05
875.7917	1317.3605	23277.4	22395.65
875.9359	1319.2405	23286.65	22404.9
876.0801	1321.1197	23219.45	22337.6
876.2243	1322.9982	23152.5	22268.45
876.3685	1324.876	23156.3	22277.4
876.5127	1326.753	23034.4	22154.9
876.6569	1328.6293	22951.05	22068.1
876.801	1330.5048	22893.65	22010.6
876.9452	1332.3796	22740.4	21862.35
877.0893	1334.2537	22702.85	21796.75
877.2335	1336.127	22605.5	21725.5
877.3776	1337.9996	22535.5	21654.9
877.5217	1339.8714	22469.2	21589
877.6658	1341.7426	22439.55	21514.6
877.8099	1343.6129	22357.35	21475
877.954	1345.4826	22336	21455.65
878.0981	1347.3515	22336.55	21452.45
878.2422	1349.2196	22206.05	21325.45
878.3862	1351.087	22205.5	21326.4
878.5303	1352.9537	22190.4	21310.7
878.6743	1354.8197	22184.7	21305.3
878.8184	1356.6849	22168.85	21288.15
878.9624	1358.5493	22075.25	21192.9
879.1064	1360.4131	22049.05	21169.85
879.2504	1362.276	22072.35	21190.9
879.3944	1364.1383	22034.6	21155.15
879.5384	1365.9998	21965.35	21076.95
879.6823	1367.8606	21887.9	21005.25
879.8263	1369.7206	21894.7	21015.65
879.9702	1371.5799	21837.9	20956.2
880.1142	1373.4384	21748.35	20868.95
880.2581	1375.2962	21717.95	20835
880.402	1377.1533	21596.7	20716.05
880.5459	1379.0096	21514.95	20632.4
880.6898	1380.8652	21405.15	20524.15
880.8337	1382.7201	21352.35	20470.5
880.9776	1384.5742	21211.95	20329.85
881.1215	1386.4275	21112.25	20231.45
881.2653	1388.2802	21009.3	20130.35
881.4092	1390.132	20958.7	20076.85
881.553	1391.9832	20969.7	20087.7
881.6968	1393.8336	20850.25	19970.45
881.8406	1395.6832	20834.5	19951.45
881.9844	1397.5322	20684.45	19802.9
882.1282	1399.3803	20645.5	19760.15
882.272	1401.2278	20535.65	19652.85
882.4158	1403.0745	20484.7	19602.7
882.5595	1404.9204	20394.05	19512.55
882.7033	1406.7656	20337	19455.8
882.847	1408.6101	20243.1	19362.75
882.9908	1410.4538	20211.15	19330.25
883.1345	1412.2968	20158.75	19278.55
883.2782	1414.139	20069.05	19188.9
883.4219	1415.9805	20069.5	19187.1
883.5656	1417.8213	20016.05	19115
883.7092	1419.6613	19897.1	19016.85
883.8529	1421.5006	19892.55	19012.05
883.9965	1423.3391	19915.85	19030.75
884.1402	1425.1769	19821.5	18938.35
884.2838	1427.0139	19894.7	19012.55
884.4274	1428.8502	19889.8	19007.45
884.571	1430.6858	19898.65	19015.35
884.7146	1432.5206	19837	18955.15
884.8582	1434.3547	19797.15	18913.55
885.0018	1436.188	19804.65	18922.65
885.1453	1438.0206	19749.1	18866
885.2889	1439.8524	19684.9	18802.6
885.4324	1441.6835	19653.3	18770.4
885.5759	1443.5139	19602.5	18718.75
885.7194	1445.3435	19542.2	18660.85
885.8629	1447.1724	19562.4	18680.95
886.0064	1449.0005	19509.7	18628.5
886.1499	1450.8279	19467.15	18582.35
886.2933	1452.6545	19465.35	18584.05
886.4368	1454.4804	19486	18607.2
886.5802	1456.3056	19401.15	18513.4
886.7237	1458.13	19347.35	18466.55
886.8671	1459.9536	19300.15	18417.85
887.0105	1461.7766	19284.9	18403.65
887.1539	1463.5987	19201.45	18317.65
887.2972	1465.4202	19145.95	18262.9
887.4406	1467.2409	19058.65	18175.2
887.584	1469.0608	19034.3	18152.8
887.7273	1470.88	18932.25	18048.35
887.8706	1472.6984	18886.85	18005.95
888.0139	1474.5161	18803.15	17919.55
888.1572	1476.3331	18780.2	17900.85
888.3005	1478.1493	18741.55	17858.8
888.4438	1479.9648	18717.9	17836.6
888.5871	1481.7795	18656.05	17774.7
888.7303	1483.5935	18622.3	17740.7
888.8736	1485.4067	18578.85	17697.4
889.0168	1487.2192	18553.55	17670.95
889.16	1489.031	18559.5	17676.4
889.3032	1490.842	18564.2	17682.2
889.4464	1492.6522	18522.45	17638.8
889.5896	1494.4618	18458.3	17575.45
889.7327	1496.2705	18438.7	17555.85
889.8759	1498.0785	18362.7	17479.65
890.019	1499.8858	18321.8	17440.35
890.1622	1501.6924	18278.3	17396
890.3053	1503.4981	18245.55	17364.95
890.4484	1505.3032	18234.15	17354.2
890.5914	1507.1075	18177.75	17294.35
890.7345	1508.911	18136.1	17254.55
890.8776	1510.7138	18078.2	17194.85
891.0206	1512.5159	18038.4	17153.7
891.1637	1514.3172	17975.6	17093.15
891.3067	1516.1178	17892.05	17010.25
891.4497	1517.9176	17864.45	16978.2
891.5927	1519.7166	17809.25	16927.15
891.7357	1521.515	17753.15	16864.95
891.8786	1523.3126	17691.55	16808.45
892.0216	1525.1094	17638.25	16756
892.1645	1526.9055	17590.5	16710.55
892.3074	1528.7008	17553.45	16669.15
892.4503	1530.4954	17457.35	16567.6
892.5932	1532.2893	17390.05	16506.45
892.7361	1534.0824	17303.7	16418.05
892.879	1535.8747	17296	16413.2
893.0218	1537.6663	17195.2	16311.75
893.1647	1539.4572	17168.6	16283.75
893.3075	1541.2473	17143.65	16260.6
893.4503	1543.0367	17059	16177.7
893.5931	1544.8253	16991.6	16106.1
893.7359	1546.6132	16987.9	16105.15
893.8787	1548.4003	16878	15985.8
894.0214	1550.1867	16875.95	15985.95
894.1642	1551.9723	16830.8	15944.35
894.3069	1553.7572	16793.5	15910.95
894.4496	1555.5414	16751.65	15870.1
894.5923	1557.3247	16734.65	15851.95
894.735	1559.1074	16694.4	15814.65
894.8777	1560.8893	16663.05	15780.9
895.0204	1562.6705	16609.5	15728.9
895.163	1564.4509	16611.8	15730.05
895.3056	1566.2305	16564.35	15684.2
895.4482	1568.0094	16555.45	15676.85
895.5908	1569.7876	16524.2	15642.45
895.7334	1571.565	16489	15606.4
895.876	1573.3417	16471.35	15591.15
896.0186	1575.1176	16420.85	15538.25
896.1611	1576.8928	16399.5	15517.55
896.3036	1578.6672	16328	15448.3
896.4461	1580.4409	16309.9	15429.75
896.5886	1582.2138	16264.55	15380.75
896.7311	1583.986	16273.05	15391.5
896.8736	1585.7575	16240.7	15360.15
897.0161	1587.5282	16226.9	15348.3
897.1585	1589.2981	16254.85	15374.9
897.3009	1591.0673	16186.35	15304.45
897.4433	1592.8358	16153.7	15272.85
897.5857	1594.6035	16093.3	15209.8
897.7281	1596.3704	16019.2	15136.35
897.8705	1598.1366	15921.7	15040.2
898.0128	1599.9021	15871.15	14990.5
898.1551	1601.6668	15803.25	14922.15
898.2975	1603.4308	15706.45	14824.75
898.4398	1605.194	15657.35	14768.2
898.5821	1606.9564	15589.65	14709.7
898.7243	1608.7182	15608.1	14723.65
898.8666	1610.4791	15609.25	14727.5
899.0088	1612.2394	15643.85	14764.3
899.1511	1613.9988	15694.6	14811.4
899.2933	1615.7576	15754.9	14873
899.4355	1617.5156	15745.55	14858.6
899.5776	1619.2728	15724	14843.35
899.7198	1621.0293	15650.65	14769.3
899.862	1622.785	15468.85	14582.65
900.0041	1624.54	15344.75	14459.15
900.1462	1626.2942	15189.3	14306.65
900.2883	1628.0477	15020.9	14136.2
900.4304	1629.8005	14907.3	14023.5
900.5725	1631.5525	14811.15	13931.85
900.7145	1633.3037	14748.15	13865
900.8566	1635.0542	14669.85	13787.25
900.9986	1636.804	14590.75	13708.3
901.1406	1638.553	14605.75	13636.3
901.2826	1640.3013	14489.35	13608.2
901.4245	1642.0488	14404.5	13521.8
901.5665	1643.7955	14365.5	13484.35
901.7085	1645.5416	14283.8	13400.95
901.8504	1647.2868	14247.65	13366.25
901.9923	1649.0313	14181.85	13300.8
902.1342	1650.7751	14166.85	13283.65
902.2761	1652.5181	14115.2	13236.6
902.4179	1654.2604	14053.25	13170.4
902.5598	1656.0019	13996.95	13116.85
902.7016	1657.7427	14018.25	13136.55
902.8434	1659.4828	13971.2	13088.7
902.9852	1661.222	13958.75	13075.35
903.127	1662.9606	13929.15	13048.45
903.2687	1664.6984	13922	13039.05
903.4105	1666.4354	13906.2	13024.85
903.5522	1668.1717	13850.1	12967.4
903.6939	1669.9072	13781	12899.3
903.8356	1671.642	13717.15	12833
903.9773	1673.3761	13660.35	12779.1
904.119	1675.1094	13571	12689.55
904.2606	1676.8419	13483.45	12601.1
904.4022	1678.5737	13410.1	12528.6
904.5439	1680.3048	13381.35	12501.1
904.6855	1682.0351	13299.6	12417.7
904.827	1683.7646	13246.6	12364.65
904.9686	1685.4934	13190.85	12308.55
905.1101	1687.2215	13157.6	12275.6
905.2517	1688.9488	13054.95	12174.7
905.3932	1690.6754	13032	12151.7
905.5347	1692.4012	12967.6	12085.65
905.6761	1694.1263	12935.75	12055.25
905.8176	1695.8506	12908.8	12024.5
905.9591	1697.5742	12846.2	11963.6
906.1005	1699.297	12797.6	11915.7
906.2419	1701.0191	12715.75	11834
906.3833	1702.7404	12674.7	11793.25
906.5246	1704.461	12601.5	11719.4
906.666	1706.1808	12576	11692.6
906.8073	1707.8999	12550	11667.6
906.9487	1709.6182	12488.35	11606.35
907.09	1711.3358	12470.25	11587.9
907.2313	1713.0527	12408.7	11530.8
907.3725	1714.7688	12374.5	11487.85
907.5138	1716.4841	12335.1	11452.9
907.655	1718.1987	12327.45	11440.5
907.7962	1719.9126	12264.6	11384.15
907.9374	1721.6257	12230.35	11344.7
908.0786	1723.338	12234.4	11352.45
908.2198	1725.0496	12158.3	11276.35
908.3609	1726.7605	12122.2	11240.35
908.502	1728.4706	12095.8	11212.8
908.6431	1730.18	12015.1	11131.55
908.7842	1731.8886	12004.5	11123.35
908.9253	1733.5964	12009.8	11106.15
909.0664	1735.3036	11975.95	11091.45
909.2074	1737.0099	11958.95	11078.5
909.3484	1738.7156	11947.65	11068.15
909.4894	1740.4204	11886.6	11001.35
909.6304	1742.1246	11874.35	10989.3
909.7714	1743.8279	11846.9	10964.65
909.9123	1745.5306	11822.85	10938.35
910.0532	1747.2325	11795.1	10913.15
910.1941	1748.9336	11763.25	10882.65
910.335	1750.634	11701.6	10818.1
910.4759	1752.3336	11699.5	10819.1
910.6168	1754.0325	11690.85	10810.55
910.7576	1755.7307	11661.45	10779.4
910.8984	1757.4281	11673.6	10791.6
911.0392	1759.1247	11660.7	10768.8
911.18	1760.8206	11635.1	10749.1
911.3208	1762.5158	11597.05	10711.6
911.4615	1764.2102	11587.55	10705.6
911.6022	1765.9039	11540	10658
911.7429	1767.5968	11512.45	10630.85
911.8836	1769.289	11469	10587.3
912.0243	1770.9804	11455.85	10572.6
912.1649	1772.6711	11442.9	10561.75
912.3056	1774.361	11413.45	10531.7
912.4462	1776.0502	11398.2	10516.3
912.5868	1777.7386	11375.85	10490.15
912.7274	1779.4263	11301.75	10419.85
912.8679	1781.1132	11337.05	10455.45
913.0084	1782.7994	11272.7	10389.65
913.149	1784.4849	11225.8	10343.85
913.2895	1786.1696	11215.45	10314.75
913.4299	1787.8535	11193.25	10314.9
913.5704	1789.5367	11164.5	10284.65
913.7108	1791.2192	11145.55	10265.55
913.8513	1792.9009	11084.05	10182.6
913.9917	1794.5818	11073.25	10192
914.132	1796.2621	11072.45	10190.75
914.2724	1797.9415	11018.5	10135.45
914.4128	1799.6202	10992.75	10109.9
914.5531	1801.2982	10974.1	10092.75
914.6934	1802.9755	10933.25	10049.4
914.8337	1804.6519	10928.65	10045.4
914.9739	1806.3277	10870.25	9987.45
915.1142	1808.0027	10835.7	9957.1
915.2544	1809.6769	10846.2	9964.85
915.3946	1811.3504	10794.05	9911.7
915.5348	1813.0231	10787.7	9905.3
915.675	1814.6951	10766.5	9883.65
915.8151	1816.3664	10759	9874.6
915.9553	1818.0369	10741.75	9862.05
916.0954	1819.7067	10693.8	9812.6
916.2355	1821.3757	10682.05	9799.05
916.3755	1823.044	10637.6	9755.6
916.5156	1824.7115	10632.15	9749.05
916.6556	1826.3783	10572.8	9692.75
916.7956	1828.0443	10548.8	9668.65
916.9356	1829.7096	10550.4	9665.35
917.0756	1831.3741	10530.85	9646
917.2155	1833.0379	10543.2	9662.1
917.3555	1834.701	10479.8	9596
917.4954	1836.3633	10481.1	9598.65
917.6353	1838.0248	10412.2	9528.95
917.7751	1839.6856	10395.5	9513.5
917.915	1841.3457	10387.15	9506.3
918.0548	1843.005	10357.75	9477.4
918.1946	1844.6636	10328	9448.4
918.3344	1846.3214	10311.1	9427.1
918.4742	1847.9785	10308.85	9428.05
918.6139	1849.6349	10266.5	9382.9
918.7537	1851.2904	10237.35	9348.2
918.8934	1852.9453	10219.15	9338.35
919.0331	1854.5994	10178.6	9294.2
919.1727	1856.2528	10187.5	9301.25
919.3124	1857.9054	10151.55	9272.15
919.452	1859.5572	10151.8	9270.55
919.5916	1861.2083	10144.3	9262
919.7312	1862.8587	10138.5	9256.85
919.8708	1864.5084	10100.8	9217.65
920.0103	1866.1572	10066.95	9185.5
920.1498	1867.8054	10035.25	9153.3
920.2893	1869.4528	10010	9126.1
920.4288	1871.0994	9964.2	9083.6
920.5683	1872.7453	9964.7	9081.5
920.7077	1874.3905	9932.25	9042.45
920.8471	1876.0349	9882.35	8998.7
920.9865	1877.6786	9907.3	9023.05
921.1259	1879.3215	9898.5	9016.8
921.2653	1880.9637	9875.4	8991.1
921.4046	1882.6051	9853.35	8971.6
921.5439	1884.2458	9824.6	8939.4
921.6832	1885.8858	9772.05	8890.3
921.8225	1887.525	9767.4	8884.3
921.9617	1889.1634	9706.95	8826.65
922.101	1890.8011	9706.3	8825.45
922.2402	1892.4381	9692.4	8810.9
922.3794	1894.0743	9693.9	8810.65
922.5185	1895.7098	9657.7	8777
922.6577	1897.3446	9630.6	8748.05
922.7968	1898.9786	9632.7	8747.45
922.9359	1900.6118	9582.7	8703.25
923.075	1902.2443	9526.65	8640.65
923.214	1903.8761	9517.95	8636
923.3531	1905.5071	9487.75	8603.9
923.4921	1907.1374	9458.9	8575.2
923.6311	1908.7669	9430.1	8550.75
923.77	1910.3957	9420.7	8538.95
923.909	1912.0237	9367.3	8484.55
924.0479	1913.651	9349.3	8467.35
924.1868	1915.2776	9339.55	8456.05
924.3257	1916.9034	9295.25	8413.6
924.4646	1918.5285	9259.75	8377.65
924.6034	1920.1528	9204.95	8322.7
924.7422	1921.7764	9214.25	8333.8
924.881	1923.3992	9168.55	8285.65
925.0198	1925.0213	9131.4	8250.8
925.1586	1926.6427	9090.85	8210.25
925.2973	1928.2633	9256.65	8164.9
925.436	1929.8832	9084	8199.4
925.5747	1931.5023	9030.75	8148.05
925.7134	1933.1207	9000.2	8117.25
925.852	1934.7383	8980.55	8096.85
925.9906	1936.3552	8939	8056.65
926.1292	1937.9714	8924.75	8044.05
926.2678	1939.5868	8910.25	8025.85
926.4064	1941.2015	8853.9	7972.15
926.5449	1942.8154	8829.2	7947.45
926.6834	1944.4286	8800.3	7917.1
926.8219	1946.041	8802.5	7898.75
926.9604	1947.6528	8739.55	7852.3
927.0988	1949.2637	8728.75	7847.7
927.2372	1950.8739	8683.85	7801.5
927.3756	1952.4834	8669.7	7786.6
927.514	1954.0921	8672.45	7792.15
927.6523	1955.7001	8642.7	7756.5
927.7907	1957.3074	8612	7733.35
927.929	1958.9139	8573.1	7693.25
928.0673	1960.5197	8554.5	7670.75
928.2055	1962.1247	8524.95	7642.45
928.3438	1963.729	8483.3	7602.25
928.482	1965.3325	8457	7551.75
928.6202	1966.9353	8431.35	7549.85
928.7584	1968.5374	8429	7547.25
928.8965	1970.1387	8392.75	7511.4
929.0346	1971.7393	8374.25	7492.8
929.1727	1973.3392	8339.5	7458.3
929.3108	1974.9383	8321.9	7442.5
929.4489	1976.5366	8289.2	7408.45
929.5869	1978.1342	8279.35	7397.6
929.7249	1979.7311	8248.2	7365.8
929.8629	1981.3273	8238.85	7357.15
930.0009	1982.9227	8233.6	7351.85
930.1388	1984.5173	8199.25	7319.35
930.2767	1986.1112	8170.9	7288.45
930.4146	1987.7044	8151.3	7271.85
930.5525	1989.2968	8121.05	7239.1
930.6904	1990.8885	8092.9	7208.8
930.8282	1992.4795	8083.85	7200.3
930.966	1994.0697	8057.2	7175.55
931.1038	1995.6592	8058.85	7178.05
931.2415	1997.2479	8018.9	7136
931.3793	1998.8359	8000.5	7121.65
931.517	2000.4232	7951.8	7070.05
931.6547	2002.0097	7935.6	7056.7
931.7923	2003.5955	7898.5	7017.9
931.93	2005.1805	7909.1	7026.55
932.0676	2006.7648	7883.1	7003.95
932.2052	2008.3484	7866.9	6982.55
932.3427	2009.9312	7865.75	6982.35
932.4803	2011.5133	7834.8	6956.05
932.6178	2013.0946	7807.2	6926.75
932.7553	2014.6752	7786.6	6906.7
932.8928	2016.2551	7784.4	6903.4
933.0302	2017.8342	7742.8	6862.6
933.1676	2019.4126	7717.85	6836.75
933.305	2020.9902	7700.55	6821.3
933.4424	2022.5672	7692.85	6811.1
933.5798	2024.1433	7688.8	6802.95
933.7171	2025.7188	7650.85	6772
933.8544	2027.2935	7630.95	6752.4
933.9917	2028.8674	7595.2	6714.95
934.129	2030.4406	7581.4	6703
934.2662	2032.0131	7545.3	6665.95
934.4034	2033.5849	7539.85	6653.3
934.5406	2035.1559	7522.3	6643.45
934.6778	2036.7261	7512.25	6632.8
934.8149	2038.2957	7474.95	6594.85
934.952	2039.8645	7465.75	6585.1
935.0891	2041.4325	7507.15	6622
935.2262	2042.9998	7466.15	6586.9
935.3632	2044.5664	7434.35	6552.65
935.5002	2046.1323	7438.45	6556.6
935.6372	2047.6974	7423.8	6544.2
935.7742	2049.2617	7406.8	6525.35
935.9111	2050.8254	7392.55	6489.65
936.048	2052.3883	7382.1	6499.95
936.1849	2053.9504	7349.4	6467.85
936.3218	2055.5118	7336.7	6455.65
936.4586	2057.0725	7312.8	6427
936.5955	2058.6325	7309.4	6431.05
936.7323	2060.1917	7275.85	6397.15
936.869	2061.7502	7289	6406.6
937.0058	2063.3079	7259.25	6380.2
937.1425	2064.8649	7216.3	6331.65
937.2792	2066.4212	7228.5	6349
937.4159	2067.9767	7199	6319.15
937.5525	2069.5315	7175.85	6296.4
937.6891	2071.0856	7141	6261
937.8257	2072.6389	7133	6250.55
937.9623	2074.1915	7105.15	6228.15
938.0989	2075.7433	7090.65	6209.75
938.2354	2077.2945	7062.1	6184.2
938.3719	2078.8448	7048.7	6168.05
938.5084	2080.3945	7026.4	6144.55
938.6448	2081.9434	7038.65	6158.4
938.7812	2083.4916	7014.8	6133.25
938.9176	2085.039	6977.55	6095.25
939.054	2086.5857	6987.45	6106.8
939.1903	2088.1317	6978.1	6096
939.3267	2089.677	6947.05	6066.75
939.463	2091.2215	6950.9	6072
939.5992	2092.7652	6921.45	6040.8
939.7355	2094.3083	6900.65	6019.4
939.8717	2095.8506	6884.55	6005.2
940.0079	2097.3921	6876.75	5996.65
940.1441	2098.933	6857.95	5978.45
940.2802	2100.4731	6881	6000.65
940.4163	2102.0124	6863	5964.5
940.5524	2103.5511	6840.1	5960.05
940.6885	2105.089	6840.9	5962.5
940.8245	2106.6261	6833.65	5953.85
940.9606	2108.1626	6795.25	5912.35
941.0965	2109.6983	6822.75	5913.3
941.2325	2111.2332	6767.5	5886.25
941.3684	2112.7675	6761.8	5880
941.5044	2114.301	6745.65	5864.05
941.6403	2115.8337	6746	5863.5
941.7761	2117.3657	6713.55	5832.5
941.912	2118.897	6696.5	5814.1
942.0478	2120.4276	6699.85	5812.85
942.1835	2121.9575	6664.75	5784.85
942.3193	2123.4866	6669.8	5786.55
942.455	2125.0149	6644.05	5762.2
942.5907	2126.5426	6604.85	5724.25
942.7264	2128.0695	6613.4	5728.25
942.8621	2129.5956	6583.15	5702.7
942.9977	2131.1211	6564.5	5678.05
943.1333	2132.6458	6561.5	5683.05
943.2689	2134.1698	6552.5	5672
943.4044	2135.693	6549.15	5667.4
943.54	2137.2155	6535.5	5653.3
943.6755	2138.7373	6541.1	5660.45
943.8109	2140.2584	6526.25	5646.35
943.9464	2141.7787	6499.85	5613.15
944.0818	2143.2983	6464.6	5584.95
944.2172	2144.8171	6440.75	5560.75
944.3526	2146.3353	6441.15	5557.45
944.4879	2147.8527	6405.25	5525.05
944.6232	2149.3693	6406.6	5524.75
944.7585	2150.8853	6374.15	5494.95
944.8938	2152.4005	6347.6	5467.7
945.029	2153.9149	6351.2	5472.5
945.1642	2155.4287	6330.3	5450.4
945.2994	2156.9417	6309.65	5428.05
945.4346	2158.454	6296.5	5413.35
945.5697	2159.9655	6286.2	5404.75
945.7048	2161.4764	6279.5	5399
945.8399	2162.9865	6250	5369.4
945.9749	2164.4958	6232.65	5351.25
946.1099	2166.0045	6221.5	5337.65
946.2449	2167.5124	6208.25	5328.85
946.3799	2169.0195	6196.55	5317.55
946.5148	2170.526	6192.7	5312.3
946.6498	2172.0317	6170.3	5287.65
946.7846	2173.5367	6154.3	5274.65
946.9195	2175.0409	6156.75	5277.15
947.0543	2176.5445	6131.9	5252.95
947.1891	2178.0473	6104.15	5223.2
947.3239	2179.5494	6086.75	5201.55
947.4587	2181.0507	6075.85	5196.05
947.5934	2182.5513	6060.95	5180.5
947.7281	2184.0512	6045.2	5163.2
947.8628	2185.5504	6040.7	5161.7
947.9974	2187.0488	6003.2	5121.9
948.132	2188.5465	5989.9	5109.2
948.2666	2190.0435	5969.2	5088.4
948.4012	2191.5397	5957.3	5077.75
948.5357	2193.0353	5950.05	5070.25
948.6702	2194.5301	5914.85	5032.1
948.8047	2196.0241	5921.1	5039.35
948.9392	2197.5175	5877.75	4998.25
949.0736	2199.0101	5854.5	4970.75
949.208	2200.502	5835	4955.2
949.3424	2201.9931	5828.35	4948.9
949.4767	2203.4835	5819.35	4936.1
949.611	2204.9733	5819.8	4934.1
949.7453	2206.4622	5798.8	4917.6
949.8796	2207.9505	5779.65	4896.55
950.0138	2209.438	5752.25	4873.55
950.148	2210.9248	5753.65	4870.5
950.2822	2212.4109	5716.7	4838.45
950.4164	2213.8962	5708.2	4825.15
950.5505	2215.3809	5701.9	4818.65
950.6846	2216.8648	5688.5	4808
950.8186	2218.3479	5663	4776.8
950.9527	2219.8304	5638.95	4754.3
951.0867	2221.3121	5626	4744.6
951.2207	2222.7931	5605.7	4726.1
951.3546	2224.2733	5587.85	4707.7
951.4886	2225.7529	5581	4697.7
951.6225	2227.2317	5542.85	4661.75
951.7563	2228.7098	5545.5	4665.9
951.8902	2230.1872	5533.85	4655.55
952.024	2231.6638	5537.25	4657
952.1578	2233.1397	5496.75	4611.1
952.2916	2234.6149	5481.15	4601.4
952.4253	2236.0894	5463.8	4581.95
952.559	2237.5632	5456.1	4573.35
952.6927	2239.0362	5429.35	4548.8
952.8263	2240.5085	5417.25	4537.3
952.9599	2241.9801	5394.3	4515
953.0935	2243.4509	5403.15	4523.8
953.2271	2244.921	5374.8	4493.75
953.3606	2246.3904	5350.35	4470.2
953.4941	2247.8591	5336.85	4456.9
953.6276	2249.3271	5321.45	4442.25
953.7611	2250.7943	5300	4416.7
953.8945	2252.2608	5284.2	4401.85
954.0279	2253.7266	5274.8	4394.95
954.1612	2255.1917	5265.25	4383.95
954.2946	2256.656	5254.5	4375.05
954.4279	2258.1197	5241.65	4361.5
954.5612	2259.5826	5218.1	4335.55
954.6944	2261.0447	5242.75	4362.05
954.8276	2262.5062	5188.45	4304.75
954.9608	2263.9669	5191.25	4309.85
955.094	2265.4269	5178.7	4299.85
955.2271	2266.8862	5160.8	4279.8
955.3602	2268.3448	5163.75	4283.95
955.4933	2269.8026	5157.05	4274.75
955.6264	2271.2598	5119.9	4238.05
955.7594	2272.7162	5109.35	4229.1
955.8924	2274.1719	5110.4	4229.25
956.0253	2275.6268	5093.1	4213.7
956.1583	2277.0811	5078	4194.55
956.2912	2278.5346	5055.4	4174.3
956.4241	2279.9874	5064.35	4184
956.5569	2281.4395	5029.9	4151.3
956.6897	2282.8908	5026.35	4141.6
956.8225	2284.3414	5030.45	4149.3
956.9553	2285.7914	4999.3	4118.9
957.088	2287.2406	4996	4113.9
957.2207	2288.689	4979.85	4097.15
957.3534	2290.1368	4977	4095.25
957.486	2291.5838	4951.7	4069.1
957.6186	2293.0302	4931.3	4049.3
957.7512	2294.4758	4923.5	4043.65
957.8838	2295.9206	4913.6	4028.95
958.0163	2297.3648	4893.25	4015.05
958.1488	2298.8082	4883.1	4002.55
958.2813	2300.251	4854.45	3973.2
958.4137	2301.693	4864.6	3979.6
958.5461	2303.1343	4850.9	3968.45
958.6785	2304.5748	4837	3956.7
958.8108	2306.0147	4817.35	3937.05
958.9432	2307.4538	4819.2	3936.25
959.0754	2308.8922	4802.75	3926.25
959.2077	2310.3299	4789.75	3910.55
959.3399	2311.7669	4776.1	3898.85
959.4721	2313.2031	4764.15	3883.9
959.6043	2314.6387	4730.7	3848.75
959.7365	2316.0735	4725.9	3845
959.8686	2317.5076	4717.1	3835.3
960.0006	2318.941	4714.7	3833.9
960.1327	2320.3737	4683.25	3802.75
960.2647	2321.8056	4684.4	3802.8
960.3967	2323.2369	4680	3798.95
960.5287	2324.6674	4659.5	3775.4
960.6606	2326.0972	4655	3772.85
960.7925	2327.5263	4632.5	3751.65
960.9244	2328.9547	4619.1	3735.65
961.0562	2330.3823	4605.8	3724.4
961.1881	2331.8092	4606.75	3722.5
961.3198	2333.2355	4573.45	3692.65
961.4516	2334.661	4574.2	3692.6
961.5833	2336.0858	4561	3677.95
961.715	2337.5098	4550.9	3670.1
961.8467	2338.9332	4549.35	3669.55
961.9783	2340.3558	4541.55	3658.75
962.1099	2341.7778	4521.15	3639.1
962.2415	2343.199	4498.1	3617
962.373	2344.6195	4486.35	3607.6
962.5045	2346.0393	4489.3	3609.05
962.636	2347.4583	4477.95	3597.05
962.7675	2348.8767	4457.45	3577.45
962.8989	2350.2943	4453.6	3570.55
963.0303	2351.7113	4444.15	3562.1
963.1617	2353.1275	4437.95	3556.05
963.293	2354.543	4426.15	3535.4
963.4243	2355.9578	4395.5	3514.6
963.5556	2357.3718	4379.05	3497.05
963.6868	2358.7852	4373.25	3491.55
963.818	2360.1978	4354.05	3470.6
963.9492	2361.6098	4351.85	3471.3
964.0803	2363.021	4345.45	3461.05
964.2114	2364.4315	4323.75	3443.7
964.3425	2365.8413	4311.25	3423.95
964.4736	2367.2504	4294.35	3413.85
964.6046	2368.6587	4266.75	3385.6
964.7356	2370.0664	4273.1	3390.9
964.8666	2371.4733	4271.6	3391.45
964.9975	2372.8795	4256.2	3376.75
965.1284	2374.285	4241.15	3358.95
965.2593	2375.6899	4228.4	3348.35
965.3901	2377.0939	4205.6	3325.6
965.5209	2378.4973	4194.3	3312.7
965.6517	2379.9	4188.65	3307
965.7825	2381.3019	4165.65	3284.85
965.9132	2382.7032	4157.4	3277.05
966.0439	2384.1037	4150.8	3272.65
966.1745	2385.5035	4132	3250.9
966.3051	2386.9027	4129	3247.55
966.4357	2388.3011	4130.75	3246.75
966.5663	2389.6987	4104.55	3221.2
966.6968	2391.0957	4080.5	3199.05
966.8273	2392.492	4081.9	3202.5
966.9578	2393.8876	4061.9	3180.3
967.0882	2395.2824	4057.5	3178.3
967.2186	2396.6765	4023.65	3142.8
967.349	2398.07	4024.75	3146.3
967.4793	2399.4627	4026.4	3144.4
967.6097	2400.8547	4013	3132.4
967.7399	2402.246	3991.65	3104.8
967.8702	2403.6366	3973.85	3092.25
968.0004	2405.0265	3938.85	3057.2
968.1306	2406.4156	3954.3	3067.7
968.2607	2407.8041	3913.1	3029.35
968.3909	2409.1918	3917.95	3032.55
968.521	2410.5789	3904.1	3022.4
968.651	2411.9652	3891.15	3006.8
968.781	2413.3508	3879.35	2997.85
968.911	2414.7358	3878.6	2997.35
969.041	2416.12	3856.8	2976.25
969.1709	2417.5035	3857.65	2975.05
969.3008	2418.8863	3848.05	2965.05
969.4307	2420.2684	3821.4	2940.8
969.5606	2421.6497	3813.7	2931.05
969.6904	2423.0304	3797.95	2917.45
969.8201	2424.4104	3786.1	2906.4
969.9499	2425.7896	3775.5	2892.65
970.0796	2427.1682	3765.95	2883.25
970.2093	2428.546	3759	2876.55
970.3389	2429.9232	3746.8	2863.25
970.4685	2431.2996	3737.75	2856.55
970.5981	2432.6753	3739.95	2858.5
970.7277	2434.0503	3728.4	2845.35
970.8572	2435.4246	3704.75	2824.65
970.9867	2436.7982	3700.75	2818.7
971.1161	2438.1711	3705.65	2827.6
971.2456	2439.5433	3669.3	2786.2
971.375	2440.9148	3660.7	2773.05
971.5043	2442.2856	3655.45	2774.1
971.6336	2443.6557	3657.1	2771.2
971.7629	2445.025	3635.85	2755.75
971.8922	2446.3937	3643.15	2760.35
972.0214	2447.7617	3611.55	2730.95
972.1506	2449.1289	3610.55	2730.9
972.2798	2450.4955	3601.8	2716.05
972.4089	2451.8613	3588.3	2707.4
972.538	2453.2265	3588.85	2706.45
972.6671	2454.5909	3577	2696.2
972.7961	2455.9546	3569.3	2688.25
972.9251	2457.3177	3553.3	2672.75
973.0541	2458.68	3548.15	2663.6
973.1831	2460.0416	3541.55	2661.7
973.312	2461.4025	3545.35	2661.8
973.4408	2462.7627	3541	2649.5
973.5697	2464.1222	3532.35	2651.4
973.6985	2465.4811	3504.3	2621.85
973.8273	2466.8392	3502.25	2620.85
973.956	2468.1966	3483.5	2601.25
974.0847	2469.5533	3483.45	2598.9
974.2134	2470.9093	3497.35	2613.35
974.3421	2472.2645	3467.75	2584.85
974.4707	2473.6191	3463.05	2581.55
974.5993	2474.973	3432.5	2551.8
974.7278	2476.3262	3435.35	2551
974.8563	2477.6787	3438.55	2559.15
974.9848	2479.0305	3418.25	2537.15
975.1132	2480.3816	3413.6	2529.9
975.2417	2481.7319	3389.7	2509.3
975.37	2483.0816	3392	2508.7
975.4984	2484.4306	3381.05	2499.9
975.6267	2485.7789	3357.8	2478.2
975.755	2487.1264	3341	2457.95
975.8833	2488.4733	3334.15	2454.5
976.0115	2489.8195	3328.45	2439.05
976.1397	2491.165	3329.9	2443.05
976.2678	2492.5097	3312.1	2428.4
976.3959	2493.8538	3298.75	2418.9
976.524	2495.1972	3285.7	2405.05
976.6521	2496.5398	3275.75	2392.7
976.7801	2497.8818	3276.85	2393.3
976.9081	2499.2231	3255.95	2375.95
977.036	2500.5637	3247.1	2363
977.164	2501.9035	3241.35	2358.55
977.2918	2503.2427	3240.85	2356.35
977.4197	2504.5812	3216.25	2335.85
977.5475	2505.919	3223.75	2340.9
977.6753	2507.256	3219.3	2336.25
977.8031	2508.5924	3212.4	2329.7
977.9308	2509.9281	3202.2	2313.95
978.0585	2511.2631	3180.35	2300.05
978.1861	2512.5974	3176.2	2296
978.3137	2513.9309	3166.65	2284.15
978.4413	2515.2638	3187.55	2279.55
978.5689	2516.596	3163.8	2283.1
978.6964	2517.9275	3145.45	2262.45
978.8239	2519.2583	3145.95	2263.3
978.9513	2520.5884	3133.35	2250.85
979.0788	2521.9178	3115.6	2233.35
979.2062	2523.2465	3107.95	2225.6
979.3335	2524.5745	3100	2219.9
979.4608	2525.9018	3106.35	2224.15
979.5881	2527.2284	3078.65	2197.65
979.7154	2528.5543	3063.7	2184.85
979.8426	2529.8796	3070.3	2189.75
979.9698	2531.2041	3066.85	2183.6
980.0969	2532.5279	3065.35	2187.15
980.224	2533.851	3047.2	2166.75
980.3511	2535.1735	3034.2	2153.4
980.4781	2536.4952	3022.85	2141.2
980.6052	2537.8163	3017.9	2137.2
980.7321	2539.1366	3017.7	2137.6
980.8591	2540.4562	3010.75	2127.1
980.986	2541.7752	3011.3	2130.75
981.1129	2543.0935	3006.05	2125.3
981.2397	2544.411	3005.2	2123
981.3665	2545.7279	2993.3	2113
981.4933	2547.0441	2988	2106.6
981.62	2548.3596	2983.45	2100.05
981.7467	2549.6744	2973.75	2093.45
981.8734	2550.9885	2972.45	2081.3
982.0001	2552.3019	2949.8	2068.7
982.1267	2553.6146	2948.1	2064.4
982.2532	2554.9266	2933.45	2055
982.3798	2556.2379	2930.75	2048.5
982.5063	2557.5485	2934.25	2054.75
982.6327	2558.8585	2919.5	2030.45
982.7592	2560.1677	2934.05	2047
982.8856	2561.4762	2906.6	2025.45
983.0119	2562.7841	2921.25	2035.6
983.1383	2564.0913	2903.8	2022.9
983.2646	2565.3977	2888.7	2008.6
983.3908	2566.7035	2890.5	2010.15
983.517	2568.0086	2890.6	2008.2
983.6432	2569.313	2894.5	2013.35
983.7694	2570.6167	2883.5	1999.05
983.8955	2571.9197	2864.15	1983.75
984.0216	2573.222	2879.5	1993.5
984.1476	2574.5236	2863	1980.85
984.2737	2575.8246	2865.45	1980.4
984.3996	2577.1248	2846.7	1963.7
984.5256	2578.4244	2838.45	1958.6
984.6515	2579.7232	2842.1	1957.85
984.7774	2581.0214	2856.7	1950.5
984.9032	2582.3189	2835.6	1955.25
985.029	2583.6157	2831.9	1945.15
985.1548	2584.9118	2821.6	1940.55
985.2806	2586.2072	2803.95	1920.6
985.4063	2587.5019	2808.35	1927.5
985.5319	2588.7959	2798.25	1915.8
985.6576	2590.0893	2794.25	1909.75
985.7832	2591.3819	2790.5	1911.25
985.9087	2592.6739	2765.35	1884.1
986.0343	2593.9652	2777.9	1895.55
986.1597	2595.2557	2768.55	1888.1
986.2852	2596.5456	2760.3	1877
986.4106	2597.8348	2750.55	1870.8
986.536	2599.1234	2733.9	1853.35
986.6614	2600.4112	2731.3	1849.6
986.7867	2601.6983	2738.15	1855.1
986.912	2602.9848	2717	1835.3
987.0372	2604.2705	2699.55	1812.95
987.1624	2605.5556	2700.15	1819.35
987.2876	2606.84	2680.75	1798.5
987.4128	2608.1237	2691.55	1809.05
987.5379	2609.4067	2674.7	1793.65
987.6629	2610.689	2668.45	1780.9
987.788	2611.9707	2672.05	1789.05
987.913	2613.2516	2660.45	1774.85
988.0379	2614.5319	2645.1	1763
988.1629	2615.8115	2633	1752.1
988.2878	2617.0903	2624.15	1742.45
988.4126	2618.3685	2619.5	1738.75
988.5375	2619.6461	2622.4	1742.65
988.6622	2620.9229	2608.95	1728.95
988.787	2622.199	2596.95	1715.35
988.9117	2623.4745	2603.05	1720.9
989.0364	2624.7493	2609.7	1730.3
989.161	2626.0234	2591	1709.4
989.2857	2627.2968	2574.3	1694.1
989.4102	2628.5695	2571.4	1688.35
989.5348	2629.8415	2560.95	1680.1
989.6593	2631.1128	2548.45	1664.05
989.7837	2632.3835	2539.7	1658
989.9082	2633.6535	2536.15	1655.35
990.0326	2634.9228	2515.65	1635.15
990.1569	2636.1914	2519.8	1640.2
990.2812	2637.4593	2525.3	1638.5
990.4055	2638.7265	2510.4	1629.5
990.5298	2639.9931	2508.25	1628.4
990.654	2641.259	2503.4	1622.6
990.7782	2642.5242	2485.55	1603.5
990.9023	2643.7887	2478.9	1597.45
991.0264	2645.0525	2469.65	1589.8
991.1505	2646.3156	2468.5	1587.85
991.2745	2647.5781	2453.2	1572.05
991.3985	2648.8398	2464.3	1582.6
991.5225	2650.1009	2484.6	1563.3
991.6464	2651.3613	2432.55	1550.4
991.7703	2652.6211	2447.65	1567.2
991.8942	2653.8801	2431.9	1551.5
992.018	2655.1385	2430.5	1546.7
992.1418	2656.3961	2426.6	1545.75
992.2655	2657.6531	2430.05	1547.45
992.3892	2658.9094	2419.8	1537.9
992.5129	2660.1651	2417.95	1537.55
992.6366	2661.42	2408.05	1524.5
992.7602	2662.6743	2405.75	1523.5
992.8837	2663.9279	2395.9	1513.4
993.0073	2665.1808	2386.6	1505.8
993.1307	2666.433	2388.35	1505.65
993.2542	2667.6846	2371.1	1488.95
993.3776	2668.9354	2390.8	1505.5
993.501	2670.1856	2363.7	1481.65
993.6244	2671.4351	2365.25	1484.35
993.7477	2672.6839	2369.45	1487.15
993.8709	2673.9321	2353.85	1471.55
993.9942	2675.1795	2356.45	1476.4
994.1174	2676.4263	2345.15	1463.3
994.2405	2677.6724	2331.25	1452.9
994.3637	2678.9179	2328.3	1448.5
994.4868	2680.1626	2326.85	1447.7
994.6098	2681.4067	2319.75	1438.25
994.7328	2682.6501	2319.45	1438.35
994.8558	2683.8928	2307.5	1427.95
994.9788	2685.1348	2297.85	1416.95
995.1017	2686.3761	2292.9	1410.75
995.2245	2687.6168	2291.65	1412.45
995.3474	2688.8568	2275.1	1393.25
995.4702	2690.0961	2268.75	1387.3
995.5929	2691.3348	2275.8	1393.65
995.7156	2692.5727	2271.8	1391.4
995.8383	2693.81	2272.9	1392.8
995.961	2695.0466	2258.65	1379.2
996.0836	2696.2826	2252.95	1370.55
996.2062	2697.5178	2268.3	1368.15
996.3287	2698.7524	2246.15	1366.2
996.4512	2699.9863	2245.95	1362.8
996.5737	2701.2195	2227.85	1349.85
996.6961	2702.452	2234.7	1350.25
996.8185	2703.6839	2228.75	1347.2
996.9408	2704.9151	2217.3	1337.95
997.0631	2706.1456	2222.05	1342
997.1854	2707.3755	2212.8	1331.25
997.3077	2708.6046	2196	1313.55
997.4299	2709.8331	2199.8	1317.65
997.552	2711.0609	2195.35	1315.25
997.6742	2712.2881	2183.3	1301.5
997.7963	2713.5145	2178.35	1294
997.9183	2714.7403	2174.25	1293.55
998.0403	2715.9654	2162.95	1280.95
998.1623	2717.1899	2173.5	1277.15
998.2842	2718.4136	2169.55	1287.05
998.4062	2719.6367	2153.1	1273.1
998.528	2720.8591	2149.55	1260
998.6498	2722.0809	2149.15	1269.4
998.7716	2723.3019	2136.7	1250.1
998.8934	2724.5223	2128.5	1246.5
999.0151	2725.7421	2131.1	1250.2
999.1368	2726.9611	2122.45	1239.8
999.2584	2728.1795	2121.65	1234.4
999.38	2729.3972	2108.65	1227.75
999.5016	2730.6142	2111.7	1218.15
999.6231	2731.8306	2096.25	1212.4
999.7446	2733.0462	2089.85	1206.9
999.8661	2734.2612	2083.35	1197.55
999.9875	2735.4756	2078.7	1196.45
1000.1089	2736.6892	2075.55	1193.1
1000.2302	2737.9022	2066.55	1187.7
1000.3515	2739.1145	2053.35	1173
1000.4728	2740.3262	2064.6	1175.15
1000.594	2741.5372	2053.35	1175.05
1000.7152	2742.7475	2051.15	1169.2
1000.8363	2743.9571	2046.9	1165.8
1000.9575	2745.1661	2044.1	1156.5
1001.0785	2746.3744	2036.1	1154.85
1001.1996	2747.582	2028.15	1146.35
1001.3206	2748.7889	2020.45	1138.15
1001.4415	2749.9952	2016.4	1134.75
1001.5625	2751.2008	2013.55	1133.55
1001.6833	2752.4057	2009.8	1124.3
1001.8042	2753.61	2010.7	1129.4
1001.925	2754.8136	2008.9	1127.1
1002.0458	2756.0165	1996.7	1116.45
1002.1665	2757.2188	1992.65	1112
1002.2872	2758.4204	1989.8	1108.6
1002.4078	2759.6213	1981.75	1097.75
1002.5285	2760.8215	1984.8	1100.35
1002.649	2762.0211	1975.05	1092.4
1002.7696	2763.22	1971.1	1087
1002.8901	2764.4182	1964.7	1081.2
1003.0106	2765.6158	1963.95	1083.1
1003.131	2766.8127	1958.45	1077.05
1003.2514	2768.009	1950.5	1069.75
1003.3717	2769.2045	1943.85	1062.4
1003.492	2770.3994	1944.25	1061.35
1003.6123	2771.5936	1936.95	1055.3
1003.7325	2772.7872	1925.95	1045.75
1003.8527	2773.9801	1929.1	1046.7
1003.9729	2775.1723	1933.25	1035.45
1004.093	2776.3639	1914.4	1033.65
1004.2131	2777.5548	1920.15	1035.3
1004.3331	2778.745	1907.55	1025.45
1004.4531	2779.9346	1906.8	1025.5
1004.5731	2781.1235	1903.85	1021.55
1004.693	2782.3117	1903.25	1022.75
1004.8129	2783.4992	1885.1	1005.05
1004.9328	2784.6861	1888.2	1008.25
1005.0526	2785.8723	1889.85	1006.15
1005.1723	2787.0579	1877.35	997.15
1005.2921	2788.2428	1881.05	1000.1
1005.4118	2789.427	1872.7	993.5
1005.5314	2790.6106	1864.7	982.15
1005.651	2791.7935	1863.5	980.75
1005.7706	2792.9757	1847.5	968.75
1005.8902	2794.1573	1854.25	972.4
1006.0097	2795.3382	1842.6	961.65
1006.1291	2796.5184	1835.75	958
1006.2485	2797.698	1837.9	956.45
1006.3679	2798.8769	1843.25	962.1
1006.4873	2800.0551	1830.8	948.1
1006.6066	2801.2327	1830.65	946.65
1006.7258	2802.4096	1814.85	934.2
1006.8451	2803.5859	1813.95	934.45
1006.9642	2804.7615	1815.95	933.3
1007.0834	2805.9364	1811.75	931
1007.2025	2807.1106	1806.55	925.75
1007.3216	2808.2842	1800.05	917.9
1007.4406	2809.4572	1797.45	917.85
1007.5596	2810.6294	1792.15	909.8
1007.6785	2811.801	1795.8	914.45
1007.7975	2812.972	1783.4	904.25
1007.9163	2814.1423	1802	919.4
1008.0352	2815.3119	1800.75	918.4
1008.154	2816.4808	1789.1	907.7
1008.2727	2817.6491	1785.65	904.4
1008.3914	2818.8167	1789.8	910.4
1008.5101	2819.9837	1784.6	897.5
1008.6288	2821.15	1793.85	913.7
1008.7474	2822.3157	1784.45	903.75
1008.8659	2823.4807	1798.8	919.2
1008.9844	2824.645	1803.7	922.65
1009.1029	2825.8086	1800.75	919.8
1009.2214	2826.9716	1810.65	929.5
1009.3398	2828.134	1810.65	931.25
1009.4581	2829.2957	1816.2	933.4
1009.5764	2830.4567	1819.75	940.45
1009.6947	2831.617	1825.9	945.85
1009.813	2832.7767	1819.2	940.8
1009.9312	2833.9358	1816.3	937.4
1010.0493	2835.0941	1816.4	933
1010.1675	2836.2519	1806.35	927.6
1010.2855	2837.4089	1802.5	918.4
1010.4036	2838.5653	1795.5	914.8
1010.5216	2839.7211	1785.3	904.85
1010.6396	2840.8761	1787.2	905.55
1010.7575	2842.0306	1787.1	908.65
1010.8754	2843.1843	1782.45	900.55
1010.9932	2844.3374	1778.95	900.35
1011.111	2845.4899	1774.65	894.95
1011.2288	2846.6417	1781.25	902.55
1011.3465	2847.7928	1775.5	895.35
1011.4642	2848.9433	1772.6	893.4
1011.5818	2850.0931	1768.45	887.2
1011.6995	2851.2422	1769.85	888.85
1011.817	2852.3907	1766.1	885.15
1011.9345	2853.5385	1768.7	886.9
1012.052	2854.6857	1767	876.55
1012.1695	2855.8323	1755.9	874.55
1012.2869	2856.9781	1759.3	880.25
1012.4042	2858.1233	1757.2	877.7
1012.5216	2859.2679	1761.05	880.1
1012.6389	2860.4118	1764.65	883.35
1012.7561	2861.555	1776.9	891.15
1012.8733	2862.6976	1772.65	891.8
1012.9905	2863.8395	1757.05	876
1013.1076	2864.9808	1763.55	883.4
1013.2247	2866.1214	1759.9	880.75
1013.3417	2867.2614	1756.8	876.75
1013.4587	2868.4007	1760.35	878.1
1013.5757	2869.5393	1756.5	872.75
1013.6926	2870.6773	1748.75	866.6
1013.8095	2871.8146	1754.05	869.65
1013.9263	2872.9513	1751.55	868.5
1014.0431	2874.0874	1745.95	863.85
1014.1599	2875.2227	1737.55	854.8
1014.2766	2876.3574	1736.3	855.8
1014.3933	2877.4915	1739.4	859.5
1014.51	2878.6249	1734.8	855.3
1014.6266	2879.7577	1731.7	848.8
1014.7431	2880.8898	1742.2	853.4
1014.8596	2882.0212	1734.75	852.85
1014.9761	2883.152	1733.8	851.2
1015.0925	2884.2821	1720.9	842.45
1015.2089	2885.4116	1725.8	846.35
1015.3253	2886.5405	1721.2	840.45
1015.4416	2887.6686	1723.8	839.25
1015.5579	2888.7962	1716.25	838.05
1015.6741	2889.923	1716.1	835.4
1015.7903	2891.0493	1717.7	837.85
1015.9065	2892.1748	1699.75	819.75
1016.0226	2893.2997	1714.4	833.4
1016.1387	2894.424	1701	821.6
1016.2547	2895.5476	1703.9	824.2
1016.3707	2896.6706	1699.1	818
1016.4866	2897.7929	1696.75	815.15
1016.6025	2898.9145	1692.75	811.2
1016.7184	2900.0355	1696.25	814.25
1016.8342	2901.1559	1689.3	807.8
1016.95	2902.2756	1682.3	801.9
1017.0658	2903.3946	1693.35	813.8
1017.1815	2904.513	1678.55	793.95
1017.2971	2905.6308	1671.6	794.05
1017.4127	2906.7479	1665.15	781.7
1017.5283	2907.8643	1660.75	777.95
1017.6439	2908.9801	1655.35	775
1017.7594	2910.0953	1653.4	771.3
1017.8748	2911.2098	1661.6	779.2
1017.9902	2912.3236	1659.6	769.45
1018.1056	2913.4368	1660.3	777.35
1018.2209	2914.5494	1650	769.4
1018.3362	2915.6613	1641.15	753.35
1018.4515	2916.7725	1641.95	759.75
1018.5667	2917.8831	1630.2	748.15
1018.6819	2918.9931	1630.7	747.05
1018.797	2920.1024	1631.2	749
1018.9121	2921.211	1614.05	733.9
1019.0271	2922.319	1615.65	736.45
1019.1421	2923.4264	1621	742.6
1019.2571	2924.5331	1609.25	730.15
1019.372	2925.6391	1603.9	722.95
1019.4869	2926.7445	1597.5	718.1
1019.6017	2927.8493	1602.1	720.55
1019.7165	2928.9534	1596.9	715.1
1019.8313	2930.0569	1599.8	715.25
1019.946	2931.1597	1597.45	715.3
1020.0606	2932.2619	1589.85	710.2
1020.1753	2933.3634	1592.05	712.45
1020.2899	2934.4643	1601.85	715.25
1020.4044	2935.5645	1594.35	708.4
1020.5189	2936.6641	1582.5	697
1020.6334	2937.763	1583.25	703.6
1020.7478	2938.8613	1589.35	706.8
1020.8622	2939.959	1584.35	699.1
1020.9765	2941.056	1586.05	705.15
1021.0908	2942.1523	1561.9	682
1021.2051	2943.248	1566.1	683.7
1021.3193	2944.3431	1555.95	676.45
1021.4334	2945.4375	1541.3	660.75
1021.5476	2946.5313	1525.7	646.1
1021.6617	2947.6244	1516.9	638.65
1021.7757	2948.7169	1512.7	631.25
1021.8897	2949.8087	1502.85	624.05
1022.0037	2950.8999	1498.45	616.05
1022.1176	2951.9904	1487.75	607.95
1022.2315	2953.0803	1491.15	610.55
1022.3453	2954.1696	1479.3	598.7
1022.4591	2955.2582	1471.2	590.9
1022.5728	2956.3462	1464.25	584.55
1022.6865	2957.4335	1465.4	584.25
1022.8002	2958.5202	1460.55	578.2
1022.9138	2959.6062	1456.1	577.2
1023.0274	2960.6916	1449.3	568.1
1023.141	2961.7764	1448.45	567.95
1023.2545	2962.8605	1446.45	563.9
1023.3679	2963.9439	1452.95	572.65
1023.4813	2965.0267	1443.8	561.7
1023.5947	2966.1089	1461.75	558.2
1023.708	2967.1905	1440.25	560.75
1023.8213	2968.2714	1431.6	553.85
1023.9346	2969.3516	1433.75	554.9
1024.0478	2970.4312	1435.45	547.65
1024.1609	2971.5102	1429.9	548.1
1024.274	2972.5885	1415.2	534.95
1024.3871	2973.6662	1422.45	535.8
1024.5002	2974.7432	1421.55	544.25
1024.6132	2975.8196	1414.35	534.45
1024.7261	2976.8954	1410.25	532.7
1024.839	2977.9705	1415.65	534.75
1024.9519	2979.045	1410.25	531.35
1025.0647	2980.1188	1407.4	527.35
1025.1775	2981.192	1402.45	522.85
1025.2902	2982.2645	1406.75	527.05
1025.4029	2983.3364	1399.15	519.15
1025.5156	2984.4077	1396.25	514.95
1025.6282	2985.4783	1397.25	510.45
1025.7407	2986.5483	1378.35	497.95
1025.8532	2987.6177	1377.5	500.2
1025.9657	2988.6864	1384.9	503.7
1026.0782	2989.7545	1374.15	492.7
1026.1906	2990.8219	1369.8	491.45
1026.3029	2991.8887	1373.7	492.8
1026.4152	2992.9548	1358.8	478.7
1026.5275	2994.0204	1358.2	480.35
1026.6397	2995.0852	1352.75	475.65
1026.7519	2996.1495	1359.2	475.8
1026.864	2997.2131	1352.35	474.1
1026.9761	2998.276	1340.75	459.15
1027.0882	2999.3383	1341.7	461.05
1027.2002	3000.4	1335.35	454.65
1027.3122	3001.4611	1329.55	449.3
1027.4241	3002.5215	1326.4	445.9
1027.536	3003.5812	1329.15	450.9
1027.6478	3004.6404	1326.1	445.25
1027.7596	3005.6989	1326.95	444.65
1027.8714	3006.7567	1319.3	439.75
1027.9831	3007.8139	1335.05	432.1
1028.0947	3008.8705	1308	428.75
1028.2064	3009.9264	1318.75	435.9
1028.3179	3010.9818	1308.35	428.3
1028.4295	3012.0364	1307.05	425.5
1028.541	3013.0905	1305.05	424.05
1028.6524	3014.1439	1298.05	417.65
1028.7638	3015.1966	1298.9	419.75
1028.8752	3016.2487	1293.6	414.7
1028.9865	3017.3002	1305.45	420.95
1029.0978	3018.3511	1289.85	412.25
1029.209	3019.4013	1293.6	415.5
1029.3202	3020.4509	1284.7	405.7
1029.4314	3021.4998	1292.15	410.45
1029.5425	3022.5481	1293.4	410.9
1029.6535	3023.5958	1285.75	405.45
1029.7645	3024.6428	1281.35	400.95
1029.8755	3025.6892	1284.6	405.5
1029.9864	3026.735	1280.6	399.4
1030.0973	3027.7802	1276.65	398.3
1030.2082	3028.8247	1270.8	391.9
1030.319	3029.8685	1271.05	390.2
1030.4297	3030.9118	1270	387.45
1030.5404	3031.9544	1271.65	391.85
1030.6511	3032.9963	1264.35	383.05
1030.7617	3034.0376	1262.9	382.35
1030.8723	3035.0783	1263.15	380.8
1030.9829	3036.1184	1264.65	386.4
1031.0934	3037.1578	1263	383.75
1031.2038	3038.1966	1258.1	376.95
1031.3142	3039.2348	1263.25	383.3
1031.4246	3040.2723	1260.3	371.4
1031.5349	3041.3092	1257.4	377.75
1031.6452	3042.3455	1253.6	372.9
1031.7554	3043.3811	1257.45	376.95
1031.8656	3044.4161	1252	370.5
1031.9758	3045.4505	1253.7	374.45
1032.0859	3046.4842	1248.2	366.3
1032.1959	3047.5173	1244	365.75
1032.3059	3048.5498	1241.8	365
1032.4159	3049.5816	1244.55	363.2
1032.5258	3050.6128	1240.05	359.85
1032.6357	3051.6434	1244.15	362.75
1032.7455	3052.6734	1240.3	359.15
1032.8553	3053.7027	1233.2	353.2
1032.9651	3054.7314	1234.75	355.2
1033.0748	3055.7594	1235.95	356.95
1033.1845	3056.7868	1239.3	358.5
1033.2941	3057.8136	1226.55	347.35
1033.4037	3058.8398	1226.05	345.5
1033.5132	3059.8653	1236.9	356.85
1033.6227	3060.8902	1233.1	352.7
1033.7321	3061.9145	1223.95	342.65
1033.8415	3062.9381	1225.9	345.55
1033.9509	3063.9612	1241.55	346.45
1034.0602	3064.9835	1223.3	343.2
1034.1694	3066.0053	1224.9	342.05
1034.2787	3067.0264	1223	342.75
1034.3878	3068.0469	1225.15	344.6
1034.497	3069.0668	1224	339.5
1034.6061	3070.086	1217.55	339.85
1034.7151	3071.1046	1218.7	336.3
1034.8241	3072.1226	1214.65	334.15
1034.9331	3073.1399	1218.15	336.9
1035.042	3074.1567	1210.5	330.85
1035.1508	3075.1727	1212.85	330.45
1035.2597	3076.1882	1202.1	325.15
1035.3684	3077.203	1205.7	326.3
1035.4772	3078.2173	1202.7	319.8
1035.5859	3079.2308	1206.65	323.05
1035.6945	3080.2438	1203.55	322.2
1035.8031	3081.2561	1199.2	319.9
1035.9117	3082.2678	1193.35	312.35
1036.0202	3083.2789	1199.2	318.8
1036.1286	3084.2893	1194.75	314.9
1036.2371	3085.2991	1190.85	310.75
1036.3454	3086.3083	1195.75	311.6
1036.4538	3087.3169	1186.95	305.65
1036.562	3088.3248	1189.95	307.9
1036.6703	3089.3321	1185.4	303.35
1036.7785	3090.3388	1180.05	301.9
1036.8866	3091.3449	1182.95	302.3
1036.9948	3092.3503	1182.8	298.15
1037.1028	3093.3551	1186.15	307.15
1037.2108	3094.3593	1179.75	301.25
1037.3188	3095.3629	1177.2	297.3
1037.4267	3096.3658	1175.85	294.45
1037.5346	3097.3681	1169.6	288.4
1037.6425	3098.3698	1178.8	297.1
1037.7503	3099.3708	1170.55	283.2
1037.858	3100.3713	1166.15	285.05
1037.9657	3101.3711	1163.75	283.05
1038.0734	3102.3702	1297.25	282.05
1038.181	3103.3688	1168.8	286.25
1038.2886	3104.3667	1164.4	284.45
1038.3961	3105.364	1161.95	282.8
1038.5036	3106.3607	1165.65	283.65
1038.611	3107.3568	1160.8	279.7
1038.7184	3108.3522	1151.75	273.4
1038.8257	3109.347	1155.45	273.9
1038.933	3110.3412	1156.1	272.9
1039.0403	3111.3348	1153.4	273.65
1039.1475	3112.3277	1149.75	270.05
1039.2547	3113.32	1143.35	264.2
1039.3618	3114.3117	1151.7	270.55
1039.4689	3115.3028	1149.7	269.45
1039.5759	3116.2932	1146.35	265.35
1039.6829	3117.2831	1147.9	261.65
1039.7898	3118.2723	1134.85	257
1039.8967	3119.2608	1132.7	252.85
1040.0035	3120.2488	1136.55	254.6
1040.1103	3121.2361	1140.6	261
1040.2171	3122.2229	1130.9	250.1
1040.3238	3123.209	1131.15	250
1040.4305	3124.1944	1128.1	248.55
1040.5371	3125.1793	1132.2	251.25
1040.6437	3126.1635	1127.4	248.55
1040.7502	3127.1471	1131.6	251.8
1040.8567	3128.1301	1129.1	249.8
1040.9631	3129.1125	1122.6	242.45
1041.0695	3130.0942	1121.1	241.25
1041.1759	3131.0753	1135.85	248.25
1041.2822	3132.0558	1124.25	241.25
1041.3884	3133.0357	1120	240
1041.4946	3134.015	1120.45	238.6
1041.6008	3134.9936	1119.9	238.05
1041.7069	3135.9716	1140.55	240.15
1041.813	3136.949	1112.75	235.4
1041.919	3137.9258	1125	239.3
1042.025	3138.902	1124.9	240
1042.1309	3139.8775	1114	236.25
1042.2368	3140.8524	1113.3	234.8
1042.3427	3141.8267	1110.5	229.45
1042.4485	3142.8004	1107.6	228.25
1042.5542	3143.7735	1116.35	230.9
1042.6599	3144.7459	1113.2	231.25
1042.7656	3145.7178	1112.35	231.85
1042.8712	3146.689	1108.45	228.7
1042.9768	3147.6596	1107.05	225.9
1043.0823	3148.6295	1106.1	225.75
1043.1878	3149.5989	1102.75	222.1
1043.2932	3150.5676	1098.1	220.45
1043.3986	3151.5357	1096.45	218.1
1043.5039	3152.5032	1093.6	213.1
1043.6092	3153.4701	1096.9	218
1043.7145	3154.4364	1101.85	217
1043.8197	3155.402	1094.05	215.55
1043.9248	3156.367	1091.85	211.2
1044.03	3157.3315	1125.4	207.45
1044.135	3158.2952	1090.7	210
1044.24	3159.2584	1085.85	205.05
1044.345	3160.221	1089.6	206.95
1044.4499	3161.1829	1090.95	211.45
1044.5548	3162.1442	1086.2	206.4
1044.6596	3163.105	1084.25	204.35
1044.7644	3164.065	1086.6	206.35
1044.8692	3165.0245	1085	202.75
1044.9739	3165.9834	1085.25	207.5
1045.0785	3166.9416	1082.15	203.65
1045.1831	3167.8993	1082.75	201.95
1045.2877	3168.8563	1081.5	202.25
1045.3922	3169.8127	1078.3	200.2
1045.4966	3170.7684	1080.15	198.45
1045.6011	3171.7236	1075.95	194.5
1045.7054	3172.6782	1076.65	195.9
1045.8098	3173.6321	1075.95	197.05
1045.914	3174.5854	1075.25	192
1046.0183	3175.5381	1071.5	191.25
1046.1224	3176.4902	1069.25	190.75
1046.2266	3177.4417	1068.2	189.6
1046.3307	3178.3926	1066.9	186.75
1046.4347	3179.3428	1069.3	189.6
1046.5387	3180.2924	1064.85	184.95
1046.6427	3181.2415	1065.5	186.4
1046.7466	3182.1899	1064.65	183.6
1046.8504	3183.1377	1061.5	180.9
1046.9542	3184.0848	1064	180.65
1047.058	3185.0314	1059.5	180.6
1047.1617	3185.9773	1060.2	179.25
1047.2654	3186.9227	1056.65	175
1047.369	3187.8674	1056.25	175.65
1047.4726	3188.8115	1060.2	174.85
1047.5761	3189.755	1056.6	175.7
1047.6796	3190.6979	1052.5	172.2
1047.783	3191.6402	1054.4	174.4
1047.8864	3192.5818	1052.85	173.4
1047.9898	3193.5229	1058.4	172.25
1048.0931	3194.4633	1048.9	170.15
1048.1963	3195.4031	1053.55	172.7
1048.2995	3196.3423	1049.85	168.8
1048.4027	3197.2809	1047.6	168.05
1048.5058	3198.2189	1049.35	169.2
1048.6089	3199.1563	1057.45	171.05
1048.7119	3200.0931	1048.45	169.8
1048.8148	3201.0292	1046.2	167
1048.9178	3201.9648	1044.05	164.65
1049.0206	3202.8997	1048.05	164.85
1049.1235	3203.834	1045.95	166.15
1049.2262	3204.7677	1038.2	159.75
1049.329	3205.7008	1039.4	155.2
1049.4317	3206.6333	1040.1	163.5
1049.5343	3207.5652	1041.1	158.25
1049.6369	3208.4964	1039.55	160.35
1049.7394	3209.4271	1038.95	161.45
1049.8419	3210.3571	1037.65	158.45
1049.9444	3211.2865	1034.7	155.85
1050.0468	3212.2154	1035.9	154.3
1050.1491	3213.1436	1036.15	152.5
1050.2514	3214.0712	1041.3	154.05
1050.3537	3214.9982	1033.9	153.5
1050.4559	3215.9246	1033.6	153.2
1050.5581	3216.8503	1031.4	151.85
1050.6602	3217.7755	1031.85	150.9
1050.7623	3218.7001	1028.9	148.95
1050.8643	3219.624	1027.8	148.15
1050.9663	3220.5473	1028.8	148.8
1051.0682	3221.4701	1024.9	142.9
1051.1701	3222.3922	1027.9	146.95
1051.2719	3223.3137	1023.2	144.05
1051.3737	3224.2346	1026.85	146.35
1051.4754	3225.1549	1023.1	143.85
1051.5771	3226.0746	1024.7	146.1
1051.6788	3226.9937	1025.25	144.7
1051.7804	3227.9121	1020.15	142.9
1051.8819	3228.83	1025.7	147.05
1051.9834	3229.7473	1023.5	142.8
1052.0849	3230.6639	1019.15	141.2
1052.1863	3231.5799	1021.9	142.75
1052.2876	3232.4954	1018.75	139.7
1052.3889	3233.4102	1017.25	137.7
1052.4902	3234.3244	1014.3	132.7
1052.5914	3235.238	1014.2	132.6
1052.6926	3236.151	1035.1	131.65
1052.7937	3237.0634	1013.05	133.65
1052.8948	3237.9752	1016.15	136.3
1052.9958	3238.8864	1014.2	132.75
1053.0968	3239.797	1012.05	133.85
1053.1977	3240.7069	1012.45	130.45
1053.2986	3241.6163	1012.6	131.65
1053.3994	3242.5251	1008.55	129.2
1053.5002	3243.4332	1009.4	128.65
1053.6009	3244.3408	1006.9	125.35
1053.7016	3245.2477	1004.45	126.05
1053.8022	3246.154	1009.1	130.25
1053.9028	3247.0598	1004.55	124.25
1054.0034	3247.9649	1005.85	125.4
1054.1039	3248.8694	1003.2	122.2
1054.2043	3249.7733	1004.15	124.25
1054.3047	3250.6766	1002.8	122.6
1054.4051	3251.5793	999.15	119.15
1054.5054	3252.4814	1004.6	126.4
1054.6056	3253.3829	999.1	121.4
1054.7058	3254.2838	1001.3	121.1
1054.806	3255.1841	997.2	117.45
1054.9061	3256.0838	999.95	120.4
1055.0061	3256.9829	996.3	116.85
1055.1062	3257.8814	995.85	113.35
1055.2061	3258.7792	997.95	115.15
1055.306	3259.6765	994.1	113.7
1055.4059	3260.5731	990	110.4
1055.5057	3261.4692	992.2	111.4
1055.6055	3262.3647	994.75	113.65
1055.7052	3263.2595	989	109.3
1055.8049	3264.1538	985.75	106.45
1055.9045	3265.0474	986.4	103
1056.0041	3265.9404	983.35	103.95
1056.1036	3266.8329	978.05	97.75
1056.2031	3267.7247	990.8	100.7
1056.3025	3268.616	978.95	101
1056.4019	3269.5066	973.75	94.35
1056.5013	3270.3966	978.4	95
1056.6005	3271.286	968.7	88.35
