Software Version:	3.9.2.0
Unit SN:	10000200
Spectrometer SN:	6960
Date:	3/6/2024 10:11:04 AM
Data Line Index:	25
Spectral Points:	2048
Integration time (ms):	125
Averages:	20
Delay (ms):	30
Sequence Number:	1
Processing:	dark subtract
Laser Power (mW):	305
Laser Current (mA):	826
Laser Diode Temp (C):	25.1
Laser Case Temp (C):	24.9
System Temp (C):	24.7
Spectrometer Temp (C):	22.4
CCD Temp (C):	0.005
Secondary Temp (C):	20.006
Heatsink Temp (C):	18.691
CCDPCB Temp (C):	31.872
SecondaryPCB Temp (C):	25.914

Wavelength	RamanShift	Raw Counts	Dark Subtracted
787.061	30.1047	901.75	493.1
787.2016	32.3739	932.7	525.05
787.3422	34.6426	962.15	555.7
787.4828	36.9109	1002.4	593.95
787.6235	39.1787	1041.6	627.1
787.7642	41.4461	1076.6	656.9
787.9049	43.7131	1124.85	703.3
788.0456	45.9796	1176.05	750.75
788.1863	48.2456	1215.45	788.75
788.3271	50.5112	1260.9	829.3
788.4679	52.7764	1315.85	882.85
788.6087	55.0411	1373.9	934.45
788.7496	57.3054	1434.75	989.45
788.8904	59.5692	1487.3	1043.05
789.0313	61.8326	1549.4	1101.25
789.1722	64.0955	1635.5	1182.9
789.3132	66.3579	1724.65	1269
789.4541	68.6199	1842.55	1381.75
789.5951	70.8815	2022.6	1558.2
789.7361	73.1426	2442.55	1974.4
789.8771	75.4032	3486.15	3012.8
790.0181	77.6634	6189.9	5713.65
790.1592	79.9231	13078.8	12597.55
790.3003	82.1824	37585.25	37092.1
790.4414	84.4412	61038.6	60523.95
790.5825	86.6995	64160.05	63622.8
790.7237	88.9574	64975.25	64419.95
790.8648	91.2148	65380.9	64808.95
791.006	93.4717	65477.1	64894.45
791.1472	95.7282	65523.35	64936.3
791.2885	97.9842	65532.8	64943.45
791.4297	100.2398	65530.4	64939.5
791.571	102.4949	65532.15	64936.2
791.7123	104.7495	65532.5	64933.15
791.8536	107.0036	65528.65	64932.35
791.9949	109.2573	65535	64933.2
792.1363	111.5105	65534.8	64934.2
792.2777	113.7632	65535	64930.15
792.4191	116.0154	65535	64922.35
792.5605	118.2672	65535	64926.05
792.7019	120.5185	65535	64923.2
792.8434	122.7693	65535	64921.8
792.9849	125.0197	65535	64917.45
793.1264	127.2696	65535	64914.9
793.2679	129.519	65535	64910.25
793.4094	131.7679	65535	64905.75
793.551	134.0163	65535	64906.5
793.6926	136.2642	65535	64901.65
793.8342	138.5117	65535	64899.2
793.9758	140.7587	65535	64898.55
794.1175	143.0052	65535	64896.65
794.2591	145.2512	65535	64896.95
794.4008	147.4967	65535	64897.25
794.5425	149.7417	65535	64890.55
794.6842	151.9863	65535	64884.7
794.826	154.2304	65535	64881.9
794.9677	156.4739	65535	64876.7
795.1095	158.717	65535	64880
795.2513	160.9596	65535	64869.55
795.3931	163.2017	65535	64871
795.535	165.4433	65535	64869.8
795.6768	167.6844	65535	64866.35
795.8187	169.925	65535	64863.1
795.9606	172.1651	65535	64860.8
796.1025	174.4047	65535	64860.65
796.2445	176.6439	65535	64853.1
796.3864	178.8825	65535	64853.65
796.5284	181.1206	65535	64847.8
796.6704	183.3582	65535	64845.45
796.8124	185.5954	65535	64844
796.9544	187.832	65535	64843.9
797.0965	190.0681	65535	64839.7
797.2386	192.3037	65535	64835
797.3806	194.5388	65535	64832.1
797.5228	196.7734	65535	64829.35
797.6649	199.0075	65535	64827.4
797.807	201.2411	65535	64828
797.9492	203.4742	65535	64826.15
798.0914	205.7068	65535	64819.4
798.2336	207.9389	65535	64821.1
798.3758	210.1704	65535	64819.75
798.518	212.4015	65535	64831.85
798.6603	214.632	65535	64837.45
798.8025	216.862	65535	64842.45
798.9448	219.0915	65535	64840.6
799.0871	221.3205	65535	64838.65
799.2294	223.549	65535	64841.1
799.3718	225.777	65535	64840.95
799.5141	228.0044	65535	64834.6
799.6565	230.2314	65535	64836.4
799.7989	232.4578	65535	64831.95
799.9413	234.6837	65535	64822.85
800.0837	236.909	65535	64819.95
800.2262	239.1339	65535	64793.5
800.3687	241.3582	65535	64809.2
800.5111	243.582	65535	64777.1
800.6536	245.8053	65535	64791.95
800.7961	248.0281	65535	64798.05
800.9387	250.2503	65535	64791.75
801.0812	252.472	65535	64789.6
801.2238	254.6932	65535	64792.3
801.3664	256.9139	65535	64790.7
801.509	259.134	65535	64786.3
801.6516	261.3536	65535	64788.85
801.7942	263.5727	65535	64782.35
801.9369	265.7912	65535	64787.7
802.0795	268.0092	65535	64783
802.2222	270.2267	65535	64783.9
802.3649	272.4436	65535	64783.2
802.5076	274.6601	65535	64774.3
802.6504	276.8759	65535	64777.25
802.7931	279.0913	65535	64778.35
802.9359	281.3061	65535	64776.45
803.0787	283.5204	65535	64769.35
803.2215	285.7341	65535	64768.7
803.3643	287.9473	65535	64754.95
803.5071	290.16	65535	64765.1
803.6499	292.3721	65535	64769.65
803.7928	294.5837	65535	64771.45
803.9357	296.7947	65535	64771.6
804.0786	299.0052	65535	64768.9
804.2215	301.2152	65535	64765.25
804.3644	303.4246	65535	64770.7
804.5074	305.6334	65535	64772.95
804.6503	307.8418	65535	64763.95
804.7933	310.0495	65535	64762.1
804.9363	312.2568	65535	64765
805.0793	314.4635	65535	64760.55
805.2223	316.6696	65535	64759.25
805.3653	318.8752	65535	64751.25
805.5084	321.0802	65535	64755.4
805.6514	323.2847	65535	64755.85
805.7945	325.4887	65535	64754.2
805.9376	327.692	65535	64753.75
806.0807	329.8949	65535	64751.25
806.2238	332.0972	65535	64748
806.367	334.2989	65535	64744.8
806.5101	336.5001	65535	64744.7
806.6533	338.7007	65535	64747.2
806.7965	340.9008	65535	64747.1
806.9397	343.1003	65535	64742.95
807.0829	345.2992	65535	64745.9
807.2261	347.4976	65535	64740.85
807.3693	349.6955	65535	64733.9
807.5126	351.8927	65535	64735.75
807.6559	354.0895	65535	64724.25
807.7991	356.2856	65535	64735.05
807.9424	358.4812	65535	64735.3
808.0857	360.6763	65535	64730.5
808.2291	362.8707	65535	64729.35
808.3724	365.0646	65535	64723.45
808.5158	367.258	65535	64723.1
808.6591	369.4508	65535	64722.4
808.8025	371.643	65535	64726.45
808.9459	373.8346	65535	64720.6
809.0893	376.0257	65535	64717.75
809.2327	378.2162	65535	64717.1
809.3762	380.4062	65535	64718.15
809.5196	382.5956	65535	64720.65
809.6631	384.7844	65535	64727.5
809.8066	386.9726	65535	64726.95
809.9501	389.1603	65535	64730.05
810.0936	391.3474	65535	64687.7
810.2371	393.5339	65535	64725.95
810.3806	395.7199	65535	64726.25
810.5241	397.9052	65535	64724.75
810.6677	400.09	65535	64723.95
810.8113	402.2743	65535	64725.1
810.9548	404.4579	65535	64725.75
811.0984	406.641	65535	64722.2
811.2421	408.8235	65535	64719.7
811.3857	411.0054	65535	64718.15
811.5293	413.1868	65535	64713.2
811.673	415.3675	65535	64710.8
811.8166	417.5477	65535	64712.55
811.9603	419.7273	65535	64708.55
812.104	421.9064	65535	64703.9
812.2477	424.0848	65535	64708.55
812.3914	426.2627	65535	64706.2
812.5351	428.4399	65535	64705.55
812.6788	430.6166	65535	64701.9
812.8226	432.7928	65535	64701.1
812.9663	434.9683	65535	64701.8
813.1101	437.1432	65535	64700.2
813.2539	439.3176	65535	64703.3
813.3977	441.4914	65535	64706.85
813.5415	443.6645	65535	64704
813.6853	445.8371	65535	64702.9
813.8291	448.0091	65535	64703.5
813.973	450.1806	65535	64705.05
814.1168	452.3514	65535	64701.25
814.2607	454.5216	65535	64691.55
814.4046	456.6913	65535	64697.25
814.5485	458.8603	65535	64699.5
814.6924	461.0288	65535	64703.6
814.8363	463.1967	65535	64702.25
814.9802	465.3639	65535	64702.55
815.1241	467.5306	65535	64696.8
815.2681	469.6967	65535	64701.65
815.412	471.8622	65535	64700.3
815.556	474.0271	65535	64697.75
815.7	476.1914	65535	64696.15
815.844	478.3551	65535	64696
815.988	480.5182	65535	64699.3
816.132	482.6807	65535	64701.05
816.276	484.8426	65535	64703.85
816.4201	487.0039	65535	64698
816.5641	489.1647	65535	64693.5
816.7082	491.3248	65535	64693.55
816.8522	493.4843	65535	64697.1
816.9963	495.6432	65535	64696.65
817.1404	497.8015	65535	64689.1
817.2845	499.9592	65535	64686.8
817.4286	502.1163	65535	64685.45
817.5727	504.2728	65535	64689.25
817.7168	506.4287	65535	64695.4
817.861	508.5839	65535	64693
818.0051	510.7386	65535	64691.1
818.1493	512.8927	65535	64687.1
818.2935	515.0461	65535	64686.45
818.4377	517.199	65535	64687.2
818.5818	519.3512	65535	64683.4
818.726	521.5029	65535	64679.65
818.8703	523.6539	65535	64682.6
819.0145	525.8043	65535	64683.2
819.1587	527.9541	65535	64684.6
819.303	530.1033	65535	64682.4
819.4472	532.2519	65535	64681.25
819.5915	534.3999	65535	64678.55
819.7357	536.5472	65535	64682.75
819.88	538.694	65535	64683.25
820.0243	540.8401	65535	64680.35
820.1686	542.9856	65535	64675.7
820.3129	545.1305	65535	64675
820.4572	547.2748	65535	64671.5
820.6016	549.4185	65535	64669.4
820.7459	551.5615	65535	64672.95
820.8902	553.704	65535	64671.45
821.0346	555.8458	65535	64672.55
821.1789	557.987	65535	64674.2
821.3233	560.1276	65535	64677.25
821.4677	562.2675	65535	64673.6
821.6121	564.4069	65535	64675.65
821.7565	566.5456	65535	64676.4
821.9009	568.6837	65535	64675.3
822.0453	570.8212	65535	64678.3
822.1897	572.958	65535	64670.65
822.3342	575.0942	65535	64676.6
822.4786	577.2299	65535	64676.65
822.6231	579.3648	65535	64678.55
822.7675	581.4992	65535	64681.2
822.912	583.6329	65535	64684.05
823.0565	585.766	65535	64679.85
823.201	587.8985	65535	64678.75
823.3454	590.0304	65535	64650.4
823.4899	592.1616	65535	64667.5
823.6345	594.2922	65535	64668.75
823.779	596.4222	65535	64666.85
823.9235	598.5515	65535	64670.55
824.068	600.6802	65535	64668.6
824.2126	602.8083	65535	64667.3
824.3571	604.9358	65535	64668.75
824.5017	607.0626	65535	64664.65
824.6462	609.1888	65535	64661.85
824.7908	611.3144	65535	64660.5
824.9354	613.4393	65535	64662.3
825.08	615.5636	65535	64665.25
825.2246	617.6873	65535	64663.8
825.3692	619.8103	65535	64662.45
825.5138	621.9327	65535	64663.15
825.6584	624.0544	65535	64665.05
825.803	626.1756	65535	64665.4
825.9477	628.2961	65535	64664.45
826.0923	630.4159	65535	64662.6
826.237	632.5351	65535	64657.4
826.3816	634.6537	65535	64660.45
826.5263	636.7716	65535	64656.7
826.6709	638.8889	65535	64657.6
826.8156	641.0056	65535	64655.85
826.9603	643.1216	65535	64658.45
827.105	645.237	65535	64655.8
827.2497	647.3518	65535	64660.35
827.3944	649.4659	65535	64661.55
827.5391	651.5793	65535	64661.25
827.6838	653.6922	65535	64661.55
827.8285	655.8043	65535	64662.6
827.9733	657.9159	65535	64658.6
828.118	660.0268	65524.05	64648.6
828.2627	662.137	65535	64656.2
828.4075	664.2466	65535	64654.2
828.5522	666.3556	65535	64656.25
828.697	668.4639	65535	64657
828.8418	670.5716	65535	64661
828.9865	672.6786	65535	64656.55
829.1313	674.785	65534.15	64653.25
829.2761	676.8907	65534.1	64656.1
829.4209	678.9958	65535	64658.35
829.5657	681.1002	65535	64658.25
829.7105	683.204	65534.45	64645.65
829.8553	685.3072	65528.8	64644.45
830.0001	687.4097	65532.15	64651.35
830.1449	689.5115	65523.65	64638.4
830.2898	691.6127	65535	64655.9
830.4346	693.7132	65530.25	64649.5
830.5794	695.8131	65530.95	64630.95
830.7243	697.9123	65534.85	64649.9
830.8691	700.0109	65532.55	64648.3
831.014	702.1089	65521.1	64637.9
831.1588	704.2061	65523.75	64640.1
831.3037	706.3028	65526.5	64641.2
831.4486	708.3987	65532.25	64649
831.5935	710.4941	65524.95	64639.7
831.7383	712.5887	65531.15	64646.35
831.8832	714.6827	65518.5	64632.35
832.0281	716.7761	65527.6	64645.2
832.173	718.8688	65530.65	64645.6
832.3179	720.9608	65518.65	64627.6
832.4628	723.0522	65522.05	64627.75
832.6077	725.1429	65514.95	64629.7
832.7527	727.233	65535	64644.85
832.8976	729.3224	65455.7	64567.3
833.0425	731.4112	65508	64620.7
833.1874	733.4993	65514.85	64622.6
833.3324	735.5867	65514.55	64627.35
833.4773	737.6735	65479.55	64589.55
833.6222	739.7596	65464.5	64577.75
833.7672	741.845	65461.35	64572.7
833.9122	743.9298	65517.3	64626.45
834.0571	746.014	65454.85	64569.05
834.2021	748.0974	65417.9	64522.45
834.347	750.1802	65490.25	64599.15
834.492	752.2624	65418.35	64525.9
834.637	754.3439	65429.3	64535.65
834.782	756.4247	65441.85	64543
834.9269	758.5048	65405.1	64514.35
835.0719	760.5843	65416.8	64527.95
835.2169	762.6631	65418.55	64526.65
835.3619	764.7413	65400.95	64508.55
835.5069	766.8188	65401.8	64507.8
835.6519	768.8956	65420.25	64526.1
835.7969	770.9718	65406.55	64515.75
835.9419	773.0473	65404.5	64513.75
836.0869	775.1221	65357.1	64467.65
836.232	777.1962	65364.25	64470.15
836.377	779.2697	65319.75	64424.2
836.522	781.3426	65341.1	64428.7
836.667	783.4147	65351.3	64456.25
836.8121	785.4862	65343.3	64449.8
836.9571	787.557	65309.4	64412.4
837.1021	789.6271	65361.85	64467.65
837.2472	791.6966	65326.7	64431.75
837.3922	793.7654	65292.7	64396.5
837.5373	795.8335	65297.05	64402.85
837.6823	797.901	65323.15	64429
837.8274	799.9678	65304.95	64407.4
837.9724	802.0339	65282.35	64388.8
838.1175	804.0993	65289.25	64382.9
838.2626	806.1641	65267.1	64370.55
838.4076	808.2282	65260.2	64364.9
838.5527	810.2916	65256.5	64359.6
838.6978	812.3544	65277.4	64385.05
838.8428	814.4164	65229.6	64335.15
838.9879	816.4778	65234.1	64336.9
839.133	818.5385	65249.1	64350.05
839.2781	820.5986	65240.35	64342.65
839.4232	822.658	65252.9	64354.6
839.5682	824.7166	65242.65	64344.9
839.7133	826.7747	65200.85	64303.6
839.8584	828.832	65229.15	64332.3
840.0035	830.8886	65250.6	64349.6
840.1486	832.9446	65240.15	64341.05
840.2937	834.9999	65179.8	64281.95
840.4388	837.0545	65203.15	64302.4
840.5839	839.1085	65217.5	64320.9
840.729	841.1618	65203.9	64300.1
840.8741	843.2143	65161.85	64263.2
841.0192	845.2662	65173.6	64272.4
841.1643	847.3175	65184.45	64287.75
841.3095	849.368	65125.25	64227.95
841.4546	851.4179	65172.8	64275.35
841.5997	853.467	65134.75	64236.85
841.7448	855.5155	65154.65	64255.85
841.8899	857.5633	65125.35	64227.45
842.0351	859.6105	65110.1	64211
842.1802	861.6569	65135.4	64236.2
842.3253	863.7027	65101.1	64198.7
842.4704	865.7478	65109	64209.7
842.6156	867.7922	65092	64192.55
842.7607	869.8359	65116.9	64216.25
842.9058	871.8789	65067.3	64164.55
843.0509	873.9212	65088.85	64154.6
843.1961	875.9629	65079.5	64178.85
843.3412	878.0039	65074.8	64169.2
843.4863	880.0441	65068.5	64168.35
843.6315	882.0837	65074.35	64175.15
843.7766	884.1226	65069.8	64169.75
843.9218	886.1609	65071.6	64173.55
844.0669	888.1984	65054.2	64153.7
844.212	890.2352	65082.55	64180.6
844.3572	892.2714	65050.95	64146.15
844.5023	894.3069	65070.75	64167.15
844.6475	896.3416	65051.4	64147.45
844.7926	898.3757	65045.15	64141.85
844.9377	900.4091	65009.8	64106.95
845.0829	902.4418	65047.05	64139.9
845.228	904.4739	65012.2	64107.05
845.3732	906.5052	65011.9	64107.35
845.5183	908.5358	64998.35	64096.7
845.6635	910.5658	64994.3	64088
845.8086	912.595	65003.65	64100.7
845.9538	914.6236	64977	64075.5
846.0989	916.6515	65009.15	64107.2
846.2441	918.6786	64960.6	64056.1
846.3892	920.7051	64958.3	64053.4
846.5344	922.7309	64949.85	64046.25
846.6795	924.756	64960.4	64053.65
846.8246	926.7804	64954.45	64048.25
846.9698	928.8041	64917.85	64010.45
847.1149	930.8272	64922.35	64017.95
847.2601	932.8495	64924.4	64021.25
847.4052	934.8711	64912.9	64005.9
847.5504	936.892	64896.9	63990.3
847.6955	938.9123	64890.7	63984.15
847.8407	940.9318	64874.05	63971.8
847.9858	942.9506	64876.1	63972.1
848.131	944.9688	64869.1	63964.1
848.2761	946.9862	64856.5	63951.5
848.4213	949.003	64855	63952.2
848.5664	951.019	64832.25	63930.9
848.7115	953.0344	64820.6	63916.25
848.8567	955.0491	64822.1	63914.6
849.0018	957.063	64826.3	63923.35
849.147	959.0763	64812.2	63910.85
849.2921	961.0888	64809.15	63900.25
849.4373	963.1007	64808.05	63903.25
849.5824	965.1119	64813.55	63911.65
849.7275	967.1223	64809.85	63913
849.8727	969.1321	64807.7	63907.8
850.0178	971.1412	64787.2	63887.25
850.1629	973.1495	64776.45	63870.95
850.3081	975.1572	64771.5	63825.3
850.4532	977.1641	64770.5	63864.2
850.5983	979.1704	64760.1	63855.3
850.7435	981.1759	64756.9	63848.5
850.8886	983.1808	64740	63833.5
851.0337	985.1849	64737.65	63823
851.1788	987.1884	64744.9	63837.25
851.324	989.1911	64736.55	63831.15
851.4691	991.1932	64729.95	63824.5
851.6142	993.1945	64722.35	63816.8
851.7593	995.1951	64698.3	63790.35
851.9045	997.1951	64705.7	63794.25
852.0496	999.1943	64693.6	63788.55
852.1947	1001.1928	64673.6	63770.35
852.3398	1003.1906	64662.95	63754.9
852.4849	1005.1877	64663.5	63757.15
852.63	1007.1841	64650.85	63744.75
852.7751	1009.1798	64647	63741.2
852.9202	1011.1748	64628.5	63723.05
853.0653	1013.1691	64620.05	63712.7
853.2104	1015.1627	64609.1	63705.3
853.3555	1017.1556	64589.25	63683.25
853.5006	1019.1477	64593.65	63686.15
853.6457	1021.1392	64584	63681.85
853.7908	1023.1299	64567.7	63664.9
853.9359	1025.12	64561.6	63661.6
854.081	1027.1093	64538.8	63646.1
854.2261	1029.0979	64534.6	63642.15
854.3712	1031.0859	64532.2	63635.75
854.5163	1033.0731	64517.35	63618.3
854.6613	1035.0596	64521.6	63617.8
854.8064	1037.0454	64515.4	63609.25
854.9515	1039.0304	64503.05	63598.05
855.0965	1041.0148	64492.85	63591.25
855.2416	1042.9985	64479.95	63574.5
855.3867	1044.9814	64475.15	63574.15
855.5317	1046.9636	64465.35	63559.05
855.6768	1048.9452	64460.65	63558.3
855.8219	1050.926	64450.6	63547.55
855.9669	1052.9061	64447.1	63542.3
856.112	1054.8855	64436.25	63532.25
856.257	1056.8642	64439.05	63533.65
856.4021	1058.8421	64436.15	63528.9
856.5471	1060.8194	64431.1	63525.2
856.6921	1062.7959	64415.95	63509.5
856.8372	1064.7717	64407.35	63500.8
856.9822	1066.7469	64409.4	63502.3
857.1272	1068.7213	64401.3	63493.75
857.2723	1070.695	64398.9	63496.6
857.4173	1072.6679	64383.55	63478.25
857.5623	1074.6402	64384.55	63477.85
857.7073	1076.6117	64377.9	63465.5
857.8523	1078.5826	64374.8	63465.8
857.9973	1080.5527	64369.3	63460.7
858.1423	1082.5221	64351.6	63448.1
858.2873	1084.4908	64352.4	63448.1
858.4323	1086.4587	64352.55	63445.8
858.5773	1088.426	64331.85	63426.35
858.7223	1090.3925	64326.95	63417
858.8673	1092.3584	64337.4	63432.7
859.0123	1094.3235	64304.5	63400.2
859.1573	1096.2879	64287.6	63380.85
859.3022	1098.2515	64310.9	63404
859.4472	1100.2145	64279.25	63374.05
859.5922	1102.1767	64270.05	63359.3
859.7371	1104.1382	64284.45	63379.75
859.8821	1106.099	64256.55	63350.5
860.027	1108.0591	64253.05	63347.1
860.172	1110.0185	64174.9	63266.45
860.3169	1111.9771	64258.8	63351.35
860.4619	1113.9351	64209.8	63303.6
860.6068	1115.8923	64164.95	63260.55
860.7517	1117.8488	64137.3	63229.7
860.8967	1119.8045	64110.65	63202.55
861.0416	1121.7596	64129.8	63222.65
861.1865	1123.7139	64112.1	63208.05
861.3314	1125.6675	64105.9	63201.6
861.4763	1127.6204	64088.55	63184.5
861.6212	1129.5726	64033.6	63125.7
861.7661	1131.524	64062.15	63158.05
861.911	1133.4748	64061.55	63156.65
862.0559	1135.4248	64009.8	63104.4
862.2008	1137.3741	64012.15	63107.55
862.3457	1139.3226	64006.7	63097.85
862.4905	1141.2705	63988.05	63084.05
862.6354	1143.2176	63991.9	63080.45
862.7803	1145.164	63929.25	63021.85
862.9251	1147.1097	63962	63055.6
863.07	1149.0546	63940	63034.45
863.2148	1150.9989	63963.35	63056.6
863.3597	1152.9424	63905.45	62999.45
863.5045	1154.8852	63949.25	63043.7
863.6493	1156.8272	63890.4	62984
863.7942	1158.7686	63935	63022
863.939	1160.7092	63853.25	62945.2
864.0838	1162.6491	63866.85	62958.75
864.2286	1164.5883	63886.5	62980.7
864.3734	1166.5267	63843.85	62938.2
864.5182	1168.4644	63865.5	62960.25
864.663	1170.4014	63833.55	62923.25
864.8078	1172.3377	63847.85	62943.2
864.9526	1174.2732	63865.6	62961.8
865.0974	1176.2081	63840.6	62935.75
865.2421	1178.1421	63822.6	62912.6
865.3869	1180.0755	63865.95	62961.15
865.5317	1182.0082	63833.8	62932
865.6764	1183.9401	63834.45	62927.7
865.8212	1185.8713	63784.7	62882.55
865.9659	1187.8017	63781.6	62883.2
866.1106	1189.7315	63776.15	62877
866.2554	1191.6605	63760.55	62836.15
866.4001	1193.5888	63722.4	62822.8
866.5448	1195.5163	63679.7	62778.65
866.6895	1197.4432	63673.25	62768.65
866.8342	1199.3693	63687.6	62782.25
866.9789	1201.2947	63649.1	62740.45
867.1236	1203.2193	63650.45	62745.5
867.2683	1205.1432	63609.75	62704.55
867.413	1207.0664	63610	62705.3
867.5576	1208.9889	63590.45	62681.8
867.7023	1210.9106	63578.8	62674.7
867.847	1212.8316	63570	62665
867.9916	1214.7519	63552	62638.05
868.1363	1216.6715	63542.3	62638.6
868.2809	1218.5903	63548.2	62640.45
868.4255	1220.5084	63516.05	62611.75
868.5701	1222.4257	63499.75	62595.65
868.7148	1224.3424	63492.3	62588.95
868.8594	1226.2583	63486.55	62579.65
869.004	1228.1735	63491.4	62585.85
869.1486	1230.0879	63445.55	62538.1
869.2932	1232.0016	63444.35	62541.45
869.4377	1233.9146	63446.9	62541.2
869.5823	1235.8269	63430.75	62528
869.7269	1237.7384	63418.9	62512.8
869.8715	1239.6492	63406.1	62502.75
870.016	1241.5592	63383.45	62478.2
870.1606	1243.4686	63381.15	62476.3
870.3051	1245.3772	63356.1	62454.45
870.4496	1247.285	63377.4	62472.75
870.5941	1249.1922	63349.5	62447.1
870.7387	1251.0986	63346.1	62442.8
870.8832	1253.0042	63313.8	62409.4
871.0277	1254.9092	63324.45	62421.7
871.1722	1256.8134	63284.6	62381.5
871.3167	1258.7169	63312.2	62408.35
871.4611	1260.6196	63279.7	62377.4
871.6056	1262.5216	63296.2	62392.85
871.7501	1264.4229	63282.8	62379.9
871.8945	1266.3234	63295.6	62392.25
872.039	1268.2232	63280.9	62377.05
872.1834	1270.1223	63268.75	62364.2
872.3278	1272.0207	63247.35	62342.9
872.4723	1273.9183	63239.2	62328.5
872.6167	1275.8151	63234	62330.6
872.7611	1277.7113	63235.9	62332.45
872.9055	1279.6067	63214.9	62309.5
873.0499	1281.5014	63197.05	62291.9
873.1943	1283.3953	63193.85	62286.6
873.3386	1285.2885	63197.85	62294.65
873.483	1287.181	63200.75	62297.45
873.6274	1289.0727	63209.95	62308.7
873.7717	1290.9637	63188.05	62282.6
873.9161	1292.854	63196.15	62292.45
874.0604	1294.7435	63190.3	62286.15
874.2047	1296.6323	63188.35	62284.1
874.349	1298.5204	63178.1	62269.35
874.4933	1300.4077	63179.15	62275.15
874.6376	1302.2943	63163.2	62256.9
874.7819	1304.1802	63158.7	62256.8
874.9262	1306.0653	63125.4	62220.45
875.0705	1307.9497	63120.55	62216.55
875.2147	1309.8333	63106.45	62204.85
875.359	1311.7162	63094.45	62189.15
875.5032	1313.5984	63101.9	62196.9
875.6475	1315.4798	63066.7	62150.85
875.7917	1317.3605	63080.4	62160.85
875.9359	1319.2405	63054.9	62149.65
876.0801	1321.1197	63028.5	62120.35
876.2243	1322.9982	63012.75	62105.55
876.3685	1324.876	63006.15	62103.15
876.5127	1326.753	62980.7	62077.5
876.6569	1328.6293	63011.4	62104.7
876.801	1330.5048	62989.4	62080.75
876.9452	1332.3796	62958.8	62053.9
877.0893	1334.2537	62960.35	62034.2
877.2335	1336.127	62968.2	62065.15
877.3776	1337.9996	62933.7	62029.75
877.5217	1339.8714	62940.6	62033.1
877.6658	1341.7426	62870.55	61921.15
877.8099	1343.6129	62905.3	62001.5
877.954	1345.4826	62905.5	61999.5
878.0981	1347.3515	62863.05	61958.45
878.2422	1349.2196	62896	61990.1
878.3862	1351.087	62872.9	61969.8
878.5303	1352.9537	62871.9	61964.3
878.6743	1354.8197	62870.65	61965.85
878.8184	1356.6849	62872.45	61965.65
878.9624	1358.5493	62872.4	61969.2
879.1064	1360.4131	62832.75	61930.45
879.2504	1362.276	62853.3	61949.35
879.3944	1364.1383	62790.9	61889.3
879.5384	1365.9998	62733.6	61822.6
879.6823	1367.8606	62775.85	61870.15
879.8263	1369.7206	62727.6	61823.4
879.9702	1371.5799	62701.45	61793.1
880.1142	1373.4384	62659.75	61754.85
880.2581	1375.2962	62655	61747.7
880.402	1377.1533	62575.5	61673.25
880.5459	1379.0096	62533.55	61631.3
880.6898	1380.8652	62515	61615.3
880.8337	1382.7201	62488.1	61585.3
880.9776	1384.5742	62473.25	61569
881.1215	1386.4275	62391.95	61487.45
881.2653	1388.2802	62401.25	61497.15
881.4092	1390.132	62404.55	61500.6
881.553	1391.9832	62305.6	61399.35
881.6968	1393.8336	62271.85	61366.85
881.8406	1395.6832	62291.05	61387.25
881.9844	1397.5322	62298.25	61397.85
882.1282	1399.3803	62230.1	61323.1
882.272	1401.2278	62199.75	61294.5
882.4158	1403.0745	62172.9	61269.9
882.5595	1404.9204	62152.85	61250.65
882.7033	1406.7656	62140.2	61235
882.847	1408.6101	62061.8	61157.6
882.9908	1410.4538	62078.65	61175.1
883.1345	1412.2968	62060	61156.7
883.2782	1414.139	61982.85	61079
883.4219	1415.9805	62025.3	61122.15
883.5656	1417.8213	61939.8	61030
883.7092	1419.6613	62000.95	61098.95
883.8529	1421.5006	61949.2	61046.7
883.9965	1423.3391	61908.2	61005.25
884.1402	1425.1769	61927.8	61022.2
884.2838	1427.0139	61978.35	61073.6
884.4274	1428.8502	61918.8	61013.5
884.571	1430.6858	61931.5	61027.75
884.7146	1432.5206	62035.2	61130.8
884.8582	1434.3547	61924.1	61018.65
885.0018	1436.188	61860.25	60956.7
885.1453	1438.0206	61908.05	61003.2
885.2889	1439.8524	61878.55	60976.2
885.4324	1441.6835	61818.95	60915.8
885.5759	1443.5139	61848.75	60941.4
885.7194	1445.3435	61773.65	60870.4
885.8629	1447.1724	61793.5	60889.3
886.0064	1449.0005	61681.55	60782.15
886.1499	1450.8279	61747.2	60843.4
886.2933	1452.6545	61742.85	60839
886.4368	1454.4804	61719.45	60820.25
886.5802	1456.3056	61697	60788
886.7237	1458.13	61674.25	60773.3
886.8671	1459.9536	61714.8	60813.9
887.0105	1461.7766	61627.2	60725.4
887.1539	1463.5987	61530	60626.7
887.2972	1465.4202	61530.95	60628.4
887.4406	1467.2409	61502.4	60600.95
887.584	1469.0608	61430.7	60527.8
887.7273	1470.88	61437	60534.85
887.8706	1472.6984	61444.75	60543.7
888.0139	1474.5161	61284.5	60380.95
888.1572	1476.3331	61340.6	60439.85
888.3005	1478.1493	61226.85	60324.3
888.4438	1479.9648	61204.3	60301.7
888.5871	1481.7795	61252.5	60351.35
888.7303	1483.5935	61250.3	60349.7
888.8736	1485.4067	61098.6	60197.8
889.0168	1487.2192	61159.4	60258.05
889.16	1489.031	61072.65	60167.35
889.3032	1490.842	61125.35	60226.15
889.4464	1492.6522	61116.1	60214.8
889.5896	1494.4618	61012.55	60111.2
889.7327	1496.2705	61064.7	60163.6
889.8759	1498.0785	60864.9	59964.2
890.019	1499.8858	60940.65	60037.7
890.1622	1501.6924	61034.45	60135.3
890.3053	1503.4981	60883.2	59979.75
890.4484	1505.3032	60915.65	60012.4
890.5914	1507.1075	60794.35	59893
890.7345	1508.911	60809.95	59907.3
890.8776	1510.7138	60803.85	59901
891.0206	1512.5159	60859.8	59958.6
891.1637	1514.3172	60555.75	59656.8
891.3067	1516.1178	60593.3	59692.8
891.4497	1517.9176	60694.7	59792.9
891.5927	1519.7166	60570.45	59674.05
891.7357	1521.515	60501.7	59596.65
891.8786	1523.3126	60382.9	59482.1
892.0216	1525.1094	60485.8	59584.1
892.1645	1526.9055	60365.15	59464.15
892.3074	1528.7008	60384.4	59483.05
892.4503	1530.4954	60238.1	59336.3
892.5932	1532.2893	60370.9	59475.2
892.7361	1534.0824	60163.45	59258.9
892.879	1535.8747	60082.3	59184.55
893.0218	1537.6663	60310.35	59411.7
893.1647	1539.4572	59836.75	58934.65
893.3075	1541.2473	60019.15	59119.4
893.4503	1543.0367	59949.4	59053.8
893.5931	1544.8253	59890.55	58987.25
893.7359	1546.6132	59930.65	59029.5
893.8787	1548.4003	59777.4	58869.05
894.0214	1550.1867	59725.7	58819.45
894.1642	1551.9723	59716.2	58814.2
894.3069	1553.7572	59722.75	58823.25
894.4496	1555.5414	59767.35	58869.9
894.5923	1557.3247	59510.35	58613.4
894.735	1559.1074	59688.9	58795
894.8777	1560.8893	59579.15	58680.7
895.0204	1562.6705	59613.75	58718.3
895.163	1564.4509	59442.85	58547.35
895.3056	1566.2305	59484.3	58588.05
895.4482	1568.0094	59627.65	58735.5
895.5908	1569.7876	59507.7	58611.4
895.7334	1571.565	59363.85	58467.35
895.876	1573.3417	59443	58548.1
896.0186	1575.1176	59349.25	58454.35
896.1611	1576.8928	59273.15	58378.15
896.3036	1578.6672	59180.7	58289.45
896.4461	1580.4409	59199	58307.55
896.5886	1582.2138	59099.15	58203.95
896.7311	1583.986	59117.35	58223.35
896.8736	1585.7575	59011.25	58118.4
897.0161	1587.5282	59066	58173.65
897.1585	1589.2981	59096.55	58205.6
897.3009	1591.0673	58930.2	58040.3
897.4433	1592.8358	58872.05	57980.8
897.5857	1594.6035	58935.9	58039.15
897.7281	1596.3704	58925.05	58029.9
897.8705	1598.1366	58776.15	57883
898.0128	1599.9021	58672	57779.8
898.1551	1601.6668	58801.25	57903.6
898.2975	1603.4308	58730.4	57835.3
898.4398	1605.194	58783.95	57885.45
898.5821	1606.9564	58505	57613.6
898.7243	1608.7182	58640.8	57749.95
898.8666	1610.4791	58532.55	57644.5
899.0088	1612.2394	58608.55	57721.25
899.1511	1613.9988	58498.15	57607.35
899.2933	1615.7576	58654.9	57761.95
899.4355	1617.5156	58666.15	57766.25
899.5776	1619.2728	58741.05	57848.3
899.7198	1621.0293	58451.8	57557
899.862	1622.785	58427.45	57532.05
900.0041	1624.54	58458.65	57565.55
900.1462	1626.2942	58295.25	57403.8
900.2883	1628.0477	57980.85	57086.05
900.4304	1629.8005	57836.6	56941.75
900.5725	1631.5525	57960.55	57071.45
900.7145	1633.3037	57669.1	56781.2
900.8566	1635.0542	57658	56768.3
900.9986	1636.804	57697.9	56808.8
901.1406	1638.553	57498.2	56551.35
901.2826	1640.3013	57495.65	56605.15
901.4245	1642.0488	57343.35	56451.8
901.5665	1643.7955	57416	56527.95
901.7085	1645.5416	57307.75	56417.15
901.8504	1647.2868	57194.9	56304.3
901.9923	1649.0313	57363.95	56472.75
902.1342	1650.7751	57258.05	56364.95
902.2761	1652.5181	57142.55	56254.05
902.4179	1654.2604	57096	56206.7
902.5598	1656.0019	57172.65	56284.85
902.7016	1657.7427	57122.55	56235.3
902.8434	1659.4828	57236.5	56347.45
902.9852	1661.222	57111.65	56219.2
903.127	1662.9606	57187.95	56297.8
903.2687	1664.6984	56992.9	56102.5
903.4105	1666.4354	56990.85	56097.45
903.5522	1668.1717	56669	55777.3
903.6939	1669.9072	56319.15	55426.55
903.8356	1671.642	56256	55363.25
903.9773	1673.3761	56132.9	55241.55
904.119	1675.1094	55967	55076.35
904.2606	1676.8419	55647.5	54757.7
904.4022	1678.5737	55655.95	54764.5
904.5439	1680.3048	55475.7	54586.85
904.6855	1682.0351	55349.6	54457
904.827	1683.7646	55177.5	54285.35
904.9686	1685.4934	55248.35	54358.7
905.1101	1687.2215	54710.75	53816.75
905.2517	1688.9488	55017.05	54126.65
905.3932	1690.6754	54225.2	53336.95
905.5347	1692.4012	54587.05	53694.05
905.6761	1694.1263	54584.8	53694.95
905.8176	1695.8506	54222.05	53333.25
905.9591	1697.5742	54275.75	53386.1
906.1005	1699.297	54117.15	53227.95
906.2419	1701.0191	54122.3	53233.45
906.3833	1702.7404	53707.6	52819.45
906.5246	1704.461	53520.85	52628.9
906.666	1706.1808	53721.15	52826.35
906.8073	1707.8999	53556.45	52665.75
906.9487	1709.6182	53381.5	52492.85
907.09	1711.3358	53346.1	52458.8
907.2313	1713.0527	53223	52336.8
907.3725	1714.7688	53176.7	52283.3
907.5138	1716.4841	52703.35	51812.05
907.655	1718.1987	52845.15	51951.45
907.7962	1719.9126	52634.8	51749.6
907.9374	1721.6257	52684.95	51798.15
908.0786	1723.338	52675.45	51789.65
908.2198	1725.0496	52120.75	51234.05
908.3609	1726.7605	52189.4	51298.7
908.502	1728.4706	51992.45	51106.55
908.6431	1730.18	52015.7	51125.75
908.7842	1731.8886	51813.75	50928.3
908.9253	1733.5964	51657.1	50768.1
909.0664	1735.3036	51837.7	50948.1
909.2074	1737.0099	51622.65	50735.45
909.3484	1738.7156	51380.15	50492.65
909.4894	1740.4204	51230.7	50339.6
909.6304	1742.1246	51353.85	50465.45
909.7714	1743.8279	51331	50444.65
909.9123	1745.5306	51269.3	50383.55
910.0532	1747.2325	50739.5	49852.55
910.1941	1748.9336	50700.95	49813.7
910.335	1750.634	50739.45	49850.65
910.4759	1752.3336	50830.05	49941.85
910.6168	1754.0325	50490.25	49603.55
910.7576	1755.7307	50735	49849.4
910.8984	1757.4281	50319.05	49432.95
911.0392	1759.1247	50556.95	49662.1
911.18	1760.8206	50118.55	49226.1
911.3208	1762.5158	50111.35	49219.55
911.4615	1764.2102	50131.1	49242.9
911.6022	1765.9039	49965.05	49077.55
911.7429	1767.5968	49877.25	48992.7
911.8836	1769.289	49673.8	48786.4
912.0243	1770.9804	49706.8	48819.55
912.1649	1772.6711	49618.15	48729.05
912.3056	1774.361	49521	48630.8
912.4462	1776.0502	49540.3	48653.45
912.5868	1777.7386	49130.35	48239.5
912.7274	1779.4263	49233.6	48345.75
912.8679	1781.1132	49210.7	48324.8
913.0084	1782.7994	49017.05	48130.65
913.149	1784.4849	49057.15	48171.55
913.2895	1786.1696	48609.25	47716.25
913.4299	1787.8535	48806.85	47922.9
913.5704	1789.5367	48812.6	47927.65
913.7108	1791.2192	48516.85	47631.2
913.8513	1792.9009	48270.5	47354
913.9917	1794.5818	48416.3	47526.25
914.132	1796.2621	48138.55	47254.5
914.2724	1797.9415	48125.15	47237.3
914.4128	1799.6202	48054.55	47165.45
914.5531	1801.2982	48021.95	47135.9
914.6934	1802.9755	47712.95	46821.1
914.8337	1804.6519	47631.45	46746.65
914.9739	1806.3277	47861.1	46973.85
915.1142	1808.0027	47220.5	46336.3
915.2544	1809.6769	47358.55	46473.1
915.3946	1811.3504	47407.85	46522.9
915.5348	1813.0231	46958.75	46073.6
915.675	1814.6951	47151.4	46264.05
915.8151	1816.3664	47003.3	46114.6
915.9553	1818.0369	46926.85	46040.2
916.0954	1819.7067	46734.85	45848.6
916.2355	1821.3757	46969.7	46081.4
916.3755	1823.044	46522.7	45634.95
916.5156	1824.7115	46354.85	45466.4
916.6556	1826.3783	46374.15	45486
916.7956	1828.0443	46280.6	45393.45
916.9356	1829.7096	46091.6	45203.4
917.0756	1831.3741	45896.65	45005.95
917.2155	1833.0379	45951.65	45065.55
917.3555	1834.701	45885.75	44999.8
917.4954	1836.3633	45694.65	44808.5
917.6353	1838.0248	45742.9	44855
917.7751	1839.6856	45608	44722.3
917.915	1841.3457	45369.4	44484.8
918.0548	1843.005	45526.95	44642.15
918.1946	1844.6636	45319.1	44432.65
918.3344	1846.3214	45023.75	44136.75
918.4742	1847.9785	45067.05	44182.7
918.6139	1849.6349	44936.8	44050.65
918.7537	1851.2904	45147.35	44252
918.8934	1852.9453	44701.7	43814.35
919.0331	1854.5994	44770.45	43881.25
919.1727	1856.2528	44750.85	43859.75
919.3124	1857.9054	44474.45	43587.5
919.452	1859.5572	44345.15	43461.25
919.5916	1861.2083	44419.75	43531.65
919.7312	1862.8587	44658.75	43771.1
919.8708	1864.5084	44043.2	43154.75
920.0103	1866.1572	44210.95	43324.05
920.1498	1867.8054	43856.15	42971.3
920.2893	1869.4528	43965.6	43075.75
920.4288	1871.0994	43666	42779.5
920.5683	1872.7453	43575.7	42686.5
920.7077	1874.3905	43603.55	42710.85
920.8471	1876.0349	43323.1	42433.7
920.9865	1877.6786	43497.75	42610.3
921.1259	1879.3215	43281.5	42395.1
921.2653	1880.9637	43411.45	42524.55
921.4046	1882.6051	43147.6	42259.8
921.5439	1884.2458	42981.3	42094.25
921.6832	1885.8858	42781.05	41896
921.8225	1887.525	42785.55	41898.5
921.9617	1889.1634	42658.8	41772.1
922.101	1890.8011	42500	41611.5
922.2402	1892.4381	42246.95	41360.05
922.3794	1894.0743	42461.2	41574.9
922.5185	1895.7098	42225.55	41339.6
922.6577	1897.3446	42079.25	41192.3
922.7968	1898.9786	42027.55	41138.25
922.9359	1900.6118	41880.1	40995.85
923.075	1902.2443	41672.5	40783.35
923.214	1903.8761	41739.4	40856
923.3531	1905.5071	41439.65	40553.3
923.4921	1907.1374	41209.1	40323.1
923.6311	1908.7669	41248.95	40361.8
923.77	1910.3957	41282.7	40396.45
923.909	1912.0237	40925.6	40038.5
924.0479	1913.651	40811.8	39924.45
924.1868	1915.2776	40695.45	39810.65
924.3257	1916.9034	40554.15	39670.05
924.4646	1918.5285	40409.75	39525.75
924.6034	1920.1528	40262.4	39373.55
924.7422	1921.7764	40235.65	39351.1
924.881	1923.3992	40093.65	39207.55
925.0198	1925.0213	39819.85	38932.65
925.1586	1926.6427	39565.7	38680.25
925.2973	1928.2633	39715.3	38620.6
925.436	1929.8832	39448.1	38560.2
925.5747	1931.5023	39310.7	38427.3
925.7134	1933.1207	39134.9	38249.75
925.852	1934.7383	39162.2	38277.15
925.9906	1936.3552	38936	38051.45
926.1292	1937.9714	38916.4	38030.55
926.2678	1939.5868	38747.9	37860.85
926.4064	1941.2015	38503.25	37615.35
926.5449	1942.8154	38343.3	37457.2
926.6834	1944.4286	38247.25	37359.6
926.8219	1946.041	38141.35	37231.9
926.9604	1947.6528	37912.85	37022.5
927.0988	1949.2637	37822.4	36937.05
927.2372	1950.8739	37693.95	36807.85
927.3756	1952.4834	37612.5	36726
927.514	1954.0921	37560.3	36672.8
927.6523	1955.7001	37374.85	36485
927.7907	1957.3074	37376.05	36489.75
927.929	1958.9139	37144.45	36261.6
928.0673	1960.5197	37048.05	36160.55
928.2055	1962.1247	36879	35996.5
928.3438	1963.729	36692.65	35811.35
928.482	1965.3325	36547.45	35639.7
928.6202	1966.9353	36541.55	35657
928.7584	1968.5374	36347.7	35461.35
928.8965	1970.1387	36229.15	35345.45
929.0346	1971.7393	36128.15	35243.1
929.1727	1973.3392	35987	35102.8
929.3108	1974.9383	35827.5	34944.7
929.4489	1976.5366	35647.65	34762.35
929.5869	1978.1342	35695.05	34812.25
929.7249	1979.7311	35544.75	34662.35
929.8629	1981.3273	35477.1	34592.85
930.0009	1982.9227	35382.75	34499.1
930.1388	1984.5173	35263.05	34379.1
930.2767	1986.1112	35060.2	34176.75
930.4146	1987.7044	35016.05	34133.5
930.5525	1989.2968	34844.6	33960.2
930.6904	1990.8885	34793.9	33908.2
930.8282	1992.4795	34759.25	33875.85
930.966	1994.0697	34597.3	33714.6
931.1038	1995.6592	34473.05	33591.2
931.2415	1997.2479	34353.85	33471.7
931.3793	1998.8359	34286.6	33405.85
931.517	2000.4232	34127.25	33245.5
931.6547	2002.0097	34010.3	33130.2
931.7923	2003.5955	33819.05	32936.45
931.93	2005.1805	33846.5	32960.9
932.0676	2006.7648	33781.35	32900.45
932.2052	2008.3484	33674	32789.9
932.3427	2009.9312	33656.75	32774.8
932.4803	2011.5133	33461.85	32582.6
932.6178	2013.0946	33441.85	32559.1
932.7553	2014.6752	33346.8	32468.2
932.8928	2016.2551	33215.8	32331.5
933.0302	2017.8342	33080.85	32198.2
933.1676	2019.4126	32971.7	32091.15
933.305	2020.9902	32837.4	31957.6
933.4424	2022.5672	32776.8	31894.45
933.5798	2024.1433	32719.75	31833.8
933.7171	2025.7188	32581.45	31703.25
933.8544	2027.2935	32506	31623.35
933.9917	2028.8674	32371.1	31490.9
934.129	2030.4406	32259.5	31378.35
934.2662	2032.0131	32068.55	31189.1
934.4034	2033.5849	31995.4	31103.95
934.5406	2035.1559	31977.15	31098.3
934.6778	2036.7261	31894.95	31013.85
934.8149	2038.2957	31799.7	30917.15
934.952	2039.8645	31743.9	30859.65
935.0891	2041.4325	31739.65	30853.45
935.2262	2042.9998	31582.55	30701.75
935.3632	2044.5664	31485.5	30601
935.5002	2046.1323	31385.95	30504.2
935.6372	2047.6974	31338.55	30457.95
935.7742	2049.2617	31223.25	30342.6
935.9111	2050.8254	31203.5	30319.35
936.048	2052.3883	31131.05	30249.05
936.1849	2053.9504	31001.05	30118.6
936.3218	2055.5118	30950.1	30066.45
936.4586	2057.0725	30753.8	29868.5
936.5955	2058.6325	30767.8	29885.65
936.7323	2060.1917	30601.3	29720.75
936.869	2061.7502	30551.2	29664.75
937.0058	2063.3079	30447.95	29569
937.1425	2064.8649	30326.15	29441.4
937.2792	2066.4212	30259.7	29379.65
937.4159	2067.9767	30193.15	29311.15
937.5525	2069.5315	30034.45	29152.35
937.6891	2071.0856	29870.7	28988.8
937.8257	2072.6389	29833.6	28954.15
937.9623	2074.1915	29685.7	28804.85
938.0989	2075.7433	29496.95	28615.5
938.2354	2077.2945	29489.25	28609.4
938.3719	2078.8448	29350.45	28468.6
938.5084	2080.3945	29234.5	28352.9
938.6448	2081.9434	29249.75	28366.45
938.7812	2083.4916	29120.8	28237.65
938.9176	2085.039	29036.85	28151.2
939.054	2086.5857	28967.65	28081.15
939.1903	2088.1317	28892.45	28008.2
939.3267	2089.677	28836.25	27951.55
939.463	2091.2215	28739.95	27856.25
939.5992	2092.7652	28656.4	27770.3
939.7355	2094.3083	28560.85	27676.5
939.8717	2095.8506	28536.55	27652.8
940.0079	2097.3921	28514.2	27632.35
940.1441	2098.933	28395.15	27512.2
940.2802	2100.4731	28323.65	27441.05
940.4163	2102.0124	28285.35	27384.9
940.5524	2103.5511	28199.4	27315.05
940.6885	2105.089	28161	27278.6
940.8245	2106.6261	28075.9	27193.9
940.9606	2108.1626	28051.05	27167.2
941.0965	2109.6983	27980.45	27071.6
941.2325	2111.2332	27856.35	26972.35
941.3684	2112.7675	27764.75	26880.1
941.5044	2114.301	27723.35	26838.7
941.6403	2115.8337	27656.25	26773.85
941.7761	2117.3657	27562	26680.05
941.912	2118.897	27494.35	26610.15
942.0478	2120.4276	27373.15	26484.85
942.1835	2121.9575	27281.4	26396.2
942.3193	2123.4866	27292.35	26392.95
942.455	2125.0149	27204.1	26317
942.5907	2126.5426	27020.35	26138.6
942.7264	2128.0695	26979.75	26093.25
942.8621	2129.5956	26971.15	26091.7
942.9977	2131.1211	26879.95	25993.05
943.1333	2132.6458	26813.7	25930.6
943.2689	2134.1698	26740.05	25855.95
943.4044	2135.693	26662.3	25777.2
943.54	2137.2155	26599.3	25713.2
943.6755	2138.7373	26534.75	25649.6
943.8109	2140.2584	26461.45	25579.75
943.9464	2141.7787	26318.75	25433.6
944.0818	2143.2983	26208.9	25329.25
944.2172	2144.8171	26071.85	25193.45
944.3526	2146.3353	26024.9	25138.6
944.4879	2147.8527	25917.6	25035.45
944.6232	2149.3693	25920.2	25036.55
944.7585	2150.8853	25837.45	24952.35
944.8938	2152.4005	25706.15	24821
945.029	2153.9149	25667.1	24782.8
945.1642	2155.4287	25569.2	24685.6
945.2994	2156.9417	25523.5	24638.2
945.4346	2158.454	25447.55	24565.4
945.5697	2159.9655	25355.9	24472.15
945.7048	2161.4764	25325.35	24444.05
945.8399	2162.9865	25251.55	24370.4
945.9749	2164.4958	25180.75	24297.4
946.1099	2166.0045	25041.9	24157.55
946.2449	2167.5124	25065.65	24181.7
946.3799	2169.0195	24974.35	24091.95
946.5148	2170.526	24964.55	24080.2
946.6498	2172.0317	24827.85	23946.25
946.7846	2173.5367	24809.3	23926.25
946.9195	2175.0409	24679.65	23798.65
947.0543	2176.5445	24679.85	23795.15
947.1891	2178.0473	24591.55	23709.2
947.3239	2179.5494	24446.2	23559.7
947.4587	2181.0507	24367.85	23482.05
947.5934	2182.5513	24326.5	23443.6
947.7281	2184.0512	24263.2	23378.25
947.8628	2185.5504	24169.15	23286.3
947.9974	2187.0488	24050.85	23166.3
948.132	2188.5465	23982.75	23101.8
948.2666	2190.0435	23900.5	23017.35
948.4012	2191.5397	23804.9	22921.3
948.5357	2193.0353	23769.1	22886.1
948.6702	2194.5301	23626.2	22741.45
948.8047	2196.0241	23529.15	22643.8
948.9392	2197.5175	23501.65	22617.35
949.0736	2199.0101	23377	22489
949.208	2200.502	23278.35	22396.25
949.3424	2201.9931	23199.15	22316.9
949.4767	2203.4835	23093.15	22210.1
949.611	2204.9733	23058.15	22171
949.7453	2206.4622	23019.7	22138.2
949.8796	2207.9505	22911	22027.05
950.0138	2209.438	22807.7	21929.15
950.148	2210.9248	22769.35	21886.55
950.2822	2212.4109	22705	21824.25
950.4164	2213.8962	22576.25	21690.2
950.5505	2215.3809	22561.45	21678.45
950.6846	2216.8648	22538.05	21653.7
950.8186	2218.3479	22502.6	21611.9
950.9527	2219.8304	22373.2	21484.35
951.0867	2221.3121	22260.1	21372.85
951.2207	2222.7931	22178.45	21294.15
951.3546	2224.2733	22058.8	21171.75
951.4886	2225.7529	22004.3	21120.9
951.6225	2227.2317	21940.25	21055.5
951.7563	2228.7098	21917.55	21037.5
951.8902	2230.1872	21803.45	20921.8
952.024	2231.6638	21771.55	20892.1
952.1578	2233.1397	21696.65	20808.25
952.2916	2234.6149	21584.45	20702.3
952.4253	2236.0894	21548.8	20665.65
952.559	2237.5632	21500.6	20618.5
952.6927	2239.0362	21380	20496.5
952.8263	2240.5085	21315.95	20435
952.9599	2241.9801	21256	20372.35
953.0935	2243.4509	21221.85	20337.45
953.2271	2244.921	21111.05	20227
953.3606	2246.3904	21005.2	20118.15
953.4941	2247.8591	20963.45	20080.35
953.6276	2249.3271	20889.85	20007
953.7611	2250.7943	20792.45	19907.4
953.8945	2252.2608	20739.95	19855.9
954.0279	2253.7266	20701.9	19818.5
954.1612	2255.1917	20658.2	19774.65
954.2946	2256.656	20561.15	19677.85
954.4279	2258.1197	20478.1	19595.75
954.5612	2259.5826	20444.25	19558.05
954.6944	2261.0447	20395.5	19510
954.8276	2262.5062	20284.7	19398
954.9608	2263.9669	20314.7	19429.7
955.094	2265.4269	20241.15	19358.45
955.2271	2266.8862	20153.4	19269.7
955.3602	2268.3448	20105.3	19221.5
955.4933	2269.8026	20064.65	19181.8
955.6264	2271.2598	20002.65	19119.8
955.7594	2272.7162	19897.05	19014.8
955.8924	2274.1719	19862.6	18980.45
956.0253	2275.6268	19804.2	18919.6
956.1583	2277.0811	19777.85	18894
956.2912	2278.5346	19731.8	18847
956.4241	2279.9874	19675.9	18793.35
956.5569	2281.4395	19614.9	18734.55
956.6897	2282.8908	19574.25	18685.55
956.8225	2284.3414	19507.3	18622.05
956.9553	2285.7914	19435.25	18552.3
957.088	2287.2406	19359.45	18473.2
957.2207	2288.689	19322.4	18438.15
957.3534	2290.1368	19266	18378.75
957.486	2291.5838	19213.45	18325
957.6186	2293.0302	19111	18225.5
957.7512	2294.4758	19075.25	18190.3
957.8838	2295.9206	18990.95	18104.35
958.0163	2297.3648	18962.85	18080.05
958.1488	2298.8082	18927.55	18043.55
958.2813	2300.251	18861.3	17978.05
958.4137	2301.693	18764.85	17879.05
958.5461	2303.1343	18773.4	17887.3
958.6785	2304.5748	18714.25	17829.7
958.8108	2306.0147	18643.9	17758.55
958.9432	2307.4538	18608.8	17723.45
959.0754	2308.8922	18506.4	17625.6
959.2077	2310.3299	18466.9	17583.6
959.3399	2311.7669	18393.7	17510.45
959.4721	2313.2031	18333.65	17451.7
959.6043	2314.6387	18220.4	17336.75
959.7365	2316.0735	18219.4	17335.6
959.8686	2317.5076	18190.45	17306.55
960.0006	2318.941	18103.15	17218.1
960.1327	2320.3737	18033.25	17148.95
960.2647	2321.8056	17991.2	17105.1
960.3967	2323.2369	17940.7	17055.3
960.5287	2324.6674	17911.2	17025.2
960.6606	2326.0972	17842.45	16956.95
960.7925	2327.5263	17763	16880.4
960.9244	2328.9547	17736.75	16850.15
961.0562	2330.3823	17678.25	16793.95
961.1881	2331.8092	17635.9	16748.6
961.3198	2333.2355	17531.8	16647.75
961.4516	2334.661	17512.45	16626.45
961.5833	2336.0858	17512.2	16624.25
961.715	2337.5098	17434.95	16551.55
961.8467	2338.9332	17421.3	16534.9
961.9783	2340.3558	17344.6	16460.1
962.1099	2341.7778	17295.45	16412.15
962.2415	2343.199	17228.65	16342.6
962.373	2344.6195	17178.75	16293.25
962.5045	2346.0393	17131.75	16249.4
962.636	2347.4583	17099.05	16214.2
962.7675	2348.8767	16985.75	16100.2
962.8989	2350.2943	16958.1	16072.5
963.0303	2351.7113	16929.2	16044.55
963.1617	2353.1275	16865.35	15979.95
963.293	2354.543	16810.45	15918.55
963.4243	2355.9578	16754.2	15872.1
963.5556	2357.3718	16691.85	15808.3
963.6868	2358.7852	16609.4	15723.6
963.818	2360.1978	16535.55	15651.2
963.9492	2361.6098	16547.3	15662.4
964.0803	2363.021	16480.05	15593.65
964.2114	2364.4315	16416.7	15532.75
964.3425	2365.8413	16324.75	15435.55
964.4736	2367.2504	16272.8	15390.2
964.6046	2368.6587	16237.6	15355.7
964.7356	2370.0664	16149.15	15266.55
964.8666	2371.4733	16117.3	15233.15
964.9975	2372.8795	16063.15	15179.35
965.1284	2374.285	15991.15	15105.75
965.2593	2375.6899	15934.85	15051.15
965.3901	2377.0939	15885.05	15003.05
965.5209	2378.4973	15791.95	14908.05
965.6517	2379.9	15774.5	14888.85
965.7825	2381.3019	15736.6	14853.65
965.9132	2382.7032	15666.5	14784.2
966.0439	2384.1037	15625.6	14745.7
966.1745	2385.5035	15603.1	14723.25
966.3051	2386.9027	15528	14646.7
966.4357	2388.3011	15520.7	14635.85
966.5663	2389.6987	15474.95	14592.1
966.6968	2391.0957	15364.2	14479.6
966.8273	2392.492	15300.8	14419.25
966.9578	2393.8876	15226.75	14342.05
967.0882	2395.2824	15158.65	14275.1
967.2186	2396.6765	15109.65	14226.9
967.349	2398.07	15034.8	14150.55
967.4793	2399.4627	15027.5	14144.45
967.6097	2400.8547	14999.35	14113.45
967.7399	2402.246	14954.85	14065.85
967.8702	2403.6366	14826.2	13942.3
968.0004	2405.0265	14780.8	13899.2
968.1306	2406.4156	14737.2	13848.9
968.2607	2407.8041	14667.4	13779.3
968.3909	2409.1918	14589.75	13704.4
968.521	2410.5789	14532.2	13648.7
968.651	2411.9652	14502.85	13616.5
968.781	2413.3508	14437.55	13555.2
968.911	2414.7358	14396.15	13513
969.041	2416.12	14359	13475.7
969.1709	2417.5035	14311.3	13429.8
969.3008	2418.8863	14240.8	13354.45
969.4307	2420.2684	14201.75	13316.65
969.5606	2421.6497	14143.45	13257.8
969.6904	2423.0304	14066.15	13184.15
969.8201	2424.4104	14033.65	13148.05
969.9499	2425.7896	13984.4	13099.55
970.0796	2427.1682	13926.1	13043.25
970.2093	2428.546	13901.7	13017.5
970.3389	2429.9232	13894.2	13009.15
970.4685	2431.2996	13856.95	12973.6
970.5981	2432.6753	13812.5	12928.3
970.7277	2434.0503	13779.9	12895.35
970.8572	2435.4246	13667	12783.25
970.9867	2436.7982	13651.15	12763.75
971.1161	2438.1711	13607.8	12723.25
971.2456	2439.5433	13554.35	12669.85
971.375	2440.9148	13493.25	12608
971.5043	2442.2856	13427.9	12544.5
971.6336	2443.6557	13429.15	12544.5
971.7629	2445.025	13372.2	12489.2
971.8922	2446.3937	13325.35	12443.7
972.0214	2447.7617	13278.05	12393.9
972.1506	2449.1289	13262.95	12377.75
972.2798	2450.4955	13243.35	12355.7
972.4089	2451.8613	13184.85	12302.15
972.538	2453.2265	13146.9	12264.5
972.6671	2454.5909	13111.7	12227
972.7961	2455.9546	13053.2	12168.3
972.9251	2457.3177	13017.2	12135.55
973.0541	2458.68	12980.05	12096.3
973.1831	2460.0416	12948.45	12064.5
973.312	2461.4025	12933	12046.95
973.4408	2462.7627	12905.4	12010.4
973.5697	2464.1222	12848.95	11966.2
973.6985	2465.4811	12806.4	11922.85
973.8273	2466.8392	12740.05	11858.75
973.956	2468.1966	12717.55	11832.75
974.0847	2469.5533	12696.35	11812.95
974.2134	2470.9093	12669.4	11787.2
974.3421	2472.2645	12603.25	11717.7
974.4707	2473.6191	12596.3	11714.2
974.5993	2474.973	12552.05	11668.1
974.7278	2476.3262	12485.4	11599.85
974.8563	2477.6787	12445	11562.1
974.9848	2479.0305	12392.15	11506.9
975.1132	2480.3816	12354.2	11468.65
975.2417	2481.7319	12289.6	11408.05
975.37	2483.0816	12245.1	11360.25
975.4984	2484.4306	12192.45	11308.9
975.6267	2485.7789	12155.65	11272.55
975.755	2487.1264	12110.75	11226
975.8833	2488.4733	12055.35	11173.15
976.0115	2489.8195	12008.8	11118.55
976.1397	2491.165	11979.2	11091.85
976.2678	2492.5097	11928.3	11043.1
976.3959	2493.8538	11871.45	10989.05
976.524	2495.1972	11829.3	10946.7
976.6521	2496.5398	11789.8	10904.25
976.7801	2497.8818	11756.05	10869.85
976.9081	2499.2231	11723.7	10839.05
977.036	2500.5637	11669.75	10781.65
977.164	2501.9035	11635.85	10751.3
977.2918	2503.2427	11612.85	10724.25
977.4197	2504.5812	11558.55	10674.95
977.5475	2505.919	11509.75	10624
977.6753	2507.256	11496.8	10614.55
977.8031	2508.5924	11442.95	10558.6
977.9308	2509.9281	11405.8	10516.9
978.0585	2511.2631	11370.2	10488.15
978.1861	2512.5974	11356.85	10473.3
978.3137	2513.9309	11327.55	10442.85
978.4413	2515.2638	11285.3	10369.25
978.5689	2516.596	11244	10362.25
978.6964	2517.9275	11173.65	10288.8
978.8239	2519.2583	11130.85	10245.7
978.9513	2520.5884	11128.85	10243.8
979.0788	2521.9178	11052.7	10168.4
979.2062	2523.2465	11010.45	10126.8
979.3335	2524.5745	10965.45	10082.1
979.4608	2525.9018	10956.75	10073.55
979.5881	2527.2284	10931.05	10049.2
979.7154	2528.5543	10885	10002.75
979.8426	2529.8796	10852.55	9965.85
979.9698	2531.2041	10817.7	9934
980.0969	2532.5279	10784.55	9903.55
980.224	2533.851	10764.65	9881.65
980.3511	2535.1735	10730.9	9849
980.4781	2536.4952	10695.2	9811.85
980.6052	2537.8163	10697.05	9811.75
980.7321	2539.1366	10642.85	9758.75
980.8591	2540.4562	10629.75	9743.6
980.986	2541.7752	10603.75	9719.25
981.1129	2543.0935	10581.85	9698.95
981.2397	2544.411	10574	9689.3
981.3665	2545.7279	10559.35	9676.45
981.4933	2547.0441	10499.6	9614.9
981.62	2548.3596	10507.5	9622.2
981.7467	2549.6744	10464.2	9579.45
981.8734	2550.9885	10432.05	9539.15
982.0001	2552.3019	10401.7	9518.65
982.1267	2553.6146	10356.3	9471.35
982.2532	2554.9266	10311.35	9429
982.3798	2556.2379	10317.6	9431.5
982.5063	2557.5485	10300.75	9419.65
982.6327	2558.8585	10265.75	9375.8
982.7592	2560.1677	10258.2	9370.3
982.8856	2561.4762	10242.55	9360.45
983.0119	2562.7841	10215.3	9327.4
983.1383	2564.0913	10161.8	9279.75
983.2646	2565.3977	10138.95	9256.85
983.3908	2566.7035	10120.05	9237.1
983.517	2568.0086	10111.4	9228.1
983.6432	2569.313	10073.85	9190.45
983.7694	2570.6167	10026.55	9138.3
983.8955	2571.9197	10018	9137.4
984.0216	2573.222	10024.6	9135.95
984.1476	2574.5236	9985.35	9100.25
984.2737	2575.8246	9978.65	9092
984.3996	2577.1248	9941.05	9056.45
984.5256	2578.4244	9951.1	9067.95
984.6515	2579.7232	9915.4	9031.3
984.7774	2581.0214	9894.15	8984.45
984.9032	2582.3189	9869.35	8986.5
985.029	2583.6157	9827	8938.3
985.1548	2584.9118	9794.1	8910.15
985.2806	2586.2072	9779.3	8895.15
985.4063	2587.5019	9748.65	8865.9
985.5319	2588.7959	9702.75	8819.95
985.6576	2590.0893	9710.9	8825.25
985.7832	2591.3819	9695.35	8812.2
985.9087	2592.6739	9648.15	8762.25
986.0343	2593.9652	9591.65	8706.35
986.1597	2595.2557	9576.5	8692.1
986.2852	2596.5456	9526.7	8642.3
986.4106	2597.8348	9510.55	8626.5
986.536	2599.1234	9447.05	8562.7
986.6614	2600.4112	9441.45	8557.05
986.7867	2601.6983	9398.6	8511.15
986.912	2602.9848	9354.35	8471.25
987.0372	2604.2705	9323.55	8433.25
987.1624	2605.5556	9308.45	8424.3
987.2876	2606.84	9258.7	8374.85
987.4128	2608.1237	9226.7	8342.2
987.5379	2609.4067	9201.35	8318.65
987.6629	2610.689	9166.9	8275.45
987.788	2611.9707	9145.6	8257.7
987.913	2613.2516	9105.15	8217.6
988.0379	2614.5319	9045.65	8163
988.1629	2615.8115	9018.45	8132.65
988.2878	2617.0903	8985.6	8100.1
988.4126	2618.3685	8946.05	8062.3
988.5375	2619.6461	8911.05	8026.2
988.6622	2620.9229	8906.35	8023.8
988.787	2622.199	8885.9	8003
988.9117	2623.4745	8863.2	7980.35
989.0364	2624.7493	8794	7911.75
989.161	2626.0234	8783.15	7901.1
989.2857	2627.2968	8762.7	7880.25
989.4102	2628.5695	8725.05	7838.65
989.5348	2629.8415	8686	7803.55
989.6593	2631.1128	8646.7	7762.35
989.7837	2632.3835	8624.3	7741.55
989.9082	2633.6535	8587.85	7704.5
990.0326	2634.9228	8563.8	7680.8
990.1569	2636.1914	8523.75	7639.55
990.2812	2637.4593	8526.1	7637.45
990.4055	2638.7265	8481.3	7596.9
990.5298	2639.9931	8430.55	7547.3
990.654	2641.259	8409.55	7524.25
990.7782	2642.5242	8372.85	7488.35
990.9023	2643.7887	8363.65	7481.85
991.0264	2645.0525	8358.1	7475.5
991.1505	2646.3156	8342.65	7457.9
991.2745	2647.5781	8297.05	7412.4
991.3985	2648.8398	8261.3	7379.35
991.5225	2650.1009	8266.45	7345.9
991.6464	2651.3613	8220.55	7337.15
991.7703	2652.6211	8168.65	7285
991.8942	2653.8801	8148.25	7267.3
992.018	2655.1385	8121.15	7234.7
992.1418	2656.3961	8123.75	7239.55
992.2655	2657.6531	8098.75	7216
992.3892	2658.9094	8094.05	7211
992.5129	2660.1651	8084.4	7202.4
992.6366	2661.42	8028.75	7146.1
992.7602	2662.6743	8021.2	7136.8
992.8837	2663.9279	7989.75	7105.3
993.0073	2665.1808	7939.9	7057.7
993.1307	2666.433	7922.8	7039.2
993.2542	2667.6846	7911.05	7028.5
993.3776	2668.9354	7900.6	7016.05
993.501	2670.1856	7860.35	6977.95
993.6244	2671.4351	7852.75	6968.65
993.7477	2672.6839	7839.85	6953.95
993.8709	2673.9321	7807.6	6924.65
993.9942	2675.1795	7796.05	6912.35
994.1174	2676.4263	7741.8	6860.3
994.2405	2677.6724	7732.15	6847.85
994.3637	2678.9179	7695.85	6814.65
994.4868	2680.1626	7708.7	6826.35
994.6098	2681.4067	7688.55	6803.75
994.7328	2682.6501	7674.4	6790.85
994.8558	2683.8928	7636.4	6755.25
994.9788	2685.1348	7593.65	6710.35
995.1017	2686.3761	7560.35	6677.25
995.2245	2687.6168	7536.55	6653.3
995.3474	2688.8568	7517.3	6633.05
995.4702	2690.0961	7502	6621.6
995.5929	2691.3348	7480.5	6597.35
995.7156	2692.5727	7450.75	6567.5
995.8383	2693.81	7436.3	6552.4
995.961	2695.0466	7416.95	6535.35
996.0836	2696.2826	7384.9	6500.25
996.2062	2697.5178	7369.25	6487.9
996.3287	2698.7524	7344.35	6461.1
996.4512	2699.9863	7315	6431.15
996.5737	2701.2195	7272.25	6390.75
996.6961	2702.452	7283.4	6398.95
996.8185	2703.6839	7265.1	6381.4
996.9408	2704.9151	7237.55	6355.55
997.0631	2706.1456	7193.8	6311.4
997.1854	2707.3755	7160.55	6276.85
997.3077	2708.6046	7157.8	6273.6
997.4299	2709.8331	7133.9	6250.65
997.552	2711.0609	7113.6	6231.3
997.6742	2712.2881	7090.15	6207.6
997.7963	2713.5145	7078.7	6195.8
997.9183	2714.7403	7066.8	6184.75
998.0403	2715.9654	7038.85	6153.1
998.1623	2717.1899	7029.9	6146.45
998.2842	2718.4136	6998.05	6116.25
998.4062	2719.6367	6988.85	6105.4
998.528	2720.8591	6998.3	6108.15
998.6498	2722.0809	6931.35	6048.15
998.7716	2723.3019	6936	6048.4
998.8934	2724.5223	6917	6032.45
999.0151	2725.7421	6882.05	5996.95
999.1368	2726.9611	6866.5	5982
999.2584	2728.1795	6834.25	5947.4
999.38	2729.3972	6815.95	5934.1
999.5016	2730.6142	6793.3	5905.7
999.6231	2731.8306	6750.55	5866
999.7446	2733.0462	6715.9	5829.65
999.8661	2734.2612	6681.45	5794.45
999.9875	2735.4756	6645.15	5761.5
1000.1089	2736.6892	6615.65	5731.9
1000.2302	2737.9022	6577.9	5696.05
1000.3515	2739.1145	6551.55	5669.5
1000.4728	2740.3262	6514.05	5623.05
1000.594	2741.5372	6486.8	5606.75
1000.7152	2742.7475	6464.4	5580.4
1000.8363	2743.9571	6466.8	5584
1000.9575	2745.1661	6451.5	5564.4
1001.0785	2746.3744	6394.65	5511.15
1001.1996	2747.582	6381.3	5499.4
1001.3206	2748.7889	6333.1	5448.65
1001.4415	2749.9952	6318.75	5437
1001.5625	2751.2008	6300.2	5415.75
1001.6833	2752.4057	6268	5383.15
1001.8042	2753.61	6241.9	5357.5
1001.925	2754.8136	6238.75	5356.6
1002.0458	2756.0165	6227.15	5344.45
1002.1665	2757.2188	6187.45	5304.75
1002.2872	2758.4204	6169	5286.6
1002.4078	2759.6213	6161.25	5276.15
1002.5285	2760.8215	6152	5265.9
1002.649	2762.0211	6116.35	5232.1
1002.7696	2763.22	6086.95	5199.85
1002.8901	2764.4182	6058.2	5173.7
1003.0106	2765.6158	6048.85	5166.95
1003.131	2766.8127	6032.75	5150.3
1003.2514	2768.009	6001.7	5120.95
1003.3717	2769.2045	6004.8	5122.1
1003.492	2770.3994	5978.5	5096.2
1003.6123	2771.5936	5961.4	5079.9
1003.7325	2772.7872	5923.25	5043.85
1003.8527	2773.9801	5891.8	5006.35
1003.9729	2775.1723	5908.85	5008.85
1004.093	2776.3639	5877.35	4996
1004.2131	2777.5548	5852.3	4966.65
1004.3331	2778.745	5829.9	4945.9
1004.4531	2779.9346	5803.5	4922.4
1004.5731	2781.1235	5784.6	4901.3
1004.693	2782.3117	5768	4886.8
1004.8129	2783.4992	5770.8	4888
1004.9328	2784.6861	5747.6	4866.35
1005.0526	2785.8723	5745.75	4862.4
1005.1723	2787.0579	5709.9	4826.5
1005.2921	2788.2428	5701.4	4818.7
1005.4118	2789.427	5681.6	4798.7
1005.5314	2790.6106	5668.4	4786.5
1005.651	2791.7935	5642.85	4760
1005.7706	2792.9757	5634.05	4751.85
1005.8902	2794.1573	5609.55	4726.65
1006.0097	2795.3382	5599.5	4717.5
1006.1291	2796.5184	5578.45	4698.65
1006.2485	2797.698	5584.95	4701.4
1006.3679	2798.8769	5564.7	4683.4
1006.4873	2800.0551	5543.7	4661.7
1006.6066	2801.2327	5539.05	4655.05
1006.7258	2802.4096	5534.95	4653.7
1006.8451	2803.5859	5517.2	4634.85
1006.9642	2804.7615	5522.2	4638.55
1007.0834	2805.9364	5510.15	4631.1
1007.2025	2807.1106	5514.55	4630.7
1007.3216	2808.2842	5501.35	4617.9
1007.4406	2809.4572	5503.05	4623.3
1007.5596	2810.6294	5524	4641.75
1007.6785	2811.801	5503.55	4624.05
1007.7975	2812.972	5532.65	4651.15
1007.9163	2814.1423	5545.2	4663.75
1008.0352	2815.3119	5567.65	4686.3
1008.154	2816.4808	5550.8	4670.2
1008.2727	2817.6491	5563.4	4681.85
1008.3914	2818.8167	5603.7	4723.1
1008.5101	2819.9837	5645.65	4760.75
1008.6288	2821.15	5656.9	4775.15
1008.7474	2822.3157	5686.95	4805.85
1008.8659	2823.4807	5697.8	4815.3
1008.9844	2824.645	5742.6	4858.95
1009.1029	2825.8086	5752.3	4871.25
1009.2214	2826.9716	5782.5	4903.1
1009.3398	2828.134	5817.65	4937.1
1009.4581	2829.2957	5818.3	4936.55
1009.5764	2830.4567	5834.45	4953.9
1009.6947	2831.617	5828.9	4946.05
1009.813	2832.7767	5840.65	4962.6
1009.9312	2833.9358	5825	4943.35
1010.0493	2835.0941	5789.75	4905.65
1010.1675	2836.2519	5791.7	4911.15
1010.2855	2837.4089	5757.95	4876.3
1010.4036	2838.5653	5750.95	4870.4
1010.5216	2839.7211	5722.3	4842.25
1010.6396	2840.8761	5712.95	4829
1010.7575	2842.0306	5711.9	4833.1
1010.8754	2843.1843	5712.6	4831.3
1010.9932	2844.3374	5724.25	4845.5
1011.111	2845.4899	5751.15	4871
1011.2288	2846.6417	5775.5	4894.8
1011.3465	2847.7928	5794.3	4914.55
1011.4642	2848.9433	5827.2	4945.75
1011.5818	2850.0931	5861.5	4982.4
1011.6995	2851.2422	5884.6	5004.55
1011.817	2852.3907	5918.2	5033.7
1011.9345	2853.5385	5970.5	5089.8
1012.052	2854.6857	5969.5	5077.15
1012.1695	2855.8323	5976.45	5096.45
1012.2869	2856.9781	5995.75	5114.05
1012.4042	2858.1233	6039.5	5158.7
1012.5216	2859.2679	6042.15	5161.95
1012.6389	2860.4118	6060.5	5180.15
1012.7561	2861.555	6085.6	5200.75
1012.8733	2862.6976	6099.3	5217.75
1012.9905	2863.8395	6103.85	5222.9
1013.1076	2864.9808	6125.95	5244.5
1013.2247	2866.1214	6109.45	5230.2
1013.3417	2867.2614	6119.6	5240.1
1013.4587	2868.4007	6110.3	5227.8
1013.5757	2869.5393	6093.4	5209.95
1013.6926	2870.6773	6091.15	5208.85
1013.8095	2871.8146	6092.55	5208.2
1013.9263	2872.9513	6058.85	5176.1
1014.0431	2874.0874	6035.35	5154.1
1014.1599	2875.2227	6046.55	5162.8
1014.2766	2876.3574	5995.6	5113.75
1014.3933	2877.4915	5964.45	5086.95
1014.51	2878.6249	5938.75	5057.9
1014.6266	2879.7577	5901.2	5017.8
1014.7431	2880.8898	5878.55	4987.5
1014.8596	2882.0212	5858.2	4979.2
1014.9761	2883.152	5812.95	4931.65
1015.0925	2884.2821	5820.3	4940.95
1015.2089	2885.4116	5778.75	4898.15
1015.3253	2886.5405	5751.25	4869.65
1015.4416	2887.6686	5747.4	4862.7
1015.5579	2888.7962	5744.25	4864.9
1015.6741	2889.923	5720.35	4840.7
1015.7903	2891.0493	5716.2	4836.7
1015.9065	2892.1748	5703.1	4820.25
1016.0226	2893.2997	5698.85	4817.75
1016.1387	2894.424	5704	4822
1016.2547	2895.5476	5706.95	4827.75
1016.3707	2896.6706	5706.05	4825.8
1016.4866	2897.7929	5693.1	4812.2
1016.6025	2898.9145	5700.7	4820.85
1016.7184	2900.0355	5686.75	4804.65
1016.8342	2901.1559	5709.9	4828.35
1016.95	2902.2756	5714.65	4834.4
1017.0658	2903.3946	5726.45	4846.75
1017.1815	2904.513	5731.35	4847.5
1017.2971	2905.6308	5729.8	4849.9
1017.4127	2906.7479	5734.9	4854.2
1017.5283	2907.8643	5739.75	4858.25
1017.6439	2908.9801	5721.35	4838.4
1017.7594	2910.0953	5718.55	4837.4
1017.8748	2911.2098	5708.8	4825.85
1017.9902	2912.3236	5689.35	4800.1
1018.1056	2913.4368	5686.05	4802.85
1018.2209	2914.5494	5647.9	4766.1
1018.3362	2915.6613	5594.05	4707.85
1018.4515	2916.7725	5560.5	4678.65
1018.5667	2917.8831	5534.55	4652.35
1018.6819	2918.9931	5510.4	4626.6
1018.797	2920.1024	5489.85	4608.85
1018.9121	2921.211	5457.35	4576.7
1019.0271	2922.319	5439.15	4558.1
1019.1421	2923.4264	5424.25	4545.6
1019.2571	2924.5331	5403.45	4524.25
1019.372	2925.6391	5371.6	4491.2
1019.4869	2926.7445	5382.9	4501.4
1019.6017	2927.8493	5361.95	4482.35
1019.7165	2928.9534	5352.85	4473.5
1019.8313	2930.0569	5331.9	4449.4
1019.946	2931.1597	5329.15	4445.65
1020.0606	2932.2619	5314.7	4434.65
1020.1753	2933.3634	5321.55	4442.55
1020.2899	2934.4643	5315.1	4428.5
1020.4044	2935.5645	5292.95	4408.3
1020.5189	2936.6641	5264.75	4378.45
1020.6334	2937.763	5222.75	4344.3
1020.7478	2938.8613	5182.3	4300.65
1020.8622	2939.959	5132.85	4247.25
1020.9765	2941.056	5066.95	4186.3
1021.0908	2942.1523	5017.25	4135.55
1021.2051	2943.248	4949.25	4068.05
1021.3193	2944.3431	4874.05	3992.9
1021.4334	2945.4375	4814	3932.45
1021.5476	2946.5313	4733.15	3853.35
1021.6617	2947.6244	4653.4	3772.8
1021.7757	2948.7169	4552	3668.6
1021.8897	2949.8087	4491.1	3611.45
1022.0037	2950.8999	4416.9	3535.75
1022.1176	2951.9904	4353.35	3475.2
1022.2315	2953.0803	4291.85	3410
1022.3453	2954.1696	4226.8	3345.6
1022.4591	2955.2582	4194	3316.45
1022.5728	2956.3462	4150.15	3269.8
1022.6865	2957.4335	4113.5	3231.8
1022.8002	2958.5202	4063.7	3181.55
1022.9138	2959.6062	4033.5	3150.7
1023.0274	2960.6916	4015	3137.5
1023.141	2961.7764	3996.3	3116
1023.2545	2962.8605	3972.05	3091.9
1023.3679	2963.9439	3955.05	3075.35
1023.4813	2965.0267	3935.35	3053.9
1023.5947	2966.1089	3923.65	3022.1
1023.708	2967.1905	3892.75	3012.45
1023.8213	2968.2714	3887.15	3007.75
1023.9346	2969.3516	3855.65	2975.55
1024.0478	2970.4312	3871.5	2982.75
1024.1609	2971.5102	3859.5	2979.1
1024.274	2972.5885	3858.2	2978.9
1024.3871	2973.6662	3838.8	2952.5
1024.5002	2974.7432	3837	2957.25
1024.6132	2975.8196	3816.9	2935.25
1024.7261	2976.8954	3789.6	2910.9
1024.839	2977.9705	3753.65	2873
1024.9519	2979.045	3761.1	2882.25
1025.0647	2980.1188	3723.85	2844.25
1025.1775	2981.192	3726.05	2847.25
1025.2902	2982.2645	3706.1	2823.95
1025.4029	2983.3364	3676.2	2795.35
1025.5156	2984.4077	3645.95	2765.9
1025.6282	2985.4783	3619.65	2733.8
1025.7407	2986.5483	3595.6	2715.35
1025.8532	2987.6177	3556.6	2677.95
1025.9657	2988.6864	3530.85	2650.7
1026.0782	2989.7545	3507.05	2623.6
1026.1906	2990.8219	3459.55	2580.7
1026.3029	2991.8887	3439.45	2556.2
1026.4152	2992.9548	3402.65	2520.3
1026.5275	2994.0204	3378.35	2497.65
1026.6397	2995.0852	3346.8	2468.45
1026.7519	2996.1495	3327.85	2446.7
1026.864	2997.2131	3306.95	2428.4
1026.9761	2998.276	3266	2386.05
1027.0882	2999.3383	3260.5	2381.8
1027.2002	3000.4	3220.6	2340.35
1027.3122	3001.4611	3201.9	2322.5
1027.4241	3002.5215	3175.45	2293.85
1027.536	3003.5812	3173.8	2293.55
1027.6478	3004.6404	3161.2	2280.25
1027.7596	3005.6989	3135.5	2254.65
1027.8714	3006.7567	3125.6	2243.6
1027.9831	3007.8139	3142.45	2232.6
1028.0947	3008.8705	3102.35	2220.55
1028.2064	3009.9264	3090.85	2207.05
1028.3179	3010.9818	3071.7	2191.1
1028.4295	3012.0364	3057	2175.95
1028.541	3013.0905	3040.9	2159.75
1028.6524	3014.1439	3039.8	2159.75
1028.7638	3015.1966	3020.3	2138.95
1028.8752	3016.2487	3009	2129.95
1028.9865	3017.3002	2991.9	2109
1029.0978	3018.3511	2979.7	2099.9
1029.209	3019.4013	2973.35	2093.9
1029.3202	3020.4509	2988	2108.6
1029.4314	3021.4998	2964.4	2083.95
1029.5425	3022.5481	2953.8	2072.35
1029.6535	3023.5958	2948.4	2066.65
1029.7645	3024.6428	2936.95	2056.1
1029.8755	3025.6892	2935	2056.8
1029.9864	3026.735	2918.6	2038.9
1030.0973	3027.7802	2916.4	2036
1030.2082	3028.8247	2907.55	2027.2
1030.319	3029.8685	2892.5	2013.3
1030.4297	3030.9118	2888.75	2008.05
1030.5404	3031.9544	2871.8	1991.3
1030.6511	3032.9963	2876.6	1997.95
1030.7617	3034.0376	2856.9	1976.75
1030.8723	3035.0783	2858.75	1976.1
1030.9829	3036.1184	2861.2	1979.25
1031.0934	3037.1578	2856.75	1976.55
1031.2038	3038.1966	2856.25	1974.75
1031.3142	3039.2348	2841.8	1962.6
1031.4246	3040.2723	2843.4	1955.9
1031.5349	3041.3092	2821.3	1943.9
1031.6452	3042.3455	2809.95	1929.15
1031.7554	3043.3811	2804.3	1924.9
1031.8656	3044.4161	2790	1909.45
1031.9758	3045.4505	2793.8	1915.35
1032.0859	3046.4842	2787.45	1905.75
1032.1959	3047.5173	2772.15	1894
1032.3059	3048.5498	2757.05	1878.3
1032.4159	3049.5816	2756.35	1876.4
1032.5258	3050.6128	2737.7	1854.15
1032.6357	3051.6434	2745.75	1864.4
1032.7455	3052.6734	2736.25	1855.65
1032.8553	3053.7027	2727.55	1847.1
1032.9651	3054.7314	2713	1835.1
1033.0748	3055.7594	2709.8	1829.9
1033.1845	3056.7868	2691.95	1810.9
1033.2941	3057.8136	2675.55	1797.3
1033.4037	3058.8398	2679.15	1800.2
1033.5132	3059.8653	2663.35	1781.55
1033.6227	3060.8902	2655.35	1776.05
1033.7321	3061.9145	2664.35	1784.2
1033.8415	3062.9381	2654.4	1774.7
1033.9509	3063.9612	2645.65	1751.2
1034.0602	3064.9835	2626.75	1746.65
1034.1694	3066.0053	2615.1	1733
1034.2787	3067.0264	2612.8	1733.7
1034.3878	3068.0469	2601.55	1720.5
1034.497	3069.0668	2589.2	1707.35
1034.6061	3070.086	2579.2	1701.1
1034.7151	3071.1046	2567.35	1687.9
1034.8241	3072.1226	2552.95	1672.7
1034.9331	3073.1399	2546.95	1668.75
1035.042	3074.1567	2529.05	1649.85
1035.1508	3075.1727	2522.85	1642.05
1035.2597	3076.1882	2518.7	1638.55
1035.3684	3077.203	2510	1629.95
1035.4772	3078.2173	2506.75	1628.85
1035.5859	3079.2308	2496.2	1612.95
1035.6945	3080.2438	2476.25	1596.6
1035.8031	3081.2561	2462.6	1583.55
1035.9117	3082.2678	2452.85	1574.1
1036.0202	3083.2789	2440.6	1561.9
1036.1286	3084.2893	2432.15	1550
1036.2371	3085.2991	2424.95	1544.75
1036.3454	3086.3083	2414.05	1530.3
1036.4538	3087.3169	2410.45	1530.5
1036.562	3088.3248	2397.8	1515.35
1036.6703	3089.3321	2395.1	1515.55
1036.7785	3090.3388	2385.95	1508.55
1036.8866	3091.3449	2364.55	1483.75
1036.9948	3092.3503	2358.05	1477.5
1037.1028	3093.3551	2359	1480.8
1037.2108	3094.3593	2355.9	1476.15
1037.3188	3095.3629	2335.05	1454.2
1037.4267	3096.3658	2328.2	1449.5
1037.5346	3097.3681	2325.6	1446.35
1037.6425	3098.3698	2321.75	1439.8
1037.7503	3099.3708	2307.1	1421.55
1037.858	3100.3713	2286.2	1407.45
1037.9657	3101.3711	2272.8	1392.15
1038.0734	3102.3702	2397.6	1385.6
1038.181	3103.3688	2287.7	1406.65
1038.2886	3104.3667	2263.05	1383.45
1038.3961	3105.364	2254.2	1375.15
1038.5036	3106.3607	2236.05	1354.85
1038.611	3107.3568	2230.05	1350.05
1038.7184	3108.3522	2222.4	1346.3
1038.8257	3109.347	2226.75	1346
1038.933	3110.3412	2218.05	1333.7
1039.0403	3111.3348	2201.5	1322.05
1039.1475	3112.3277	2202.55	1322.6
1039.2547	3113.32	2187.3	1308.8
1039.3618	3114.3117	2176.3	1297.1
1039.4689	3115.3028	2172.7	1293.85
1039.5759	3116.2932	2161	1280
1039.6829	3117.2831	2150.2	1265.8
1039.7898	3118.2723	2146	1265.75
1039.8967	3119.2608	2145.4	1266.3
1040.0035	3120.2488	2135.2	1253.95
1040.1103	3121.2361	2129.15	1250.4
1040.2171	3122.2229	2118.9	1239.65
1040.3238	3123.209	2112.4	1231.35
1040.4305	3124.1944	2099.75	1221.3
1040.5371	3125.1793	2099.45	1218.25
1040.6437	3126.1635	2096.95	1218.6
1040.7502	3127.1471	2088.15	1209.25
1040.8567	3128.1301	2078.6	1200.75
1040.9631	3129.1125	2069.9	1190.65
1041.0695	3130.0942	2070.55	1191.85
1041.1759	3131.0753	2078	1188.3
1041.2822	3132.0558	2061.05	1177.6
1041.3884	3133.0357	2048.7	1168.8
1041.4946	3134.015	2045.9	1165.85
1041.6008	3134.9936	2050	1168.85
1041.7069	3135.9716	2054	1154.6
1041.813	3136.949	2024.05	1144.55
1041.919	3137.9258	2032.9	1149.9
1042.025	3138.902	2029.55	1144.7
1042.1309	3139.8775	2013.7	1133.6
1042.2368	3140.8524	2005.7	1127.1
1042.3427	3141.8267	2016.55	1135.45
1042.4485	3142.8004	1999.35	1120.5
1042.5542	3143.7735	2010.9	1125.2
1042.6599	3144.7459	2002.15	1122.85
1042.7656	3145.7178	1996.8	1115.25
1042.8712	3146.689	1985.6	1107.55
1042.9768	3147.6596	1977.4	1098.2
1043.0823	3148.6295	1975.75	1096.25
1043.1878	3149.5989	1971.45	1093.5
1043.2932	3150.5676	1960.95	1081.45
1043.3986	3151.5357	1959.85	1081
1043.5039	3152.5032	1946.4	1068
1043.6092	3153.4701	1935.9	1058.05
1043.7145	3154.4364	1931.65	1048.4
1043.8197	3155.402	1924.5	1047.6
1043.9248	3156.367	1930.3	1049.45
1044.03	3157.3315	1949.35	1031.2
1044.135	3158.2952	1905.85	1026.7
1044.24	3159.2584	1907	1025.35
1044.345	3160.221	1903.4	1023.15
1044.4499	3161.1829	1885.6	1007.35
1044.5548	3162.1442	1887.75	1007.5
1044.6596	3163.105	1880.25	1001.55
1044.7644	3164.065	1870.75	987.9
1044.8692	3165.0245	1870.65	990.4
1044.9739	3165.9834	1866.1	989.3
1045.0785	3166.9416	1861.15	982
1045.1831	3167.8993	1839.9	960.45
1045.2877	3168.8563	1843.95	963.15
1045.3922	3169.8127	1830.9	953.05
1045.4966	3170.7684	1838.1	958.85
1045.6011	3171.7236	1825.15	945.9
1045.7054	3172.6782	1831.15	954
1045.8098	3173.6321	1823.9	943.25
1045.914	3174.5854	1813.65	929.35
1046.0183	3175.5381	1813.4	935.35
1046.1224	3176.4902	1812.55	931.65
1046.2266	3177.4417	1800.05	922.1
1046.3307	3178.3926	1793.65	914.8
1046.4347	3179.3428	1788.7	910.35
1046.5387	3180.2924	1786.4	908.7
1046.6427	3181.2415	1787.4	907.6
1046.7466	3182.1899	1775.8	895.6
1046.8504	3183.1377	1774.25	895.95
1046.9542	3184.0848	1766.25	885.55
1047.058	3185.0314	1754	876.6
1047.1617	3185.9773	1753.45	874.55
1047.2654	3186.9227	1748.45	868.25
1047.369	3187.8674	1746.15	864.95
1047.4726	3188.8115	1743.1	860
1047.5761	3189.755	1736.7	858.1
1047.6796	3190.6979	1741.25	861.15
1047.783	3191.6402	1730.9	853.75
1047.8864	3192.5818	1724.4	845.35
1047.9898	3193.5229	1739.55	843.7
1048.0931	3194.4633	1720.95	842.35
1048.1963	3195.4031	1722.6	840.9
1048.2995	3196.3423	1709.15	832.2
1048.4027	3197.2809	1701.85	822.05
1048.5058	3198.2189	1704.1	823.65
1048.6089	3199.1563	1714.1	818.25
1048.7119	3200.0931	1690.1	811.85
1048.8148	3201.0292	1681.8	804.15
1048.9178	3201.9648	1681.8	801.9
1049.0206	3202.8997	1673.55	791.75
1049.1235	3203.834	1671.55	792.25
1049.2262	3204.7677	1667.4	788.1
1049.329	3205.7008	1661.5	779.9
1049.4317	3206.6333	1659.5	780.75
1049.5343	3207.5652	1667.7	786.2
1049.6369	3208.4964	1656.45	778.4
1049.7394	3209.4271	1646	768.2
1049.8419	3210.3571	1645.65	766.45
1049.9444	3211.2865	1647.1	767.75
1050.0468	3212.2154	1644.55	763.25
1050.1491	3213.1436	1635.2	754.1
1050.2514	3214.0712	1640.25	754.1
1050.3537	3214.9982	1636.1	756.25
1050.4559	3215.9246	1622	742.55
1050.5581	3216.8503	1614.2	735.8
1050.6602	3217.7755	1611.2	732.35
1050.7623	3218.7001	1608.15	728.8
1050.8643	3219.624	1605.85	725.15
1050.9663	3220.5473	1607.9	727.8
1051.0682	3221.4701	1601.1	721.65
1051.1701	3222.3922	1606.1	725.9
1051.2719	3223.3137	1591.05	711.6
1051.3737	3224.2346	1593.05	713.5
1051.4754	3225.1549	1592.05	715.15
1051.5771	3226.0746	1581.6	702.15
1051.6788	3226.9937	1575.75	695.95
1051.7804	3227.9121	1564.5	687.45
1051.8819	3228.83	1568.85	689.2
1051.9834	3229.7473	1567.1	685.95
1052.0849	3230.6639	1556.3	675.7
1052.1863	3231.5799	1557.85	678.65
1052.2876	3232.4954	1560.9	680.85
1052.3889	3233.4102	1550.6	672.1
1052.4902	3234.3244	1540.65	661.2
1052.5914	3235.238	1549.1	670.05
1052.6926	3236.151	1557.5	654.6
1052.7937	3237.0634	1533.2	656.1
1052.8948	3237.9752	1536.4	657.05
1052.9958	3238.8864	1519.7	640.85
1053.0968	3239.797	1519.9	641.3
1053.1977	3240.7069	1519.85	640.65
1053.2986	3241.6163	1506.45	625.95
1053.3994	3242.5251	1515.35	636.15
1053.5002	3243.4332	1504.6	628.05
1053.6009	3244.3408	1508.85	629.7
1053.7016	3245.2477	1501.55	622.1
1053.8022	3246.154	1499.25	622.55
1053.9028	3247.0598	1491.2	609.05
1054.0034	3247.9649	1486.65	609.45
1054.1039	3248.8694	1483.3	603.7
1054.2043	3249.7733	1478.8	600.45
1054.3047	3250.6766	1477.9	598.35
1054.4051	3251.5793	1478	597.7
1054.5054	3252.4814	1474.85	597.35
1054.6056	3253.3829	1463.2	584.95
1054.7058	3254.2838	1458.05	577.9
1054.806	3255.1841	1451.35	574.7
1054.9061	3256.0838	1453.55	575.25
1055.0061	3256.9829	1443.15	566.1
1055.1062	3257.8814	1449.8	569.2
1055.2061	3258.7792	1440.75	558.8
1055.306	3259.6765	1436.25	558.15
1055.4059	3260.5731	1429.6	549.5
1055.5057	3261.4692	1418.85	541.45
1055.6055	3262.3647	1416.2	536.3
1055.7052	3263.2595	1409.15	530.95
1055.8049	3264.1538	1404.25	525.1
1055.9045	3265.0474	1393	512.65
1056.0041	3265.9404	1380.65	501.25
1056.1036	3266.8329	1375.3	497.85
1056.2031	3267.7247	1384.9	495.85
1056.3025	3268.616	1354.6	477.6
1056.4019	3269.5066	1344.8	467.15
1056.5013	3270.3966	1331.2	450.3
1056.6005	3271.286	1316.1	437.4
