Software Version:	3.9.2.0
Unit SN:	10000200
Spectrometer SN:	6960
Date:	3/6/2024 10:37:56 AM
Data Line Index:	25
Spectral Points:	2048
Integration time (ms):	125
Averages:	20
Delay (ms):	30
Sequence Number:	1
Processing:	dark subtract
Laser Power (mW):	305
Laser Current (mA):	823
Laser Diode Temp (C):	25.1
Laser Case Temp (C):	26.7
System Temp (C):	26.5
Spectrometer Temp (C):	23.9
CCD Temp (C):	-0.003
Secondary Temp (C):	20
Heatsink Temp (C):	22.233
CCDPCB Temp (C):	36.34
SecondaryPCB Temp (C):	31.927

Wavelength	RamanShift	Raw Counts	Dark Subtracted
787.061	30.1047	1145.75	735.9
787.2016	32.3739	1189.55	780
787.3422	34.6426	1230.2	818.1
787.4828	36.9109	1276.2	861.6
787.6235	39.1787	1339.8	922.75
787.7642	41.4461	1397.25	976
787.9049	43.7131	1464.4	1038.75
788.0456	45.9796	1529.75	1101.55
788.1863	48.2456	1600.6	1168.35
788.3271	50.5112	1675.85	1239.1
788.4679	52.7764	1746.9	1307.75
788.6087	55.0411	1834.6	1389.65
788.7496	57.3054	1920.35	1470.55
788.8904	59.5692	2013.85	1561
789.0313	61.8326	2110.65	1653.9
789.1722	64.0955	2222.1	1765.3
789.3132	66.3579	2354.7	1891.7
789.4541	68.6199	2499.35	2033.3
789.5951	70.8815	2773.65	2304.65
789.7361	73.1426	3311.25	2836.65
789.8771	75.4032	4669	4189.65
790.0181	77.6634	8186	7702.25
790.1592	79.9231	17584.1	17095.8
790.3003	82.1824	57339.35	56838.75
790.4414	84.4412	65535	65012.8
790.5825	86.6995	65535	64984.95
790.7237	88.9574	65535	64956.1
790.8648	91.2148	65535	64939.55
791.006	93.4717	65535	64928.8
791.1472	95.7282	65535	64922.4
791.2885	97.9842	65535	64920.6
791.4297	100.2398	65535	64914.15
791.571	102.4949	65535	64911.65
791.7123	104.7495	65535	64908.7
791.8536	107.0036	65535	64905.6
791.9949	109.2573	65535	64909.7
792.1363	111.5105	65535	64906.9
792.2777	113.7632	65535	64906.5
792.4191	116.0154	65535	64896.45
792.5605	118.2672	65535	64898.75
792.7019	120.5185	65535	64898
792.8434	122.7693	65535	64893.45
792.9849	125.0197	65535	64888.45
793.1264	127.2696	65535	64887.25
793.2679	129.519	65535	64887.1
793.4094	131.7679	65535	64880.8
793.551	134.0163	65535	64879.6
793.6926	136.2642	65535	64874.75
793.8342	138.5117	65535	64867.3
793.9758	140.7587	65535	64872.3
794.1175	143.0052	65535	64868.8
794.2591	145.2512	65535	64875.7
794.4008	147.4967	65535	64867.55
794.5425	149.7417	65535	64865.2
794.6842	151.9863	65535	64860.95
794.826	154.2304	65535	64857.7
794.9677	156.4739	65535	64853.75
795.1095	158.717	65535	64852.5
795.2513	160.9596	65535	64845.65
795.3931	163.2017	65535	64846.95
795.535	165.4433	65535	64846
795.6768	167.6844	65535	64841.6
795.8187	169.925	65535	64841.85
795.9606	172.1651	65535	64835.65
796.1025	174.4047	65535	64832.65
796.2445	176.6439	65535	64828.8
796.3864	178.8825	65535	64825.8
796.5284	181.1206	65535	64826.85
796.6704	183.3582	65535	64823.1
796.8124	185.5954	65535	64820
796.9544	187.832	65535	64816.65
797.0965	190.0681	65535	64812.3
797.2386	192.3037	65535	64813.1
797.3806	194.5388	65535	64807.25
797.5228	196.7734	65535	64808
797.6649	199.0075	65535	64803.6
797.807	201.2411	65535	64801.15
797.9492	203.4742	65535	64801.9
798.0914	205.7068	65535	64799.2
798.2336	207.9389	65535	64793.45
798.3758	210.1704	65535	64793.25
798.518	212.4015	65535	64799.05
798.6603	214.632	65535	64805.2
798.8025	216.862	65535	64818.7
798.9448	219.0915	65535	64817.45
799.0871	221.3205	65535	64809.4
799.2294	223.549	65535	64819.45
799.3718	225.777	65535	64818.2
799.5141	228.0044	65535	64814.05
799.6565	230.2314	65535	64810.25
799.7989	232.4578	65535	64808.05
799.9413	234.6837	65535	64799.95
800.0837	236.909	65535	64795.35
800.2262	239.1339	65535	64775.2
800.3687	241.3582	65535	64787.05
800.5111	243.582	65535	64757.55
800.6536	245.8053	65535	64771.65
800.7961	248.0281	65535	64775.45
800.9387	250.2503	65535	64773.9
801.0812	252.472	65535	64767.8
801.2238	254.6932	65535	64768.45
801.3664	256.9139	65535	64770.1
801.509	259.134	65535	64761.8
801.6516	261.3536	65535	64762.8
801.7942	263.5727	65535	64763.25
801.9369	265.7912	65535	64763.35
802.0795	268.0092	65535	64762.45
802.2222	270.2267	65535	64759.1
802.3649	272.4436	65535	64762.25
802.5076	274.6601	65535	64752.6
802.6504	276.8759	65535	64754.55
802.7931	279.0913	65535	64754.25
802.9359	281.3061	65535	64752.95
803.0787	283.5204	65535	64752.4
803.2215	285.7341	65535	64749.85
803.3643	287.9473	65535	64735.55
803.5071	290.16	65535	64741.2
803.6499	292.3721	65535	64749.45
803.7928	294.5837	65535	64751.15
803.9357	296.7947	65535	64746.7
804.0786	299.0052	65535	64746.1
804.2215	301.2152	65535	64745.5
804.3644	303.4246	65535	64749.65
804.5074	305.6334	65535	64745.75
804.6503	307.8418	65535	64743.9
804.7933	310.0495	65535	64739.3
804.9363	312.2568	65535	64741.55
805.0793	314.4635	65535	64736.95
805.2223	316.6696	65535	64740.45
805.3653	318.8752	65535	64729.5
805.5084	321.0802	65535	64739.85
805.6514	323.2847	65535	64737.4
805.7945	325.4887	65535	64737.9
805.9376	327.692	65535	64738
806.0807	329.8949	65535	64731.4
806.2238	332.0972	65535	64729.5
806.367	334.2989	65535	64731.1
806.5101	336.5001	65535	64728.9
806.6533	338.7007	65535	64727.85
806.7965	340.9008	65535	64727.3
806.9397	343.1003	65535	64724.45
807.0829	345.2992	65535	64726.3
807.2261	347.4976	65535	64722.55
807.3693	349.6955	65535	64720
807.5126	351.8927	65535	64718.85
807.6559	354.0895	65535	64706.95
807.7991	356.2856	65535	64716.6
807.9424	358.4812	65535	64717.6
808.0857	360.6763	65535	64716.6
808.2291	362.8707	65535	64717.5
808.3724	365.0646	65535	64710.9
808.5158	367.258	65535	64708.2
808.6591	369.4508	65535	64706.1
808.8025	371.643	65535	64702.75
808.9459	373.8346	65535	64704.35
809.0893	376.0257	65535	64703.9
809.2327	378.2162	65535	64699.7
809.3762	380.4062	65535	64698.6
809.5196	382.5956	65535	64700.65
809.6631	384.7844	65535	64700.1
809.8066	386.9726	65535	64704.8
809.9501	389.1603	65535	64704.4
810.0936	391.3474	65535	64667.75
810.2371	393.5339	65535	64704.3
810.3806	395.7199	65535	64711.4
810.5241	397.9052	65535	64711.1
810.6677	400.09	65535	64710.35
810.8113	402.2743	65535	64707.45
810.9548	404.4579	65535	64710.9
811.0984	406.641	65535	64710.05
811.2421	408.8235	65535	64710.55
811.3857	411.0054	65535	64705
811.5293	413.1868	65535	64701.15
811.673	415.3675	65535	64698.55
811.8166	417.5477	65535	64700.05
811.9603	419.7273	65535	64697.2
812.104	421.9064	65535	64686.45
812.2477	424.0848	65535	64693.2
812.3914	426.2627	65535	64689.65
812.5351	428.4399	65535	64689.85
812.6788	430.6166	65535	64686.3
812.8226	432.7928	65535	64684.5
812.9663	434.9683	65535	64690.45
813.1101	437.1432	65535	64683.6
813.2539	439.3176	65535	64688.2
813.3977	441.4914	65535	64688
813.5415	443.6645	65535	64685.25
813.6853	445.8371	65535	64685.6
813.8291	448.0091	65535	64683.85
813.973	450.1806	65535	64683.5
814.1168	452.3514	65535	64686.25
814.2607	454.5216	65535	64675.95
814.4046	456.6913	65535	64680.1
814.5485	458.8603	65535	64683.9
814.6924	461.0288	65535	64681.8
814.8363	463.1967	65535	64682.4
814.9802	465.3639	65535	64681.1
815.1241	467.5306	65535	64680.85
815.2681	469.6967	65535	64682.35
815.412	471.8622	65535	64683.95
815.556	474.0271	65535	64682.5
815.7	476.1914	65535	64676.55
815.844	478.3551	65535	64681.25
815.988	480.5182	65535	64678.65
816.132	482.6807	65535	64678.45
816.276	484.8426	65535	64680.4
816.4201	487.0039	65535	64680.15
816.5641	489.1647	65535	64676.95
816.7082	491.3248	65535	64677.8
816.8522	493.4843	65535	64682.15
816.9963	495.6432	65535	64680
817.1404	497.8015	65535	64671.05
817.2845	499.9592	65535	64676.7
817.4286	502.1163	65535	64670.9
817.5727	504.2728	65535	64672.75
817.7168	506.4287	65535	64674.7
817.861	508.5839	65535	64676.4
818.0051	510.7386	65535	64675.25
818.1493	512.8927	65535	64671.7
818.2935	515.0461	65535	64668.9
818.4377	517.199	65535	64672.6
818.5818	519.3512	65535	64673.75
818.726	521.5029	65535	64665.4
818.8703	523.6539	65535	64664.9
819.0145	525.8043	65535	64666.35
819.1587	527.9541	65535	64665.2
819.303	530.1033	65535	64663.95
819.4472	532.2519	65535	64665.65
819.5915	534.3999	65535	64666.1
819.7357	536.5472	65535	64664.65
819.88	538.694	65535	64669.35
820.0243	540.8401	65535	64663.85
820.1686	542.9856	65535	64657.4
820.3129	545.1305	65535	64661.15
820.4572	547.2748	65535	64662.3
820.6016	549.4185	65535	64661.2
820.7459	551.5615	65535	64661.25
820.8902	553.704	65535	64658.25
821.0346	555.8458	65535	64659.75
821.1789	557.987	65535	64662.05
821.3233	560.1276	65535	64661.15
821.4677	562.2675	65535	64663.5
821.6121	564.4069	65535	64659.85
821.7565	566.5456	65535	64665.2
821.9009	568.6837	65535	64662.15
822.0453	570.8212	65535	64661.45
822.1897	572.958	65535	64662.15
822.3342	575.0942	65535	64659.45
822.4786	577.2299	65535	64661.8
822.6231	579.3648	65535	64662.1
822.7675	581.4992	65535	64664.8
822.912	583.6329	65535	64663.55
823.0565	585.766	65535	64663.1
823.201	587.8985	65535	64664.55
823.3454	590.0304	65535	64635.7
823.4899	592.1616	65535	64657.9
823.6345	594.2922	65535	64661.85
823.779	596.4222	65535	64658.6
823.9235	598.5515	65535	64656.1
824.068	600.6802	65535	64655.3
824.2126	602.8083	65535	64654.4
824.3571	604.9358	65535	64657.1
824.5017	607.0626	65535	64654.2
824.6462	609.1888	65535	64652.65
824.7908	611.3144	65535	64653.55
824.9354	613.4393	65535	64654.3
825.08	615.5636	65535	64653.8
825.2246	617.6873	65535	64654.3
825.3692	619.8103	65535	64652.4
825.5138	621.9327	65535	64649.75
825.6584	624.0544	65535	64653.9
825.803	626.1756	65535	64652.45
825.9477	628.2961	65535	64651.8
826.0923	630.4159	65535	64650.7
826.237	632.5351	65535	64651.2
826.3816	634.6537	65535	64651.35
826.5263	636.7716	65535	64649.45
826.6709	638.8889	65535	64651.4
826.8156	641.0056	65535	64647.35
826.9603	643.1216	65535	64648.95
827.105	645.237	65535	64649.95
827.2497	647.3518	65535	64649.15
827.3944	649.4659	65535	64650.75
827.5391	651.5793	65535	64650.75
827.6838	653.6922	65535	64650.6
827.8285	655.8043	65535	64649.1
827.9733	657.9159	65535	64646.85
828.118	660.0268	65535	64650.5
828.2627	662.137	65535	64646.8
828.4075	664.2466	65535	64645.7
828.5522	666.3556	65535	64648.45
828.697	668.4639	65535	64645.45
828.8418	670.5716	65535	64649.95
828.9865	672.6786	65535	64642.95
829.1313	674.785	65535	64643.2
829.2761	676.8907	65535	64645.6
829.4209	678.9958	65535	64647.1
829.5657	681.1002	65535	64643.65
829.7105	683.204	65535	64642.3
829.8553	685.3072	65535	64639.5
830.0001	687.4097	65535	64641.4
830.1449	689.5115	65535	64640.95
830.2898	691.6127	65535	64645.1
830.4346	693.7132	65535	64642.8
830.5794	695.8131	65535	64635.15
830.7243	697.9123	65535	64640.6
830.8691	700.0109	65535	64643
831.014	702.1089	65535	64642.9
831.1588	704.2061	65535	64643.35
831.3037	706.3028	65535	64640.95
831.4486	708.3987	65535	64640.95
831.5935	710.4941	65535	64647.5
831.7383	712.5887	65535	64641.8
831.8832	714.6827	65535	64637.6
832.0281	716.7761	65535	64644.55
832.173	718.8688	65535	64640.05
832.3179	720.9608	65535	64636.3
832.4628	723.0522	65535	64634.2
832.6077	725.1429	65535	64639.65
832.7527	727.233	65535	64640.3
832.8976	729.3224	65535	64638.8
833.0425	731.4112	65535	64637.85
833.1874	733.4993	65535	64635.4
833.3324	735.5867	65535	64637.75
833.4773	737.6735	65535	64638.7
833.6222	739.7596	65535	64637.8
833.7672	741.845	65535	64637.3
833.9122	743.9298	65535	64636.3
834.0571	746.014	65535	64637.1
834.2021	748.0974	65535	64639.4
834.347	750.1802	65535	64637.5
834.492	752.2624	65535	64637.25
834.637	754.3439	65535	64636.3
834.782	756.4247	65535	64624.75
834.9269	758.5048	65535	64635.65
835.0719	760.5843	65535	64634.35
835.2169	762.6631	65535	64636.75
835.3619	764.7413	65535	64635.9
835.5069	766.8188	65535	64633.45
835.6519	768.8956	65535	64634.25
835.7969	770.9718	65535	64637.65
835.9419	773.0473	65535	64639.05
836.0869	775.1221	65535	64637.4
836.232	777.1962	65535	64635.65
836.377	779.2697	65535	64635.75
836.522	781.3426	65535	64613.95
836.667	783.4147	65535	64631
836.8121	785.4862	65535	64638.3
836.9571	787.557	65535	64635.25
837.1021	789.6271	65535	64634.4
837.2472	791.6966	65535	64633.05
837.3922	793.7654	65535	64635.4
837.5373	795.8335	65535	64635.45
837.6823	797.901	65535	64635.55
837.8274	799.9678	65535	64632.1
837.9724	802.0339	65535	64637.05
838.1175	804.0993	65535	64622.4
838.2626	806.1641	65535	64632.8
838.4076	808.2282	65535	64633.95
838.5527	810.2916	65535	64631.6
838.6978	812.3544	65535	64636.75
838.8428	814.4164	65535	64637.8
838.9879	816.4778	65535	64633.3
839.133	818.5385	65535	64631.35
839.2781	820.5986	65535	64632.9
839.4232	822.658	65535	64630.9
839.5682	824.7166	65535	64631.9
839.7133	826.7747	65535	64635
839.8584	828.832	65535	64633.05
840.0035	830.8886	65535	64631.6
840.1486	832.9446	65535	64629.85
840.2937	834.9999	65535	64635.85
840.4388	837.0545	65535	64628.75
840.5839	839.1085	65535	64636.75
840.729	841.1618	65535	64629.55
840.8741	843.2143	65535	64632
841.0192	845.2662	65535	64629.9
841.1643	847.3175	65535	64632.05
841.3095	849.368	65535	64633.25
841.4546	851.4179	65535	64631.6
841.5997	853.467	65535	64633.4
841.7448	855.5155	65535	64632.35
841.8899	857.5633	65535	64637.2
842.0351	859.6105	65535	64634.7
842.1802	861.6569	65535	64631.45
842.3253	863.7027	65535	64631.95
842.4704	865.7478	65535	64629.55
842.6156	867.7922	65535	64632.6
842.7607	869.8359	65535	64631.25
842.9058	871.8789	65535	64634
843.0509	873.9212	65535	64598.8
843.1961	875.9629	65535	64631.6
843.3412	878.0039	65535	64627.75
843.4863	880.0441	65535	64632.4
843.6315	882.0837	65535	64630.2
843.7766	884.1226	65535	64630.45
843.9218	886.1609	65535	64632.85
844.0669	888.1984	65535	64632.9
844.212	890.2352	65535	64631.8
844.3572	892.2714	65535	64626.85
844.5023	894.3069	65535	64628.55
844.6475	896.3416	65535	64627
844.7926	898.3757	65535	64631.1
844.9377	900.4091	65535	64631.25
845.0829	902.4418	65535	64624.55
845.228	904.4739	65535	64627.7
845.3732	906.5052	65535	64631.3
845.5183	908.5358	65535	64631.2
845.6635	910.5658	65535	64629.65
845.8086	912.595	65535	64629.45
845.9538	914.6236	65535	64630.05
846.0989	916.6515	65535	64629.6
846.2441	918.6786	65535	64628.95
846.3892	920.7051	65535	64630.4
846.5344	922.7309	65535	64631.45
846.6795	924.756	65535	64630.7
846.8246	926.7804	65535	64628.65
846.9698	928.8041	65535	64627.65
847.1149	930.8272	65535	64631.7
847.2601	932.8495	65535	64627.75
847.4052	934.8711	65535	64629.15
847.5504	936.892	65535	64630.7
847.6955	938.9123	65535	64626.15
847.8407	940.9318	65535	64630.3
847.9858	942.9506	65535	64628.95
848.131	944.9688	65535	64629.05
848.2761	946.9862	65535	64626.95
848.4213	949.003	65535	64627.5
848.5664	951.019	65535	64627.05
848.7115	953.0344	65535	64627.4
848.8567	955.0491	65535	64629.3
849.0018	957.063	65535	64627.05
849.147	959.0763	65535	64629.45
849.2921	961.0888	65535	64628.85
849.4373	963.1007	65535	64628.9
849.5824	965.1119	65535	64629.35
849.7275	967.1223	65535	64630.1
849.8727	969.1321	65535	64632.35
850.0178	971.1412	65535	64628.9
850.1629	973.1495	65535	64629.1
850.3081	975.1572	65535	64578.65
850.4532	977.1641	65535	64629.05
850.5983	979.1704	65535	64626.6
850.7435	981.1759	65535	64625.7
850.8886	983.1808	65535	64624.9
851.0337	985.1849	65535	64617.9
851.1788	987.1884	65535	64627
851.324	989.1911	65535	64627.3
851.4691	991.1932	65535	64630.6
851.6142	993.1945	65535	64627
851.7593	995.1951	65535	64627.5
851.9045	997.1951	65535	64622.7
852.0496	999.1943	65535	64628.4
852.1947	1001.1928	65535	64630.6
852.3398	1003.1906	65535	64628.75
852.4849	1005.1877	65535	64626.5
852.63	1007.1841	65535	64629.8
852.7751	1009.1798	65535	64629.7
852.9202	1011.1748	65535	64628.15
853.0653	1013.1691	65535	64626.95
853.2104	1015.1627	65535	64626.75
853.3555	1017.1556	65535	64628.5
853.5006	1019.1477	65535	64627.4
853.6457	1021.1392	65535	64631.05
853.7908	1023.1299	65535	64631.2
853.9359	1025.12	65535	64630.6
854.081	1027.1093	65535	64635.55
854.2261	1029.0979	65535	64632.85
854.3712	1031.0859	65535	64633
854.5163	1033.0731	65535	64628.85
854.6613	1035.0596	65535	64629.3
854.8064	1037.0454	65535	64629.6
854.9515	1039.0304	65535	64629.1
855.0965	1041.0148	65535	64631.75
855.2416	1042.9985	65535	64627.4
855.3867	1044.9814	65535	64629.25
855.5317	1046.9636	65535	64626.8
855.6768	1048.9452	65535	64631.9
855.8219	1050.926	65535	64630.15
855.9669	1052.9061	65535	64630.5
856.112	1054.8855	65535	64630.45
856.257	1056.8642	65535	64629.2
856.4021	1058.8421	65535	64625.15
856.5471	1060.8194	65535	64628.3
856.6921	1062.7959	65535	64627.95
856.8372	1064.7717	65535	64626.65
856.9822	1066.7469	65535	64627.65
857.1272	1068.7213	65535	64627.9
857.2723	1070.695	65535	64629
857.4173	1072.6679	65535	64626.85
857.5623	1074.6402	65535	64629.05
857.7073	1076.6117	65535	64622.95
857.8523	1078.5826	65535	64628.15
857.9973	1080.5527	65535	64626.75
858.1423	1082.5221	65535	64629.5
858.2873	1084.4908	65535	64626.6
858.4323	1086.4587	65535	64628.75
858.5773	1088.426	65535	64628.6
858.7223	1090.3925	65535	64623.35
858.8673	1092.3584	65535	64631.75
859.0123	1094.3235	65535	64630.2
859.1573	1096.2879	65535	64627.65
859.3022	1098.2515	65535	64629.7
859.4472	1100.2145	65535	64631.4
859.5922	1102.1767	65535	64624.2
859.7371	1104.1382	65535	64630.25
859.8821	1106.099	65535	64624.9
860.027	1108.0591	65535	64630.05
860.172	1110.0185	65535	64627.25
860.3169	1111.9771	65535	64630.85
860.4619	1113.9351	65535	64627.9
860.6068	1115.8923	65535	64629
860.7517	1117.8488	65535	64625.8
860.8967	1119.8045	65535	64628.1
861.0416	1121.7596	65535	64629.85
861.1865	1123.7139	65535	64631.35
861.3314	1125.6675	65535	64630.5
861.4763	1127.6204	65535	64629.6
861.6212	1129.5726	65535	64627.45
861.7661	1131.524	65535	64631.05
861.911	1133.4748	65535	64629.45
862.0559	1135.4248	65535	64627.3
862.2008	1137.3741	65535	64630.3
862.3457	1139.3226	65535	64627.2
862.4905	1141.2705	65535	64630.4
862.6354	1143.2176	65535	64621.4
862.7803	1145.164	65535	64627.7
862.9251	1147.1097	65535	64631.5
863.07	1149.0546	65535	64627.4
863.2148	1150.9989	65535	64629
863.3597	1152.9424	65535	64627.9
863.5045	1154.8852	65535	64629.25
863.6493	1156.8272	65535	64630.15
863.7942	1158.7686	65535	64622.85
863.939	1160.7092	65535	64625.45
864.0838	1162.6491	65535	64627.25
864.2286	1164.5883	65535	64629.65
864.3734	1166.5267	65535	64626.9
864.5182	1168.4644	65535	64627.3
864.663	1170.4014	65535	64627.2
864.8078	1172.3377	65535	64631.25
864.9526	1174.2732	65535	64631.05
865.0974	1176.2081	65535	64630.55
865.2421	1178.1421	65535	64625.7
865.3869	1180.0755	65535	64630.1
865.5317	1182.0082	65535	64631.35
865.6764	1183.9401	65535	64629.3
865.8212	1185.8713	65535	64632.25
865.9659	1187.8017	65535	64631.7
866.1106	1189.7315	65535	64633.55
866.2554	1191.6605	65535	64605.15
866.4001	1193.5888	65535	64631.7
866.5448	1195.5163	65535	64632.6
866.6895	1197.4432	65535	64630.35
866.8342	1199.3693	65535	64630.9
866.9789	1201.2947	65535	64626.75
867.1236	1203.2193	65535	64631.35
867.2683	1205.1432	65535	64630.4
867.413	1207.0664	65535	64629.5
867.5576	1208.9889	65535	64624.55
867.7023	1210.9106	65535	64630.9
867.847	1212.8316	65535	64633
867.9916	1214.7519	65535	64621.05
868.1363	1216.6715	65535	64629.1
868.2809	1218.5903	65535	64630.55
868.4255	1220.5084	65535	64631
868.5701	1222.4257	65535	64630.95
868.7148	1224.3424	65535	64632.9
868.8594	1226.2583	65535	64625.05
869.004	1228.1735	65535	64629.3
869.1486	1230.0879	65535	64630
869.2932	1232.0016	65535	64631.3
869.4377	1233.9146	65535	64629.4
869.5823	1235.8269	65535	64630.85
869.7269	1237.7384	65535	64629.5
869.8715	1239.6492	65535	64631.1
870.016	1241.5592	65535	64630.3
870.1606	1243.4686	65535	64631.05
870.3051	1245.3772	65535	64630.75
870.4496	1247.285	65535	64628.75
870.5941	1249.1922	65535	64631.7
870.7387	1251.0986	65535	64632.9
870.8832	1253.0042	65535	64630.25
871.0277	1254.9092	65535	64631.45
871.1722	1256.8134	65535	64629.75
871.3167	1258.7169	65535	64630.85
871.4611	1260.6196	65535	64631.3
871.6056	1262.5216	65535	64628.4
871.7501	1264.4229	65535	64632.9
871.8945	1266.3234	65535	64630.5
872.039	1268.2232	65535	64629.25
872.1834	1270.1223	65535	64630.35
872.3278	1272.0207	65535	64630.3
872.4723	1273.9183	65535	64623.9
872.6167	1275.8151	65535	64628.45
872.7611	1277.7113	65535	64630.4
872.9055	1279.6067	65535	64632.6
873.0499	1281.5014	65535	64630.05
873.1943	1283.3953	65535	64630
873.3386	1285.2885	65535	64632.3
873.483	1287.181	65535	64630.4
873.6274	1289.0727	65535	64630.5
873.7717	1290.9637	65535	64631.9
873.9161	1292.854	65535	64630.05
874.0604	1294.7435	65535	64630.65
874.2047	1296.6323	65535	64632.25
874.349	1298.5204	65535	64625.2
874.4933	1300.4077	65535	64629.25
874.6376	1302.2943	65535	64632.55
874.7819	1304.1802	65535	64632.5
874.9262	1306.0653	65535	64628.6
875.0705	1307.9497	65535	64631.15
875.2147	1309.8333	65535	64631.7
875.359	1311.7162	65535	64633.55
875.5032	1313.5984	65535	64629.2
875.6475	1315.4798	65535	64613.4
875.7917	1317.3605	65535	64616.05
875.9359	1319.2405	65535	64629.25
876.0801	1321.1197	65535	64627.35
876.2243	1322.9982	65535	64625.55
876.3685	1324.876	65535	64631.3
876.5127	1326.753	65535	64632.45
876.6569	1328.6293	65535	64630.05
876.801	1330.5048	65535	64628.9
876.9452	1332.3796	65535	64630.75
877.0893	1334.2537	65535	64604.3
877.2335	1336.127	65535	64631.55
877.3776	1337.9996	65535	64630.8
877.5217	1339.8714	65535	64631.2
877.6658	1341.7426	65535	64588.7
877.8099	1343.6129	65535	64629.7
877.954	1345.4826	65535	64629.6
878.0981	1347.3515	65535	64629.05
878.2422	1349.2196	65535	64631.4
878.3862	1351.087	65535	64632.2
878.5303	1352.9537	65535	64629.6
878.6743	1354.8197	65535	64631.5
878.8184	1356.6849	65535	64631
878.9624	1358.5493	65535	64632.85
879.1064	1360.4131	65535	64630.75
879.2504	1362.276	65535	64630.9
879.3944	1364.1383	65535	64633.55
879.5384	1365.9998	65535	64625.3
879.6823	1367.8606	65535	64630.05
879.8263	1369.7206	65535	64630.75
879.9702	1371.5799	65535	64629
880.1142	1373.4384	65535	64631.45
880.2581	1375.2962	65535	64629.4
880.402	1377.1533	65535	64631.65
880.5459	1379.0096	65535	64630.75
880.6898	1380.8652	65535	64631.4
880.8337	1382.7201	65535	64631.7
880.9776	1384.5742	65535	64630.55
881.1215	1386.4275	65535	64630.8
881.2653	1388.2802	65535	64633.45
881.4092	1390.132	65535	64632.2
881.553	1391.9832	65535	64629
881.6968	1393.8336	65535	64630.05
881.8406	1395.6832	65535	64629.55
881.9844	1397.5322	65535	64630.8
882.1282	1399.3803	65535	64626.95
882.272	1401.2278	65535	64628.75
882.4158	1403.0745	65535	64631.85
882.5595	1404.9204	65535	64631.95
882.7033	1406.7656	65535	64633.85
882.847	1408.6101	65535	64631.2
882.9908	1410.4538	65535	64629.95
883.1345	1412.2968	65535	64631.8
883.2782	1414.139	65535	64631.55
883.4219	1415.9805	65535	64631.95
883.5656	1417.8213	65535	64623.9
883.7092	1419.6613	65535	64630.2
883.8529	1421.5006	65535	64631.5
883.9965	1423.3391	65535	64630.85
884.1402	1425.1769	65535	64629.1
884.2838	1427.0139	65535	64630.3
884.4274	1428.8502	65535	64630.9
884.571	1430.6858	65535	64631.3
884.7146	1432.5206	65535	64633.25
884.8582	1434.3547	65535	64629.75
885.0018	1436.188	65535	64632.2
885.1453	1438.0206	65535	64629.5
885.2889	1439.8524	65535	64631.3
885.4324	1441.6835	65535	64631.2
885.5759	1443.5139	65535	64627.8
885.7194	1445.3435	65535	64633.2
885.8629	1447.1724	65535	64632.45
886.0064	1449.0005	65535	64632.1
886.1499	1450.8279	65535	64630.45
886.2933	1452.6545	65535	64632
886.4368	1454.4804	65535	64631.65
886.5802	1456.3056	65535	64626.55
886.7237	1458.13	65535	64631.7
886.8671	1459.9536	65535	64632.2
887.0105	1461.7766	65535	64632.1
887.1539	1463.5987	65535	64634.05
887.2972	1465.4202	65535	64632.55
887.4406	1467.2409	65535	64630.1
887.584	1469.0608	65535	64631.7
887.7273	1470.88	65535	64630.7
887.8706	1472.6984	65535	64631.2
888.0139	1474.5161	65535	64630.15
888.1572	1476.3331	65535	64630.8
888.3005	1478.1493	65535	64631.55
888.4438	1479.9648	65535	64635.2
888.5871	1481.7795	65535	64631.2
888.7303	1483.5935	65535	64634.5
888.8736	1485.4067	65535	64632.95
889.0168	1487.2192	65535	64632.55
889.16	1489.031	65535	64625.5
889.3032	1490.842	65535	64631.5
889.4464	1492.6522	65535	64633.5
889.5896	1494.4618	65535	64632.45
889.7327	1496.2705	65535	64633.15
889.8759	1498.0785	65535	64633.45
890.019	1499.8858	65535	64629.85
890.1622	1501.6924	65535	64633.8
890.3053	1503.4981	65535	64634.2
890.4484	1505.3032	65535	64633.65
890.5914	1507.1075	65535	64632.65
890.7345	1508.911	65535	64631.35
890.8776	1510.7138	65535	64632.45
891.0206	1512.5159	65535	64633.95
891.1637	1514.3172	65535	64632.75
891.3067	1516.1178	65535	64633
891.4497	1517.9176	65535	64631.25
891.5927	1519.7166	65535	64634.6
891.7357	1521.515	65535	64624
891.8786	1523.3126	65535	64632.5
892.0216	1525.1094	65535	64630.8
892.1645	1526.9055	65535	64634.2
892.3074	1528.7008	65535	64634.15
892.4503	1530.4954	65535	64627.95
892.5932	1532.2893	65535	64636.55
892.7361	1534.0824	65535	64630.9
892.879	1535.8747	65535	64634.15
893.0218	1537.6663	65535	64634.15
893.1647	1539.4572	65535	64633.05
893.3075	1541.2473	65535	64633.85
893.4503	1543.0367	65535	64635.3
893.5931	1544.8253	65535	64629.65
893.7359	1546.6132	65535	64631
893.8787	1548.4003	65535	64624.35
894.0214	1550.1867	65535	64625.85
894.1642	1551.9723	65535	64630.5
894.3069	1553.7572	65535	64631.8
894.4496	1555.5414	65535	64633.95
894.5923	1557.3247	65535	64636.3
894.735	1559.1074	65535	64637.65
894.8777	1560.8893	65535	64636
895.0204	1562.6705	65535	64635.7
895.163	1564.4509	65535	64633.6
895.3056	1566.2305	65535	64636.25
895.4482	1568.0094	65535	64636.95
895.5908	1569.7876	65535	64634.65
895.7334	1571.565	65535	64634.6
895.876	1573.3417	65535	64635.45
896.0186	1575.1176	65535	64635.25
896.1611	1576.8928	65535	64635.8
896.3036	1578.6672	65535	64638.15
896.4461	1580.4409	65535	64638.3
896.5886	1582.2138	65535	64632.35
896.7311	1583.986	65535	64636.85
896.8736	1585.7575	65535	64637.45
897.0161	1587.5282	65535	64638.1
897.1585	1589.2981	65535	64637.2
897.3009	1591.0673	65535	64638.25
897.4433	1592.8358	65535	64638.25
897.5857	1594.6035	65535	64637.45
897.7281	1596.3704	65535	64636.4
897.8705	1598.1366	65535	64636.25
898.0128	1599.9021	65535	64636.4
898.1551	1601.6668	65535	64635.4
898.2975	1603.4308	65535	64636.9
898.4398	1605.194	65535	64630.7
898.5821	1606.9564	65535	64639.5
898.7243	1608.7182	65535	64636.75
898.8666	1610.4791	65535	64640.7
899.0088	1612.2394	65535	64641.8
899.1511	1613.9988	65535	64640.15
899.2933	1615.7576	65535	64637.9
899.4355	1617.5156	65535	64632.3
899.5776	1619.2728	65535	64635.4
899.7198	1621.0293	65535	64637.95
899.862	1622.785	65535	64635.8
900.0041	1624.54	65535	64634.25
900.1462	1626.2942	65535	64638.2
900.2883	1628.0477	65535	64636.45
900.4304	1629.8005	65535	64635.6
900.5725	1631.5525	65535	64638.95
900.7145	1633.3037	65535	64638.95
900.8566	1635.0542	65535	64635.5
900.9986	1636.804	65535	64639.2
901.1406	1638.553	65535	64548.65
901.2826	1640.3013	65535	64638.45
901.4245	1642.0488	65535	64638.55
901.5665	1643.7955	65535	64640.75
901.7085	1645.5416	65535	64639.95
901.8504	1647.2868	65535	64639.1
901.9923	1649.0313	65535	64638.15
902.1342	1650.7751	65535	64637.05
902.2761	1652.5181	65535	64640.6
902.4179	1654.2604	65535	64639.75
902.5598	1656.0019	65535	64639.65
902.7016	1657.7427	65535	64637.45
902.8434	1659.4828	65535	64638.75
902.9852	1661.222	65535	64639.1
903.127	1662.9606	65535	64640.2
903.2687	1664.6984	65535	64638.1
903.4105	1666.4354	65535	64638.25
903.5522	1668.1717	65531.75	64634.65
903.6939	1669.9072	65494.3	64597.5
903.8356	1671.642	65504.75	64607.75
903.9773	1673.3761	65489.95	64594.45
904.119	1675.1094	65474.05	64577.35
904.2606	1676.8419	65327.05	64430.45
904.4022	1678.5737	65409.45	64513.7
904.5439	1680.3048	65347.45	64450.6
904.6855	1682.0351	65293.5	64398.6
904.827	1683.7646	65227.7	64327.1
904.9686	1685.4934	65313.4	64417.7
905.1101	1687.2215	64764.85	63867.8
905.2517	1688.9488	65251.65	64355.2
905.3932	1690.6754	63970.95	63076.8
905.5347	1692.4012	64816.35	63919.2
905.6761	1694.1263	64980	64085.2
905.8176	1695.8506	64195.5	63301.7
905.9591	1697.5742	64417.4	63522.3
906.1005	1699.297	64235.7	63341.15
906.2419	1701.0191	64430.8	63535.45
906.3833	1702.7404	63252.95	62358
906.5246	1704.461	62843.05	61946.25
906.666	1706.1808	63752.2	62855.2
906.8073	1707.8999	63198.55	62302.85
906.9487	1709.6182	62992.45	62098.1
907.09	1711.3358	62852	61958.05
907.2313	1713.0527	62693.55	61801
907.3725	1714.7688	62781.85	61883.35
907.5138	1716.4841	61450.2	60553.2
907.655	1718.1987	61950.5	61049.85
907.7962	1719.9126	61607.3	60714.5
907.9374	1721.6257	61942.25	61046.25
908.0786	1723.338	61935.65	61040.9
908.2198	1725.0496	60532.8	59639.4
908.3609	1726.7605	60719.9	59825.1
908.502	1728.4706	60217.75	59322.4
908.6431	1730.18	60746.7	59849.1
908.7842	1731.8886	60225.75	59330.95
908.9253	1733.5964	59720.85	58806.75
909.0664	1735.3036	60445.25	59547.9
909.2074	1737.0099	59867.7	58974.2
909.3484	1738.7156	59277.45	58385.7
909.4894	1740.4204	59070.2	58175.15
909.6304	1742.1246	59354.7	58458.9
909.7714	1743.8279	59409.65	58515.05
909.9123	1745.5306	59319.55	58424.4
910.0532	1747.2325	57990.9	57096.05
910.1941	1748.9336	58016.4	57122.95
910.335	1750.634	58248.05	57350.9
910.4759	1752.3336	58547.8	57656.15
910.6168	1754.0325	57700.45	56808
910.7576	1755.7307	58427.4	57534.5
910.8984	1757.4281	57348.85	56455.05
911.0392	1759.1247	58082.25	57179.65
911.18	1760.8206	57078.35	56180.9
911.3208	1762.5158	57107.85	56209.8
911.4615	1764.2102	57219.1	56326.9
911.6022	1765.9039	56945.75	56051.6
911.7429	1767.5968	56745.15	55851.2
911.8836	1769.289	56564.5	55670.95
912.0243	1770.9804	56601.85	55707.8
912.1649	1772.6711	56394.6	55500.8
912.3056	1774.361	56172.3	55277.2
912.4462	1776.0502	56172.25	55279.25
912.5868	1777.7386	55559.7	54661.45
912.7274	1779.4263	55694.45	54800.4
912.8679	1781.1132	55712.7	54819.1
913.0084	1782.7994	55372.7	54478.2
913.149	1784.4849	55548.85	54656.85
913.2895	1786.1696	54758.5	53859.95
913.4299	1787.8535	54985.45	54095.5
913.5704	1789.5367	55079.4	54185.6
913.7108	1791.2192	54621.9	53728.95
913.8513	1792.9009	54388.25	53467.35
913.9917	1794.5818	54499.55	53606.3
914.132	1796.2621	54154.35	53260.85
914.2724	1797.9415	54084.3	53191.4
914.4128	1799.6202	53916.75	53022.8
914.5531	1801.2982	53964.2	53069.45
914.6934	1802.9755	53548.3	52655.6
914.8337	1804.6519	53402.3	52509.3
914.9739	1806.3277	53674.45	52779.5
915.1142	1808.0027	52819.9	51928.2
915.2544	1809.6769	53025.15	52134.4
915.3946	1811.3504	53080.1	52185.95
915.5348	1813.0231	52455.7	51561.75
915.675	1814.6951	52695.95	51803.15
915.8151	1816.3664	52545.7	51651.45
915.9553	1818.0369	52429.35	51537.3
916.0954	1819.7067	52188.75	51297.25
916.2355	1821.3757	52418.3	51523.75
916.3755	1823.044	51830.65	50937.85
916.5156	1824.7115	51661.1	50767.35
916.6556	1826.3783	51587.1	50695.1
916.7956	1828.0443	51518.4	50625.95
916.9356	1829.7096	51294.7	50402.15
917.0756	1831.3741	51177.95	50282.45
917.2155	1833.0379	51099.9	50206.8
917.3555	1834.701	50958.1	50064.55
917.4954	1836.3633	50763	49869.4
917.6353	1838.0248	50660.05	49766.45
917.7751	1839.6856	50594.8	49700.4
917.915	1841.3457	50357.35	49464.45
918.0548	1843.005	50449.9	49558.55
918.1946	1844.6636	50258.1	49365.75
918.3344	1846.3214	49997.35	49103
918.4742	1847.9785	50035.3	49141.8
918.6139	1849.6349	49901.7	49006.25
918.7537	1851.2904	49785.9	48882.8
918.8934	1852.9453	49587.7	48694.65
919.0331	1854.5994	49453.5	48557.25
919.1727	1856.2528	49495.1	48596.25
919.3124	1857.9054	49270.55	48377.8
919.452	1859.5572	49173.35	48281.95
919.5916	1861.2083	49139.75	48245.35
919.7312	1862.8587	49201.65	48308.6
919.8708	1864.5084	48756.1	47862.35
920.0103	1866.1572	48743.75	47849.9
920.1498	1867.8054	48432.05	47538.65
920.2893	1869.4528	48435.7	47541.35
920.4288	1871.0994	48176.5	47280.05
920.5683	1872.7453	48195.4	47302.15
920.7077	1874.3905	48032.25	47132.3
920.8471	1876.0349	47862.3	46970.65
920.9865	1877.6786	47877.65	46982.3
921.1259	1879.3215	47758.5	46866.8
921.2653	1880.9637	47692.35	46798.95
921.4046	1882.6051	47554.25	46660.9
921.5439	1884.2458	47364.05	46469.85
921.6832	1885.8858	47157.9	46264.2
921.8225	1887.525	47136.55	46239.8
921.9617	1889.1634	46894.45	46001.15
922.101	1890.8011	46744.15	45851.35
922.2402	1892.4381	46598.1	45707.05
922.3794	1894.0743	46597.25	45705.05
922.5185	1895.7098	46417.3	45523.1
922.6577	1897.3446	46338.55	45445.5
922.7968	1898.9786	46144.65	45247.95
922.9359	1900.6118	45993.15	45099.8
923.075	1902.2443	45764.15	44869.1
923.214	1903.8761	45723.8	44830.45
923.3531	1905.5071	45424.4	44531.4
923.4921	1907.1374	45233	44338.9
923.6311	1908.7669	45211	44317.95
923.77	1910.3957	45170.6	44278.25
923.909	1912.0237	44829	43935.15
924.0479	1913.651	44731.45	43838.95
924.1868	1915.2776	44625.45	43735.45
924.3257	1916.9034	44397.8	43507.4
924.4646	1918.5285	44189.75	43299.25
924.6034	1920.1528	44026.5	43133.85
924.7422	1921.7764	44002.25	43110.1
924.881	1923.3992	43800.75	42907.8
925.0198	1925.0213	43485.55	42591.6
925.1586	1926.6427	43338.4	42446.7
925.2973	1928.2633	43344.65	42343.7
925.436	1929.8832	43081.1	42186.95
925.5747	1931.5023	42954.4	42062
925.7134	1933.1207	42824.55	41931.5
925.852	1934.7383	42749.85	41859.05
925.9906	1936.3552	42514.9	41620.65
926.1292	1937.9714	42429.35	41534.35
926.2678	1939.5868	42269.2	41375.65
926.4064	1941.2015	42001.05	41108.4
926.5449	1942.8154	41873.85	40981.9
926.6834	1944.4286	41685.3	40792.5
926.8219	1946.041	41500.5	40588.05
926.9604	1947.6528	41283.85	40386.35
927.0988	1949.2637	41265.05	40372.6
927.2372	1950.8739	41048	40155.75
927.3756	1952.4834	40957.25	40062.7
927.514	1954.0921	40886	39992.9
927.6523	1955.7001	40704.7	39808.3
927.7907	1957.3074	40551.75	39659.75
927.929	1958.9139	40345.5	39454.15
928.0673	1960.5197	40251.4	39358.4
928.2055	1962.1247	40056.4	39163.25
928.3438	1963.729	39905.15	39014.6
928.482	1965.3325	39726	38810.45
928.6202	1966.9353	39590.95	38700.4
928.7584	1968.5374	39521.25	38628.5
928.8965	1970.1387	39337.55	38447.25
929.0346	1971.7393	39149.2	38256.95
929.1727	1973.3392	39070.8	38180.1
929.3108	1974.9383	38899.25	38009.6
929.4489	1976.5366	38722.45	37829.6
929.5869	1978.1342	38665.55	37772.55
929.7249	1979.7311	38565.6	37674.4
929.8629	1981.3273	38421.9	37530.6
930.0009	1982.9227	38320.45	37426.45
930.1388	1984.5173	38091.65	37199.95
930.2767	1986.1112	37993.8	37103.55
930.4146	1987.7044	37910.1	37021
930.5525	1989.2968	37709.7	36817.8
930.6904	1990.8885	37700.75	36806.7
930.8282	1992.4795	37581.1	36689.05
930.966	1994.0697	37356.75	36464.5
931.1038	1995.6592	37229.55	36340.1
931.2415	1997.2479	37170.75	36278.85
931.3793	1998.8359	37024	36131.35
931.517	2000.4232	36899.85	36009.4
931.6547	2002.0097	36732.7	35842.3
931.7923	2003.5955	36584.95	35694.9
931.93	2005.1805	36515.5	35623.2
932.0676	2006.7648	36436.9	35547.45
932.2052	2008.3484	36306.65	35413.3
932.3427	2009.9312	36307.95	35415.6
932.4803	2011.5133	36157.6	35268.15
932.6178	2013.0946	36005.1	35112.2
932.7553	2014.6752	35909.15	35020.35
932.8928	2016.2551	35806.4	34914.95
933.0302	2017.8342	35645.75	34755.6
933.1676	2019.4126	35477.7	34588.3
933.305	2020.9902	35369.15	34477.55
933.4424	2022.5672	35323.45	34431.85
933.5798	2024.1433	35200.75	34305.8
933.7171	2025.7188	35027.35	34137.2
933.8544	2027.2935	34944.2	34053.25
933.9917	2028.8674	34783.5	33893.25
934.129	2030.4406	34705.05	33814.25
934.2662	2032.0131	34492.4	33601.55
934.4034	2033.5849	34398.15	33497.8
934.5406	2035.1559	34353	33462.4
934.6778	2036.7261	34296.25	33404.55
934.8149	2038.2957	34174.5	33284.3
934.952	2039.8645	34084.1	33193.8
935.0891	2041.4325	34075.7	33182.55
935.2262	2042.9998	33909.8	33019.95
935.3632	2044.5664	33831	32939.2
935.5002	2046.1323	33698.25	32808.25
935.6372	2047.6974	33551.95	32662.35
935.7742	2049.2617	33487.55	32598
935.9111	2050.8254	33436.3	32523.4
936.048	2052.3883	33367.35	32477.3
936.1849	2053.9504	33245.95	32354.2
936.3218	2055.5118	33123.9	32230.9
936.4586	2057.0725	32930.8	32035.4
936.5955	2058.6325	32871.35	31980.5
936.7323	2060.1917	32755.55	31867.75
936.869	2061.7502	32701.95	31808.55
937.0058	2063.3079	32592.15	31701.25
937.1425	2064.8649	32473.45	31578.65
937.2792	2066.4212	32391.5	31498.4
937.4159	2067.9767	32289.45	31398.6
937.5525	2069.5315	32108.3	31219.35
937.6891	2071.0856	31967.75	31078.75
937.8257	2072.6389	31870.45	30977.75
937.9623	2074.1915	31690.05	30801.35
938.0989	2075.7433	31534.1	30642.55
938.2354	2077.2945	31510.75	30620.7
938.3719	2078.8448	31390	30501.65
938.5084	2080.3945	31290.15	30398.45
938.6448	2081.9434	31221.65	30328.15
938.7812	2083.4916	31084.2	30190.7
938.9176	2085.039	30945.25	30052.3
939.054	2086.5857	30883.05	29991.4
939.1903	2088.1317	30886.7	29995.05
939.3267	2089.677	30745.55	29853
939.463	2091.2215	30629.5	29737.3
939.5992	2092.7652	30544.6	29650.9
939.7355	2094.3083	30460.45	29570.25
939.8717	2095.8506	30419.3	29529.7
940.0079	2097.3921	30402.75	29511.2
940.1441	2098.933	30254.1	29362.95
940.2802	2100.4731	30138.6	29246.9
940.4163	2102.0124	30109.65	29212.25
940.5524	2103.5511	30062.8	29171.8
940.6885	2105.089	29944.85	29051.6
940.8245	2106.6261	29859.65	28967.85
940.9606	2108.1626	29748	28857.95
941.0965	2109.6983	29708.15	28793.7
941.2325	2111.2332	29598.35	28705.4
941.3684	2112.7675	29498.85	28606.5
941.5044	2114.301	29412.9	28518.4
941.6403	2115.8337	29345.2	28454.6
941.7761	2117.3657	29249.2	28360
941.912	2118.897	29217	28326.2
942.0478	2120.4276	29055.2	28158.3
942.1835	2121.9575	28961.55	28070.5
942.3193	2123.4866	28993.55	28088.55
942.455	2125.0149	28887.35	27992.9
942.5907	2126.5426	28677.1	27786.15
942.7264	2128.0695	28630	27734.2
942.8621	2129.5956	28530.25	27640.65
942.9977	2131.1211	28474.05	27578.1
943.1333	2132.6458	28416.7	27525.75
943.2689	2134.1698	28310.35	27419.4
943.4044	2135.693	28271.45	27375.3
943.54	2137.2155	28181.35	27288.75
943.6755	2138.7373	28090.45	27196
943.8109	2140.2584	27958.85	27068.35
943.9464	2141.7787	27874.3	26979.45
944.0818	2143.2983	27748.8	26859.15
944.2172	2144.8171	27593.6	26706.1
944.3526	2146.3353	27551.5	26658.15
944.4879	2147.8527	27436.05	26546.35
944.6232	2149.3693	27407.5	26516.3
944.7585	2150.8853	27289.05	26398.8
944.8938	2152.4005	27119.85	26229.35
945.029	2153.9149	27131.95	26239.55
945.1642	2155.4287	26979.8	26087.9
945.2994	2156.9417	27009.35	26116.3
945.4346	2158.454	26855.3	25958.9
945.5697	2159.9655	26786.95	25896
945.7048	2161.4764	26761.55	25870.55
945.8399	2162.9865	26664.05	25772.05
945.9749	2164.4958	26597.9	25705.2
946.1099	2166.0045	26460.85	25566.75
946.2449	2167.5124	26453.2	25561.95
946.3799	2169.0195	26403.25	25513.15
946.5148	2170.526	26331.85	25439.9
946.6498	2172.0317	26214.3	25325.35
946.7846	2173.5367	26090.15	25196.3
946.9195	2175.0409	26057.75	25167.65
947.0543	2176.5445	26075.65	25187
947.1891	2178.0473	25922.2	25030.55
947.3239	2179.5494	25778.7	24886.2
947.4587	2181.0507	25684.2	24792.85
947.5934	2182.5513	25630	24738.85
947.7281	2184.0512	25582.75	24691.05
947.8628	2185.5504	25471.3	24580.65
947.9974	2187.0488	25336.95	24446.55
948.132	2188.5465	25255.5	24364.25
948.2666	2190.0435	25121.3	24228.4
948.4012	2191.5397	25056.65	24164.15
948.5357	2193.0353	24993.4	24101.2
948.6702	2194.5301	24876.35	23983.6
948.8047	2196.0241	24791.45	23898.8
948.9392	2197.5175	24730.7	23839.2
949.0736	2199.0101	24614.95	23721.65
949.208	2200.502	24496	23604.7
949.3424	2201.9931	24392.9	23504
949.4767	2203.4835	24297.6	23405.9
949.611	2204.9733	24226.55	23329.75
949.7453	2206.4622	24190.4	23299.5
949.8796	2207.9505	24085.1	23190.15
950.0138	2209.438	23921.15	23031.95
950.148	2210.9248	23896.6	23006.35
950.2822	2212.4109	23821	22930
950.4164	2213.8962	23717.5	22824.05
950.5505	2215.3809	23685.85	22791.3
950.6846	2216.8648	23635.95	22744.25
950.8186	2218.3479	23558.65	22662.65
950.9527	2219.8304	23415.85	22521.2
951.0867	2221.3121	23342.1	22449.1
951.2207	2222.7931	23256.95	22366.6
951.3546	2224.2733	23166.05	22274.3
951.4886	2225.7529	23065.15	22172.55
951.6225	2227.2317	22991	22097.85
951.7563	2228.7098	22947.8	22057.45
951.8902	2230.1872	22829.25	21939.15
952.024	2231.6638	22794.6	21904.05
952.1578	2233.1397	22691.7	21795.9
952.2916	2234.6149	22648.4	21757.35
952.4253	2236.0894	22523.85	21632.4
952.559	2237.5632	22457.1	21555.7
952.6927	2239.0362	22306.5	21414
952.8263	2240.5085	22272.95	21379.8
952.9599	2241.9801	22223.75	21332.15
953.0935	2243.4509	22177.95	21288.15
953.2271	2244.921	22098.5	21207.45
953.3606	2246.3904	22005.45	21111.65
953.4941	2247.8591	21936.95	21045.25
953.6276	2249.3271	21890.35	20998.5
953.7611	2250.7943	21768.15	20874.2
953.8945	2252.2608	21709.05	20816.9
954.0279	2253.7266	21647.4	20755.6
954.1612	2255.1917	21588.55	20697.95
954.2946	2256.656	21503.15	20610.95
954.4279	2258.1197	21435.8	20546.65
954.5612	2259.5826	21341.45	20447.8
954.6944	2261.0447	21328.55	20435.55
954.8276	2262.5062	21193.95	20300.35
954.9608	2263.9669	21202.75	20310.45
955.094	2265.4269	21124.65	20235.4
955.2271	2266.8862	21052.05	20159.85
955.3602	2268.3448	20988.1	20096.4
955.4933	2269.8026	20928.8	20038.1
955.6264	2271.2598	20819.6	19925.6
955.7594	2272.7162	20792.2	19901.55
955.8924	2274.1719	20727.6	19836.45
956.0253	2275.6268	20679.45	19789
956.1583	2277.0811	20601.2	19709.5
956.2912	2278.5346	20581.1	19690.85
956.4241	2279.9874	20515.55	19626.45
956.5569	2281.4395	20443.85	19552.95
956.6897	2282.8908	20353.45	19457.2
956.8225	2284.3414	20306.5	19412.85
956.9553	2285.7914	20244.6	19352.85
957.088	2287.2406	20167.45	19274.45
957.2207	2288.689	20095.1	19205.1
957.3534	2290.1368	20048.25	19157.6
957.486	2291.5838	19978.6	19082.95
957.6186	2293.0302	19920.8	19026.75
957.7512	2294.4758	19818.5	18925.8
957.8838	2295.9206	19733.7	18838.6
958.0163	2297.3648	19674.15	18782.5
958.1488	2298.8082	19651.65	18761.05
958.2813	2300.251	19582.25	18689.25
958.4137	2301.693	19496.65	18603.15
958.5461	2303.1343	19507.2	18616.95
958.6785	2304.5748	19414.9	18524.65
958.8108	2306.0147	19307.9	18416.95
958.9432	2307.4538	19274.1	18381.45
959.0754	2308.8922	19202.35	18311.3
959.2077	2310.3299	19133.2	18240.75
959.3399	2311.7669	19102.5	18212.1
959.4721	2313.2031	19015.9	18124.5
959.6043	2314.6387	18935.5	18042.95
959.7365	2316.0735	18869.65	17978.45
959.8686	2317.5076	18811.5	17919.25
960.0006	2318.941	18768.45	17877
960.1327	2320.3737	18696.55	17804.55
960.2647	2321.8056	18634.45	17741.45
960.3967	2323.2369	18616.5	17724.8
960.5287	2324.6674	18553.55	17659.2
960.6606	2326.0972	18494.9	17602.7
960.7925	2327.5263	18398.25	17509.15
960.9244	2328.9547	18312.75	17420.25
961.0562	2330.3823	18285.25	17392.15
961.1881	2331.8092	18281.5	17389
961.3198	2333.2355	18158.45	17266.1
961.4516	2334.661	18169.85	17277.45
961.5833	2336.0858	18110.7	17215.9
961.715	2337.5098	18016.05	17126.45
961.8467	2338.9332	17991.7	17100.45
961.9783	2340.3558	17900.85	17004.35
962.1099	2341.7778	17854.6	16965.25
962.2415	2343.199	17776.1	16882.6
962.373	2344.6195	17741.35	16851.1
962.5045	2346.0393	17691.5	16802.25
962.636	2347.4583	17627.55	16734.75
962.7675	2348.8767	17545.8	16652.25
962.8989	2350.2943	17501.9	16609
963.0303	2351.7113	17462.65	16570.85
963.1617	2353.1275	17406.55	16517.55
963.293	2354.543	17383.95	16485.8
963.4243	2355.9578	17320.35	16428.55
963.5556	2357.3718	17137.55	16246.7
963.6868	2358.7852	17118.15	16224.4
963.818	2360.1978	17066.65	16174.45
963.9492	2361.6098	17053.1	16162.55
964.0803	2363.021	16965.2	16070.45
964.2114	2364.4315	16925.4	16034.55
964.3425	2365.8413	16852.4	15961.15
964.4736	2367.2504	16767.75	15878.05
964.6046	2368.6587	16660.45	15772.4
964.7356	2370.0664	16639.25	15748.4
964.8666	2371.4733	16579.05	15689.8
964.9975	2372.8795	16506.2	15616.9
965.1284	2374.285	16477	15585.65
965.2593	2375.6899	16393	15503.5
965.3901	2377.0939	16317.05	15426.9
965.5209	2378.4973	16257.65	15368.15
965.6517	2379.9	16170.35	15280.5
965.7825	2381.3019	16139.9	15249.95
965.9132	2382.7032	16076.95	15188.45
966.0439	2384.1037	16050	15161.1
966.1745	2385.5035	15991.15	15101.75
966.3051	2386.9027	15918.05	15028.15
966.4357	2388.3011	15874.35	14981.45
966.5663	2389.6987	15827.7	14938.1
966.6968	2391.0957	15752.95	14860.65
966.8273	2392.492	15656.55	14767.4
966.9578	2393.8876	15564.7	14672.8
967.0882	2395.2824	15518.55	14627.25
967.2186	2396.6765	15437.7	14549.85
967.349	2398.07	15378.2	14487.3
967.4793	2399.4627	15352.8	14464.3
967.6097	2400.8547	15316.6	14426.35
967.7399	2402.246	15235.8	14338.2
967.8702	2403.6366	15150.8	14258.9
968.0004	2405.0265	15101.3	14212.55
968.1306	2406.4156	15050.95	14158
968.2607	2407.8041	15006	14112.45
968.3909	2409.1918	14919.1	14026.05
968.521	2410.5789	14866.25	13974.15
968.651	2411.9652	14828.3	13935.25
968.781	2413.3508	14776.25	13886.75
968.911	2414.7358	14700.2	13809.2
969.041	2416.12	14656.4	13766.95
969.1709	2417.5035	14607.55	13717.75
969.3008	2418.8863	14568.1	13677.45
969.4307	2420.2684	14473.35	13584.2
969.5606	2421.6497	14457.15	13566.6
969.6904	2423.0304	14318.05	13427.35
969.8201	2424.4104	14303.35	13412.15
969.9499	2425.7896	14274.95	13382.25
970.0796	2427.1682	14247.8	13356.25
970.2093	2428.546	14203.9	13313.8
970.3389	2429.9232	14162.15	13266.9
970.4685	2431.2996	14104.9	13214.35
970.5981	2432.6753	14059.75	13171.05
970.7277	2434.0503	14027	13135.2
970.8572	2435.4246	13942.4	13051.75
970.9867	2436.7982	13905.5	13013.35
971.1161	2438.1711	13857.6	12970.9
971.2456	2439.5433	13837.7	12946.45
971.375	2440.9148	13777.2	12883.25
971.5043	2442.2856	13713.7	12823.3
971.6336	2443.6557	13685.7	12794.9
971.7629	2445.025	13598.55	12707.2
971.8922	2446.3937	13624.55	12733.4
972.0214	2447.7617	13547.15	12653.9
972.1506	2449.1289	13513.85	12622.05
972.2798	2450.4955	13463.35	12569.5
972.4089	2451.8613	13426.5	12536.7
972.538	2453.2265	13372.05	12480.9
972.6671	2454.5909	13353.05	12462
972.7961	2455.9546	13310.8	12420.4
972.9251	2457.3177	13250.4	12360.95
973.0541	2458.68	13188.8	12296.95
973.1831	2460.0416	13181.5	12292.9
973.312	2461.4025	13168.55	12277.6
973.4408	2462.7627	13136.15	12234.35
973.5697	2464.1222	13081.3	12191.6
973.6985	2465.4811	13037.55	12145.1
973.8273	2466.8392	12980.8	12090.7
973.956	2468.1966	12966.95	12074.1
974.0847	2469.5533	12955.45	12063
974.2134	2470.9093	12898.45	12006.55
974.3421	2472.2645	12846.8	11956.65
974.4707	2473.6191	12779.25	11888.9
974.5993	2474.973	12729.1	11838.95
974.7278	2476.3262	12714.2	11822.5
974.8563	2477.6787	12689.45	11799.2
974.9848	2479.0305	12586.4	11695.85
975.1132	2480.3816	12553.7	11660.4
975.2417	2481.7319	12498.75	11607.85
975.37	2483.0816	12453.35	11559.95
975.4984	2484.4306	12406.3	11514.1
975.6267	2485.7789	12350.5	11461.65
975.755	2487.1264	12318.25	11425.95
975.8833	2488.4733	12252.5	11362.45
976.0115	2489.8195	12217.25	11310.85
976.1397	2491.165	12119.1	11224.7
976.2678	2492.5097	12129.45	11236.3
976.3959	2493.8538	12077.65	11186.5
976.524	2495.1972	12023.1	11134
976.6521	2496.5398	11983	11091
976.7801	2497.8818	11960.95	11066.35
976.9081	2499.2231	11889.65	10999.5
977.036	2500.5637	11834.3	10942.5
977.164	2501.9035	11782.15	10890.35
977.2918	2503.2427	11755.1	10862.1
977.4197	2504.5812	11718.85	10830.4
977.5475	2505.919	11689.2	10796
977.6753	2507.256	11655.2	10762.3
977.8031	2508.5924	11593	10701.9
977.9308	2509.9281	11542.6	10646.15
978.0585	2511.2631	11520.15	10630.15
978.1861	2512.5974	11484.65	10594.55
978.3137	2513.9309	11449.55	10556.4
978.4413	2515.2638	11406.1	10488.15
978.5689	2516.596	11396.45	10507.55
978.6964	2517.9275	11316.75	10424.4
978.8239	2519.2583	11294.55	10401.35
978.9513	2520.5884	11230.9	10339.8
979.0788	2521.9178	11203.15	10311.55
979.2062	2523.2465	11148.7	10259.85
979.3335	2524.5745	11088.2	10198.7
979.4608	2525.9018	11071.7	10181.6
979.5881	2527.2284	11058.25	10169.2
979.7154	2528.5543	11017.6	10127.3
979.8426	2529.8796	10967.75	10075.55
979.9698	2531.2041	10950.3	10058.45
980.0969	2532.5279	10937.4	10047
980.224	2533.851	10883.35	9991.3
980.3511	2535.1735	10868.55	9978.55
980.4781	2536.4952	10853.4	9964.05
980.6052	2537.8163	10832.2	9941.75
980.7321	2539.1366	10774.35	9884.1
980.8591	2540.4562	10739.55	9848
980.986	2541.7752	10752.9	9862.4
981.1129	2543.0935	10726.15	9835.35
981.2397	2544.411	10698.45	9803.9
981.3665	2545.7279	10632.55	9742.55
981.4933	2547.0441	10603	9712.45
981.62	2548.3596	10615.1	9721.4
981.7467	2549.6744	10570.75	9681.3
981.8734	2550.9885	10522.15	9623.5
982.0001	2552.3019	10496.6	9607.05
982.1267	2553.6146	10470.15	9580.25
982.2532	2554.9266	10425.5	9534.75
982.3798	2556.2379	10418.85	9526.15
982.5063	2557.5485	10400.25	9508.85
982.6327	2558.8585	10337.5	9439.25
982.7592	2560.1677	10305.3	9410.15
982.8856	2561.4762	10308.7	9415.55
983.0119	2562.7841	10277.15	9382.15
983.1383	2564.0913	10249.7	9360.1
983.2646	2565.3977	10239.2	9349.2
983.3908	2566.7035	10196.35	9305.35
983.517	2568.0086	10191.35	9297.6
983.6432	2569.313	10172.65	9280.65
983.7694	2570.6167	10143.35	9249.1
983.8955	2571.9197	10134.8	9244.45
984.0216	2573.222	10099.9	9206.9
984.1476	2574.5236	10050.45	9158.6
984.2737	2575.8246	10053.65	9159.95
984.3996	2577.1248	10012.55	9116.1
984.5256	2578.4244	9980	9089
984.6515	2579.7232	9983.35	9093.15
984.7774	2581.0214	9968.6	9054.6
984.9032	2582.3189	9916.7	9025.85
985.029	2583.6157	9915.6	9021.8
985.1548	2584.9118	9868.8	8978.05
985.2806	2586.2072	9852.7	8962.8
985.4063	2587.5019	9803.65	8913.05
985.5319	2588.7959	9784.9	8894.85
985.6576	2590.0893	9771.4	8878.65
985.7832	2591.3819	9733.15	8841.4
985.9087	2592.6739	9672.55	8782.1
986.0343	2593.9652	9672.15	8779.6
986.1597	2595.2557	9634.2	8743.9
986.2852	2596.5456	9597.5	8706.45
986.4106	2597.8348	9576.2	8686.65
986.536	2599.1234	9512.45	8623
986.6614	2600.4112	9487.9	8595.75
986.7867	2601.6983	9477.75	8583.35
986.912	2602.9848	9436.35	8544.05
987.0372	2604.2705	9391.55	8493.85
987.1624	2605.5556	9362.95	8472.3
987.2876	2606.84	9340	8449.35
987.4128	2608.1237	9309.6	8417.2
987.5379	2609.4067	9245.85	8354.4
987.6629	2610.689	9225.5	8327.25
987.788	2611.9707	9213.85	8320.35
987.913	2613.2516	9148.6	8253.15
988.0379	2614.5319	9110.05	8219.25
988.1629	2615.8115	9090.9	8200.9
988.2878	2617.0903	9037.45	8144.95
988.4126	2618.3685	9025.3	8135.2
988.5375	2619.6461	8976.25	8086.4
988.6622	2620.9229	8953.7	8062.1
988.787	2622.199	8930.6	8038.1
988.9117	2623.4745	8904.35	8012.6
989.0364	2624.7493	8868.75	7978.8
989.161	2626.0234	8814.85	7924.4
989.2857	2627.2968	8801.65	7911.8
989.4102	2628.5695	8765.65	7873.85
989.5348	2629.8415	8714.8	7824.2
989.6593	2631.1128	8700.95	7811.4
989.7837	2632.3835	8672.35	7782.55
989.9082	2633.6535	8603.55	7712.5
990.0326	2634.9228	8595.3	7705.3
990.1569	2636.1914	8559.35	7667.85
990.2812	2637.4593	8560.2	7668.8
990.4055	2638.7265	8504.75	7613.2
990.5298	2639.9931	8477.05	7585.7
990.654	2641.259	8454.2	7561.45
990.7782	2642.5242	8433.15	7543.1
990.9023	2643.7887	8408.45	7518.7
991.0264	2645.0525	8393.65	7503.85
991.1505	2646.3156	8349.45	7457.45
991.2745	2647.5781	8322.65	7432.8
991.3985	2648.8398	8291.65	7400.9
991.5225	2650.1009	8268.3	7369.35
991.6464	2651.3613	8258.7	7366.45
991.7703	2652.6211	8229.25	7338.15
991.8942	2653.8801	8181.8	7291.2
992.018	2655.1385	8191.75	7297
992.1418	2656.3961	8165.35	7274.65
992.2655	2657.6531	8152.25	7261.7
992.3892	2658.9094	8101.9	7211.1
992.5129	2660.1651	8065.4	7175.35
992.6366	2661.42	8065.65	7172.6
992.7602	2662.6743	8059	7166.5
992.8837	2663.9279	8038.1	7147.35
993.0073	2665.1808	7995.15	7103.2
993.1307	2666.433	7957.2	7065.85
993.2542	2667.6846	7953.6	7063.1
993.3776	2668.9354	7944.15	7049
993.501	2670.1856	7927.85	7035.95
993.6244	2671.4351	7902.75	7011.3
993.7477	2672.6839	7867.7	6975.1
993.8709	2673.9321	7823.25	6933.4
993.9942	2675.1795	7827.55	6936.05
994.1174	2676.4263	7799.55	6909.6
994.2405	2677.6724	7762	6872.45
994.3637	2678.9179	7766.7	6875.05
994.4868	2680.1626	7744.35	6854.9
994.6098	2681.4067	7712.75	6821.1
994.7328	2682.6501	7685.1	6794
994.8558	2683.8928	7662.1	6771.3
994.9788	2685.1348	7636.5	6747.85
995.1017	2686.3761	7588.2	6698.4
995.2245	2687.6168	7553	6662.55
995.3474	2688.8568	7550.15	6660.7
995.4702	2690.0961	7524.3	6635
995.5929	2691.3348	7500.65	6608.05
995.7156	2692.5727	7477.35	6585.95
995.8383	2693.81	7431.55	6542.45
995.961	2695.0466	7416.6	6528.1
996.0836	2696.2826	7402.65	6508.7
996.2062	2697.5178	7367.65	6475.45
996.3287	2698.7524	7345.15	6455.55
996.4512	2699.9863	7344.8	6452.35
996.5737	2701.2195	7308.55	6417.5
996.6961	2702.452	7293.35	6401.1
996.8185	2703.6839	7280.05	6388.35
996.9408	2704.9151	7238.65	6348.65
997.0631	2706.1456	7211.6	6319.85
997.1854	2707.3755	7203.3	6311.95
997.3077	2708.6046	7192.4	6298
997.4299	2709.8331	7158.95	6266.5
997.552	2711.0609	7156.7	6267.15
997.6742	2712.2881	7149.25	6257.05
997.7963	2713.5145	7115.85	6222.8
997.9183	2714.7403	7094.05	6204.85
998.0403	2715.9654	7070.25	6180.2
998.1623	2717.1899	7071.9	6167.25
998.2842	2718.4136	7045.55	6154.45
998.4062	2719.6367	7022.05	6131.4
998.528	2720.8591	7027.65	6131.2
998.6498	2722.0809	6992.9	6100.65
998.7716	2723.3019	6969.45	6076.85
998.8934	2724.5223	6971.4	6078.05
999.0151	2725.7421	6956.65	6066.25
999.1368	2726.9611	6930.2	6036.4
999.2584	2728.1795	6923.8	6027.6
999.38	2729.3972	6881.5	5991
999.5016	2730.6142	6850.35	5946.75
999.6231	2731.8306	6792.8	5899.9
999.7446	2733.0462	6774.65	5882.7
999.8661	2734.2612	6721.65	5826.2
999.9875	2735.4756	6677.5	5784.45
1000.1089	2736.6892	6647.95	5755.2
1000.2302	2737.9022	6623.4	5732.05
1000.3515	2739.1145	6599.3	5708.6
1000.4728	2740.3262	6566.65	5670.3
1000.594	2741.5372	6506.6	5614.1
1000.7152	2742.7475	6439.8	5548.8
1000.8363	2743.9571	6443.65	5552.1
1000.9575	2745.1661	6433.45	5538.25
1001.0785	2746.3744	6412.65	5520.55
1001.1996	2747.582	6396.1	5506.05
1001.3206	2748.7889	6345.4	5451.15
1001.4415	2749.9952	6343.25	5451.45
1001.5625	2751.2008	6307.75	5416.35
1001.6833	2752.4057	6279.1	5385.95
1001.8042	2753.61	6264.1	5371.05
1001.925	2754.8136	6237.05	5345.45
1002.0458	2756.0165	6221.45	5332.15
1002.1665	2757.2188	6185.95	5296.05
1002.2872	2758.4204	6179.55	5289.8
1002.4078	2759.6213	6145.1	5253.65
1002.5285	2760.8215	6142.75	5247.7
1002.649	2762.0211	6123.8	5230.35
1002.7696	2763.22	6098.95	5203.65
1002.8901	2764.4182	6072.55	5179.5
1003.0106	2765.6158	6076.45	5186.85
1003.131	2766.8127	6052.8	5164.5
1003.2514	2768.009	6025.7	5136.25
1003.3717	2769.2045	5982.05	5094.2
1003.492	2770.3994	5999.8	5107.5
1003.6123	2771.5936	5953.15	5060.85
1003.7325	2772.7872	5916.95	5026.55
1003.8527	2773.9801	5891.25	4997.65
1003.9729	2775.1723	5889.55	4982.5
1004.093	2776.3639	5873.6	4982.65
1004.2131	2777.5548	5849.8	4959.25
1004.3331	2778.745	5840.95	4949.85
1004.4531	2779.9346	5806.05	4916.65
1004.5731	2781.1235	5805.9	4915.75
1004.693	2782.3117	5801.15	4910.05
1004.8129	2783.4992	5757	4868.45
1004.9328	2784.6861	5736.6	4846.05
1005.0526	2785.8723	5716.8	4823.85
1005.1723	2787.0579	5737.2	4844.5
1005.2921	2788.2428	5710.85	4820.95
1005.4118	2789.427	5690.7	4800.85
1005.5314	2790.6106	5698.85	4808
1005.651	2791.7935	5676.2	4785.65
1005.7706	2792.9757	5670.25	4780.85
1005.8902	2794.1573	5644.85	4751.7
1006.0097	2795.3382	5642.1	4752.7
1006.1291	2796.5184	5639.05	4748.5
1006.2485	2797.698	5633.35	4740.45
1006.3679	2798.8769	5645.05	4754.6
1006.4873	2800.0551	5649.9	4758.8
1006.6066	2801.2327	5624.5	4730.65
1006.7258	2802.4096	5629.3	4739.1
1006.8451	2803.5859	5607.7	4717.6
1006.9642	2804.7615	5622.5	4731.25
1007.0834	2805.9364	5635.95	4746.7
1007.2025	2807.1106	5662.35	4773.6
1007.3216	2808.2842	5649.95	4756.9
1007.4406	2809.4572	5668.2	4778.7
1007.5596	2810.6294	5697.7	4807.25
1007.6785	2811.801	5733.05	4842.1
1007.7975	2812.972	5744.05	4854.3
1007.9163	2814.1423	5757.6	4866.9
1008.0352	2815.3119	5779.25	4890.65
1008.154	2816.4808	5828.7	4940.2
1008.2727	2817.6491	5846.3	4955.9
1008.3914	2818.8167	5899.9	5011.85
1008.5101	2819.9837	5940.2	5044.75
1008.6288	2821.15	5951.5	5060
1008.7474	2822.3157	5989.3	5100.1
1008.8659	2823.4807	5997	5107.3
1008.9844	2824.645	6045.9	5153.2
1009.1029	2825.8086	6074.65	5184.65
1009.2214	2826.9716	6103.55	5214.35
1009.3398	2828.134	6141.95	5251.85
1009.4581	2829.2957	6165.8	5275.7
1009.5764	2830.4567	6183.05	5294.35
1009.6947	2831.617	6175.3	5285.75
1009.813	2832.7767	6192.3	5302.55
1009.9312	2833.9358	6180.6	5292.1
1010.0493	2835.0941	6171.45	5280.25
1010.1675	2836.2519	6130.85	5240.35
1010.2855	2837.4089	6108.2	5217.65
1010.4036	2838.5653	6094.5	5205.1
1010.5216	2839.7211	6087.7	5198.25
1010.6396	2840.8761	6090.35	5200.4
1010.7575	2842.0306	6102.35	5212.85
1010.8754	2843.1843	6116	5226.95
1010.9932	2844.3374	6164.3	5273.65
1011.111	2845.4899	6198.7	5307.7
1011.2288	2846.6417	6264.45	5374.9
1011.3465	2847.7928	6319.4	5431.1
1011.4642	2848.9433	6386.65	5496.75
1011.5818	2850.0931	6439.3	5549.55
1011.6995	2851.2422	6518.1	5627.2
1011.817	2852.3907	6567.75	5676.8
1011.9345	2853.5385	6642.8	5753.4
1012.052	2854.6857	6714.2	5798.65
1012.1695	2855.8323	6720	5829.7
1012.2869	2856.9781	6735.5	5847
1012.4042	2858.1233	6771.1	5883.1
1012.5216	2859.2679	6806.65	5917.75
1012.6389	2860.4118	6825.4	5936.2
1012.7561	2861.555	6849.65	5954.95
1012.8733	2862.6976	6867.75	5975.25
1012.9905	2863.8395	6892.4	6002.3
1013.1076	2864.9808	6891.05	6002.7
1013.2247	2866.1214	6921.25	6032.25
1013.3417	2867.2614	6917.4	6027.35
1013.4587	2868.4007	6902.6	6010.2
1013.5757	2869.5393	6883.7	5992.75
1013.6926	2870.6773	6874.15	5981.25
1013.8095	2871.8146	6875.55	5983.5
1013.9263	2872.9513	6893.45	6000.95
1014.0431	2874.0874	6843.5	5954.6
1014.1599	2875.2227	6818.3	5927.9
1014.2766	2876.3574	6766.9	5877.4
1014.3933	2877.4915	6749.5	5860.9
1014.51	2878.6249	6707.2	5816.5
1014.6266	2879.7577	6675.9	5785.3
1014.7431	2880.8898	6641	5741.7
1014.8596	2882.0212	6598.9	5710.05
1014.9761	2883.152	6588.25	5699
1015.0925	2884.2821	6572.35	5682.7
1015.2089	2885.4116	6550.55	5663.8
1015.3253	2886.5405	6526.3	5638.55
1015.4416	2887.6686	6520	5628.4
1015.5579	2888.7962	6501.15	5612.9
1015.6741	2889.923	6489.15	5600.5
1015.7903	2891.0493	6504.95	5614.8
1015.9065	2892.1748	6494.65	5606.35
1016.0226	2893.2997	6469.05	5577.7
1016.1387	2894.424	6495.75	5606.95
1016.2547	2895.5476	6475.75	5588.15
1016.3707	2896.6706	6505.6	5617.55
1016.4866	2897.7929	6501.45	5610.35
1016.6025	2898.9145	6539	5648.6
1016.7184	2900.0355	6537	5646.7
1016.8342	2901.1559	6561.7	5671.7
1016.95	2902.2756	6572.3	5683.15
1017.0658	2903.3946	6604.55	5715.05
1017.1815	2904.513	6598.55	5708.35
1017.2971	2905.6308	6621.8	5731.65
1017.4127	2906.7479	6634.6	5745.55
1017.5283	2907.8643	6641.55	5753.25
1017.6439	2908.9801	6625.4	5736.5
1017.7594	2910.0953	6641	5750.25
1017.8748	2911.2098	6630.15	5736.05
1017.9902	2912.3236	6602.8	5704
1018.1056	2913.4368	6574.9	5682.8
1018.2209	2914.5494	6560	5670.15
1018.3362	2915.6613	6516.65	5623
1018.4515	2916.7725	6472.5	5580.7
1018.5667	2917.8831	6425.3	5534.7
1018.6819	2918.9931	6390.55	5499
1018.797	2920.1024	6361.35	5470.7
1018.9121	2921.211	6331.45	5442.4
1019.0271	2922.319	6306.3	5416.8
1019.1421	2923.4264	6296.8	5406.2
1019.2571	2924.5331	6252.7	5363.3
1019.372	2925.6391	6217.8	5328.45
1019.4869	2926.7445	6208.55	5319.25
1019.6017	2927.8493	6186.6	5296.25
1019.7165	2928.9534	6170.25	5280.7
1019.8313	2930.0569	6151	5256.65
1019.946	2931.1597	6140.9	5248.3
1020.0606	2932.2619	6123.75	5234.2
1020.1753	2933.3634	6109.3	5219.8
1020.2899	2934.4643	6086	5189.3
1020.4044	2935.5645	6056.45	5158.9
1020.5189	2936.6641	6007.1	5113.95
1020.6334	2937.763	5950.75	5061.25
1020.7478	2938.8613	5902.2	5012.25
1020.8622	2939.959	5828.6	4934.7
1020.9765	2941.056	5740.25	4850.1
1021.0908	2942.1523	5656.2	4764.9
1021.2051	2943.248	5568.15	4677.05
1021.3193	2944.3431	5462.55	4571.75
1021.4334	2945.4375	5347.75	4458.7
1021.5476	2946.5313	5241.4	4352.95
1021.6617	2947.6244	5109.1	4218.1
1021.7757	2948.7169	5029.3	4140.55
1021.8897	2949.8087	4915.4	4024.5
1022.0037	2950.8999	4805.3	3915.5
1022.1176	2951.9904	4707.15	3818.4
1022.2315	2953.0803	4630.1	3740.6
1022.3453	2954.1696	4549.75	3658.65
1022.4591	2955.2582	4477.95	3588.65
1022.5728	2956.3462	4432	3542.15
1022.6865	2957.4335	4382.85	3491.2
1022.8002	2958.5202	4349.1	3458.25
1022.9138	2959.6062	4311.8	3422.55
1023.0274	2960.6916	4272.75	3383.95
1023.141	2961.7764	4242.4	3353.05
1023.2545	2962.8605	4219.8	3329.25
1023.3679	2963.9439	4198.65	3309.65
1023.4813	2965.0267	4168.15	3278
1023.5947	2966.1089	4178.45	3267.5
1023.708	2967.1905	4129.9	3240.65
1023.8213	2968.2714	4117.65	3227.8
1023.9346	2969.3516	4103.65	3213.25
1024.0478	2970.4312	4117.3	3220.8
1024.1609	2971.5102	4088.9	3198.75
1024.274	2972.5885	4083.9	3191.95
1024.3871	2973.6662	4078.5	3184.75
1024.5002	2974.7432	4062.5	3173.65
1024.6132	2975.8196	4049.8	3160.4
1024.7261	2976.8954	4018.9	3131.3
1024.839	2977.9705	3995.45	3105.15
1024.9519	2979.045	3976.7	3087.5
1025.0647	2980.1188	3933.8	3043.05
1025.1775	2981.192	3912.55	3022.25
1025.2902	2982.2645	3893	3001.4
1025.4029	2983.3364	3846.2	2957.3
1025.5156	2984.4077	3825.6	2937.65
1025.6282	2985.4783	3789.85	2897.15
1025.7407	2986.5483	3743	2854.5
1025.8532	2987.6177	3706.3	2818.3
1025.9657	2988.6864	3656.5	2768.7
1026.0782	2989.7545	3622.95	2732.55
1026.1906	2990.8219	3582.95	2692.5
1026.3029	2991.8887	3547.4	2654.8
1026.4152	2992.9548	3521.55	2630.5
1026.5275	2994.0204	3477.6	2589.5
1026.6397	2995.0852	3435.6	2548.6
1026.7519	2996.1495	3406.1	2515
1026.864	2997.2131	3382.9	2492.75
1026.9761	2998.276	3325.4	2437.1
1027.0882	2999.3383	3317.4	2429.5
1027.2002	3000.4	3291.7	2402.6
1027.3122	3001.4611	3263.75	2373.7
1027.4241	3002.5215	3236.9	2348.1
1027.536	3003.5812	3228.65	2337.9
1027.6478	3004.6404	3198.15	2307.5
1027.7596	3005.6989	3200.75	2310.45
1027.8714	3006.7567	3175.2	2285.6
1027.9831	3007.8139	3191.1	2281
1028.0947	3008.8705	3135.7	2244.9
1028.2064	3009.9264	3133.25	2239.4
1028.3179	3010.9818	3122.15	2232.7
1028.4295	3012.0364	3112.35	2222.1
1028.541	3013.0905	3098.15	2208.55
1028.6524	3014.1439	3084.9	2194.05
1028.7638	3015.1966	3089.35	2201.6
1028.8752	3016.2487	3068.6	2178.65
1028.9865	3017.3002	3067.15	2174.55
1029.0978	3018.3511	3050.55	2163.2
1029.209	3019.4013	3061.85	2172.7
1029.3202	3020.4509	3058.15	2169.7
1029.4314	3021.4998	3047.4	2157.95
1029.5425	3022.5481	3050.05	2161.1
1029.6535	3023.5958	3022.75	2134.45
1029.7645	3024.6428	3021.1	2132.75
1029.8755	3025.6892	3004.1	2115.5
1029.9864	3026.735	3019.55	2131.95
1030.0973	3027.7802	2995.7	2105.3
1030.2082	3028.8247	2985.1	2096.65
1030.319	3029.8685	2987.5	2096.75
1030.4297	3030.9118	2985.85	2094.35
1030.5404	3031.9544	2971.9	2084.1
1030.6511	3032.9963	2968.4	2080.05
1030.7617	3034.0376	2967.15	2079.05
1030.8723	3035.0783	2977.5	2085.2
1030.9829	3036.1184	2961.75	2071.35
1031.0934	3037.1578	2958.55	2071.15
1031.2038	3038.1966	2944.8	2054.8
1031.3142	3039.2348	2960.45	2071.85
1031.4246	3040.2723	2957.15	2060.5
1031.5349	3041.3092	2931.7	2042.8
1031.6452	3042.3455	2922.7	2034.2
1031.7554	3043.3811	2917.15	2025.55
1031.8656	3044.4161	2889.95	1998.9
1031.9758	3045.4505	2893.4	2005.15
1032.0859	3046.4842	2895.2	2006.7
1032.1959	3047.5173	2867.4	1980.15
1032.3059	3048.5498	2863	1974.05
1032.4159	3049.5816	2839.9	1951
1032.5258	3050.6128	2837.35	1945.15
1032.6357	3051.6434	2806.95	1917.75
1032.7455	3052.6734	2805.65	1913.45
1032.8553	3053.7027	2792	1903.55
1032.9651	3054.7314	2780.5	1893.65
1033.0748	3055.7594	2785.25	1896.65
1033.1845	3056.7868	2770.6	1879.9
1033.2941	3057.8136	2741.9	1852.8
1033.4037	3058.8398	2739.7	1852.9
1033.5132	3059.8653	2728.05	1838.4
1033.6227	3060.8902	2696.25	1807.5
1033.7321	3061.9145	2705.5	1815
1033.8415	3062.9381	2687.75	1799.45
1033.9509	3063.9612	2686.65	1780.9
1034.0602	3064.9835	2670.85	1782.2
1034.1694	3066.0053	2664.75	1774.75
1034.2787	3067.0264	2640.75	1752.8
1034.3878	3068.0469	2622.1	1732.7
1034.497	3069.0668	2616.95	1725.6
1034.6061	3070.086	2611.15	1722.3
1034.7151	3071.1046	2598.1	1710
1034.8241	3072.1226	2582.75	1693.55
1034.9331	3073.1399	2567.3	1679.4
1035.042	3074.1567	2542.5	1652.95
1035.1508	3075.1727	2533.25	1642.3
1035.2597	3076.1882	2519.8	1629.7
1035.3684	3077.203	2507.6	1618.65
1035.4772	3078.2173	2491.25	1600.45
1035.5859	3079.2308	2490.4	1597.85
1035.6945	3080.2438	2474.2	1582.9
1035.8031	3081.2561	2461.3	1573.25
1035.9117	3082.2678	2432.7	1546.25
1036.0202	3083.2789	2417.45	1528.75
1036.1286	3084.2893	2411	1522.05
1036.2371	3085.2991	2401.25	1509.55
1036.3454	3086.3083	2397.9	1504.35
1036.4538	3087.3169	2383.75	1494.6
1036.562	3088.3248	2378.55	1487.4
1036.6703	3089.3321	2374.1	1483.45
1036.7785	3090.3388	2362.4	1474.55
1036.8866	3091.3449	2341.1	1453.2
1036.9948	3092.3503	2336.8	1444.8
1037.1028	3093.3551	2322.15	1434.7
1037.2108	3094.3593	2316.05	1426.85
1037.3188	3095.3629	2315.9	1429.8
1037.4267	3096.3658	2298.25	1410.95
1037.5346	3097.3681	2290.7	1402.2
1037.6425	3098.3698	2286.8	1394.2
1037.7503	3099.3708	2277.4	1382.05
1037.858	3100.3713	2262.8	1374.65
1037.9657	3101.3711	2257.5	1368.85
1038.0734	3102.3702	2373.25	1344.7
1038.181	3103.3688	2247.25	1356.5
1038.2886	3104.3667	2230.8	1342.3
1038.3961	3105.364	2234.75	1347.1
1038.5036	3106.3607	2217.9	1328.55
1038.611	3107.3568	2204.25	1313.6
1038.7184	3108.3522	2192.8	1303.75
1038.8257	3109.347	2191.05	1301.9
1038.933	3110.3412	2180.35	1286.7
1039.0403	3111.3348	2181.6	1294.7
1039.1475	3112.3277	2159.9	1271.9
1039.2547	3113.32	2156.25	1270.05
1039.3618	3114.3117	2165.8	1276.95
1039.4689	3115.3028	2152.7	1260.9
1039.5759	3116.2932	2139.6	1247.05
1039.6829	3117.2831	2133.9	1240.5
1039.7898	3118.2723	2124.35	1232.65
1039.8967	3119.2608	2122.2	1234.7
1040.0035	3120.2488	2111	1221.8
1040.1103	3121.2361	2105.15	1218.2
1040.2171	3122.2229	2098.35	1209.45
1040.3238	3123.209	2099.4	1210.3
1040.4305	3124.1944	2085.15	1197.6
1040.5371	3125.1793	2073.1	1181.8
1040.6437	3126.1635	2081.9	1194.7
1040.7502	3127.1471	2068.55	1180.9
1040.8567	3128.1301	2062.05	1173.75
1040.9631	3129.1125	2065.3	1177.9
1041.0695	3130.0942	2048.1	1160.35
1041.1759	3131.0753	2040.85	1145.05
1041.2822	3132.0558	2047.25	1154.4
1041.3884	3133.0357	2032.85	1143.05
1041.4946	3134.015	2022.35	1134.15
1041.6008	3134.9936	2019.6	1129.95
1041.7069	3135.9716	2036.1	1127.95
1041.813	3136.949	2013	1123.45
1041.919	3137.9258	2014.45	1120.05
1042.025	3138.902	1989.15	1092.8
1042.1309	3139.8775	1989.2	1101.8
1042.2368	3140.8524	1991.4	1102.95
1042.3427	3141.8267	1982.3	1092.6
1042.4485	3142.8004	1980.5	1091.6
1042.5542	3143.7735	1982.8	1088.9
1042.6599	3144.7459	1971.7	1079.5
1042.7656	3145.7178	1972.5	1082.35
1042.8712	3146.689	1954.1	1067.45
1042.9768	3147.6596	1955.55	1064.8
1043.0823	3148.6295	1943.95	1054.1
1043.1878	3149.5989	1939.8	1050.95
1043.2932	3150.5676	1933.55	1045.75
1043.3986	3151.5357	1922.95	1037.6
1043.5039	3152.5032	1923.35	1036.3
1043.6092	3153.4701	1919.15	1031.7
1043.7145	3154.4364	1920.6	1027.95
1043.8197	3155.402	1905	1016.85
1043.9248	3156.367	1891.5	1001.6
1044.03	3157.3315	1928.05	995.1
1044.135	3158.2952	1897.8	1006.7
1044.24	3159.2584	1884.7	997.95
1044.345	3160.221	1869.75	981.85
1044.4499	3161.1829	1870.15	980.8
1044.5548	3162.1442	1859.65	972.7
1044.6596	3163.105	1857.2	967.3
1044.7644	3164.065	1847.7	959.05
1044.8692	3165.0245	1840.7	948.55
1044.9739	3165.9834	1838.1	949.55
1045.0785	3166.9416	1826.15	938.95
1045.1831	3167.8993	1829.3	940.25
1045.2877	3168.8563	1823.7	935.8
1045.3922	3169.8127	1818.5	929.35
1045.4966	3170.7684	1815.95	928.85
1045.6011	3171.7236	1813.05	921.1
1045.7054	3172.6782	1807.2	917.25
1045.8098	3173.6321	1798.4	908.2
1045.914	3174.5854	1797.2	903.55
1046.0183	3175.5381	1787.35	899.8
1046.1224	3176.4902	1793.65	905.2
1046.2266	3177.4417	1783.6	896.3
1046.3307	3178.3926	1775.3	886.2
1046.4347	3179.3428	1770.95	883.75
1046.5387	3180.2924	1770	882.25
1046.6427	3181.2415	1767.9	877.9
1046.7466	3182.1899	1758.35	867.8
1046.8504	3183.1377	1748.85	859.75
1046.9542	3184.0848	1751.2	859.1
1047.058	3185.0314	1740.25	851.45
1047.1617	3185.9773	1742.6	854.15
1047.2654	3186.9227	1735.65	846.4
1047.369	3187.8674	1730.3	842.2
1047.4726	3188.8115	1734.25	842
1047.5761	3189.755	1721.6	835.15
1047.6796	3190.6979	1708.85	820.65
1047.783	3191.6402	1712.35	824.05
1047.8864	3192.5818	1706.9	820.6
1047.9898	3193.5229	1732.15	819.15
1048.0931	3194.4633	1698.6	808.25
1048.1963	3195.4031	1691.65	803.35
1048.2995	3196.3423	1695.7	807.55
1048.4027	3197.2809	1683.5	794.6
1048.5058	3198.2189	1682.7	794.85
1048.6089	3199.1563	1680.6	783.9
1048.7119	3200.0931	1666.45	779.4
1048.8148	3201.0292	1669.25	779.45
1048.9178	3201.9648	1672	784.9
1049.0206	3202.8997	1662.15	771.75
1049.1235	3203.834	1653	763.9
1049.2262	3204.7677	1650.95	761.25
1049.329	3205.7008	1655.2	763.8
1049.4317	3206.6333	1648	760.5
1049.5343	3207.5652	1653.85	764.8
1049.6369	3208.4964	1643.35	755.2
1049.7394	3209.4271	1634.8	747.5
1049.8419	3210.3571	1633.95	745.55
1049.9444	3211.2865	1631.8	741.85
1050.0468	3212.2154	1628.95	739.8
1050.1491	3213.1436	1621.3	730.65
1050.2514	3214.0712	1617.8	723.9
1050.3537	3214.9982	1616.3	725.9
1050.4559	3215.9246	1610.3	721.6
1050.5581	3216.8503	1601.35	713.05
1050.6602	3217.7755	1599.75	712.25
1050.7623	3218.7001	1599	712.05
1050.8643	3219.624	1597.7	708.9
1050.9663	3220.5473	1585.4	695.55
1051.0682	3221.4701	1595.5	705.6
1051.1701	3222.3922	1588.25	698.3
1051.2719	3223.3137	1587.05	699.6
1051.3737	3224.2346	1582.8	695.4
1051.4754	3225.1549	1584.8	696.2
1051.5771	3226.0746	1572	684.2
1051.6788	3226.9937	1561.7	674.2
1051.7804	3227.9121	1574.9	688.05
1051.8819	3228.83	1560.75	670.6
1051.9834	3229.7473	1558.6	669.95
1052.0849	3230.6639	1554.9	666.7
1052.1863	3231.5799	1546.7	657.55
1052.2876	3232.4954	1541.75	653.4
1052.3889	3233.4102	1542.95	654.8
1052.4902	3234.3244	1537.9	647.2
1052.5914	3235.238	1537.75	650.75
1052.6926	3236.151	1550.15	638.1
1052.7937	3237.0634	1523.45	636.5
1052.8948	3237.9752	1521	632
1052.9958	3238.8864	1521.25	632.8
1053.0968	3239.797	1510.65	622.25
1053.1977	3240.7069	1502.95	614.35
1053.2986	3241.6163	1506.25	616.7
1053.3994	3242.5251	1500	612.15
1053.5002	3243.4332	1495.55	608.15
1053.6009	3244.3408	1496.15	607.4
1053.7016	3245.2477	1492.4	604.6
1053.8022	3246.154	1488.6	599.9
1053.9028	3247.0598	1482.55	593.75
1054.0034	3247.9649	1477.85	587.15
1054.1039	3248.8694	1483.85	595.8
1054.2043	3249.7733	1481.9	594
1054.3047	3250.6766	1463.25	574.1
1054.4051	3251.5793	1470	579.95
1054.5054	3252.4814	1462.55	574.4
1054.6056	3253.3829	1460.85	573.2
1054.7058	3254.2838	1457.6	569.1
1054.806	3255.1841	1450.35	562.65
1054.9061	3256.0838	1443.45	556.95
1055.0061	3256.9829	1438.75	552.05
1055.1062	3257.8814	1429.8	540.25
1055.2061	3258.7792	1436.45	547.1
1055.306	3259.6765	1424	534.25
1055.4059	3260.5731	1414.1	527.25
1055.5057	3261.4692	1415.65	526.45
1055.6055	3262.3647	1402.35	514.95
1055.7052	3263.2595	1397.1	508.9
1055.8049	3264.1538	1394.75	506.6
1055.9045	3265.0474	1384.6	494.7
1056.0041	3265.9404	1380.7	492.15
1056.1036	3266.8329	1367.7	479.85
1056.2031	3267.7247	1377.85	480.55
1056.3025	3268.616	1346.3	460.15
1056.4019	3269.5066	1340.7	452.2
1056.5013	3270.3966	1337.15	449.6
1056.6005	3271.286	1313.6	427.2
