Software Version:	3.9.2.0
Unit SN:	10000200
Spectrometer SN:	6960
Date:	3/6/2024 9:48:35 AM
Data Line Index:	25
Spectral Points:	2048
Integration time (ms):	125
Averages:	20
Delay (ms):	30
Sequence Number:	1
Processing:	dark subtract
Laser Power (mW):	305
Laser Current (mA):	823
Laser Diode Temp (C):	25.1
Laser Case Temp (C):	24.2
System Temp (C):	24.1
Spectrometer Temp (C):	21.6
CCD Temp (C):	-0.016
Secondary Temp (C):	20.01
Heatsink Temp (C):	18
CCDPCB Temp (C):	31.705
SecondaryPCB Temp (C):	25.891

Wavelength	RamanShift	Raw Counts	Dark Subtracted
787.061	30.1047	449.5	41.65
787.2016	32.3739	448.95	43.8
787.3422	34.6426	455.05	50
787.4828	36.9109	456.3	48
787.6235	39.1787	462.35	49.5
787.7642	41.4461	472	53.75
787.9049	43.7131	480.9	58.75
788.0456	45.9796	485.85	63.85
788.1863	48.2456	492.85	67.15
788.3271	50.5112	500.7	70.65
788.4679	52.7764	505.25	71.35
788.6087	55.0411	516.5	78.25
788.7496	57.3054	524.6	82.35
788.8904	59.5692	534.6	89.7
789.0313	61.8326	541.7	95.65
789.1722	64.0955	549	97.85
789.3132	66.3579	565.2	111.35
789.4541	68.6199	576.85	121.15
789.5951	70.8815	599.25	139.95
789.7361	73.1426	653.65	186.6
789.8771	75.4032	769.45	300.85
790.0181	77.6634	1061.8	589.05
790.1592	79.9231	1760.45	1281.95
790.3003	82.1824	3229.85	2745.65
790.4414	84.4412	5810	5315.6
790.5825	86.6995	9296.1	8792.85
790.7237	88.9574	12766.7	12250.6
790.8648	91.2148	15302.5	14778.75
791.006	93.4717	16723.55	16192.55
791.1472	95.7282	17337.9	16801.35
791.2885	97.9842	17673.25	17138.55
791.4297	100.2398	17795.35	17256.15
791.571	102.4949	17852.8	17312.1
791.7123	104.7495	17843.9	17297.65
791.8536	107.0036	17847.65	17300.95
791.9949	109.2573	17841.15	17297.3
792.1363	111.5105	17849.25	17301.55
792.2777	113.7632	17842.85	17295
792.4191	116.0154	17864.15	17304.45
792.5605	118.2672	17900.55	17346.25
792.7019	120.5185	17883.4	17328.4
792.8434	122.7693	17903.75	17343.6
792.9849	125.0197	17964.15	17399.65
793.1264	127.2696	17951.75	17384.95
793.2679	129.519	18049.3	17477.65
793.4094	131.7679	18057.5	17484.85
793.551	134.0163	18120.75	17546.15
793.6926	136.2642	18142.15	17563.25
793.8342	138.5117	18167.95	17584.5
793.9758	140.7587	18151.35	17569.7
794.1175	143.0052	18132.85	17546.1
794.2591	145.2512	18132.85	17547.2
794.4008	147.4967	18123.65	17535.25
794.5425	149.7417	18128.85	17536.8
794.6842	151.9863	18137.85	17541.1
794.826	154.2304	18133.4	17537.65
794.9677	156.4739	18101.95	17496.8
795.1095	158.717	18136	17530.1
795.2513	160.9596	18148.5	17540.8
795.3931	163.2017	18143.9	17530.65
795.535	165.4433	18182.65	17571.65
795.6768	167.6844	18193.9	17579.8
795.8187	169.925	18237.15	17619.6
795.9606	172.1651	18164.65	17543.95
796.1025	174.4047	18171.5	17544.85
796.2445	176.6439	18134.85	17508.25
796.3864	178.8825	18143	17512.5
796.5284	181.1206	18160.2	17527.45
796.6704	183.3582	18179.55	17543.9
796.8124	185.5954	18206.35	17567.2
796.9544	187.832	18224.05	17581.3
797.0965	190.0681	18271.55	17623.3
797.2386	192.3037	18293.95	17641.8
797.3806	194.5388	18288.45	17634.1
797.5228	196.7734	18323.55	17669.55
797.6649	199.0075	18394.5	17739.6
797.807	201.2411	18525.55	17870.4
797.9492	203.4742	18566.95	17911.75
798.0914	205.7068	18639.5	17974.4
798.2336	207.9389	18615.1	17950.95
798.3758	210.1704	18665.75	18010.3
798.518	212.4015	18622.1	17975
798.6603	214.632	18692.7	18049
798.8025	216.862	18716.2	18075.95
798.9448	219.0915	18700.65	18056.5
799.0871	221.3205	18790.15	18143.65
799.2294	223.549	18801.7	18160.6
799.3718	225.777	18823.6	18180.15
799.5141	228.0044	18847.05	18198.1
799.6565	230.2314	18892.65	18240.5
799.7989	232.4578	18864.1	18209.5
799.9413	234.6837	18891.75	18229.85
800.0837	236.909	18918.2	18251.4
800.2262	239.1339	18943.6	18253.25
800.3687	241.3582	18941.8	18268.35
800.5111	243.582	18936	18230.25
800.6536	245.8053	18987.2	18294.85
800.7961	248.0281	19010.85	18320.9
800.9387	250.2503	19026.1	18333.3
801.0812	252.472	19053.8	18359.75
801.2238	254.6932	19069.9	18376
801.3664	256.9139	19040.25	18346.95
801.509	259.134	19067.45	18367.2
801.6516	261.3536	19034.3	18338.05
801.7942	263.5727	19143.35	18445.1
801.9369	265.7912	19114.35	18414.05
802.0795	268.0092	19180.9	18479
802.2222	270.2267	19156.15	18457.5
802.3649	272.4436	19209.95	18509.3
802.5076	274.6601	19220.2	18508.25
802.6504	276.8759	19195.45	18484.75
802.7931	279.0913	19248.9	18539.95
802.9359	281.3061	19259.8	18551.3
803.0787	283.5204	19348.5	18636.95
803.2215	285.7341	19324.85	18608.65
803.3643	287.9473	19382.45	18655
803.5071	290.16	19354.05	18636.25
803.6499	292.3721	19326.7	18611.95
803.7928	294.5837	19318.4	18604
803.9357	296.7947	19303.2	18587.5
804.0786	299.0052	19278.1	18560.65
804.2215	301.2152	19207.85	18489.6
804.3644	303.4246	19274.9	18560.15
804.5074	305.6334	19226.6	18512.1
804.6503	307.8418	19233.25	18514.1
804.7933	310.0495	19251.9	18529.9
804.9363	312.2568	19185.05	18464.9
805.0793	314.4635	19098.55	18374
805.2223	316.6696	19076.3	18350
805.3653	318.8752	19040.5	18304.5
805.5084	321.0802	18977.65	18249.35
805.6514	323.2847	19038.1	18307.6
805.7945	325.4887	18969.55	18237.9
805.9376	327.692	18958	18222.1
806.0807	329.8949	19005.1	18272.75
806.2238	332.0972	19028	18290.65
806.367	334.2989	19044.85	18306.25
806.5101	336.5001	19062.7	18321.9
806.6533	338.7007	19040.4	18301.15
806.7965	340.9008	19035.7	18295.25
806.9397	343.1003	18967.35	18221.15
807.0829	345.2992	18987.9	18245.85
807.2261	347.4976	18952.5	18204.1
807.3693	349.6955	18939.55	18189.9
807.5126	351.8927	18974.8	18224.6
807.6559	354.0895	18909.4	18145.75
807.7991	356.2856	18947.55	18195.2
807.9424	358.4812	18891.25	18137.75
808.0857	360.6763	18916.65	18162.05
808.2291	362.8707	18910.2	18150.2
808.3724	365.0646	18914.9	18151.85
808.5158	367.258	18887.65	18123.7
808.6591	369.4508	18847.35	18080.3
808.8025	371.643	18902.75	18136.8
808.9459	373.8346	18850.35	18081.8
809.0893	376.0257	18834.05	18063.9
809.2327	378.2162	18792.45	18025.05
809.3762	380.4062	18797.3	18029.4
809.5196	382.5956	18750.2	17983.8
809.6631	384.7844	18727.25	17967
809.8066	386.9726	18677.95	17917.35
809.9501	389.1603	18644	17883.65
810.0936	391.3474	18651.25	17850.95
810.2371	393.5339	18629.1	17865.5
810.3806	395.7199	18571.6	17810.25
810.5241	397.9052	18581.55	17820.95
810.6677	400.09	18561.7	17798.7
810.8113	402.2743	18584.4	17820.35
810.9548	404.4579	18568.2	17802.7
811.0984	406.641	18625.1	17857.25
811.2421	408.8235	18640.55	17870.4
811.3857	411.0054	18684.55	17912.25
811.5293	413.1868	18752.7	17975.65
811.673	415.3675	18758.6	17980.5
811.8166	417.5477	18789.4	18009.3
811.9603	419.7273	18718.45	17938.65
812.104	421.9064	18593	17804.75
812.2477	424.0848	18537	17754.8
812.3914	426.2627	18443.65	17658.9
812.5351	428.4399	18401.05	17616.3
812.6788	430.6166	18333.35	17544.95
812.8226	432.7928	18291.75	17501.9
812.9663	434.9683	18230.8	17442.75
813.1101	437.1432	18188.2	17395.95
813.2539	439.3176	18141.9	17353.45
813.3977	441.4914	18086.85	17298.3
813.5415	443.6645	18056.25	17268.1
813.6853	445.8371	17983.4	17191.85
813.8291	448.0091	17903.25	17113.45
813.973	450.1806	17854.35	17062
814.1168	452.3514	17792.4	16999.95
814.2607	454.5216	17825.45	17024.15
814.4046	456.6913	17744.1	16949.5
814.5485	458.8603	17753.1	16957.7
814.6924	461.0288	17746.45	16954.3
814.8363	463.1967	17692.25	16897.8
814.9802	465.3639	17719.15	16924.15
815.1241	467.5306	17679.75	16884.9
815.2681	469.6967	17658.9	16862.3
815.412	471.8622	17601.35	16806.8
815.556	474.0271	17586.75	16791.05
815.7	476.1914	17614.1	16813.4
815.844	478.3551	17561.75	16763.7
815.988	480.5182	17580.45	16782.75
816.132	482.6807	17585.8	16788.4
816.276	484.8426	17576.95	16779
816.4201	487.0039	17648.25	16847.7
816.5641	489.1647	17649.55	16848.6
816.7082	491.3248	17693.05	16890.7
816.8522	493.4843	17636.15	16837.05
816.9963	495.6432	17656.1	16853.95
817.1404	497.8015	17602	16795.55
817.2845	499.9592	17577.7	16770.9
817.4286	502.1163	17546.45	16737.15
817.5727	504.2728	17491.25	16681.2
817.7168	506.4287	17552.35	16750.15
817.861	508.5839	17471.35	16664.75
818.0051	510.7386	17445	16638.15
818.1493	512.8927	17420.45	16610.35
818.2935	515.0461	17453.05	16642.55
818.4377	517.199	17430.85	16620.95
818.5818	519.3512	17457.05	16644.75
818.726	521.5029	17436.8	16619.85
818.8703	523.6539	17456.4	16642
819.0145	525.8043	17481.65	16666.15
819.1587	527.9541	17416.55	16600.3
819.303	530.1033	17363.4	16545.9
819.4472	532.2519	17332.65	16519.35
819.5915	534.3999	17282.65	16465.95
819.7357	536.5472	17274.6	16458.65
819.88	538.694	17245.6	16430.4
820.0243	540.8401	17273.9	16457.05
820.1686	542.9856	17296.2	16478.25
820.3129	545.1305	17267.5	16445.9
820.4572	547.2748	17266.05	16445.15
820.6016	549.4185	17264.2	16443.05
820.7459	551.5615	17255.95	16434.35
820.8902	553.704	17215.1	16394.4
821.0346	555.8458	17192.85	16375.75
821.1789	557.987	17243.75	16425.65
821.3233	560.1276	17219.5	16398.3
821.4677	562.2675	17224.5	16402.4
821.6121	564.4069	17250.6	16428.15
821.7565	566.5456	17234.45	16413.25
821.9009	568.6837	17205.45	16381.65
822.0453	570.8212	17135.65	16313.95
822.1897	572.958	17056.75	16230.1
822.3342	575.0942	17041.05	16215.95
822.4786	577.2299	16975	16150.15
822.6231	579.3648	16903.7	16082
822.7675	581.4992	16833.75	16013.35
822.912	583.6329	16780.1	15959.15
823.0565	585.766	16749.2	15927.15
823.201	587.8985	16739.9	15918
823.3454	590.0304	16730.3	15890.75
823.4899	592.1616	16694.9	15862.5
823.6345	594.2922	16699.95	15870.75
823.779	596.4222	16621.55	15790.75
823.9235	598.5515	16574.55	15744.85
824.068	600.6802	16515.3	15684.1
824.2126	602.8083	16447.3	15617.75
824.3571	604.9358	16404.95	15574
824.5017	607.0626	16389.95	15558.55
824.6462	609.1888	16333.2	15499.7
824.7908	611.3144	16328	15491.7
824.9354	613.4393	16295	15461.8
825.08	615.5636	16327.5	15493.75
825.2246	617.6873	16360.7	15523.75
825.3692	619.8103	16387.7	15551.75
825.5138	621.9327	16336.55	15498.5
825.6584	624.0544	16291.35	15460.6
825.803	626.1756	16243.4	15409.9
825.9477	628.2961	16231.35	15392.65
826.0923	630.4159	16209.7	15377.2
826.237	632.5351	16204.35	15364.2
826.3816	634.6537	16147.55	15310.95
826.5263	636.7716	16102.1	15262.55
826.6709	638.8889	16126	15285.1
826.8156	641.0056	16156.65	15317.8
826.9603	643.1216	16092.8	15251.5
827.105	645.237	16130	15287.45
827.2497	647.3518	16076.5	15237.85
827.3944	649.4659	16085.85	15246.7
827.5391	651.5793	16033.35	15193.4
827.6838	653.6922	15974	15136.15
827.8285	655.8043	15965.7	15124.9
827.9733	657.9159	15972.9	15132.75
828.118	660.0268	15876.1	15031.65
828.2627	662.137	15852.25	15008.55
828.4075	664.2466	15868.8	15022.9
828.5522	666.3556	15870.05	15027.15
828.697	668.4639	15819.7	14973.45
828.8418	670.5716	15822.2	14980.4
828.9865	672.6786	15851.95	15004.45
829.1313	674.785	15791.6	14944.55
829.2761	676.8907	15715.5	14873
829.4209	678.9958	15703.7	14861.55
829.5657	681.1002	15663.4	14815.6
829.7105	683.204	15661.6	14810.15
829.8553	685.3072	15633.2	14782.3
830.0001	687.4097	15583.2	14733.2
830.1449	689.5115	15606.5	14757.05
830.2898	691.6127	15602.85	14756.1
830.4346	693.7132	15558.75	14712.4
830.5794	695.8131	15574.55	14712.35
830.7243	697.9123	15572.4	14722.55
830.8691	700.0109	15513.75	14663.8
831.014	702.1089	15521.05	14673.8
831.1588	704.2061	15511.2	14662.7
831.3037	706.3028	15509.95	14657.65
831.4486	708.3987	15514.25	14661.7
831.5935	710.4941	15504.8	14654.75
831.7383	712.5887	15456.9	14606.25
831.8832	714.6827	15473.6	14619.55
832.0281	716.7761	15426.4	14575.2
832.173	718.8688	15430.05	14576.6
832.3179	720.9608	15395.3	14539.15
832.4628	723.0522	15427.65	14571.1
832.6077	725.1429	15389.7	14534.25
832.7527	727.233	15374.35	14519.5
832.8976	729.3224	15416.95	14561.65
833.0425	731.4112	15361.35	14505.7
833.1874	733.4993	15352.25	14492.95
833.3324	735.5867	15304.5	14448.55
833.4773	737.6735	15260.6	14405.05
833.6222	739.7596	15242.35	14385.5
833.7672	741.845	15181.05	14323.55
833.9122	743.9298	15158.3	14298.85
834.0571	746.014	15151.2	14295.55
834.2021	748.0974	15102.35	14242.75
834.347	750.1802	15076.85	14219.35
834.492	752.2624	15055.25	14197.6
834.637	754.3439	14986.4	14125.3
834.782	756.4247	14963.5	14093.95
834.9269	758.5048	14925.3	14068.15
835.0719	760.5843	14883.85	14024.25
835.2169	762.6631	14788.35	13928.3
835.3619	764.7413	14822.2	13961.65
835.5069	766.8188	14892.25	14031.75
835.6519	768.8956	14866.95	14005
835.7969	770.9718	14872.55	14014.45
835.9419	773.0473	14824.7	13964.55
836.0869	775.1221	14788.05	13927.6
836.232	777.1962	14734.8	13873.05
836.377	779.2697	14727.05	13866.65
836.522	781.3426	14742.5	13859.25
836.667	783.4147	14721.6	13860.6
836.8121	785.4862	14731.9	13873.65
836.9571	787.557	14644.75	13783.25
837.1021	789.6271	14557.15	13693.75
837.2472	791.6966	14509.95	13644.55
837.3922	793.7654	14432.1	13569.65
837.5373	795.8335	14378.5	13517.45
837.6823	797.901	14337.35	13474.55
837.8274	799.9678	14324.2	13457.1
837.9724	802.0339	14315.95	13452.25
838.1175	804.0993	14298.2	13424.1
838.2626	806.1641	14227.25	13362.3
838.4076	808.2282	14175.15	13310.45
838.5527	810.2916	14191.05	13327.1
838.6978	812.3544	14151	13286.5
838.8428	814.4164	14114.85	13249.6
838.9879	816.4778	14172.1	13307.75
839.133	818.5385	14115.4	13250.95
839.2781	820.5986	14132.15	13266.9
839.4232	822.658	14137.1	13268.4
839.5682	824.7166	14136.15	13269
839.7133	826.7747	14182.6	13317.5
839.8584	828.832	14196.65	13327.2
840.0035	830.8886	14168.85	13302.45
840.1486	832.9446	14138.3	13271.3
840.2937	834.9999	14112.85	13249.75
840.4388	837.0545	14072.45	13200.4
840.5839	839.1085	14010.05	13143.6
840.729	841.1618	13953.55	13081.15
840.8741	843.2143	13888.05	13022.35
841.0192	845.2662	13818.8	12951.55
841.1643	847.3175	13815.25	12947.8
841.3095	849.368	13788.95	12918.45
841.4546	851.4179	13801.5	12934.5
841.5997	853.467	13709.9	12842.4
841.7448	855.5155	13707.8	12838.5
841.8899	857.5633	13692.3	12825.65
842.0351	859.6105	13669.05	12801.45
842.1802	861.6569	13638.85	12769.05
842.3253	863.7027	13615.1	12741.95
842.4704	865.7478	13613.45	12742.75
842.6156	867.7922	13572.8	12702.8
842.7607	869.8359	13536.15	12664.9
842.9058	871.8789	13521.8	12649.7
843.0509	873.9212	13557.35	12653.25
843.1961	875.9629	13497.35	12628.35
843.3412	878.0039	13494.6	12623.75
843.4863	880.0441	13474.75	12602.35
843.6315	882.0837	13491.2	12618.5
843.7766	884.1226	13478.15	12605.5
843.9218	886.1609	13482.85	12610.85
844.0669	888.1984	13501.8	12630.7
844.212	890.2352	13531.5	12659.35
844.3572	892.2714	13501.05	12623.85
844.5023	894.3069	13475.4	12602.05
844.6475	896.3416	13405.95	12532.4
844.7926	898.3757	13369.9	12498.25
844.9377	900.4091	13352.3	12477.95
845.0829	902.4418	13314.8	12437.8
845.228	904.4739	13281.65	12405.9
845.3732	906.5052	13309.2	12436.2
845.5183	908.5358	13275.25	12404.5
845.6635	910.5658	13265.65	12388.5
845.8086	912.595	13214.95	12340.95
845.9538	914.6236	13183.65	12310.05
846.0989	916.6515	13146.9	12274.4
846.2441	918.6786	13096.25	12222.55
846.3892	920.7051	13078.8	12202.75
846.5344	922.7309	13079.7	12204.45
846.6795	924.756	13034.85	12161.45
846.8246	926.7804	13027.75	12150.25
846.9698	928.8041	12929.8	12053.7
847.1149	930.8272	12972.85	12099.85
847.2601	932.8495	12881.9	12007.2
847.4052	934.8711	12903.7	12027.05
847.5504	936.892	12811.45	11936.55
847.6955	938.9123	12819.4	11943.05
847.8407	940.9318	12818.65	11943.95
847.9858	942.9506	12757.75	11879.05
848.131	944.9688	12712.1	11837.6
848.2761	946.9862	12713.15	11836.15
848.4213	949.003	12620	11743.1
848.5664	951.019	12584.2	11706.5
848.7115	953.0344	12555.05	11676.4
848.8567	955.0491	12528.7	11653.35
849.0018	957.063	12524.5	11646.95
849.147	959.0763	12518.85	11641.4
849.2921	961.0888	12481.75	11599.45
849.4373	963.1007	12476.9	11598.95
849.5824	965.1119	12459.2	11583.4
849.7275	967.1223	12443.3	11567.65
849.8727	969.1321	12397.75	11522.85
850.0178	971.1412	12409.55	11535.05
850.1629	973.1495	12387.75	11511.8
850.3081	975.1572	12425.4	11502.85
850.4532	977.1641	12382.35	11504.8
850.5983	979.1704	12348.6	11471.8
850.7435	981.1759	12280.35	11397.15
850.8886	983.1808	12254.1	11375.35
851.0337	985.1849	12264.15	11373.2
851.1788	987.1884	12206.2	11323.25
851.324	989.1911	12183.8	11302.2
851.4691	991.1932	12159.85	11280.25
851.6142	993.1945	12116.45	11236.9
851.7593	995.1951	12036.15	11157
851.9045	997.1951	12045.35	11159.1
852.0496	999.1943	11992.6	11115.75
852.1947	1001.1928	11950.9	11070.7
852.3398	1003.1906	11893.7	11015.4
852.4849	1005.1877	11896.45	11016.8
852.63	1007.1841	11861.9	10982.65
852.7751	1009.1798	11850.9	10968.55
852.9202	1011.1748	11807.05	10928.45
853.0653	1013.1691	11763.85	10884.2
853.2104	1015.1627	11702.25	10823.8
853.3555	1017.1556	11642.25	10765.15
853.5006	1019.1477	11606.7	10725.5
853.6457	1021.1392	11518.7	10642.1
853.7908	1023.1299	11491.4	10613.2
853.9359	1025.12	11465.9	10589.4
854.081	1027.1093	11391.65	10516.55
854.2261	1029.0979	11367.6	10494.35
854.3712	1031.0859	11343.75	10466.95
854.5163	1033.0731	11334.05	10456.3
854.6613	1035.0596	11289.05	10412.5
854.8064	1037.0454	11234.35	10356.35
854.9515	1039.0304	11211	10330.05
855.0965	1041.0148	11166.45	10288
855.2416	1042.9985	11100.95	10217.5
855.3867	1044.9814	11132.45	10254.85
855.5317	1046.9636	11047.6	10165.95
855.6768	1048.9452	11041.35	10162.15
855.8219	1050.926	11014.3	10133.9
855.9669	1052.9061	11004.35	10124.15
856.112	1054.8855	10980	10097.15
856.257	1056.8642	10952.45	10072.1
856.4021	1058.8421	10947.05	10059.55
856.5471	1060.8194	10911.95	10031.1
856.6921	1062.7959	10876.65	9996.4
856.8372	1064.7717	10858.7	9976.15
856.9822	1066.7469	10879.35	9995
857.1272	1068.7213	10869.5	9988.05
857.2723	1070.695	10828.65	9948.35
857.4173	1072.6679	10778.35	9896.75
857.5623	1074.6402	10782.8	9900.95
857.7073	1076.6117	10790.3	9905.55
857.8523	1078.5826	10775.45	9894.1
857.9973	1080.5527	10713.25	9828.15
858.1423	1082.5221	10663.5	9781.3
858.2873	1084.4908	10636.05	9751.8
858.4323	1086.4587	10582.55	9699.9
858.5773	1088.426	10542.6	9659.8
858.7223	1090.3925	10511.3	9625.45
858.8673	1092.3584	10516.65	9634.2
859.0123	1094.3235	10474.65	9595
859.1573	1096.2879	10456.4	9574.25
859.3022	1098.2515	10470.6	9587.15
859.4472	1100.2145	10477.15	9595.65
859.5922	1102.1767	10449	9564.55
859.7371	1104.1382	10454.1	9570.65
859.8821	1106.099	10445.45	9560.45
860.027	1108.0591	10424.9	9542.65
860.172	1110.0185	10444.9	9560.7
860.3169	1111.9771	10446.35	9562.4
860.4619	1113.9351	10427	9544.4
860.6068	1115.8923	10431.8	9547.1
860.7517	1117.8488	10413	9526.95
860.8967	1119.8045	10359.5	9476.25
861.0416	1121.7596	10313.75	9430.55
861.1865	1123.7139	10207.7	9326.3
861.3314	1125.6675	10162.3	9278.2
861.4763	1127.6204	10175.2	9294.05
861.6212	1129.5726	10134.15	9248.15
861.7661	1131.524	10132.75	9251.1
861.911	1133.4748	10087.65	9205.25
862.0559	1135.4248	10046.55	9159.5
862.2008	1137.3741	9980.35	9098.3
862.3457	1139.3226	9975.65	9090.85
862.4905	1141.2705	9969.1	9085.75
862.6354	1143.2176	9932	9042.65
862.7803	1145.164	9927.05	9038.75
862.9251	1147.1097	9902.45	9016.8
863.07	1149.0546	9855.05	8971.1
863.2148	1150.9989	9864.8	8979.2
863.3597	1152.9424	9832.05	8947.7
863.5045	1154.8852	9788.1	8901.75
863.6493	1156.8272	9792.8	8909.4
863.7942	1158.7686	9789.5	8898.95
863.939	1160.7092	9750.1	8862.9
864.0838	1162.6491	9711.25	8824
864.2286	1164.5883	9719.75	8835.65
864.3734	1166.5267	9702.35	8818.25
864.5182	1168.4644	9701.1	8815.45
864.663	1170.4014	9704.9	8814.15
864.8078	1172.3377	9725.3	8842.3
864.9526	1174.2732	9727.25	8843.85
865.0974	1176.2081	9789.55	8906.45
865.2421	1178.1421	9809.3	8921.65
865.3869	1180.0755	9862.2	8979.8
865.5317	1182.0082	9836.3	8951.7
865.6764	1183.9401	9802.9	8919.45
865.8212	1185.8713	9745.7	8860.6
865.9659	1187.8017	9687.9	8805.85
866.1106	1189.7315	9628.8	8745.6
866.2554	1191.6605	9525.55	8642.5
866.4001	1193.5888	9457.7	8575
866.5448	1195.5163	9440.25	8556.7
866.6895	1197.4432	9400.05	8515.15
866.8342	1199.3693	9356.3	8472.25
866.9789	1201.2947	9330.35	8437
867.1236	1203.2193	9267.9	8379.4
867.2683	1205.1432	9270.3	8383.15
867.413	1207.0664	9212	8325.85
867.5576	1208.9889	9179.7	8290.65
867.7023	1210.9106	9173.05	8290.3
867.847	1212.8316	9157.3	8272.7
867.9916	1214.7519	9120.45	8227
868.1363	1216.6715	9097.9	8215.25
868.2809	1218.5903	9072.1	8189.05
868.4255	1220.5084	9082.95	8196.9
868.5701	1222.4257	9096.95	8213.45
868.7148	1224.3424	9053.05	8168.4
868.8594	1226.2583	9055.9	8167.55
869.004	1228.1735	9026.3	8140.75
869.1486	1230.0879	8991.75	8105.05
869.2932	1232.0016	9013.7	8130.25
869.4377	1233.9146	9008.85	8121.25
869.5823	1235.8269	8991.85	8108.75
869.7269	1237.7384	9007.25	8120.9
869.8715	1239.6492	8962.5	8075.8
870.016	1241.5592	8997.95	8110.7
870.1606	1243.4686	8957.15	8072.7
870.3051	1245.3772	8993.45	8108.55
870.4496	1247.285	9007.65	8119.6
870.5941	1249.1922	9032.95	8147.75
870.7387	1251.0986	9045.4	8162.3
870.8832	1253.0042	9054.6	8170.2
871.0277	1254.9092	9080.25	8195.7
871.1722	1256.8134	9114.7	8228.45
871.3167	1258.7169	9140.7	8252.65
871.4611	1260.6196	9149.55	8264.65
871.6056	1262.5216	9116.15	8230.35
871.7501	1264.4229	9111.7	8226.05
871.8945	1266.3234	9080.95	8195.5
872.039	1268.2232	9075.15	8186.6
872.1834	1270.1223	9005.2	8117.15
872.3278	1272.0207	8950.4	8064.05
872.4723	1273.9183	8943.05	8051.65
872.6167	1275.8151	8933.6	8045.55
872.7611	1277.7113	8941.45	8053.95
872.9055	1279.6067	8976.3	8090.2
873.0499	1281.5014	9021.15	8130.75
873.1943	1283.3953	9101.25	8212.15
873.3386	1285.2885	9182.7	8296.55
873.483	1287.181	9258.1	8371.55
873.6274	1289.0727	9274.15	8389.9
873.7717	1290.9637	9247.3	8361.85
873.9161	1292.854	9224.3	8337.15
874.0604	1294.7435	9124.5	8235.35
874.2047	1296.6323	9056.7	8171.4
874.349	1298.5204	8991.15	8101.1
874.4933	1300.4077	8956.45	8068.85
874.6376	1302.2943	8920.45	8033.05
874.7819	1304.1802	8923.8	8038
874.9262	1306.0653	8863.35	7973.9
875.0705	1307.9497	8820	7934.3
875.2147	1309.8333	8809.95	7921.9
875.359	1311.7162	8790.4	7903.35
875.5032	1313.5984	8767.7	7877.75
875.6475	1315.4798	8725.35	7827.9
875.7917	1317.3605	8708.05	7804.55
875.9359	1319.2405	8712.2	7822.55
876.0801	1321.1197	8689.65	7801
876.2243	1322.9982	8616.1	7726
876.3685	1324.876	8591.35	7704.25
876.5127	1326.753	8529.35	7640.35
876.6569	1328.6293	8478.35	7589.4
876.801	1330.5048	8453.95	7565.6
876.9452	1332.3796	8369.25	7484.65
877.0893	1334.2537	8372.3	7460.6
877.2335	1336.127	8304.75	7415.6
877.3776	1337.9996	8298.7	7408.95
877.5217	1339.8714	8248.55	7361.35
877.6658	1341.7426	8261.9	7331.2
877.8099	1343.6129	8218.9	7330.35
877.954	1345.4826	8202.65	7316.05
878.0981	1347.3515	8178.5	7289.2
878.2422	1349.2196	8148.75	7260.2
878.3862	1351.087	8175.05	7286.7
878.5303	1352.9537	8148.7	7260.7
878.6743	1354.8197	8134.95	7247.9
878.8184	1356.6849	8156.05	7267.8
878.9624	1358.5493	8116.7	7230.8
879.1064	1360.4131	8125.85	7238.25
879.2504	1362.276	8109.9	7222.6
879.3944	1364.1383	8126.4	7239.65
879.5384	1365.9998	8110.35	7216.65
879.6823	1367.8606	8096.25	7207.05
879.8263	1369.7206	8074.45	7186
879.9702	1371.5799	8034.45	7145
880.1142	1373.4384	8011.6	7123.9
880.2581	1375.2962	8008.4	7119.4
880.402	1377.1533	7951.35	7062.25
880.5459	1379.0096	7886.9	6998.95
880.6898	1380.8652	7847.45	6959.6
880.8337	1382.7201	7817.7	6930.3
880.9776	1384.5742	7773.65	6887.35
881.1215	1386.4275	7725.95	6838.55
881.2653	1388.2802	7698.95	6810.4
881.4092	1390.132	7694.15	6804.95
881.553	1391.9832	7661.75	6773.85
881.6968	1393.8336	7645.2	6757.85
881.8406	1395.6832	7582.7	6695.3
881.9844	1397.5322	7586.2	6699.6
882.1282	1399.3803	7553.85	6660.5
882.272	1401.2278	7502.9	6613.75
882.4158	1403.0745	7483.15	6595.75
882.5595	1404.9204	7462.45	6575.4
882.7033	1406.7656	7429.65	6541.95
882.847	1408.6101	7419.2	6530.15
882.9908	1410.4538	7375.4	6487.4
883.1345	1412.2968	7370.6	6484.25
883.2782	1414.139	7354.95	6467
883.4219	1415.9805	7334.85	6445.75
883.5656	1417.8213	7310.75	6416.5
883.7092	1419.6613	7280.1	6393
883.8529	1421.5006	7303.9	6416.4
883.9965	1423.3391	7319.2	6431.75
884.1402	1425.1769	7290.05	6402.75
884.2838	1427.0139	7341.55	6451.35
884.4274	1428.8502	7366.25	6478.75
884.571	1430.6858	7377.55	6492.05
884.7146	1432.5206	7376.15	6487.05
884.8582	1434.3547	7372.95	6483.65
885.0018	1436.188	7330.25	6443.15
885.1453	1438.0206	7328.2	6438.15
885.2889	1439.8524	7297.45	6407.45
885.4324	1441.6835	7279.85	6391
885.5759	1443.5139	7263.35	6373.25
885.7194	1445.3435	7240.45	6355.45
885.8629	1447.1724	7244.5	6357.9
886.0064	1449.0005	7221.25	6336.85
886.1499	1450.8279	7205.3	6314.25
886.2933	1452.6545	7211.05	6325.4
886.4368	1454.4804	7220.95	6334.4
886.5802	1456.3056	7199.95	6304.05
886.7237	1458.13	7165.5	6276.5
886.8671	1459.9536	7157.3	6267.9
887.0105	1461.7766	7099.15	6211.25
887.1539	1463.5987	7061.55	6172.85
887.2972	1465.4202	7057.8	6171
887.4406	1467.2409	6988.35	6101.85
887.584	1469.0608	6983.9	6095.05
887.7273	1470.88	6956.05	6069.35
887.8706	1472.6984	6921.65	6034
888.0139	1474.5161	6897.6	6004.75
888.1572	1476.3331	6868	5980.9
888.3005	1478.1493	6855.2	5968.2
888.4438	1479.9648	6851.45	5963.6
888.5871	1481.7795	6817.9	5931.95
888.7303	1483.5935	6806.05	5917.9
888.8736	1485.4067	6806.95	5917.55
889.0168	1487.2192	6796.15	5909.25
889.16	1489.031	6801.85	5911.85
889.3032	1490.842	6766.35	5878.45
889.4464	1492.6522	6770.7	5881.9
889.5896	1494.4618	6730.5	5843.1
889.7327	1496.2705	6734.25	5848.6
889.8759	1498.0785	6700.95	5815
890.019	1499.8858	6677.5	5790.7
890.1622	1501.6924	6679.05	5794.3
890.3053	1503.4981	6667.9	5780.75
890.4484	1505.3032	6642.4	5755.9
890.5914	1507.1075	6610.4	5721.6
890.7345	1508.911	6604	5719.1
890.8776	1510.7138	6594.8	5704.9
891.0206	1512.5159	6544.45	5658.4
891.1637	1514.3172	6541.65	5652.35
891.3067	1516.1178	6522.95	5635.9
891.4497	1517.9176	6505.5	5617.55
891.5927	1519.7166	6482.45	5598.25
891.7357	1521.515	6457.1	5562.9
891.8786	1523.3126	6456.55	5568.3
892.0216	1525.1094	6420.4	5530.85
892.1645	1526.9055	6396.55	5512.2
892.3074	1528.7008	6365.55	5477.5
892.4503	1530.4954	6323.35	5437.2
892.5932	1532.2893	6317.55	5430.3
892.7361	1534.0824	6283.25	5392.45
892.879	1535.8747	6281.7	5394.05
893.0218	1537.6663	6247.55	5359.15
893.1647	1539.4572	6219.6	5331.75
893.3075	1541.2473	6219.65	5331.95
893.4503	1543.0367	6201.1	5316
893.5931	1544.8253	6177.8	5286.3
893.7359	1546.6132	6159.6	5270.35
893.8787	1548.4003	6151.35	5253.7
894.0214	1550.1867	6129.5	5234.1
894.1642	1551.9723	6114.85	5224.15
894.3069	1553.7572	6110.5	5224.6
894.4496	1555.5414	6095.2	5209.5
894.5923	1557.3247	6100.5	5216.6
894.735	1559.1074	6109.1	5224.55
894.8777	1560.8893	6091.6	5207.5
895.0204	1562.6705	6085.2	5199.7
895.163	1564.4509	6087.45	5205.15
895.3056	1566.2305	6068.35	5185.6
895.4482	1568.0094	6063.45	5180.65
895.5908	1569.7876	6062.3	5177.3
895.7334	1571.565	6035	5149.4
895.876	1573.3417	6031.4	5146
896.0186	1575.1176	6001.8	5116.7
896.1611	1576.8928	6012.4	5126.35
896.3036	1578.6672	5991.5	5108.75
896.4461	1580.4409	5966.85	5083.1
896.5886	1582.2138	5965.6	5078.5
896.7311	1583.986	5984.25	5099.35
896.8736	1585.7575	5981.5	5096.75
897.0161	1587.5282	5986.05	5101.85
897.1585	1589.2981	5978.9	5098.2
897.3009	1591.0673	5972.4	5089.1
897.4433	1592.8358	5959.9	5076.8
897.5857	1594.6035	5955.8	5071.2
897.7281	1596.3704	5914.35	5028.65
897.8705	1598.1366	5882.65	5000.55
898.0128	1599.9021	5854.75	4971
898.1551	1601.6668	5819.45	4932.2
898.2975	1603.4308	5793.6	4907.8
898.4398	1605.194	5780.15	4889.75
898.5821	1606.9564	5794.25	4912.6
898.7243	1608.7182	5801.85	4916.6
898.8666	1610.4791	5838.65	4958.15
899.0088	1612.2394	5861.55	4982.3
899.1511	1613.9988	5873.2	4992.7
899.2933	1615.7576	5923.75	5041.55
899.4355	1617.5156	5927.5	5038.5
899.5776	1619.2728	5900.25	5015.85
899.7198	1621.0293	5835.55	4953.3
899.862	1622.785	5761.55	4875.6
900.0041	1624.54	5656.65	4770.2
900.1462	1626.2942	5585.3	4699.95
900.2883	1628.0477	5505.1	4620.2
900.4304	1629.8005	5432.45	4545.95
900.5725	1631.5525	5382.45	4500.65
900.7145	1633.3037	5345.25	4463.8
900.8566	1635.0542	5311.2	4428
900.9986	1636.804	5274.8	4391.4
901.1406	1638.553	5332.2	4358.3
901.2826	1640.3013	5240.8	4357.15
901.4245	1642.0488	5183.35	4298.3
901.5665	1643.7955	5150.15	4267.55
901.7085	1645.5416	5124.75	4243.5
901.8504	1647.2868	5124.75	4243.6
901.9923	1649.0313	5093.1	4210.8
902.1342	1650.7751	5085.3	4198
902.2761	1652.5181	5058.05	4176.35
902.4179	1654.2604	5053.25	4169
902.5598	1656.0019	5031.15	4149.15
902.7016	1657.7427	5040.55	4156.7
902.8434	1659.4828	5023	4141.25
902.9852	1661.222	5020.1	4136.4
903.127	1662.9606	5018.2	4135.85
903.2687	1664.6984	5039.9	4155.35
903.4105	1666.4354	5036.6	4153.9
903.5522	1668.1717	4996.35	4112.2
903.6939	1669.9072	4972.2	4087.75
903.8356	1671.642	4911.8	4025.1
903.9773	1673.3761	4893.95	4012.65
904.119	1675.1094	4855.35	3971.25
904.2606	1676.8419	4816.75	3932
904.4022	1678.5737	4806.5	3922.5
904.5439	1680.3048	4768.55	3884.75
904.6855	1682.0351	4745.7	3860.15
904.827	1683.7646	4732.5	3846.1
904.9686	1685.4934	4705.7	3823.2
905.1101	1687.2215	4693.65	3809.55
905.2517	1688.9488	4652.1	3770.85
905.3932	1690.6754	4628.9	3745.5
905.5347	1692.4012	4621.5	3737.7
905.6761	1694.1263	4615.7	3731.1
905.8176	1695.8506	4606.7	3722.55
905.9591	1697.5742	4577.9	3697.2
906.1005	1699.297	4565.6	3682.6
906.2419	1701.0191	4546.5	3663.4
906.3833	1702.7404	4525.6	3644.95
906.5246	1704.461	4506.45	3620.3
906.666	1706.1808	4475.7	3592
906.8073	1707.8999	4463.7	3579.3
906.9487	1709.6182	4462.75	3580
907.09	1711.3358	4448.35	3568.4
907.2313	1713.0527	4439.8	3558.45
907.3725	1714.7688	4419.7	3530.75
907.5138	1716.4841	4411.4	3527.6
907.655	1718.1987	4402.95	3516.9
907.7962	1719.9126	4390.25	3508.65
907.9374	1721.6257	4380	3494.75
908.0786	1723.338	4348.8	3466.2
908.2198	1725.0496	4344.3	3461.35
908.3609	1726.7605	4349.55	3467.25
908.502	1728.4706	4317.1	3433.35
908.6431	1730.18	4311.2	3427.95
908.7842	1731.8886	4314.15	3432.1
908.9253	1733.5964	4306	3418
909.0664	1735.3036	4295.95	3412
909.2074	1737.0099	4293.15	3410.45
909.3484	1738.7156	4291	3409.65
909.4894	1740.4204	4288.15	3403.9
909.6304	1742.1246	4272.05	3388.8
909.7714	1743.8279	4270	3387.95
909.9123	1745.5306	4274.9	3392.8
910.0532	1747.2325	4265.1	3382.95
910.1941	1748.9336	4240.55	3356.9
910.335	1750.634	4239.95	3353.9
910.4759	1752.3336	4228.3	3346.9
910.6168	1754.0325	4231.45	3350.4
910.7576	1755.7307	4220.65	3340.45
910.8984	1757.4281	4227.4	3343.85
911.0392	1759.1247	4242.4	3350.95
911.18	1760.8206	4236.65	3347.85
911.3208	1762.5158	4203.6	3317.2
911.4615	1764.2102	4199.8	3318.35
911.6022	1765.9039	4178.1	3297.25
911.7429	1767.5968	4166.85	3285.85
911.8836	1769.289	4163.3	3281.25
912.0243	1770.9804	4178.65	3294.45
912.1649	1772.6711	4148.9	3264.9
912.3056	1774.361	4154.1	3269.6
912.4462	1776.0502	4149.1	3266.95
912.5868	1777.7386	4139.25	3254.3
912.7274	1779.4263	4113.3	3230.8
912.8679	1781.1132	4116.25	3235.15
913.0084	1782.7994	4106.4	3223.4
913.149	1784.4849	4087.1	3207.4
913.2895	1786.1696	4091.6	3191.3
913.4299	1787.8535	4081	3201.3
913.5704	1789.5367	4051	3168.75
913.7108	1791.2192	4061.55	3182
913.8513	1792.9009	4063.1	3149.9
913.9917	1794.5818	4054.85	3170.55
914.132	1796.2621	4022.85	3141.4
914.2724	1797.9415	4023.3	3138.25
914.4128	1799.6202	4000.75	3118.45
914.5531	1801.2982	3999.8	3115.2
914.6934	1802.9755	3991.25	3108.6
914.8337	1804.6519	3987.7	3105.15
914.9739	1806.3277	3970.7	3089.05
915.1142	1808.0027	3968.8	3087.9
915.2544	1809.6769	3967.1	3084.05
915.3946	1811.3504	3944.9	3062.25
915.5348	1813.0231	3957.75	3077
915.675	1814.6951	3946.75	3064.6
915.8151	1816.3664	3956.6	3070.7
915.9553	1818.0369	3940.65	3058.8
916.0954	1819.7067	3912.25	3031.1
916.2355	1821.3757	3923.95	3040.65
916.3755	1823.044	3912.15	3028.25
916.5156	1824.7115	3901.45	3018.5
916.6556	1826.3783	3905.85	3024.55
916.7956	1828.0443	3876.6	2994.2
916.9356	1829.7096	3877.75	2993.15
917.0756	1831.3741	3866.85	2979.7
917.2155	1833.0379	3862.85	2981.95
917.3555	1834.701	3861.6	2977.6
917.4954	1836.3633	3847.35	2965.9
917.6353	1838.0248	3841.05	2957.35
917.7751	1839.6856	3847.5	2964.8
917.915	1841.3457	3830.85	2950.25
918.0548	1843.005	3818.75	2936.8
918.1946	1844.6636	3814.2	2933.1
918.3344	1846.3214	3805.25	2923.7
918.4742	1847.9785	3798.55	2917.1
918.6139	1849.6349	3794	2910.25
918.7537	1851.2904	3783	2891.25
918.8934	1852.9453	3801.8	2917.65
919.0331	1854.5994	3774.95	2889.85
919.1727	1856.2528	3769.3	2881.65
919.3124	1857.9054	3758.55	2874.85
919.452	1859.5572	3741.6	2859.25
919.5916	1861.2083	3749.05	2865.2
919.7312	1862.8587	3743.95	2862.5
919.8708	1864.5084	3739.35	2854.65
920.0103	1866.1572	3734.65	2852.5
920.1498	1867.8054	3713.45	2829.8
920.2893	1869.4528	3712.45	2830.55
920.4288	1871.0994	3701.75	2818.8
920.5683	1872.7453	3694.4	2811.3
920.7077	1874.3905	3693.45	2804.8
920.8471	1876.0349	3684.55	2801.7
920.9865	1877.6786	3689.2	2803.7
921.1259	1879.3215	3661.05	2777.35
921.2653	1880.9637	3667.5	2783.55
921.4046	1882.6051	3648.1	2766.75
921.5439	1884.2458	3663.7	2779.3
921.6832	1885.8858	3652.2	2768.6
921.8225	1887.525	3645	2762.35
921.9617	1889.1634	3620.55	2736.05
922.101	1890.8011	3618.25	2736.95
922.2402	1892.4381	3610.25	2726.5
922.3794	1894.0743	3607	2722.15
922.5185	1895.7098	3599.6	2716.4
922.6577	1897.3446	3593.5	2709.5
922.7968	1898.9786	3602.6	2714.7
922.9359	1900.6118	3583.8	2702.45
923.075	1902.2443	3580.8	2695
923.214	1903.8761	3574.2	2691.2
923.3531	1905.5071	3549.65	2666.95
923.4921	1907.1374	3546.05	2663.15
923.6311	1908.7669	3541.15	2658.2
923.77	1910.3957	3524.1	2641.75
923.909	1912.0237	3521	2638.25
924.0479	1913.651	3514.45	2630.65
924.1868	1915.2776	3505.35	2624.05
924.3257	1916.9034	3509.65	2626.9
924.4646	1918.5285	3487.15	2604.9
924.6034	1920.1528	3470.1	2589.15
924.7422	1921.7764	3469.6	2586.85
924.881	1923.3992	3463.05	2582.45
925.0198	1925.0213	3438.7	2554.55
925.1586	1926.6427	3436.7	2556.05
925.2973	1928.2633	3604.95	2507.65
925.436	1929.8832	3467.9	2582.7
925.5747	1931.5023	3422.2	2539.45
925.7134	1933.1207	3405.5	2523
925.852	1934.7383	3421.65	2537.85
925.9906	1936.3552	3396.65	2515.85
926.1292	1937.9714	3395.25	2514
926.2678	1939.5868	3378.45	2493
926.4064	1941.2015	3375.55	2491
926.5449	1942.8154	3369.35	2485.65
926.6834	1944.4286	3365.05	2480.85
926.8219	1946.041	3363.7	2462.25
926.9604	1947.6528	3334.55	2446.7
927.0988	1949.2637	3345.35	2462.65
927.2372	1950.8739	3334.65	2451.3
927.3756	1952.4834	3324.75	2441.2
927.514	1954.0921	3313.6	2429.6
927.6523	1955.7001	3314.05	2427.1
927.7907	1957.3074	3307.7	2427.7
927.929	1958.9139	3297.9	2416.75
928.0673	1960.5197	3297.75	2415.05
928.2055	1962.1247	3302.8	2420.95
928.3438	1963.729	3278	2397.35
928.482	1965.3325	3285.05	2381.5
928.6202	1966.9353	3251.35	2369.8
928.7584	1968.5374	3257.75	2374.2
928.8965	1970.1387	3249	2368.75
929.0346	1971.7393	3245	2360.7
929.1727	1973.3392	3219.65	2337.4
929.3108	1974.9383	3225.6	2345.55
929.4489	1976.5366	3217.95	2336.1
929.5869	1978.1342	3211.55	2330.25
929.7249	1979.7311	3218.4	2335.5
929.8629	1981.3273	3217.35	2338.2
930.0009	1982.9227	3194.25	2310.85
930.1388	1984.5173	3189.35	2311.45
930.2767	1986.1112	3184.05	2305
930.4146	1987.7044	3173.15	2292.95
930.5525	1989.2968	3185.65	2303.7
930.6904	1990.8885	3176.8	2294.8
930.8282	1992.4795	3180.3	2297.95
930.966	1994.0697	3159.3	2276.65
931.1038	1995.6592	3157.65	2276.1
931.2415	1997.2479	3151.65	2272.45
931.3793	1998.8359	3146.85	2264.1
931.517	2000.4232	3122.8	2243.95
931.6547	2002.0097	3129.15	2250.8
931.7923	2003.5955	3115.5	2234.55
931.93	2005.1805	3123.5	2245.45
932.0676	2006.7648	3113.9	2234.7
932.2052	2008.3484	3103.95	2223.15
932.3427	2009.9312	3112.7	2230.7
932.4803	2011.5133	3093.15	2215.75
932.6178	2013.0946	3108.15	2228.15
932.7553	2014.6752	3086.85	2208.7
932.8928	2016.2551	3088.25	2207.35
933.0302	2017.8342	3080.5	2200.55
933.1676	2019.4126	3074.75	2197.05
933.305	2020.9902	3064.95	2186.7
933.4424	2022.5672	3067.95	2188.45
933.5798	2024.1433	3061.35	2179.1
933.7171	2025.7188	3055.3	2177.85
933.8544	2027.2935	3048.85	2167.2
933.9917	2028.8674	3050.35	2172.75
934.129	2030.4406	3031.6	2153.1
934.2662	2032.0131	3028.7	2149.1
934.4034	2033.5849	3036.15	2153.9
934.5406	2035.1559	3015.85	2136.1
934.6778	2036.7261	3024.4	2146.5
934.8149	2038.2957	3007.2	2127.1
934.952	2039.8645	3009.85	2131.1
935.0891	2041.4325	3023.05	2138.95
935.2262	2042.9998	3003	2123.25
935.3632	2044.5664	2991.7	2110.4
935.5002	2046.1323	2991.3	2113.6
935.6372	2047.6974	2993.45	2114.35
935.7742	2049.2617	2996.05	2117.8
935.9111	2050.8254	2999.1	2114.4
936.048	2052.3883	2997.3	2116.4
936.1849	2053.9504	2987.9	2106.75
936.3218	2055.5118	2975.1	2093.4
936.4586	2057.0725	2977.15	2092.8
936.5955	2058.6325	2978.5	2098.85
936.7323	2060.1917	2957.15	2078.15
936.869	2061.7502	2977.9	2095.55
937.0058	2063.3079	2961.2	2081.85
937.1425	2064.8649	2950.65	2068.2
937.2792	2066.4212	2948.2	2066.4
937.4159	2067.9767	2950.95	2071.05
937.5525	2069.5315	2940.25	2060.55
937.6891	2071.0856	2928.2	2048.15
937.8257	2072.6389	2932.55	2053.1
937.9623	2074.1915	2914.95	2036.7
938.0989	2075.7433	2904.35	2024.5
938.2354	2077.2945	2915.35	2038.1
938.3719	2078.8448	2907.5	2028.8
938.5084	2080.3945	2906.75	2028.3
938.6448	2081.9434	2908.1	2029.15
938.7812	2083.4916	2908.8	2027.5
938.9176	2085.039	2888.7	2008.2
939.054	2086.5857	2888.35	2006.3
939.1903	2088.1317	2892.7	2011.4
939.3267	2089.677	2877.45	1994.6
939.463	2091.2215	2876.95	1995.75
939.5992	2092.7652	2873.1	1989.35
939.7355	2094.3083	2864.1	1982.8
939.8717	2095.8506	2866.2	1988
940.0079	2097.3921	2872.55	1991.2
940.1441	2098.933	2854.4	1975.55
940.2802	2100.4731	2847.9	1968.15
940.4163	2102.0124	2860.15	1961.2
940.5524	2103.5511	2854.9	1977.5
940.6885	2105.089	2856.75	1976.85
940.8245	2106.6261	2851.05	1971.85
940.9606	2108.1626	2849.45	1966.6
941.0965	2109.6983	2886.05	1975.3
941.2325	2111.2332	2854.1	1972.3
941.3684	2112.7675	2848.85	1966.1
941.5044	2114.301	2839.3	1957.65
941.6403	2115.8337	2835.35	1956.5
941.7761	2117.3657	2833.55	1955.3
941.912	2118.897	2815.4	1934.05
942.0478	2120.4276	2812.2	1925.35
942.1835	2121.9575	2809.2	1930.45
942.3193	2123.4866	2817.15	1934.1
942.455	2125.0149	2814.8	1928.35
942.5907	2126.5426	2800.35	1920.65
942.7264	2128.0695	2793.5	1910.35
942.8621	2129.5956	2807.25	1929.95
942.9977	2131.1211	2804.25	1921.35
943.1333	2132.6458	2794.8	1914.95
943.2689	2134.1698	2782.35	1902.55
943.4044	2135.693	2776.85	1895.35
943.54	2137.2155	2788.65	1907.75
943.6755	2138.7373	2785.2	1904.15
943.8109	2140.2584	2762.85	1882.15
943.9464	2141.7787	2770.9	1887.2
944.0818	2143.2983	2751.15	1872.3
944.2172	2144.8171	2743.7	1864.65
944.3526	2146.3353	2756.5	1875.3
944.4879	2147.8527	2740.8	1861.5
944.6232	2149.3693	2750	1868.4
944.7585	2150.8853	2740.55	1859.55
944.8938	2152.4005	2726.05	1844.55
945.029	2153.9149	2730.6	1852.55
945.1642	2155.4287	2712	1832.2
945.2994	2156.9417	2727.2	1846.65
945.4346	2158.454	2714.35	1831.9
945.5697	2159.9655	2700.55	1820.85
945.7048	2161.4764	2695.25	1816.25
945.8399	2162.9865	2699.35	1819.55
945.9749	2164.4958	2698.5	1818
946.1099	2166.0045	2698.2	1815.25
946.2449	2167.5124	2688.35	1808.85
946.3799	2169.0195	2687.9	1809.6
946.5148	2170.526	2686	1803.75
946.6498	2172.0317	2683.55	1805.75
946.7846	2173.5367	2683.8	1804.4
946.9195	2175.0409	2666.15	1786.95
947.0543	2176.5445	2669.3	1790.9
947.1891	2178.0473	2660.8	1780.6
947.3239	2179.5494	2659.1	1775.15
947.4587	2181.0507	2644.8	1764.15
947.5934	2182.5513	2647.1	1764.85
947.7281	2184.0512	2636.95	1756.2
947.8628	2185.5504	2633.5	1751.65
947.9974	2187.0488	2632.1	1751.85
948.132	2188.5465	2631.9	1752.35
948.2666	2190.0435	2626.5	1744.7
948.4012	2191.5397	2613.45	1733.2
948.5357	2193.0353	2612.4	1734.65
948.6702	2194.5301	2610.25	1729.5
948.8047	2196.0241	2600.3	1718
948.9392	2197.5175	2588.05	1707.2
949.0736	2199.0101	2593.1	1710.15
949.208	2200.502	2591.95	1712.5
949.3424	2201.9931	2577.1	1696.2
949.4767	2203.4835	2567.15	1685.85
949.611	2204.9733	2582.65	1695
949.7453	2206.4622	2574.7	1696.45
949.8796	2207.9505	2560.7	1679.55
950.0138	2209.438	2553.35	1676.95
950.148	2210.9248	2552.35	1671.25
950.2822	2212.4109	2546.1	1668.55
950.4164	2213.8962	2535.7	1653.75
950.5505	2215.3809	2537.15	1655.4
950.6846	2216.8648	2530.1	1647.85
950.8186	2218.3479	2529.85	1644.25
950.9527	2219.8304	2518.25	1633.5
951.0867	2221.3121	2520.4	1636.25
951.2207	2222.7931	2505.8	1627.15
951.3546	2224.2733	2506.65	1625.7
951.4886	2225.7529	2495.95	1615.25
951.6225	2227.2317	2492.1	1608.95
951.7563	2228.7098	2494.05	1614
951.8902	2230.1872	2484.6	1606.75
952.024	2231.6638	2484.1	1605.2
952.1578	2233.1397	2486.9	1601.75
952.2916	2234.6149	2473.25	1594.45
952.4253	2236.0894	2474.45	1592.9
952.559	2237.5632	2478.45	1589.75
952.6927	2239.0362	2461.35	1582.9
952.8263	2240.5085	2455.15	1575.6
952.9599	2241.9801	2450.4	1570.65
953.0935	2243.4509	2435.55	1555.8
953.2271	2244.921	2429.8	1549.85
953.3606	2246.3904	2423.15	1537.3
953.4941	2247.8591	2431.8	1552.3
953.6276	2249.3271	2428.8	1546.6
953.7611	2250.7943	2409.05	1530.05
953.8945	2252.2608	2405.4	1525.95
954.0279	2253.7266	2405	1526
954.1612	2255.1917	2412	1532.25
954.2946	2256.656	2411.75	1530.9
954.4279	2258.1197	2392.5	1511.3
954.5612	2259.5826	2394.3	1513.15
954.6944	2261.0447	2395.25	1513.15
954.8276	2262.5062	2392.25	1510.6
954.9608	2263.9669	2374.85	1491.8
955.094	2265.4269	2370.9	1489.75
955.2271	2266.8862	2369.05	1489.6
955.3602	2268.3448	2368.65	1488.15
955.4933	2269.8026	2363.4	1482.7
955.6264	2271.2598	2362.5	1481.8
955.7594	2272.7162	2363.4	1484.3
955.8924	2274.1719	2348.5	1466.95
956.0253	2275.6268	2343.4	1463.3
956.1583	2277.0811	2349.65	1470
956.2912	2278.5346	2343.55	1465.95
956.4241	2279.9874	2338.8	1460
956.5569	2281.4395	2327.65	1448.2
956.6897	2282.8908	2327.95	1442.65
956.8225	2284.3414	2327.65	1448.6
956.9553	2285.7914	2322.2	1445.1
957.088	2287.2406	2318.1	1435.8
957.2207	2288.689	2313.15	1431.9
957.3534	2290.1368	2313.5	1429.5
957.486	2291.5838	2312.05	1428.45
957.6186	2293.0302	2309.5	1426
957.7512	2294.4758	2301.2	1418.75
957.8838	2295.9206	2289.75	1408.05
958.0163	2297.3648	2286.6	1406.25
958.1488	2298.8082	2287.8	1407.1
958.2813	2300.251	2276.6	1397.35
958.4137	2301.693	2263.55	1380.25
958.5461	2303.1343	2276.05	1394.8
958.6785	2304.5748	2257.95	1378.2
958.8108	2306.0147	2254.5	1373.8
958.9432	2307.4538	2251.8	1370.7
959.0754	2308.8922	2245.7	1365.85
959.2077	2310.3299	2257.45	1378.05
959.3399	2311.7669	2248.3	1368.75
959.4721	2313.2031	2241.6	1362.25
959.6043	2314.6387	2242.4	1362.05
959.7365	2316.0735	2232.95	1351.55
959.8686	2317.5076	2225.9	1346.15
960.0006	2318.941	2219.85	1339.95
960.1327	2320.3737	2220.45	1339.75
960.2647	2321.8056	2241.3	1359.25
960.3967	2323.2369	2221.85	1339.9
960.5287	2324.6674	2206.8	1325.05
960.6606	2326.0972	2211.3	1329.85
960.7925	2327.5263	2197.8	1317.3
960.9244	2328.9547	2198.95	1316.7
961.0562	2330.3823	2185.65	1303
961.1881	2331.8092	2190.2	1306.45
961.3198	2333.2355	2194.4	1315.85
961.4516	2334.661	2183.85	1302.95
961.5833	2336.0858	2183.7	1299.95
961.715	2337.5098	2175.75	1294.4
961.8467	2338.9332	2169.45	1289.35
961.9783	2340.3558	2174.4	1289.9
962.1099	2341.7778	2158.95	1279.4
962.2415	2343.199	2155.35	1271.2
962.373	2344.6195	2144.1	1264.4
962.5045	2346.0393	2134.95	1254.1
962.636	2347.4583	2139.3	1257.2
962.7675	2348.8767	2143.35	1260.9
962.8989	2350.2943	2143.7	1262.1
963.0303	2351.7113	2141.2	1258.25
963.1617	2353.1275	2124.45	1242.85
963.293	2354.543	2126.85	1236.75
963.4243	2355.9578	2116.85	1235.75
963.5556	2357.3718	2113.7	1233.45
963.6868	2358.7852	2097.3	1213.75
963.818	2360.1978	2096.45	1216.4
963.9492	2361.6098	2091.2	1211.75
964.0803	2363.021	2103.5	1217
964.2114	2364.4315	2081.1	1201.15
964.3425	2365.8413	2087.85	1206.2
964.4736	2367.2504	2078.25	1199.2
964.6046	2368.6587	2076	1196.1
964.7356	2370.0664	2068.85	1187.05
964.8666	2371.4733	2062	1179.7
964.9975	2372.8795	2051.85	1169.7
965.1284	2374.285	2059	1179.5
965.2593	2375.6899	2037.8	1156.4
965.3901	2377.0939	2035.8	1155.05
965.5209	2378.4973	2042.8	1164.05
965.6517	2379.9	2036.5	1154
965.7825	2381.3019	2031.9	1152.3
965.9132	2382.7032	2036	1155.05
966.0439	2384.1037	2022.65	1143.95
966.1745	2385.5035	2019.15	1139.85
966.3051	2386.9027	2008.7	1129.95
966.4357	2388.3011	2013.8	1128.05
966.5663	2389.6987	2002.65	1123.1
966.6968	2391.0957	1996.9	1115.1
966.8273	2392.492	1996.2	1117.65
966.9578	2393.8876	1979.8	1097.25
967.0882	2395.2824	1976.6	1093.45
967.2186	2396.6765	1977.85	1097.95
967.349	2398.07	1962.05	1079.95
967.4793	2399.4627	1971	1088.75
967.6097	2400.8547	1970.7	1087.2
967.7399	2402.246	1958.45	1070.25
967.8702	2403.6366	1958.9	1076
968.0004	2405.0265	1952.95	1071.75
968.1306	2406.4156	1941	1054.8
968.2607	2407.8041	1945.7	1061.2
968.3909	2409.1918	1931.1	1047.3
968.521	2410.5789	1928.35	1045.55
968.651	2411.9652	1932.4	1046.3
968.781	2413.3508	1925.05	1043.95
968.911	2414.7358	1915.05	1031.55
969.041	2416.12	1914.4	1032.55
969.1709	2417.5035	1907.3	1025.95
969.3008	2418.8863	1917	1033.95
969.4307	2420.2684	1914.25	1032.75
969.5606	2421.6497	1901.95	1018.35
969.6904	2423.0304	1891.2	1009.8
969.8201	2424.4104	1888.25	1006.5
969.9499	2425.7896	1887.45	1003.55
970.0796	2427.1682	1886.6	1004.5
970.2093	2428.546	1875.2	992.8
970.3389	2429.9232	1884.55	1001.1
970.4685	2431.2996	1884.6	1002.35
970.5981	2432.6753	1875.55	993.25
970.7277	2434.0503	1873.2	992
970.8572	2435.4246	1867.65	985.25
970.9867	2436.7982	1865.85	982.1
971.1161	2438.1711	1845.6	965.55
971.2456	2439.5433	1851.6	968.25
971.375	2440.9148	1846.25	959
971.5043	2442.2856	1847.7	966.75
971.6336	2443.6557	1849.6	965.85
971.7629	2445.025	1843.9	961.45
971.8922	2446.3937	1848.1	965.5
972.0214	2447.7617	1835.7	953
972.1506	2449.1289	1833.35	951.05
972.2798	2450.4955	1827	940.65
972.4089	2451.8613	1825.65	945.6
972.538	2453.2265	1821.15	938.1
972.6671	2454.5909	1818.2	935.4
972.7961	2455.9546	1825.9	944.65
972.9251	2457.3177	1811.55	927.35
973.0541	2458.68	1813.7	929.95
973.1831	2460.0416	1809.25	927
973.312	2461.4025	1820.65	937.7
973.4408	2462.7627	1819.7	928
973.5697	2464.1222	1800.95	918.45
973.6985	2465.4811	1798.65	916.45
973.8273	2466.8392	1796.1	914.3
973.956	2468.1966	1801.45	917.05
974.0847	2469.5533	1801.35	916.25
974.2134	2470.9093	1786.7	904.25
974.3421	2472.2645	1795.45	911.5
974.4707	2473.6191	1786.55	903.5
974.5993	2474.973	1778.15	896.7
974.7278	2476.3262	1786.6	901.7
974.8563	2477.6787	1777.05	895.95
974.9848	2479.0305	1770.5	889.3
975.1132	2480.3816	1762.15	878.35
975.2417	2481.7319	1759.3	877.95
975.37	2483.0816	1758	876.65
975.4984	2484.4306	1763.7	881
975.6267	2485.7789	1750.45	871.45
975.755	2487.1264	1755.35	871.05
975.8833	2488.4733	1743.9	863.9
976.0115	2489.8195	1752.1	864.25
976.1397	2491.165	1737.85	853.2
976.2678	2492.5097	1737.65	853.45
976.3959	2493.8538	1732.3	850.9
976.524	2495.1972	1720.35	835.45
976.6521	2496.5398	1715.3	832.8
976.7801	2497.8818	1719.6	837.5
976.9081	2499.2231	1725.7	842.95
977.036	2500.5637	1716.4	832.95
977.164	2501.9035	1715.35	832.1
977.2918	2503.2427	1711.1	825.85
977.4197	2504.5812	1709.45	829.4
977.5475	2505.919	1705.05	821.45
977.6753	2507.256	1698.2	816.8
977.8031	2508.5924	1701.95	820.1
977.9308	2509.9281	1708.05	820.3
978.0585	2511.2631	1696.05	814.2
978.1861	2512.5974	1690.8	807.9
978.3137	2513.9309	1686.55	806.1
978.4413	2515.2638	1714.35	801.25
978.5689	2516.596	1681.85	801.95
978.6964	2517.9275	1679.3	794.9
978.8239	2519.2583	1673.1	788.8
978.9513	2520.5884	1666.95	782.85
979.0788	2521.9178	1668.25	787.05
979.2062	2523.2465	1664.95	785.6
979.3335	2524.5745	1658.7	776.55
979.4608	2525.9018	1657.15	775
979.5881	2527.2284	1655.65	776.5
979.7154	2528.5543	1647.85	766.9
979.8426	2529.8796	1656.25	775.8
979.9698	2531.2041	1646.8	764.1
980.0969	2532.5279	1648.3	767.8
980.224	2533.851	1638.35	755.5
980.3511	2535.1735	1638.85	757.8
980.4781	2536.4952	1630.55	747.25
980.6052	2537.8163	1647.6	766.55
980.7321	2539.1366	1631.65	749.4
980.8591	2540.4562	1630.45	749.45
980.986	2541.7752	1627.2	746.6
981.1129	2543.0935	1632.15	749.4
981.2397	2544.411	1631.6	749.25
981.3665	2545.7279	1618.5	735.65
981.4933	2547.0441	1624.55	742.6
981.62	2548.3596	1621.5	737.35
981.7467	2549.6744	1616.1	734.5
981.8734	2550.9885	1623.3	734.85
982.0001	2552.3019	1609.7	728.65
982.1267	2553.6146	1607.2	725.6
982.2532	2554.9266	1607.4	725.85
982.3798	2556.2379	1604.55	720.2
982.5063	2557.5485	1604.05	725
982.6327	2558.8585	1607	717.3
982.7592	2560.1677	1604.2	720.9
982.8856	2561.4762	1599.2	717.2
983.0119	2562.7841	1598.3	713.25
983.1383	2564.0913	1594.05	712.35
983.2646	2565.3977	1585.05	701.15
983.3908	2566.7035	1590.45	710.3
983.517	2568.0086	1588.8	704.6
983.6432	2569.313	1588.95	707
983.7694	2570.6167	1590.65	706.45
983.8955	2571.9197	1580.8	699.05
984.0216	2573.222	1583.6	698
984.1476	2574.5236	1580.75	698.7
984.2737	2575.8246	1582.7	699.55
984.3996	2577.1248	1581.25	696.4
984.5256	2578.4244	1571.25	689.5
984.6515	2579.7232	1569.25	687.7
984.7774	2581.0214	1589	682.75
984.9032	2582.3189	1567.7	687.9
985.029	2583.6157	1569.25	685.05
985.1548	2584.9118	1564.75	682.6
985.2806	2586.2072	1564.05	683.3
985.4063	2587.5019	1563.6	681.8
985.5319	2588.7959	1557.05	674.7
985.6576	2590.0893	1562.15	678.3
985.7832	2591.3819	1547.1	666.65
985.9087	2592.6739	1550.8	671.45
986.0343	2593.9652	1547.8	665.8
986.1597	2595.2557	1542.6	661.9
986.2852	2596.5456	1542.5	660.4
986.4106	2597.8348	1536.35	657.8
986.536	2599.1234	1531.45	649.15
986.6614	2600.4112	1531.45	650.2
986.7867	2601.6983	1537.7	650.1
986.912	2602.9848	1528.9	646.4
987.0372	2604.2705	1529.65	638.85
987.1624	2605.5556	1521.65	640.25
987.2876	2606.84	1521.85	639.7
987.4128	2608.1237	1514.1	633.05
987.5379	2609.4067	1512.05	630.45
987.6629	2610.689	1517	626.3
987.788	2611.9707	1506	620.85
987.913	2613.2516	1520.85	633.35
988.0379	2614.5319	1500.15	619.5
988.1629	2615.8115	1494.25	611.55
988.2878	2617.0903	1501.45	618.85
988.4126	2618.3685	1491.45	609.65
988.5375	2619.6461	1492.4	611.4
988.6622	2620.9229	1489.8	608.6
988.787	2622.199	1491.9	609.25
988.9117	2623.4745	1484.35	603.4
989.0364	2624.7493	1484.95	603.85
989.161	2626.0234	1472	593.95
989.2857	2627.2968	1477.05	594.8
989.4102	2628.5695	1473.85	590.9
989.5348	2629.8415	1471.75	589.25
989.6593	2631.1128	1472.15	590.65
989.7837	2632.3835	1465	583.65
989.9082	2633.6535	1457.1	575.2
990.0326	2634.9228	1457.35	578.8
990.1569	2636.1914	1453.3	572.8
990.2812	2637.4593	1457.45	570.9
990.4055	2638.7265	1445.65	563.8
990.5298	2639.9931	1444.55	564
990.654	2641.259	1446.95	563.45
990.7782	2642.5242	1446.05	564.75
990.9023	2643.7887	1445.6	563.6
991.0264	2645.0525	1441.9	559.9
991.1505	2646.3156	1441.95	560.15
991.2745	2647.5781	1436.6	553.7
991.3985	2648.8398	1434.15	552.95
991.5225	2650.1009	1440.45	550.7
991.6464	2651.3613	1434.2	556.1
991.7703	2652.6211	1426	545.9
991.8942	2653.8801	1428.55	548.4
992.018	2655.1385	1425.1	541.7
992.1418	2656.3961	1423.5	541.45
992.2655	2657.6531	1417.85	537.8
992.3892	2658.9094	1417.05	534.7
992.5129	2660.1651	1416.6	536.95
992.6366	2661.42	1419	536.9
992.7602	2662.6743	1408.4	525.95
992.8837	2663.9279	1421.2	540.45
993.0073	2665.1808	1414.5	534.05
993.1307	2666.433	1416.35	533.2
993.2542	2667.6846	1401.25	520.65
993.3776	2668.9354	1409.45	526.3
993.501	2670.1856	1405.9	523.85
993.6244	2671.4351	1406.5	526.15
993.7477	2672.6839	1396.15	513.85
993.8709	2673.9321	1392.85	511.45
993.9942	2675.1795	1397.75	515.25
994.1174	2676.4263	1399.8	519.45
994.2405	2677.6724	1391.2	509.4
994.3637	2678.9179	1389.95	510.95
994.4868	2680.1626	1390.25	510.9
994.6098	2681.4067	1396.4	516.15
994.7328	2682.6501	1379.9	499.35
994.8558	2683.8928	1380.35	498
994.9788	2685.1348	1375.45	495.75
995.1017	2686.3761	1371.4	491.5
995.2245	2687.6168	1375.25	494.75
995.3474	2688.8568	1369.6	489
995.4702	2690.0961	1368.8	490.05
995.5929	2691.3348	1370.1	488
995.7156	2692.5727	1365.6	484.85
995.8383	2693.81	1365.2	482.75
995.961	2695.0466	1365.6	486.6
996.0836	2696.2826	1358	475.75
996.2062	2697.5178	1363.3	479.95
996.3287	2698.7524	1359.7	479.65
996.4512	2699.9863	1358.4	473.7
996.5737	2701.2195	1353.85	474.3
996.6961	2702.452	1358.9	477
996.8185	2703.6839	1360.8	480
996.9408	2704.9151	1349.5	470.4
997.0631	2706.1456	1347.1	464.7
997.1854	2707.3755	1350.1	469.95
997.3077	2708.6046	1343	458.85
997.4299	2709.8331	1341.95	460.35
997.552	2711.0609	1337.4	454.9
997.6742	2712.2881	1336.3	454.5
997.7963	2713.5145	1341.55	459.3
997.9183	2714.7403	1339.75	459.8
998.0403	2715.9654	1333.65	451.7
998.1623	2717.1899	1351.2	457.8
998.2842	2718.4136	1333.2	452.6
998.4062	2719.6367	1329.55	447.2
998.528	2720.8591	1332.05	442.9
998.6498	2722.0809	1327.2	444.15
998.7716	2723.3019	1327.65	444
998.8934	2724.5223	1329.2	445.9
999.0151	2725.7421	1320.15	436.4
999.1368	2726.9611	1318.9	436.6
999.2584	2728.1795	1314.85	429.8
999.38	2729.3972	1316.25	438.6
999.5016	2730.6142	1316.7	424
999.6231	2731.8306	1306.2	424.6
999.7446	2733.0462	1308.15	425.2
999.8661	2734.2612	1306.15	418.9
999.9875	2735.4756	1302.95	421.5
1000.1089	2736.6892	1294.9	414.55
1000.2302	2737.9022	1296.8	417.6
1000.3515	2739.1145	1288.5	408.85
1000.4728	2740.3262	1302.35	413.05
1000.594	2741.5372	1287.65	409.1
1000.7152	2742.7475	1286.65	404.2
1000.8363	2743.9571	1285.15	403.65
1000.9575	2745.1661	1296.45	411.25
1001.0785	2746.3744	1288.5	405.95
1001.1996	2747.582	1279.35	398.8
1001.3206	2748.7889	1278.8	395.4
1001.4415	2749.9952	1280.55	398.15
1001.5625	2751.2008	1275.75	394.3
1001.6833	2752.4057	1275.8	394.3
1001.8042	2753.61	1272.7	390.65
1001.925	2754.8136	1275.15	393.6
1002.0458	2756.0165	1268.55	387.45
1002.1665	2757.2188	1264	384.45
1002.2872	2758.4204	1265.1	383.15
1002.4078	2759.6213	1266.05	383.7
1002.5285	2760.8215	1267.3	383.4
1002.649	2762.0211	1262.8	380.3
1002.7696	2763.22	1267.7	385.65
1002.8901	2764.4182	1257.2	375.85
1003.0106	2765.6158	1259.5	378
1003.131	2766.8127	1253.4	374.55
1003.2514	2768.009	1251.55	371.1
1003.3717	2769.2045	1250.25	367.8
1003.492	2770.3994	1254.75	371.6
1003.6123	2771.5936	1253.6	373.65
1003.7325	2772.7872	1244.35	364.85
1003.8527	2773.9801	1248.1	365.85
1003.9729	2775.1723	1259.35	362
1004.093	2776.3639	1241.65	361.8
1004.2131	2777.5548	1240.9	357.95
1004.3331	2778.745	1232.95	350.6
1004.4531	2779.9346	1237.7	358.65
1004.5731	2781.1235	1238.95	356
1004.693	2782.3117	1233.65	352.95
1004.8129	2783.4992	1230.55	351.45
1004.9328	2784.6861	1229.15	351.05
1005.0526	2785.8723	1230.8	350.2
1005.1723	2787.0579	1229.35	350.35
1005.2921	2788.2428	1219.8	339.2
1005.4118	2789.427	1221.3	342.3
1005.5314	2790.6106	1223.45	342.25
1005.651	2791.7935	1223.2	342.5
1005.7706	2792.9757	1215	335.2
1005.8902	2794.1573	1221	337.7
1006.0097	2795.3382	1214.5	334.95
1006.1291	2796.5184	1215.65	337.95
1006.2485	2797.698	1214.2	331.2
1006.3679	2798.8769	1216.3	337.1
1006.4873	2800.0551	1212.55	333.6
1006.6066	2801.2327	1209.55	325.95
1006.7258	2802.4096	1208.45	328.4
1006.8451	2803.5859	1205.8	323.8
1006.9642	2804.7615	1208.15	327.9
1007.0834	2805.9364	1203.1	323.7
1007.2025	2807.1106	1206.6	326.65
1007.3216	2808.2842	1204.4	322.6
1007.4406	2809.4572	1203.55	322.85
1007.5596	2810.6294	1202.95	321.3
1007.6785	2811.801	1200.05	320.9
1007.7975	2812.972	1200.4	319.65
1007.9163	2814.1423	1196.25	317.4
1008.0352	2815.3119	1198.15	316.65
1008.154	2816.4808	1197.6	319.1
1008.2727	2817.6491	1207.55	328
1008.3914	2818.8167	1201.8	322.1
1008.5101	2819.9837	1207.1	324.5
1008.6288	2821.15	1205.65	323.9
1008.7474	2822.3157	1211.65	332.75
1008.8659	2823.4807	1215.7	335.3
1008.9844	2824.645	1216.3	334.5
1009.1029	2825.8086	1222.9	344.45
1009.2214	2826.9716	1217.95	338.6
1009.3398	2828.134	1225.55	345.8
1009.4581	2829.2957	1231.9	351.55
1009.5764	2830.4567	1231.95	353.6
1009.6947	2831.617	1238.8	358.5
1009.813	2832.7767	1233.7	353.35
1009.9312	2833.9358	1236.95	355.1
1010.0493	2835.0941	1233.45	351.35
1010.1675	2836.2519	1233.05	352.65
1010.2855	2837.4089	1222.35	344.15
1010.4036	2838.5653	1223.05	343.4
1010.5216	2839.7211	1217.15	339.25
1010.6396	2840.8761	1219	338.8
1010.7575	2842.0306	1213.55	333.25
1010.8754	2843.1843	1217.15	337.15
1010.9932	2844.3374	1216.65	337.2
1011.111	2845.4899	1220.25	338.8
1011.2288	2846.6417	1217.6	337
1011.3465	2847.7928	1215.25	337.1
1011.4642	2848.9433	1219.05	339.4
1011.5818	2850.0931	1216.4	335.45
1011.6995	2851.2422	1218.3	336.95
1011.817	2852.3907	1220.45	340.7
1011.9345	2853.5385	1222.5	339.55
1012.052	2854.6857	1222.9	332.05
1012.1695	2855.8323	1216.85	337.4
1012.2869	2856.9781	1213	332
1012.4042	2858.1233	1217.1	337.85
1012.5216	2859.2679	1222.55	343.45
1012.6389	2860.4118	1220.8	342.3
1012.7561	2861.555	1228.65	343
1012.8733	2862.6976	1227.75	347
1012.9905	2863.8395	1221.95	343.2
1013.1076	2864.9808	1225.35	345.1
1013.2247	2866.1214	1226	347.65
1013.3417	2867.2614	1220.8	340.05
1013.4587	2868.4007	1224.7	343.45
1013.5757	2869.5393	1220.4	338.7
1013.6926	2870.6773	1218.05	333.5
1013.8095	2871.8146	1227.3	344.4
1013.9263	2872.9513	1224.1	342.9
1014.0431	2874.0874	1224.65	346.05
1014.1599	2875.2227	1216.55	336.35
1014.2766	2876.3574	1220.95	342.2
1014.3933	2877.4915	1217.95	338.65
1014.51	2878.6249	1218.35	337.2
1014.6266	2879.7577	1220.75	338.85
1014.7431	2880.8898	1232.55	343.7
1014.8596	2882.0212	1221.6	342.5
1014.9761	2883.152	1221.05	341.8
1015.0925	2884.2821	1217.35	339.55
1015.2089	2885.4116	1217.15	335.3
1015.3253	2886.5405	1217.65	337.4
1015.4416	2887.6686	1222.5	340.7
1015.5579	2888.7962	1214.85	336.35
1015.6741	2889.923	1220.9	342.3
1015.7903	2891.0493	1217.1	339.95
1015.9065	2892.1748	1216.1	335.45
1016.0226	2893.2997	1211.15	331.3
1016.1387	2894.424	1215.2	336.9
1016.2547	2895.5476	1211.65	331.45
1016.3707	2896.6706	1203.45	325.75
1016.4866	2897.7929	1206.05	324.45
1016.6025	2898.9145	1211.45	331.3
1016.7184	2900.0355	1206.5	324.1
1016.8342	2901.1559	1210.1	328.25
1016.95	2902.2756	1208.1	328.2
1017.0658	2903.3946	1200.3	321.6
1017.1815	2904.513	1204.7	323.05
1017.2971	2905.6308	1201.45	324.3
1017.4127	2906.7479	1195.8	314.95
1017.5283	2907.8643	1203	323.55
1017.6439	2908.9801	1197.05	319.35
1017.7594	2910.0953	1203.95	324.1
1017.8748	2911.2098	1199.2	316.2
1017.9902	2912.3236	1203.2	316.5
1018.1056	2913.4368	1196	315.1
1018.2209	2914.5494	1194.95	314.5
1018.3362	2915.6613	1198.1	311.7
1018.4515	2916.7725	1189.25	307.5
1018.5667	2917.8831	1190.1	308.2
1018.6819	2918.9931	1185.95	302.85
1018.797	2920.1024	1181.65	300.5
1018.9121	2921.211	1173.35	293.35
1019.0271	2922.319	1180.7	303.55
1019.1421	2923.4264	1171.8	294.65
1019.2571	2924.5331	1171.35	291.95
1019.372	2925.6391	1170.25	290.75
1019.4869	2926.7445	1175.95	299.35
1019.6017	2927.8493	1171.2	290.5
1019.7165	2928.9534	1173.45	294.65
1019.8313	2930.0569	1176.95	293.55
1019.946	2931.1597	1174.4	293.6
1020.0606	2932.2619	1176.05	296.55
1020.1753	2933.3634	1173.65	294.45
1020.2899	2934.4643	1176.6	288.65
1020.4044	2935.5645	1178.4	293.2
1020.5189	2936.6641	1173.25	291.05
1020.6334	2937.763	1170.2	291.6
1020.7478	2938.8613	1171.35	291.75
1020.8622	2939.959	1177.45	291.1
1020.9765	2941.056	1164.75	287.25
1021.0908	2942.1523	1163.1	282.4
1021.2051	2943.248	1157.15	278.8
1021.3193	2944.3431	1148.95	269.2
1021.4334	2945.4375	1146.3	266
1021.5476	2946.5313	1134.3	254.75
1021.6617	2947.6244	1135.3	255.6
1021.7757	2948.7169	1127	246.3
1021.8897	2949.8087	1120.95	241.8
1022.0037	2950.8999	1119.25	241.2
1022.1176	2951.9904	1113.5	234.45
1022.2315	2953.0803	1116.45	235.5
1022.3453	2954.1696	1107.85	227.45
1022.4591	2955.2582	1105.35	227.8
1022.5728	2956.3462	1106.15	226.8
1022.6865	2957.4335	1100.65	219.55
1022.8002	2958.5202	1100.2	218.9
1022.9138	2959.6062	1098.9	219.05
1023.0274	2960.6916	1094.7	217.8
1023.141	2961.7764	1097.9	219
1023.2545	2962.8605	1094.5	214.5
1023.3679	2963.9439	1095.65	216.7
1023.4813	2965.0267	1097.3	216.2
1023.5947	2966.1089	1114.7	212.15
1023.708	2967.1905	1088.25	212.6
1023.8213	2968.2714	1085.75	207.3
1023.9346	2969.3516	1087.5	207.4
1024.0478	2970.4312	1095.75	210.75
1024.1609	2971.5102	1085.4	205.5
1024.274	2972.5885	1088	210.85
1024.3871	2973.6662	1095.05	209.45
1024.5002	2974.7432	1085	205.7
1024.6132	2975.8196	1082.8	202.4
1024.7261	2976.8954	1080.75	201.8
1024.839	2977.9705	1080.25	201.5
1024.9519	2979.045	1083.45	205.85
1025.0647	2980.1188	1082.85	204
1025.1775	2981.192	1081.1	203.15
1025.2902	2982.2645	1079.8	199.9
1025.4029	2983.3364	1076.35	198
1025.5156	2984.4077	1076.45	198.25
1025.6282	2985.4783	1073.95	190
1025.7407	2986.5483	1067.3	189.95
1025.8532	2987.6177	1065.15	186.2
1025.9657	2988.6864	1059.75	181.45
1026.0782	2989.7545	1065.5	185.05
1026.1906	2990.8219	1062.3	184.25
1026.3029	2991.8887	1062.65	182.2
1026.4152	2992.9548	1060.35	180.95
1026.5275	2994.0204	1053.9	173.6
1026.6397	2995.0852	1049.6	170.8
1026.7519	2996.1495	1054.75	173.15
1026.864	2997.2131	1048.75	168.05
1026.9761	2998.276	1049.85	172.55
1027.0882	2999.3383	1044.65	165.9
1027.2002	3000.4	1044.2	164.5
1027.3122	3001.4611	1044.15	165.4
1027.4241	3002.5215	1041.1	160.7
1027.536	3003.5812	1039.5	161.45
1027.6478	3004.6404	1040.05	160.65
1027.7596	3005.6989	1040.75	159.1
1027.8714	3006.7567	1037	159.2
1027.9831	3007.8139	1055.2	153.35
1028.0947	3008.8705	1034.55	155.3
1028.2064	3009.9264	1034.55	151.15
1028.3179	3010.9818	1030.85	152.15
1028.4295	3012.0364	1030.2	148.05
1028.541	3013.0905	1032.15	153.3
1028.6524	3014.1439	1028.5	150.9
1028.7638	3015.1966	1030.25	150.8
1028.8752	3016.2487	1028.05	148.45
1028.9865	3017.3002	1031.85	145.05
1029.0978	3018.3511	1023.65	146.7
1029.209	3019.4013	1030	150.85
1029.3202	3020.4509	1023.1	143.6
1029.4314	3021.4998	1022.5	142.15
1029.5425	3022.5481	1022.35	143.85
1029.6535	3023.5958	1021.55	143.75
1029.7645	3024.6428	1022.4	141.8
1029.8755	3025.6892	1019.25	142.15
1029.9864	3026.735	1022.4	142.6
1030.0973	3027.7802	1020	141.3
1030.2082	3028.8247	1016.2	138.25
1030.319	3029.8685	1017.9	136.75
1030.4297	3030.9118	1014.75	136.15
1030.5404	3031.9544	1018.05	140.1
1030.6511	3032.9963	1015.4	135.35
1030.7617	3034.0376	1016.3	136.75
1030.8723	3035.0783	1016.65	132.95
1030.9829	3036.1184	1015.7	136.7
1031.0934	3037.1578	1014	135.05
1031.2038	3038.1966	1012.7	132.4
1031.3142	3039.2348	1008.6	131.8
1031.4246	3040.2723	1018.6	131.4
1031.5349	3041.3092	1011.85	132.9
1031.6452	3042.3455	1009.05	128.5
1031.7554	3043.3811	1012.45	132.5
1031.8656	3044.4161	1014.15	136.2
1031.9758	3045.4505	1010.15	130.1
1032.0859	3046.4842	1010.8	128.85
1032.1959	3047.5173	1007.45	130.7
1032.3059	3048.5498	1009	130.35
1032.4159	3049.5816	1010.3	132.65
1032.5258	3050.6128	1008.3	127.65
1032.6357	3051.6434	1012.1	130.3
1032.7455	3052.6734	1007.3	126.9
1032.8553	3053.7027	1008.25	126.95
1032.9651	3054.7314	1003.6	124.45
1033.0748	3055.7594	1005.55	128.2
1033.1845	3056.7868	1005.95	126.05
1033.2941	3057.8136	1004.25	127.05
1033.4037	3058.8398	1003.5	124.7
1033.5132	3059.8653	1004.1	124.2
1033.6227	3060.8902	1003.3	125
1033.7321	3061.9145	1003.05	123.3
1033.8415	3062.9381	1002.05	123.6
1033.9509	3063.9612	1015.75	119.65
1034.0602	3064.9835	1005.1	126.9
1034.1694	3066.0053	1005.05	121.35
1034.2787	3067.0264	998.9	120.3
1034.3878	3068.0469	1005.35	125.15
1034.497	3069.0668	1003.95	124
1034.6061	3070.086	1000.65	121.85
1034.7151	3071.1046	1001.35	120.2
1034.8241	3072.1226	1000.1	123.15
1034.9331	3073.1399	1002.15	122.85
1035.042	3074.1567	995.2	117
1035.1508	3075.1727	999.2	118.35
1035.2597	3076.1882	995.5	117.5
1035.3684	3077.203	998.45	118.85
1035.4772	3078.2173	996.6	115.65
1035.5859	3079.2308	997.1	115.65
1035.6945	3080.2438	993.6	113
1035.8031	3081.2561	995.2	116.3
1035.9117	3082.2678	988.8	110.45
1036.0202	3083.2789	991.3	113.45
1036.1286	3084.2893	987.4	109.05
1036.2371	3085.2991	991.6	113.05
1036.3454	3086.3083	994.85	111.7
1036.4538	3087.3169	990.8	108.65
1036.562	3088.3248	989.35	108.55
1036.6703	3089.3321	990.05	107.6
1036.7785	3090.3388	985.6	108.75
1036.8866	3091.3449	987.3	109
1036.9948	3092.3503	988.8	108.25
1037.1028	3093.3551	984.7	106.85
1037.2108	3094.3593	984.15	105.5
1037.3188	3095.3629	984.9	108.05
1037.4267	3096.3658	982.45	101.9
1037.5346	3097.3681	982.2	103.55
1037.6425	3098.3698	984.8	104.9
1037.7503	3099.3708	988.85	103.25
1037.858	3100.3713	979.6	102.3
1037.9657	3101.3711	982.85	102.95
1038.0734	3102.3702	1115.45	100.9
1038.181	3103.3688	979.7	100.25
1038.2886	3104.3667	977.45	99
1038.3961	3105.364	979.05	99.2
1038.5036	3106.3607	979.65	99.1
1038.611	3107.3568	978.45	99
1038.7184	3108.3522	971.35	92.05
1038.8257	3109.347	977.85	100.25
1038.933	3110.3412	979.25	96.1
1039.0403	3111.3348	975.85	98.7
1039.1475	3112.3277	974.85	96.2
1039.2547	3113.32	973.5	96.35
1039.3618	3114.3117	972.55	93.1
1039.4689	3115.3028	971.6	91.75
1039.5759	3116.2932	969.45	88.35
1039.6829	3117.2831	974.4	89.3
1039.7898	3118.2723	969.5	89.65
1039.8967	3119.2608	967.65	87.95
1040.0035	3120.2488	970.25	91.2
1040.1103	3121.2361	970.6	91.15
1040.2171	3122.2229	968.7	89.25
1040.3238	3123.209	969.1	89.05
1040.4305	3124.1944	964.6	85.45
1040.5371	3125.1793	968.6	91.55
1040.6437	3126.1635	964.75	87.2
1040.7502	3127.1471	961.15	80.5
1040.8567	3128.1301	962	82.9
1040.9631	3129.1125	965.75	88.8
1041.0695	3130.0942	963.85	85.15
1041.1759	3131.0753	972.6	86.3
1041.2822	3132.0558	964	80.6
1041.3884	3133.0357	964.35	84.55
1041.4946	3134.015	965	84.25
1041.6008	3134.9936	966.3	83.95
1041.7069	3135.9716	982.8	83.05
1041.813	3136.949	961.9	83.45
1041.919	3137.9258	967.3	82.45
1042.025	3138.902	966.7	82
1042.1309	3139.8775	959.5	80.35
1042.2368	3140.8524	959.2	80.3
1042.3427	3141.8267	961.7	80.95
1042.4485	3142.8004	959.65	79.3
1042.5542	3143.7735	964.3	78.55
1042.6599	3144.7459	960.5	80.35
1042.7656	3145.7178	959.35	81.45
1042.8712	3146.689	955.55	75.7
1042.9768	3147.6596	956.45	75.4
1043.0823	3148.6295	957.95	78.9
1043.1878	3149.5989	957.45	79.45
1043.2932	3150.5676	955.05	78.1
1043.3986	3151.5357	954.25	76.1
1043.5039	3152.5032	954.8	74.95
1043.6092	3153.4701	956.65	77.65
1043.7145	3154.4364	954.85	74.15
1043.8197	3155.402	955.35	77.9
1043.9248	3156.367	956.85	76.2
1044.03	3157.3315	993.95	75.8
1044.135	3158.2952	951.6	73.75
1044.24	3159.2584	950.95	73.8
1044.345	3160.221	953.45	72.6
1044.4499	3161.1829	951.25	72.2
1044.5548	3162.1442	949.25	69.9
1044.6596	3163.105	948.4	72.8
1044.7644	3164.065	951.2	70.45
1044.8692	3165.0245	952.35	71.9
1044.9739	3165.9834	948.25	72.15
1045.0785	3166.9416	950.15	72.65
1045.1831	3167.8993	948	67.3
1045.2877	3168.8563	947.55	68.85
1045.3922	3169.8127	948.6	69.65
1045.4966	3170.7684	945.55	67.9
1045.6011	3171.7236	949.05	68.25
1045.7054	3172.6782	945.25	66.35
1045.8098	3173.6321	947.25	67.4
1045.914	3174.5854	949.5	66.8
1046.0183	3175.5381	946	65.75
1046.1224	3176.4902	946.05	67.4
1046.2266	3177.4417	943.45	67.15
1046.3307	3178.3926	940.1	62.8
1046.4347	3179.3428	944.2	65.4
1046.5387	3180.2924	943.35	63.75
1046.6427	3181.2415	942.3	62.7
1046.7466	3182.1899	945.35	65.25
1046.8504	3183.1377	943.6	66.2
1046.9542	3184.0848	946.15	63.4
1047.058	3185.0314	944.2	65.9
1047.1617	3185.9773	940.35	61.25
1047.2654	3186.9227	941.6	63.5
1047.369	3187.8674	940.95	62.7
1047.4726	3188.8115	944.1	63.05
1047.5761	3189.755	942.1	64.85
1047.6796	3190.6979	940.7	60.9
1047.783	3191.6402	938.9	61.5
1047.8864	3192.5818	938.05	59.45
1047.9898	3193.5229	954.15	57.9
1048.0931	3194.4633	939.7	62.4
1048.1963	3195.4031	937.2	58
1048.2995	3196.3423	934.75	57.4
1048.4027	3197.2809	936.4	56.8
1048.5058	3198.2189	937.2	59.25
1048.6089	3199.1563	956.7	60.45
1048.7119	3200.0931	938.9	61.5
1048.8148	3201.0292	935	58.05
1048.9178	3201.9648	933.25	54.4
1049.0206	3202.8997	937.65	56.1
1049.1235	3203.834	934.5	58.6
1049.2262	3204.7677	936.65	57.2
1049.329	3205.7008	938.2	57.65
1049.4317	3206.6333	933.95	56.7
1049.5343	3207.5652	934.6	51.85
1049.6369	3208.4964	935.05	57.65
1049.7394	3209.4271	932.85	55.75
1049.8419	3210.3571	932.2	52.1
1049.9444	3211.2865	934.7	53.55
1050.0468	3212.2154	934.55	53.95
1050.1491	3213.1436	937.3	54.7
1050.2514	3214.0712	938.55	54.9
1050.3537	3214.9982	935.45	57.1
1050.4559	3215.9246	932.55	53.85
1050.5581	3216.8503	934.7	57.6
1050.6602	3217.7755	931.5	53.4
1050.7623	3218.7001	930.4	53.35
1050.8643	3219.624	931.05	51.8
1050.9663	3220.5473	930.8	53.7
1051.0682	3221.4701	932.15	52.9
1051.1701	3222.3922	934.35	54.05
1051.2719	3223.3137	930.8	52.85
1051.3737	3224.2346	929.85	49.85
1051.4754	3225.1549	928.95	50.05
1051.5771	3226.0746	927.45	49.6
1051.6788	3226.9937	929.3	51.5
1051.7804	3227.9121	927.45	50.75
1051.8819	3228.83	926.45	46.85
1051.9834	3229.7473	929.8	52.3
1052.0849	3230.6639	929.5	50.75
1052.1863	3231.5799	926.4	49.95
1052.2876	3232.4954	928.05	48.2
1052.3889	3233.4102	925.15	46.8
1052.4902	3234.3244	924.65	45.2
1052.5914	3235.238	924.4	45.9
1052.6926	3236.151	952.2	51.65
1052.7937	3237.0634	928.05	49.85
1052.8948	3237.9752	926.6	47.15
1052.9958	3238.8864	923.95	45
1053.0968	3239.797	926	48.55
1053.1977	3240.7069	925.6	47.45
1053.2986	3241.6163	928.55	48.9
1053.3994	3242.5251	924.1	44.65
1053.5002	3243.4332	924.2	46.6
1053.6009	3244.3408	924.45	45.75
1053.7016	3245.2477	923.25	44.75
1053.8022	3246.154	922.7	43.55
1053.9028	3247.0598	923.55	43.25
1054.0034	3247.9649	921.75	43.85
1054.1039	3248.8694	924.4	45
1054.2043	3249.7733	922	43.7
1054.3047	3250.6766	920.7	42
1054.4051	3251.5793	919.65	39.75
1054.5054	3252.4814	923.35	45.7
1054.6056	3253.3829	916.85	39.55
1054.7058	3254.2838	919.65	43.3
1054.806	3255.1841	920.65	43.45
1054.9061	3256.0838	919.35	41.6
1055.0061	3256.9829	917.8	38.8
1055.1062	3257.8814	922.35	42.85
1055.2061	3258.7792	924.1	44.2
1055.306	3259.6765	919.9	39.75
1055.4059	3260.5731	918.9	39.75
1055.5057	3261.4692	916.8	36.55
1055.6055	3262.3647	917.65	37.4
1055.7052	3263.2595	919.55	41.95
1055.8049	3264.1538	915.6	37.9
1055.9045	3265.0474	916.65	36.65
1056.0041	3265.9404	914.75	37.75
1056.1036	3266.8329	913.7	35.65
1056.2031	3267.7247	923.3	35.9
1056.3025	3268.616	912.25	34.95
1056.4019	3269.5066	913.7	35.5
1056.5013	3270.3966	914.85	33.6
1056.6005	3271.286	909.3	31.7
