Software Version:	3.9.2.0
Unit SN:	10000200
Spectrometer SN:	6960
Date:	3/6/2024 9:30:49 AM
Data Line Index:	25
Spectral Points:	2048
Integration time (ms):	125
Averages:	20
Delay (ms):	30
Sequence Number:	1
Processing:	dark subtract
Laser Power (mW):	300
Laser Current (mA):	822
Laser Diode Temp (C):	25.1
Laser Case Temp (C):	23.5
System Temp (C):	23.3
Spectrometer Temp (C):	20.9
CCD Temp (C):	-0.052
Secondary Temp (C):	20.02
Heatsink Temp (C):	17.612
CCDPCB Temp (C):	29.86
SecondaryPCB Temp (C):	25.158

Wavelength	RamanShift	Raw Counts	Dark Subtracted
787.061	30.1047	517.65	109.45
787.2016	32.3739	518.7	113.8
787.3422	34.6426	529.5	122.9
787.4828	36.9109	537.9	128.35
787.6235	39.1787	550.85	137.05
787.7642	41.4461	563.55	144.7
787.9049	43.7131	573.2	152.25
788.0456	45.9796	583.6	161.55
788.1863	48.2456	599.55	174.6
788.3271	50.5112	616.35	186.75
788.4679	52.7764	626.8	194.25
788.6087	55.0411	640.45	203.85
788.7496	57.3054	662.45	219.6
788.8904	59.5692	671.55	226.4
789.0313	61.8326	691.05	244.45
789.1722	64.0955	712.1	262
789.3132	66.3579	732.8	279.55
789.4541	68.6199	770.1	312.5
789.5951	70.8815	822.05	360.8
789.7361	73.1426	935.5	469.95
789.8771	75.4032	1220.6	750.6
790.0181	77.6634	1923.85	1450.85
790.1592	79.9231	3607.55	3131.3
790.3003	82.1824	7274.4	6794.75
790.4414	84.4412	13843.4	13354.65
790.5825	86.6995	22604.15	22103.25
790.7237	88.9574	31094.45	30586.4
790.8648	91.2148	37096.55	36583.5
791.006	93.4717	40240.45	39723.25
791.1472	95.7282	41642.2	41122.65
791.2885	97.9842	42355.15	41833.75
791.4297	100.2398	42703.7	42180.2
791.571	102.4949	42610.4	42084.95
791.7123	104.7495	42843.15	42313.3
791.8536	107.0036	42701.3	42169.1
791.9949	109.2573	43101.1	42571
792.1363	111.5105	42762.5	42228.55
792.2777	113.7632	43077.8	42541.45
792.4191	116.0154	43165.45	42618.55
792.5605	118.2672	43490.15	42949.65
792.7019	120.5185	43431.2	42890.45
792.8434	122.7693	43499.1	42951.75
792.9849	125.0197	43531.5	42982.35
793.1264	127.2696	43808.45	43255.9
793.2679	129.519	44030.05	43474.65
793.4094	131.7679	44387.7	43829.6
793.551	134.0163	43642.75	43083.1
793.6926	136.2642	44070.95	43508.15
793.8342	138.5117	44443.05	43875.6
793.9758	140.7587	44390.65	43826.9
794.1175	143.0052	44589.8	44020.1
794.2591	145.2512	44245.15	43671.15
794.4008	147.4967	44595.2	44020.5
794.5425	149.7417	44509.5	43932.5
794.6842	151.9863	44545.65	43967.6
794.826	154.2304	44164.05	43581.2
794.9677	156.4739	44428.45	43838.45
795.1095	158.717	44563.45	43976
795.2513	160.9596	44576.85	43980.2
795.3931	163.2017	44294.6	43699.15
795.535	165.4433	44697.95	44100.2
795.6768	167.6844	44468.35	43868.05
795.8187	169.925	44795.5	44193.1
795.9606	172.1651	44660.65	44054.35
796.1025	174.4047	44548.95	43938.7
796.2445	176.6439	44696.75	44083.6
796.3864	178.8825	44786.35	44169.4
796.5284	181.1206	44914.45	44297.25
796.6704	183.3582	44958.1	44334.45
796.8124	185.5954	44652.75	44027.8
796.9544	187.832	44953.1	44326.55
797.0965	190.0681	44948.6	44316.5
797.2386	192.3037	45199.65	44562.5
797.3806	194.5388	45621.05	44983.25
797.5228	196.7734	44951.5	44313.35
797.6649	199.0075	45503.85	44862.65
797.807	201.2411	45669.7	45029
797.9492	203.4742	45834.1	45187.3
798.0914	205.7068	45984.1	45335.55
798.2336	207.9389	46012.45	45364.4
798.3758	210.1704	45983.05	45340.6
798.518	212.4015	46326.55	45696.55
798.6603	214.632	45911.25	45285.55
798.8025	216.862	46303.8	45679
798.9448	219.0915	46391.3	45763.7
799.0871	221.3205	46190.35	45560.15
799.2294	223.549	46567.3	45941.55
799.3718	225.777	46626.1	45997.35
799.5141	228.0044	46631.65	45995.9
799.6565	230.2314	46770	46133.4
799.7989	232.4578	46713.9	46072.8
799.9413	234.6837	46739.15	46088.85
800.0837	236.909	47290.15	46639.6
800.2262	239.1339	46627.15	45951.75
800.3687	241.3582	46968.25	46305.15
800.5111	243.582	46931.5	46238.85
800.6536	245.8053	47115.7	46437.9
800.7961	248.0281	47088.25	46411.95
800.9387	250.2503	47188.15	46512
801.0812	252.472	47153	46474.5
801.2238	254.6932	47195.7	46518.3
801.3664	256.9139	47145.45	46467
801.509	259.134	47619.2	46936.75
801.6516	261.3536	46998.8	46317.5
801.7942	263.5727	47531.2	46846.1
801.9369	265.7912	47318.9	46633.85
802.0795	268.0092	47428.35	46743.9
802.2222	270.2267	47439.5	46752.5
802.3649	272.4436	47385.2	46695.95
802.5076	274.6601	47502.15	46803.6
802.6504	276.8759	47540.75	46848.05
802.7931	279.0913	47669.35	46974.75
802.9359	281.3061	47518.55	46822.9
803.0787	283.5204	47793.25	47094.05
803.2215	285.7341	47724.95	47022.85
803.3643	287.9473	47998.8	47285.25
803.5071	290.16	47724.2	47018.85
803.6499	292.3721	48225.7	47529.1
803.7928	294.5837	47565.2	46866.8
803.9357	296.7947	47481.7	46782.5
804.0786	299.0052	47761.35	47061.5
804.2215	301.2152	47584.1	46880.35
804.3644	303.4246	47932.75	47231.85
804.5074	305.6334	47854.4	47151.35
804.6503	307.8418	47579.1	46871.6
804.7933	310.0495	47766.65	47058.1
804.9363	312.2568	47638.05	46930.85
805.0793	314.4635	47491.35	46780.05
805.2223	316.6696	47487.65	46774.65
805.3653	318.8752	47649.85	46929.25
805.5084	321.0802	47053.05	46338.7
805.6514	323.2847	47275.45	46559.45
805.7945	325.4887	47316.75	46599.65
805.9376	327.692	47129.55	46410.25
806.0807	329.8949	47383.85	46662.5
806.2238	332.0972	47291.75	46571.25
806.367	334.2989	47430.95	46705.2
806.5101	336.5001	47546.2	46821.2
806.6533	338.7007	47319.5	46595.45
806.7965	340.9008	47449.25	46722.2
806.9397	343.1003	47418.25	46688.35
807.0829	345.2992	47545.05	46814.6
807.2261	347.4976	47333.5	46604.05
807.3693	349.6955	47364.3	46629.05
807.5126	351.8927	47341.5	46605.9
807.6559	354.0895	47394.05	46646.7
807.7991	356.2856	47351.35	46612
807.9424	358.4812	47492.1	46752.9
808.0857	360.6763	47337.4	46596.7
808.2291	362.8707	47220.05	46476.75
808.3724	365.0646	47292.7	46546.3
808.5158	367.258	47284.55	46537.65
808.6591	369.4508	47171.55	46419.1
808.8025	371.643	47227.5	46475.9
808.9459	373.8346	47157.8	46406.8
809.0893	376.0257	47125.1	46370.6
809.2327	378.2162	47029.45	46277.5
809.3762	380.4062	47003.05	46247.4
809.5196	382.5956	46974	46225.9
809.6631	384.7844	47005.65	46258.35
809.8066	386.9726	46854.65	46107.5
809.9501	389.1603	46830	46081.85
810.0936	391.3474	46686.15	45890.9
810.2371	393.5339	46832.15	46080.65
810.3806	395.7199	46512.2	45765.25
810.5241	397.9052	46597.55	45849.2
810.6677	400.09	46576.15	45826.05
810.8113	402.2743	46582.15	45833.1
810.9548	404.4579	46561.7	45808.5
811.0984	406.641	46546	45791.15
811.2421	408.8235	46707	45949
811.3857	411.0054	46669.1	45910.35
811.5293	413.1868	46763.8	45999.5
811.673	415.3675	46766.25	46001.05
811.8166	417.5477	46748.95	45980.95
811.9603	419.7273	46645.95	45875.6
812.104	421.9064	46492.55	45716.75
812.2477	424.0848	46391.65	45620.7
812.3914	426.2627	46338.2	45566.25
812.5351	428.4399	46180.95	45409.7
812.6788	430.6166	46134.6	45359.85
812.8226	432.7928	45991.1	45213.2
812.9663	434.9683	45851.3	45074.75
813.1101	437.1432	45811.25	45032.7
813.2539	439.3176	45670.35	44893.9
813.3977	441.4914	45517.55	44740.75
813.5415	443.6645	45465.75	44686.95
813.6853	445.8371	45315.85	44536.5
813.8291	448.0091	45185.85	44408.25
813.973	450.1806	45025.3	44248.65
814.1168	452.3514	44950.65	44168.3
814.2607	454.5216	44949.95	44161.1
814.4046	456.6913	44718.8	43933.15
814.5485	458.8603	44804.5	44022.2
814.6924	461.0288	44813.15	44028.95
814.8363	463.1967	44739.6	43958.6
814.9802	465.3639	44742.75	43957.55
815.1241	467.5306	44632.35	43849.05
815.2681	469.6967	44538.7	43754.1
815.412	471.8622	44372.9	43588.05
815.556	474.0271	44380.85	43594.45
815.7	476.1914	44410.15	43623.3
815.844	478.3551	44344.25	43557.6
815.988	480.5182	44400.8	43611.15
816.132	482.6807	44373.2	43584.75
816.276	484.8426	44414	43628.85
816.4201	487.0039	44509.6	43718.95
816.5641	489.1647	44551.4	43759.35
816.7082	491.3248	44584.95	43794.3
816.8522	493.4843	44559.4	43767.8
816.9963	495.6432	44509	43718.2
817.1404	497.8015	44321.35	43525.75
817.2845	499.9592	44410.35	43615.7
817.4286	502.1163	44317.2	43519.05
817.5727	504.2728	44217.8	43419.2
817.7168	506.4287	44260.95	43465.75
817.861	508.5839	44103.5	43306.6
818.0051	510.7386	44112.7	43317.9
818.1493	512.8927	44143.95	43340.35
818.2935	515.0461	44134.5	43335.65
818.4377	517.199	44125.9	43325.75
818.5818	519.3512	44053.8	43255.7
818.726	521.5029	44059.85	43252.55
818.8703	523.6539	44074.9	43270.3
819.0145	525.8043	44044.9	43241.75
819.1587	527.9541	44013.75	43208.65
819.303	530.1033	43891.95	43088.95
819.4472	532.2519	43787	42983.8
819.5915	534.3999	43724.6	42919.1
819.7357	536.5472	43757.2	42949.6
819.88	538.694	43728	42923.8
820.0243	540.8401	43734.1	42929.2
820.1686	542.9856	43709.5	42900.45
820.3129	545.1305	43672.7	42861.8
820.4572	547.2748	43709.15	42897.85
820.6016	549.4185	43707.5	42895.45
820.7459	551.5615	43571.65	42762.4
820.8902	553.704	43590	42779.1
821.0346	555.8458	43471.5	42658.4
821.1789	557.987	43484.85	42677.35
821.3233	560.1276	43427.85	42616.9
821.4677	562.2675	43530.45	42722.6
821.6121	564.4069	43484.7	42675.35
821.7565	566.5456	43401.1	42593.4
821.9009	568.6837	43430.7	42620.35
822.0453	570.8212	43253.45	42443.2
822.1897	572.958	43077.95	42262.5
822.3342	575.0942	42990.5	42176.85
822.4786	577.2299	42851.5	42038.2
822.6231	579.3648	42736.4	41923.55
822.7675	581.4992	42606.4	41793.9
822.912	583.6329	42449.75	41636.9
823.0565	585.766	42359.6	41545.8
823.201	587.8985	42345.65	41529.5
823.3454	590.0304	42218.1	41390.15
823.4899	592.1616	42192.1	41372.55
823.6345	594.2922	42160.2	41340.5
823.779	596.4222	42025.1	41205.7
823.9235	598.5515	41875.9	41055.35
824.068	600.6802	41749.05	40928.5
824.2126	602.8083	41590.05	40768.95
824.3571	604.9358	41574.45	40752
824.5017	607.0626	41437.1	40616.75
824.6462	609.1888	41383.2	40560
824.7908	611.3144	41432.3	40609.45
824.9354	613.4393	41330.25	40505.9
825.08	615.5636	41326.45	40505
825.2246	617.6873	41307.15	40482.5
825.3692	619.8103	41379.9	40553.05
825.5138	621.9327	41219.4	40392
825.6584	624.0544	41208.1	40383.25
825.803	626.1756	41119.9	40297.25
825.9477	628.2961	41064.45	40237.7
826.0923	630.4159	40952.85	40125.15
826.237	632.5351	40939.15	40113.6
826.3816	634.6537	40857.75	40030.1
826.5263	636.7716	40860.7	40031.65
826.6709	638.8889	40895.8	40067.15
826.8156	641.0056	40908.8	40079.2
826.9603	643.1216	40794.45	39964.95
827.105	645.237	40857	40026.2
827.2497	647.3518	40788.75	39960.75
827.3944	649.4659	40708.4	39882.1
827.5391	651.5793	40617.65	39786.55
827.6838	653.6922	40534.3	39705.8
827.8285	655.8043	40476.3	39645.9
827.9733	657.9159	40482.45	39650.45
828.118	660.0268	40359.35	39526.35
828.2627	662.137	40289.3	39454.05
828.4075	664.2466	40288.9	39455.3
828.5522	666.3556	40203	39369.45
828.697	668.4639	40082.1	39244.95
828.8418	670.5716	40107.95	39272.75
828.9865	672.6786	40095.15	39259.6
829.1313	674.785	39959	39122.1
829.2761	676.8907	39785.65	38949.2
829.4209	678.9958	39847.5	39012.1
829.5657	681.1002	39725.9	38888.95
829.7105	683.204	39628.05	38785.6
829.8553	685.3072	39640.9	38801.1
830.0001	687.4097	39539.6	38701.4
830.1449	689.5115	39489.55	38649.3
830.2898	691.6127	39487.5	38650
830.4346	693.7132	39389.7	38551.5
830.5794	695.8131	39455.75	38594.9
830.7243	697.9123	39416.65	38577.55
830.8691	700.0109	39362.9	38523.5
831.014	702.1089	39325.85	38485.35
831.1588	704.2061	39274.2	38434.6
831.3037	706.3028	39291.65	38449.25
831.4486	708.3987	39194.85	38353.5
831.5935	710.4941	39104	38263.7
831.7383	712.5887	39128.85	38285.2
831.8832	714.6827	39099.7	38252.75
832.0281	716.7761	39057.85	38217.2
832.173	718.8688	39030.1	38187.85
832.3179	720.9608	38883.5	38035.5
832.4628	723.0522	38941.4	38092.45
832.6077	725.1429	38866.8	38023.4
832.7527	727.233	38814.95	37969.7
832.8976	729.3224	38876.05	38028.7
833.0425	731.4112	38811.95	37964.7
833.1874	733.4993	38734.6	37885
833.3324	735.5867	38598.6	37749.95
833.4773	737.6735	38548.15	37700.35
833.6222	739.7596	38404	37556.6
833.7672	741.845	38340.95	37493.9
833.9122	743.9298	38235.1	37385.8
834.0571	746.014	38213.85	37366.2
834.2021	748.0974	38168.9	37319.55
834.347	750.1802	37974.2	37126.25
834.492	752.2624	37888.55	37041.05
834.637	754.3439	37759.35	36908.85
834.782	756.4247	37642.8	36784.5
834.9269	758.5048	37518.15	36668.8
835.0719	760.5843	37444.25	36594.1
835.2169	762.6631	37365.45	36514.75
835.3619	764.7413	37325.9	36477.95
835.5069	766.8188	37329.65	36479.15
835.6519	768.8956	37244.65	36391.05
835.7969	770.9718	37316.85	36467.5
835.9419	773.0473	37098.9	36248.85
836.0869	775.1221	37026.65	36175.55
836.232	777.1962	36944.75	36094.65
836.377	779.2697	36884.5	36029.1
836.522	781.3426	36879.45	36006.75
836.667	783.4147	36856.5	36004.3
836.8121	785.4862	36807.5	35958.05
836.9571	787.557	36677.75	35825.4
837.1021	789.6271	36561.25	35707.85
837.2472	791.6966	36378.5	35525.3
837.3922	793.7654	36136.2	35283.35
837.5373	795.8335	36197	35343.45
837.6823	797.901	36055.2	35203.45
837.8274	799.9678	36013.8	35158.5
837.9724	802.0339	35922.65	35069.65
838.1175	804.0993	35890.95	35026.3
838.2626	806.1641	35776.55	34920.6
838.4076	808.2282	35658.7	34803.5
838.5527	810.2916	35715	34857.3
838.6978	812.3544	35675	34821.65
838.8428	814.4164	35574.4	34719.75
838.9879	816.4778	35590	34731.7
839.133	818.5385	35466.6	34612
839.2781	820.5986	35504.55	34651.3
839.4232	822.658	35445.35	34587.5
839.5682	824.7166	35382.45	34526.35
839.7133	826.7747	35503.85	34647.75
839.8584	828.832	35424.7	34566.05
840.0035	830.8886	35306.25	34445.7
840.1486	832.9446	35282.95	34424.6
840.2937	834.9999	35190.15	34332.95
840.4388	837.0545	35083.4	34222.8
840.5839	839.1085	34979.9	34121.2
840.729	841.1618	34864.1	34003.55
840.8741	843.2143	34773.55	33914.45
841.0192	845.2662	34656.45	33797.7
841.1643	847.3175	34665.85	33808.95
841.3095	849.368	34519.45	33659.45
841.4546	851.4179	34458.3	33598.8
841.5997	853.467	34316.65	33456.7
841.7448	855.5155	34294.85	33437.1
841.8899	857.5633	34227.15	33368.45
842.0351	859.6105	34102.8	33245.25
842.1802	861.6569	34096.1	33235.65
842.3253	863.7027	34022.1	33161.6
842.4704	865.7478	34063.4	33203.4
842.6156	867.7922	34008.8	33149.45
842.7607	869.8359	33885.65	33023.8
842.9058	871.8789	33823.25	32961.95
843.0509	873.9212	33778.9	32887.5
843.1961	875.9629	33628.6	32768.65
843.3412	878.0039	33673.8	32810.8
843.4863	880.0441	33603.95	32744.05
843.6315	882.0837	33632	32769.15
843.7766	884.1226	33539.95	32674.8
843.9218	886.1609	33551.45	32690.15
844.0669	888.1984	33603.05	32742.9
844.212	890.2352	33627.85	32768.6
844.3572	892.2714	33539.15	32672.85
844.5023	894.3069	33517.1	32654.2
844.6475	896.3416	33321.45	32457.9
844.7926	898.3757	33313.75	32450.35
844.9377	900.4091	33231.3	32365.25
845.0829	902.4418	33175.05	32306
845.228	904.4739	33055.55	32188.65
845.3732	906.5052	33028.05	32164.55
845.5183	908.5358	33008.05	32145.95
845.6635	910.5658	32913.8	32047.45
845.8086	912.595	32821.1	31959.6
845.9538	914.6236	32683.45	31819.15
846.0989	916.6515	32657.1	31793.1
846.2441	918.6786	32507	31639.5
846.3892	920.7051	32516.25	31650.9
846.5344	922.7309	32576.2	31711.2
846.6795	924.756	32390.5	31524.7
846.8246	926.7804	32369.2	31499.85
846.9698	928.8041	32150	31281.95
847.1149	930.8272	32155.4	31290.55
847.2601	932.8495	32009.4	31144
847.4052	934.8711	32026.6	31161.45
847.5504	936.892	31820.1	30953.3
847.6955	938.9123	31790.1	30921.15
847.8407	940.9318	31772.3	30904.65
847.9858	942.9506	31657.65	30792.2
848.131	944.9688	31494.75	30629
848.2761	946.9862	31447.35	30581
848.4213	949.003	31263.9	30397.75
848.5664	951.019	31151.1	30283.45
848.7115	953.0344	31118.9	30252.8
848.8567	955.0491	31042.3	30171.7
849.0018	957.063	31023.5	30156.85
849.147	959.0763	31092.8	30224.8
849.2921	961.0888	30935.45	30065.6
849.4373	963.1007	30834.65	29966.1
849.5824	965.1119	30812.65	29945.5
849.7275	967.1223	30832.45	29966.4
849.8727	969.1321	30682	29816.75
850.0178	971.1412	30688.55	29819.3
850.1629	973.1495	30592.95	29725.9
850.3081	975.1572	30578.2	29661.85
850.4532	977.1641	30524.05	29656.75
850.5983	979.1704	30417.8	29548.55
850.7435	981.1759	30313.4	29440.85
850.8886	983.1808	30307.9	29437.35
851.0337	985.1849	30215.4	29341.9
851.1788	987.1884	30117.85	29245
851.324	989.1911	30088.6	29216.9
851.4691	991.1932	30016.25	29142.2
851.6142	993.1945	29871.4	29002.2
851.7593	995.1951	29708.2	28838
851.9045	997.1951	29665.95	28790.3
852.0496	999.1943	29505.05	28637.05
852.1947	1001.1928	29425	28554.35
852.3398	1003.1906	29328	28458.9
852.4849	1005.1877	29327.3	28455.65
852.63	1007.1841	29192.75	28322.6
852.7751	1009.1798	29091.45	28222.15
852.9202	1011.1748	29016.05	28144.65
853.0653	1013.1691	28921.7	28050.6
853.2104	1015.1627	28816.7	27942.8
853.3555	1017.1556	28613.35	27742.95
853.5006	1019.1477	28487.75	27615
853.6457	1021.1392	28325.65	27456.5
853.7908	1023.1299	28234.25	27364.45
853.9359	1025.12	28133.35	27261.15
854.081	1027.1093	28008.25	27140.4
854.2261	1029.0979	27953.5	27087.4
854.3712	1031.0859	27809.9	26941.5
854.5163	1033.0731	27796.95	26927.6
854.6613	1035.0596	27688.95	26817.6
854.8064	1037.0454	27519.4	26648.95
854.9515	1039.0304	27515.65	26643.7
855.0965	1041.0148	27366.65	26494.75
855.2416	1042.9985	27240.3	26366.85
855.3867	1044.9814	27211.7	26338.95
855.5317	1046.9636	27060.1	26184.1
855.6768	1048.9452	26984.85	26112.8
855.8219	1050.926	27005.65	26131.5
855.9669	1052.9061	26918.35	26046.45
856.112	1054.8855	26848.15	25975.6
856.257	1056.8642	26797.75	25924.35
856.4021	1058.8421	26770.1	25892.6
856.5471	1060.8194	26643.8	25770.1
856.6921	1062.7959	26585.35	25710.7
856.8372	1064.7717	26577.8	25703.15
856.9822	1066.7469	26489.7	25616.95
857.1272	1068.7213	26470.1	25596.4
857.2723	1070.695	26438.9	25566
857.4173	1072.6679	26306.15	25431.65
857.5623	1074.6402	26291.2	25416.4
857.7073	1076.6117	26243.45	25364.75
857.8523	1078.5826	26194.05	25318.75
857.9973	1080.5527	26127.9	25251.9
858.1423	1082.5221	26029.5	25154.5
858.2873	1084.4908	25977	25101.8
858.4323	1086.4587	25868	24993.2
858.5773	1088.426	25790.2	24916.75
858.7223	1090.3925	25691.75	24812.4
858.8673	1092.3584	25658.5	24784.5
859.0123	1094.3235	25528.9	24654.3
859.1573	1096.2879	25498.75	24622.65
859.3022	1098.2515	25502.9	24627.1
859.4472	1100.2145	25484.6	24608.5
859.5922	1102.1767	25350.7	24474.85
859.7371	1104.1382	25348.65	24473.75
859.8821	1106.099	25340.5	24463.5
860.027	1108.0591	25282.6	24407.8
860.172	1110.0185	25241.7	24365.25
860.3169	1111.9771	25271.35	24396.45
860.4619	1113.9351	25152.8	24278.15
860.6068	1115.8923	25160.1	24284.25
860.7517	1117.8488	25102.85	24227.6
860.8967	1119.8045	24996.6	24120.8
861.0416	1121.7596	24937.65	24061.95
861.1865	1123.7139	24744	23869.4
861.3314	1125.6675	24659.7	23782.65
861.4763	1127.6204	24671.3	23797.15
861.6212	1129.5726	24551.3	23674.65
861.7661	1131.524	24544.05	23668.05
861.911	1133.4748	24470.5	23595.1
862.0559	1135.4248	24356.05	23478.8
862.2008	1137.3741	24281.55	23404.95
862.3457	1139.3226	24169.05	23288.5
862.4905	1141.2705	24204.6	23328.8
862.6354	1143.2176	24051.8	23169.2
862.7803	1145.164	24024.6	23144.95
862.9251	1147.1097	23974.8	23099
863.07	1149.0546	23946.6	23069.35
863.2148	1150.9989	23896.7	23019.9
863.3597	1152.9424	23907.65	23032.8
863.5045	1154.8852	23819.15	22941.65
863.6493	1156.8272	23786.45	22910.75
863.7942	1158.7686	23762.1	22879.25
863.939	1160.7092	23687.65	22808.55
864.0838	1162.6491	23585.3	22707.4
864.2286	1164.5883	23566.4	22689.7
864.3734	1166.5267	23483.95	22605.35
864.5182	1168.4644	23500.9	22622.6
864.663	1170.4014	23490.2	22609.05
864.8078	1172.3377	23549.95	22675.8
864.9526	1174.2732	23488.75	22611.75
865.0974	1176.2081	23525	22647.9
865.2421	1178.1421	23543.8	22664.35
865.3869	1180.0755	23625.55	22747.45
865.5317	1182.0082	23556.45	22680
865.6764	1183.9401	23559.65	22680.7
865.8212	1185.8713	23457.45	22581.2
865.9659	1187.8017	23285	22409.4
866.1106	1189.7315	23189.2	22312.4
866.2554	1191.6605	22963.5	22088.35
866.4001	1193.5888	22843.9	21966.3
866.5448	1195.5163	22768	21891.95
866.6895	1197.4432	22684.35	21805.55
866.8342	1199.3693	22643.45	21767.15
866.9789	1201.2947	22541.45	21660.15
867.1236	1203.2193	22394.35	21514.1
867.2683	1205.1432	22359	21478.95
867.413	1207.0664	22326.05	21446.9
867.5576	1208.9889	22267.6	21385.75
867.7023	1210.9106	22186.25	21307.95
867.847	1212.8316	22121.9	21245.45
867.9916	1214.7519	22070.8	21182.15
868.1363	1216.6715	21991.5	21116.65
868.2809	1218.5903	21973.65	21096.95
868.4255	1220.5084	21904.4	21027.55
868.5701	1222.4257	21913.75	21034.45
868.7148	1224.3424	21817.15	20940.55
868.8594	1226.2583	21833.45	20951.35
869.004	1228.1735	21726.95	20845.45
869.1486	1230.0879	21641.4	20762.1
869.2932	1232.0016	21630.45	20752.95
869.4377	1233.9146	21599.85	20717.4
869.5823	1235.8269	21527.55	20648.75
869.7269	1237.7384	21545.8	20667.75
869.8715	1239.6492	21472.15	20595.2
870.016	1241.5592	21442.7	20560.75
870.1606	1243.4686	21389.95	20509.05
870.3051	1245.3772	21429.25	20550.05
870.4496	1247.285	21395.3	20515.35
870.5941	1249.1922	21370.95	20490.45
870.7387	1251.0986	21433	20556.25
870.8832	1253.0042	21365.8	20487.1
871.0277	1254.9092	21417.4	20537
871.1722	1256.8134	21438.45	20562.55
871.3167	1258.7169	21512.6	20630.65
871.4611	1260.6196	21499.75	20621.2
871.6056	1262.5216	21531.8	20649.8
871.7501	1264.4229	21450.05	20572.65
871.8945	1266.3234	21451.75	20570.8
872.039	1268.2232	21379.45	20497.85
872.1834	1270.1223	21306.7	20425.85
872.3278	1272.0207	21228.45	20348.75
872.4723	1273.9183	21136.6	20251.25
872.6167	1275.8151	21061.45	20180.65
872.7611	1277.7113	21075.6	20196
872.9055	1279.6067	21085.65	20206.25
873.0499	1281.5014	21133.6	20253.45
873.1943	1283.3953	21277.55	20394.5
873.3386	1285.2885	21454.25	20576
873.483	1287.181	21539.2	20659.9
873.6274	1289.0727	21603.4	20724
873.7717	1290.9637	21498.55	20617.7
873.9161	1292.854	21433.75	20554.05
874.0604	1294.7435	21244.85	20365.2
874.2047	1296.6323	21133.1	20254.25
874.349	1298.5204	21003.65	20121
874.4933	1300.4077	20899.1	20019
874.6376	1302.2943	20854.65	19971.85
874.7819	1304.1802	20838.7	19958.65
874.9262	1306.0653	20738.3	19854.15
875.0705	1307.9497	20693.35	19810.45
875.2147	1309.8333	20707.25	19825.75
875.359	1311.7162	20633.25	19752.6
875.5032	1313.5984	20580.2	19696.45
875.6475	1315.4798	20477.05	19594.65
875.7917	1317.3605	20471.35	19587.25
875.9359	1319.2405	20445.8	19562.6
876.0801	1321.1197	20445.45	19560.5
876.2243	1322.9982	20374.05	19488.65
876.3685	1324.876	20329.9	19448.35
876.5127	1326.753	20212.2	19330.6
876.6569	1328.6293	20147.75	19265.75
876.801	1330.5048	20113.6	19230.35
876.9452	1332.3796	19935.2	19055.05
877.0893	1334.2537	19896.8	18991.35
877.2335	1336.127	19789.9	18908.05
877.3776	1337.9996	19741.35	18860.2
877.5217	1339.8714	19704.75	18823.65
877.6658	1341.7426	19644.55	18718.95
877.8099	1343.6129	19565.15	18683.9
877.954	1345.4826	19516.75	18634
878.0981	1347.3515	19494.15	18611.4
878.2422	1349.2196	19443.75	18561.4
878.3862	1351.087	19428.55	18546.3
878.5303	1352.9537	19400.1	18519.45
878.6743	1354.8197	19410.55	18531.55
878.8184	1356.6849	19402.35	18521
878.9624	1358.5493	19336.75	18454.2
879.1064	1360.4131	19296.1	18414.6
879.2504	1362.276	19319.1	18438.5
879.3944	1364.1383	19330.6	18449.4
879.5384	1365.9998	19253.9	18368.4
879.6823	1367.8606	19188.55	18306.7
879.8263	1369.7206	19212.7	18330.4
879.9702	1371.5799	19116.35	18230.8
880.1142	1373.4384	19048.3	18165.45
880.2581	1375.2962	19030.2	18148.35
880.402	1377.1533	18911.85	18029.45
880.5459	1379.0096	18777.05	17893.9
880.6898	1380.8652	18712.75	17831.05
880.8337	1382.7201	18658.75	17777.55
880.9776	1384.5742	18566.3	17684.25
881.1215	1386.4275	18463.65	17579.3
881.2653	1388.2802	18375.6	17493.2
881.4092	1390.132	18311.15	17431.3
881.553	1391.9832	18303.8	17419.1
881.6968	1393.8336	18216.75	17336.25
881.8406	1395.6832	18138.9	17255.7
881.9844	1397.5322	18084.75	17203.2
882.1282	1399.3803	18015.4	17129.8
882.272	1401.2278	17927.15	17045.2
882.4158	1403.0745	17900.35	17017.55
882.5595	1404.9204	17804.3	16924.75
882.7033	1406.7656	17815.15	16931.4
882.847	1408.6101	17715.1	16833.65
882.9908	1410.4538	17626.85	16743.8
883.1345	1412.2968	17577.45	16696.1
883.2782	1414.139	17529.15	16644.4
883.4219	1415.9805	17509	16626.95
883.5656	1417.8213	17420.15	16517.5
883.7092	1419.6613	17388.6	16507.65
883.8529	1421.5006	17371.25	16487.35
883.9965	1423.3391	17345.85	16461.5
884.1402	1425.1769	17305.55	16423
884.2838	1427.0139	17355.6	16473.5
884.4274	1428.8502	17387	16504.1
884.571	1430.6858	17381.8	16498.3
884.7146	1432.5206	17323.95	16440.7
884.8582	1434.3547	17316.95	16433.4
885.0018	1436.188	17278.45	16398
885.1453	1438.0206	17267	16382.75
885.2889	1439.8524	17165.65	16281.35
885.4324	1441.6835	17161.25	16278.8
885.5759	1443.5139	17135.8	16248.1
885.7194	1445.3435	17088.2	16206.3
885.8629	1447.1724	17072.15	16189.9
886.0064	1449.0005	17059.25	16175.25
886.1499	1450.8279	16984.45	16101.85
886.2933	1452.6545	16975.45	16090.95
886.4368	1454.4804	16986.2	16104.9
886.5802	1456.3056	16939.35	16048.4
886.7237	1458.13	16890.65	16006.6
886.8671	1459.9536	16891.45	16010.45
887.0105	1461.7766	16783.65	15901.35
887.1539	1463.5987	16730.7	15845.65
887.2972	1465.4202	16660.1	15777.15
887.4406	1467.2409	16574.8	15690.25
887.584	1469.0608	16573.1	15690.5
887.7273	1470.88	16501.75	15617.4
887.8706	1472.6984	16466.75	15583.4
888.0139	1474.5161	16387.95	15502.65
888.1572	1476.3331	16317.4	15434.9
888.3005	1478.1493	16300.5	15414.1
888.4438	1479.9648	16287.1	15405.6
888.5871	1481.7795	16219.25	15335.9
888.7303	1483.5935	16220.75	15338
888.8736	1485.4067	16186.9	15305.25
889.0168	1487.2192	16150.1	15265.3
889.16	1489.031	16156.15	15269.05
889.3032	1490.842	16100.75	15216.95
889.4464	1492.6522	16072.25	15190
889.5896	1494.4618	16021	15136.15
889.7327	1496.2705	16007.45	15125.1
889.8759	1498.0785	15998.25	15113.3
890.019	1499.8858	15936.9	15055
890.1622	1501.6924	15888.4	15005.75
890.3053	1503.4981	15863.65	14982.45
890.4484	1505.3032	15809.75	14925.95
890.5914	1507.1075	15742.25	14858.4
890.7345	1508.911	15733.55	14848.95
890.8776	1510.7138	15672.15	14787.6
891.0206	1512.5159	15639	14755.15
891.1637	1514.3172	15585.45	14701.75
891.3067	1516.1178	15551.65	14670.2
891.4497	1517.9176	15519.95	14631.25
891.5927	1519.7166	15456.45	14573.65
891.7357	1521.515	15384.05	14495.25
891.8786	1523.3126	15320.4	14434.35
892.0216	1525.1094	15323	14436.7
892.1645	1526.9055	15246.65	14366.15
892.3074	1528.7008	15189.25	14307.6
892.4503	1530.4954	15115.95	14227.45
892.5932	1532.2893	15098.2	14216
892.7361	1534.0824	15007	14118
892.879	1535.8747	15006.45	14124
893.0218	1537.6663	14950.5	14066.85
893.1647	1539.4572	14905.6	14020.1
893.3075	1541.2473	14844.45	13961.9
893.4503	1543.0367	14786.45	13903.15
893.5931	1544.8253	14735.25	13848.35
893.7359	1546.6132	14715.95	13829.95
893.8787	1548.4003	14618.4	13726.4
894.0214	1550.1867	14610	13717.9
894.1642	1551.9723	14539.75	13651.05
894.3069	1553.7572	14531.25	13647.75
894.4496	1555.5414	14508.4	13625.4
894.5923	1557.3247	14472.25	13589.6
894.735	1559.1074	14481.45	13598.95
894.8777	1560.8893	14421.65	13539.6
895.0204	1562.6705	14405.65	13523.75
895.163	1564.4509	14406.7	13525.95
895.3056	1566.2305	14367.25	13485.9
895.4482	1568.0094	14367.65	13485.05
895.5908	1569.7876	14324.45	13442.6
895.7334	1571.565	14288.35	13404.85
895.876	1573.3417	14252.65	13369.85
896.0186	1575.1176	14215.85	13333.4
896.1611	1576.8928	14225.6	13342.05
896.3036	1578.6672	14161.1	13279.15
896.4461	1580.4409	14115.55	13234.95
896.5886	1582.2138	14058.45	13173.45
896.7311	1583.986	14066.65	13183.4
896.8736	1585.7575	14065.85	13183.95
897.0161	1587.5282	14066.45	13188.75
897.1585	1589.2981	14068.35	13187.4
897.3009	1591.0673	13998.3	13116
897.4433	1592.8358	14001.1	13120.4
897.5857	1594.6035	13947.45	13060.9
897.7281	1596.3704	13879.9	12996.3
897.8705	1598.1366	13801.1	12919.65
898.0128	1599.9021	13734.95	12852.4
898.1551	1601.6668	13660.25	12774.25
898.2975	1603.4308	13610.3	12727.15
898.4398	1605.194	13550.8	12662.2
898.5821	1606.9564	13512.6	12632.55
898.7243	1608.7182	13526.7	12641.05
898.8666	1610.4791	13534.25	12655.1
899.0088	1612.2394	13588.25	12708.2
899.1511	1613.9988	13643.15	12761.55
899.2933	1615.7576	13685.35	12804.15
899.4355	1617.5156	13677.9	12788.9
899.5776	1619.2728	13658.05	12776.7
899.7198	1621.0293	13542.55	12662.05
899.862	1622.785	13435.55	12548
900.0041	1624.54	13296.9	12411.35
900.1462	1626.2942	13171.05	12289.15
900.2883	1628.0477	12995.8	12110.25
900.4304	1629.8005	12861.3	11975.45
900.5725	1631.5525	12781.8	11899.9
900.7145	1633.3037	12681	11801.15
900.8566	1635.0542	12626.2	11745.85
900.9986	1636.804	12558.15	11675.85
901.1406	1638.553	12576.55	11607.05
901.2826	1640.3013	12483.45	11600.8
901.4245	1642.0488	12367.95	11485
901.5665	1643.7955	12333.3	11450.95
901.7085	1645.5416	12293.45	11411.4
901.8504	1647.2868	12270.85	11388.4
901.9923	1649.0313	12177.95	11295.85
902.1342	1650.7751	12163.9	11279.55
902.2761	1652.5181	12119.85	11238.35
902.4179	1654.2604	12058.8	11175.85
902.5598	1656.0019	12050.35	11170.05
902.7016	1657.7427	12014.7	11131.7
902.8434	1659.4828	12027.15	11145.9
902.9852	1661.222	11970.05	11086.05
903.127	1662.9606	11975.3	11094.8
903.2687	1664.6984	11964.35	11083.3
903.4105	1666.4354	11976.1	11093.8
903.5522	1668.1717	11931.55	11048.7
903.6939	1669.9072	11852.2	10969.8
903.8356	1671.642	11763.55	10879.95
903.9773	1673.3761	11693.4	10812.2
904.119	1675.1094	11623.75	10740.25
904.2606	1676.8419	11561.05	10678.85
904.4022	1678.5737	11511.8	10628.3
904.5439	1680.3048	11460.2	10578.15
904.6855	1682.0351	11407.65	10525.3
904.827	1683.7646	11324.05	10439.8
904.9686	1685.4934	11299	10414.95
905.1101	1687.2215	11256.75	10373.3
905.2517	1688.9488	11162.25	10279.95
905.3932	1690.6754	11128.55	10248.7
905.5347	1692.4012	11104.1	10224.3
905.6761	1694.1263	11053.85	10171.65
905.8176	1695.8506	11036.25	10153.5
905.9591	1697.5742	11007.95	10126.45
906.1005	1699.297	10940.45	10057.55
906.2419	1701.0191	10869.75	9987.9
906.3833	1702.7404	10832.8	9949.25
906.5246	1704.461	10794.35	9911.3
906.666	1706.1808	10757.3	9873.15
906.8073	1707.8999	10729.9	9846.25
906.9487	1709.6182	10700.2	9818.05
907.09	1711.3358	10669.25	9788.2
907.2313	1713.0527	10622.8	9741.7
907.3725	1714.7688	10597.45	9710.7
907.5138	1716.4841	10536.65	9652.75
907.655	1718.1987	10528.7	9642.15
907.7962	1719.9126	10489.5	9609.85
907.9374	1721.6257	10463.35	9578.35
908.0786	1723.338	10437.1	9554
908.2198	1725.0496	10394.7	9512.6
908.3609	1726.7605	10382.3	9498.45
908.502	1728.4706	10363.6	9481.7
908.6431	1730.18	10302.5	9418.45
908.7842	1731.8886	10271.55	9392.55
908.9253	1733.5964	10270.7	9365.8
909.0664	1735.3036	10246.1	9362.55
909.2074	1737.0099	10226.75	9345.95
909.3484	1738.7156	10201.3	9322.05
909.4894	1740.4204	10148.75	9263.25
909.6304	1742.1246	10129.35	9244.2
909.7714	1743.8279	10112.35	9231.3
909.9123	1745.5306	10147.2	9264.8
910.0532	1747.2325	10093.1	9211.65
910.1941	1748.9336	10051.45	9169.4
910.335	1750.634	10012.35	9128.4
910.4759	1752.3336	10012.3	9130
910.6168	1754.0325	10017.05	9137.05
910.7576	1755.7307	9991.2	9108.45
910.8984	1757.4281	9985.2	9103.6
911.0392	1759.1247	9967.25	9077.3
911.18	1760.8206	9954.2	9069.35
911.3208	1762.5158	9960.65	9077.05
911.4615	1764.2102	9896.75	9016.05
911.6022	1765.9039	9870.15	8988.1
911.7429	1767.5968	9866.1	8984
911.8836	1769.289	9821.35	8937.75
912.0243	1770.9804	9816.25	8933.9
912.1649	1772.6711	9793.5	8911.5
912.3056	1774.361	9761.25	8877.15
912.4462	1776.0502	9741.3	8858.55
912.5868	1777.7386	9757.35	8872.5
912.7274	1779.4263	9700.1	8817.75
912.8679	1781.1132	9686.85	8804.15
913.0084	1782.7994	9615.85	8732.9
913.149	1784.4849	9634.35	8752.55
913.2895	1786.1696	9619.75	8719.65
913.4299	1787.8535	9580.65	8698.6
913.5704	1789.5367	9551.05	8672.35
913.7108	1791.2192	9532.55	8651.75
913.8513	1792.9009	9507.9	8608.55
913.9917	1794.5818	9479.1	8595.05
914.132	1796.2621	9456.6	8575.35
914.2724	1797.9415	9440.1	8557.6
914.4128	1799.6202	9449.7	8565.95
914.5531	1801.2982	9378.6	8494.85
914.6934	1802.9755	9382.4	8499.2
914.8337	1804.6519	9353.2	8471.75
914.9739	1806.3277	9311.45	8430.15
915.1142	1808.0027	9284.55	8403.2
915.2544	1809.6769	9279.2	8395.35
915.3946	1811.3504	9251.95	8371
915.5348	1813.0231	9223.85	8342.4
915.675	1814.6951	9199.75	8318.15
915.8151	1816.3664	9213.85	8331.05
915.9553	1818.0369	9205	8321.75
916.0954	1819.7067	9159.35	8277.95
916.2355	1821.3757	9149.55	8263.05
916.3755	1823.044	9133.5	8251.95
916.5156	1824.7115	9090.75	8207.25
916.6556	1826.3783	9066.05	8184
916.7956	1828.0443	9043	8162.75
916.9356	1829.7096	9017.6	8135.55
917.0756	1831.3741	9013.1	8127.5
917.2155	1833.0379	8967.4	8086.1
917.3555	1834.701	8956.1	8073.7
917.4954	1836.3633	8928.05	8046.3
917.6353	1838.0248	8925.35	8042.65
917.7751	1839.6856	8906.2	8024.75
917.915	1841.3457	8898.25	8017.15
918.0548	1843.005	8881.1	7999.3
918.1946	1844.6636	8828.65	7947.05
918.3344	1846.3214	8832.75	7950.65
918.4742	1847.9785	8808.25	7925.35
918.6139	1849.6349	8791.3	7907.4
918.7537	1851.2904	8771.7	7880.9
918.8934	1852.9453	8730.6	7847
919.0331	1854.5994	8716.7	7833.3
919.1727	1856.2528	8712.35	7827.75
919.3124	1857.9054	8681.75	7799.75
919.452	1859.5572	8680.65	7799.5
919.5916	1861.2083	8655.8	7772.4
919.7312	1862.8587	8659.2	7777.8
919.8708	1864.5084	8635.85	7753.8
920.0103	1866.1572	8606.75	7725.55
920.1498	1867.8054	8574.05	7690.4
920.2893	1869.4528	8550	7666.05
920.4288	1871.0994	8535.95	7651.4
920.5683	1872.7453	8540.8	7657.8
920.7077	1874.3905	8517	7628.1
920.8471	1876.0349	8470.75	7587.8
920.9865	1877.6786	8496.75	7614.1
921.1259	1879.3215	8474.7	7594
921.2653	1880.9637	8446.95	7565
921.4046	1882.6051	8440	7557.2
921.5439	1884.2458	8398.5	7515.7
921.6832	1885.8858	8397.15	7515.15
921.8225	1887.525	8367.2	7484.65
921.9617	1889.1634	8327.95	7446
922.101	1890.8011	8323.95	7442.55
922.2402	1892.4381	8301.6	7418.9
922.3794	1894.0743	8293.35	7411.25
922.5185	1895.7098	8260.05	7378.1
922.6577	1897.3446	8241.85	7360
922.7968	1898.9786	8226.55	7339.25
922.9359	1900.6118	8203.8	7323.5
923.075	1902.2443	8175.4	7290.85
923.214	1903.8761	8162.75	7281.8
923.3531	1905.5071	8120.4	7235.45
923.4921	1907.1374	8085.05	7203.35
923.6311	1908.7669	8098.7	7215.35
923.77	1910.3957	8097.2	7216.2
923.909	1912.0237	8023.4	7140.95
924.0479	1913.651	8021.2	7137.9
924.1868	1915.2776	7979.4	7097.25
924.3257	1916.9034	7974.95	7095.35
924.4646	1918.5285	7950.5	7069.6
924.6034	1920.1528	7919.25	7037.5
924.7422	1921.7764	7909.95	7026.45
924.881	1923.3992	7872.8	6991.9
925.0198	1925.0213	7840.3	6958.4
925.1586	1926.6427	7803	6921.1
925.2973	1928.2633	7951.3	6856.65
925.436	1929.8832	7798.7	6912.2
925.5747	1931.5023	7736.15	6854
925.7134	1933.1207	7739.25	6856.35
925.852	1934.7383	7669.5	6787.9
925.9906	1936.3552	7666.05	6783.2
926.1292	1937.9714	7669.15	6788.05
926.2678	1939.5868	7644.3	6761.7
926.4064	1941.2015	7600.6	6717.65
926.5449	1942.8154	7580.5	6698.65
926.6834	1944.4286	7549.55	6665.65
926.8219	1946.041	7559.8	6654.9
926.9604	1947.6528	7510.45	6624.5
927.0988	1949.2637	7470.3	6589.7
927.2372	1950.8739	7465.4	6582.75
927.3756	1952.4834	7441.05	6561.3
927.514	1954.0921	7432.9	6551
927.6523	1955.7001	7403.2	6518.6
927.7907	1957.3074	7391.15	6511.8
927.929	1958.9139	7368	6485.25
928.0673	1960.5197	7341.65	6459.3
928.2055	1962.1247	7328.9	6448.45
928.3438	1963.729	7297.55	6417.45
928.482	1965.3325	7282.6	6376.2
928.6202	1966.9353	7267.25	6386.15
928.7584	1968.5374	7240.25	6357.15
928.8965	1970.1387	7217.25	6336.25
929.0346	1971.7393	7185	6303.75
929.1727	1973.3392	7187.55	6305.7
929.3108	1974.9383	7150.85	6270.4
929.4489	1976.5366	7125.75	6244.75
929.5869	1978.1342	7116.6	6235.3
929.7249	1979.7311	7090.2	6206.15
929.8629	1981.3273	7077.3	6197.8
930.0009	1982.9227	7066.15	6182.85
930.1388	1984.5173	7036.7	6157.25
930.2767	1986.1112	7027.15	6147
930.4146	1987.7044	7011.4	6130.7
930.5525	1989.2968	7007.1	6124.85
930.6904	1990.8885	6997.1	6113.1
930.8282	1992.4795	6985.8	6102.75
930.966	1994.0697	6946.7	6067.55
931.1038	1995.6592	6921.9	6040.7
931.2415	1997.2479	6917.2	6036.3
931.3793	1998.8359	6869.7	5988.35
931.517	2000.4232	6865.85	5984.7
931.6547	2002.0097	6865.75	5986.2
931.7923	2003.5955	6806.1	5926.55
931.93	2005.1805	6787.15	5904.95
932.0676	2006.7648	6782.6	5902.15
932.2052	2008.3484	6774.55	5892.8
932.3427	2009.9312	6791.4	5908.6
932.4803	2011.5133	6741.45	5862.55
932.6178	2013.0946	6740.15	5860.55
932.7553	2014.6752	6714.2	5837.05
932.8928	2016.2551	6697.6	5815.15
933.0302	2017.8342	6676.75	5796.8
933.1676	2019.4126	6656.75	5775.6
933.305	2020.9902	6638.15	5758.45
933.4424	2022.5672	6645.05	5763.8
933.5798	2024.1433	6621.5	5735.75
933.7171	2025.7188	6604.05	5724.75
933.8544	2027.2935	6603.1	5723.6
933.9917	2028.8674	6578.25	5699.25
934.129	2030.4406	6552.65	5674
934.2662	2032.0131	6510.45	5630.45
934.4034	2033.5849	6523.6	5638.25
934.5406	2035.1559	6490.5	5611.3
934.6778	2036.7261	6499.8	5620.55
934.8149	2038.2957	6481.95	5601.95
934.952	2039.8645	6478.45	5597.55
935.0891	2041.4325	6478.15	5595.2
935.2262	2042.9998	6456.95	5576.95
935.3632	2044.5664	6435.35	5554.5
935.5002	2046.1323	6421.8	5541.3
935.6372	2047.6974	6407.5	5526.85
935.7742	2049.2617	6388.95	5507.7
935.9111	2050.8254	6408.6	5505.9
936.048	2052.3883	6379.5	5500
936.1849	2053.9504	6372.3	5492.6
936.3218	2055.5118	6349.1	5467.1
936.4586	2057.0725	6330.2	5445.8
936.5955	2058.6325	6340.7	5460.3
936.7323	2060.1917	6306.95	5426.9
936.869	2061.7502	6291.15	5407.3
937.0058	2063.3079	6271.65	5392.45
937.1425	2064.8649	6266.25	5379.5
937.2792	2066.4212	6255.75	5376
937.4159	2067.9767	6230.8	5349.75
937.5525	2069.5315	6222.75	5344.25
937.6891	2071.0856	6207.1	5327.3
937.8257	2072.6389	6163.95	5284.35
937.9623	2074.1915	6154.45	5276.3
938.0989	2075.7433	6126.75	5245.3
938.2354	2077.2945	6119.3	5240.9
938.3719	2078.8448	6103	5222.7
938.5084	2080.3945	6091.1	5211.75
938.6448	2081.9434	6108.4	5227.6
938.7812	2083.4916	6082.35	5200.6
938.9176	2085.039	6046.8	5162.85
939.054	2086.5857	6053.35	5172.85
939.1903	2088.1317	6055.45	5174.6
939.3267	2089.677	6037.8	5155.4
939.463	2091.2215	6007.55	5127.35
939.5992	2092.7652	6008.4	5125.05
939.7355	2094.3083	5999.85	5118.9
939.8717	2095.8506	5992.4	5111.15
940.0079	2097.3921	5991.65	5111
940.1441	2098.933	5978.45	5098.7
940.2802	2100.4731	5967.45	5086.95
940.4163	2102.0124	5956.15	5059.45
940.5524	2103.5511	5939.95	5061.1
940.6885	2105.089	5951.85	5070.55
940.8245	2106.6261	5925.35	5043.95
940.9606	2108.1626	5915.6	5032.1
941.0965	2109.6983	5943.9	5035.85
941.2325	2111.2332	5911.6	5031.6
941.3684	2112.7675	5891.55	5008.35
941.5044	2114.301	5879.5	4997.2
941.6403	2115.8337	5850.7	4970.05
941.7761	2117.3657	5838.85	4958.65
941.912	2118.897	5833.55	4952.25
942.0478	2120.4276	5823.55	4937.15
942.1835	2121.9575	5817.95	4937.35
942.3193	2123.4866	5810.8	4927
942.455	2125.0149	5813.6	4929.65
942.5907	2126.5426	5784.6	4904
942.7264	2128.0695	5762.95	4879.3
942.8621	2129.5956	5747.75	4869.3
942.9977	2131.1211	5747.5	4863.45
943.1333	2132.6458	5738.2	4857.15
943.2689	2134.1698	5722.3	4841.35
943.4044	2135.693	5694.95	4814.45
943.54	2137.2155	5697.65	4816
943.6755	2138.7373	5685.85	4804.5
943.8109	2140.2584	5660.45	4780.5
943.9464	2141.7787	5643.55	4756.45
944.0818	2143.2983	5631.3	4751.1
944.2172	2144.8171	5618.55	4739.75
944.3526	2146.3353	5613.95	4729.7
944.4879	2147.8527	5567.05	4686.6
944.6232	2149.3693	5581.05	4700.45
944.7585	2150.8853	5551.9	4672.7
944.8938	2152.4005	5536.6	4657.75
945.029	2153.9149	5540.4	4659.9
945.1642	2155.4287	5532.4	4650.85
945.2994	2156.9417	5515.3	4633
945.4346	2158.454	5502.4	4621.75
945.5697	2159.9655	5485.8	4605.5
945.7048	2161.4764	5481.1	4600.8
945.8399	2162.9865	5484.2	4602.35
945.9749	2164.4958	5466.05	4583.75
946.1099	2166.0045	5441.45	4558.15
946.2449	2167.5124	5430.9	4550.5
946.3799	2169.0195	5429.15	4549.2
946.5148	2170.526	5433.15	4552.25
946.6498	2172.0317	5416.95	4537.1
946.7846	2173.5367	5380.55	4499.7
946.9195	2175.0409	5373.4	4494.4
947.0543	2176.5445	5370.7	4489.65
947.1891	2178.0473	5339.8	4460.15
947.3239	2179.5494	5328.4	4444.3
947.4587	2181.0507	5314.8	4435.6
947.5934	2182.5513	5310.15	4428.2
947.7281	2184.0512	5301.2	4421.55
947.8628	2185.5504	5288.1	4406.65
947.9974	2187.0488	5239.9	4359.45
948.132	2188.5465	5258	4377.15
948.2666	2190.0435	5231.5	4349.05
948.4012	2191.5397	5215.6	4335.65
948.5357	2193.0353	5212.85	4333.9
948.6702	2194.5301	5170	4287.65
948.8047	2196.0241	5160	4279.8
948.9392	2197.5175	5166.35	4286.5
949.0736	2199.0101	5139.35	4255.2
949.208	2200.502	5118.7	4238.8
949.3424	2201.9931	5106.7	4226
949.4767	2203.4835	5083.75	4203.05
949.611	2204.9733	5078.8	4191.8
949.7453	2206.4622	5074.65	4195.25
949.8796	2207.9505	5066.25	4181.85
950.0138	2209.438	5033.9	4153.1
950.148	2210.9248	5025.3	4143.95
950.2822	2212.4109	5009.7	4129.55
950.4164	2213.8962	5014.5	4131
950.5505	2215.3809	4981.65	4099.4
950.6846	2216.8648	4985.4	4104.5
950.8186	2218.3479	4978.65	4093.95
950.9527	2219.8304	4954.1	4070.75
951.0867	2221.3121	4930.2	4048.25
951.2207	2222.7931	4920.35	4039.6
951.3546	2224.2733	4905.95	4024.5
951.4886	2225.7529	4901.7	4020.95
951.6225	2227.2317	4881.85	3997.5
951.7563	2228.7098	4857.7	3976
951.8902	2230.1872	4853.95	3974.35
952.024	2231.6638	4855.4	3976.4
952.1578	2233.1397	4840.35	3952.05
952.2916	2234.6149	4812.55	3933.2
952.4253	2236.0894	4799.05	3917.9
952.559	2237.5632	4792.45	3910.2
952.6927	2239.0362	4783.05	3903.1
952.8263	2240.5085	4766	3884.7
952.9599	2241.9801	4742.7	3861.45
953.0935	2243.4509	4732.25	3852.6
953.2271	2244.921	4714.2	3833
953.3606	2246.3904	4716	3833.15
953.4941	2247.8591	4701.8	3822.4
953.6276	2249.3271	4692.65	3812.45
953.7611	2250.7943	4665.25	3783.5
953.8945	2252.2608	4645.7	3763.8
954.0279	2253.7266	4651.55	3771.2
954.1612	2255.1917	4616.7	3736.85
954.2946	2256.656	4616.45	3733.7
954.4279	2258.1197	4592.75	3714
954.5612	2259.5826	4595.45	3714.9
954.6944	2261.0447	4585.25	3704.45
954.8276	2262.5062	4575.15	3691.8
954.9608	2263.9669	4555.25	3674.3
955.094	2265.4269	4574.65	3694.35
955.2271	2266.8862	4550.25	3668.9
955.3602	2268.3448	4544.65	3663.7
955.4933	2269.8026	4541.3	3660.4
955.6264	2271.2598	4517.25	3638.4
955.7594	2272.7162	4502.6	3623.15
955.8924	2274.1719	4497.4	3617.05
956.0253	2275.6268	4480.65	3597.3
956.1583	2277.0811	4490.1	3609.45
956.2912	2278.5346	4463.3	3583.55
956.4241	2279.9874	4456.3	3576.05
956.5569	2281.4395	4452.25	3573.95
956.6897	2282.8908	4439.55	3554.1
956.8225	2284.3414	4430.6	3550.15
956.9553	2285.7914	4404.25	3524
957.088	2287.2406	4393	3510.05
957.2207	2288.689	4408.1	3527.6
957.3534	2290.1368	4379.55	3499.1
957.486	2291.5838	4363.45	3480.95
957.6186	2293.0302	4363.6	3479.7
957.7512	2294.4758	4336.45	3456.8
957.8838	2295.9206	4315.6	3431.45
958.0163	2297.3648	4321.65	3443.4
958.1488	2298.8082	4318.65	3436.75
958.2813	2300.251	4297.55	3416.1
958.4137	2301.693	4292.4	3408.25
958.5461	2303.1343	4296.35	3414.05
958.6785	2304.5748	4269.4	3389.5
958.8108	2306.0147	4249.95	3368.4
958.9432	2307.4538	4255.35	3373.2
959.0754	2308.8922	4244.45	3366.1
959.2077	2310.3299	4217.9	3338.4
959.3399	2311.7669	4214.75	3335
959.4721	2313.2031	4195.45	3314.45
959.6043	2314.6387	4181.3	3300.4
959.7365	2316.0735	4180.65	3299.15
959.8686	2317.5076	4169.85	3289.05
960.0006	2318.941	4165.75	3285
960.1327	2320.3737	4155.45	3276
960.2647	2321.8056	4162.1	3277.75
960.3967	2323.2369	4135.2	3254.15
960.5287	2324.6674	4136.75	3256.9
960.6606	2326.0972	4123.45	3240.45
960.7925	2327.5263	4095.1	3214.35
960.9244	2328.9547	4098.4	3215.65
961.0562	2330.3823	4088.05	3205.8
961.1881	2331.8092	4092.75	3209.85
961.3198	2333.2355	4048.2	3167.7
961.4516	2334.661	4046.55	3165.7
961.5833	2336.0858	4036.8	3152.05
961.715	2337.5098	4029.05	3150.8
961.8467	2338.9332	4026.05	3143.25
961.9783	2340.3558	4017.85	3133.5
962.1099	2341.7778	3997.6	3117.3
962.2415	2343.199	3982.25	3100.15
962.373	2344.6195	3971	3090.15
962.5045	2346.0393	3958.9	3077.6
962.636	2347.4583	3961.25	3080.3
962.7675	2348.8767	3951.3	3068.2
962.8989	2350.2943	3937.5	3056.55
963.0303	2351.7113	3957.1	3075.6
963.1617	2353.1275	3945.45	3063.7
963.293	2354.543	3921.8	3033.15
963.4243	2355.9578	3903.65	3021.9
963.5556	2357.3718	3887.8	3004.55
963.6868	2358.7852	3872.2	2990.6
963.818	2360.1978	3861.9	2980.55
963.9492	2361.6098	3863	2982.05
964.0803	2363.021	3859.95	2974.15
964.2114	2364.4315	3839.7	2958.6
964.3425	2365.8413	3829.6	2943.7
964.4736	2367.2504	3814.1	2932.75
964.6046	2368.6587	3798.55	2916.2
964.7356	2370.0664	3790.1	2910
964.8666	2371.4733	3780.2	2898.85
964.9975	2372.8795	3776.9	2896.45
965.1284	2374.285	3758.75	2877.9
965.2593	2375.6899	3732.45	2852.45
965.3901	2377.0939	3719.65	2838.8
965.5209	2378.4973	3722.95	2842.95
965.6517	2379.9	3698.85	2816.6
965.7825	2381.3019	3684.8	2801.75
965.9132	2382.7032	3701.05	2819.95
966.0439	2384.1037	3693.1	2814.7
966.1745	2385.5035	3669.35	2787.55
966.3051	2386.9027	3654.95	2775.85
966.4357	2388.3011	3651.65	2767.15
966.5663	2389.6987	3634.45	2753.8
966.6968	2391.0957	3644.4	2764.05
966.8273	2392.492	3599.35	2719.25
966.9578	2393.8876	3594.65	2712.25
967.0882	2395.2824	3609	2729.45
967.2186	2396.6765	3584	2703.75
967.349	2398.07	3575.9	2693.05
967.4793	2399.4627	3553.3	2670.65
967.6097	2400.8547	3565.35	2681.95
967.7399	2402.246	3551.75	2664.15
967.8702	2403.6366	3526	2645.15
968.0004	2405.0265	3521	2639.7
968.1306	2406.4156	3522.05	2637.1
968.2607	2407.8041	3501.45	2618.15
968.3909	2409.1918	3472.9	2587.45
968.521	2410.5789	3463.3	2580.8
968.651	2411.9652	3469.95	2585.25
968.781	2413.3508	3459	2575.5
968.911	2414.7358	3448	2567.4
969.041	2416.12	3426.65	2545.4
969.1709	2417.5035	3430.85	2549.45
969.3008	2418.8863	3427.25	2544.3
969.4307	2420.2684	3392.85	2512.45
969.5606	2421.6497	3378.5	2495.7
969.6904	2423.0304	3357.55	2475.6
969.8201	2424.4104	3363.85	2481.75
969.9499	2425.7896	3361.05	2477.9
970.0796	2427.1682	3363.05	2482.3
970.2093	2428.546	3336.95	2452.35
970.3389	2429.9232	3323.65	2440.95
970.4685	2431.2996	3334.55	2451.75
970.5981	2432.6753	3318.25	2435.6
970.7277	2434.0503	3297.85	2416.7
970.8572	2435.4246	3300.95	2422.75
970.9867	2436.7982	3302.45	2418.45
971.1161	2438.1711	3284	2403.25
971.2456	2439.5433	3277.9	2396
971.375	2440.9148	3278.9	2390
971.5043	2442.2856	3252.55	2372.9
971.6336	2443.6557	3250.75	2367.1
971.7629	2445.025	3239.05	2357.75
971.8922	2446.3937	3243.95	2361.9
972.0214	2447.7617	3216	2334.45
972.1506	2449.1289	3211.35	2330
972.2798	2450.4955	3218.15	2333.2
972.4089	2451.8613	3193.6	2313.35
972.538	2453.2265	3199.2	2316.2
972.6671	2454.5909	3196.95	2314.05
972.7961	2455.9546	3189.85	2310.15
972.9251	2457.3177	3160.2	2279.6
973.0541	2458.68	3161.8	2277.6
973.1831	2460.0416	3164.25	2280.85
973.312	2461.4025	3159.05	2276
973.4408	2462.7627	3147.35	2255.25
973.5697	2464.1222	3141.9	2261.1
973.6985	2465.4811	3131.05	2248.25
973.8273	2466.8392	3123.75	2243.4
973.956	2468.1966	3116.8	2231.8
974.0847	2469.5533	3111.35	2227.9
974.2134	2470.9093	3101.75	2221.15
974.3421	2472.2645	3097.2	2212
974.4707	2473.6191	3082.35	2201.85
974.5993	2474.973	3085.25	2202.9
974.7278	2476.3262	3068.6	2185.35
974.8563	2477.6787	3059.25	2179.35
974.9848	2479.0305	3055.3	2174.7
975.1132	2480.3816	3039.5	2156.2
975.2417	2481.7319	3032.05	2153.1
975.37	2483.0816	3030.6	2148.5
975.4984	2484.4306	3014	2132.85
975.6267	2485.7789	3018.2	2138.9
975.755	2487.1264	3000.25	2117.35
975.8833	2488.4733	2990.45	2109.8
976.0115	2489.8195	2988.5	2101.05
976.1397	2491.165	2968.7	2085.4
976.2678	2492.5097	2964.1	2078.4
976.3959	2493.8538	2950.35	2069.1
976.524	2495.1972	2927.1	2044
976.6521	2496.5398	2934.6	2053.85
976.7801	2497.8818	2935.65	2051.5
976.9081	2499.2231	2922.05	2041.5
977.036	2500.5637	2914.2	2032.8
977.164	2501.9035	2893.7	2010.2
977.2918	2503.2427	2896.65	2011.5
977.4197	2504.5812	2884.5	2003
977.5475	2505.919	2898.6	2015.95
977.6753	2507.256	2890.2	2007.15
977.8031	2508.5924	2875.4	1995.55
977.9308	2509.9281	2871.65	1984.05
978.0585	2511.2631	2854.05	1972.3
978.1861	2512.5974	2851.75	1970.15
978.3137	2513.9309	2846.35	1965.1
978.4413	2515.2638	2849.45	1939.55
978.5689	2516.596	2828.8	1949.55
978.6964	2517.9275	2812.8	1928.8
978.8239	2519.2583	2801.7	1919.85
978.9513	2520.5884	2794.35	1911
979.0788	2521.9178	2793.25	1912.75
979.2062	2523.2465	2778.95	1897.35
979.3335	2524.5745	2768	1886.15
979.4608	2525.9018	2772.45	1891.05
979.5881	2527.2284	2759.65	1879.65
979.7154	2528.5543	2766.1	1885.05
979.8426	2529.8796	2747.45	1866.45
979.9698	2531.2041	2742.85	1859.2
980.0969	2532.5279	2733.55	1854.55
980.224	2533.851	2740.85	1858.15
980.3511	2535.1735	2725.05	1844.2
980.4781	2536.4952	2714.4	1832.5
980.6052	2537.8163	2721.75	1839.15
980.7321	2539.1366	2708.35	1829.2
980.8591	2540.4562	2704.95	1823.05
980.986	2541.7752	2692.5	1812.9
981.1129	2543.0935	2694.7	1813.2
981.2397	2544.411	2695.6	1814.3
981.3665	2545.7279	2682.25	1801.65
981.4933	2547.0441	2685.7	1805.7
981.62	2548.3596	2680.05	1796.65
981.7467	2549.6744	2671.1	1790
981.8734	2550.9885	2668.3	1778.3
982.0001	2552.3019	2663.75	1785.25
982.1267	2553.6146	2659.6	1777.2
982.2532	2554.9266	2639.1	1757.2
982.3798	2556.2379	2634.15	1751.45
982.5063	2557.5485	2643.25	1764.9
982.6327	2558.8585	2634.5	1745.05
982.7592	2560.1677	2623.75	1739.2
982.8856	2561.4762	2621.6	1739.1
983.0119	2562.7841	2624.95	1738.9
983.1383	2564.0913	2618.05	1737.5
983.2646	2565.3977	2602.25	1719.7
983.3908	2566.7035	2614.25	1735.15
983.517	2568.0086	2596.75	1712.9
983.6432	2569.313	2595.9	1714.7
983.7694	2570.6167	2586.4	1703.65
983.8955	2571.9197	2582.5	1702.05
984.0216	2573.222	2583.55	1697.7
984.1476	2574.5236	2580.75	1700.2
984.2737	2575.8246	2564.05	1678.9
984.3996	2577.1248	2571.7	1688.25
984.5256	2578.4244	2563.15	1681.85
984.6515	2579.7232	2565.05	1683.3
984.7774	2581.0214	2572	1667.15
984.9032	2582.3189	2560.45	1679.25
985.029	2583.6157	2549.8	1663.5
985.1548	2584.9118	2541.05	1660.45
985.2806	2586.2072	2523.95	1643.25
985.4063	2587.5019	2514.65	1632.65
985.5319	2588.7959	2530.8	1649.15
985.6576	2590.0893	2516.1	1634.5
985.7832	2591.3819	2518.7	1638.15
985.9087	2592.6739	2508.3	1628.75
986.0343	2593.9652	2498.7	1616.9
986.1597	2595.2557	2487.95	1607.5
986.2852	2596.5456	2487.05	1603.25
986.4106	2597.8348	2490.5	1610.05
986.536	2599.1234	2463.8	1584.1
986.6614	2600.4112	2448.6	1567.1
986.7867	2601.6983	2465.4	1581.45
986.912	2602.9848	2449.8	1569.55
987.0372	2604.2705	2448.9	1559.7
987.1624	2605.5556	2438.2	1558.85
987.2876	2606.84	2419.1	1537.45
987.4128	2608.1237	2426.9	1543.75
987.5379	2609.4067	2405.95	1524.6
987.6629	2610.689	2408.35	1517.95
987.788	2611.9707	2403.25	1519.1
987.913	2613.2516	2394.85	1508.55
988.0379	2614.5319	2384.85	1503.25
988.1629	2615.8115	2382.3	1501.35
988.2878	2617.0903	2378.75	1497.65
988.4126	2618.3685	2369.75	1488.3
988.5375	2619.6461	2361.05	1480.85
988.6622	2620.9229	2362.2	1480.6
988.787	2622.199	2344.3	1461.15
988.9117	2623.4745	2347.95	1466.25
989.0364	2624.7493	2343.8	1463.7
989.161	2626.0234	2329.3	1448.6
989.2857	2627.2968	2325.7	1444.3
989.4102	2628.5695	2320.5	1438.15
989.5348	2629.8415	2317.45	1437.45
989.6593	2631.1128	2307.55	1424.55
989.7837	2632.3835	2298.4	1417.35
989.9082	2633.6535	2286.6	1404.2
990.0326	2634.9228	2284.7	1402.7
990.1569	2636.1914	2272.85	1393.05
990.2812	2637.4593	2289.7	1401.7
990.4055	2638.7265	2270	1390.2
990.5298	2639.9931	2257.5	1378.35
990.654	2641.259	2264.9	1382.75
990.7782	2642.5242	2249.05	1367.8
990.9023	2643.7887	2255.65	1374.65
991.0264	2645.0525	2255.05	1373.5
991.1505	2646.3156	2241.6	1358.25
991.2745	2647.5781	2217.3	1335
991.3985	2648.8398	2221	1342.6
991.5225	2650.1009	2237.85	1346
991.6464	2651.3613	2219.55	1338.55
991.7703	2652.6211	2214.6	1333.25
991.8942	2653.8801	2201.35	1323.5
992.018	2655.1385	2211.45	1325.5
992.1418	2656.3961	2208.3	1326.55
992.2655	2657.6531	2192.9	1311.6
992.3892	2658.9094	2180.8	1299.35
992.5129	2660.1651	2186.7	1304.3
992.6366	2661.42	2176.85	1294.7
992.7602	2662.6743	2179.1	1297.5
992.8837	2663.9279	2170.1	1288.4
993.0073	2665.1808	2169.3	1284.8
993.1307	2666.433	2171.65	1287.95
993.2542	2667.6846	2153.1	1273.35
993.3776	2668.9354	2156.75	1272.25
993.501	2670.1856	2157.4	1274.8
993.6244	2671.4351	2142.4	1261.7
993.7477	2672.6839	2157.35	1274.7
993.8709	2673.9321	2130.15	1248.7
993.9942	2675.1795	2138.5	1255.1
994.1174	2676.4263	2123.75	1241.45
994.2405	2677.6724	2122.45	1242.35
994.3637	2678.9179	2116.75	1234.3
994.4868	2680.1626	2108.55	1226.7
994.6098	2681.4067	2106.85	1225.8
994.7328	2682.6501	2095	1213.95
994.8558	2683.8928	2095.9	1215.35
994.9788	2685.1348	2086.35	1206.5
995.1017	2686.3761	2075.75	1194.6
995.2245	2687.6168	2076.4	1196.5
995.3474	2688.8568	2079.3	1198.35
995.4702	2690.0961	2072.95	1192.85
995.5929	2691.3348	2069.8	1187.35
995.7156	2692.5727	2067.1	1185.65
995.8383	2693.81	2050.25	1168.2
995.961	2695.0466	2050.2	1171.75
996.0836	2696.2826	2045.6	1164.2
996.2062	2697.5178	2076.4	1173.95
996.3287	2698.7524	2045.15	1163.1
996.4512	2699.9863	2036.45	1154.8
996.5737	2701.2195	2040.8	1162.4
996.6961	2702.452	2019.95	1137.45
996.8185	2703.6839	2033.9	1152.15
996.9408	2704.9151	2017.1	1136.15
997.0631	2706.1456	2005.8	1124.7
997.1854	2707.3755	2004.65	1123.4
997.3077	2708.6046	2015.05	1130.95
997.4299	2709.8331	1999.55	1118.65
997.552	2711.0609	2002.45	1120.6
997.6742	2712.2881	1994.65	1114.6
997.7963	2713.5145	1988.7	1102.95
997.9183	2714.7403	1982.2	1103.45
998.0403	2715.9654	1965.8	1083.7
998.1623	2717.1899	1983.5	1087.6
998.2842	2718.4136	1978.85	1098.3
998.4062	2719.6367	1968.2	1087.35
998.528	2720.8591	1967.2	1079.9
998.6498	2722.0809	1962.9	1082
998.7716	2723.3019	1962.85	1078.2
998.8934	2724.5223	1951.35	1069.9
999.0151	2725.7421	1945.15	1063.25
999.1368	2726.9611	1951.7	1068.2
999.2584	2728.1795	1945.1	1060.65
999.38	2729.3972	1923.15	1042.45
999.5016	2730.6142	1930.8	1036.8
999.6231	2731.8306	1908.35	1025
999.7446	2733.0462	1903.45	1021.45
999.8661	2734.2612	1913.7	1028.95
999.9875	2735.4756	1898.9	1016.75
1000.1089	2736.6892	1901.95	1019.55
1000.2302	2737.9022	1883.45	1006.2
1000.3515	2739.1145	1885.75	1004.8
1000.4728	2740.3262	1891.2	1005.15
1000.594	2741.5372	1871.15	990.65
1000.7152	2742.7475	1869.7	987.35
1000.8363	2743.9571	1874.5	991.65
1000.9575	2745.1661	1868.8	981.95
1001.0785	2746.3744	1867.45	986.2
1001.1996	2747.582	1859.35	977.55
1001.3206	2748.7889	1852.8	970.95
1001.4415	2749.9952	1852.1	971.4
1001.5625	2751.2008	1841.95	960.2
1001.6833	2752.4057	1850.2	967.95
1001.8042	2753.61	1841.3	960.45
1001.925	2754.8136	1833.15	949.7
1002.0458	2756.0165	1834.4	954
1002.1665	2757.2188	1822.85	943
1002.2872	2758.4204	1819.25	937.5
1002.4078	2759.6213	1812.85	930.35
1002.5285	2760.8215	1820.6	935.65
1002.649	2762.0211	1818.95	935.95
1002.7696	2763.22	1806.15	922
1002.8901	2764.4182	1805.35	923.15
1003.0106	2765.6158	1803.75	923.55
1003.131	2766.8127	1790.55	911.3
1003.2514	2768.009	1781.35	900.15
1003.3717	2769.2045	1776.95	894.9
1003.492	2770.3994	1781.8	899.5
1003.6123	2771.5936	1783.3	900.65
1003.7325	2772.7872	1768.85	888.4
1003.8527	2773.9801	1770.35	888.55
1003.9729	2775.1723	1782.95	885.3
1004.093	2776.3639	1762.85	883.8
1004.2131	2777.5548	1764.8	882
1004.3331	2778.745	1759.2	875.9
1004.4531	2779.9346	1748.5	867.65
1004.5731	2781.1235	1754.6	870.9
1004.693	2782.3117	1741.5	862.5
1004.8129	2783.4992	1739.3	856.5
1004.9328	2784.6861	1745.2	863.85
1005.0526	2785.8723	1739.2	857.6
1005.1723	2787.0579	1728.65	847.1
1005.2921	2788.2428	1723.05	843
1005.4118	2789.427	1716.2	834.85
1005.5314	2790.6106	1727.2	846.95
1005.651	2791.7935	1714.4	832.2
1005.7706	2792.9757	1705.95	826.5
1005.8902	2794.1573	1708.2	825
1006.0097	2795.3382	1702.45	819.5
1006.1291	2796.5184	1700.25	819.55
1006.2485	2797.698	1696.75	813.05
1006.3679	2798.8769	1697.85	816.4
1006.4873	2800.0551	1691.8	811.7
1006.6066	2801.2327	1684.35	800.35
1006.7258	2802.4096	1676.95	797.35
1006.8451	2803.5859	1681	798.75
1006.9642	2804.7615	1672.95	791.25
1007.0834	2805.9364	1668.6	788.2
1007.2025	2807.1106	1673.45	793.3
1007.3216	2808.2842	1666.1	784.35
1007.4406	2809.4572	1661.9	781.25
1007.5596	2810.6294	1658.7	776.9
1007.6785	2811.801	1657.35	778.65
1007.7975	2812.972	1662.2	783.8
1007.9163	2814.1423	1654	773
1008.0352	2815.3119	1666.2	784.05
1008.154	2816.4808	1660.45	781.05
1008.2727	2817.6491	1659.85	777.45
1008.3914	2818.8167	1645.15	764.45
1008.5101	2819.9837	1660.45	774.9
1008.6288	2821.15	1651.65	770.25
1008.7474	2822.3157	1657.05	776.75
1008.8659	2823.4807	1661.85	778.45
1008.9844	2824.645	1671.7	789.7
1009.1029	2825.8086	1672.4	792.4
1009.2214	2826.9716	1673.1	794.25
1009.3398	2828.134	1679.15	798.35
1009.4581	2829.2957	1676.65	796.35
1009.5764	2830.4567	1691.25	812.25
1009.6947	2831.617	1692.05	810.95
1009.813	2832.7767	1691.1	813.25
1009.9312	2833.9358	1687.95	807.5
1010.0493	2835.0941	1682.75	800.9
1010.1675	2836.2519	1685.1	804.35
1010.2855	2837.4089	1678.45	798.55
1010.4036	2838.5653	1672.3	792.75
1010.5216	2839.7211	1659.7	779.95
1010.6396	2840.8761	1660.6	779.8
1010.7575	2842.0306	1665.3	785.4
1010.8754	2843.1843	1659.85	779.65
1010.9932	2844.3374	1645.5	765.35
1011.111	2845.4899	1649.4	766.7
1011.2288	2846.6417	1656.05	774.2
1011.3465	2847.7928	1643.3	764.65
1011.4642	2848.9433	1657.4	777.05
1011.5818	2850.0931	1641.45	760.15
1011.6995	2851.2422	1651.3	767.75
1011.817	2852.3907	1649.6	768.5
1011.9345	2853.5385	1649.6	769.1
1012.052	2854.6857	1653.8	764.15
1012.1695	2855.8323	1642.4	763.7
1012.2869	2856.9781	1640.25	759.8
1012.4042	2858.1233	1641.5	762.35
1012.5216	2859.2679	1638.75	758.05
1012.6389	2860.4118	1642.5	760.9
1012.7561	2861.555	1649.45	764.8
1012.8733	2862.6976	1642.6	759.3
1012.9905	2863.8395	1632.85	751.9
1013.1076	2864.9808	1641.1	760.7
1013.2247	2866.1214	1636.95	755.5
1013.3417	2867.2614	1642.85	762.45
1013.4587	2868.4007	1632.2	751
1013.5757	2869.5393	1637.65	754.75
1013.6926	2870.6773	1642.35	760.85
1013.8095	2871.8146	1647.8	764.3
1013.9263	2872.9513	1643.45	760.6
1014.0431	2874.0874	1635.1	753.55
1014.1599	2875.2227	1635.45	755.9
1014.2766	2876.3574	1628.1	747.2
1014.3933	2877.4915	1633.7	755.55
1014.51	2878.6249	1628.75	749.2
1014.6266	2879.7577	1627.6	746.35
1014.7431	2880.8898	1630.7	739.85
1014.8596	2882.0212	1621.45	744.95
1014.9761	2883.152	1626.5	745.25
1015.0925	2884.2821	1620.75	741.3
1015.2089	2885.4116	1623.8	742.4
1015.3253	2886.5405	1621.55	741.85
1015.4416	2887.6686	1615.7	732.8
1015.5579	2888.7962	1624.65	746
1015.6741	2889.923	1616.1	738.35
1015.7903	2891.0493	1613.55	733.85
1015.9065	2892.1748	1610.8	729.9
1016.0226	2893.2997	1605.25	726.8
1016.1387	2894.424	1605.2	726.2
1016.2547	2895.5476	1599.6	719.75
1016.3707	2896.6706	1599.95	723.3
1016.4866	2897.7929	1598.3	716
1016.6025	2898.9145	1592.35	712.7
1016.7184	2900.0355	1587.2	704.2
1016.8342	2901.1559	1588.4	708.9
1016.95	2902.2756	1581.5	700.15
1017.0658	2903.3946	1578.9	696.8
1017.1815	2904.513	1583.65	698.85
1017.2971	2905.6308	1576	696.3
1017.4127	2906.7479	1575.25	693.55
1017.5283	2907.8643	1568.15	688.25
1017.6439	2908.9801	1567.4	686.5
1017.7594	2910.0953	1555.15	675.35
1017.8748	2911.2098	1570.1	684.35
1017.9902	2912.3236	1556.65	669
1018.1056	2913.4368	1557.35	675.35
1018.2209	2914.5494	1553.4	671.15
1018.3362	2915.6613	1543.3	657.8
1018.4515	2916.7725	1543.05	660.15
1018.5667	2917.8831	1547.9	667.35
1018.6819	2918.9931	1540.35	657.65
1018.797	2920.1024	1526.75	646.25
1018.9121	2921.211	1523.5	642.85
1019.0271	2922.319	1525.6	642.8
1019.1421	2923.4264	1516.65	636.35
1019.2571	2924.5331	1512.75	631.9
1019.372	2925.6391	1516.25	637.45
1019.4869	2926.7445	1507.35	627.65
1019.6017	2927.8493	1507.25	628.6
1019.7165	2928.9534	1513.9	634
1019.8313	2930.0569	1503.7	621.35
1019.946	2931.1597	1513.45	632.55
1020.0606	2932.2619	1506.4	626.4
1020.1753	2933.3634	1511.75	634.05
1020.2899	2934.4643	1516.4	627.6
1020.4044	2935.5645	1521.55	634.55
1020.5189	2936.6641	1513.05	630.4
1020.6334	2937.763	1509.4	629.7
1020.7478	2938.8613	1498.95	617.65
1020.8622	2939.959	1502.2	616.8
1020.9765	2941.056	1492.35	613.75
1021.0908	2942.1523	1484.45	602.65
1021.2051	2943.248	1472.95	591.9
1021.3193	2944.3431	1461.1	581.85
1021.4334	2945.4375	1458.3	576.55
1021.5476	2946.5313	1448.35	568.65
1021.6617	2947.6244	1441.2	560.75
1021.7757	2948.7169	1433.2	552.9
1021.8897	2949.8087	1425.7	545.9
1022.0037	2950.8999	1414.95	534.3
1022.1176	2951.9904	1407.75	528
1022.2315	2953.0803	1405.4	524.15
1022.3453	2954.1696	1399.6	519.55
1022.4591	2955.2582	1390.3	513.35
1022.5728	2956.3462	1394.8	516.15
1022.6865	2957.4335	1382.2	502.65
1022.8002	2958.5202	1374.3	492.3
1022.9138	2959.6062	1377.95	497.5
1023.0274	2960.6916	1372.35	491.35
1023.141	2961.7764	1375.55	493.7
1023.2545	2962.8605	1374.85	494.05
1023.3679	2963.9439	1371.8	490.8
1023.4813	2965.0267	1374.05	492.65
1023.5947	2966.1089	1386.95	484.7
1023.708	2967.1905	1356.6	477.6
1023.8213	2968.2714	1353.6	473.8
1023.9346	2969.3516	1355.1	476.1
1024.0478	2970.4312	1356.8	468
1024.1609	2971.5102	1349.25	469.9
1024.274	2972.5885	1348.85	468.9
1024.3871	2973.6662	1351.6	466.2
1024.5002	2974.7432	1345.9	466.65
1024.6132	2975.8196	1342.95	462.5
1024.7261	2976.8954	1336.6	457.75
1024.839	2977.9705	1341.95	463.85
1024.9519	2979.045	1336.3	456.9
1025.0647	2980.1188	1338.45	457.95
1025.1775	2981.192	1329.3	451.65
1025.2902	2982.2645	1331.8	449.4
1025.4029	2983.3364	1330.05	450.95
1025.5156	2984.4077	1322.25	443.4
1025.6282	2985.4783	1327.6	443.6
1025.7407	2986.5483	1319.3	438.7
1025.8532	2987.6177	1315.7	436.7
1025.9657	2988.6864	1305.65	425.5
1026.0782	2989.7545	1309.75	429.15
1026.1906	2990.8219	1303	423.35
1026.3029	2991.8887	1298.05	416.45
1026.4152	2992.9548	1290.15	409.25
1026.5275	2994.0204	1294.05	411.9
1026.6397	2995.0852	1285.55	406
1026.7519	2996.1495	1289.45	407.05
1026.864	2997.2131	1279.35	400.25
1026.9761	2998.276	1271.45	390.6
1027.0882	2999.3383	1270.95	389.95
1027.2002	3000.4	1274	395.3
1027.3122	3001.4611	1264.85	385.2
1027.4241	3002.5215	1258.35	377.55
1027.536	3003.5812	1255.4	375.15
1027.6478	3004.6404	1253.7	373.45
1027.7596	3005.6989	1254.2	370.45
1027.8714	3006.7567	1248.85	369.15
1027.9831	3007.8139	1276.35	371.85
1028.0947	3008.8705	1247.45	367.55
1028.2064	3009.9264	1248.15	362.85
1028.3179	3010.9818	1247	367.3
1028.4295	3012.0364	1242.2	360.7
1028.541	3013.0905	1233.75	353.35
1028.6524	3014.1439	1238.65	359.1
1028.7638	3015.1966	1234.25	355.1
1028.8752	3016.2487	1237.35	357.35
1028.9865	3017.3002	1241.15	355.7
1029.0978	3018.3511	1232.8	355.75
1029.209	3019.4013	1230.7	350.05
1029.3202	3020.4509	1226.05	347.3
1029.4314	3021.4998	1232.65	353.15
1029.5425	3022.5481	1223.35	344.1
1029.6535	3023.5958	1220.15	340.75
1029.7645	3024.6428	1219.95	339.2
1029.8755	3025.6892	1222.95	342
1029.9864	3026.735	1223.65	343.5
1030.0973	3027.7802	1219.95	340.65
1030.2082	3028.8247	1219.05	339.35
1030.319	3029.8685	1213.65	332.25
1030.4297	3030.9118	1213.45	334.3
1030.5404	3031.9544	1213.6	335.65
1030.6511	3032.9963	1213.1	333.25
1030.7617	3034.0376	1214.45	334.85
1030.8723	3035.0783	1210.05	326.6
1030.9829	3036.1184	1209.35	330.75
1031.0934	3037.1578	1205.35	326.45
1031.2038	3038.1966	1209.65	326.9
1031.3142	3039.2348	1201.3	324
1031.4246	3040.2723	1209.1	321.55
1031.5349	3041.3092	1198.2	321.05
1031.6452	3042.3455	1191.7	310.85
1031.7554	3043.3811	1196.05	316.85
1031.8656	3044.4161	1192.3	311.2
1031.9758	3045.4505	1189.4	309.45
1032.0859	3046.4842	1196.45	317.25
1032.1959	3047.5173	1190.95	313.25
1032.3059	3048.5498	1187.5	308.05
1032.4159	3049.5816	1190.75	310.25
1032.5258	3050.6128	1186.55	307.25
1032.6357	3051.6434	1191.55	309.05
1032.7455	3052.6734	1184.4	302.6
1032.8553	3053.7027	1187.2	307.6
1032.9651	3054.7314	1181.1	302.9
1033.0748	3055.7594	1179.05	300.45
1033.1845	3056.7868	1179.85	300.15
1033.2941	3057.8136	1181.45	301.05
1033.4037	3058.8398	1174.3	293.8
1033.5132	3059.8653	1177.5	298
1033.6227	3060.8902	1171.25	290.55
1033.7321	3061.9145	1174.55	296.05
1033.8415	3062.9381	1168.05	287.15
1033.9509	3063.9612	1189.55	293.85
1034.0602	3064.9835	1175.9	297.75
1034.1694	3066.0053	1171.55	290.2
1034.2787	3067.0264	1170.4	291.6
1034.3878	3068.0469	1170.25	287.55
1034.497	3069.0668	1167.25	284.05
1034.6061	3070.086	1166.95	288
1034.7151	3071.1046	1164.65	280.95
1034.8241	3072.1226	1169.3	287.5
1034.9331	3073.1399	1166.25	286.1
1035.042	3074.1567	1165.3	285.25
1035.1508	3075.1727	1160	278.35
1035.2597	3076.1882	1159.3	279.25
1035.3684	3077.203	1158.5	276.7
1035.4772	3078.2173	1154	273.3
1035.5859	3079.2308	1157.65	274.55
1035.6945	3080.2438	1159.25	278.9
1035.8031	3081.2561	1157.05	276.85
1035.9117	3082.2678	1150.8	272.3
1036.0202	3083.2789	1151.95	270.85
1036.1286	3084.2893	1146.4	267.75
1036.2371	3085.2991	1145.9	264.7
1036.3454	3086.3083	1149.55	264.5
1036.4538	3087.3169	1144.7	264.3
1036.562	3088.3248	1147.55	268.2
1036.6703	3089.3321	1146.35	261.8
1036.7785	3090.3388	1134.75	256.85
1036.8866	3091.3449	1137.05	256.45
1036.9948	3092.3503	1142.55	260.45
1037.1028	3093.3551	1132.65	255.65
1037.2108	3094.3593	1134.35	255.65
1037.3188	3095.3629	1130.4	251.75
1037.4267	3096.3658	1134.75	251.45
1037.5346	3097.3681	1130.45	248.55
1037.6425	3098.3698	1128.7	248.7
1037.7503	3099.3708	1134	248.1
1037.858	3100.3713	1123.5	244.75
1037.9657	3101.3711	1121.75	240.7
1038.0734	3102.3702	1264.75	249.15
1038.181	3103.3688	1126.7	244.25
1038.2886	3104.3667	1118.5	241.8
1038.3961	3105.364	1123.75	242.25
1038.5036	3106.3607	1114.15	233
1038.611	3107.3568	1115.1	235
1038.7184	3108.3522	1115.95	237.85
1038.8257	3109.347	1116.95	235.8
1038.933	3110.3412	1112.1	229.45
1039.0403	3111.3348	1109.65	230.55
1039.1475	3112.3277	1109.4	229.7
1039.2547	3113.32	1103.95	223.75
1039.3618	3114.3117	1103.5	223.6
1039.4689	3115.3028	1102.9	222.75
1039.5759	3116.2932	1104.2	221.5
1039.6829	3117.2831	1112.5	226.65
1039.7898	3118.2723	1099.4	219.15
1039.8967	3119.2608	1100.8	220.75
1040.0035	3120.2488	1099.95	219
1040.1103	3121.2361	1099.4	219.6
1040.2171	3122.2229	1093.95	215.55
1040.3238	3123.209	1094.8	215.15
1040.4305	3124.1944	1093.85	214.55
1040.5371	3125.1793	1089.85	208.8
1040.6437	3126.1635	1086.85	209.9
1040.7502	3127.1471	1090.9	210.1
1040.8567	3128.1301	1090.95	213.3
1040.9631	3129.1125	1084.3	203.4
1041.0695	3130.0942	1088.6	210.15
1041.1759	3131.0753	1094.75	206.5
1041.2822	3132.0558	1087.95	206.65
1041.3884	3133.0357	1083	202.05
1041.4946	3134.015	1077.7	195.9
1041.6008	3134.9936	1082.5	200.55
1041.7069	3135.9716	1098.7	197.1
1041.813	3136.949	1080.25	200.05
1041.919	3137.9258	1085.1	200
1042.025	3138.902	1084.25	200
1042.1309	3139.8775	1079.6	199.35
1042.2368	3140.8524	1073.45	193.35
1042.3427	3141.8267	1082.45	201.15
1042.4485	3142.8004	1076.75	196.05
1042.5542	3143.7735	1076.5	189.75
1042.6599	3144.7459	1074.85	193.95
1042.7656	3145.7178	1076.6	195.45
1042.8712	3146.689	1066.05	186.75
1042.9768	3147.6596	1073.35	191.45
1043.0823	3148.6295	1069.45	190.15
1043.1878	3149.5989	1068.7	188.2
1043.2932	3150.5676	1067.7	188.35
1043.3986	3151.5357	1064	183.85
1043.5039	3152.5032	1062.75	182.35
1043.6092	3153.4701	1065.1	186.75
1043.7145	3154.4364	1068.4	186.25
1043.8197	3155.402	1059.6	181.25
1043.9248	3156.367	1061.2	179.05
1044.03	3157.3315	1096.9	179.8
1044.135	3158.2952	1065.55	185.8
1044.24	3159.2584	1060.85	180.65
1044.345	3160.221	1060.6	178.9
1044.4499	3161.1829	1051.1	170.75
1044.5548	3162.1442	1052.2	173.15
1044.6596	3163.105	1052.95	175.75
1044.7644	3164.065	1053.4	171.1
1044.8692	3165.0245	1051.75	170.9
1044.9739	3165.9834	1047.8	169.6
1045.0785	3166.9416	1052.1	172.25
1045.1831	3167.8993	1050.4	169.25
1045.2877	3168.8563	1051.75	172.1
1045.3922	3169.8127	1047.15	166.4
1045.4966	3170.7684	1043.35	163.1
1045.6011	3171.7236	1051.25	170.65
1045.7054	3172.6782	1041	163.15
1045.8098	3173.6321	1046.1	163.3
1045.914	3174.5854	1046.05	162.25
1046.0183	3175.5381	1045.75	165.4
1046.1224	3176.4902	1039.25	159.05
1046.2266	3177.4417	1037.65	158.05
1046.3307	3178.3926	1039.45	159.95
1046.4347	3179.3428	1039.25	159.2
1046.5387	3180.2924	1037.25	157.05
1046.6427	3181.2415	1034.8	155.4
1046.7466	3182.1899	1033.4	152.75
1046.8504	3183.1377	1037.25	157.95
1046.9542	3184.0848	1037.25	155.9
1047.058	3185.0314	1033.65	153.6
1047.1617	3185.9773	1032.3	150.8
1047.2654	3186.9227	1034.3	156.55
1047.369	3187.8674	1031.25	153.15
1047.4726	3188.8115	1030.8	145.85
1047.5761	3189.755	1026.65	147.65
1047.6796	3190.6979	1025.65	145.85
1047.783	3191.6402	1027.45	148.2
1047.8864	3192.5818	1029.4	148.2
1047.9898	3193.5229	1031.4	144.75
1048.0931	3194.4633	1024.85	146.35
1048.1963	3195.4031	1023.95	144.3
1048.2995	3196.3423	1026	146.7
1048.4027	3197.2809	1022.75	141.75
1048.5058	3198.2189	1020.55	140.3
1048.6089	3199.1563	1030.75	146.7
1048.7119	3200.0931	1021.7	142.8
1048.8148	3201.0292	1020.1	141.95
1048.9178	3201.9648	1018.25	138.05
1049.0206	3202.8997	1022.35	140.15
1049.1235	3203.834	1016.35	136.8
1049.2262	3204.7677	1015.95	133.55
1049.329	3205.7008	1020.65	139.9
1049.4317	3206.6333	1015	134.25
1049.5343	3207.5652	1018.05	135.65
1049.6369	3208.4964	1013.65	134.85
1049.7394	3209.4271	1013.45	133.55
1049.8419	3210.3571	1010.25	132.85
1049.9444	3211.2865	1014.25	133.95
1050.0468	3212.2154	1016.45	137.75
1050.1491	3213.1436	1019.55	137.05
1050.2514	3214.0712	1019.4	132.5
1050.3537	3214.9982	1011.5	132.35
1050.4559	3215.9246	1010.6	130.25
1050.5581	3216.8503	1007.25	128.3
1050.6602	3217.7755	1009.95	130.3
1050.7623	3218.7001	1008.25	127.45
1050.8643	3219.624	1009.05	128.65
1050.9663	3220.5473	1007.5	129.45
1051.0682	3221.4701	1006.15	123.9
1051.1701	3222.3922	1007.05	124.95
1051.2719	3223.3137	1001.65	121.8
1051.3737	3224.2346	1005.2	123.8
1051.4754	3225.1549	1001.2	122.05
1051.5771	3226.0746	1000.95	121.1
1051.6788	3226.9937	1004.95	125.35
1051.7804	3227.9121	997.25	115.3
1051.8819	3228.83	996.15	117.35
1051.9834	3229.7473	1000.5	122.25
1052.0849	3230.6639	999.75	119.15
1052.1863	3231.5799	996.4	118.1
1052.2876	3232.4954	999.4	118.25
1052.3889	3233.4102	997.75	118.2
1052.4902	3234.3244	996.05	116.35
1052.5914	3235.238	998	118.95
1052.6926	3236.151	1019.05	113.3
1052.7937	3237.0634	995.9	115.95
1052.8948	3237.9752	990	110.55
1052.9958	3238.8864	993.4	112.2
1053.0968	3239.797	993.9	113.9
1053.1977	3240.7069	994.1	114.25
1053.2986	3241.6163	994.2	113.85
1053.3994	3242.5251	987.9	109.6
1053.5002	3243.4332	992.3	112.7
1053.6009	3244.3408	985.55	105.8
1053.7016	3245.2477	989.45	110.1
1053.8022	3246.154	989.4	109.15
1053.9028	3247.0598	985.8	105.85
1054.0034	3247.9649	987.75	106.75
1054.1039	3248.8694	984.75	105.85
1054.2043	3249.7733	985.5	106.55
1054.3047	3250.6766	980.65	102.55
1054.4051	3251.5793	981.1	101.25
1054.5054	3252.4814	982.25	102.9
1054.6056	3253.3829	979.9	99.9
1054.7058	3254.2838	986.75	108.9
1054.806	3255.1841	980.25	102.7
1054.9061	3256.0838	975	96.4
1055.0061	3256.9829	975.85	97.15
1055.1062	3257.8814	980.75	96.35
1055.2061	3258.7792	980.35	97.4
1055.306	3259.6765	979.9	100.6
1055.4059	3260.5731	975.25	95.2
1055.5057	3261.4692	973.65	94.4
1055.6055	3262.3647	975.15	95.05
1055.7052	3263.2595	972.15	94.3
1055.8049	3264.1538	972.15	93.1
1055.9045	3265.0474	967.75	89
1056.0041	3265.9404	967.4	88.35
1056.1036	3266.8329	965.15	85.4
1056.2031	3267.7247	977.1	87.95
1056.3025	3268.616	964.05	88.15
1056.4019	3269.5066	960.75	79.5
1056.5013	3270.3966	957.85	76.55
1056.6005	3271.286	954.95	75.75
