Software Version:	3.9.2.0
Unit SN:	10000200
Spectrometer SN:	6960
Date:	3/6/2024 9:50:05 AM
Data Line Index:	25
Spectral Points:	2048
Integration time (ms):	125
Averages:	20
Delay (ms):	30
Sequence Number:	1
Processing:	dark subtract
Laser Power (mW):	300
Laser Current (mA):	823
Laser Diode Temp (C):	25.1
Laser Case Temp (C):	24.3
System Temp (C):	24.1
Spectrometer Temp (C):	21.7
CCD Temp (C):	-0.013
Secondary Temp (C):	20.001
Heatsink Temp (C):	18.183
CCDPCB Temp (C):	30.471
SecondaryPCB Temp (C):	25.991

Wavelength	RamanShift	Raw Counts	Dark Subtracted
787.061	30.1047	446.7	36.7
787.2016	32.3739	445.4	41.95
787.3422	34.6426	448.8	43.25
787.4828	36.9109	453.25	45.15
787.6235	39.1787	458.9	46.75
787.7642	41.4461	469.85	52.85
787.9049	43.7131	473.2	51.55
788.0456	45.9796	479.7	56.8
788.1863	48.2456	492.2	65.85
788.3271	50.5112	495.55	63.8
788.4679	52.7764	501.25	68.1
788.6087	55.0411	511.75	77.1
788.7496	57.3054	519	76.8
788.8904	59.5692	526.25	81.75
789.0313	61.8326	529	84.05
789.1722	64.0955	542.8	91.6
789.3132	66.3579	556.1	101.25
789.4541	68.6199	568.25	110.25
789.5951	70.8815	593.9	133
789.7361	73.1426	635.3	168.9
789.8771	75.4032	740.45	269.4
790.0181	77.6634	1017	543.7
790.1592	79.9231	1658.5	1180.6
790.3003	82.1824	3011.15	2526.05
790.4414	84.4412	5352.5	4855.6
790.5825	86.6995	8573.75	8062.8
790.7237	88.9574	11759.45	11239.2
790.8648	91.2148	14143.15	13613.25
791.006	93.4717	15448.55	14914.3
791.1472	95.7282	16004	15466.15
791.2885	97.9842	16325.75	15784.1
791.4297	100.2398	16435.1	15890.95
791.571	102.4949	16463.65	15916.85
791.7123	104.7495	16441.8	15892.85
791.8536	107.0036	16427.8	15877.05
791.9949	109.2573	16438.7	15888.5
792.1363	111.5105	16459.8	15909.55
792.2777	113.7632	16407.2	15852.05
792.4191	116.0154	16452.8	15886.25
792.5605	118.2672	16511.8	15950.05
792.7019	120.5185	16514.95	15954.7
792.8434	122.7693	16528.55	15963.35
792.9849	125.0197	16579.95	16011.9
793.1264	127.2696	16572.1	16000.2
793.2679	129.519	16647.3	16071.6
793.4094	131.7679	16665.55	16088.5
793.551	134.0163	16665.2	16083.7
793.6926	136.2642	16732.15	16150.4
793.8342	138.5117	16715.85	16128.15
793.9758	140.7587	16727.85	16140.55
794.1175	143.0052	16753.35	16160.75
794.2591	145.2512	16733.3	16142.2
794.4008	147.4967	16703.85	16109.2
794.5425	149.7417	16682.7	16086.35
794.6842	151.9863	16701.7	16102.45
794.826	154.2304	16723.4	16118.2
794.9677	156.4739	16690.3	16081.45
795.1095	158.717	16743.6	16137.5
795.2513	160.9596	16752.2	16139.15
795.3931	163.2017	16731.25	16116.65
795.535	165.4433	16757.3	16138.45
795.6768	167.6844	16750.85	16132.15
795.8187	169.925	16751.15	16127.45
795.9606	172.1651	16701.65	16074.1
796.1025	174.4047	16674.45	16044.4
796.2445	176.6439	16692.3	16058.45
796.3864	178.8825	16721.95	16086.8
796.5284	181.1206	16751.9	16112.9
796.6704	183.3582	16758.9	16118.2
796.8124	185.5954	16770.4	16126.75
796.9544	187.832	16782.2	16131.85
797.0965	190.0681	16834.85	16181.3
797.2386	192.3037	16860.6	16210.3
797.3806	194.5388	16831	16172.6
797.5228	196.7734	16888	16231.8
797.6649	199.0075	16956.35	16295.1
797.807	201.2411	17063.4	16405.35
797.9492	203.4742	17062.95	16402.85
798.0914	205.7068	17130.25	16463.2
798.2336	207.9389	17132.7	16463.3
798.3758	210.1704	17173.95	16508.75
798.518	212.4015	17163.15	16509.75
798.6603	214.632	17183.3	16536.35
798.8025	216.862	17247.15	16601.2
798.9448	219.0915	17191.4	16544.65
799.0871	221.3205	17257.85	16606.2
799.2294	223.549	17308.85	16662.45
799.3718	225.777	17319.85	16673.15
799.5141	228.0044	17366.2	16713
799.6565	230.2314	17380.55	16723.45
799.7989	232.4578	17392.6	16733.5
799.9413	234.6837	17391.75	16723.4
800.0837	236.909	17416.5	16747.1
800.2262	239.1339	17431.7	16738.15
800.3687	241.3582	17432.5	16753.25
800.5111	243.582	17440.45	16731.05
800.6536	245.8053	17501.2	16803.5
800.7961	248.0281	17494.8	16803.6
800.9387	250.2503	17478	16782.75
801.0812	252.472	17482.45	16783.1
801.2238	254.6932	17568.85	16872.5
801.3664	256.9139	17477.8	16778.2
801.509	259.134	17554.8	16852.15
801.6516	261.3536	17539.6	16839.3
801.7942	263.5727	17598.95	16893.65
801.9369	265.7912	17571.4	16869.15
802.0795	268.0092	17641.15	16934.45
802.2222	270.2267	17648.55	16943.95
802.3649	272.4436	17649.75	16947.4
802.5076	274.6601	17661.65	16943.9
802.6504	276.8759	17638.85	16926.95
802.7931	279.0913	17701.6	16986.95
802.9359	281.3061	17687.5	16971.35
803.0787	283.5204	17720.85	17004.4
803.2215	285.7341	17752.9	17032.75
803.3643	287.9473	17803.7	17075.6
803.5071	290.16	17770.65	17048.2
803.6499	292.3721	17763.55	17048.05
803.7928	294.5837	17756.25	17039.65
803.9357	296.7947	17698.1	16978.9
804.0786	299.0052	17715.1	16995.2
804.2215	301.2152	17661.85	16940.2
804.3644	303.4246	17682.8	16960.25
804.5074	305.6334	17651.75	16931.8
804.6503	307.8418	17682.65	16958.85
804.7933	310.0495	17662.8	16936.15
804.9363	312.2568	17646.85	16920.75
805.0793	314.4635	17578.8	16850.1
805.2223	316.6696	17517.55	16786.05
805.3653	318.8752	17469.4	16729.55
805.5084	321.0802	17450.8	16718.45
805.6514	323.2847	17457.2	16722.05
805.7945	325.4887	17443.6	16707.85
805.9376	327.692	17431.8	16695.1
806.0807	329.8949	17493.15	16751.15
806.2238	332.0972	17455.65	16715.65
806.367	334.2989	17492.1	16747.45
806.5101	336.5001	17485.7	16740.85
806.6533	338.7007	17483.75	16739.45
806.7965	340.9008	17500.6	16756.5
806.9397	343.1003	17456	16711
807.0829	345.2992	17421.8	16674
807.2261	347.4976	17418.75	16667.9
807.3693	349.6955	17399.8	16647.35
807.5126	351.8927	17431.45	16676.4
807.6559	354.0895	17372.5	16608.55
807.7991	356.2856	17398.6	16643.2
807.9424	358.4812	17366.05	16609.35
808.0857	360.6763	17392.4	16632.05
808.2291	362.8707	17341.7	16583.25
808.3724	365.0646	17352.45	16587.9
808.5158	367.258	17337.95	16571.65
808.6591	369.4508	17314.25	16542.85
808.8025	371.643	17354.5	16584.2
808.9459	373.8346	17303.2	16534.2
809.0893	376.0257	17282.25	16509
809.2327	378.2162	17278.85	16504.55
809.3762	380.4062	17265.95	16493.85
809.5196	382.5956	17245.35	16471.8
809.6631	384.7844	17232.65	16466.7
809.8066	386.9726	17177.05	16408.35
809.9501	389.1603	17111.6	16344.7
810.0936	391.3474	17151.85	16355.5
810.2371	393.5339	17119.5	16351.9
810.3806	395.7199	17036.45	16270.65
810.5241	397.9052	17069	16302.7
810.6677	400.09	17054.2	16285.3
810.8113	402.2743	17067.95	16301.15
810.9548	404.4579	17050.1	16280.95
811.0984	406.641	17123.45	16351.9
811.2421	408.8235	17111.55	16337.6
811.3857	411.0054	17119.55	16344.15
811.5293	413.1868	17234.15	16455.3
811.673	415.3675	17276.25	16497.9
811.8166	417.5477	17289.3	16509.4
811.9603	419.7273	17200.95	16416.45
812.104	421.9064	17114.15	16323
812.2477	424.0848	17008.35	16222.15
812.3914	426.2627	16965.95	16178.2
812.5351	428.4399	16895.55	16106.15
812.6788	430.6166	16859.3	16069.95
812.8226	432.7928	16810.75	16018.65
812.9663	434.9683	16728.45	15936
813.1101	437.1432	16722.65	15926.15
813.2539	439.3176	16658.8	15865
813.3977	441.4914	16622.95	15831.3
813.5415	443.6645	16605.15	15814.25
813.6853	445.8371	16519.9	15728.2
813.8291	448.0091	16470.35	15677.95
813.973	450.1806	16424	15631.5
814.1168	452.3514	16375.1	15578.3
814.2607	454.5216	16368.85	15563.9
814.4046	456.6913	16286.75	15486.15
814.5485	458.8603	16292	15493.4
814.6924	461.0288	16335.55	15538.25
814.8363	463.1967	16247.2	15450.7
814.9802	465.3639	16276.35	15475.3
815.1241	467.5306	16224.05	15421.55
815.2681	469.6967	16214.9	15414.95
815.412	471.8622	16191.15	15393.6
815.556	474.0271	16173.15	15373.35
815.7	476.1914	16139.85	15336.65
815.844	478.3551	16124.55	15322.6
815.988	480.5182	16138.65	15335.35
816.132	482.6807	16134.25	15332.8
816.276	484.8426	16153.85	15355
816.4201	487.0039	16146.05	15342.75
816.5641	489.1647	16197.1	15390.25
816.7082	491.3248	16253.95	15446.7
816.8522	493.4843	16213.8	15407.95
816.9963	495.6432	16201.3	15395
817.1404	497.8015	16159.55	15348.55
817.2845	499.9592	16127.25	15314.05
817.4286	502.1163	16125.1	15314.8
817.5727	504.2728	16026.15	15213.7
817.7168	506.4287	16091.05	15284.7
817.861	508.5839	16035.2	15227.75
818.0051	510.7386	16012.35	15201.75
818.1493	512.8927	16046.75	15230.85
818.2935	515.0461	16019.25	15208.45
818.4377	517.199	16003.45	15191.3
818.5818	519.3512	15994.55	15181.9
818.726	521.5029	16018.5	15199.05
818.8703	523.6539	16020.8	15204.45
819.0145	525.8043	16035.35	15218
819.1587	527.9541	16018.75	15200.85
819.303	530.1033	15940.95	15124.15
819.4472	532.2519	15908.65	15092.2
819.5915	534.3999	15873.5	15053.15
819.7357	536.5472	15842.9	15023.6
819.88	538.694	15831.85	15016.45
820.0243	540.8401	15847	15029.6
820.1686	542.9856	15874.75	15050.9
820.3129	545.1305	15833.75	15009.7
820.4572	547.2748	15862.7	15037.65
820.6016	549.4185	15849.75	15021.05
820.7459	551.5615	15825.25	14998.4
820.8902	553.704	15811.35	14988.55
821.0346	555.8458	15779.95	14956.7
821.1789	557.987	15793.8	14968.4
821.3233	560.1276	15754.9	14927.2
821.4677	562.2675	15835.35	15011.65
821.6121	564.4069	15826.3	15002.25
821.7565	566.5456	15794.1	14971.35
821.9009	568.6837	15778.7	14953.15
822.0453	570.8212	15734.7	14908.7
822.1897	572.958	15644.55	14816.5
822.3342	575.0942	15602.8	14777.7
822.4786	577.2299	15562.95	14737.3
822.6231	579.3648	15551.05	14726.55
822.7675	581.4992	15422.05	14600.25
822.912	583.6329	15387.4	14564.05
823.0565	585.766	15373.85	14550.95
823.201	587.8985	15354.15	14530.15
823.3454	590.0304	15347.9	14509.9
823.4899	592.1616	15337.6	14506.45
823.6345	594.2922	15279.45	14449.8
823.779	596.4222	15235.5	14403.6
823.9235	598.5515	15190.15	14356.9
824.068	600.6802	15116.5	14282.75
824.2126	602.8083	15073.5	14243.5
824.3571	604.9358	15078.95	14244.55
824.5017	607.0626	15027.6	14191.55
824.6462	609.1888	15001.65	14165.05
824.7908	611.3144	15003.4	14166.35
824.9354	613.4393	14976.75	14142.4
825.08	615.5636	14975.35	14136.75
825.2246	617.6873	15005.9	14168.2
825.3692	619.8103	15036.75	14196.55
825.5138	621.9327	14985.9	14144.75
825.6584	624.0544	14977.55	14141.6
825.803	626.1756	14946.25	14110.1
825.9477	628.2961	14910.5	14073.25
826.0923	630.4159	14842.85	14003.65
826.237	632.5351	14845.45	14006.15
826.3816	634.6537	14823.6	13983.35
826.5263	636.7716	14820.1	13975.8
826.6709	638.8889	14808.75	13963.6
826.8156	641.0056	14831.75	13988.8
826.9603	643.1216	14802.55	13958.05
827.105	645.237	14803.95	13961.4
827.2497	647.3518	14789.6	13948.15
827.3944	649.4659	14747.1	13907.5
827.5391	651.5793	14717.9	13875.05
827.6838	653.6922	14662.75	13819.5
827.8285	655.8043	14669.1	13827.35
827.9733	657.9159	14644.75	13800.75
828.118	660.0268	14607.15	13761.5
828.2627	662.137	14589.25	13741.5
828.4075	664.2466	14584.85	13735.85
828.5522	666.3556	14584.35	13735.7
828.697	668.4639	14541.5	13693
828.8418	670.5716	14527.35	13682.3
828.9865	672.6786	14503.8	13656.3
829.1313	674.785	14461.25	13611.8
829.2761	676.8907	14422.85	13572.15
829.4209	678.9958	14410.5	13563.2
829.5657	681.1002	14374.65	13525.75
829.7105	683.204	14367.05	13513.7
829.8553	685.3072	14334	13483.5
830.0001	687.4097	14304.35	13452.15
830.1449	689.5115	14310.9	13456.85
830.2898	691.6127	14322	13473.7
830.4346	693.7132	14278.7	13427.2
830.5794	695.8131	14276.2	13412.15
830.7243	697.9123	14293.5	13438.85
830.8691	700.0109	14276.65	13423.35
831.014	702.1089	14256.5	13404.9
831.1588	704.2061	14248.35	13396.45
831.3037	706.3028	14220.7	13365.65
831.4486	708.3987	14205.75	13353.85
831.5935	710.4941	14194.75	13341.2
831.7383	712.5887	14205.2	13350
831.8832	714.6827	14170.95	13314.95
832.0281	716.7761	14163	13309.2
832.173	718.8688	14184.3	13329.1
832.3179	720.9608	14180.95	13324.1
832.4628	723.0522	14161.05	13300.9
832.6077	725.1429	14107.8	13253.35
832.7527	727.233	14143.5	13284.35
832.8976	729.3224	14177	13319
833.0425	731.4112	14163.9	13306.6
833.1874	733.4993	14125.05	13266.5
833.3324	735.5867	14063.65	13207
833.4773	737.6735	14016.85	13157.7
833.6222	739.7596	13978.9	13118.05
833.7672	741.845	13936.75	13078.5
833.9122	743.9298	13921.3	13059.5
834.0571	746.014	13923.4	13062.9
834.2021	748.0974	13906.85	13045.1
834.347	750.1802	13881.6	13019.9
834.492	752.2624	13820.45	12960.4
834.637	754.3439	13726.15	12861.75
834.782	756.4247	13710.35	12838.75
834.9269	758.5048	13663.65	12803.15
835.0719	760.5843	13640.35	12777.65
835.2169	762.6631	13623.3	12761.3
835.3619	764.7413	13621.35	12758.65
835.5069	766.8188	13660.8	12800.1
835.6519	768.8956	13615.1	12749.5
835.7969	770.9718	13644	12781.75
835.9419	773.0473	13578.75	12718.5
836.0869	775.1221	13584.85	12724.2
836.232	777.1962	13507.25	12644.75
836.377	779.2697	13529	12663.25
836.522	781.3426	13514.55	12632.3
836.667	783.4147	13537.25	12673.5
836.8121	785.4862	13519.85	12657.05
836.9571	787.557	13463.55	12596.3
837.1021	789.6271	13389.8	12524.1
837.2472	791.6966	13308.45	12445.4
837.3922	793.7654	13252	12386.85
837.5373	795.8335	13219.55	12355.5
837.6823	797.901	13171.7	12308.9
837.8274	799.9678	13157.65	12291.75
837.9724	802.0339	13116.3	12251.2
838.1175	804.0993	13111.9	12237.15
838.2626	806.1641	13057.9	12190.15
838.4076	808.2282	13023.7	12156.6
838.5527	810.2916	13007.2	12139.75
838.6978	812.3544	13001.2	12137.95
838.8428	814.4164	13007.7	12144.25
838.9879	816.4778	13008.5	12140.65
839.133	818.5385	12965.9	12097.2
839.2781	820.5986	12943.2	12075.1
839.4232	822.658	12945.8	12080.6
839.5682	824.7166	12924.9	12057.45
839.7133	826.7747	13015	12147.05
839.8584	828.832	13009.95	12140.15
840.0035	830.8886	13021.6	12151.5
840.1486	832.9446	13014.45	12146.55
840.2937	834.9999	12942.35	12074.45
840.4388	837.0545	12905.05	12031.2
840.5839	839.1085	12848.95	11978.4
840.729	841.1618	12791.1	11916.75
840.8741	843.2143	12779.95	11910
841.0192	845.2662	12710.55	11842.45
841.1643	847.3175	12711.75	11843.9
841.3095	849.368	12668.3	11797.65
841.4546	851.4179	12649.65	11778.5
841.5997	853.467	12582.9	11712.35
841.7448	855.5155	12586.6	11715.1
841.8899	857.5633	12579.05	11707.2
842.0351	859.6105	12519.05	11646.95
842.1802	861.6569	12501.15	11628.8
842.3253	863.7027	12488.9	11616.55
842.4704	865.7478	12480.15	11608.85
842.6156	867.7922	12469.8	11597.95
842.7607	869.8359	12444.95	11572.95
842.9058	871.8789	12406.05	11532.3
843.0509	873.9212	12461.75	11557.6
843.1961	875.9629	12379.65	11507.7
843.3412	878.0039	12370.75	11495.5
843.4863	880.0441	12372.25	11498.65
843.6315	882.0837	12418.45	11545.8
843.7766	884.1226	12421.35	11546.2
843.9218	886.1609	12382.25	11509.55
844.0669	888.1984	12387.3	11514
844.212	890.2352	12411.1	11540.45
844.3572	892.2714	12393.15	11514.75
844.5023	894.3069	12408.3	11533.35
844.6475	896.3416	12320.85	11445.6
844.7926	898.3757	12301.3	11428.75
844.9377	900.4091	12249.05	11375.55
845.0829	902.4418	12245	11364.05
845.228	904.4739	12202.8	11323.75
845.3732	906.5052	12206.45	11329.4
845.5183	908.5358	12195.3	11319.5
845.6635	910.5658	12151.65	11273.05
845.8086	912.595	12118.15	11240.25
845.9538	914.6236	12049.85	11173.9
846.0989	916.6515	12055.15	11177.8
846.2441	918.6786	12006	11126
846.3892	920.7051	11984.4	11107
846.5344	922.7309	12052.25	11176
846.6795	924.756	11958.9	11082.65
846.8246	926.7804	11954.8	11077.75
846.9698	928.8041	11892.15	11013.85
847.1149	930.8272	11902.45	11024.5
847.2601	932.8495	11855.5	10976.3
847.4052	934.8711	11839.95	10962.1
847.5504	936.892	11802	10927.45
847.6955	938.9123	11784.2	10904.15
847.8407	940.9318	11784.8	10906.8
847.9858	942.9506	11721.95	10841.5
848.131	944.9688	11687.05	10809.75
848.2761	946.9862	11648.6	10770.05
848.4213	949.003	11551.6	10671.95
848.5664	951.019	11569.15	10691.1
848.7115	953.0344	11525.2	10644.85
848.8567	955.0491	11502	10621.4
849.0018	957.063	11493.85	10615.75
849.147	959.0763	11528.85	10650.05
849.2921	961.0888	11461.8	10582.8
849.4373	963.1007	11409.85	10532.75
849.5824	965.1119	11419.1	10543.45
849.7275	967.1223	11402	10526.4
849.8727	969.1321	11394.45	10519.95
850.0178	971.1412	11404.45	10526.65
850.1629	973.1495	11361.95	10485.05
850.3081	975.1572	11372.1	10445.65
850.4532	977.1641	11309	10428.7
850.5983	979.1704	11284.3	10403.95
850.7435	981.1759	11273.5	10388.6
850.8886	983.1808	11251.8	10368.85
851.0337	985.1849	11232	10340
851.1788	987.1884	11202.4	10319.7
851.324	989.1911	11184.45	10299.8
851.4691	991.1932	11157.35	10278.25
851.6142	993.1945	11109.45	10228.35
851.7593	995.1951	11055.6	10173.85
851.9045	997.1951	11052.15	10165.1
852.0496	999.1943	11005.9	10126.35
852.1947	1001.1928	10980.3	10097.75
852.3398	1003.1906	10920.2	10040
852.4849	1005.1877	10936.55	10054.1
852.63	1007.1841	10910.3	10030.15
852.7751	1009.1798	10888.55	10005.8
852.9202	1011.1748	10812	9932.75
853.0653	1013.1691	10777.65	9896.65
853.2104	1015.1627	10744.45	9862.65
853.3555	1017.1556	10672.75	9790.45
853.5006	1019.1477	10652.95	9771.25
853.6457	1021.1392	10569.55	9689.9
853.7908	1023.1299	10553.35	9672.8
853.9359	1025.12	10518.95	9638.05
854.081	1027.1093	10462.95	9587.55
854.2261	1029.0979	10450.45	9575.15
854.3712	1031.0859	10408.7	9532.05
854.5163	1033.0731	10420.95	9541.45
854.6613	1035.0596	10347.2	9468.55
854.8064	1037.0454	10325.5	9442.75
854.9515	1039.0304	10314.7	9433.85
855.0965	1041.0148	10269.1	9387.95
855.2416	1042.9985	10216.5	9332.6
855.3867	1044.9814	10186.1	9306.9
855.5317	1046.9636	10166.4	9283.3
855.6768	1048.9452	10125.3	9244.6
855.8219	1050.926	10139.2	9259.5
855.9669	1052.9061	10117.35	9237.65
856.112	1054.8855	10081.6	9201.55
856.257	1056.8642	10068.45	9187
856.4021	1058.8421	10053.3	9166.75
856.5471	1060.8194	10007.65	9124.45
856.6921	1062.7959	10005.7	9121.25
856.8372	1064.7717	9995.15	9112.2
856.9822	1066.7469	9976	9090.95
857.1272	1068.7213	9934.6	9051.2
857.2723	1070.695	9945.5	9062.1
857.4173	1072.6679	9907.8	9024
857.5623	1074.6402	9912.95	9030.4
857.7073	1076.6117	9908.15	9018.9
857.8523	1078.5826	9888.95	9005.3
857.9973	1080.5527	9821.55	8935.15
858.1423	1082.5221	9778.75	8892.4
858.2873	1084.4908	9758.1	8875.6
858.4323	1086.4587	9710.95	8826.6
858.5773	1088.426	9708.85	8824.7
858.7223	1090.3925	9666.6	8777.7
858.8673	1092.3584	9687.95	8803.95
859.0123	1094.3235	9621.05	8739.25
859.1573	1096.2879	9622.4	8738.75
859.3022	1098.2515	9623.85	8739.85
859.4472	1100.2145	9630.55	8745.5
859.5922	1102.1767	9582.15	8695.2
859.7371	1104.1382	9582.7	8698.25
859.8821	1106.099	9598.35	8713.4
860.027	1108.0591	9602.45	8719
860.172	1110.0185	9596.85	8710.2
860.3169	1111.9771	9618.6	8733.4
860.4619	1113.9351	9590.35	8705.5
860.6068	1115.8923	9588.65	8703.9
860.7517	1117.8488	9593.9	8710.5
860.8967	1119.8045	9522.45	8638.3
861.0416	1121.7596	9484.65	8598.75
861.1865	1123.7139	9399.05	8517.55
861.3314	1125.6675	9346.8	8464.25
861.4763	1127.6204	9361.25	8477.05
861.6212	1129.5726	9330.55	8443.65
861.7661	1131.524	9322.45	8438.15
861.911	1133.4748	9297.3	8411.75
862.0559	1135.4248	9233.85	8350.2
862.2008	1137.3741	9197.95	8313.85
862.3457	1139.3226	9168.75	8280.7
862.4905	1141.2705	9170.65	8285.5
862.6354	1143.2176	9123.25	8231.1
862.7803	1145.164	9104.2	8217.3
862.9251	1147.1097	9078.2	8191.7
863.07	1149.0546	9072.3	8185.65
863.2148	1150.9989	9062.9	8176.85
863.3597	1152.9424	9060.25	8176.55
863.5045	1154.8852	9049.6	8163.45
863.6493	1156.8272	8998.95	8113.45
863.7942	1158.7686	9042.65	8152.1
863.939	1160.7092	8965.1	8077.3
864.0838	1162.6491	8934.15	8047.95
864.2286	1164.5883	8942.5	8056.9
864.3734	1166.5267	8928.55	8039.4
864.5182	1168.4644	8941.7	8055.5
864.663	1170.4014	8924.05	8035.25
864.8078	1172.3377	8964	8080.1
864.9526	1174.2732	8950.95	8065.6
865.0974	1176.2081	8983.1	8095.4
865.2421	1178.1421	9000.85	8111.35
865.3869	1180.0755	9077.75	8193.9
865.5317	1182.0082	9052.5	8167.4
865.6764	1183.9401	9055.2	8169.05
865.8212	1185.8713	8974.6	8089.2
865.9659	1187.8017	8876.8	7990.2
866.1106	1189.7315	8824.7	7943.55
866.2554	1191.6605	8739.2	7857.9
866.4001	1193.5888	8701.7	7818.45
866.5448	1195.5163	8676.8	7793.55
866.6895	1197.4432	8640.05	7752.95
866.8342	1199.3693	8613.35	7726.65
866.9789	1201.2947	8552.55	7660.85
867.1236	1203.2193	8535.25	7650.15
867.2683	1205.1432	8520.75	7635.95
867.413	1207.0664	8473.9	7590.2
867.5576	1208.9889	8466.25	7575.05
867.7023	1210.9106	8431.8	7547.05
867.847	1212.8316	8388.7	7502.15
867.9916	1214.7519	8418.15	7520.05
868.1363	1216.6715	8372.6	7486.75
868.2809	1218.5903	8368.45	7483.65
868.4255	1220.5084	8341.35	7455.6
868.5701	1222.4257	8348.5	7462.4
868.7148	1224.3424	8330.15	7446.65
868.8594	1226.2583	8334.35	7443.8
869.004	1228.1735	8334.4	7447.3
869.1486	1230.0879	8283.35	7399.4
869.2932	1232.0016	8319.4	7432.45
869.4377	1233.9146	8293.35	7404.25
869.5823	1235.8269	8283.15	7399.6
869.7269	1237.7384	8293.1	7405.75
869.8715	1239.6492	8239.7	7352.5
870.016	1241.5592	8266.7	7379.95
870.1606	1243.4686	8241.15	7353.3
870.3051	1245.3772	8288.7	7402.55
870.4496	1247.285	8301.05	7412.8
870.5941	1249.1922	8298.9	7412
870.7387	1251.0986	8343	7457.15
870.8832	1253.0042	8336.25	7447.7
871.0277	1254.9092	8383.8	7495.55
871.1722	1256.8134	8401.55	7514.45
871.3167	1258.7169	8423.65	7536.65
871.4611	1260.6196	8419.3	7533.25
871.6056	1262.5216	8407.05	7520.5
871.7501	1264.4229	8379.85	7493.9
871.8945	1266.3234	8382.5	7493.7
872.039	1268.2232	8352.95	7465.05
872.1834	1270.1223	8297.8	7410.45
872.3278	1272.0207	8278.6	7391.35
872.4723	1273.9183	8234.1	7339.8
872.6167	1275.8151	8247.6	7357.85
872.7611	1277.7113	8238.85	7351.8
872.9055	1279.6067	8252.95	7366.5
873.0499	1281.5014	8313.95	7423.2
873.1943	1283.3953	8368.5	7479.6
873.3386	1285.2885	8476.6	7589.45
873.483	1287.181	8530.1	7642.25
873.6274	1289.0727	8547.05	7659.8
873.7717	1290.9637	8507.75	7619.25
873.9161	1292.854	8485.35	7599.2
874.0604	1294.7435	8406.35	7517.95
874.2047	1296.6323	8349.25	7463.4
874.349	1298.5204	8304.15	7414.2
874.4933	1300.4077	8246.4	7356.6
874.6376	1302.2943	8233.75	7345.05
874.7819	1304.1802	8208.6	7321
874.9262	1306.0653	8174.65	7284.5
875.0705	1307.9497	8148.5	7261.45
875.2147	1309.8333	8091.25	7205.75
875.359	1311.7162	8090.05	7204.7
875.5032	1313.5984	8064.65	7174.9
875.6475	1315.4798	8039.25	7150.75
875.7917	1317.3605	8036.3	7134.25
875.9359	1319.2405	8031.15	7141.35
876.0801	1321.1197	7995.7	7105.85
876.2243	1322.9982	7949.95	7059.35
876.3685	1324.876	7921.75	7036.1
876.5127	1326.753	7836.6	6948.6
876.6569	1328.6293	7819.95	6930.8
876.801	1330.5048	7769.75	6879.3
876.9452	1332.3796	7689.9	6802.15
877.0893	1334.2537	7702.85	6789.5
877.2335	1336.127	7677.05	6788.95
877.3776	1337.9996	7647.8	6759.6
877.5217	1339.8714	7610.95	6721.55
877.6658	1341.7426	7611.4	6681.6
877.8099	1343.6129	7587.5	6697.9
877.954	1345.4826	7539.9	6651.7
878.0981	1347.3515	7544.4	6653.9
878.2422	1349.2196	7513.95	6623.75
878.3862	1351.087	7534.9	6647.3
878.5303	1352.9537	7494.25	6605.25
878.6743	1354.8197	7503.15	6614.8
878.8184	1356.6849	7508.2	6620.2
878.9624	1358.5493	7478.7	6589.45
879.1064	1360.4131	7495.45	6607.5
879.2504	1362.276	7504.95	6615.1
879.3944	1364.1383	7491	6604.2
879.5384	1365.9998	7485.75	6591
879.6823	1367.8606	7444.4	6554.6
879.8263	1369.7206	7433.5	6548
879.9702	1371.5799	7420.55	6527.25
880.1142	1373.4384	7384.9	6498.15
880.2581	1375.2962	7360.95	6472.95
880.402	1377.1533	7330.4	6443.9
880.5459	1379.0096	7296.1	6406.8
880.6898	1380.8652	7249.1	6362.45
880.8337	1382.7201	7189.7	6300.3
880.9776	1384.5742	7144.45	6257.8
881.1215	1386.4275	7116.35	6226.1
881.2653	1388.2802	7070.45	6185.45
881.4092	1390.132	7070.55	6182.3
881.553	1391.9832	7075.35	6186.15
881.6968	1393.8336	7023.35	6133.15
881.8406	1395.6832	6998.4	6106.5
881.9844	1397.5322	6950.75	6063
882.1282	1399.3803	6958	6065.15
882.272	1401.2278	6929.3	6039.35
882.4158	1403.0745	6915.3	6027.6
882.5595	1404.9204	6869.05	5981.2
882.7033	1406.7656	6871.4	5984.45
882.847	1408.6101	6840.05	5952
882.9908	1410.4538	6834	5945.2
883.1345	1412.2968	6789.4	5901.05
883.2782	1414.139	6758.3	5870.25
883.4219	1415.9805	6771.35	5882.65
883.5656	1417.8213	6748.7	5854.45
883.7092	1419.6613	6709.25	5822.3
883.8529	1421.5006	6746.65	5857.5
883.9965	1423.3391	6730.6	5842.6
884.1402	1425.1769	6727.15	5839.45
884.2838	1427.0139	6751.6	5862.6
884.4274	1428.8502	6783.5	5895.45
884.571	1430.6858	6802.3	5913.95
884.7146	1432.5206	6811.85	5920.75
884.8582	1434.3547	6791.5	5901.9
885.0018	1436.188	6779.2	5891.1
885.1453	1438.0206	6774.35	5883.35
885.2889	1439.8524	6737.95	5848.8
885.4324	1441.6835	6730.7	5841.9
885.5759	1443.5139	6690.95	5799.25
885.7194	1445.3435	6686.85	5798.95
885.8629	1447.1724	6700.3	5815.35
886.0064	1449.0005	6687.95	5799.4
886.1499	1450.8279	6657	5767
886.2933	1452.6545	6669.3	5780.45
886.4368	1454.4804	6651.1	5762.5
886.5802	1456.3056	6628.35	5734.6
886.7237	1458.13	6616.2	5727.6
886.8671	1459.9536	6591.75	5702.45
887.0105	1461.7766	6562.85	5674.15
887.1539	1463.5987	6530.2	5641.2
887.2972	1465.4202	6507	5619.35
887.4406	1467.2409	6453.65	5562.15
887.584	1469.0608	6453.4	5566
887.7273	1470.88	6414.15	5526.2
887.8706	1472.6984	6397.7	5511.2
888.0139	1474.5161	6365.45	5474.9
888.1572	1476.3331	6327.9	5440.6
888.3005	1478.1493	6320.35	5433.05
888.4438	1479.9648	6317	5428.9
888.5871	1481.7795	6303	5414.8
888.7303	1483.5935	6282.05	5392.15
888.8736	1485.4067	6288.3	5398.7
889.0168	1487.2192	6277.1	5389.75
889.16	1489.031	6254.7	5362.7
889.3032	1490.842	6231.15	5345.45
889.4464	1492.6522	6255.95	5367.2
889.5896	1494.4618	6226.15	5339.4
889.7327	1496.2705	6223.2	5335.45
889.8759	1498.0785	6204.5	5315.65
890.019	1499.8858	6168	5279.2
890.1622	1501.6924	6145.9	5257.15
890.3053	1503.4981	6154.05	5264.85
890.4484	1505.3032	6122.8	5235.95
890.5914	1507.1075	6093.65	5203.9
890.7345	1508.911	6104.15	5216.9
890.8776	1510.7138	6085.7	5197.95
891.0206	1512.5159	6058	5171.4
891.1637	1514.3172	6055.7	5168.1
891.3067	1516.1178	6005	5118.9
891.4497	1517.9176	6004.3	5112.7
891.5927	1519.7166	5977.8	5090.3
891.7357	1521.515	5961.75	5067.1
891.8786	1523.3126	5946.95	5060.5
892.0216	1525.1094	5924.75	5034.6
892.1645	1526.9055	5908.55	5021.25
892.3074	1528.7008	5881.6	4994.4
892.4503	1530.4954	5853.4	4964.2
892.5932	1532.2893	5825.5	4939.15
892.7361	1534.0824	5812.05	4920.75
892.879	1535.8747	5792.4	4905.45
893.0218	1537.6663	5763.65	4876.85
893.1647	1539.4572	5771.85	4883.1
893.3075	1541.2473	5759.25	4871.2
893.4503	1543.0367	5710	4825.15
893.5931	1544.8253	5703.75	4812.6
893.7359	1546.6132	5712.05	4823.35
893.8787	1548.4003	5685.95	4788.55
894.0214	1550.1867	5678.8	4783.7
894.1642	1551.9723	5652.85	4761
894.3069	1553.7572	5647.55	4759.7
894.4496	1555.5414	5634.4	4746.55
894.5923	1557.3247	5627.35	4739.75
894.735	1559.1074	5620.4	4737.15
894.8777	1560.8893	5622.65	4736.75
895.0204	1562.6705	5614.3	4730.95
895.163	1564.4509	5625.2	4739.8
895.3056	1566.2305	5620.45	4736.9
895.4482	1568.0094	5612	4729.35
895.5908	1569.7876	5585.7	4700.15
895.7334	1571.565	5591.55	4705.65
895.876	1573.3417	5573.8	4686.75
896.0186	1575.1176	5557.3	4672.8
896.1611	1576.8928	5556.1	4672.35
896.3036	1578.6672	5550.6	4667.15
896.4461	1580.4409	5520.7	4639.4
896.5886	1582.2138	5530.8	4644.65
896.7311	1583.986	5531.85	4645.65
896.8736	1585.7575	5532.75	4648.55
897.0161	1587.5282	5538.85	4655.25
897.1585	1589.2981	5553.65	4671.5
897.3009	1591.0673	5513.55	4630.55
897.4433	1592.8358	5522.35	4640.15
897.5857	1594.6035	5508.3	4621.45
897.7281	1596.3704	5464.5	4580
897.8705	1598.1366	5449.15	4565.4
898.0128	1599.9021	5428.25	4544.35
898.1551	1601.6668	5400.1	4513.8
898.2975	1603.4308	5375.45	4490.8
898.4398	1605.194	5380.55	4490.85
898.5821	1606.9564	5347.9	4466.5
898.7243	1608.7182	5377.9	4494.7
898.8666	1610.4791	5400.05	4519.7
899.0088	1612.2394	5437.4	4556.35
899.1511	1613.9988	5441.85	4557.65
899.2933	1615.7576	5479.75	4597.3
899.4355	1617.5156	5491.95	4601.75
899.5776	1619.2728	5468.6	4583.35
899.7198	1621.0293	5408.65	4523.9
899.862	1622.785	5348.1	4459.7
900.0041	1624.54	5261.4	4377.8
900.1462	1626.2942	5200.5	4317.95
900.2883	1628.0477	5110	4223.35
900.4304	1629.8005	5063.55	4175.8
900.5725	1631.5525	5014.55	4133.2
900.7145	1633.3037	4968.15	4085.05
900.8566	1635.0542	4929	4045.5
900.9986	1636.804	4900.65	4017.05
901.1406	1638.553	4944.05	3977.75
901.2826	1640.3013	4859.15	3978.25
901.4245	1642.0488	4818	3933.5
901.5665	1643.7955	4818	3936.65
901.7085	1645.5416	4777.15	3894.05
901.8504	1647.2868	4772.3	3890.3
901.9923	1649.0313	4730.45	3847.6
902.1342	1650.7751	4727.05	3838.9
902.2761	1652.5181	4703.3	3822.1
902.4179	1654.2604	4703.55	3819.55
902.5598	1656.0019	4683.05	3803.15
902.7016	1657.7427	4686.15	3800.1
902.8434	1659.4828	4676.1	3792.7
902.9852	1661.222	4676.25	3792.85
903.127	1662.9606	4686.5	3804.3
903.2687	1664.6984	4670.85	3786.35
903.4105	1666.4354	4669.5	3783.95
903.5522	1668.1717	4662.6	3777.35
903.6939	1669.9072	4606.35	3722.55
903.8356	1671.642	4573.15	3686.25
903.9773	1673.3761	4537.05	3653.6
904.119	1675.1094	4508.65	3624.25
904.2606	1676.8419	4480.05	3597.95
904.4022	1678.5737	4454.9	3572.65
904.5439	1680.3048	4442.05	3555.9
904.6855	1682.0351	4416.5	3533.2
904.827	1683.7646	4394.55	3506.7
904.9686	1685.4934	4368	3482.25
905.1101	1687.2215	4366.25	3482.8
905.2517	1688.9488	4342.4	3457.75
905.3932	1690.6754	4309	3427.4
905.5347	1692.4012	4292.5	3410
905.6761	1694.1263	4306.45	3423.5
905.8176	1695.8506	4269.55	3388.4
905.9591	1697.5742	4256	3374.35
906.1005	1699.297	4246.15	3363.7
906.2419	1701.0191	4223	3341.05
906.3833	1702.7404	4211.95	3331.6
906.5246	1704.461	4193.5	3308.6
906.666	1706.1808	4170.85	3286.15
906.8073	1707.8999	4168.8	3283.6
906.9487	1709.6182	4155.2	3273.2
907.09	1711.3358	4137.7	3253.55
907.2313	1713.0527	4113.9	3234.45
907.3725	1714.7688	4130.15	3241.05
907.5138	1716.4841	4097.2	3213.5
907.655	1718.1987	4100.5	3213.1
907.7962	1719.9126	4109.75	3229
907.9374	1721.6257	4072	3187
908.0786	1723.338	4068.4	3184.9
908.2198	1725.0496	4060.15	3177.15
908.3609	1726.7605	4047.65	3166.3
908.502	1728.4706	4033.45	3147.9
908.6431	1730.18	4046.9	3161.45
908.7842	1731.8886	4026.75	3144.7
908.9253	1733.5964	4003.6	3115.8
909.0664	1735.3036	4006.95	3123.85
909.2074	1737.0099	4007.15	3125.8
909.3484	1738.7156	3994.45	3114.95
909.4894	1740.4204	4000.25	3115
909.6304	1742.1246	3990.9	3105.3
909.7714	1743.8279	3978.85	3098.6
909.9123	1745.5306	3961.4	3079.4
910.0532	1747.2325	3968.15	3087.65
910.1941	1748.9336	3972	3090.4
910.335	1750.634	3927.85	3042.6
910.4759	1752.3336	3943.45	3063.35
910.6168	1754.0325	3937.6	3057.8
910.7576	1755.7307	3942.35	3061.75
910.8984	1757.4281	3931.3	3048.8
911.0392	1759.1247	3933.2	3040.1
911.18	1760.8206	3903.7	3015.8
911.3208	1762.5158	3921.7	3036.35
911.4615	1764.2102	3897.8	3016.1
911.6022	1765.9039	3893.55	3012.25
911.7429	1767.5968	3919.45	3036.05
911.8836	1769.289	3884.95	3002.2
912.0243	1770.9804	3880.3	2998.7
912.1649	1772.6711	3881.2	2995.8
912.3056	1774.361	3865.65	2982.85
912.4462	1776.0502	3863.1	2980.6
912.5868	1777.7386	3855.7	2970.8
912.7274	1779.4263	3842.35	2959.6
912.8679	1781.1132	3829.2	2945.65
913.0084	1782.7994	3825.7	2943.65
913.149	1784.4849	3815.8	2935
913.2895	1786.1696	3823.3	2922.15
913.4299	1787.8535	3802.3	2922.4
913.5704	1789.5367	3785.55	2901.9
913.7108	1791.2192	3805.25	2926.4
913.8513	1792.9009	3795.1	2883.75
913.9917	1794.5818	3774.75	2892.25
914.132	1796.2621	3751.8	2873.05
914.2724	1797.9415	3747.45	2864.35
914.4128	1799.6202	3750.8	2868.75
914.5531	1801.2982	3743.5	2860.85
914.6934	1802.9755	3733.75	2849.2
914.8337	1804.6519	3726.85	2846.3
914.9739	1806.3277	3716.1	2834.55
915.1142	1808.0027	3701.4	2822.1
915.2544	1809.6769	3683.7	2800.6
915.3946	1811.3504	3686.3	2804.05
915.5348	1813.0231	3680.6	2800.9
915.675	1814.6951	3681.95	2800.4
915.8151	1816.3664	3679.1	2793.7
915.9553	1818.0369	3668.9	2786.65
916.0954	1819.7067	3664.4	2782.85
916.2355	1821.3757	3651.05	2767.55
916.3755	1823.044	3646.45	2763.25
916.5156	1824.7115	3641.85	2760.45
916.6556	1826.3783	3629.5	2746.5
916.7956	1828.0443	3605.6	2723.8
916.9356	1829.7096	3617.45	2733.75
917.0756	1831.3741	3617.6	2732.85
917.2155	1833.0379	3609.45	2727.25
917.3555	1834.701	3594.95	2712.1
917.4954	1836.3633	3597.9	2716.35
917.6353	1838.0248	3586.55	2702.8
917.7751	1839.6856	3572.45	2691.6
917.915	1841.3457	3584.4	2704.6
918.0548	1843.005	3567.45	2684.4
918.1946	1844.6636	3553.05	2672
918.3344	1846.3214	3548.5	2666.6
918.4742	1847.9785	3541.5	2658.65
918.6139	1849.6349	3534.4	2650.1
918.7537	1851.2904	3558.55	2666.35
918.8934	1852.9453	3538.3	2654.2
919.0331	1854.5994	3536.3	2653.4
919.1727	1856.2528	3534.45	2644.6
919.3124	1857.9054	3507	2625.15
919.452	1859.5572	3505.25	2623.85
919.5916	1861.2083	3500.25	2615.9
919.7312	1862.8587	3486.85	2603.6
919.8708	1864.5084	3495.6	2612.1
920.0103	1866.1572	3471.55	2589.4
920.1498	1867.8054	3483.35	2601.35
920.2893	1869.4528	3461.55	2577.8
920.4288	1871.0994	3457.55	2575.05
920.5683	1872.7453	3464.15	2580.55
920.7077	1874.3905	3455.15	2567.55
920.8471	1876.0349	3442.45	2560.8
920.9865	1877.6786	3446.45	2559.1
921.1259	1879.3215	3432	2550.1
921.2653	1880.9637	3419.25	2533.1
921.4046	1882.6051	3421	2539.8
921.5439	1884.2458	3410.95	2528.5
921.6832	1885.8858	3399.85	2518.75
921.8225	1887.525	3396.35	2513.3
921.9617	1889.1634	3392.9	2507.85
922.101	1890.8011	3382.4	2496.7
922.2402	1892.4381	3391.1	2509.4
922.3794	1894.0743	3368.5	2485
922.5185	1895.7098	3381.85	2500.25
922.6577	1897.3446	3366.9	2483.7
922.7968	1898.9786	3371.3	2485.3
922.9359	1900.6118	3353.05	2470.2
923.075	1902.2443	3334.95	2450.65
923.214	1903.8761	3325.25	2441.7
923.3531	1905.5071	3324.3	2441.85
923.4921	1907.1374	3320.1	2436.4
923.6311	1908.7669	3308.4	2428.4
923.77	1910.3957	3304.45	2421.6
923.909	1912.0237	3302.5	2420.8
924.0479	1913.651	3299.25	2416.35
924.1868	1915.2776	3291.85	2410.95
924.3257	1916.9034	3277.2	2394
924.4646	1918.5285	3260.1	2378.45
924.6034	1920.1528	3258.25	2375.5
924.7422	1921.7764	3258.55	2378
924.881	1923.3992	3243.2	2361.3
925.0198	1925.0213	3227.6	2343.15
925.1586	1926.6427	3223.05	2339.9
925.2973	1928.2633	3394.7	2295.55
925.436	1929.8832	3249.15	2363.8
925.5747	1931.5023	3210.4	2327.9
925.7134	1933.1207	3209.95	2328.05
925.852	1934.7383	3202.45	2317.6
925.9906	1936.3552	3186.75	2305.85
926.1292	1937.9714	3178.5	2296.5
926.2678	1939.5868	3176.2	2293.8
926.4064	1941.2015	3162.35	2278.5
926.5449	1942.8154	3156.4	2273.05
926.6834	1944.4286	3152.05	2270.8
926.8219	1946.041	3153.1	2250.65
926.9604	1947.6528	3124.85	2238.85
927.0988	1949.2637	3124.35	2242.35
927.2372	1950.8739	3121.15	2237.35
927.3756	1952.4834	3112.3	2228.05
927.514	1954.0921	3124.35	2241.2
927.6523	1955.7001	3109.1	2221.75
927.7907	1957.3074	3088.5	2208.2
927.929	1958.9139	3080.35	2199.2
928.0673	1960.5197	3081.4	2199.85
928.2055	1962.1247	3072.8	2192.75
928.3438	1963.729	3059.7	2179.25
928.482	1965.3325	3081.7	2176
928.6202	1966.9353	3056.6	2176.1
928.7584	1968.5374	3056.9	2175.45
928.8965	1970.1387	3050.35	2170.15
929.0346	1971.7393	3034.9	2154.55
929.1727	1973.3392	3031.1	2149.2
929.3108	1974.9383	3022.95	2141.8
929.4489	1976.5366	3019.75	2138.45
929.5869	1978.1342	2996.55	2116.75
929.7249	1979.7311	3012.1	2129.55
929.8629	1981.3273	2998.05	2115.65
930.0009	1982.9227	3000.65	2117.9
930.1388	1984.5173	2996.15	2115.9
930.2767	1986.1112	2991.65	2110.65
930.4146	1987.7044	2976.1	2095.7
930.5525	1989.2968	2973.5	2092.7
930.6904	1990.8885	2975.65	2093.25
930.8282	1992.4795	2971.85	2088.65
930.966	1994.0697	2956.75	2077.65
931.1038	1995.6592	2965.1	2083.45
931.2415	1997.2479	2945.4	2065.2
931.3793	1998.8359	2937.85	2056.9
931.517	2000.4232	2936	2056.3
931.6547	2002.0097	2928.5	2050.9
931.7923	2003.5955	2927.9	2045.15
931.93	2005.1805	2919.95	2039.1
932.0676	2006.7648	2906.05	2027.4
932.2052	2008.3484	2919.75	2040.9
932.3427	2009.9312	2916.15	2034.95
932.4803	2011.5133	2904.75	2025.2
932.6178	2013.0946	2904.1	2024.1
932.7553	2014.6752	2891.7	2012.95
932.8928	2016.2551	2894.8	2015.2
933.0302	2017.8342	2896.85	2016.75
933.1676	2019.4126	2876.6	1999.2
933.305	2020.9902	2870.9	1992.65
933.4424	2022.5672	2870	1990.7
933.5798	2024.1433	2874.5	1988.9
933.7171	2025.7188	2863	1987.6
933.8544	2027.2935	2862.55	1981.7
933.9917	2028.8674	2858.75	1979.95
934.129	2030.4406	2845.85	1966.2
934.2662	2032.0131	2844.2	1964.2
934.4034	2033.5849	2845.9	1960.15
934.5406	2035.1559	2834.85	1956.65
934.6778	2036.7261	2828.45	1949.45
934.8149	2038.2957	2837.85	1958.65
934.952	2039.8645	2828.2	1948.45
935.0891	2041.4325	2825.4	1943.25
935.2262	2042.9998	2830.4	1952.35
935.3632	2044.5664	2814	1932.9
935.5002	2046.1323	2813	1934.7
935.6372	2047.6974	2807.9	1929.9
935.7742	2049.2617	2792.75	1915.45
935.9111	2050.8254	2813.55	1930.35
936.048	2052.3883	2803.85	1923.95
936.1849	2053.9504	2807.95	1926.15
936.3218	2055.5118	2799.15	1918.7
936.4586	2057.0725	2786.25	1901.5
936.5955	2058.6325	2788.6	1909.05
936.7323	2060.1917	2782.7	1904.45
936.869	2061.7502	2773.65	1890.85
937.0058	2063.3079	2768.75	1888.75
937.1425	2064.8649	2777.05	1895.95
937.2792	2066.4212	2767.95	1890.3
937.4159	2067.9767	2747.65	1868.55
937.5525	2069.5315	2758.15	1877.1
937.6891	2071.0856	2753.35	1874.2
937.8257	2072.6389	2743.15	1862.55
937.9623	2074.1915	2729.15	1852.75
938.0989	2075.7433	2741.25	1859.7
938.2354	2077.2945	2731.9	1851.45
938.3719	2078.8448	2726.5	1846.2
938.5084	2080.3945	2721.6	1842.15
938.6448	2081.9434	2722.8	1844.25
938.7812	2083.4916	2721.15	1840.9
938.9176	2085.039	2712.15	1828.65
939.054	2086.5857	2716.9	1835.35
939.1903	2088.1317	2710.3	1830.95
939.3267	2089.677	2705.15	1821
939.463	2091.2215	2704.75	1823.05
939.5992	2092.7652	2701.55	1818
939.7355	2094.3083	2702.85	1821.6
939.8717	2095.8506	2688.4	1809.2
940.0079	2097.3921	2698.9	1818.75
940.1441	2098.933	2677.85	1797.2
940.2802	2100.4731	2682.3	1803.95
940.4163	2102.0124	2694.05	1797.6
940.5524	2103.5511	2682.6	1802.05
940.6885	2105.089	2686.8	1807.3
940.8245	2106.6261	2682.65	1801.4
940.9606	2108.1626	2668.15	1788.15
941.0965	2109.6983	2706.2	1798
941.2325	2111.2332	2668.15	1787.15
941.3684	2112.7675	2654.2	1772.95
941.5044	2114.301	2660.85	1780.25
941.6403	2115.8337	2665.2	1784.85
941.7761	2117.3657	2647.3	1766.85
941.912	2118.897	2658.2	1778.9
942.0478	2120.4276	2657.75	1772.5
942.1835	2121.9575	2655.8	1776.35
942.3193	2123.4866	2660.4	1765.1
942.455	2125.0149	2658.5	1776.6
942.5907	2126.5426	2624.5	1743.7
942.7264	2128.0695	2633.3	1751.55
942.8621	2129.5956	2634.4	1756.05
942.9977	2131.1211	2624.75	1740.35
943.1333	2132.6458	2624.05	1747.95
943.2689	2134.1698	2613.3	1735
943.4044	2135.693	2609.7	1726.25
943.54	2137.2155	2606.9	1724.6
943.6755	2138.7373	2619.95	1739.7
943.8109	2140.2584	2617.8	1739.1
943.9464	2141.7787	2595.5	1711.1
944.0818	2143.2983	2602	1726.35
944.2172	2144.8171	2573.2	1693.85
944.3526	2146.3353	2580.25	1699.7
944.4879	2147.8527	2574.05	1694.6
944.6232	2149.3693	2582.05	1702.6
944.7585	2150.8853	2576.3	1695.3
944.8938	2152.4005	2566.25	1685.05
945.029	2153.9149	2562.55	1680.95
945.1642	2155.4287	2554.55	1675.15
945.2994	2156.9417	2553.75	1672.9
945.4346	2158.454	2561.65	1681.25
945.5697	2159.9655	2558.8	1681.35
945.7048	2161.4764	2547.45	1666.8
945.8399	2162.9865	2534.75	1653.8
945.9749	2164.4958	2539.85	1658.2
946.1099	2166.0045	2533.75	1651.55
946.2449	2167.5124	2535.8	1657.25
946.3799	2169.0195	2528.3	1649.95
946.5148	2170.526	2530.55	1650.9
946.6498	2172.0317	2513.2	1636.25
946.7846	2173.5367	2521.25	1641.7
946.9195	2175.0409	2518.45	1639.05
947.0543	2176.5445	2513.4	1633.55
947.1891	2178.0473	2505.95	1624.2
947.3239	2179.5494	2500.1	1615.85
947.4587	2181.0507	2491.1	1611.75
947.5934	2182.5513	2495.4	1615.3
947.7281	2184.0512	2491.3	1610.05
947.8628	2185.5504	2485.05	1604.65
947.9974	2187.0488	2466.05	1587.85
948.132	2188.5465	2462.75	1581.85
948.2666	2190.0435	2461.9	1581.35
948.4012	2191.5397	2468.25	1589.95
948.5357	2193.0353	2457.5	1577.35
948.6702	2194.5301	2456.95	1575.9
948.8047	2196.0241	2448.35	1566.5
948.9392	2197.5175	2444.85	1563.95
949.0736	2199.0101	2444.4	1559.35
949.208	2200.502	2418.55	1537.75
949.3424	2201.9931	2421.55	1541.8
949.4767	2203.4835	2425.7	1544.9
949.611	2204.9733	2410	1526.1
949.7453	2206.4622	2413.2	1536.1
949.8796	2207.9505	2412.45	1529
950.0138	2209.438	2405.15	1527.55
950.148	2210.9248	2404.35	1520.95
950.2822	2212.4109	2398.45	1518.8
950.4164	2213.8962	2399.65	1515.35
950.5505	2215.3809	2396.85	1514.95
950.6846	2216.8648	2391.6	1509.55
950.8186	2218.3479	2378.35	1492.9
950.9527	2219.8304	2371.75	1488
951.0867	2221.3121	2374.9	1492.15
951.2207	2222.7931	2373.45	1491.05
951.3546	2224.2733	2360	1480
951.4886	2225.7529	2352.45	1472.25
951.6225	2227.2317	2353.75	1470.1
951.7563	2228.7098	2350.3	1472.7
951.8902	2230.1872	2344.7	1466.45
952.024	2231.6638	2334.45	1456.2
952.1578	2233.1397	2340.55	1453.6
952.2916	2234.6149	2319.05	1441.85
952.4253	2236.0894	2331.2	1450.45
952.559	2237.5632	2325.4	1436.35
952.6927	2239.0362	2312.25	1433.15
952.8263	2240.5085	2308.85	1430.3
952.9599	2241.9801	2305.45	1423.45
953.0935	2243.4509	2302.05	1422.05
953.2271	2244.921	2306.05	1426.6
953.3606	2246.3904	2298.8	1416.2
953.4941	2247.8591	2287.95	1408.1
953.6276	2249.3271	2280.25	1400.75
953.7611	2250.7943	2281.45	1399.5
953.8945	2252.2608	2280.65	1400.45
954.0279	2253.7266	2266.25	1387.05
954.1612	2255.1917	2268.65	1387.5
954.2946	2256.656	2271.25	1390.55
954.4279	2258.1197	2257.4	1377.5
954.5612	2259.5826	2255.75	1373.35
954.6944	2261.0447	2254.55	1374
954.8276	2262.5062	2249	1368.4
954.9608	2263.9669	2251.15	1368.4
955.094	2265.4269	2241.1	1360.7
955.2271	2266.8862	2228.25	1348.9
955.3602	2268.3448	2239.2	1358
955.4933	2269.8026	2235.95	1354.5
955.6264	2271.2598	2230.4	1351.65
955.7594	2272.7162	2214.15	1335.9
955.8924	2274.1719	2223.8	1344.35
956.0253	2275.6268	2210.3	1329.6
956.1583	2277.0811	2215	1335.55
956.2912	2278.5346	2213.3	1332.75
956.4241	2279.9874	2200.1	1321.6
956.5569	2281.4395	2187.6	1307.8
956.6897	2282.8908	2204.85	1319.45
956.8225	2284.3414	2184.5	1303.7
956.9553	2285.7914	2193.15	1312.2
957.088	2287.2406	2193.2	1311.7
957.2207	2288.689	2182.5	1301.6
957.3534	2290.1368	2184.2	1301.85
957.486	2291.5838	2181.2	1298.7
957.6186	2293.0302	2179.05	1296.95
957.7512	2294.4758	2163.8	1283.75
957.8838	2295.9206	2164	1281.25
958.0163	2297.3648	2160.05	1280.55
958.1488	2298.8082	2163.1	1283.1
958.2813	2300.251	2152.75	1272.8
958.4137	2301.693	2140.3	1257.15
958.5461	2303.1343	2149.7	1269.1
958.6785	2304.5748	2137.7	1258.35
958.8108	2306.0147	2132.95	1252.25
958.9432	2307.4538	2128.2	1245.3
959.0754	2308.8922	2137.85	1259.2
959.2077	2310.3299	2132.45	1252.8
959.3399	2311.7669	2118.8	1237.8
959.4721	2313.2031	2115.85	1234.25
959.6043	2314.6387	2122.6	1242.85
959.7365	2316.0735	2112.6	1234
959.8686	2317.5076	2106.75	1226.85
960.0006	2318.941	2097	1216.45
960.1327	2320.3737	2097.35	1215.8
960.2647	2321.8056	2096.3	1210.65
960.3967	2323.2369	2095.8	1214.4
960.5287	2324.6674	2088.9	1208.3
960.6606	2326.0972	2088.1	1205.45
960.7925	2327.5263	2084.1	1204.15
960.9244	2328.9547	2083.3	1203.05
961.0562	2330.3823	2080.75	1200.2
961.1881	2331.8092	2079.05	1196.35
961.3198	2333.2355	2071.5	1189.35
961.4516	2334.661	2063.5	1180.65
961.5833	2336.0858	2066	1183.2
961.715	2337.5098	2054	1173.65
961.8467	2338.9332	2057.55	1176.15
961.9783	2340.3558	2050.5	1166.85
962.1099	2341.7778	2045	1164.2
962.2415	2343.199	2037.5	1154.3
962.373	2344.6195	2034.6	1155.1
962.5045	2346.0393	2029.5	1150.65
962.636	2347.4583	2030.5	1146.7
962.7675	2348.8767	2030.05	1149.85
962.8989	2350.2943	2026.15	1142.5
963.0303	2351.7113	2023.75	1139.9
963.1617	2353.1275	2010	1128.35
963.293	2354.543	2028.45	1139.45
963.4243	2355.9578	2012.8	1133.2
963.5556	2357.3718	2012.75	1130.85
963.6868	2358.7852	2000.25	1115.65
963.818	2360.1978	1994.1	1112.6
963.9492	2361.6098	1985.55	1102.8
964.0803	2363.021	1983.45	1098.4
964.2114	2364.4315	1981.3	1101.15
964.3425	2365.8413	1977.4	1096
964.4736	2367.2504	1964.8	1084.55
964.6046	2368.6587	1964.45	1084.55
964.7356	2370.0664	1952.2	1072.45
964.8666	2371.4733	1963.4	1081.5
964.9975	2372.8795	1957.1	1077.9
965.1284	2374.285	1947.8	1066.2
965.2593	2375.6899	1949.3	1069.25
965.3901	2377.0939	1941.45	1060.55
965.5209	2378.4973	1936	1057.1
965.6517	2379.9	1925.1	1044.3
965.7825	2381.3019	1921.25	1041.35
965.9132	2382.7032	1932.65	1052.05
966.0439	2384.1037	1912.4	1033.75
966.1745	2385.5035	1921.35	1041.1
966.3051	2386.9027	1897.75	1018.65
966.4357	2388.3011	1911.65	1028.25
966.5663	2389.6987	1906.35	1022.65
966.6968	2391.0957	1910.15	1028.9
966.8273	2392.492	1894.55	1015.3
966.9578	2393.8876	1882.7	1000.5
967.0882	2395.2824	1891.8	1011.7
967.2186	2396.6765	1882	1000.7
967.349	2398.07	1871.25	990.55
967.4793	2399.4627	1876	993.1
967.6097	2400.8547	1871.25	988.7
967.7399	2402.246	1872.35	985.05
967.8702	2403.6366	1866.75	985.45
968.0004	2405.0265	1850.15	967.8
968.1306	2406.4156	1846.85	959.7
968.2607	2407.8041	1848.3	962.1
968.3909	2409.1918	1841.75	957.4
968.521	2410.5789	1843	961.6
968.651	2411.9652	1839.25	954.35
968.781	2413.3508	1839.6	957.4
968.911	2414.7358	1821.15	938.35
969.041	2416.12	1823.8	942.95
969.1709	2417.5035	1815.35	934.95
969.3008	2418.8863	1810.5	928.65
969.4307	2420.2684	1817.45	936.3
969.5606	2421.6497	1804.7	923.4
969.6904	2423.0304	1802.85	920.35
969.8201	2424.4104	1807.75	924.35
969.9499	2425.7896	1800.25	916.9
970.0796	2427.1682	1800.2	919.75
970.2093	2428.546	1795.7	911.95
970.3389	2429.9232	1791.4	907.85
970.4685	2431.2996	1789.6	908.7
970.5981	2432.6753	1786.8	905.9
970.7277	2434.0503	1780.9	900.3
970.8572	2435.4246	1778.75	896.85
970.9867	2436.7982	1778.65	893.65
971.1161	2438.1711	1768.15	887.05
971.2456	2439.5433	1769	886.7
971.375	2440.9148	1772.2	886.25
971.5043	2442.2856	1767.35	886.5
971.6336	2443.6557	1759.9	874.8
971.7629	2445.025	1750.8	872.1
971.8922	2446.3937	1756.95	875.5
972.0214	2447.7617	1751.15	870.25
972.1506	2449.1289	1748.45	867.7
972.2798	2450.4955	1750.75	864.15
972.4089	2451.8613	1743.6	864.6
972.538	2453.2265	1738.9	857.4
972.6671	2454.5909	1740.3	858.4
972.7961	2455.9546	1729.5	848.95
972.9251	2457.3177	1732.25	849.55
973.0541	2458.68	1739.8	856.4
973.1831	2460.0416	1729.45	847.7
973.312	2461.4025	1726	842.35
973.4408	2462.7627	1744.8	850
973.5697	2464.1222	1717.4	837.7
973.6985	2465.4811	1722.1	840.65
973.8273	2466.8392	1716.95	834.1
973.956	2468.1966	1715.7	832.8
974.0847	2469.5533	1717.8	835.85
974.2134	2470.9093	1707.2	824.45
974.3421	2472.2645	1708.45	825.95
974.4707	2473.6191	1710.45	827.8
974.5993	2474.973	1703.7	821.5
974.7278	2476.3262	1695.35	810.5
974.8563	2477.6787	1697	815.65
974.9848	2479.0305	1686.5	805.05
975.1132	2480.3816	1686.2	803.2
975.2417	2481.7319	1679.75	798.45
975.37	2483.0816	1677.5	794.9
975.4984	2484.4306	1677.65	794.75
975.6267	2485.7789	1671.55	792.25
975.755	2487.1264	1673.55	789.75
975.8833	2488.4733	1662.7	782.15
976.0115	2489.8195	1665	777.55
976.1397	2491.165	1665.65	781.5
976.2678	2492.5097	1660.75	779.55
976.3959	2493.8538	1653.05	770.95
976.524	2495.1972	1652.75	771
976.6521	2496.5398	1650.3	767.2
976.7801	2497.8818	1651.7	768.35
976.9081	2499.2231	1643.85	762.55
977.036	2500.5637	1642.5	760.75
977.164	2501.9035	1639.55	757.3
977.2918	2503.2427	1644.15	760.05
977.4197	2504.5812	1631.3	748.7
977.5475	2505.919	1633.35	750.45
977.6753	2507.256	1630	749.15
977.8031	2508.5924	1625.4	743.2
977.9308	2509.9281	1628.8	742.4
978.0585	2511.2631	1618.4	739.05
978.1861	2512.5974	1616.65	735.15
978.3137	2513.9309	1617.1	736.9
978.4413	2515.2638	1633.9	721.45
978.5689	2516.596	1617.1	738.4
978.6964	2517.9275	1599.45	715.1
978.8239	2519.2583	1597.1	713.15
978.9513	2520.5884	1594.7	712.6
979.0788	2521.9178	1590.1	707.55
979.2062	2523.2465	1594.95	715.1
979.3335	2524.5745	1588.25	706.95
979.4608	2525.9018	1593.9	712.15
979.5881	2527.2284	1588.5	708.45
979.7154	2528.5543	1585.9	703.95
979.8426	2529.8796	1581.2	703
979.9698	2531.2041	1580.55	699.2
980.0969	2532.5279	1572.8	693.05
980.224	2533.851	1570.8	689.1
980.3511	2535.1735	1568.15	685.8
980.4781	2536.4952	1574.4	692.65
980.6052	2537.8163	1569.65	688.35
980.7321	2539.1366	1558.25	677.1
980.8591	2540.4562	1565.8	685.2
980.986	2541.7752	1567.5	684.4
981.1129	2543.0935	1562.75	681.2
981.2397	2544.411	1561.85	679.15
981.3665	2545.7279	1556.45	675.05
981.4933	2547.0441	1557	674.65
981.62	2548.3596	1561.65	677.5
981.7467	2549.6744	1547.7	664.5
981.8734	2550.9885	1554.75	665.05
982.0001	2552.3019	1547.1	667.65
982.1267	2553.6146	1546.55	664
982.2532	2554.9266	1544.05	660.4
982.3798	2556.2379	1540.6	660.9
982.5063	2557.5485	1533.65	653.25
982.6327	2558.8585	1549.55	661.5
982.7592	2560.1677	1537.85	652.9
982.8856	2561.4762	1529.45	647.7
983.0119	2562.7841	1528.9	644.5
983.1383	2564.0913	1526.15	648.05
983.2646	2565.3977	1531.35	650.5
983.3908	2566.7035	1522.85	641.45
983.517	2568.0086	1526.3	643.95
983.6432	2569.313	1523.2	641.7
983.7694	2570.6167	1530.45	643.45
983.8955	2571.9197	1518.95	638.45
984.0216	2573.222	1522.15	636.9
984.1476	2574.5236	1516.95	635.25
984.2737	2575.8246	1517.5	633.25
984.3996	2577.1248	1517.95	633.15
984.5256	2578.4244	1517.3	636.05
984.6515	2579.7232	1504.5	623.6
984.7774	2581.0214	1528.4	624.85
984.9032	2582.3189	1513.7	631.35
985.029	2583.6157	1509.55	622.35
985.1548	2584.9118	1508.7	626.65
985.2806	2586.2072	1506.65	626.8
985.4063	2587.5019	1499.45	616.95
985.5319	2588.7959	1493.9	611
985.6576	2590.0893	1504.5	621.7
985.7832	2591.3819	1493.9	613.6
985.9087	2592.6739	1484.45	603.25
986.0343	2593.9652	1485.4	600.5
986.1597	2595.2557	1474.6	592.95
986.2852	2596.5456	1479.25	596.2
986.4106	2597.8348	1478.6	597.9
986.536	2599.1234	1476.3	597.75
986.6614	2600.4112	1472.35	591.05
986.7867	2601.6983	1475.3	589.6
986.912	2602.9848	1468.9	587.65
987.0372	2604.2705	1463	573.45
987.1624	2605.5556	1461.9	580.35
987.2876	2606.84	1453.25	569.8
987.4128	2608.1237	1466.15	581.2
987.5379	2609.4067	1463.1	581.9
987.6629	2610.689	1459.3	568.1
987.788	2611.9707	1458.65	573.95
987.913	2613.2516	1457.95	570.75
988.0379	2614.5319	1451.95	571
988.1629	2615.8115	1443.8	561.95
988.2878	2617.0903	1439	556.1
988.4126	2618.3685	1439.35	559.55
988.5375	2619.6461	1435.75	552.45
988.6622	2620.9229	1437.6	554.5
988.787	2622.199	1434.75	553.9
988.9117	2623.4745	1434.85	553.25
989.0364	2624.7493	1425.05	543.3
989.161	2626.0234	1428.75	551.6
989.2857	2627.2968	1428.65	545.3
989.4102	2628.5695	1424.25	542.65
989.5348	2629.8415	1416.4	534.15
989.6593	2631.1128	1417.3	533.4
989.7837	2632.3835	1406.55	525.8
989.9082	2633.6535	1408.3	526.5
990.0326	2634.9228	1406.55	526.6
990.1569	2636.1914	1404.3	522.25
990.2812	2637.4593	1405.4	520.65
990.4055	2638.7265	1405.3	523.25
990.5298	2639.9931	1399.7	515.1
990.654	2641.259	1399.9	519
990.7782	2642.5242	1403	520.9
990.9023	2643.7887	1392.7	510.6
991.0264	2645.0525	1390	508.4
991.1505	2646.3156	1390.95	508.1
991.2745	2647.5781	1389.55	509.5
991.3985	2648.8398	1388.3	506.05
991.5225	2650.1009	1390.2	501.1
991.6464	2651.3613	1379	499.5
991.7703	2652.6211	1378.7	497.75
991.8942	2653.8801	1374.85	494.65
992.018	2655.1385	1371	487.25
992.1418	2656.3961	1371.2	491
992.2655	2657.6531	1374.65	494.05
992.3892	2658.9094	1368.8	486.85
992.5129	2660.1651	1363.2	484.1
992.6366	2661.42	1363.25	482.4
992.7602	2662.6743	1366.35	486.05
992.8837	2663.9279	1363.7	483.35
993.0073	2665.1808	1358.2	475.4
993.1307	2666.433	1358.15	476
993.2542	2667.6846	1356.4	475.5
993.3776	2668.9354	1361.65	479.2
993.501	2670.1856	1359.5	478.65
993.6244	2671.4351	1355.8	474.9
993.7477	2672.6839	1360.45	478.95
993.8709	2673.9321	1345.35	464.2
993.9942	2675.1795	1348.85	466.95
994.1174	2676.4263	1352.15	471.55
994.2405	2677.6724	1344.8	466.7
994.3637	2678.9179	1345.35	463.4
994.4868	2680.1626	1346.15	466.35
994.6098	2681.4067	1341.9	459.55
994.7328	2682.6501	1339.6	459.4
994.8558	2683.8928	1337	455.55
994.9788	2685.1348	1334.5	454
995.1017	2686.3761	1334.5	454.85
995.2245	2687.6168	1331.5	451.25
995.3474	2688.8568	1329.4	448.85
995.4702	2690.0961	1328.45	450.5
995.5929	2691.3348	1324.45	442.5
995.7156	2692.5727	1326.1	446.25
995.8383	2693.81	1326.15	444.5
995.961	2695.0466	1320.45	441.5
996.0836	2696.2826	1321.8	439.05
996.2062	2697.5178	1326.35	442.15
996.3287	2698.7524	1313.5	432.9
996.4512	2699.9863	1314.4	429.6
996.5737	2701.2195	1307.75	430
996.6961	2702.452	1312.25	428
996.8185	2703.6839	1307.6	425.25
996.9408	2704.9151	1316.95	435.35
997.0631	2706.1456	1306.9	424.55
997.1854	2707.3755	1307.7	425.7
997.3077	2708.6046	1304.25	421.7
997.4299	2709.8331	1300.25	418.15
997.552	2711.0609	1298.85	420.25
997.6742	2712.2881	1302.7	420.4
997.7963	2713.5145	1302	418
997.9183	2714.7403	1302.7	423
998.0403	2715.9654	1294.6	413.25
998.1623	2717.1899	1308.65	412.6
998.2842	2718.4136	1299.15	421.05
998.4062	2719.6367	1294.05	411.55
998.528	2720.8591	1294.05	407.4
998.6498	2722.0809	1288.75	406.75
998.7716	2723.3019	1285.1	401.35
998.8934	2724.5223	1285.65	404.95
999.0151	2725.7421	1279.9	397.6
999.1368	2726.9611	1288.5	405.05
999.2584	2728.1795	1284.55	398.25
999.38	2729.3972	1278.7	398.1
999.5016	2730.6142	1282.5	387.6
999.6231	2731.8306	1278.05	397.8
999.7446	2733.0462	1268.65	386.05
999.8661	2734.2612	1270.95	384.25
999.9875	2735.4756	1260.25	379.1
1000.1089	2736.6892	1261.15	379.15
1000.2302	2737.9022	1263.15	382.4
1000.3515	2739.1145	1253.7	372.05
1000.4728	2740.3262	1263.6	374.05
1000.594	2741.5372	1249.55	369.5
1000.7152	2742.7475	1252.75	372.6
1000.8363	2743.9571	1255.55	374.5
1000.9575	2745.1661	1254.6	369.2
1001.0785	2746.3744	1248.3	366.85
1001.1996	2747.582	1247.65	367.5
1001.3206	2748.7889	1251	366.85
1001.4415	2749.9952	1248	368.45
1001.5625	2751.2008	1247	367.15
1001.6833	2752.4057	1242.85	359.25
1001.8042	2753.61	1239.45	359
1001.925	2754.8136	1240.95	358.25
1002.0458	2756.0165	1240.1	359.4
1002.1665	2757.2188	1234.55	353.6
1002.2872	2758.4204	1236.65	356.3
1002.4078	2759.6213	1234.9	352.65
1002.5285	2760.8215	1237.35	354.55
1002.649	2762.0211	1234.7	354.35
1002.7696	2763.22	1226.75	343.3
1002.8901	2764.4182	1230.55	348.75
1003.0106	2765.6158	1219.7	338.9
1003.131	2766.8127	1221.55	341.5
1003.2514	2768.009	1220.65	340.8
1003.3717	2769.2045	1220.6	340.6
1003.492	2770.3994	1220.15	337
1003.6123	2771.5936	1218.8	338.65
1003.7325	2772.7872	1217.4	339.3
1003.8527	2773.9801	1217.3	336.25
1003.9729	2775.1723	1230.2	332.3
1004.093	2776.3639	1205.15	324.9
1004.2131	2777.5548	1207.45	324.4
1004.3331	2778.745	1211.25	330.45
1004.4531	2779.9346	1202	321.05
1004.5731	2781.1235	1206.3	326.8
1004.693	2782.3117	1204.05	325.05
1004.8129	2783.4992	1203.1	322.45
1004.9328	2784.6861	1200.45	319.75
1005.0526	2785.8723	1200.75	319.6
1005.1723	2787.0579	1193.9	314.35
1005.2921	2788.2428	1200.1	319.25
1005.4118	2789.427	1192.1	311.1
1005.5314	2790.6106	1196.55	317.75
1005.651	2791.7935	1189.25	307.2
1005.7706	2792.9757	1189.75	310.85
1005.8902	2794.1573	1193.2	310.75
1006.0097	2795.3382	1189.45	308.15
1006.1291	2796.5184	1185.8	308.1
1006.2485	2797.698	1187.65	305.45
1006.3679	2798.8769	1188.35	308.15
1006.4873	2800.0551	1187.1	305.5
1006.6066	2801.2327	1185.4	300.55
1006.7258	2802.4096	1178.25	297.85
1006.8451	2803.5859	1180.25	298.85
1006.9642	2804.7615	1182.05	301.85
1007.0834	2805.9364	1178.95	299.3
1007.2025	2807.1106	1170.5	292.85
1007.3216	2808.2842	1179.95	299.75
1007.4406	2809.4572	1175.5	297.5
1007.5596	2810.6294	1176.65	295.2
1007.6785	2811.801	1173.95	296.2
1007.7975	2812.972	1176.05	294.7
1007.9163	2814.1423	1175.65	296.4
1008.0352	2815.3119	1170.8	290.8
1008.154	2816.4808	1174.6	296.2
1008.2727	2817.6491	1182.35	300.7
1008.3914	2818.8167	1180.45	300.05
1008.5101	2819.9837	1184.5	300.75
1008.6288	2821.15	1177.5	297.65
1008.7474	2822.3157	1182.35	304.2
1008.8659	2823.4807	1186.65	307.85
1008.9844	2824.645	1186.15	305.5
1009.1029	2825.8086	1191.4	312.8
1009.2214	2826.9716	1191.25	311.05
1009.3398	2828.134	1200.85	322
1009.4581	2829.2957	1205.55	326.2
1009.5764	2830.4567	1208.8	329.1
1009.6947	2831.617	1207.3	326.15
1009.813	2832.7767	1203.75	325.8
1009.9312	2833.9358	1207.7	329.3
1010.0493	2835.0941	1204.7	326.35
1010.1675	2836.2519	1201.05	321.15
1010.2855	2837.4089	1205.05	324.05
1010.4036	2838.5653	1195.3	315.65
1010.5216	2839.7211	1183.95	305.15
1010.6396	2840.8761	1194.7	312.55
1010.7575	2842.0306	1185.6	308.05
1010.8754	2843.1843	1180.35	302.4
1010.9932	2844.3374	1188.85	310.2
1011.111	2845.4899	1187.3	305.3
1011.2288	2846.6417	1189.65	309.25
1011.3465	2847.7928	1188.6	308.15
1011.4642	2848.9433	1189.4	310.05
1011.5818	2850.0931	1186.55	306.85
1011.6995	2851.2422	1190.4	307.75
1011.817	2852.3907	1189.8	311.2
1011.9345	2853.5385	1191.25	309.95
1012.052	2854.6857	1206.55	316.35
1012.1695	2855.8323	1187.75	309.1
1012.2869	2856.9781	1193.05	312.45
1012.4042	2858.1233	1187.8	308.65
1012.5216	2859.2679	1189.55	308.25
1012.6389	2860.4118	1190.75	310.65
1012.7561	2861.555	1200.55	316.2
1012.8733	2862.6976	1198.75	317.9
1012.9905	2863.8395	1197.2	319.65
1013.1076	2864.9808	1194.8	315.75
1013.2247	2866.1214	1191.9	312.6
1013.3417	2867.2614	1198.45	318.2
1013.4587	2868.4007	1195.75	315.95
1013.5757	2869.5393	1198.55	316.55
1013.6926	2870.6773	1192.9	308.7
1013.8095	2871.8146	1202.95	318.3
1013.9263	2872.9513	1200.1	317.45
1014.0431	2874.0874	1197.4	318.15
1014.1599	2875.2227	1192.65	312.1
1014.2766	2876.3574	1195.3	314.95
1014.3933	2877.4915	1197.25	317.25
1014.51	2878.6249	1194.15	316
1014.6266	2879.7577	1198.5	317.6
1014.7431	2880.8898	1203.95	313.4
1014.8596	2882.0212	1194.75	317.8
1014.9761	2883.152	1199.3	319.15
1015.0925	2884.2821	1194.3	316.25
1015.2089	2885.4116	1191.1	313.6
1015.3253	2886.5405	1193.35	314.95
1015.4416	2887.6686	1197	314.75
1015.5579	2888.7962	1192.9	314.8
1015.6741	2889.923	1186.7	308.9
1015.7903	2891.0493	1193.15	313.75
1015.9065	2892.1748	1184.1	304.25
1016.0226	2893.2997	1184.75	305.6
1016.1387	2894.424	1187.45	310
1016.2547	2895.5476	1182.85	302.5
1016.3707	2896.6706	1181.65	303.15
1016.4866	2897.7929	1185.55	304.2
1016.6025	2898.9145	1182.75	303.8
1016.7184	2900.0355	1183.7	303.1
1016.8342	2901.1559	1185.8	304.55
1016.95	2902.2756	1184	305.85
1017.0658	2903.3946	1176	298.35
1017.1815	2904.513	1176.75	293.9
1017.2971	2905.6308	1177.85	299.15
1017.4127	2906.7479	1177.1	296.4
1017.5283	2907.8643	1174.9	295
1017.6439	2908.9801	1173.1	293.95
1017.7594	2910.0953	1168.15	287.2
1017.8748	2911.2098	1180.7	297.75
1017.9902	2912.3236	1176.85	292.2
1018.1056	2913.4368	1173.5	292.25
1018.2209	2914.5494	1168.8	287.55
1018.3362	2915.6613	1167.15	283
1018.4515	2916.7725	1171.15	290.25
1018.5667	2917.8831	1168.55	288.05
1018.6819	2918.9931	1162.35	280.9
1018.797	2920.1024	1159.75	276.7
1018.9121	2921.211	1155.65	275.5
1019.0271	2922.319	1158.35	278.3
1019.1421	2923.4264	1155.95	277.95
1019.2571	2924.5331	1155.05	276.35
1019.372	2925.6391	1152.5	275.3
1019.4869	2926.7445	1149	270.7
1019.6017	2927.8493	1151.35	271
1019.7165	2928.9534	1150.4	269.2
1019.8313	2930.0569	1156.9	274.35
1019.946	2931.1597	1155.65	275.8
1020.0606	2932.2619	1146.75	266.65
1020.1753	2933.3634	1147.85	268.2
1020.2899	2934.4643	1162.25	276.2
1020.4044	2935.5645	1158.95	273.55
1020.5189	2936.6641	1154.65	270.85
1020.6334	2937.763	1143.75	265.65
1020.7478	2938.8613	1149.05	269.3
1020.8622	2939.959	1152.25	266.55
1020.9765	2941.056	1141.95	263.25
1021.0908	2942.1523	1138.95	259.7
1021.2051	2943.248	1134.7	256.25
1021.3193	2944.3431	1130.7	252
1021.4334	2945.4375	1126.05	245.7
1021.5476	2946.5313	1116.25	236.25
1021.6617	2947.6244	1113.6	233.4
1021.7757	2948.7169	1107.6	226.9
1021.8897	2949.8087	1102.25	221.85
1022.0037	2950.8999	1102.15	222.8
1022.1176	2951.9904	1093.2	212.45
1022.2315	2953.0803	1092.65	212.65
1022.3453	2954.1696	1091.6	212.4
1022.4591	2955.2582	1088.35	209.8
1022.5728	2956.3462	1084.35	206.65
1022.6865	2957.4335	1084.95	203.95
1022.8002	2958.5202	1086.45	206.35
1022.9138	2959.6062	1073.65	193.4
1023.0274	2960.6916	1080.5	203
1023.141	2961.7764	1084.5	204.3
1023.2545	2962.8605	1080.9	200.25
1023.3679	2963.9439	1081.3	202.5
1023.4813	2965.0267	1074.75	194.95
1023.5947	2966.1089	1095.2	195.35
1023.708	2967.1905	1072.95	195.7
1023.8213	2968.2714	1069.2	187.8
1023.9346	2969.3516	1070.5	190.05
1024.0478	2970.4312	1078.8	192.45
1024.1609	2971.5102	1072.85	193.6
1024.274	2972.5885	1071.6	192.65
1024.3871	2973.6662	1075.95	192.7
1024.5002	2974.7432	1072.8	194.8
1024.6132	2975.8196	1072.65	193.35
1024.7261	2976.8954	1068.15	188.7
1024.839	2977.9705	1067.3	186.35
1024.9519	2979.045	1065.65	187
1025.0647	2980.1188	1066.7	187.65
1025.1775	2981.192	1064	185.8
1025.2902	2982.2645	1064.35	185.05
1025.4029	2983.3364	1061.15	182.8
1025.5156	2984.4077	1057.85	179.85
1025.6282	2985.4783	1064.4	180.05
1025.7407	2986.5483	1054.35	176.8
1025.8532	2987.6177	1052.1	172.1
1025.9657	2988.6864	1048.55	167.95
1026.0782	2989.7545	1049.15	168
1026.1906	2990.8219	1046.8	166.75
1026.3029	2991.8887	1046.95	166.55
1026.4152	2992.9548	1043.85	163.6
1026.5275	2994.0204	1035.6	156.55
1026.6397	2995.0852	1036.95	159.45
1026.7519	2996.1495	1040.4	160.95
1026.864	2997.2131	1031.9	153.4
1026.9761	2998.276	1030.35	151.5
1027.0882	2999.3383	1031.9	151.35
1027.2002	3000.4	1029.65	149.9
1027.3122	3001.4611	1028.05	148.15
1027.4241	3002.5215	1027.45	147.5
1027.536	3003.5812	1021.25	143.75
1027.6478	3004.6404	1026.75	148.35
1027.7596	3005.6989	1025.6	144.55
1027.8714	3006.7567	1023.05	143.5
1027.9831	3007.8139	1042.25	141.35
1028.0947	3008.8705	1024.2	145.85
1028.2064	3009.9264	1020.6	138.1
1028.3179	3010.9818	1021.25	142.2
1028.4295	3012.0364	1015.8	135.9
1028.541	3013.0905	1015.25	134.95
1028.6524	3014.1439	1015.25	135.1
1028.7638	3015.1966	1014.05	136.1
1028.8752	3016.2487	1013.65	134.7
1028.9865	3017.3002	1018.4	132.7
1029.0978	3018.3511	1015.05	137.25
1029.209	3019.4013	1014.6	135.9
1029.3202	3020.4509	1010.8	131.4
1029.4314	3021.4998	1011.75	133.25
1029.5425	3022.5481	1010.9	131.65
1029.6535	3023.5958	1009.5	129.8
1029.7645	3024.6428	1013.15	132.15
1029.8755	3025.6892	1006.6	127.4
1029.9864	3026.735	1009.35	129.1
1030.0973	3027.7802	1006.3	126.45
1030.2082	3028.8247	1006.25	126.6
1030.319	3029.8685	1008	129.25
1030.4297	3030.9118	1002.3	122.6
1030.5404	3031.9544	999.1	120.2
1030.6511	3032.9963	1006.25	128.95
1030.7617	3034.0376	1000.8	119.1
1030.8723	3035.0783	1007.95	126.85
1030.9829	3036.1184	1006.85	126.65
1031.0934	3037.1578	1001.3	124.4
1031.2038	3038.1966	1005.75	124.45
1031.3142	3039.2348	997.8	120.35
1031.4246	3040.2723	1008.2	122.55
1031.5349	3041.3092	997.85	121.55
1031.6452	3042.3455	1000.1	122.75
1031.7554	3043.3811	999.3	120.15
1031.8656	3044.4161	998.85	118.15
1031.9758	3045.4505	999.85	122.2
1032.0859	3046.4842	1000.3	122.2
1032.1959	3047.5173	997.8	119.55
1032.3059	3048.5498	999.65	119.15
1032.4159	3049.5816	1000.7	121.45
1032.5258	3050.6128	997.5	120.3
1032.6357	3051.6434	998.25	118
1032.7455	3052.6734	1001.5	121.15
1032.8553	3053.7027	995.95	116.15
1032.9651	3054.7314	993.8	114.25
1033.0748	3055.7594	994.05	117.05
1033.1845	3056.7868	993.2	113.75
1033.2941	3057.8136	996	116.4
1033.4037	3058.8398	991.35	112.8
1033.5132	3059.8653	991.3	111.85
1033.6227	3060.8902	995.35	117.3
1033.7321	3061.9145	997.6	118.4
1033.8415	3062.9381	992.75	113.65
1033.9509	3063.9612	1007.85	111.6
1034.0602	3064.9835	991.4	113.45
1034.1694	3066.0053	994.4	112.7
1034.2787	3067.0264	993.25	115.4
1034.3878	3068.0469	993.7	111.7
1034.497	3069.0668	992.75	111.1
1034.6061	3070.086	989.25	112.3
1034.7151	3071.1046	990.5	110.2
1034.8241	3072.1226	991.85	110.75
1034.9331	3073.1399	988.8	109.8
1035.042	3074.1567	988.9	110.5
1035.1508	3075.1727	990.1	109.05
1035.2597	3076.1882	983.05	104.1
1035.3684	3077.203	987.4	109.45
1035.4772	3078.2173	985.1	106.1
1035.5859	3079.2308	989.65	106.35
1035.6945	3080.2438	988.35	107.9
1035.8031	3081.2561	981.1	100.5
1035.9117	3082.2678	980.05	101.2
1036.0202	3083.2789	978.95	98.85
1036.1286	3084.2893	980	101
1036.2371	3085.2991	979.2	99.85
1036.3454	3086.3083	984.45	100.85
1036.4538	3087.3169	981.75	103.45
1036.562	3088.3248	979.2	98.75
1036.6703	3089.3321	979	99.35
1036.7785	3090.3388	974.7	98.15
1036.8866	3091.3449	976.3	96.2
1036.9948	3092.3503	980	100.95
1037.1028	3093.3551	974.9	97.2
1037.2108	3094.3593	976.3	98.05
1037.3188	3095.3629	977.75	98.9
1037.4267	3096.3658	973.65	93.55
1037.5346	3097.3681	971.15	94.55
1037.6425	3098.3698	974.85	94.75
1037.7503	3099.3708	982.25	96.65
1037.858	3100.3713	974.2	96.3
1037.9657	3101.3711	972.4	92.8
1038.0734	3102.3702	1108.15	95.3
1038.181	3103.3688	974.05	92.65
1038.2886	3104.3667	971.85	93.9
1038.3961	3105.364	969.55	90
1038.5036	3106.3607	968.95	88.1
1038.611	3107.3568	970.15	92.45
1038.7184	3108.3522	970.35	92.9
1038.8257	3109.347	968.95	91.5
1038.933	3110.3412	971.55	88.9
1039.0403	3111.3348	968.9	93.2
1039.1475	3112.3277	967.6	89.15
1039.2547	3113.32	966.1	88.2
1039.3618	3114.3117	964.45	84.85
1039.4689	3115.3028	967.05	87.35
1039.5759	3116.2932	963.25	83.8
1039.6829	3117.2831	968.05	83
1039.7898	3118.2723	959.2	82.2
1039.8967	3119.2608	962.85	82.65
1040.0035	3120.2488	962.3	85.8
1040.1103	3121.2361	960.15	80.9
1040.2171	3122.2229	958.15	78.9
1040.3238	3123.209	962.45	82.95
1040.4305	3124.1944	956.2	77
1040.5371	3125.1793	961.7	81.25
1040.6437	3126.1635	958.5	79
1040.7502	3127.1471	957.65	81.9
1040.8567	3128.1301	958.75	80.85
1040.9631	3129.1125	958.3	79.5
1041.0695	3130.0942	958.4	79.7
1041.1759	3131.0753	965.35	79.9
1041.2822	3132.0558	958.55	78.85
1041.3884	3133.0357	954.5	74.05
1041.4946	3134.015	956.65	76.1
1041.6008	3134.9936	955.75	73.95
1041.7069	3135.9716	974.9	74.75
1041.813	3136.949	952	73.9
1041.919	3137.9258	963.7	82
1042.025	3138.902	960	76.25
1042.1309	3139.8775	953.2	75.4
1042.2368	3140.8524	952.4	74.75
1042.3427	3141.8267	952.05	69.6
1042.4485	3142.8004	955.15	78.2
1042.5542	3143.7735	959.05	73.55
1042.6599	3144.7459	955.5	74.4
1042.7656	3145.7178	952.3	71.25
1042.8712	3146.689	949.75	71.1
1042.9768	3147.6596	949.9	68.55
1043.0823	3148.6295	949.6	70.75
1043.1878	3149.5989	951.55	71.4
1043.2932	3150.5676	951.3	73.15
1043.3986	3151.5357	949.15	71.3
1043.5039	3152.5032	949.05	71.5
1043.6092	3153.4701	945.9	66.95
1043.7145	3154.4364	952.75	73.05
1043.8197	3155.402	947.35	69.85
1043.9248	3156.367	947.25	67.2
1044.03	3157.3315	983.35	66.85
1044.135	3158.2952	946.3	68.4
1044.24	3159.2584	946.1	64.05
1044.345	3160.221	945.75	67.9
1044.4499	3161.1829	945.15	67.15
1044.5548	3162.1442	947.25	68.15
1044.6596	3163.105	944.35	66
1044.7644	3164.065	943.8	65.25
1044.8692	3165.0245	945.85	64.15
1044.9739	3165.9834	939.95	64.15
1045.0785	3166.9416	940.45	64.25
1045.1831	3167.8993	941.25	61.5
1045.2877	3168.8563	943.6	63.3
1045.3922	3169.8127	942.65	64.5
1045.4966	3170.7684	941.55	64.3
1045.6011	3171.7236	941.45	61
1045.7054	3172.6782	940.55	61
1045.8098	3173.6321	938.9	60.65
1045.914	3174.5854	947.75	63.9
1046.0183	3175.5381	939.7	62
1046.1224	3176.4902	939.25	61.1
1046.2266	3177.4417	940.95	62.85
1046.3307	3178.3926	937.45	58.8
1046.4347	3179.3428	936.95	57
1046.5387	3180.2924	935.45	57.45
1046.6427	3181.2415	937.8	58.35
1046.7466	3182.1899	941.15	62.1
1046.8504	3183.1377	938.25	60.05
1046.9542	3184.0848	941.7	58.05
1047.058	3185.0314	936.05	55.9
1047.1617	3185.9773	935.55	56.65
1047.2654	3186.9227	936.95	58.4
1047.369	3187.8674	934.85	56.85
1047.4726	3188.8115	938.65	56.95
1047.5761	3189.755	934.7	57.15
1047.6796	3190.6979	935.3	57.1
1047.783	3191.6402	933.8	55.3
1047.8864	3192.5818	936.95	58.55
1047.9898	3193.5229	949.8	55.35
1048.0931	3194.4633	934.3	56.25
1048.1963	3195.4031	928.5	48.25
1048.2995	3196.3423	932.95	55.25
1048.4027	3197.2809	932.5	55.05
1048.5058	3198.2189	932.45	54.1
1048.6089	3199.1563	948.65	53.4
1048.7119	3200.0931	932.65	55.25
1048.8148	3201.0292	935.5	57.5
1048.9178	3201.9648	931.1	53.2
1049.0206	3202.8997	929.8	48.15
1049.1235	3203.834	931.1	52.4
1049.2262	3204.7677	930.65	52.45
1049.329	3205.7008	930.95	50
1049.4317	3206.6333	929.25	52.95
1049.5343	3207.5652	933.5	52.85
1049.6369	3208.4964	927.85	50.05
1049.7394	3209.4271	929.8	50.8
1049.8419	3210.3571	931.1	52.7
1049.9444	3211.2865	927.85	49.1
1050.0468	3212.2154	929.5	49.25
1050.1491	3213.1436	933.55	53.7
1050.2514	3214.0712	934.2	46.85
1050.3537	3214.9982	927.05	46.65
1050.4559	3215.9246	927.65	47.85
1050.5581	3216.8503	925.85	49.2
1050.6602	3217.7755	926.95	47.3
1050.7623	3218.7001	926.55	51.8
1050.8643	3219.624	927.8	47.7
1050.9663	3220.5473	926	46.9
1051.0682	3221.4701	928.5	49
1051.1701	3222.3922	925.35	45.35
1051.2719	3223.3137	924.05	45.15
1051.3737	3224.2346	924.2	47
1051.4754	3225.1549	925	46.2
1051.5771	3226.0746	924.65	47.85
1051.6788	3226.9937	926.1	47.45
1051.7804	3227.9121	924.9	47.55
1051.8819	3228.83	925.4	46.1
1051.9834	3229.7473	926.55	47.2
1052.0849	3230.6639	924.7	46.7
1052.1863	3231.5799	924.3	46.3
1052.2876	3232.4954	923.5	44.7
1052.3889	3233.4102	922.75	46
1052.4902	3234.3244	925	46.4
1052.5914	3235.238	922.1	45.7
1052.6926	3236.151	947.25	45.1
1052.7937	3237.0634	921.3	44.55
1052.8948	3237.9752	922.9	43.3
1052.9958	3238.8864	921.45	43.6
1053.0968	3239.797	920.15	41.45
1053.1977	3240.7069	922.95	44.2
1053.2986	3241.6163	919.95	39.65
1053.3994	3242.5251	918.9	41.9
1053.5002	3243.4332	918.8	39.15
1053.6009	3244.3408	917.15	39.3
1053.7016	3245.2477	919.9	40.4
1053.8022	3246.154	920.7	42.3
1053.9028	3247.0598	920.9	40.4
1054.0034	3247.9649	920.35	43.75
1054.1039	3248.8694	919.25	40.9
1054.2043	3249.7733	918.6	39.25
1054.3047	3250.6766	918.55	42
1054.4051	3251.5793	917.45	35.75
1054.5054	3252.4814	917.45	38.3
1054.6056	3253.3829	918.4	41.5
1054.7058	3254.2838	916.3	39.15
1054.806	3255.1841	915.25	37.1
1054.9061	3256.0838	915.6	38.1
1055.0061	3256.9829	915	38.5
1055.1062	3257.8814	917.4	35.95
1055.2061	3258.7792	916.75	35.45
1055.306	3259.6765	913.95	35.55
1055.4059	3260.5731	914.15	37.85
1055.5057	3261.4692	915.55	38.25
1055.6055	3262.3647	914.05	36.5
1055.7052	3263.2595	915.5	35.6
1055.8049	3264.1538	911.9	34.9
1055.9045	3265.0474	909.65	30.55
1056.0041	3265.9404	912.05	35.4
1056.1036	3266.8329	908.6	30.8
1056.2031	3267.7247	917.95	28.8
1056.3025	3268.616	908.35	32.2
1056.4019	3269.5066	906.6	28.15
1056.5013	3270.3966	909.85	31.15
1056.6005	3271.286	904.7	26.05
