Software Version:	3.9.2.0
Unit SN:	10000200
Spectrometer SN:	6960
Date:	3/6/2024 9:24:42 AM
Data Line Index:	25
Spectral Points:	2048
Integration time (ms):	125
Averages:	20
Delay (ms):	30
Sequence Number:	1
Processing:	dark subtract
Laser Power (mW):	305
Laser Current (mA):	811
Laser Diode Temp (C):	25.1
Laser Case Temp (C):	22.4
System Temp (C):	22.4
Spectrometer Temp (C):	20.6
CCD Temp (C):	-0.016
Secondary Temp (C):	20.011
Heatsink Temp (C):	17.284
CCDPCB Temp (C):	29.171
SecondaryPCB Temp (C):	25.013

Wavelength	RamanShift	Raw Counts	Dark Subtracted
787.061	30.1047	754.8	345.25
787.2016	32.3739	772.65	364.1
787.3422	34.6426	790.8	381.75
787.4828	36.9109	809.5	397.95
787.6235	39.1787	840.75	427.1
787.7642	41.4461	871.6	452.85
787.9049	43.7131	902.8	483.05
788.0456	45.9796	927.9	505.05
788.1863	48.2456	966.1	538.85
788.3271	50.5112	1000.35	567.9
788.4679	52.7764	1036.05	598.9
788.6087	55.0411	1072.1	633.45
788.7496	57.3054	1105.5	661.2
788.8904	59.5692	1140.3	694.5
789.0313	61.8326	1192.35	744.45
789.1722	64.0955	1251.6	802.45
789.3132	66.3579	1321.5	865.75
789.4541	68.6199	1404.05	944.45
789.5951	70.8815	1546.1	1081.65
789.7361	73.1426	1856.8	1388.8
789.8771	75.4032	2659.55	2188.45
790.0181	77.6634	4664.65	4190.3
790.1592	79.9231	9650.55	9175.6
790.3003	82.1824	21013.8	20535.45
790.4414	84.4412	51267.55	50785.7
790.5825	86.6995	65535	65048.75
790.7237	88.9574	65535	65045.5
790.8648	91.2148	65535	65040.35
791.006	93.4717	65535	65041.2
791.1472	95.7282	65535	65037.25
791.2885	97.9842	65535	65036.8
791.4297	100.2398	65535	65032.25
791.571	102.4949	65535	65030.45
791.7123	104.7495	65535	65028.2
791.8536	107.0036	65535	65024.9
791.9949	109.2573	65535	65028.4
792.1363	111.5105	65535	65024.75
792.2777	113.7632	65535	65023.4
792.4191	116.0154	65535	65008.9
792.5605	118.2672	65535	65018.45
792.7019	120.5185	65535	65016.5
792.8434	122.7693	65535	65013.85
792.9849	125.0197	65535	65006.25
793.1264	127.2696	65535	65004.75
793.2679	129.519	65535	65001.95
793.4094	131.7679	65535	65001
793.551	134.0163	65535	64998.05
793.6926	136.2642	65535	64995.25
793.8342	138.5117	65535	64991.35
793.9758	140.7587	65535	64991.7
794.1175	143.0052	65535	64987.75
794.2591	145.2512	65535	64986.75
794.4008	147.4967	65535	64981.75
794.5425	149.7417	65535	64979.8
794.6842	151.9863	65535	64977.2
794.826	154.2304	65535	64974.85
794.9677	156.4739	65535	64965.65
795.1095	158.717	65535	64968.55
795.2513	160.9596	65535	64963.1
795.3931	163.2017	65535	64961.05
795.535	165.4433	65535	64959.65
795.6768	167.6844	65535	64956.25
795.8187	169.925	65535	64953.55
795.9606	172.1651	65535	64948.7
796.1025	174.4047	65535	64945.35
796.2445	176.6439	65535	64944.6
796.3864	178.8825	65535	64939.95
796.5284	181.1206	65535	64939.05
796.6704	183.3582	65535	64934.9
796.8124	185.5954	65535	64933.45
796.9544	187.832	65535	64929.65
797.0965	190.0681	65535	64926.45
797.2386	192.3037	65535	64921.45
797.3806	194.5388	65535	64919.65
797.5228	196.7734	65535	64919.7
797.6649	199.0075	65535	64920.3
797.807	201.2411	65535	64917.2
797.9492	203.4742	65535	64914.15
798.0914	205.7068	65535	64908.5
798.2336	207.9389	65535	64911.15
798.3758	210.1704	65535	64920.7
798.518	212.4015	65535	64928.6
798.6603	214.632	65535	64932.2
798.8025	216.862	65535	64932.5
798.9448	219.0915	65535	64931.05
799.0871	221.3205	65535	64929.5
799.2294	223.549	65535	64932.55
799.3718	225.777	65535	64927.65
799.5141	228.0044	65535	64921.1
799.6565	230.2314	65535	64917.85
799.7989	232.4578	65535	64916.95
799.9413	234.6837	65535	64906.15
800.0837	236.909	65535	64905.75
800.2262	239.1339	65535	64880.25
800.3687	241.3582	65535	64896.75
800.5111	243.582	65535	64866.9
800.6536	245.8053	65535	64876.6
800.7961	248.0281	65535	64883.1
800.9387	250.2503	65535	64878.6
801.0812	252.472	65535	64878.85
801.2238	254.6932	65535	64881
801.3664	256.9139	65535	64877.25
801.509	259.134	65535	64873.7
801.6516	261.3536	65535	64877.65
801.7942	263.5727	65535	64873.55
801.9369	265.7912	65535	64875.85
802.0795	268.0092	65535	64874.4
802.2222	270.2267	65535	64870.95
802.3649	272.4436	65535	64867.85
802.5076	274.6601	65535	64860.05
802.6504	276.8759	65535	64863.1
802.7931	279.0913	65535	64862.9
802.9359	281.3061	65535	64861.35
803.0787	283.5204	65535	64860.15
803.2215	285.7341	65535	64858.4
803.3643	287.9473	65535	64847
803.5071	290.16	65535	64854.55
803.6499	292.3721	65535	64860.85
803.7928	294.5837	65535	64856.8
803.9357	296.7947	65535	64860.3
804.0786	299.0052	65535	64856.95
804.2215	301.2152	65535	64850.45
804.3644	303.4246	65535	64855.85
804.5074	305.6334	65535	64853.85
804.6503	307.8418	65535	64849.65
804.7933	310.0495	65535	64848.6
804.9363	312.2568	65535	64846.6
805.0793	314.4635	65535	64846.6
805.2223	316.6696	65535	64844.2
805.3653	318.8752	65535	64837
805.5084	321.0802	65535	64842.9
805.6514	323.2847	65535	64838.7
805.7945	325.4887	65535	64839.5
805.9376	327.692	65535	64836.75
806.0807	329.8949	65535	64838
806.2238	332.0972	65535	64834
806.367	334.2989	65535	64832.35
806.5101	336.5001	65535	64829.95
806.6533	338.7007	65535	64833.05
806.7965	340.9008	65535	64828.65
806.9397	343.1003	65535	64827.65
807.0829	345.2992	65535	64827.05
807.2261	347.4976	65535	64826.6
807.3693	349.6955	65535	64821.2
807.5126	351.8927	65535	64822.75
807.6559	354.0895	65535	64809.9
807.7991	356.2856	65535	64817.75
807.9424	358.4812	65535	64816.1
808.0857	360.6763	65535	64815.45
808.2291	362.8707	65535	64811.5
808.3724	365.0646	65535	64809.45
808.5158	367.258	65535	64806.9
808.6591	369.4508	65535	64804.95
808.8025	371.643	65535	64806.35
808.9459	373.8346	65535	64802.2
809.0893	376.0257	65535	64799.8
809.2327	378.2162	65535	64802.85
809.3762	380.4062	65535	64801.95
809.5196	382.5956	65535	64806.15
809.6631	384.7844	65535	64807.9
809.8066	386.9726	65535	64808.25
809.9501	389.1603	65535	64811.35
810.0936	391.3474	65535	64758.55
810.2371	393.5339	65535	64807.55
810.3806	395.7199	65535	64810.75
810.5241	397.9052	65535	64807.65
810.6677	400.09	65535	64804.55
810.8113	402.2743	65535	64802.55
810.9548	404.4579	65535	64800.85
811.0984	406.641	65535	64798.5
811.2421	408.8235	65535	64797.35
811.3857	411.0054	65535	64795.7
811.5293	413.1868	65535	64791.05
811.673	415.3675	65535	64788.1
811.8166	417.5477	65535	64788.25
811.9603	419.7273	65535	64783.4
812.104	421.9064	65535	64778.35
812.2477	424.0848	65535	64784.3
812.3914	426.2627	65535	64785.15
812.5351	428.4399	65535	64782.5
812.6788	430.6166	65535	64779.45
812.8226	432.7928	65535	64776.85
812.9663	434.9683	65535	64776.15
813.1101	437.1432	65535	64774.65
813.2539	439.3176	65535	64778.05
813.3977	441.4914	65535	64776.35
813.5415	443.6645	65535	64773.25
813.6853	445.8371	65535	64774.15
813.8291	448.0091	65535	64774.05
813.973	450.1806	65535	64773.75
814.1168	452.3514	65535	64770.55
814.2607	454.5216	65535	64763.45
814.4046	456.6913	65535	64771
814.5485	458.8603	65535	64768.65
814.6924	461.0288	65535	64770.2
814.8363	463.1967	65535	64767.4
814.9802	465.3639	65535	64767.2
815.1241	467.5306	65535	64766.05
815.2681	469.6967	65535	64767.1
815.412	471.8622	65535	64767
815.556	474.0271	65535	64766.5
815.7	476.1914	65535	64764.65
815.844	478.3551	65535	64765.5
815.988	480.5182	65535	64762.1
816.132	482.6807	65535	64762.45
816.276	484.8426	65535	64762.1
816.4201	487.0039	65535	64761.9
816.5641	489.1647	65535	64760.55
816.7082	491.3248	65535	64759.7
816.8522	493.4843	65535	64762.4
816.9963	495.6432	65535	64757.65
817.1404	497.8015	65535	64756.5
817.2845	499.9592	65535	64758.8
817.4286	502.1163	65535	64754.1
817.5727	504.2728	65535	64755.25
817.7168	506.4287	65535	64755.05
817.861	508.5839	65535	64752.55
818.0051	510.7386	65535	64754.65
818.1493	512.8927	65535	64743.4
818.2935	515.0461	65535	64751.8
818.4377	517.199	65535	64752.05
818.5818	519.3512	65535	64753.45
818.726	521.5029	65535	64745.9
818.8703	523.6539	65535	64748.25
819.0145	525.8043	65535	64747.65
819.1587	527.9541	65535	64744.75
819.303	530.1033	65535	64744.95
819.4472	532.2519	65535	64748.65
819.5915	534.3999	65535	64744.35
819.7357	536.5472	65535	64742.85
819.88	538.694	65535	64746.35
820.0243	540.8401	65535	64743.5
820.1686	542.9856	65535	64743.05
820.3129	545.1305	65535	64741.95
820.4572	547.2748	65535	64743.75
820.6016	549.4185	65535	64740.2
820.7459	551.5615	65535	64738.5
820.8902	553.704	65535	64740.35
821.0346	555.8458	65535	64742.1
821.1789	557.987	65535	64741.3
821.3233	560.1276	65535	64739.15
821.4677	562.2675	65535	64740.55
821.6121	564.4069	65535	64740.45
821.7565	566.5456	65535	64742.85
821.9009	568.6837	65535	64738.2
822.0453	570.8212	65535	64739.5
822.1897	572.958	65535	64737.3
822.3342	575.0942	65535	64737.25
822.4786	577.2299	65535	64736.2
822.6231	579.3648	65535	64736.35
822.7675	581.4992	65535	64735
822.912	583.6329	65535	64734.55
823.0565	585.766	65535	64732.15
823.201	587.8985	65535	64735.5
823.3454	590.0304	65535	64709.15
823.4899	592.1616	65535	64730.4
823.6345	594.2922	65535	64730.9
823.779	596.4222	65535	64729.85
823.9235	598.5515	65535	64729.3
824.068	600.6802	65535	64729.7
824.2126	602.8083	65535	64730.45
824.3571	604.9358	65535	64728.85
824.5017	607.0626	65535	64726.2
824.6462	609.1888	65535	64727.35
824.7908	611.3144	65535	64725.6
824.9354	613.4393	65535	64727.15
825.08	615.5636	65535	64725.4
825.2246	617.6873	65535	64728.05
825.3692	619.8103	65535	64724.85
825.5138	621.9327	65535	64722.2
825.6584	624.0544	65535	64725.3
825.803	626.1756	65535	64723.35
825.9477	628.2961	65535	64722.6
826.0923	630.4159	65535	64723.8
826.237	632.5351	65535	64723.65
826.3816	634.6537	65535	64719.95
826.5263	636.7716	65535	64717.5
826.6709	638.8889	65535	64719
826.8156	641.0056	65535	64720.1
826.9603	643.1216	65535	64717.35
827.105	645.237	65535	64717
827.2497	647.3518	65535	64718.75
827.3944	649.4659	65535	64719.55
827.5391	651.5793	65535	64718
827.6838	653.6922	65535	64718.15
827.8285	655.8043	65535	64718.5
827.9733	657.9159	65535	64716.75
828.118	660.0268	65535	64714.95
828.2627	662.137	65535	64715.9
828.4075	664.2466	65535	64711.85
828.5522	666.3556	65535	64713.15
828.697	668.4639	65535	64710.85
828.8418	670.5716	65535	64713.65
828.9865	672.6786	65535	64713.45
829.1313	674.785	65535	64708.8
829.2761	676.8907	65535	64711.7
829.4209	678.9958	65535	64711.25
829.5657	681.1002	65535	64709.35
829.7105	683.204	65535	64707.9
829.8553	685.3072	65535	64711.8
830.0001	687.4097	65535	64710.65
830.1449	689.5115	65535	64708.3
830.2898	691.6127	65535	64710.2
830.4346	693.7132	65535	64709.25
830.5794	695.8131	65535	64684.15
830.7243	697.9123	65535	64706.1
830.8691	700.0109	65535	64707.45
831.014	702.1089	65535	64709.45
831.1588	704.2061	65535	64707.25
831.3037	706.3028	65535	64707.6
831.4486	708.3987	65535	64705.5
831.5935	710.4941	65535	64706.55
831.7383	712.5887	65535	64703.55
831.8832	714.6827	65535	64699.9
832.0281	716.7761	65535	64704.75
832.173	718.8688	65535	64703.75
832.3179	720.9608	65535	64699
832.4628	723.0522	65535	64699.8
832.6077	725.1429	65535	64701.95
832.7527	727.233	65535	64702.3
832.8976	729.3224	65535	64702.75
833.0425	731.4112	65535	64699.15
833.1874	733.4993	65535	64697.05
833.3324	735.5867	65535	64701.3
833.4773	737.6735	65535	64699.65
833.6222	739.7596	65535	64700.95
833.7672	741.845	65535	64699.05
833.9122	743.9298	65535	64697.8
834.0571	746.014	65535	64698.5
834.2021	748.0974	65535	64698.35
834.347	750.1802	65535	64697.25
834.492	752.2624	65535	64698
834.637	754.3439	65535	64697.55
834.782	756.4247	65535	64689.85
834.9269	758.5048	65535	64698.15
835.0719	760.5843	65535	64698.6
835.2169	762.6631	65535	64698.65
835.3619	764.7413	65535	64697.15
835.5069	766.8188	65535	64694.3
835.6519	768.8956	65535	64691.85
835.7969	770.9718	65535	64696.6
835.9419	773.0473	65535	64696.35
836.0869	775.1221	65535	64696.25
836.232	777.1962	65535	64696.75
836.377	779.2697	65535	64693.35
836.522	781.3426	65535	64681.8
836.667	783.4147	65535	64693.8
836.8121	785.4862	65535	64696.2
836.9571	787.557	65535	64694.6
837.1021	789.6271	65535	64692.9
837.2472	791.6966	65535	64694.35
837.3922	793.7654	65535	64692.95
837.5373	795.8335	65535	64693.4
837.6823	797.901	65535	64692.5
837.8274	799.9678	65535	64690.75
837.9724	802.0339	65535	64692.5
838.1175	804.0993	65535	64682.15
838.2626	806.1641	65535	64691.45
838.4076	808.2282	65535	64691.8
838.5527	810.2916	65535	64689
838.6978	812.3544	65535	64691.85
838.8428	814.4164	65535	64691.5
838.9879	816.4778	65535	64689.7
839.133	818.5385	65535	64689.4
839.2781	820.5986	65535	64690.3
839.4232	822.658	65535	64687.4
839.5682	824.7166	65535	64690.25
839.7133	826.7747	65535	64691.15
839.8584	828.832	65535	64689.6
840.0035	830.8886	65535	64689
840.1486	832.9446	65535	64688.35
840.2937	834.9999	65535	64688.1
840.4388	837.0545	65535	64684.45
840.5839	839.1085	65535	64686.45
840.729	841.1618	65535	64683.65
840.8741	843.2143	65535	64687.1
841.0192	845.2662	65535	64686.4
841.1643	847.3175	65535	64687.55
841.3095	849.368	65535	64685.95
841.4546	851.4179	65535	64688.85
841.5997	853.467	65535	64686
841.7448	855.5155	65535	64685.8
841.8899	857.5633	65535	64685.55
842.0351	859.6105	65535	64685.5
842.1802	861.6569	65535	64688.05
842.3253	863.7027	65535	64685.15
842.4704	865.7478	65535	64683.45
842.6156	867.7922	65535	64686.1
842.7607	869.8359	65535	64683.25
842.9058	871.8789	65535	64684.65
843.0509	873.9212	65535	64652.6
843.1961	875.9629	65535	64683.45
843.3412	878.0039	65535	64684.95
843.4863	880.0441	65535	64686.15
843.6315	882.0837	65535	64683.95
843.7766	884.1226	65535	64681.7
843.9218	886.1609	65535	64684.9
844.0669	888.1984	65535	64684.5
844.212	890.2352	65535	64684.1
844.3572	892.2714	65535	64679.2
844.5023	894.3069	65535	64681.2
844.6475	896.3416	65535	64680
844.7926	898.3757	65535	64682.4
844.9377	900.4091	65535	64680.8
845.0829	902.4418	65535	64677.2
845.228	904.4739	65535	64678.05
845.3732	906.5052	65535	64679.35
845.5183	908.5358	65535	64681.5
845.6635	910.5658	65535	64679.95
845.8086	912.595	65535	64681.6
845.9538	914.6236	65535	64680.7
846.0989	916.6515	65535	64681.15
846.2441	918.6786	65535	64679.3
846.3892	920.7051	65535	64676.45
846.5344	922.7309	65535	64679.25
846.6795	924.756	65535	64678.85
846.8246	926.7804	65535	64678
846.9698	928.8041	65535	64677.25
847.1149	930.8272	65535	64678.45
847.2601	932.8495	65535	64677.05
847.4052	934.8711	65535	64676.3
847.5504	936.892	65535	64676.9
847.6955	938.9123	65535	64677.3
847.8407	940.9318	65535	64676
847.9858	942.9506	65535	64677.1
848.131	944.9688	65535	64678.8
848.2761	946.9862	65535	64677.1
848.4213	949.003	65535	64677.2
848.5664	951.019	65535	64676.5
848.7115	953.0344	65535	64677.25
848.8567	955.0491	65535	64675.4
849.0018	957.063	65535	64673.85
849.147	959.0763	65535	64678.75
849.2921	961.0888	65535	64675.45
849.4373	963.1007	65535	64673.35
849.5824	965.1119	65535	64677.05
849.7275	967.1223	65535	64676.55
849.8727	969.1321	65535	64677.3
850.0178	971.1412	65535	64677.45
850.1629	973.1495	65535	64675.25
850.3081	975.1572	65535	64624.35
850.4532	977.1641	65535	64676.6
850.5983	979.1704	65535	64673.9
850.7435	981.1759	65535	64672.05
850.8886	983.1808	65535	64673.1
851.0337	985.1849	65535	64668.9
851.1788	987.1884	65535	64672.05
851.324	989.1911	65535	64671.45
851.4691	991.1932	65535	64673.05
851.6142	993.1945	65535	64672.15
851.7593	995.1951	65535	64673.8
851.9045	997.1951	65535	64666.9
852.0496	999.1943	65535	64673
852.1947	1001.1928	65535	64674.3
852.3398	1003.1906	65535	64672.2
852.4849	1005.1877	65535	64670.85
852.63	1007.1841	65535	64670.35
852.7751	1009.1798	65535	64672.4
852.9202	1011.1748	65535	64672.9
853.0653	1013.1691	65535	64673.75
853.2104	1015.1627	65535	64673.75
853.3555	1017.1556	65535	64671.55
853.5006	1019.1477	65535	64671.5
853.6457	1021.1392	65535	64674.35
853.7908	1023.1299	65535	64671.55
853.9359	1025.12	65535	64669.65
854.081	1027.1093	65535	64673.75
854.2261	1029.0979	65535	64673.8
854.3712	1031.0859	65535	64673.1
854.5163	1033.0731	65535	64669.65
854.6613	1035.0596	65535	64670.95
854.8064	1037.0454	65535	64671.3
854.9515	1039.0304	65535	64670.1
855.0965	1041.0148	65535	64671.05
855.2416	1042.9985	65535	64669.25
855.3867	1044.9814	65535	64669.85
855.5317	1046.9636	65535	64667.75
855.6768	1048.9452	65535	64669.75
855.8219	1050.926	65535	64670.4
855.9669	1052.9061	65535	64670.75
856.112	1054.8855	65535	64669.1
856.257	1056.8642	65535	64671.05
856.4021	1058.8421	65535	64664.4
856.5471	1060.8194	65535	64669.1
856.6921	1062.7959	65535	64669.1
856.8372	1064.7717	65535	64665.8
856.9822	1066.7469	65535	64665.75
857.1272	1068.7213	65535	64663.9
857.2723	1070.695	65535	64669.45
857.4173	1072.6679	65535	64668.15
857.5623	1074.6402	65535	64669
857.7073	1076.6117	65535	64664.85
857.8523	1078.5826	65535	64667.65
857.9973	1080.5527	65535	64665.2
858.1423	1082.5221	65535	64666.75
858.2873	1084.4908	65535	64666.95
858.4323	1086.4587	65535	64667.65
858.5773	1088.426	65535	64667.15
858.7223	1090.3925	65535	64660.45
858.8673	1092.3584	65535	64667.65
859.0123	1094.3235	65535	64668.65
859.1573	1096.2879	65535	64667.25
859.3022	1098.2515	65535	64668.4
859.4472	1100.2145	65535	64667.25
859.5922	1102.1767	65535	64664.9
859.7371	1104.1382	65535	64664.55
859.8821	1106.099	65535	64665.9
860.027	1108.0591	65535	64666.35
860.172	1110.0185	65535	64665.05
860.3169	1111.9771	65535	64667.25
860.4619	1113.9351	65535	64664.85
860.6068	1115.8923	65535	64669.25
860.7517	1117.8488	65535	64664.5
860.8967	1119.8045	65535	64664.7
861.0416	1121.7596	65535	64665.45
861.1865	1123.7139	65535	64666.7
861.3314	1125.6675	65535	64667
861.4763	1127.6204	65535	64664.4
861.6212	1129.5726	65535	64664.8
861.7661	1131.524	65535	64667.4
861.911	1133.4748	65535	64665.75
862.0559	1135.4248	65535	64663.25
862.2008	1137.3741	65535	64665.15
862.3457	1139.3226	65535	64663.95
862.4905	1141.2705	65535	64666.2
862.6354	1143.2176	65535	64659.25
862.7803	1145.164	65535	64662.75
862.9251	1147.1097	65535	64665.9
863.07	1149.0546	65535	64665.6
863.2148	1150.9989	65535	64665.35
863.3597	1152.9424	65535	64663.6
863.5045	1154.8852	65535	64662.6
863.6493	1156.8272	65535	64665.05
863.7942	1158.7686	65535	64654.75
863.939	1160.7092	65535	64664
864.0838	1162.6491	65535	64662.6
864.2286	1164.5883	65535	64663.85
864.3734	1166.5267	65535	64662.75
864.5182	1168.4644	65535	64662.2
864.663	1170.4014	65535	64658.1
864.8078	1172.3377	65535	64664.15
864.9526	1174.2732	65535	64663.5
865.0974	1176.2081	65535	64662.05
865.2421	1178.1421	65535	64660.35
865.3869	1180.0755	65535	64663.45
865.5317	1182.0082	65535	64665.45
865.6764	1183.9401	65535	64663.25
865.8212	1185.8713	65535	64663.9
865.9659	1187.8017	65535	64663.7
866.1106	1189.7315	65535	64662.1
866.2554	1191.6605	65535	64662.3
866.4001	1193.5888	65535	64663.9
866.5448	1195.5163	65535	64662.55
866.6895	1197.4432	65535	64661.1
866.8342	1199.3693	65535	64663.8
866.9789	1201.2947	65535	64659.65
867.1236	1203.2193	65535	64660.85
867.2683	1205.1432	65535	64661.15
867.413	1207.0664	65535	64662.5
867.5576	1208.9889	65535	64658.55
867.7023	1210.9106	65535	64664.75
867.847	1212.8316	65535	64664.3
867.9916	1214.7519	65535	64653.6
868.1363	1216.6715	65535	64663.2
868.2809	1218.5903	65535	64662.3
868.4255	1220.5084	65535	64662
868.5701	1222.4257	65535	64661.6
868.7148	1224.3424	65535	64664.65
868.8594	1226.2583	65535	64655.75
869.004	1228.1735	65535	64661.85
869.1486	1230.0879	65535	64659.3
869.2932	1232.0016	65535	64661.1
869.4377	1233.9146	65535	64660.15
869.5823	1235.8269	65535	64662.25
869.7269	1237.7384	65535	64662.05
869.8715	1239.6492	65535	64662.7
870.016	1241.5592	65535	64660.1
870.1606	1243.4686	65535	64661.8
870.3051	1245.3772	65535	64662.1
870.4496	1247.285	65535	64660.35
870.5941	1249.1922	65535	64658.8
870.7387	1251.0986	65535	64662.45
870.8832	1253.0042	65535	64659.95
871.0277	1254.9092	65535	64660.65
871.1722	1256.8134	65535	64660.25
871.3167	1258.7169	65535	64655.95
871.4611	1260.6196	65535	64661.1
871.6056	1262.5216	65535	64660.4
871.7501	1264.4229	65535	64661.35
871.8945	1266.3234	65535	64658.05
872.039	1268.2232	65535	64659.6
872.1834	1270.1223	65535	64659.25
872.3278	1272.0207	65535	64661.35
872.4723	1273.9183	65535	64654.3
872.6167	1275.8151	65535	64659.7
872.7611	1277.7113	65535	64656.95
872.9055	1279.6067	65535	64662.4
873.0499	1281.5014	65535	64655.7
873.1943	1283.3953	65535	64658.35
873.3386	1285.2885	65535	64661.2
873.483	1287.181	65535	64658.3
873.6274	1289.0727	65535	64661.75
873.7717	1290.9637	65535	64659.2
873.9161	1292.854	65535	64660.75
874.0604	1294.7435	65535	64658.4
874.2047	1296.6323	65535	64660.35
874.349	1298.5204	65535	64655.35
874.4933	1300.4077	65535	64657.6
874.6376	1302.2943	65535	64658.15
874.7819	1304.1802	65535	64661
874.9262	1306.0653	65535	64656.9
875.0705	1307.9497	65535	64658.95
875.2147	1309.8333	65535	64659.85
875.359	1311.7162	65535	64658.35
875.5032	1313.5984	65535	64656.95
875.6475	1315.4798	65529.2	64640.9
875.7917	1317.3605	65535	64657.05
875.9359	1319.2405	65535	64658.1
876.0801	1321.1197	65501.4	64622.8
876.2243	1322.9982	65531.2	64651.2
876.3685	1324.876	65497.85	64620
876.5127	1326.753	65400.75	64524.85
876.6569	1328.6293	65524.25	64645.2
876.801	1330.5048	65429.55	64550.3
876.9452	1332.3796	65081.85	64207.5
877.0893	1334.2537	64774.45	63873.6
877.2335	1336.127	65133.35	64256.6
877.3776	1337.9996	64543.6	63665.45
877.5217	1339.8714	65046.5	64169.75
877.6658	1341.7426	63741.95	62822.65
877.8099	1343.6129	64559.5	63684.25
877.954	1345.4826	64665.6	63786.95
878.0981	1347.3515	63471.75	62592.05
878.2422	1349.2196	64386.3	63509.15
878.3862	1351.087	64175.75	63299.95
878.5303	1352.9537	64091.85	63213.15
878.6743	1354.8197	64199.15	63323.1
878.8184	1356.6849	64046.2	63169.85
878.9624	1358.5493	64031.15	63155.4
879.1064	1360.4131	63510.35	62633.9
879.2504	1362.276	64663.55	63787.85
879.3944	1364.1383	63782.85	62906.1
879.5384	1365.9998	63419.8	62536.35
879.6823	1367.8606	64100.65	63223.1
879.8263	1369.7206	63712.9	62834.35
879.9702	1371.5799	63566.6	62687.45
880.1142	1373.4384	63400.85	62522.75
880.2581	1375.2962	63515.8	62637.45
880.402	1377.1533	62496.15	61617.5
880.5459	1379.0096	62356	61479.35
880.6898	1380.8652	62342.4	61464.75
880.8337	1382.7201	61962.1	61084.1
880.9776	1384.5742	62324.25	61447.5
881.1215	1386.4275	60909.2	60032.3
881.2653	1388.2802	61512.7	60636.7
881.4092	1390.132	61897.4	61019.2
881.553	1391.9832	60562.15	59683.6
881.6968	1393.8336	60191.95	59315.1
881.8406	1395.6832	60521.85	59640.65
881.9844	1397.5322	60962.05	60085
882.1282	1399.3803	59885.1	59001.9
882.272	1401.2278	60090.3	59211.1
882.4158	1403.0745	59667.9	58790.1
882.5595	1404.9204	59703.55	58825.9
882.7033	1406.7656	59653.8	58775
882.847	1408.6101	58782.1	57903.95
882.9908	1410.4538	59018.1	58139.4
883.1345	1412.2968	59102.6	58223.2
883.2782	1414.139	58305.4	57429.3
883.4219	1415.9805	58681.35	57803.4
883.5656	1417.8213	58071.75	57175.4
883.7092	1419.6613	58727.5	57851.75
883.8529	1421.5006	58176.3	57296.1
883.9965	1423.3391	58038.1	57159
884.1402	1425.1769	58359.3	57479.05
884.2838	1427.0139	59040.55	58161.4
884.4274	1428.8502	58705.5	57824.95
884.571	1430.6858	58846.35	57968.05
884.7146	1432.5206	59802.6	58923.35
884.8582	1434.3547	58749.3	57869.85
885.0018	1436.188	58171.75	57293.8
885.1453	1438.0206	58774.75	57894.7
885.2889	1439.8524	58705.1	57826.5
885.4324	1441.6835	58169.8	57290.2
885.5759	1443.5139	58638.85	57755.85
885.7194	1445.3435	58136.05	57256.85
885.8629	1447.1724	58399.95	57519.75
886.0064	1449.0005	57621.4	56742.15
886.1499	1450.8279	58186.5	57305.45
886.2933	1452.6545	57966.3	57088.55
886.4368	1454.4804	57678.75	56801.25
886.5802	1456.3056	57335.45	56449.75
886.7237	1458.13	57493.3	56615.55
886.8671	1459.9536	58075	57195.5
887.0105	1461.7766	57173.35	56293.9
887.1539	1463.5987	56550.4	55669.95
887.2972	1465.4202	56753.55	55875.65
887.4406	1467.2409	56553.9	55677.05
887.584	1469.0608	55912.5	55036.4
887.7273	1470.88	55966.65	55085.25
887.8706	1472.6984	56080.7	55201.75
888.0139	1474.5161	55287.2	54403.25
888.1572	1476.3331	55531.1	54655.25
888.3005	1478.1493	54949.8	54070.05
888.4438	1479.9648	54971.5	54093.3
888.5871	1481.7795	55236.85	54357.15
888.7303	1483.5935	55278.2	54397.9
888.8736	1485.4067	54674.3	53795.45
889.0168	1487.2192	54830.7	53951.05
889.16	1489.031	54614.65	53733.95
889.3032	1490.842	54705.7	53825.2
889.4464	1492.6522	54833.1	53955.35
889.5896	1494.4618	54402.25	53520.8
889.7327	1496.2705	54628.05	53748.8
889.8759	1498.0785	53986.5	53107.4
890.019	1499.8858	54090.9	53211.55
890.1622	1501.6924	54492.55	53614.3
890.3053	1503.4981	53903.75	53025.7
890.4484	1505.3032	53911.05	53030.55
890.5914	1507.1075	53519.8	52640.2
890.7345	1508.911	53635.05	52754.65
890.8776	1510.7138	53587.1	52707.8
891.0206	1512.5159	53712.75	52831.9
891.1637	1514.3172	52762.85	51883.15
891.3067	1516.1178	52866.85	51989.2
891.4497	1517.9176	53043.4	52161.4
891.5927	1519.7166	52700	51821.85
891.7357	1521.515	52531.15	51644.95
891.8786	1523.3126	52372.85	51494.9
892.0216	1525.1094	52393	51509.7
892.1645	1526.9055	52154.65	51275
892.3074	1528.7008	52073.65	51191.85
892.4503	1530.4954	51637.65	50756.4
892.5932	1532.2893	51775.4	50898.25
892.7361	1534.0824	51436.4	50550
892.879	1535.8747	51183.9	50304.3
893.0218	1537.6663	51638.7	50755.9
893.1647	1539.4572	50673.2	49791.95
893.3075	1541.2473	50954.6	50074.4
893.4503	1543.0367	50680.7	49800.8
893.5931	1544.8253	50581.9	49696.85
893.7359	1546.6132	50650.35	49768.05
893.8787	1548.4003	50352.6	49462.1
894.0214	1550.1867	50343.2	49454.35
894.1642	1551.9723	50261.45	49376.2
894.3069	1553.7572	50281.6	49399.15
894.4496	1555.5414	50258.4	49377.95
894.5923	1557.3247	50027.8	49147.55
894.735	1559.1074	50193.25	49313.85
894.8777	1560.8893	50138.25	49258.85
895.0204	1562.6705	50217.5	49336.9
895.163	1564.4509	50128.1	49247.75
895.3056	1566.2305	50107.35	49227.65
895.4482	1568.0094	50390.45	49511.9
895.5908	1569.7876	50146.15	49264.25
895.7334	1571.565	49890.15	49009
895.876	1573.3417	49969.3	49088.25
896.0186	1575.1176	49812.2	48931.95
896.1611	1576.8928	49726.6	48845.8
896.3036	1578.6672	49621.05	48743.05
896.4461	1580.4409	49686.1	48807.1
896.5886	1582.2138	49641.7	48758.3
896.7311	1583.986	49782.35	48903.05
896.8736	1585.7575	49847.35	48968.9
897.0161	1587.5282	49906.2	49026.95
897.1585	1589.2981	50132.9	49252.45
897.3009	1591.0673	49904.8	49023.55
897.4433	1592.8358	49857.85	48978.2
897.5857	1594.6035	49869.35	48987.05
897.7281	1596.3704	49635.2	48752.3
897.8705	1598.1366	49259.6	48380.75
898.0128	1599.9021	48956.7	48077.1
898.1551	1601.6668	48746.4	47864.75
898.2975	1603.4308	48527.9	47648.65
898.4398	1605.194	48560.4	47674.85
898.5821	1606.9564	48187.55	47306.6
898.7243	1608.7182	48445.9	47562.2
898.8666	1610.4791	48603.15	47721.5
899.0088	1612.2394	49039.05	48159.85
899.1511	1613.9988	49381	48499
899.2933	1615.7576	49878.85	48999.1
899.4355	1617.5156	50066.05	49179.95
899.5776	1619.2728	50066.7	49189.4
899.7198	1621.0293	49316.1	48437.75
899.862	1622.785	48818.75	47934.25
900.0041	1624.54	48129.65	47245.7
900.1462	1626.2942	47455.6	46574.05
900.2883	1628.0477	46658.05	45775.65
900.4304	1629.8005	46190.2	45307.3
900.5725	1631.5525	45737	44855.2
900.7145	1633.3037	45307.05	44426.2
900.8566	1635.0542	45043.85	44162.7
900.9986	1636.804	44785.85	43905.1
901.1406	1638.553	44657.25	43686.55
901.2826	1640.3013	44341.1	43459.4
901.4245	1642.0488	44092.1	43210.2
901.5665	1643.7955	43903.3	43023.85
901.7085	1645.5416	43733.55	42851.75
901.8504	1647.2868	43648.3	42768.85
901.9923	1649.0313	43425.35	42544.1
902.1342	1650.7751	43312.65	42428.95
902.2761	1652.5181	43221.4	42341.85
902.4179	1654.2604	43025.8	42143.85
902.5598	1656.0019	42979.8	42099.1
902.7016	1657.7427	42898.2	42017.3
902.8434	1659.4828	42934.05	42054.95
902.9852	1661.222	42892.4	42010.4
903.127	1662.9606	42902.9	42021.35
903.2687	1664.6984	43054.6	42174.2
903.4105	1666.4354	43109.55	42227.15
903.5522	1668.1717	42939.7	42059.2
903.6939	1669.9072	42633.3	41753.15
903.8356	1671.642	42350.3	41468.4
903.9773	1673.3761	42082.3	41201.5
904.119	1675.1094	41809.45	40926.6
904.2606	1676.8419	41527	40646.4
904.4022	1678.5737	41252	40370.4
904.5439	1680.3048	41075.4	40192.6
904.6855	1682.0351	40860.05	39978.65
904.827	1683.7646	40682.6	39799.45
904.9686	1685.4934	40519.45	39638.25
905.1101	1687.2215	40377.7	39496.45
905.2517	1688.9488	40158.3	39276.75
905.3932	1690.6754	39931.45	39048.95
905.5347	1692.4012	39908.25	39027.6
905.6761	1694.1263	39792.1	38911.05
905.8176	1695.8506	39636.8	38754.85
905.9591	1697.5742	39535.35	38652.4
906.1005	1699.297	39385.9	38505
906.2419	1701.0191	39169.75	38288.4
906.3833	1702.7404	39028.2	38147.2
906.5246	1704.461	38860	37976.95
906.666	1706.1808	38758.75	37876.5
906.8073	1707.8999	38542.35	37658.7
906.9487	1709.6182	38484.2	37601.3
907.09	1711.3358	38334.4	37452.75
907.2313	1713.0527	38221.6	37342.4
907.3725	1714.7688	38082.7	37194.2
907.5138	1716.4841	37959.4	37077.45
907.655	1718.1987	37916.5	37029.45
907.7962	1719.9126	37781	36900.35
907.9374	1721.6257	37643.9	36759
908.0786	1723.338	37604.6	36704.25
908.2198	1725.0496	37348.9	36434.8
908.3609	1726.7605	37296.6	36410
908.502	1728.4706	37151	36265.4
908.6431	1730.18	36946.15	36062
908.7842	1731.8886	36928.05	36044.7
908.9253	1733.5964	36905.9	36003.65
909.0664	1735.3036	36769.85	35883.6
909.2074	1737.0099	36741.7	35858.65
909.3484	1738.7156	36661.35	35780.6
909.4894	1740.4204	36484.75	35597.45
909.6304	1742.1246	36424.3	35540.2
909.7714	1743.8279	36298.95	35417
909.9123	1745.5306	36326.8	35444.5
910.0532	1747.2325	36235.65	35354.1
910.1941	1748.9336	36123	35241.65
910.335	1750.634	35995.65	35112.9
910.4759	1752.3336	35926	35046.6
910.6168	1754.0325	35841.45	34960.55
910.7576	1755.7307	35764.15	34882.5
910.8984	1757.4281	35791.75	34910.35
911.0392	1759.1247	35685.75	34795.3
911.18	1760.8206	35590.85	34705.45
911.3208	1762.5158	35562.75	34677.75
911.4615	1764.2102	35391.7	34510.45
911.6022	1765.9039	35313.7	34431.3
911.7429	1767.5968	35277.8	34395.1
911.8836	1769.289	35145.5	34263.6
912.0243	1770.9804	35042.55	34158.4
912.1649	1772.6711	34998.05	34117.25
912.3056	1774.361	34917.7	34035.8
912.4462	1776.0502	34888.35	34006.4
912.5868	1777.7386	34832.6	33947.95
912.7274	1779.4263	34639.15	33756.85
912.8679	1781.1132	34601.15	33719.8
913.0084	1782.7994	34489.05	33604.6
913.149	1784.4849	34431.2	33549
913.2895	1786.1696	34318.5	33417.3
913.4299	1787.8535	34257.35	33377.2
913.5704	1789.5367	34157.25	33275.65
913.7108	1791.2192	34149.45	33268.5
913.8513	1792.9009	33991.65	33091.45
913.9917	1794.5818	33923.55	33041.4
914.132	1796.2621	33810.45	32929.65
914.2724	1797.9415	33756.65	32876.6
914.4128	1799.6202	33669.25	32788.55
914.5531	1801.2982	33614.8	32733.55
914.6934	1802.9755	33535.35	32651.85
914.8337	1804.6519	33483.55	32600.25
914.9739	1806.3277	33273.75	32391
915.1142	1808.0027	33155.55	32274.75
915.2544	1809.6769	33092.75	32211
915.3946	1811.3504	33056	32173.85
915.5348	1813.0231	33009.05	32127.55
915.675	1814.6951	32943.4	32060.9
915.8151	1816.3664	32941.4	32057.25
915.9553	1818.0369	32831.35	31948.4
916.0954	1819.7067	32694.9	31813.8
916.2355	1821.3757	32646.15	31762.65
916.3755	1823.044	32584.75	31701.65
916.5156	1824.7115	32502.9	31621.2
916.6556	1826.3783	32350.75	31469.75
916.7956	1828.0443	32261.25	31382.05
916.9356	1829.7096	32228.15	31345.15
917.0756	1831.3741	32197.6	31312.15
917.2155	1833.0379	32095.3	31213.7
917.3555	1834.701	31977.8	31091.35
917.4954	1836.3633	31991.15	31106.85
917.6353	1838.0248	31858.15	30975.6
917.7751	1839.6856	31812.85	30931.3
917.915	1841.3457	31760.05	30879.95
918.0548	1843.005	31706.75	30825.75
918.1946	1844.6636	31660.7	30780.6
918.3344	1846.3214	31558.95	30676.95
918.4742	1847.9785	31498.4	30615.5
918.6139	1849.6349	31409.5	30525.9
918.7537	1851.2904	31407.95	30517.25
918.8934	1852.9453	31296.2	30414.95
919.0331	1854.5994	31128.9	30243.9
919.1727	1856.2528	31160.05	30273.05
919.3124	1857.9054	31067.9	30186.15
919.452	1859.5572	31006.9	30127.05
919.5916	1861.2083	30960.5	30076.7
919.7312	1862.8587	30923.35	30042.7
919.8708	1864.5084	30846.25	29963.05
920.0103	1866.1572	30767.65	29887.45
920.1498	1867.8054	30586.5	29705.55
920.2893	1869.4528	30582.3	29701.25
920.4288	1871.0994	30516.7	29634.25
920.5683	1872.7453	30435.25	29551.05
920.7077	1874.3905	30399.45	29511.05
920.8471	1876.0349	30291.35	29410.85
920.9865	1877.6786	30219.45	29336.5
921.1259	1879.3215	30193.85	29312.4
921.2653	1880.9637	30159.4	29273.85
921.4046	1882.6051	30119.75	29239.4
921.5439	1884.2458	30017.15	29132.7
921.6832	1885.8858	29886.6	29004.15
921.8225	1887.525	29825.85	28941.95
921.9617	1889.1634	29704.8	28822.2
922.101	1890.8011	29671.55	28789.95
922.2402	1892.4381	29564.4	28684.7
922.3794	1894.0743	29539.55	28658.8
922.5185	1895.7098	29457.8	28577.05
922.6577	1897.3446	29417.35	28534.3
922.7968	1898.9786	29318.1	28431.5
922.9359	1900.6118	29301.55	28420.4
923.075	1902.2443	29111.6	28226.95
923.214	1903.8761	29026.25	28144.05
923.3531	1905.5071	28909.35	28025.55
923.4921	1907.1374	28860.85	27977.75
923.6311	1908.7669	28747.55	27865.15
923.77	1910.3957	28741.55	27859.95
923.909	1912.0237	28572.2	27690.95
924.0479	1913.651	28551.65	27668.25
924.1868	1915.2776	28486.65	27606.65
924.3257	1916.9034	28348.2	27466.4
924.4646	1918.5285	28244.25	27362.7
924.6034	1920.1528	28091.85	27210.65
924.7422	1921.7764	28091.25	27206.35
924.881	1923.3992	27969.75	27089.9
925.0198	1925.0213	27778.6	26896.05
925.1586	1926.6427	27689.3	26809.35
925.2973	1928.2633	27778.9	26682.7
925.436	1929.8832	27552.45	26666.8
925.5747	1931.5023	27377.75	26496.25
925.7134	1933.1207	27337.7	26454.9
925.852	1934.7383	27305.55	26422.65
925.9906	1936.3552	27176.45	26295.8
926.1292	1937.9714	27113.15	26228.55
926.2678	1939.5868	27027.2	26141.9
926.4064	1941.2015	26883.2	26000.85
926.5449	1942.8154	26782.85	25901
926.6834	1944.4286	26685.95	25803.05
926.8219	1946.041	26610.95	25706.55
926.9604	1947.6528	26468.55	25580.7
927.0988	1949.2637	26413.8	25533.75
927.2372	1950.8739	26340.7	25458.65
927.3756	1952.4834	26260.1	25375.65
927.514	1954.0921	26192.85	25310
927.6523	1955.7001	26101.45	25213.45
927.7907	1957.3074	26046.8	25165.55
927.929	1958.9139	25914.75	25032.2
928.0673	1960.5197	25864.8	24981.1
928.2055	1962.1247	25763.35	24880.75
928.3438	1963.729	25634.85	24754.5
928.482	1965.3325	25529.5	24625.25
928.6202	1966.9353	25444.05	24563.4
928.7584	1968.5374	25429.1	24545.55
928.8965	1970.1387	25344.9	24463.7
929.0346	1971.7393	25205.45	24321.9
929.1727	1973.3392	25166.1	24285.5
929.3108	1974.9383	25054.45	24172.4
929.4489	1976.5366	24956	24072.9
929.5869	1978.1342	24953.45	24070.6
929.7249	1979.7311	24877.6	23994.75
929.8629	1981.3273	24781.5	23899.8
930.0009	1982.9227	24740.7	23856
930.1388	1984.5173	24624	23742.05
930.2767	1986.1112	24547.2	23664.55
930.4146	1987.7044	24518.25	23637.25
930.5525	1989.2968	24409.3	23525.65
930.6904	1990.8885	24357.4	23470.6
930.8282	1992.4795	24330.45	23445.45
930.966	1994.0697	24205.5	23324.25
931.1038	1995.6592	24121.6	23240.9
931.2415	1997.2479	24040.35	23158.8
931.3793	1998.8359	23992.7	23111.5
931.517	2000.4232	23911.75	23028.35
931.6547	2002.0097	23821.5	22939.35
931.7923	2003.5955	23718.95	22835.85
931.93	2005.1805	23711.75	22828.1
932.0676	2006.7648	23664.75	22782.1
932.2052	2008.3484	23540.35	22656.9
932.3427	2009.9312	23598.4	22714.9
932.4803	2011.5133	23451.85	22570.95
932.6178	2013.0946	23402.45	22521.55
932.7553	2014.6752	23296.75	22414.25
932.8928	2016.2551	23222.4	22338.45
933.0302	2017.8342	23131.85	22251
933.1676	2019.4126	23044.75	22164.1
933.305	2020.9902	22963.85	22082.6
933.4424	2022.5672	22952	22067.3
933.5798	2024.1433	22886.8	21999.65
933.7171	2025.7188	22804.45	21923.55
933.8544	2027.2935	22768.1	21884.3
933.9917	2028.8674	22672.85	21791.15
934.129	2030.4406	22616.55	21735.8
934.2662	2032.0131	22459.5	21577.5
934.4034	2033.5849	22434.2	21542.95
934.5406	2035.1559	22344.1	21461.85
934.6778	2036.7261	22371.85	21489.95
934.8149	2038.2957	22289.05	21407.15
934.952	2039.8645	22249.35	21365.65
935.0891	2041.4325	22203.75	21320.1
935.2262	2042.9998	22156.35	21274
935.3632	2044.5664	22087.4	21203.55
935.5002	2046.1323	22002.65	21119.1
935.6372	2047.6974	21927.3	21045.5
935.7742	2049.2617	21899.35	21016.65
935.9111	2050.8254	21885.05	20981.75
936.048	2052.3883	21833.15	20950.2
936.1849	2053.9504	21740.9	20856.6
936.3218	2055.5118	21660.4	20777.5
936.4586	2057.0725	21554.25	20668.5
936.5955	2058.6325	21512.3	20630
936.7323	2060.1917	21466.35	20586.45
936.869	2061.7502	21413.45	20529.75
937.0058	2063.3079	21358.1	20476
937.1425	2064.8649	21295.75	20410.05
937.2792	2066.4212	21239.15	20357.5
937.4159	2067.9767	21180.85	20299.3
937.5525	2069.5315	21108.1	20227.55
937.6891	2071.0856	21034.85	20153.45
937.8257	2072.6389	20977.9	20095.2
937.9623	2074.1915	20859.95	19979.15
938.0989	2075.7433	20803.8	19920.75
938.2354	2077.2945	20742.35	19860.35
938.3719	2078.8448	20651.35	19770.75
938.5084	2080.3945	20588.5	19708.25
938.6448	2081.9434	20568.55	19686.8
938.7812	2083.4916	20517.8	19634.9
938.9176	2085.039	20419.2	19535.5
939.054	2086.5857	20382.8	19499.3
939.1903	2088.1317	20362.4	19480.9
939.3267	2089.677	20317.65	19433.3
939.463	2091.2215	20222.7	19339.6
939.5992	2092.7652	20191.55	19311.1
939.7355	2094.3083	20149.5	19266.6
939.8717	2095.8506	20110.3	19230.05
940.0079	2097.3921	20107.9	19226.55
940.1441	2098.933	20021.4	19140.25
940.2802	2100.4731	19992.45	19110.7
940.4163	2102.0124	19956.35	19056.2
940.5524	2103.5511	19937.6	19055.9
940.6885	2105.089	19887.5	19004.7
940.8245	2106.6261	19830.95	18948.75
940.9606	2108.1626	19795.1	18913.35
941.0965	2109.6983	19761.05	18850.95
941.2325	2111.2332	19689.65	18805.85
941.3684	2112.7675	19592.5	18710.7
941.5044	2114.301	19546.55	18660.95
941.6403	2115.8337	19562.5	18681.6
941.7761	2117.3657	19469.65	18587.15
941.912	2118.897	19424.6	18542
942.0478	2120.4276	19375.85	18488.3
942.1835	2121.9575	19312.4	18428.4
942.3193	2123.4866	19299.9	18416.8
942.455	2125.0149	19239.05	18354.8
942.5907	2126.5426	19113.6	18231.95
942.7264	2128.0695	19092.45	18205.25
942.8621	2129.5956	19033.25	18151.2
942.9977	2131.1211	19014.45	18127.2
943.1333	2132.6458	18947.6	18062.95
943.2689	2134.1698	18916.45	18033.6
943.4044	2135.693	18847.6	17963.8
943.54	2137.2155	18793.95	17909.6
943.6755	2138.7373	18774.9	17891.85
943.8109	2140.2584	18698.95	17815.85
943.9464	2141.7787	18653.5	17763.4
944.0818	2143.2983	18575.7	17694.7
944.2172	2144.8171	18447.05	17564.5
944.3526	2146.3353	18434.6	17550.5
944.4879	2147.8527	18356.35	17473.3
944.6232	2149.3693	18314.3	17433.7
944.7585	2150.8853	18270.15	17384.95
944.8938	2152.4005	18204.9	17324.45
945.029	2153.9149	18201.8	17320.5
945.1642	2155.4287	18131.25	17249.05
945.2994	2156.9417	18100.35	17217.35
945.4346	2158.454	18033.75	17149.4
945.5697	2159.9655	17984.3	17101.15
945.7048	2161.4764	17940.35	17059.2
945.8399	2162.9865	17884	17000
945.9749	2164.4958	17844.5	16962.4
946.1099	2166.0045	17764.75	16880.15
946.2449	2167.5124	17729.6	16848.7
946.3799	2169.0195	17685.7	16804.35
946.5148	2170.526	17673.55	16790.7
946.6498	2172.0317	17586.45	16705.75
946.7846	2173.5367	17573.75	16691.15
946.9195	2175.0409	17515.75	16635.15
947.0543	2176.5445	17504.1	16623.7
947.1891	2178.0473	17432.9	16551.5
947.3239	2179.5494	17341.6	16457.35
947.4587	2181.0507	17254.35	16372.2
947.5934	2182.5513	17204.7	16320.8
947.7281	2184.0512	17182.05	16300.45
947.8628	2185.5504	17130.8	16250.2
947.9974	2187.0488	17023.85	16141.1
948.132	2188.5465	17007.05	16123.55
948.2666	2190.0435	16914.1	16031.25
948.4012	2191.5397	16868.5	15987.95
948.5357	2193.0353	16849.05	15966.4
948.6702	2194.5301	16763.85	15880.25
948.8047	2196.0241	16710.4	15827.55
948.9392	2197.5175	16655.05	15772.35
949.0736	2199.0101	16613.85	15729.9
949.208	2200.502	16518.85	15639.7
949.3424	2201.9931	16486.7	15606.05
949.4767	2203.4835	16423.45	15538.6
949.611	2204.9733	16391.8	15504.25
949.7453	2206.4622	16342.95	15463.2
949.8796	2207.9505	16261.4	15377.55
950.0138	2209.438	16194.05	15314.05
950.148	2210.9248	16152.7	15269.65
950.2822	2212.4109	16114.7	15235.15
950.4164	2213.8962	16025.1	15140.2
950.5505	2215.3809	16002.3	15117.9
950.6846	2216.8648	16002.9	15121
950.8186	2218.3479	15943.05	15056.2
950.9527	2219.8304	15856.4	14972
951.0867	2221.3121	15821.25	14936.25
951.2207	2222.7931	15722.2	14841.65
951.3546	2224.2733	15695.75	14812.15
951.4886	2225.7529	15599.3	14717.1
951.6225	2227.2317	15568	14683.15
951.7563	2228.7098	15542.45	14662.6
951.8902	2230.1872	15491.85	14609.7
952.024	2231.6638	15470.75	14587.9
952.1578	2233.1397	15394.6	14505.75
952.2916	2234.6149	15367.35	14486.55
952.4253	2236.0894	15314.1	14431.15
952.559	2237.5632	15281.15	14398.3
952.6927	2239.0362	15202.5	14317.5
952.8263	2240.5085	15143.2	14262.5
952.9599	2241.9801	15103.3	14221.25
953.0935	2243.4509	15062.45	14181.05
953.2271	2244.921	15011.5	14128.5
953.3606	2246.3904	14956.8	14071.35
953.4941	2247.8591	14911.45	14028.85
953.6276	2249.3271	14876.2	13995.25
953.7611	2250.7943	14790.95	13908.85
953.8945	2252.2608	14730.4	13850.05
954.0279	2253.7266	14681.65	13800.5
954.1612	2255.1917	14681.35	13799.6
954.2946	2256.656	14634.8	13751.45
954.4279	2258.1197	14569.3	13687.6
954.5612	2259.5826	14512.2	13628.3
954.6944	2261.0447	14526.45	13642.2
954.8276	2262.5062	14465.15	13581.3
954.9608	2263.9669	14422.2	13537.4
955.094	2265.4269	14405.5	13523.05
955.2271	2266.8862	14317.25	13434.6
955.3602	2268.3448	14298.6	13415.25
955.4933	2269.8026	14268.45	13383.7
955.6264	2271.2598	14255.05	13372.55
955.7594	2272.7162	14189.5	13310.05
955.8924	2274.1719	14155.1	13270.35
956.0253	2275.6268	14103.45	13222.5
956.1583	2277.0811	14091	13208.5
956.2912	2278.5346	14023.15	13142.15
956.4241	2279.9874	13991.65	13108.75
956.5569	2281.4395	13973.15	13092.5
956.6897	2282.8908	13900.7	13014.65
956.8225	2284.3414	13897.75	13013.65
956.9553	2285.7914	13872.1	12990.85
957.088	2287.2406	13808.6	12925.4
957.2207	2288.689	13774	12891.85
957.3534	2290.1368	13733.9	12850
957.486	2291.5838	13665.7	12782.3
957.6186	2293.0302	13665.25	12782.25
957.7512	2294.4758	13583	12702.15
957.8838	2295.9206	13525.65	12641.4
958.0163	2297.3648	13518.6	12635.85
958.1488	2298.8082	13505.6	12625.1
958.2813	2300.251	13451.2	12570.35
958.4137	2301.693	13387.55	12501.6
958.5461	2303.1343	13378.65	12495.65
958.6785	2304.5748	13303.9	12422.5
958.8108	2306.0147	13275.9	12392.5
958.9432	2307.4538	13219.4	12334
959.0754	2308.8922	13208.9	12327.7
959.2077	2310.3299	13154.35	12271.45
959.3399	2311.7669	13098.5	12215.5
959.4721	2313.2031	13066.9	12187.15
959.6043	2314.6387	13011.9	12129.25
959.7365	2316.0735	12956.85	12074.35
959.8686	2317.5076	12951.05	12068.2
960.0006	2318.941	12930.8	12049
960.1327	2320.3737	12868.2	11985.45
960.2647	2321.8056	12820.5	11935.9
960.3967	2323.2369	12812.45	11929.2
960.5287	2324.6674	12771.95	11887.65
960.6606	2326.0972	12730.9	11845.9
960.7925	2327.5263	12668.65	11786.2
960.9244	2328.9547	12639.95	11758.1
961.0562	2330.3823	12580.25	11698
961.1881	2331.8092	12599.35	11714.35
961.3198	2333.2355	12515.3	11633.1
961.4516	2334.661	12502.3	11617.95
961.5833	2336.0858	12489.1	11605.95
961.715	2337.5098	12415.25	11531.9
961.8467	2338.9332	12414.5	11532.2
961.9783	2340.3558	12354.15	11468.05
962.1099	2341.7778	12307.45	11424.8
962.2415	2343.199	12290.1	11403.95
962.373	2344.6195	12241.8	11359.65
962.5045	2346.0393	12210.75	11328.95
962.636	2347.4583	12202	11318.05
962.7675	2348.8767	12135.05	11251.65
962.8989	2350.2943	12110.4	11228.8
963.0303	2351.7113	12095	11213
963.1617	2353.1275	12034.15	11152.4
963.293	2354.543	12014.3	11123.75
963.4243	2355.9578	11964.65	11081
963.5556	2357.3718	11895.65	11012.35
963.6868	2358.7852	11838.95	10954.85
963.818	2360.1978	11791.7	10908
963.9492	2361.6098	11803.65	10924.45
964.0803	2363.021	11776.2	10889.05
964.2114	2364.4315	11740.95	10858.05
964.3425	2365.8413	11700.75	10811.05
964.4736	2367.2504	11667.45	10785.2
964.6046	2368.6587	11624.65	10741.6
964.7356	2370.0664	11577.95	10696.3
964.8666	2371.4733	11557.15	10676.35
964.9975	2372.8795	11499.8	10617.15
965.1284	2374.285	11463.75	10580.95
965.2593	2375.6899	11389.55	10506.15
965.3901	2377.0939	11359.5	10478.2
965.5209	2378.4973	11334	10452.5
965.6517	2379.9	11305.6	10421.85
965.7825	2381.3019	11283	10399.5
965.9132	2382.7032	11245.05	10363.75
966.0439	2384.1037	11198.5	10317.95
966.1745	2385.5035	11178.2	10295.4
966.3051	2386.9027	11160.5	10278.15
966.4357	2388.3011	11125.45	10239.55
966.5663	2389.6987	11074.05	10190.95
966.6968	2391.0957	11036.65	10155
966.8273	2392.492	10979.95	10097.6
966.9578	2393.8876	10936.85	10052.3
967.0882	2395.2824	10886	10004
967.2186	2396.6765	10835.8	9952.95
967.349	2398.07	10827.65	9949.2
967.4793	2399.4627	10809.2	9926.2
967.6097	2400.8547	10760.5	9878.6
967.7399	2402.246	10725.4	9836.5
967.8702	2403.6366	10671.55	9788.15
968.0004	2405.0265	10609.75	9726.8
968.1306	2406.4156	10567.45	9679.8
968.2607	2407.8041	10560.05	9673.05
968.3909	2409.1918	10512.75	9626.65
968.521	2410.5789	10488.2	9606.25
968.651	2411.9652	10435.2	9551.05
968.781	2413.3508	10390.4	9508.65
968.911	2414.7358	10377.1	9494.6
969.041	2416.12	10322.7	9441
969.1709	2417.5035	10269.75	9387.95
969.3008	2418.8863	10256.4	9371
969.4307	2420.2684	10213.55	9330.2
969.5606	2421.6497	10140.75	9257.3
969.6904	2423.0304	10124.5	9242.5
969.8201	2424.4104	10077.5	9193.55
969.9499	2425.7896	10045.65	9158.25
970.0796	2427.1682	10025.45	9144.15
970.2093	2428.546	9989.95	9107.45
970.3389	2429.9232	9951.4	9066.15
970.4685	2431.2996	9942.25	9058.5
970.5981	2432.6753	9927.3	9045.65
970.7277	2434.0503	9903.4	9019.15
970.8572	2435.4246	9834.4	8952.5
970.9867	2436.7982	9808.55	8923.75
971.1161	2438.1711	9802.25	8920.9
971.2456	2439.5433	9774.6	8892.05
971.375	2440.9148	9710.25	8823.8
971.5043	2442.2856	9676.05	8794.55
971.6336	2443.6557	9653.6	8768.8
971.7629	2445.025	9609.95	8728.55
971.8922	2446.3937	9586.85	8704.05
972.0214	2447.7617	9566.65	8682.95
972.1506	2449.1289	9541.65	8659.5
972.2798	2450.4955	9505	8617.9
972.4089	2451.8613	9477.5	8597.5
972.538	2453.2265	9457.25	8572.65
972.6671	2454.5909	9445.8	8563.6
972.7961	2455.9546	9415.1	8532.05
972.9251	2457.3177	9382.7	8500.4
973.0541	2458.68	9354.8	8470.45
973.1831	2460.0416	9334.2	8450.8
973.312	2461.4025	9310.85	8426
973.4408	2462.7627	9308.4	8415.15
973.5697	2464.1222	9262.65	8378.95
973.6985	2465.4811	9241.4	8357.25
973.8273	2466.8392	9180.25	8297.4
973.956	2468.1966	9186.05	8301.75
974.0847	2469.5533	9147.85	8263.75
974.2134	2470.9093	9129.65	8246.45
974.3421	2472.2645	9096.65	8212.7
974.4707	2473.6191	9061.1	8179.6
974.5993	2474.973	9036.05	8153.85
974.7278	2476.3262	9021.3	8136.65
974.8563	2477.6787	8997.3	8116.1
974.9848	2479.0305	8917.2	8034.35
975.1132	2480.3816	8902.4	8017.2
975.2417	2481.7319	8864.1	7982.1
975.37	2483.0816	8859.75	7974.2
975.4984	2484.4306	8836.8	7952.45
975.6267	2485.7789	8796.75	7914.25
975.755	2487.1264	8748.2	7864.5
975.8833	2488.4733	8714.15	7831.5
976.0115	2489.8195	8683.8	7795.85
976.1397	2491.165	8653.7	7768.2
976.2678	2492.5097	8604.8	7719.6
976.3959	2493.8538	8585.9	7702.65
976.524	2495.1972	8518.1	7633.55
976.6521	2496.5398	8528.95	7645.3
976.7801	2497.8818	8504	7617.65
976.9081	2499.2231	8497.5	7614.5
977.036	2500.5637	8442.5	7559.15
977.164	2501.9035	8418.55	7534.95
977.2918	2503.2427	8409.8	7522.7
977.4197	2504.5812	8355.6	7473.65
977.5475	2505.919	8344.55	7460
977.6753	2507.256	8339.65	7457.9
977.8031	2508.5924	8301.95	7421.2
977.9308	2509.9281	8261	7372.85
978.0585	2511.2631	8270.9	7386.75
978.1861	2512.5974	8208.55	7326.25
978.3137	2513.9309	8188.4	7305.75
978.4413	2515.2638	8173.35	7263.25
978.5689	2516.596	8127.05	7244.3
978.6964	2517.9275	8107.9	7225.85
978.8239	2519.2583	8060.45	7176.7
978.9513	2520.5884	8041.8	7157.1
979.0788	2521.9178	7997.75	7114.2
979.2062	2523.2465	7969.7	7087
979.3335	2524.5745	7940.8	7059.65
979.4608	2525.9018	7902.35	7019.75
979.5881	2527.2284	7890.45	7006.2
979.7154	2528.5543	7872.75	6991.65
979.8426	2529.8796	7851.25	6969.35
979.9698	2531.2041	7820	6936.85
980.0969	2532.5279	7823.55	6942.05
980.224	2533.851	7800.7	6918.05
980.3511	2535.1735	7777.35	6895.9
980.4781	2536.4952	7744.15	6863.25
980.6052	2537.8163	7743.1	6860.6
980.7321	2539.1366	7715.3	6831.55
980.8591	2540.4562	7692.2	6809.7
980.986	2541.7752	7686.5	6804.9
981.1129	2543.0935	7685.5	6802.85
981.2397	2544.411	7658.4	6773.85
981.3665	2545.7279	7623.05	6741.6
981.4933	2547.0441	7611.8	6728.6
981.62	2548.3596	7620.25	6734.05
981.7467	2549.6744	7598.95	6716.5
981.8734	2550.9885	7572.7	6681.1
982.0001	2552.3019	7558.95	6676.55
982.1267	2553.6146	7517.9	6636.8
982.2532	2554.9266	7502.25	6618.8
982.3798	2556.2379	7491.55	6607
982.5063	2557.5485	7475.05	6594.5
982.6327	2558.8585	7433.35	6544.8
982.7592	2560.1677	7434.4	6548
982.8856	2561.4762	7406.5	6523.35
983.0119	2562.7841	7398.95	6513.8
983.1383	2564.0913	7376.65	6495.2
983.2646	2565.3977	7356.85	6474.3
983.3908	2566.7035	7343.35	6460.4
983.517	2568.0086	7343.45	6460.6
983.6432	2569.313	7322.55	6440.3
983.7694	2570.6167	7325.4	6440.9
983.8955	2571.9197	7290.4	6408.1
984.0216	2573.222	7263.55	6376.9
984.1476	2574.5236	7254.4	6371.15
984.2737	2575.8246	7234.8	6350.7
984.3996	2577.1248	7220.8	6335.7
984.5256	2578.4244	7208.65	6326.65
984.6515	2579.7232	7193.4	6312.85
984.7774	2581.0214	7200.35	6293.2
984.9032	2582.3189	7167.05	6285.05
985.029	2583.6157	7134.75	6247.65
985.1548	2584.9118	7121.35	6238.55
985.2806	2586.2072	7090.75	6209.45
985.4063	2587.5019	7076.55	6195.95
985.5319	2588.7959	7058.3	6174.55
985.6576	2590.0893	7032.45	6149.4
985.7832	2591.3819	7035.25	6153.4
985.9087	2592.6739	7004.15	6122.75
986.0343	2593.9652	6996.6	6112.3
986.1597	2595.2557	6965.2	6083.25
986.2852	2596.5456	6939.55	6055.1
986.4106	2597.8348	6917.15	6035.85
986.536	2599.1234	6868.4	5986.05
986.6614	2600.4112	6872.55	5991.3
986.7867	2601.6983	6863.8	5979.1
986.912	2602.9848	6828.3	5944.7
987.0372	2604.2705	6800.85	5910.7
987.1624	2605.5556	6782.1	5900.65
987.2876	2606.84	6736.75	5855.6
987.4128	2608.1237	6725.85	5843.3
987.5379	2609.4067	6679.1	5797.75
987.6629	2610.689	6678.5	5786.95
987.788	2611.9707	6636.65	5750.6
987.913	2613.2516	6638.8	5753.2
988.0379	2614.5319	6610.25	5728.95
988.1629	2615.8115	6582.95	5700.95
988.2878	2617.0903	6552.65	5669.8
988.4126	2618.3685	6539.45	5656.5
988.5375	2619.6461	6496.4	5611.9
988.6622	2620.9229	6468.1	5585.8
988.787	2622.199	6468.5	5586.8
988.9117	2623.4745	6456.55	5572.4
989.0364	2624.7493	6411.95	5529.35
989.161	2626.0234	6414.95	5534
989.2857	2627.2968	6384.55	5500.2
989.4102	2628.5695	6356.9	5474.2
989.5348	2629.8415	6330.95	5449.75
989.6593	2631.1128	6310.5	5425.25
989.7837	2632.3835	6283.75	5402.2
989.9082	2633.6535	6250.4	5367.6
990.0326	2634.9228	6243.35	5362
990.1569	2636.1914	6218.45	5335.05
990.2812	2637.4593	6225.5	5336.4
990.4055	2638.7265	6186.45	5304.15
990.5298	2639.9931	6146.2	5262.55
990.654	2641.259	6157.8	5272.55
990.7782	2642.5242	6121.85	5239.3
990.9023	2643.7887	6094.9	5212.1
991.0264	2645.0525	6094.8	5212.65
991.1505	2646.3156	6055.55	5172.1
991.2745	2647.5781	6051.1	5168.7
991.3985	2648.8398	6020.05	5138.65
991.5225	2650.1009	6030.55	5110.75
991.6464	2651.3613	5999.7	5118.65
991.7703	2652.6211	5959.85	5077.65
991.8942	2653.8801	5958.45	5077.9
992.018	2655.1385	5942.25	5056.2
992.1418	2656.3961	5912.95	5032.45
992.2655	2657.6531	5914.45	5031.8
992.3892	2658.9094	5891.1	5009
992.5129	2660.1651	5880.5	4997.3
992.6366	2661.42	5850.85	4966.85
992.7602	2662.6743	5848.55	4964.7
992.8837	2663.9279	5832.35	4950.7
993.0073	2665.1808	5808.9	4927.2
993.1307	2666.433	5797.6	4913.3
993.2542	2667.6846	5807.65	4926.8
993.3776	2668.9354	5771.95	4885.95
993.501	2670.1856	5735.55	4852.85
993.6244	2671.4351	5735.4	4851.95
993.7477	2672.6839	5738.9	4855.15
993.8709	2673.9321	5709.8	4828.7
993.9942	2675.1795	5701.1	4816.4
994.1174	2676.4263	5693.45	4809.05
994.2405	2677.6724	5649.8	4768.2
994.3637	2678.9179	5648.3	4764.15
994.4868	2680.1626	5635.7	4756.3
994.6098	2681.4067	5631.55	4749.4
994.7328	2682.6501	5598.75	4715.35
994.8558	2683.8928	5585.05	4701.8
994.9788	2685.1348	5548.25	4666.45
995.1017	2686.3761	5524.3	4642.25
995.2245	2687.6168	5525.2	4644.75
995.3474	2688.8568	5478	4595.4
995.4702	2690.0961	5466	4585.85
995.5929	2691.3348	5465.2	4579.9
995.7156	2692.5727	5430.8	4546.65
995.8383	2693.81	5432.55	4549.9
995.961	2695.0466	5402.1	4520.65
996.0836	2696.2826	5393.7	4511.2
996.2062	2697.5178	5390	4504.75
996.3287	2698.7524	5356.3	4474.9
996.4512	2699.9863	5346.25	4462.1
996.5737	2701.2195	5344.15	4463
996.6961	2702.452	5326.8	4442
996.8185	2703.6839	5303.55	4419.85
996.9408	2704.9151	5302.05	4419.35
997.0631	2706.1456	5276.6	4393.15
997.1854	2707.3755	5251.25	4370
997.3077	2708.6046	5253.45	4369.55
997.4299	2709.8331	5229.5	4346.7
997.552	2711.0609	5216.55	4332.35
997.6742	2712.2881	5193.85	4311
997.7963	2713.5145	5179.1	4294.1
997.9183	2714.7403	5162.25	4280.15
998.0403	2715.9654	5159.2	4277.35
998.1623	2717.1899	5144.8	4246.15
998.2842	2718.4136	5118.15	4236.75
998.4062	2719.6367	5121.8	4238.9
998.528	2720.8591	5110.95	4220
998.6498	2722.0809	5093.15	4211.25
998.7716	2723.3019	5071.7	4188.25
998.8934	2724.5223	5040.55	4158.95
999.0151	2725.7421	5026.6	4142.85
999.1368	2726.9611	5010.4	4126.5
999.2584	2728.1795	5022.55	4137
999.38	2729.3972	4983.55	4100
999.5016	2730.6142	4936.95	4048.8
999.6231	2731.8306	4918.85	4034.65
999.7446	2733.0462	4895.1	4010.3
999.8661	2734.2612	4883.65	3997.15
999.9875	2735.4756	4873.85	3987.95
1000.1089	2736.6892	4824.65	3942.7
1000.2302	2737.9022	4812.35	3929.75
1000.3515	2739.1145	4787.7	3905.55
1000.4728	2740.3262	4778.9	3887.65
1000.594	2741.5372	4759.9	3878.15
1000.7152	2742.7475	4731.4	3848.45
1000.8363	2743.9571	4729.95	3847.05
1000.9575	2745.1661	4718.95	3831.7
1001.0785	2746.3744	4714.55	3830.55
1001.1996	2747.582	4684.8	3803.2
1001.3206	2748.7889	4663.55	3778.6
1001.4415	2749.9952	4640.45	3758.8
1001.5625	2751.2008	4624.5	3741.3
1001.6833	2752.4057	4612.9	3726.35
1001.8042	2753.61	4593.55	3708.55
1001.925	2754.8136	4586.8	3701.7
1002.0458	2756.0165	4573.85	3691.7
1002.1665	2757.2188	4570.25	3688.95
1002.2872	2758.4204	4552.2	3669.45
1002.4078	2759.6213	4545.1	3658.4
1002.5285	2760.8215	4543.25	3656.15
1002.649	2762.0211	4511.35	3626.15
1002.7696	2763.22	4490.8	3604.95
1002.8901	2764.4182	4480.3	3597.8
1003.0106	2765.6158	4474	3589.15
1003.131	2766.8127	4459.1	3575.65
1003.2514	2768.009	4434.7	3553.4
1003.3717	2769.2045	4431.65	3546.2
1003.492	2770.3994	4411.05	3527.5
1003.6123	2771.5936	4404.8	3522.2
1003.7325	2772.7872	4379.5	3498.4
1003.8527	2773.9801	4351.65	3465.85
1003.9729	2775.1723	4349.2	3448.2
1004.093	2776.3639	4327.15	3444.2
1004.2131	2777.5548	4313.65	3428.4
1004.3331	2778.745	4284.15	3401.35
1004.4531	2779.9346	4294.7	3413.15
1004.5731	2781.1235	4290.6	3407.25
1004.693	2782.3117	4273.1	3391.7
1004.8129	2783.4992	4241.45	3361.25
1004.9328	2784.6861	4243	3359.3
1005.0526	2785.8723	4239.6	3356.85
1005.1723	2787.0579	4214.35	3331.8
1005.2921	2788.2428	4203.85	3319.75
1005.4118	2789.427	4179.2	3296.95
1005.5314	2790.6106	4169.6	3286.8
1005.651	2791.7935	4153	3269.65
1005.7706	2792.9757	4135.1	3252.7
1005.8902	2794.1573	4130.5	3245.9
1006.0097	2795.3382	4125.85	3242.45
1006.1291	2796.5184	4109.55	3229.8
1006.2485	2797.698	4082.45	3195.7
1006.3679	2798.8769	4082.9	3202.15
1006.4873	2800.0551	4068.6	3184.25
1006.6066	2801.2327	4037.9	3153.3
1006.7258	2802.4096	4036.8	3154
1006.8451	2803.5859	4013.6	3131.45
1006.9642	2804.7615	4013	3129.9
1007.0834	2805.9364	4011.5	3129.9
1007.2025	2807.1106	3998.85	3115.5
1007.3216	2808.2842	3989.15	3106.45
1007.4406	2809.4572	3976.55	3093.9
1007.5596	2810.6294	3979.95	3093.6
1007.6785	2811.801	3972.65	3093.35
1007.7975	2812.972	3990.5	3109.25
1007.9163	2814.1423	3967.2	3084.95
1008.0352	2815.3119	3962.1	3081
1008.154	2816.4808	3972.95	3091.7
1008.2727	2817.6491	3967.35	3081.2
1008.3914	2818.8167	3984.65	3102.45
1008.5101	2819.9837	4005.1	3116.85
1008.6288	2821.15	4004.45	3122.3
1008.7474	2822.3157	4036.35	3157.05
1008.8659	2823.4807	4059.75	3175.4
1008.9844	2824.645	4088.65	3204.1
1009.1029	2825.8086	4123.9	3241.45
1009.2214	2826.9716	4157.1	3274.1
1009.3398	2828.134	4190.6	3308.45
1009.4581	2829.2957	4212	3329.8
1009.5764	2830.4567	4241.95	3362.5
1009.6947	2831.617	4235.7	3352.1
1009.813	2832.7767	4250.3	3369.05
1009.9312	2833.9358	4239	3355.65
1010.0493	2835.0941	4221.75	3337.75
1010.1675	2836.2519	4215.3	3335
1010.2855	2837.4089	4188.5	3306.7
1010.4036	2838.5653	4168.35	3286.35
1010.5216	2839.7211	4132.85	3250.8
1010.6396	2840.8761	4115.1	3230.9
1010.7575	2842.0306	4095.5	3215.25
1010.8754	2843.1843	4097.45	3212.25
1010.9932	2844.3374	4100.3	3217.8
1011.111	2845.4899	4090.5	3205.2
1011.2288	2846.6417	4110.55	3228.8
1011.3465	2847.7928	4105.35	3224.75
1011.4642	2848.9433	4109.2	3228.55
1011.5818	2850.0931	4109.9	3229.6
1011.6995	2851.2422	4097	3213.8
1011.817	2852.3907	4097.7	3214.45
1011.9345	2853.5385	4078.8	3194.9
1012.052	2854.6857	4097.1	3203.55
1012.1695	2855.8323	4067.9	3184.5
1012.2869	2856.9781	4071.3	3188.75
1012.4042	2858.1233	4100.2	3218.55
1012.5216	2859.2679	4094.9	3213.4
1012.6389	2860.4118	4108	3227.35
1012.7561	2861.555	4119.45	3233.9
1012.8733	2862.6976	4120.9	3236.3
1012.9905	2863.8395	4129	3247.5
1013.1076	2864.9808	4128.8	3245.65
1013.2247	2866.1214	4135.7	3254.4
1013.3417	2867.2614	4120.75	3237.65
1013.4587	2868.4007	4132.75	3248.2
1013.5757	2869.5393	4126.7	3241.5
1013.6926	2870.6773	4124.55	3237.4
1013.8095	2871.8146	4139.2	3255.95
1013.9263	2872.9513	4123.65	3238.45
1014.0431	2874.0874	4114.95	3234.15
1014.1599	2875.2227	4118.8	3235.9
1014.2766	2876.3574	4121.1	3237.7
1014.3933	2877.4915	4118.3	3236.8
1014.51	2878.6249	4111.4	3230.4
1014.6266	2879.7577	4120.5	3238.3
1014.7431	2880.8898	4115.9	3224.5
1014.8596	2882.0212	4111	3231.15
1014.9761	2883.152	4125.6	3244.45
1015.0925	2884.2821	4126.1	3243.7
1015.2089	2885.4116	4129.65	3248.05
1015.3253	2886.5405	4122.45	3240.1
1015.4416	2887.6686	4125.85	3239.5
1015.5579	2888.7962	4114.05	3233.25
1015.6741	2889.923	4101.85	3219.95
1015.7903	2891.0493	4085.9	3203.85
1015.9065	2892.1748	4073.5	3192.15
1016.0226	2893.2997	4057.25	3175.4
1016.1387	2894.424	4044.6	3162.3
1016.2547	2895.5476	4030.8	3148.8
1016.3707	2896.6706	4023.9	3143.4
1016.4866	2897.7929	4019.4	3134.95
1016.6025	2898.9145	4008	3124.05
1016.7184	2900.0355	3992.7	3109.8
1016.8342	2901.1559	3975.65	3093.5
1016.95	2902.2756	3961.1	3077.6
1017.0658	2903.3946	3958.25	3077.05
1017.1815	2904.513	3940.3	3055.65
1017.2971	2905.6308	3916.5	3033
1017.4127	2906.7479	3915.35	3030.6
1017.5283	2907.8643	3903.05	3021.1
1017.6439	2908.9801	3890.2	3007.9
1017.7594	2910.0953	3873.2	2991.25
1017.8748	2911.2098	3884.2	2999
1017.9902	2912.3236	3878.1	2987.65
1018.1056	2913.4368	3841.45	2956.15
1018.2209	2914.5494	3823.3	2941.4
1018.3362	2915.6613	3808.35	2920.6
1018.4515	2916.7725	3781.75	2895.1
1018.5667	2917.8831	3774.95	2891.3
1018.6819	2918.9931	3750.9	2863.65
1018.797	2920.1024	3730.8	2848.65
1018.9121	2921.211	3719.55	2837.65
1019.0271	2922.319	3685.55	2802.45
1019.1421	2923.4264	3679.5	2797.15
1019.2571	2924.5331	3665.85	2784.9
1019.372	2925.6391	3648.2	2767.55
1019.4869	2926.7445	3646.35	2764.3
1019.6017	2927.8493	3638	2754.15
1019.7165	2928.9534	3625.85	2741.85
1019.8313	2930.0569	3623.6	2738.75
1019.946	2931.1597	3642.5	2758
1020.0606	2932.2619	3624.2	2742.5
1020.1753	2933.3634	3643	2760.15
1020.2899	2934.4643	3646.4	2756
1020.4044	2935.5645	3636.45	2748.55
1020.5189	2936.6641	3637.6	2751.2
1020.6334	2937.763	3627.6	2745.55
1020.7478	2938.8613	3619.55	2736.2
1020.8622	2939.959	3611.1	2723.85
1020.9765	2941.056	3587	2706.9
1021.0908	2942.1523	3537.8	2653.9
1021.2051	2943.248	3494.35	2612.8
1021.3193	2944.3431	3431.25	2551.2
1021.4334	2945.4375	3390.5	2508.7
1021.5476	2946.5313	3350.5	2470.2
1021.6617	2947.6244	3302.5	2420.9
1021.7757	2948.7169	3256.9	2373.55
1021.8897	2949.8087	3226.6	2342.5
1022.0037	2950.8999	3167.9	2285.4
1022.1176	2951.9904	3123.5	2241.75
1022.2315	2953.0803	3090.6	2206.5
1022.3453	2954.1696	3053.95	2171.3
1022.4591	2955.2582	3026.9	2145
1022.5728	2956.3462	3018.35	2135.1
1022.6865	2957.4335	3001.05	2119.25
1022.8002	2958.5202	2982.7	2096.75
1022.9138	2959.6062	2969.55	2088.35
1023.0274	2960.6916	2965.75	2083.95
1023.141	2961.7764	2961.6	2077.85
1023.2545	2962.8605	2950.75	2068.4
1023.3679	2963.9439	2939.05	2056
1023.4813	2965.0267	2934.45	2053.65
1023.5947	2966.1089	2942.35	2037.8
1023.708	2967.1905	2899.35	2017.6
1023.8213	2968.2714	2892.85	2011.2
1023.9346	2969.3516	2884.85	2002.5
1024.0478	2970.4312	2871.45	1981.4
1024.1609	2971.5102	2849.8	1968
1024.274	2972.5885	2840.35	1958.9
1024.3871	2973.6662	2845	1958.6
1024.5002	2974.7432	2839.2	1957.7
1024.6132	2975.8196	2819.15	1936.45
1024.7261	2976.8954	2834.2	1951.6
1024.839	2977.9705	2821.3	1937.7
1024.9519	2979.045	2817.9	1935.45
1025.0647	2980.1188	2802.35	1919.95
1025.1775	2981.192	2786.5	1904.75
1025.2902	2982.2645	2801	1917.05
1025.4029	2983.3364	2772.5	1889.8
1025.5156	2984.4077	2754.45	1872.4
1025.6282	2985.4783	2732	1844.55
1025.7407	2986.5483	2719.9	1837.85
1025.8532	2987.6177	2686.55	1805.3
1025.9657	2988.6864	2676.6	1794.1
1026.0782	2989.7545	2664.2	1780.45
1026.1906	2990.8219	2644.85	1764.1
1026.3029	2991.8887	2635.3	1750.2
1026.4152	2992.9548	2610.6	1728
1026.5275	2994.0204	2586.7	1705.35
1026.6397	2995.0852	2554.95	1672.8
1026.7519	2996.1495	2551.75	1668.55
1026.864	2997.2131	2531.05	1647.5
1026.9761	2998.276	2516.9	1635.1
1027.0882	2999.3383	2484.05	1601.95
1027.2002	3000.4	2465.4	1583
1027.3122	3001.4611	2452.55	1570.85
1027.4241	3002.5215	2463.4	1580.45
1027.536	3003.5812	2424.55	1543.65
1027.6478	3004.6404	2412.9	1530.4
1027.7596	3005.6989	2405.4	1520.7
1027.8714	3006.7567	2389.65	1507.05
1027.9831	3007.8139	2407.85	1503.9
1028.0947	3008.8705	2376.15	1495
1028.2064	3009.9264	2377.3	1491.85
1028.3179	3010.9818	2359.55	1476.5
1028.4295	3012.0364	2344.3	1460.4
1028.541	3013.0905	2338.3	1455.8
1028.6524	3014.1439	2344.35	1461.45
1028.7638	3015.1966	2321.3	1441.15
1028.8752	3016.2487	2318.5	1433.75
1028.9865	3017.3002	2312.15	1425.85
1029.0978	3018.3511	2301.1	1420.15
1029.209	3019.4013	2296.2	1414.85
1029.3202	3020.4509	2295.95	1413.65
1029.4314	3021.4998	2283.4	1401.8
1029.5425	3022.5481	2284.65	1401.45
1029.6535	3023.5958	2270.4	1389.15
1029.7645	3024.6428	2256.35	1373.3
1029.8755	3025.6892	2253.75	1373.15
1029.9864	3026.735	2250.45	1367.25
1030.0973	3027.7802	2257.7	1376.3
1030.2082	3028.8247	2239.9	1358
1030.319	3029.8685	2232.8	1350.55
1030.4297	3030.9118	2226.7	1344.85
1030.5404	3031.9544	2222.05	1339.35
1030.6511	3032.9963	2213	1330.55
1030.7617	3034.0376	2205.3	1323
1030.8723	3035.0783	2203.7	1318.3
1030.9829	3036.1184	2195.35	1312.85
1031.0934	3037.1578	2192.8	1311.3
1031.2038	3038.1966	2183.15	1300.25
1031.3142	3039.2348	2182.6	1301.55
1031.4246	3040.2723	2195.05	1305.2
1031.5349	3041.3092	2175.55	1295.7
1031.6452	3042.3455	2170.4	1287.9
1031.7554	3043.3811	2168.35	1285.2
1031.8656	3044.4161	2167.3	1283
1031.9758	3045.4505	2158.6	1277.5
1032.0859	3046.4842	2151.2	1269.1
1032.1959	3047.5173	2146.5	1263.75
1032.3059	3048.5498	2142.9	1262
1032.4159	3049.5816	2139.4	1255.85
1032.5258	3050.6128	2133.6	1249
1032.6357	3051.6434	2132.2	1248.5
1032.7455	3052.6734	2123.55	1239.6
1032.8553	3053.7027	2122.85	1238.5
1032.9651	3054.7314	2124.75	1244.4
1033.0748	3055.7594	2113.7	1229.95
1033.1845	3056.7868	2121.7	1237.45
1033.2941	3057.8136	2100.3	1218.6
1033.4037	3058.8398	2094.95	1212.4
1033.5132	3059.8653	2100.25	1219.95
1033.6227	3060.8902	2092.35	1209.7
1033.7321	3061.9145	2082.3	1199.25
1033.8415	3062.9381	2086.7	1204.75
1033.9509	3063.9612	2096.7	1196.65
1034.0602	3064.9835	2078.3	1195.1
1034.1694	3066.0053	2072	1187.2
1034.2787	3067.0264	2080	1197.1
1034.3878	3068.0469	2073.55	1191
1034.497	3069.0668	2067.6	1183.55
1034.6061	3070.086	2061.3	1182.45
1034.7151	3071.1046	2059.5	1175.7
1034.8241	3072.1226	2044.1	1159.1
1034.9331	3073.1399	2043.15	1160.85
1035.042	3074.1567	2033.65	1150.35
1035.1508	3075.1727	2022.4	1140.3
1035.2597	3076.1882	2017.8	1135.05
1035.3684	3077.203	2014.3	1132.45
1035.4772	3078.2173	2007.8	1123.75
1035.5859	3079.2308	2000.2	1111.95
1035.6945	3080.2438	1995.65	1111.25
1035.8031	3081.2561	1982.55	1100.55
1035.9117	3082.2678	1967.55	1084.75
1036.0202	3083.2789	1961.95	1079.05
1036.1286	3084.2893	1973.05	1091
1036.2371	3085.2991	1967.95	1085.3
1036.3454	3086.3083	1954	1067.85
1036.4538	3087.3169	1950.15	1065
1036.562	3088.3248	1941.1	1058.75
1036.6703	3089.3321	1928.85	1044.3
1036.7785	3090.3388	1928.25	1047.35
1036.8866	3091.3449	1918.65	1034.85
1036.9948	3092.3503	1921.6	1034.45
1037.1028	3093.3551	1905.55	1026.4
1037.2108	3094.3593	1911.65	1030.55
1037.3188	3095.3629	1911.25	1031.7
1037.4267	3096.3658	1894.95	1011.45
1037.5346	3097.3681	1897.5	1014.15
1037.6425	3098.3698	1890.6	1007.65
1037.7503	3099.3708	1885.9	998.25
1037.858	3100.3713	1871.75	989.25
1037.9657	3101.3711	1868.2	985.05
1038.0734	3102.3702	1981.25	962.55
1038.181	3103.3688	1861.6	977.85
1038.2886	3104.3667	1854.15	974.05
1038.3961	3105.364	1835.5	952.4
1038.5036	3106.3607	1844	959.8
1038.611	3107.3568	1841.05	956.8
1038.7184	3108.3522	1822.65	942.25
1038.8257	3109.347	1823.7	942.2
1038.933	3110.3412	1822.85	936.15
1039.0403	3111.3348	1809.6	925.7
1039.1475	3112.3277	1809.4	927.1
1039.2547	3113.32	1802.95	922.05
1039.3618	3114.3117	1794.45	909.8
1039.4689	3115.3028	1790.6	907.85
1039.5759	3116.2932	1781.1	895.95
1039.6829	3117.2831	1779.85	893.45
1039.7898	3118.2723	1760.55	879.35
1039.8967	3119.2608	1757.05	874.25
1040.0035	3120.2488	1747.75	864.4
1040.1103	3121.2361	1754.35	870.95
1040.2171	3122.2229	1742.5	859.1
1040.3238	3123.209	1743.5	860.6
1040.4305	3124.1944	1730	849.65
1040.5371	3125.1793	1734	849.1
1040.6437	3126.1635	1728.9	848.5
1040.7502	3127.1471	1731.25	847.7
1040.8567	3128.1301	1717.1	835.55
1040.9631	3129.1125	1715.9	833.35
1041.0695	3130.0942	1724.3	841.45
1041.1759	3131.0753	1716.25	825.4
1041.2822	3132.0558	1702.45	816.9
1041.3884	3133.0357	1699.65	817.85
1041.4946	3134.015	1686.85	803.3
1041.6008	3134.9936	1687.25	802.95
1041.7069	3135.9716	1700.05	796.4
1041.813	3136.949	1674.35	791.1
1041.919	3137.9258	1681.4	791
1042.025	3138.902	1678.45	790.45
1042.1309	3139.8775	1672	788.85
1042.2368	3140.8524	1673.25	791.55
1042.3427	3141.8267	1666.25	782.5
1042.4485	3142.8004	1665.95	784.7
1042.5542	3143.7735	1662.75	774.5
1042.6599	3144.7459	1663.05	779.55
1042.7656	3145.7178	1657.45	774.05
1042.8712	3146.689	1645.7	765.3
1042.9768	3147.6596	1653.55	769.1
1043.0823	3148.6295	1641.35	759.35
1043.1878	3149.5989	1634.25	751.2
1043.2932	3150.5676	1621.7	741.35
1043.3986	3151.5357	1627.5	746.75
1043.5039	3152.5032	1622.1	740.2
1043.6092	3153.4701	1621.25	739.65
1043.7145	3154.4364	1626.45	742.45
1043.8197	3155.402	1609.35	728.25
1043.9248	3156.367	1603.8	720.75
1044.03	3157.3315	1646.75	726.05
1044.135	3158.2952	1601.7	719.15
1044.24	3159.2584	1591.1	707.85
1044.345	3160.221	1587.95	705.15
1044.4499	3161.1829	1588.8	706.45
1044.5548	3162.1442	1584.85	703.25
1044.6596	3163.105	1577	695.45
1044.7644	3164.065	1577.35	694.45
1044.8692	3165.0245	1570.1	685.6
1044.9739	3165.9834	1569.4	688.9
1045.0785	3166.9416	1559.2	676.75
1045.1831	3167.8993	1557.25	675
1045.2877	3168.8563	1560.05	677.15
1045.3922	3169.8127	1551.3	669.1
1045.4966	3170.7684	1544.5	663.8
1045.6011	3171.7236	1548.35	664.7
1045.7054	3172.6782	1545.85	662.7
1045.8098	3173.6321	1544.3	663.95
1045.914	3174.5854	1537.4	651.75
1046.0183	3175.5381	1522.15	639.75
1046.1224	3176.4902	1526.35	643.3
1046.2266	3177.4417	1516.05	633.75
1046.3307	3178.3926	1519.5	637.4
1046.4347	3179.3428	1514.9	633.85
1046.5387	3180.2924	1511.05	627.25
1046.6427	3181.2415	1508.7	626.85
1046.7466	3182.1899	1504.7	621.15
1046.8504	3183.1377	1499.85	617.8
1046.9542	3184.0848	1500.8	616.6
1047.058	3185.0314	1496.75	613
1047.1617	3185.9773	1498.55	615.85
1047.2654	3186.9227	1489.75	607.2
1047.369	3187.8674	1482.5	601.8
1047.4726	3188.8115	1477.75	591.75
1047.5761	3189.755	1480.2	598.75
1047.6796	3190.6979	1478.4	595.35
1047.783	3191.6402	1476.55	596.75
1047.8864	3192.5818	1467.3	585.1
1047.9898	3193.5229	1470.1	580.25
1048.0931	3194.4633	1470.7	589
1048.1963	3195.4031	1463.5	581.85
1048.2995	3196.3423	1456.1	572.75
1048.4027	3197.2809	1449.05	565.95
1048.5058	3198.2189	1447.35	563.35
1048.6089	3199.1563	1450.15	560.7
1048.7119	3200.0931	1449.6	568.1
1048.8148	3201.0292	1442.3	560.25
1048.9178	3201.9648	1440.75	558.15
1049.0206	3202.8997	1438.1	551.7
1049.1235	3203.834	1426.65	542.35
1049.2262	3204.7677	1432.15	551.4
1049.329	3205.7008	1431	546.2
1049.4317	3206.6333	1423.5	543.4
1049.5343	3207.5652	1425.25	539.45
1049.6369	3208.4964	1423	541.45
1049.7394	3209.4271	1421.35	538.9
1049.8419	3210.3571	1414.45	532.2
1049.9444	3211.2865	1412.45	528.7
1050.0468	3212.2154	1409.6	525.05
1050.1491	3213.1436	1410.1	525.95
1050.2514	3214.0712	1412.3	522.55
1050.3537	3214.9982	1408.45	526.9
1050.4559	3215.9246	1397.7	514.5
1050.5581	3216.8503	1395.55	514.7
1050.6602	3217.7755	1387.65	504.15
1050.7623	3218.7001	1395.85	513.55
1050.8643	3219.624	1392.35	507.35
1050.9663	3220.5473	1385.95	501.5
1051.0682	3221.4701	1382.3	498.35
1051.1701	3222.3922	1381.2	495.8
1051.2719	3223.3137	1377.75	495.9
1051.3737	3224.2346	1375.6	493.6
1051.4754	3225.1549	1365.1	482
1051.5771	3226.0746	1367.5	484.65
1051.6788	3226.9937	1369.5	487.65
1051.7804	3227.9121	1352.95	470.85
1051.8819	3228.83	1367.5	486.6
1051.9834	3229.7473	1354.15	471.2
1052.0849	3230.6639	1354	472.45
1052.1863	3231.5799	1352.15	468.7
1052.2876	3232.4954	1355.6	471.1
1052.3889	3233.4102	1346.65	465.4
1052.4902	3234.3244	1347.25	463.6
1052.5914	3235.238	1337.05	454.75
1052.6926	3236.151	1362.3	455.2
1052.7937	3237.0634	1328.8	449.15
1052.8948	3237.9752	1328.8	446.15
1052.9958	3238.8864	1330	448.05
1053.0968	3239.797	1327.3	445.45
1053.1977	3240.7069	1324.7	442.65
1053.2986	3241.6163	1319.5	435.25
1053.3994	3242.5251	1319.6	438.75
1053.5002	3243.4332	1312.55	429.75
1053.6009	3244.3408	1321.15	436.85
1053.7016	3245.2477	1312.05	429.55
1053.8022	3246.154	1308.45	427.25
1053.9028	3247.0598	1303.85	421
1054.0034	3247.9649	1303.35	422.35
1054.1039	3248.8694	1304.35	422
1054.2043	3249.7733	1303.85	421.7
1054.3047	3250.6766	1294.7	412.65
1054.4051	3251.5793	1294.85	411.25
1054.5054	3252.4814	1292.55	410.9
1054.6056	3253.3829	1283.15	400.1
1054.7058	3254.2838	1280.35	399.35
1054.806	3255.1841	1278.85	397.6
1054.9061	3256.0838	1269.6	386.55
1055.0061	3256.9829	1273.25	392.3
1055.1062	3257.8814	1273.15	387.9
1055.2061	3258.7792	1274.7	391.5
1055.306	3259.6765	1266.9	383.15
1055.4059	3260.5731	1261.5	380.8
1055.5057	3261.4692	1256.3	373.9
1055.6055	3262.3647	1253.7	370.35
1055.7052	3263.2595	1242.7	359.75
1055.8049	3264.1538	1243	359.85
1055.9045	3265.0474	1235.75	353.3
1056.0041	3265.9404	1228.75	347.75
1056.1036	3266.8329	1223.3	342.25
1056.2031	3267.7247	1227.25	336.95
1056.3025	3268.616	1209.85	329.2
1056.4019	3269.5066	1198.85	316.9
1056.5013	3270.3966	1194.5	309.8
1056.6005	3271.286	1182.75	300.2
