Software Version:	3.9.2.0
Unit SN:	10000200
Spectrometer SN:	6960
Date:	3/6/2024 10:23:43 AM
Data Line Index:	25
Spectral Points:	2048
Integration time (ms):	125
Averages:	20
Delay (ms):	30
Sequence Number:	1
Processing:	dark subtract
Laser Power (mW):	305
Laser Current (mA):	825
Laser Diode Temp (C):	25.1
Laser Case Temp (C):	25.7
System Temp (C):	25.5
Spectrometer Temp (C):	23
CCD Temp (C):	0.002
Secondary Temp (C):	20.007
Heatsink Temp (C):	21.036
CCDPCB Temp (C):	35.206
SecondaryPCB Temp (C):	28.215

Wavelength	RamanShift	Raw Counts	Dark Subtracted
787.061	30.1047	1053.6	643.35
787.2016	32.3739	1078.35	670.75
787.3422	34.6426	1120.65	710.9
787.4828	36.9109	1166.5	754.85
787.6235	39.1787	1218.05	802.7
787.7642	41.4461	1274.65	855.9
787.9049	43.7131	1329.45	906.55
788.0456	45.9796	1382.95	956.15
788.1863	48.2456	1445.8	1015.5
788.3271	50.5112	1509	1075.1
788.4679	52.7764	1560.75	1123.55
788.6087	55.0411	1648.55	1210.2
788.7496	57.3054	1715.25	1267.15
788.8904	59.5692	1796.4	1346.65
789.0313	61.8326	1883.5	1429.6
789.1722	64.0955	1969.5	1514
789.3132	66.3579	2091.25	1630.05
789.4541	68.6199	2227.75	1762.25
789.5951	70.8815	2455.85	1989.85
789.7361	73.1426	2958.9	2487.4
789.8771	75.4032	4213.5	3736.6
790.0181	77.6634	7473.25	6992.3
790.1592	79.9231	15903.6	15418.45
790.3003	82.1824	50083.05	49584.75
790.4414	84.4412	65535	65017.75
790.5825	86.6995	65535	64989.8
790.7237	88.9574	65535	64960.3
790.8648	91.2148	65535	64944.2
791.006	93.4717	65535	64933.55
791.1472	95.7282	65535	64930.9
791.2885	97.9842	65535	64929.85
791.4297	100.2398	65535	64924.6
791.571	102.4949	65535	64920.9
791.7123	104.7495	65535	64916.25
791.8536	107.0036	65535	64914.7
791.9949	109.2573	65535	64919
792.1363	111.5105	65535	64916.15
792.2777	113.7632	65535	64915.15
792.4191	116.0154	65535	64903
792.5605	118.2672	65535	64910.6
792.7019	120.5185	65535	64908.65
792.8434	122.7693	65535	64907.15
792.9849	125.0197	65535	64901.2
793.1264	127.2696	65535	64896.7
793.2679	129.519	65535	64897.7
793.4094	131.7679	65535	64891.8
793.551	134.0163	65535	64890.35
793.6926	136.2642	65535	64884.6
793.8342	138.5117	65535	64876.55
793.9758	140.7587	65535	64881.9
794.1175	143.0052	65535	64882.3
794.2591	145.2512	65535	64880.05
794.4008	147.4967	65535	64878.1
794.5425	149.7417	65535	64873.45
794.6842	151.9863	65535	64872.25
794.826	154.2304	65535	64870.2
794.9677	156.4739	65535	64860.75
795.1095	158.717	65535	64859.95
795.2513	160.9596	65535	64856.9
795.3931	163.2017	65535	64852.85
795.535	165.4433	65535	64853.2
795.6768	167.6844	65535	64851.95
795.8187	169.925	65535	64849.55
795.9606	172.1651	65535	64848.3
796.1025	174.4047	65535	64841.5
796.2445	176.6439	65535	64841.5
796.3864	178.8825	65535	64839.2
796.5284	181.1206	65535	64837.35
796.6704	183.3582	65535	64830.6
796.8124	185.5954	65535	64830.35
796.9544	187.832	65535	64825.4
797.0965	190.0681	65535	64820.8
797.2386	192.3037	65535	64819.75
797.3806	194.5388	65535	64818.15
797.5228	196.7734	65535	64817.05
797.6649	199.0075	65535	64810.7
797.807	201.2411	65535	64812.2
797.9492	203.4742	65535	64809
798.0914	205.7068	65535	64805.5
798.2336	207.9389	65535	64806.8
798.3758	210.1704	65535	64804.3
798.518	212.4015	65535	64809.1
798.6603	214.632	65535	64815.7
798.8025	216.862	65535	64822
798.9448	219.0915	65535	64823.85
799.0871	221.3205	65535	64822.15
799.2294	223.549	65535	64824.75
799.3718	225.777	65535	64826.75
799.5141	228.0044	65535	64822.55
799.6565	230.2314	65535	64821.3
799.7989	232.4578	65535	64817.95
799.9413	234.6837	65535	64806.6
800.0837	236.909	65535	64805.45
800.2262	239.1339	65535	64781.45
800.3687	241.3582	65535	64794
800.5111	243.582	65535	64765.3
800.6536	245.8053	65535	64777.05
800.7961	248.0281	65535	64784.6
800.9387	250.2503	65535	64780
801.0812	252.472	65535	64780.85
801.2238	254.6932	65535	64777.45
801.3664	256.9139	65535	64776.4
801.509	259.134	65535	64771.75
801.6516	261.3536	65535	64775.15
801.7942	263.5727	65535	64769.3
801.9369	265.7912	65535	64773.5
802.0795	268.0092	65535	64773.9
802.2222	270.2267	65535	64773.15
802.3649	272.4436	65535	64769.05
802.5076	274.6601	65535	64761.9
802.6504	276.8759	65535	64764.35
802.7931	279.0913	65535	64761.3
802.9359	281.3061	65535	64759.7
803.0787	283.5204	65535	64758.6
803.2215	285.7341	65535	64755.95
803.3643	287.9473	65535	64743.8
803.5071	290.16	65535	64750.65
803.6499	292.3721	65535	64759.25
803.7928	294.5837	65535	64757.65
803.9357	296.7947	65535	64756.85
804.0786	299.0052	65535	64756.5
804.2215	301.2152	65535	64754.95
804.3644	303.4246	65535	64756.55
804.5074	305.6334	65535	64756.35
804.6503	307.8418	65535	64750.6
804.7933	310.0495	65535	64752.95
804.9363	312.2568	65535	64748.45
805.0793	314.4635	65535	64748.75
805.2223	316.6696	65535	64744.6
805.3653	318.8752	65535	64739.65
805.5084	321.0802	65535	64745.7
805.6514	323.2847	65535	64744.55
805.7945	325.4887	65535	64742.7
805.9376	327.692	65535	64744
806.0807	329.8949	65535	64742.4
806.2238	332.0972	65535	64738.3
806.367	334.2989	65535	64735.85
806.5101	336.5001	65535	64737.2
806.6533	338.7007	65535	64736.25
806.7965	340.9008	65535	64735.8
806.9397	343.1003	65535	64733.6
807.0829	345.2992	65535	64733.95
807.2261	347.4976	65535	64732.1
807.3693	349.6955	65535	64726
807.5126	351.8927	65535	64726.55
807.6559	354.0895	65535	64714.6
807.7991	356.2856	65535	64722.15
807.9424	358.4812	65535	64725.05
808.0857	360.6763	65535	64722.35
808.2291	362.8707	65535	64723.15
808.3724	365.0646	65535	64718.7
808.5158	367.258	65535	64718.45
808.6591	369.4508	65535	64713.15
808.8025	371.643	65535	64713.25
808.9459	373.8346	65535	64713.7
809.0893	376.0257	65535	64706.85
809.2327	378.2162	65535	64706.15
809.3762	380.4062	65535	64706.7
809.5196	382.5956	65535	64710.4
809.6631	384.7844	65535	64710.35
809.8066	386.9726	65535	64712.4
809.9501	389.1603	65535	64716.45
810.0936	391.3474	65535	64678.25
810.2371	393.5339	65535	64716.6
810.3806	395.7199	65535	64717.55
810.5241	397.9052	65535	64718.25
810.6677	400.09	65535	64717.35
810.8113	402.2743	65535	64716.1
810.9548	404.4579	65535	64718.35
811.0984	406.641	65535	64716.05
811.2421	408.8235	65535	64714.35
811.3857	411.0054	65535	64708.5
811.5293	413.1868	65535	64704.4
811.673	415.3675	65535	64701.2
811.8166	417.5477	65535	64701.95
811.9603	419.7273	65535	64700.25
812.104	421.9064	65535	64691.85
812.2477	424.0848	65535	64699.2
812.3914	426.2627	65535	64698.2
812.5351	428.4399	65535	64697.55
812.6788	430.6166	65535	64696.95
812.8226	432.7928	65535	64690.3
812.9663	434.9683	65535	64689.9
813.1101	437.1432	65535	64689.55
813.2539	439.3176	65535	64692.45
813.3977	441.4914	65535	64692.8
813.5415	443.6645	65535	64693.25
813.6853	445.8371	65535	64691.95
813.8291	448.0091	65535	64692.9
813.973	450.1806	65535	64690.65
814.1168	452.3514	65535	64687.85
814.2607	454.5216	65535	64682.3
814.4046	456.6913	65535	64687.2
814.5485	458.8603	65535	64690.15
814.6924	461.0288	65535	64691.3
814.8363	463.1967	65535	64689.95
814.9802	465.3639	65535	64685.75
815.1241	467.5306	65535	64686.3
815.2681	469.6967	65535	64688.15
815.412	471.8622	65535	64688.9
815.556	474.0271	65535	64688
815.7	476.1914	65535	64686.35
815.844	478.3551	65535	64686.2
815.988	480.5182	65535	64683.9
816.132	482.6807	65535	64684.25
816.276	484.8426	65535	64684.45
816.4201	487.0039	65535	64684.45
816.5641	489.1647	65535	64684.7
816.7082	491.3248	65535	64684.35
816.8522	493.4843	65535	64687.15
816.9963	495.6432	65535	64684.05
817.1404	497.8015	65535	64677.25
817.2845	499.9592	65535	64678.7
817.4286	502.1163	65535	64676.6
817.5727	504.2728	65535	64678.05
817.7168	506.4287	65535	64679.6
817.861	508.5839	65535	64680.95
818.0051	510.7386	65535	64678.7
818.1493	512.8927	65535	64673.25
818.2935	515.0461	65535	64675.45
818.4377	517.199	65535	64677.2
818.5818	519.3512	65535	64675.4
818.726	521.5029	65535	64669.45
818.8703	523.6539	65535	64676.9
819.0145	525.8043	65535	64673.05
819.1587	527.9541	65535	64669.15
819.303	530.1033	65535	64670.55
819.4472	532.2519	65535	64674.5
819.5915	534.3999	65535	64670.05
819.7357	536.5472	65535	64672.5
819.88	538.694	65535	64674.8
820.0243	540.8401	65535	64671.9
820.1686	542.9856	65535	64670.3
820.3129	545.1305	65535	64667.45
820.4572	547.2748	65535	64669.35
820.6016	549.4185	65535	64665.45
820.7459	551.5615	65535	64666.25
820.8902	553.704	65535	64669.2
821.0346	555.8458	65535	64666.15
821.1789	557.987	65535	64667.2
821.3233	560.1276	65535	64666.9
821.4677	562.2675	65535	64669.8
821.6121	564.4069	65535	64667.6
821.7565	566.5456	65535	64667.8
821.9009	568.6837	65535	64662.7
822.0453	570.8212	65535	64664.5
822.1897	572.958	65535	64662.55
822.3342	575.0942	65535	64667.85
822.4786	577.2299	65535	64665.2
822.6231	579.3648	65535	64666.85
822.7675	581.4992	65535	64666.9
822.912	583.6329	65535	64669.55
823.0565	585.766	65535	64667.95
823.201	587.8985	65535	64669.3
823.3454	590.0304	65535	64643.55
823.4899	592.1616	65535	64662.7
823.6345	594.2922	65535	64666.25
823.779	596.4222	65535	64660.6
823.9235	598.5515	65535	64661.6
824.068	600.6802	65535	64660.25
824.2126	602.8083	65535	64659.85
824.3571	604.9358	65535	64660.75
824.5017	607.0626	65535	64661.1
824.6462	609.1888	65535	64659.75
824.7908	611.3144	65535	64655.6
824.9354	613.4393	65535	64658.8
825.08	615.5636	65535	64660.65
825.2246	617.6873	65535	64661.65
825.3692	619.8103	65535	64656.1
825.5138	621.9327	65535	64657.2
825.6584	624.0544	65535	64659.85
825.803	626.1756	65535	64657.3
825.9477	628.2961	65535	64656.9
826.0923	630.4159	65535	64657.6
826.237	632.5351	65535	64656.55
826.3816	634.6537	65535	64659.05
826.5263	636.7716	65535	64650.45
826.6709	638.8889	65535	64654.05
826.8156	641.0056	65535	64656.05
826.9603	643.1216	65535	64653.8
827.105	645.237	65535	64655.65
827.2497	647.3518	65535	64653.1
827.3944	649.4659	65535	64654.7
827.5391	651.5793	65535	64653.65
827.6838	653.6922	65535	64656.7
827.8285	655.8043	65535	64654.3
827.9733	657.9159	65535	64652.35
828.118	660.0268	65535	64651.2
828.2627	662.137	65535	64652.65
828.4075	664.2466	65535	64647.55
828.5522	666.3556	65535	64650.85
828.697	668.4639	65535	64648.9
828.8418	670.5716	65535	64651.5
828.9865	672.6786	65535	64652.9
829.1313	674.785	65535	64649.2
829.2761	676.8907	65535	64647.3
829.4209	678.9958	65535	64649.95
829.5657	681.1002	65535	64648.85
829.7105	683.204	65535	64643.35
829.8553	685.3072	65535	64646.15
830.0001	687.4097	65535	64646.55
830.1449	689.5115	65535	64647.95
830.2898	691.6127	65535	64646.75
830.4346	693.7132	65535	64647.4
830.5794	695.8131	65535	64640.4
830.7243	697.9123	65535	64647.15
830.8691	700.0109	65535	64648.1
831.014	702.1089	65535	64648.45
831.1588	704.2061	65535	64648.6
831.3037	706.3028	65535	64645.9
831.4486	708.3987	65535	64646.7
831.5935	710.4941	65535	64646.65
831.7383	712.5887	65535	64646.35
831.8832	714.6827	65535	64643.25
832.0281	716.7761	65535	64647.15
832.173	718.8688	65535	64641.8
832.3179	720.9608	65535	64641.75
832.4628	723.0522	65535	64642.05
832.6077	725.1429	65535	64642.7
832.7527	727.233	65535	64643.8
832.8976	729.3224	65535	64645.5
833.0425	731.4112	65535	64644.35
833.1874	733.4993	65535	64639.35
833.3324	735.5867	65535	64642.85
833.4773	737.6735	65535	64641.05
833.6222	739.7596	65535	64640.5
833.7672	741.845	65535	64643.7
833.9122	743.9298	65535	64642.05
834.0571	746.014	65535	64644.35
834.2021	748.0974	65535	64639.5
834.347	750.1802	65535	64637.55
834.492	752.2624	65535	64640.15
834.637	754.3439	65535	64638.55
834.782	756.4247	65535	64634.15
834.9269	758.5048	65535	64642.6
835.0719	760.5843	65535	64639.5
835.2169	762.6631	65535	64640.95
835.3619	764.7413	65535	64640.25
835.5069	766.8188	65535	64639.05
835.6519	768.8956	65535	64637.65
835.7969	770.9718	65535	64642
835.9419	773.0473	65535	64642.2
836.0869	775.1221	65535	64643.95
836.232	777.1962	65535	64641.95
836.377	779.2697	65535	64641.25
836.522	781.3426	65535	64620.2
836.667	783.4147	65535	64637.45
836.8121	785.4862	65535	64642.45
836.9571	787.557	65535	64637.9
837.1021	789.6271	65535	64638.75
837.2472	791.6966	65535	64639.3
837.3922	793.7654	65535	64638.25
837.5373	795.8335	65535	64640.75
837.6823	797.901	65535	64638.4
837.8274	799.9678	65535	64635.3
837.9724	802.0339	65535	64641.9
838.1175	804.0993	65535	64632.75
838.2626	806.1641	65535	64637.65
838.4076	808.2282	65535	64639
838.5527	810.2916	65535	64633.85
838.6978	812.3544	65535	64639.85
838.8428	814.4164	65535	64640.6
838.9879	816.4778	65535	64640.95
839.133	818.5385	65535	64640.15
839.2781	820.5986	65535	64636.95
839.4232	822.658	65535	64638.45
839.5682	824.7166	65535	64638.45
839.7133	826.7747	65535	64638.75
839.8584	828.832	65535	64636.2
840.0035	830.8886	65535	64635.25
840.1486	832.9446	65535	64635.5
840.2937	834.9999	65535	64638
840.4388	837.0545	65535	64634.65
840.5839	839.1085	65535	64633.2
840.729	841.1618	65535	64633.65
840.8741	843.2143	65535	64635.65
841.0192	845.2662	65535	64635.45
841.1643	847.3175	65535	64637.6
841.3095	849.368	65535	64639.05
841.4546	851.4179	65535	64635.7
841.5997	853.467	65535	64636.8
841.7448	855.5155	65535	64635.4
841.8899	857.5633	65535	64636.35
842.0351	859.6105	65535	64634.95
842.1802	861.6569	65535	64634.2
842.3253	863.7027	65535	64633.8
842.4704	865.7478	65535	64636.15
842.6156	867.7922	65535	64635.1
842.7607	869.8359	65535	64636.7
842.9058	871.8789	65535	64637.55
843.0509	873.9212	65535	64605.35
843.1961	875.9629	65535	64635.05
843.3412	878.0039	65535	64631.55
843.4863	880.0441	65535	64636.15
843.6315	882.0837	65535	64634.6
843.7766	884.1226	65535	64631.1
843.9218	886.1609	65535	64635.15
844.0669	888.1984	65535	64638.95
844.212	890.2352	65535	64635.45
844.3572	892.2714	65535	64632.2
844.5023	894.3069	65535	64634
844.6475	896.3416	65535	64631.9
844.7926	898.3757	65535	64634.05
844.9377	900.4091	65535	64631.7
845.0829	902.4418	65535	64629.1
845.228	904.4739	65535	64635.25
845.3732	906.5052	65535	64635.65
845.5183	908.5358	65535	64634.8
845.6635	910.5658	65535	64634
845.8086	912.595	65535	64632.55
845.9538	914.6236	65535	64633.2
846.0989	916.6515	65535	64634.55
846.2441	918.6786	65535	64632.25
846.3892	920.7051	65535	64632.95
846.5344	922.7309	65535	64631.2
846.6795	924.756	65535	64633.65
846.8246	926.7804	65535	64631.4
846.9698	928.8041	65535	64629.15
847.1149	930.8272	65535	64635.7
847.2601	932.8495	65535	64630.25
847.4052	934.8711	65535	64629.35
847.5504	936.892	65535	64632.95
847.6955	938.9123	65535	64630.85
847.8407	940.9318	65535	64630.7
847.9858	942.9506	65535	64632.85
848.131	944.9688	65535	64630.85
848.2761	946.9862	65535	64632.65
848.4213	949.003	65535	64632.35
848.5664	951.019	65535	64633.4
848.7115	953.0344	65535	64631.25
848.8567	955.0491	65535	64629.85
849.0018	957.063	65535	64635.7
849.147	959.0763	65535	64634.25
849.2921	961.0888	65535	64629.95
849.4373	963.1007	65535	64634.45
849.5824	965.1119	65535	64633.4
849.7275	967.1223	65535	64633.65
849.8727	969.1321	65535	64635.2
850.0178	971.1412	65535	64633.75
850.1629	973.1495	65535	64634.4
850.3081	975.1572	65535	64603.15
850.4532	977.1641	65535	64632.7
850.5983	979.1704	65535	64632.1
850.7435	981.1759	65535	64630.9
850.8886	983.1808	65535	64629.25
851.0337	985.1849	65535	64621.7
851.1788	987.1884	65535	64630.05
851.324	989.1911	65535	64628.55
851.4691	991.1932	65535	64629.65
851.6142	993.1945	65535	64634.5
851.7593	995.1951	65535	64633.65
851.9045	997.1951	65535	64627.9
852.0496	999.1943	65535	64632.75
852.1947	1001.1928	65535	64631.3
852.3398	1003.1906	65535	64631.35
852.4849	1005.1877	65535	64627.05
852.63	1007.1841	65535	64631.85
852.7751	1009.1798	65535	64632.25
852.9202	1011.1748	65535	64632.8
853.0653	1013.1691	65535	64630.5
853.2104	1015.1627	65535	64633
853.3555	1017.1556	65535	64632.05
853.5006	1019.1477	65535	64631
853.6457	1021.1392	65535	64633.6
853.7908	1023.1299	65535	64633.3
853.9359	1025.12	65535	64633.95
854.081	1027.1093	65535	64637.15
854.2261	1029.0979	65535	64636.1
854.3712	1031.0859	65535	64637.8
854.5163	1033.0731	65535	64633.4
854.6613	1035.0596	65535	64633.75
854.8064	1037.0454	65535	64632.8
854.9515	1039.0304	65535	64634.15
855.0965	1041.0148	65535	64632.1
855.2416	1042.9985	65535	64628.15
855.3867	1044.9814	65535	64634.3
855.5317	1046.9636	65535	64631.95
855.6768	1048.9452	65535	64636.15
855.8219	1050.926	65535	64635.05
855.9669	1052.9061	65535	64632.5
856.112	1054.8855	65535	64633.2
856.257	1056.8642	65535	64633.4
856.4021	1058.8421	65535	64629.3
856.5471	1060.8194	65535	64633.9
856.6921	1062.7959	65535	64634.2
856.8372	1064.7717	65535	64633.25
856.9822	1066.7469	65535	64632.85
857.1272	1068.7213	65535	64631.65
857.2723	1070.695	65535	64631.8
857.4173	1072.6679	65535	64632.3
857.5623	1074.6402	65535	64630.8
857.7073	1076.6117	65535	64627.6
857.8523	1078.5826	65535	64630.7
857.9973	1080.5527	65535	64629.9
858.1423	1082.5221	65535	64633.7
858.2873	1084.4908	65535	64632.4
858.4323	1086.4587	65535	64631.45
858.5773	1088.426	65535	64632.8
858.7223	1090.3925	65535	64627.15
858.8673	1092.3584	65535	64633.65
859.0123	1094.3235	65535	64635.7
859.1573	1096.2879	65535	64632.9
859.3022	1098.2515	65535	64632.75
859.4472	1100.2145	65535	64633.5
859.5922	1102.1767	65535	64630.45
859.7371	1104.1382	65535	64632.65
859.8821	1106.099	65535	64631
860.027	1108.0591	65535	64634
860.172	1110.0185	65535	64629.7
860.3169	1111.9771	65535	64634.35
860.4619	1113.9351	65535	64633.9
860.6068	1115.8923	65535	64632.1
860.7517	1117.8488	65535	64631.55
860.8967	1119.8045	65535	64632.55
861.0416	1121.7596	65535	64633.5
861.1865	1123.7139	65535	64632.25
861.3314	1125.6675	65535	64634.5
861.4763	1127.6204	65535	64632.35
861.6212	1129.5726	65535	64630.95
861.7661	1131.524	65535	64632.15
861.911	1133.4748	65535	64631.65
862.0559	1135.4248	65535	64630.45
862.2008	1137.3741	65535	64631.5
862.3457	1139.3226	65535	64634.85
862.4905	1141.2705	65535	64632.55
862.6354	1143.2176	65535	64629.9
862.7803	1145.164	65535	64629.8
862.9251	1147.1097	65535	64632.5
863.07	1149.0546	65535	64631.6
863.2148	1150.9989	65535	64630.6
863.3597	1152.9424	65535	64632.65
863.5045	1154.8852	65535	64628.5
863.6493	1156.8272	65535	64634.75
863.7942	1158.7686	65535	64626.5
863.939	1160.7092	65535	64632.5
864.0838	1162.6491	65535	64630.05
864.2286	1164.5883	65535	64632.35
864.3734	1166.5267	65535	64632.5
864.5182	1168.4644	65535	64631
864.663	1170.4014	65535	64627.55
864.8078	1172.3377	65535	64631.45
864.9526	1174.2732	65535	64634.15
865.0974	1176.2081	65535	64634.7
865.2421	1178.1421	65535	64627.7
865.3869	1180.0755	65535	64634.15
865.5317	1182.0082	65535	64633.5
865.6764	1183.9401	65535	64633.55
865.8212	1185.8713	65535	64633.8
865.9659	1187.8017	65535	64634.15
866.1106	1189.7315	65535	64637.25
866.2554	1191.6605	65535	64607.65
866.4001	1193.5888	65535	64635.7
866.5448	1195.5163	65535	64634.9
866.6895	1197.4432	65535	64633.8
866.8342	1199.3693	65535	64633.35
866.9789	1201.2947	65535	64631.7
867.1236	1203.2193	65535	64630.35
867.2683	1205.1432	65535	64629
867.413	1207.0664	65535	64632.7
867.5576	1208.9889	65535	64631.3
867.7023	1210.9106	65535	64633.45
867.847	1212.8316	65535	64634.15
867.9916	1214.7519	65535	64625.7
868.1363	1216.6715	65535	64633.65
868.2809	1218.5903	65535	64633.95
868.4255	1220.5084	65535	64632.7
868.5701	1222.4257	65535	64630.95
868.7148	1224.3424	65535	64637.15
868.8594	1226.2583	65535	64631.2
869.004	1228.1735	65535	64635.7
869.1486	1230.0879	65535	64633.05
869.2932	1232.0016	65535	64631.9
869.4377	1233.9146	65535	64631.7
869.5823	1235.8269	65535	64633.2
869.7269	1237.7384	65535	64634.15
869.8715	1239.6492	65535	64632.4
870.016	1241.5592	65535	64632.9
870.1606	1243.4686	65535	64635.3
870.3051	1245.3772	65535	64634.6
870.4496	1247.285	65535	64634.8
870.5941	1249.1922	65535	64635.6
870.7387	1251.0986	65535	64634.4
870.8832	1253.0042	65535	64630.8
871.0277	1254.9092	65535	64633.9
871.1722	1256.8134	65535	64633.75
871.3167	1258.7169	65535	64633.45
871.4611	1260.6196	65535	64633.15
871.6056	1262.5216	65535	64633.3
871.7501	1264.4229	65535	64635.25
871.8945	1266.3234	65535	64632.6
872.039	1268.2232	65535	64632.55
872.1834	1270.1223	65535	64636.4
872.3278	1272.0207	65535	64633.55
872.4723	1273.9183	65535	64627.85
872.6167	1275.8151	65535	64634.35
872.7611	1277.7113	65535	64634.55
872.9055	1279.6067	65535	64635.85
873.0499	1281.5014	65535	64631.8
873.1943	1283.3953	65535	64632.55
873.3386	1285.2885	65535	64635.55
873.483	1287.181	65535	64632.65
873.6274	1289.0727	65535	64632.5
873.7717	1290.9637	65535	64634.05
873.9161	1292.854	65535	64635.2
874.0604	1294.7435	65535	64633.75
874.2047	1296.6323	65535	64635.4
874.349	1298.5204	65535	64631.9
874.4933	1300.4077	65535	64633.2
874.6376	1302.2943	65535	64634.95
874.7819	1304.1802	65535	64634.75
874.9262	1306.0653	65535	64632.45
875.0705	1307.9497	65535	64634.4
875.2147	1309.8333	65535	64638.55
875.359	1311.7162	65535	64634.3
875.5032	1313.5984	65535	64632.6
875.6475	1315.4798	65535	64633.7
875.7917	1317.3605	65535	64618.75
875.9359	1319.2405	65535	64631.95
876.0801	1321.1197	65535	64632.6
876.2243	1322.9982	65535	64630.5
876.3685	1324.876	65535	64634.1
876.5127	1326.753	65535	64634.75
876.6569	1328.6293	65535	64634.9
876.801	1330.5048	65535	64632.2
876.9452	1332.3796	65535	64634.45
877.0893	1334.2537	65535	64609.1
877.2335	1336.127	65535	64635.35
877.3776	1337.9996	65535	64632.85
877.5217	1339.8714	65535	64633.55
877.6658	1341.7426	65535	64592.2
877.8099	1343.6129	65535	64635.2
877.954	1345.4826	65535	64635.35
878.0981	1347.3515	65535	64630.9
878.2422	1349.2196	65535	64632.2
878.3862	1351.087	65535	64633.25
878.5303	1352.9537	65535	64633.9
878.6743	1354.8197	65535	64634.55
878.8184	1356.6849	65535	64635
878.9624	1358.5493	65535	64633.4
879.1064	1360.4131	65535	64636.15
879.2504	1362.276	65535	64634.05
879.3944	1364.1383	65535	64635.2
879.5384	1365.9998	65535	64629.4
879.6823	1367.8606	65535	64631.05
879.8263	1369.7206	65535	64633.25
879.9702	1371.5799	65535	64631.75
880.1142	1373.4384	65535	64633.65
880.2581	1375.2962	65535	64632.85
880.402	1377.1533	65535	64634.6
880.5459	1379.0096	65535	64634.15
880.6898	1380.8652	65535	64632.45
880.8337	1382.7201	65535	64635.3
880.9776	1384.5742	65535	64633.6
881.1215	1386.4275	65535	64633.25
881.2653	1388.2802	65535	64634.35
881.4092	1390.132	65535	64634.85
881.553	1391.9832	65535	64634.2
881.6968	1393.8336	65535	64634.2
881.8406	1395.6832	65535	64632.55
881.9844	1397.5322	65535	64632.65
882.1282	1399.3803	65535	64626.8
882.272	1401.2278	65535	64634.1
882.4158	1403.0745	65535	64633.85
882.5595	1404.9204	65535	64635.4
882.7033	1406.7656	65535	64633.3
882.847	1408.6101	65535	64633.3
882.9908	1410.4538	65535	64633.85
883.1345	1412.2968	65535	64636.2
883.2782	1414.139	65535	64635
883.4219	1415.9805	65535	64633.65
883.5656	1417.8213	65535	64626.65
883.7092	1419.6613	65535	64632.8
883.8529	1421.5006	65535	64632.45
883.9965	1423.3391	65535	64634.1
884.1402	1425.1769	65535	64635.1
884.2838	1427.0139	65535	64633.75
884.4274	1428.8502	65535	64633.85
884.571	1430.6858	65535	64632.15
884.7146	1432.5206	65535	64635
884.8582	1434.3547	65535	64632.4
885.0018	1436.188	65535	64635.6
885.1453	1438.0206	65535	64632.65
885.2889	1439.8524	65535	64634.2
885.4324	1441.6835	65535	64632.4
885.5759	1443.5139	65535	64632.7
885.7194	1445.3435	65535	64633
885.8629	1447.1724	65535	64636.4
886.0064	1449.0005	65535	64635.85
886.1499	1450.8279	65535	64633.3
886.2933	1452.6545	65535	64635.5
886.4368	1454.4804	65535	64636.15
886.5802	1456.3056	65535	64626.1
886.7237	1458.13	65535	64636.15
886.8671	1459.9536	65535	64633.25
887.0105	1461.7766	65535	64637.85
887.1539	1463.5987	65535	64635.6
887.2972	1465.4202	65535	64636.45
887.4406	1467.2409	65535	64633.7
887.584	1469.0608	65535	64635.5
887.7273	1470.88	65535	64632.65
887.8706	1472.6984	65535	64635
888.0139	1474.5161	65535	64632.35
888.1572	1476.3331	65535	64636.6
888.3005	1478.1493	65535	64633.2
888.4438	1479.9648	65535	64635.2
888.5871	1481.7795	65535	64635.15
888.7303	1483.5935	65535	64635.95
888.8736	1485.4067	65535	64635.75
889.0168	1487.2192	65535	64636.25
889.16	1489.031	65535	64634.75
889.3032	1490.842	65535	64635.3
889.4464	1492.6522	65535	64634.5
889.5896	1494.4618	65535	64636.55
889.7327	1496.2705	65535	64636.3
889.8759	1498.0785	65535	64633.95
890.019	1499.8858	65535	64633.8
890.1622	1501.6924	65535	64637.2
890.3053	1503.4981	65535	64636.4
890.4484	1505.3032	65535	64636.1
890.5914	1507.1075	65535	64636.05
890.7345	1508.911	65535	64636.75
890.8776	1510.7138	65535	64634.65
891.0206	1512.5159	65535	64636.15
891.1637	1514.3172	65535	64638.15
891.3067	1516.1178	65535	64636.7
891.4497	1517.9176	65535	64633.4
891.5927	1519.7166	65535	64637.75
891.7357	1521.515	65535	64630.8
891.8786	1523.3126	65535	64635.9
892.0216	1525.1094	65535	64633.15
892.1645	1526.9055	65535	64637.65
892.3074	1528.7008	65535	64635.9
892.4503	1530.4954	65535	64636.25
892.5932	1532.2893	65535	64635.8
892.7361	1534.0824	65535	64633
892.879	1535.8747	65535	64637.2
893.0218	1537.6663	65535	64635.35
893.1647	1539.4572	65535	64635.05
893.3075	1541.2473	65535	64637.25
893.4503	1543.0367	65535	64637.8
893.5931	1544.8253	65535	64634
893.7359	1546.6132	65535	64635.35
893.8787	1548.4003	65535	64624.4
894.0214	1550.1867	65535	64628.3
894.1642	1551.9723	65535	64630.85
894.3069	1553.7572	65535	64636.4
894.4496	1555.5414	65535	64636.15
894.5923	1557.3247	65535	64638.75
894.735	1559.1074	65535	64637.85
894.8777	1560.8893	65535	64637.7
895.0204	1562.6705	65535	64637.1
895.163	1564.4509	65535	64638.35
895.3056	1566.2305	65535	64641.35
895.4482	1568.0094	65535	64641.35
895.5908	1569.7876	65535	64639.2
895.7334	1571.565	65535	64638.45
895.876	1573.3417	65535	64639.55
896.0186	1575.1176	65535	64637.45
896.1611	1576.8928	65535	64638.35
896.3036	1578.6672	65535	64640.45
896.4461	1580.4409	65535	64640.15
896.5886	1582.2138	65535	64637.25
896.7311	1583.986	65535	64636.75
896.8736	1585.7575	65535	64641.1
897.0161	1587.5282	65535	64638.75
897.1585	1589.2981	65535	64639.85
897.3009	1591.0673	65535	64640
897.4433	1592.8358	65533.6	64639.5
897.5857	1594.6035	65535	64638.35
897.7281	1596.3704	65535	64638.45
897.8705	1598.1366	65524.1	64629.3
898.0128	1599.9021	65515.15	64617.55
898.1551	1601.6668	65535	64639.3
898.2975	1603.4308	65529.25	64633.55
898.4398	1605.194	65524	64626.15
898.5821	1606.9564	65503.8	64609.4
898.7243	1608.7182	65520.2	64623.8
898.8666	1610.4791	65501.85	64608.85
899.0088	1612.2394	65522.9	64629
899.1511	1613.9988	65483.7	64589.85
899.2933	1615.7576	65519.9	64626.3
899.4355	1617.5156	65520.7	64619.85
899.5776	1619.2728	65530.55	64632.75
899.7198	1621.0293	65487.65	64593.55
899.862	1622.785	65494.3	64596.05
900.0041	1624.54	65509.25	64612.2
900.1462	1626.2942	65461.25	64566.4
900.2883	1628.0477	65397.75	64499.65
900.4304	1629.8005	65324.7	64430.15
900.5725	1631.5525	65427.8	64534.15
900.7145	1633.3037	65308.25	64414.55
900.8566	1635.0542	65289	64396.5
900.9986	1636.804	65361.55	64466.45
901.1406	1638.553	65225.7	64243.1
901.2826	1640.3013	65281.55	64386.05
901.4245	1642.0488	65200.5	64306.4
901.5665	1643.7955	65284.2	64392.4
901.7085	1645.5416	65220.8	64326.55
901.8504	1647.2868	65164.7	64273.05
901.9923	1649.0313	65261.5	64367.95
902.1342	1650.7751	65199.15	64300.35
902.2761	1652.5181	65160	64267.8
902.4179	1654.2604	65153.5	64259.6
902.5598	1656.0019	65192.5	64299.25
902.7016	1657.7427	65151.15	64258.75
902.8434	1659.4828	65210.85	64318
902.9852	1661.222	65137.4	64242.4
903.127	1662.9606	65195.3	64303.6
903.2687	1664.6984	65087.5	64194.35
903.4105	1666.4354	65130.65	64235.9
903.5522	1668.1717	65026.6	64132.05
903.6939	1669.9072	64958.3	64063.15
903.8356	1671.642	64940.65	64045.75
903.9773	1673.3761	64913.4	64022.05
904.119	1675.1094	64912.8	64020.6
904.2606	1676.8419	64829.7	63936.65
904.4022	1678.5737	64832.9	63938.95
904.5439	1680.3048	64802.05	63907.5
904.6855	1682.0351	64772.75	63879.4
904.827	1683.7646	64737.8	63841.15
904.9686	1685.4934	64763.8	63870.9
905.1101	1687.2215	64650.45	63757.05
905.2517	1688.9488	64734	63840.6
905.3932	1690.6754	64508.9	63616.65
905.5347	1692.4012	64614.6	63721.75
905.6761	1694.1263	64627.8	63735.1
905.8176	1695.8506	64536.9	63643.55
905.9591	1697.5742	64560.9	63668.25
906.1005	1699.297	64544.1	63650.6
906.2419	1701.0191	64533.05	63639.5
906.3833	1702.7404	64369.95	63476
906.5246	1704.461	64286.55	63392.4
906.666	1706.1808	64453.75	63561.25
906.8073	1707.8999	64345.45	63453.65
906.9487	1709.6182	64293.55	63402.35
907.09	1711.3358	64240.35	63348.25
907.2313	1713.0527	64214.9	63323.6
907.3725	1714.7688	64237.05	63339.25
907.5138	1716.4841	63875.95	62982.4
907.655	1718.1987	64012.35	63114.65
907.7962	1719.9126	63898.5	63008.3
907.9374	1721.6257	63997	63102.8
908.0786	1723.338	64014.7	63122.05
908.2198	1725.0496	63550.7	62658.2
908.3609	1726.7605	63644.05	62751.25
908.502	1728.4706	63486	62592.9
908.6431	1730.18	63661.25	62765.55
908.7842	1731.8886	63425.45	62535.9
908.9253	1733.5964	63305.25	62407.05
909.0664	1735.3036	63555.95	62660.25
909.2074	1737.0099	63315.75	62424.6
909.3484	1738.7156	63135.85	62244.7
909.4894	1740.4204	63042.1	62147.35
909.6304	1742.1246	63158.3	62263
909.7714	1743.8279	63198.35	62305.9
909.9123	1745.5306	63142.65	62249.55
910.0532	1747.2325	62385.55	61495.55
910.1941	1748.9336	62444.45	61553.1
910.335	1750.634	62665.1	61769.75
910.4759	1752.3336	62863.5	61973.6
910.6168	1754.0325	62296.05	61405.2
910.7576	1755.7307	62827.1	61936.9
910.8984	1757.4281	62093.3	61203
911.0392	1759.1247	62663	61763
911.18	1760.8206	61813.95	60914.05
911.3208	1762.5158	61933.25	61040.6
911.4615	1764.2102	62124.65	61234
911.6022	1765.9039	61962	61070
911.7429	1767.5968	61743.4	60852.85
911.8836	1769.289	61598.35	60706.6
912.0243	1770.9804	61853.25	60960.45
912.1649	1772.6711	61607.7	60714.7
912.3056	1774.361	61433.35	60540.75
912.4462	1776.0502	61431.3	60539.55
912.5868	1777.7386	60704.6	59810.95
912.7274	1779.4263	61112.3	60221.75
912.8679	1781.1132	61106.65	60215.65
913.0084	1782.7994	60958.5	60065.45
913.149	1784.4849	60974.25	60081.25
913.2895	1786.1696	60152.55	59253.1
913.4299	1787.8535	60668.5	59777.3
913.5704	1789.5367	60751.6	59860.35
913.7108	1791.2192	60209.85	59318.35
913.8513	1792.9009	59880.8	58959.65
913.9917	1794.5818	60294.35	59399.8
914.132	1796.2621	59814.1	58924.15
914.2724	1797.9415	59820.35	58929.7
914.4128	1799.6202	59756.4	58862.4
914.5531	1801.2982	59863.25	58971.65
914.6934	1802.9755	59355.15	58462.25
914.8337	1804.6519	59208.6	58315.6
914.9739	1806.3277	59838.75	58948.9
915.1142	1808.0027	58801.05	57911.9
915.2544	1809.6769	59132.05	58241.9
915.3946	1811.3504	59215.75	58321.75
915.5348	1813.0231	58321.65	57429.5
915.675	1814.6951	58843.35	57951.65
915.8151	1816.3664	58487.75	57594.35
915.9553	1818.0369	58554.25	57663.05
916.0954	1819.7067	58318.3	57427.45
916.2355	1821.3757	58798.85	57905.65
916.3755	1823.044	57999.15	57108.6
916.5156	1824.7115	57687.2	56793.8
916.6556	1826.3783	57935.8	57046.6
916.7956	1828.0443	57979.1	57089.55
916.9356	1829.7096	57625	56731.45
917.0756	1831.3741	57081.9	56187.55
917.2155	1833.0379	57414.95	56520.4
917.3555	1834.701	57370.55	56478.15
917.4954	1836.3633	56902.55	56011.85
917.6353	1838.0248	57207	56315.2
917.7751	1839.6856	57007.75	56116.2
917.915	1841.3457	56508.6	55617.35
918.0548	1843.005	57072.4	56180.85
918.1946	1844.6636	56650.25	55761.5
918.3344	1846.3214	56005.45	55114.7
918.4742	1847.9785	56113.45	55221.7
918.6139	1849.6349	56051.8	55162.2
918.7537	1851.2904	56526.95	55626.65
918.8934	1852.9453	55750.05	54858
919.0331	1854.5994	55998.8	55104.25
919.1727	1856.2528	56014.85	55119.95
919.3124	1857.9054	55528.45	54637.35
919.452	1859.5572	55265.85	54374.3
919.5916	1861.2083	55441	54549.4
919.7312	1862.8587	55891.45	55001
919.8708	1864.5084	54663.05	53772.55
920.0103	1866.1572	55133.7	54241.6
920.1498	1867.8054	54501.45	53608.8
920.2893	1869.4528	54877.35	53984.3
920.4288	1871.0994	54328.35	53436.25
920.5683	1872.7453	54346.65	53456.4
920.7077	1874.3905	54427.9	53529.6
920.8471	1876.0349	53941.55	53048.9
920.9865	1877.6786	54283.2	53391.75
921.1259	1879.3215	53824.1	52932.75
921.2653	1880.9637	54252.75	53358.85
921.4046	1882.6051	53772.4	52880.7
921.5439	1884.2458	53517.25	52623.65
921.6832	1885.8858	53275.7	52383.4
921.8225	1887.525	53412.8	52521.15
921.9617	1889.1634	53251.3	52360.75
922.101	1890.8011	53031.75	52140.15
922.2402	1892.4381	52510.4	51618.95
922.3794	1894.0743	52974.75	52085.25
922.5185	1895.7098	52645.9	51754.1
922.6577	1897.3446	52312.7	51420.35
922.7968	1898.9786	52438.1	51542.75
922.9359	1900.6118	52148.9	51259.15
923.075	1902.2443	51848.6	50956.5
923.214	1903.8761	52052.85	51161.9
923.3531	1905.5071	51694.65	50803.05
923.4921	1907.1374	51119.95	50228.2
923.6311	1908.7669	51333.85	50443.6
923.77	1910.3957	51548.7	50657.75
923.909	1912.0237	50929.65	50038.85
924.0479	1913.651	50780.65	49887.05
924.1868	1915.2776	50623.05	49734.25
924.3257	1916.9034	50495.3	49605.6
924.4646	1918.5285	50325.9	49438.35
924.6034	1920.1528	50169.95	49279.9
924.7422	1921.7764	49997.5	49107.3
924.881	1923.3992	49895.25	49004.35
925.0198	1925.0213	49556.1	48666.25
925.1586	1926.6427	49226.9	48337.7
925.2973	1928.2633	49340.35	48366.05
925.436	1929.8832	49125.7	48233.1
925.5747	1931.5023	48907.5	48016.7
925.7134	1933.1207	48642.9	47753.05
925.852	1934.7383	48747.1	47856.85
925.9906	1936.3552	48458.1	47569.2
926.1292	1937.9714	48390.5	47498.85
926.2678	1939.5868	48243.25	47348.35
926.4064	1941.2015	47909.6	47017.5
926.5449	1942.8154	47698.3	46806.9
926.6834	1944.4286	47572.75	46682.5
926.8219	1946.041	47456.9	46548.5
926.9604	1947.6528	47174.3	46278.3
927.0988	1949.2637	47096	46207.05
927.2372	1950.8739	46880.1	45988.8
927.3756	1952.4834	46896.05	46005.85
927.514	1954.0921	46750.75	45858.85
927.6523	1955.7001	46507.65	45613.3
927.7907	1957.3074	46464.75	45575.15
927.929	1958.9139	46087.8	45197.75
928.0673	1960.5197	46104.05	45212.9
928.2055	1962.1247	45885.8	44996.7
928.3438	1963.729	45616.1	44726.75
928.482	1965.3325	45511.8	44597.65
928.6202	1966.9353	45458.1	44570.05
928.7584	1968.5374	45208	44318.15
928.8965	1970.1387	45068.4	44177.6
929.0346	1971.7393	44911.2	44021
929.1727	1973.3392	44740.95	43851.1
929.3108	1974.9383	44546	43658.05
929.4489	1976.5366	44350.8	43460.45
929.5869	1978.1342	44318.45	43427.15
929.7249	1979.7311	44226.7	43336.1
929.8629	1981.3273	44117.05	43225.55
930.0009	1982.9227	43926.25	43035.3
930.1388	1984.5173	43784.7	42895.75
930.2767	1986.1112	43600.75	42710.8
930.4146	1987.7044	43558.65	42670.5
930.5525	1989.2968	43254.95	42364.2
930.6904	1990.8885	43293.9	42400.85
930.8282	1992.4795	43124.45	42231.9
930.966	1994.0697	43007.5	42119.65
931.1038	1995.6592	42830.15	41940.3
931.2415	1997.2479	42655.1	41765.95
931.3793	1998.8359	42572.65	41685.2
931.517	2000.4232	42438.45	41549.25
931.6547	2002.0097	42302.1	41414.35
931.7923	2003.5955	42083.25	41193.7
931.93	2005.1805	42026.5	41135.75
932.0676	2006.7648	41866.55	40977.55
932.2052	2008.3484	41728.35	40836.5
932.3427	2009.9312	41773.2	40882.65
932.4803	2011.5133	41577.4	40689.85
932.6178	2013.0946	41450.25	40560.1
932.7553	2014.6752	41343.4	40455.6
932.8928	2016.2551	41212.2	40324.65
933.0302	2017.8342	41053.95	40165.1
933.1676	2019.4126	40930.3	40041.9
933.305	2020.9902	40755	39867.05
933.4424	2022.5672	40619.2	39727.8
933.5798	2024.1433	40544.85	39650.35
933.7171	2025.7188	40410.55	39522.65
933.8544	2027.2935	40280.65	39392
933.9917	2028.8674	40159.8	39271.9
934.129	2030.4406	40049.05	39162.25
934.2662	2032.0131	39819.6	38932.3
934.4034	2033.5849	39732.2	38838.4
934.5406	2035.1559	39613.4	38725.25
934.6778	2036.7261	39573.8	38685.8
934.8149	2038.2957	39437.2	38546.85
934.952	2039.8645	39369.75	38480.25
935.0891	2041.4325	39333.45	38443.05
935.2262	2042.9998	39149.85	38261.8
935.3632	2044.5664	39039.35	38149.7
935.5002	2046.1323	38963.85	38076.7
935.6372	2047.6974	38816.65	37927.05
935.7742	2049.2617	38678.65	37790.8
935.9111	2050.8254	38677.25	37781.8
936.048	2052.3883	38608.85	37718.9
936.1849	2053.9504	38447.9	37559.9
936.3218	2055.5118	38345.7	37457.05
936.4586	2057.0725	38133.75	37241.65
936.5955	2058.6325	38006.65	37118.85
936.7323	2060.1917	37907.35	37018
936.869	2061.7502	37853.6	36961.75
937.0058	2063.3079	37653.85	36765.05
937.1425	2064.8649	37596.45	36704.4
937.2792	2066.4212	37485.05	36594.35
937.4159	2067.9767	37357.65	36470.2
937.5525	2069.5315	37165.2	36275.9
937.6891	2071.0856	37017.8	36128.9
937.8257	2072.6389	36924.7	36035
937.9623	2074.1915	36749.05	35863.55
938.0989	2075.7433	36568.7	35679.75
938.2354	2077.2945	36508.4	35620.3
938.3719	2078.8448	36355.95	35466.3
938.5084	2080.3945	36247.55	35358
938.6448	2081.9434	36224.95	35336.85
938.7812	2083.4916	36072.4	35184.05
938.9176	2085.039	35937.6	35047.3
939.054	2086.5857	35856.25	34966.45
939.1903	2088.1317	35773.4	34884.2
939.3267	2089.677	35707.3	34817.35
939.463	2091.2215	35589.7	34700.75
939.5992	2092.7652	35547.45	34654.5
939.7355	2094.3083	35370.05	34478.6
939.8717	2095.8506	35306.05	34418.65
940.0079	2097.3921	35290.05	34401.8
940.1441	2098.933	35138.15	34249.85
940.2802	2100.4731	35052.3	34161.8
940.4163	2102.0124	35006.3	34111.6
940.5524	2103.5511	34881.1	33991.8
940.6885	2105.089	34786.9	33897.1
940.8245	2106.6261	34714.05	33826.1
940.9606	2108.1626	34651.95	33760.95
941.0965	2109.6983	34589.5	33671.8
941.2325	2111.2332	34437.05	33546.9
941.3684	2112.7675	34329.85	33439.15
941.5044	2114.301	34209.5	33319.1
941.6403	2115.8337	34233.4	33343.5
941.7761	2117.3657	34067.5	33177.4
941.912	2118.897	33995.5	33104.7
942.0478	2120.4276	33907	33010.55
942.1835	2121.9575	33708.25	32818.55
942.3193	2123.4866	33692.05	32789.75
942.455	2125.0149	33577.2	32685.65
942.5907	2126.5426	33451.6	32562.85
942.7264	2128.0695	33354.5	32460.45
942.8621	2129.5956	33277.35	32390.6
942.9977	2131.1211	33207.25	32316
943.1333	2132.6458	33118.35	32230.8
943.2689	2134.1698	33065.3	32177.6
943.4044	2135.693	32905.6	32013.6
943.54	2137.2155	32856.8	31966.8
943.6755	2138.7373	32806.2	31917.35
943.8109	2140.2584	32671.4	31783.95
943.9464	2141.7787	32566.15	31671.05
944.0818	2143.2983	32390.1	31503.4
944.2172	2144.8171	32277	31390.15
944.3526	2146.3353	32165.25	31275.25
944.4879	2147.8527	32015.4	31127.65
944.6232	2149.3693	31998.95	31110.6
944.7585	2150.8853	31865.2	30974.25
944.8938	2152.4005	31743.4	30852.4
945.029	2153.9149	31677.65	30788.3
945.1642	2155.4287	31583.15	30694.35
945.2994	2156.9417	31525.75	30636.7
945.4346	2158.454	31400.9	30509.7
945.5697	2159.9655	31348.55	30459.5
945.7048	2161.4764	31297.25	30408.25
945.8399	2162.9865	31185	30296.7
945.9749	2164.4958	31087.95	30198.4
946.1099	2166.0045	30925.85	30033.6
946.2449	2167.5124	30950.95	30061.95
946.3799	2169.0195	30830.65	29943.1
946.5148	2170.526	30754.5	29865.05
946.6498	2172.0317	30651.5	29762.4
946.7846	2173.5367	30556.2	29667.8
946.9195	2175.0409	30456.2	29567.15
947.0543	2176.5445	30447.25	29558.65
947.1891	2178.0473	30323.65	29434.7
947.3239	2179.5494	30190.3	29297.05
947.4587	2181.0507	30060.8	29171.45
947.5934	2182.5513	29985.9	29097.4
947.7281	2184.0512	29930.2	29040.85
947.8628	2185.5504	29870.25	28982.05
947.9974	2187.0488	29642.9	28752.35
948.132	2188.5465	29590.65	28703.3
948.2666	2190.0435	29486.55	28598.35
948.4012	2191.5397	29371.05	28483
948.5357	2193.0353	29224.8	28336.9
948.6702	2194.5301	29119.4	28228.9
948.8047	2196.0241	29054.25	28163.35
948.9392	2197.5175	28947.35	28058.15
949.0736	2199.0101	28858.55	27968.25
949.208	2200.502	28728.2	27840.7
949.3424	2201.9931	28609.85	27721.55
949.4767	2203.4835	28439.05	27548.8
949.611	2204.9733	28425.45	27532.45
949.7453	2206.4622	28363.25	27475.2
949.8796	2207.9505	28232.9	27338.35
950.0138	2209.438	28090.25	27202
950.148	2210.9248	27991.75	27102.15
950.2822	2212.4109	27930.05	27041.7
950.4164	2213.8962	27817	26923.85
950.5505	2215.3809	27783.6	26892.5
950.6846	2216.8648	27692.25	26802.15
950.8186	2218.3479	27636	26743.15
950.9527	2219.8304	27500.25	26608.2
951.0867	2221.3121	27378.45	26487.85
951.2207	2222.7931	27259.4	26369.45
951.3546	2224.2733	27188.7	26299.15
951.4886	2225.7529	27117.65	26229.25
951.6225	2227.2317	27005	26114.1
951.7563	2228.7098	26990.1	26100.15
951.8902	2230.1872	26806.25	25918.45
952.024	2231.6638	26779	25890.55
952.1578	2233.1397	26667.3	25773.1
952.2916	2234.6149	26604.75	25714.2
952.4253	2236.0894	26501	25611.2
952.559	2237.5632	26438.05	25546.9
952.6927	2239.0362	26306.4	25417.85
952.8263	2240.5085	26253.95	25364.15
952.9599	2241.9801	26127.2	25235.85
953.0935	2243.4509	26060.3	25170.7
953.2271	2244.921	25978.3	25088.95
953.3606	2246.3904	25856.7	24967.65
953.4941	2247.8591	25769.8	24883.3
953.6276	2249.3271	25685.95	24795.9
953.7611	2250.7943	25598.45	24709.1
953.8945	2252.2608	25514.8	24625.6
954.0279	2253.7266	25430.75	24541.1
954.1612	2255.1917	25360.45	24471.4
954.2946	2256.656	25306.1	24416.25
954.4279	2258.1197	25216.95	24329.6
954.5612	2259.5826	25122.4	24230.55
954.6944	2261.0447	25086.1	24196.45
954.8276	2262.5062	24952.05	24059.35
954.9608	2263.9669	24957.8	24068.85
955.094	2265.4269	24913.95	24024.9
955.2271	2266.8862	24799.1	23911.35
955.3602	2268.3448	24699.2	23809.25
955.4933	2269.8026	24682.45	23792.85
955.6264	2271.2598	24608.55	23719.7
955.7594	2272.7162	24496	23608.05
955.8924	2274.1719	24432.3	23543.7
956.0253	2275.6268	24391.4	23501.15
956.1583	2277.0811	24304.45	23413.9
956.2912	2278.5346	24216.95	23330.6
956.4241	2279.9874	24179.3	23290
956.5569	2281.4395	24129.5	23242.5
956.6897	2282.8908	24001.45	23107.65
956.8225	2284.3414	24001.95	23112.1
956.9553	2285.7914	23888.25	23000.6
957.088	2287.2406	23793.25	22902.2
957.2207	2288.689	23742.25	22852.15
957.3534	2290.1368	23663.4	22771.9
957.486	2291.5838	23526.3	22633.9
957.6186	2293.0302	23475.5	22584.6
957.7512	2294.4758	23367	22479.5
957.8838	2295.9206	23309.15	22419.9
958.0163	2297.3648	23242.1	22353.5
958.1488	2298.8082	23218.7	22328.75
958.2813	2300.251	23151.6	22261.85
958.4137	2301.693	23076	22184.05
958.5461	2303.1343	23055.1	22164.45
958.6785	2304.5748	22916.45	22026.6
958.8108	2306.0147	22858.5	21966.8
958.9432	2307.4538	22797.7	21906.4
959.0754	2308.8922	22709.75	21825.05
959.2077	2310.3299	22641.8	21752.5
959.3399	2311.7669	22550.9	21663.3
959.4721	2313.2031	22460.1	21571.45
959.6043	2314.6387	22386.4	21496.2
959.7365	2316.0735	22332.7	21443.5
959.8686	2317.5076	22306.7	21417.55
960.0006	2318.941	22234.45	21343.35
960.1327	2320.3737	22133.7	21243.4
960.2647	2321.8056	22044.05	21153.45
960.3967	2323.2369	22012.9	21124.6
960.5287	2324.6674	21936.45	21044.5
960.6606	2326.0972	21836	20945.35
960.7925	2327.5263	21745.6	20857.7
960.9244	2328.9547	21681.75	20792.7
961.0562	2330.3823	21637.6	20748.3
961.1881	2331.8092	21607.85	20714.45
961.3198	2333.2355	21503.4	20611.8
961.4516	2334.661	21483.6	20593.75
961.5833	2336.0858	21422.95	20532.1
961.715	2337.5098	21352.2	20461.9
961.8467	2338.9332	21361.05	20470.05
961.9783	2340.3558	21248.2	20353.9
962.1099	2341.7778	21137.2	20247.8
962.2415	2343.199	21080.6	20188.65
962.373	2344.6195	21028.3	20138.25
962.5045	2346.0393	20936.2	20048.8
962.636	2347.4583	20923	20034.3
962.7675	2348.8767	20816.65	19927.5
962.8989	2350.2943	20760.5	19870.9
963.0303	2351.7113	20749.95	19859.7
963.1617	2353.1275	20642.25	19752.85
963.293	2354.543	20602.5	19705.15
963.4243	2355.9578	20560.05	19669.9
963.5556	2357.3718	20379.6	19489.95
963.6868	2358.7852	20315.4	19424.35
963.818	2360.1978	20299.1	19408.8
963.9492	2361.6098	20245.75	19358.95
964.0803	2363.021	20168.6	19275.55
964.2114	2364.4315	20090.65	19201.05
964.3425	2365.8413	20038.6	19148.55
964.4736	2367.2504	19974.05	19085.85
964.6046	2368.6587	19874.45	18986.4
964.7356	2370.0664	19753.95	18864.6
964.8666	2371.4733	19710.7	18821.15
964.9975	2372.8795	19646.45	18757.95
965.1284	2374.285	19564.05	18675.25
965.2593	2375.6899	19436.8	18548.05
965.3901	2377.0939	19394.2	18505.1
965.5209	2378.4973	19332.55	18445.2
965.6517	2379.9	19259.3	18369.6
965.7825	2381.3019	19218.7	18328.8
965.9132	2382.7032	19131.25	18243.7
966.0439	2384.1037	19109.35	18222.75
966.1745	2385.5035	19039.95	18149.75
966.3051	2386.9027	18963.6	18075.95
966.4357	2388.3011	18897.6	18006.3
966.5663	2389.6987	18846.7	17957.9
966.6968	2391.0957	18778.85	17891.95
966.8273	2392.492	18696.3	17808.1
966.9578	2393.8876	18629.95	17741.5
967.0882	2395.2824	18530.05	17643.55
967.2186	2396.6765	18464.85	17575.85
967.349	2398.07	18332.65	17445.25
967.4793	2399.4627	18309.95	17419.65
967.6097	2400.8547	18298.1	17408.35
967.7399	2402.246	18210	17316
967.8702	2403.6366	18110.95	17220.7
968.0004	2405.0265	18012.2	17123.2
968.1306	2406.4156	17965.5	17073.65
968.2607	2407.8041	17890.85	16999.65
968.3909	2409.1918	17833.65	16943.9
968.521	2410.5789	17740.25	16850.45
968.651	2411.9652	17667.25	16776.25
968.781	2413.3508	17613.75	16726.15
968.911	2414.7358	17523.45	16632.5
969.041	2416.12	17503.9	16615.3
969.1709	2417.5035	17445.9	16556.85
969.3008	2418.8863	17396	16506.6
969.4307	2420.2684	17338.75	16447.45
969.5606	2421.6497	17242.1	16352.85
969.6904	2423.0304	17122.7	16235.6
969.8201	2424.4104	17106.45	16217
969.9499	2425.7896	17045.9	16153.9
970.0796	2427.1682	17003.05	16115.35
970.2093	2428.546	16942.05	16049.95
970.3389	2429.9232	16911.75	16021.65
970.4685	2431.2996	16836.3	15948.65
970.5981	2432.6753	16832.15	15945.5
970.7277	2434.0503	16815.1	15926.5
970.8572	2435.4246	16675.45	15787.85
970.9867	2436.7982	16646.85	15757.05
971.1161	2438.1711	16614.05	15727.4
971.2456	2439.5433	16550.95	15662.15
971.375	2440.9148	16471.65	15579.15
971.5043	2442.2856	16364.5	15476.9
971.6336	2443.6557	16344.45	15454.6
971.7629	2445.025	16274.3	15386.25
971.8922	2446.3937	16252.9	15365
972.0214	2447.7617	16153.4	15266.25
972.1506	2449.1289	16181.65	15292.8
972.2798	2450.4955	16094.45	15201.95
972.4089	2451.8613	16058.9	15172.35
972.538	2453.2265	16015.35	15126.75
972.6671	2454.5909	15947.25	15057.65
972.7961	2455.9546	15955.35	15065.55
972.9251	2457.3177	15875.8	14986
973.0541	2458.68	15776.25	14885.9
973.1831	2460.0416	15778.4	14888.25
973.312	2461.4025	15732.7	14844.45
973.4408	2462.7627	15679.1	14777.8
973.5697	2464.1222	15651.95	14763.45
973.6985	2465.4811	15592.25	14704.5
973.8273	2466.8392	15500.5	14610.35
973.956	2468.1966	15494.25	14604.5
974.0847	2469.5533	15450.3	14559.3
974.2134	2470.9093	15412.8	14522.55
974.3421	2472.2645	15362.35	14471.85
974.4707	2473.6191	15321.3	14432.75
974.5993	2474.973	15223.5	14334.75
974.7278	2476.3262	15199.5	14309.45
974.8563	2477.6787	15158.85	14271.45
974.9848	2479.0305	15056.35	14169.5
975.1132	2480.3816	15025.05	14135.35
975.2417	2481.7319	14963.4	14074.45
975.37	2483.0816	14890.15	13998.3
975.4984	2484.4306	14851.1	13960
975.6267	2485.7789	14798.05	13908
975.755	2487.1264	14701.55	13812.35
975.8833	2488.4733	14657.7	13771.3
976.0115	2489.8195	14605.85	13711
976.1397	2491.165	14575.8	13681.85
976.2678	2492.5097	14506.85	13618.2
976.3959	2493.8538	14443.6	13554.6
976.524	2495.1972	14378.55	13488.25
976.6521	2496.5398	14295.05	13405.65
976.7801	2497.8818	14291.05	13400.6
976.9081	2499.2231	14217.1	13328.25
977.036	2500.5637	14164.6	13275.9
977.164	2501.9035	14093.5	13205.15
977.2918	2503.2427	14108.35	13217.35
977.4197	2504.5812	14039.85	13150.05
977.5475	2505.919	13995	13103.8
977.6753	2507.256	13979.2	13090.85
977.8031	2508.5924	13901.25	13011.65
977.9308	2509.9281	13839.45	12945.3
978.0585	2511.2631	13803.4	12914.75
978.1861	2512.5974	13781.15	12893.4
978.3137	2513.9309	13706	12817.35
978.4413	2515.2638	13660.15	12743.95
978.5689	2516.596	13598	12709
978.6964	2517.9275	13538.35	12649.3
978.8239	2519.2583	13512.35	12622.75
978.9513	2520.5884	13442	12553.35
979.0788	2521.9178	13399.7	12510.95
979.2062	2523.2465	13384.9	12496
979.3335	2524.5745	13303.3	12414.1
979.4608	2525.9018	13251.85	12365.05
979.5881	2527.2284	13202.45	12315.6
979.7154	2528.5543	13195.65	12309.05
979.8426	2529.8796	13137.7	12249.4
979.9698	2531.2041	13144.95	12254.75
980.0969	2532.5279	13069.2	12182.1
980.224	2533.851	13049	12160.05
980.3511	2535.1735	13002.35	12112.55
980.4781	2536.4952	12965.45	12077.45
980.6052	2537.8163	12953.65	12065.25
980.7321	2539.1366	12907.05	12019.1
980.8591	2540.4562	12871	11982.05
980.986	2541.7752	12825.65	11938.3
981.1129	2543.0935	12822.15	11935.65
981.2397	2544.411	12806	11916.95
981.3665	2545.7279	12726.05	11836.2
981.4933	2547.0441	12730.3	11841.95
981.62	2548.3596	12731.05	11841.4
981.7467	2549.6744	12672.95	11783.4
981.8734	2550.9885	12617.9	11723.05
982.0001	2552.3019	12585.1	11696.2
982.1267	2553.6146	12514.4	11625.95
982.2532	2554.9266	12510.1	11621.3
982.3798	2556.2379	12457	11565.25
982.5063	2557.5485	12438.5	11550.45
982.6327	2558.8585	12380.6	11484.9
982.7592	2560.1677	12396.45	11503.95
982.8856	2561.4762	12357.5	11467.8
983.0119	2562.7841	12346.1	11455.6
983.1383	2564.0913	12296.75	11408.05
983.2646	2565.3977	12281.4	11393.7
983.3908	2566.7035	12223.9	11335.2
983.517	2568.0086	12227.05	11335.15
983.6432	2569.313	12185.75	11295.9
983.7694	2570.6167	12160.7	11268.15
983.8955	2571.9197	12125.8	11239.25
984.0216	2573.222	12099	11205.85
984.1476	2574.5236	12079.5	11189.05
984.2737	2575.8246	12022.8	11132.75
984.3996	2577.1248	11986.7	11096.15
984.5256	2578.4244	11996.65	11110
984.6515	2579.7232	11988.75	11100.4
984.7774	2581.0214	11962.95	11050.2
984.9032	2582.3189	11931.5	11040.65
985.029	2583.6157	11890.8	10998.75
985.1548	2584.9118	11852.6	10962.1
985.2806	2586.2072	11809.85	10922.9
985.4063	2587.5019	11784.6	10896.05
985.5319	2588.7959	11744.05	10857.7
985.6576	2590.0893	11697.15	10808.4
985.7832	2591.3819	11685.4	10797.65
985.9087	2592.6739	11624.15	10738.3
986.0343	2593.9652	11607.25	10716.4
986.1597	2595.2557	11562.45	10673.7
986.2852	2596.5456	11514.35	10623.5
986.4106	2597.8348	11479.05	10590.25
986.536	2599.1234	11406.6	10518.9
986.6614	2600.4112	11380.45	10491.35
986.7867	2601.6983	11354.95	10463.15
986.912	2602.9848	11323.1	10433.85
987.0372	2604.2705	11269.4	10374.7
987.1624	2605.5556	11253.55	10364.8
987.2876	2606.84	11197.1	10308.1
987.4128	2608.1237	11120.9	10230.95
987.5379	2609.4067	11076.1	10188.7
987.6629	2610.689	11072.2	10172.9
987.788	2611.9707	11023.3	10131.15
987.913	2613.2516	10966.35	10073.75
988.0379	2614.5319	10917.1	10029.25
988.1629	2615.8115	10888.9	9998.95
988.2878	2617.0903	10849.2	9957.65
988.4126	2618.3685	10809.1	9920.9
988.5375	2619.6461	10775.4	9886.5
988.6622	2620.9229	10744.5	9854.35
988.787	2622.199	10683.1	9792.75
988.9117	2623.4745	10672.65	9782.2
989.0364	2624.7493	10621	9733.65
989.161	2626.0234	10601.65	9715.45
989.2857	2627.2968	10544.75	9656
989.4102	2628.5695	10513.55	9622.65
989.5348	2629.8415	10454.8	9567.1
989.6593	2631.1128	10418.6	9528.5
989.7837	2632.3835	10364.75	9475.05
989.9082	2633.6535	10324.2	9435.85
990.0326	2634.9228	10293.55	9405.5
990.1569	2636.1914	10281.25	9392.05
990.2812	2637.4593	10243.5	9349.25
990.4055	2638.7265	10187.55	9299.55
990.5298	2639.9931	10153.85	9267.1
990.654	2641.259	10147.2	9256.85
990.7782	2642.5242	10093	9204.2
990.9023	2643.7887	10068.45	9177.95
991.0264	2645.0525	10046.1	9157.45
991.1505	2646.3156	9993.65	9105.05
991.2745	2647.5781	9943.5	9056.05
991.3985	2648.8398	9931.4	9042.35
991.5225	2650.1009	9932.2	9003.95
991.6464	2651.3613	9864.35	8975.7
991.7703	2652.6211	9835.5	8946.4
991.8942	2653.8801	9808.05	8921.35
992.018	2655.1385	9793.75	8901.95
992.1418	2656.3961	9739.2	8850.2
992.2655	2657.6531	9720.9	8832.1
992.3892	2658.9094	9695.45	8807.15
992.5129	2660.1651	9683.7	8796.55
992.6366	2661.42	9647.25	8758.75
992.7602	2662.6743	9626.4	8737.35
992.8837	2663.9279	9620.5	8733.15
993.0073	2665.1808	9572.95	8683.3
993.1307	2666.433	9544.65	8654.7
993.2542	2667.6846	9512.2	8622.75
993.3776	2668.9354	9497.55	8606.5
993.501	2670.1856	9456.6	8567.95
993.6244	2671.4351	9452.35	8565.6
993.7477	2672.6839	9426.65	8537.1
993.8709	2673.9321	9393.3	8506.5
993.9942	2675.1795	9353	8465.6
994.1174	2676.4263	9329.15	8443.15
994.2405	2677.6724	9317.1	8429.7
994.3637	2678.9179	9241.75	8351.9
994.4868	2680.1626	9219.05	8329.95
994.6098	2681.4067	9210.05	8318.55
994.7328	2682.6501	9171.4	8284.7
994.8558	2683.8928	9141	8252.8
994.9788	2685.1348	9105.3	8218.2
995.1017	2686.3761	9052.9	8164.75
995.2245	2687.6168	9043.5	8155.7
995.3474	2688.8568	9017.5	8129.15
995.4702	2690.0961	8986.15	8099.7
995.5929	2691.3348	8969.05	8081.4
995.7156	2692.5727	8950.3	8062.15
995.8383	2693.81	8883.55	7994.4
995.961	2695.0466	8875.8	7988.7
996.0836	2696.2826	8867.1	7977.85
996.2062	2697.5178	8839.85	7952.7
996.3287	2698.7524	8804.9	7915.8
996.4512	2699.9863	8797.45	7907.1
996.5737	2701.2195	8731.65	7843.35
996.6961	2702.452	8715.3	7825.4
996.8185	2703.6839	8712.25	7823.4
996.9408	2704.9151	8677.05	7790.65
997.0631	2706.1456	8617.35	7728.9
997.1854	2707.3755	8594.65	7706.1
997.3077	2708.6046	8561	7670.3
997.4299	2709.8331	8564	7675.2
997.552	2711.0609	8522.7	7635
997.6742	2712.2881	8506.6	7618.2
997.7963	2713.5145	8478.45	7586.7
997.9183	2714.7403	8449.8	7562.15
998.0403	2715.9654	8412.85	7523.6
998.1623	2717.1899	8421.4	7519.55
998.2842	2718.4136	8407.25	7519.6
998.4062	2719.6367	8357.25	7468.85
998.528	2720.8591	8344.2	7451
998.6498	2722.0809	8305.15	7416.1
998.7716	2723.3019	8291.3	7398.65
998.8934	2724.5223	8266.85	7375.8
999.0151	2725.7421	8238.5	7348.9
999.1368	2726.9611	8228.25	7338.9
999.2584	2728.1795	8197.3	7303.7
999.38	2729.3972	8135.4	7249.3
999.5016	2730.6142	8111.85	7214.9
999.6231	2731.8306	8080.65	7194.05
999.7446	2733.0462	8033.3	7143.5
999.8661	2734.2612	8003.7	7112.55
999.9875	2735.4756	7962.75	7072.75
1000.1089	2736.6892	7905.75	7016.2
1000.2302	2737.9022	7856.8	6969.95
1000.3515	2739.1145	7829.25	6941.55
1000.4728	2740.3262	7801.7	6906.55
1000.594	2741.5372	7740.85	6852.6
1000.7152	2742.7475	7706.35	6817.65
1000.8363	2743.9571	7700.7	6809.75
1000.9575	2745.1661	7650.1	6755.15
1001.0785	2746.3744	7645.2	6757.15
1001.1996	2747.582	7619.35	6731.4
1001.3206	2748.7889	7562.05	6672.4
1001.4415	2749.9952	7532.45	6644.75
1001.5625	2751.2008	7517.8	6628.9
1001.6833	2752.4057	7509.7	6617.9
1001.8042	2753.61	7461.65	6574.1
1001.925	2754.8136	7450.25	6559.2
1002.0458	2756.0165	7417.7	6530.7
1002.1665	2757.2188	7397.9	6510.75
1002.2872	2758.4204	7351.6	6462.25
1002.4078	2759.6213	7333.4	6443.55
1002.5285	2760.8215	7315.1	6422.75
1002.649	2762.0211	7294.3	6405.55
1002.7696	2763.22	7254.95	6363.5
1002.8901	2764.4182	7231.3	6342.5
1003.0106	2765.6158	7231.6	6345.95
1003.131	2766.8127	7199.6	6310.8
1003.2514	2768.009	7180.55	6291.85
1003.3717	2769.2045	7145.65	6257.45
1003.492	2770.3994	7112.85	6223.1
1003.6123	2771.5936	7098.65	6210.05
1003.7325	2772.7872	7058.25	6171.05
1003.8527	2773.9801	7014.15	6125.6
1003.9729	2775.1723	7034	6129.55
1004.093	2776.3639	6988.35	6101.15
1004.2131	2777.5548	6969.2	6078.65
1004.3331	2778.745	6955.55	6065.75
1004.4531	2779.9346	6931.55	6044.65
1004.5731	2781.1235	6917.25	6029.9
1004.693	2782.3117	6889.2	6002.7
1004.8129	2783.4992	6864.5	5976.95
1004.9328	2784.6861	6840.05	5950.1
1005.0526	2785.8723	6826.2	5936.7
1005.1723	2787.0579	6804.15	5914.55
1005.2921	2788.2428	6780.6	5893.95
1005.4118	2789.427	6774.2	5888.7
1005.5314	2790.6106	6739.35	5853.5
1005.651	2791.7935	6730	5840.35
1005.7706	2792.9757	6697.5	5811.55
1005.8902	2794.1573	6678.15	5790.05
1006.0097	2795.3382	6668.2	5779.5
1006.1291	2796.5184	6639.95	5752.05
1006.2485	2797.698	6645.5	5754.55
1006.3679	2798.8769	6625	5736.9
1006.4873	2800.0551	6615.65	5728
1006.6066	2801.2327	6600.1	5709.95
1006.7258	2802.4096	6582.45	5695.05
1006.8451	2803.5859	6559.35	5670.7
1006.9642	2804.7615	6555.9	5668.35
1007.0834	2805.9364	6559.85	5673.4
1007.2025	2807.1106	6567.25	5680.3
1007.3216	2808.2842	6559.8	5672.4
1007.4406	2809.4572	6564.2	5674.1
1007.5596	2810.6294	6581.8	5692.95
1007.6785	2811.801	6571.15	5684.05
1007.7975	2812.972	6603.65	5715.6
1007.9163	2814.1423	6596.2	5708.6
1008.0352	2815.3119	6634.15	5746.5
1008.154	2816.4808	6656.45	5770.6
1008.2727	2817.6491	6687.45	5799.85
1008.3914	2818.8167	6684.65	5799
1008.5101	2819.9837	6696.7	5803
1008.6288	2821.15	6761.55	5873.9
1008.7474	2822.3157	6778.05	5893.3
1008.8659	2823.4807	6798.6	5911.1
1008.9844	2824.645	6827.85	5939.3
1009.1029	2825.8086	6839.05	5951.15
1009.2214	2826.9716	6876.45	5987.1
1009.3398	2828.134	6898.95	6012.45
1009.4581	2829.2957	6930.85	6042.8
1009.5764	2830.4567	6928.85	6042.05
1009.6947	2831.617	6935.45	6044.7
1009.813	2832.7767	6929.05	6042.6
1009.9312	2833.9358	6929.6	6042
1010.0493	2835.0941	6928	6038.25
1010.1675	2836.2519	6894.65	6007.8
1010.2855	2837.4089	6855.25	5968.2
1010.4036	2838.5653	6826.1	5938.35
1010.5216	2839.7211	6813.65	5927.2
1010.6396	2840.8761	6792.55	5903.5
1010.7575	2842.0306	6792.55	5906.05
1010.8754	2843.1843	6821.05	5932.7
1010.9932	2844.3374	6835.65	5946.5
1011.111	2845.4899	6867.25	5978.45
1011.2288	2846.6417	6904.05	6017.5
1011.3465	2847.7928	6925	6038.9
1011.4642	2848.9433	6984.7	6094.65
1011.5818	2850.0931	7014.1	6125.95
1011.6995	2851.2422	7074.3	6184.7
1011.817	2852.3907	7103.75	6217.1
1011.9345	2853.5385	7144.15	6254.2
1012.052	2854.6857	7174.05	6277.05
1012.1695	2855.8323	7167.85	6280.3
1012.2869	2856.9781	7201.95	6314.45
1012.4042	2858.1233	7228.5	6341.05
1012.5216	2859.2679	7265.75	6377.85
1012.6389	2860.4118	7284.5	6397.45
1012.7561	2861.555	7297.15	6403.5
1012.8733	2862.6976	7321.85	6429.15
1012.9905	2863.8395	7299.9	6412.75
1013.1076	2864.9808	7330.85	6442.95
1013.2247	2866.1214	7297.6	6410.8
1013.3417	2867.2614	7337.25	6449.7
1013.4587	2868.4007	7310.95	6423.7
1013.5757	2869.5393	7312.3	6423.6
1013.6926	2870.6773	7303.05	6413
1013.8095	2871.8146	7291.95	6400.35
1013.9263	2872.9513	7269.85	6379.05
1014.0431	2874.0874	7222	6334.1
1014.1599	2875.2227	7214.25	6326.5
1014.2766	2876.3574	7179.05	6291.65
1014.3933	2877.4915	7150	6263.25
1014.51	2878.6249	7100.65	6214
1014.6266	2879.7577	7076.7	6187.55
1014.7431	2880.8898	7024.15	6126.05
1014.8596	2882.0212	6987.85	6102.05
1014.9761	2883.152	6961.45	6072.5
1015.0925	2884.2821	6929.45	6044.1
1015.2089	2885.4116	6894.5	6007.4
1015.3253	2886.5405	6870.8	5982.8
1015.4416	2887.6686	6869.8	5980.35
1015.5579	2888.7962	6850.35	5963.95
1015.6741	2889.923	6857.5	5970.95
1015.7903	2891.0493	6849.15	5963.35
1015.9065	2892.1748	6830.05	5942.55
1016.0226	2893.2997	6815.15	5926
1016.1387	2894.424	6810.55	5922.45
1016.2547	2895.5476	6812.25	5923.85
1016.3707	2896.6706	6815.75	5929.95
1016.4866	2897.7929	6813.55	5924.7
1016.6025	2898.9145	6834	5948.85
1016.7184	2900.0355	6810.75	5922.5
1016.8342	2901.1559	6817.65	5929.05
1016.95	2902.2756	6846.15	5959.5
1017.0658	2903.3946	6859.4	5971.2
1017.1815	2904.513	6865.15	5973.75
1017.2971	2905.6308	6873.1	5986.5
1017.4127	2906.7479	6871.75	5983.1
1017.5283	2907.8643	6876.5	5988.95
1017.6439	2908.9801	6865.1	5980.05
1017.7594	2910.0953	6841.25	5955.5
1017.8748	2911.2098	6834.3	5944.55
1017.9902	2912.3236	6809	5914.2
1018.1056	2913.4368	6788.35	5897.8
1018.2209	2914.5494	6736.15	5848.45
1018.3362	2915.6613	6715.4	5821.8
1018.4515	2916.7725	6671.45	5781.55
1018.5667	2917.8831	6647.45	5759.3
1018.6819	2918.9931	6600.65	5711.45
1018.797	2920.1024	6561.65	5672.8
1018.9121	2921.211	6526.95	5638.55
1019.0271	2922.319	6513.25	5626.05
1019.1421	2923.4264	6502.5	5615.75
1019.2571	2924.5331	6461.25	5575
1019.372	2925.6391	6411	5525.85
1019.4869	2926.7445	6407.45	5520.95
1019.6017	2927.8493	6386.9	5499.7
1019.7165	2928.9534	6392.25	5504.85
1019.8313	2930.0569	6377.7	5487.1
1019.946	2931.1597	6356.8	5468.85
1020.0606	2932.2619	6334	5446.55
1020.1753	2933.3634	6329.45	5442.8
1020.2899	2934.4643	6342.8	5447.55
1020.4044	2935.5645	6295.4	5402.85
1020.5189	2936.6641	6248.25	5357
1020.6334	2937.763	6216.65	5330.55
1020.7478	2938.8613	6176.85	5289.35
1020.8622	2939.959	6120.45	5228.6
1020.9765	2941.056	6039.5	5152
1021.0908	2942.1523	5956.55	5069.3
1021.2051	2943.248	5878.3	4989.5
1021.3193	2944.3431	5780.45	4894.5
1021.4334	2945.4375	5676.4	4788.9
1021.5476	2946.5313	5589.15	4702.5
1021.6617	2947.6244	5493.05	4605.15
1021.7757	2948.7169	5394.5	4505.9
1021.8897	2949.8087	5285.9	4398.55
1022.0037	2950.8999	5191.25	4303.75
1022.1176	2951.9904	5123.65	4237.75
1022.2315	2953.0803	5044.9	4156.25
1022.3453	2954.1696	4986.95	4098.9
1022.4591	2955.2582	4937.95	4051.55
1022.5728	2956.3462	4881.5	3994.2
1022.6865	2957.4335	4824.65	3937.35
1022.8002	2958.5202	4775.5	3886.3
1022.9138	2959.6062	4746.65	3860.5
1023.0274	2960.6916	4714.4	3827.35
1023.141	2961.7764	4688	3799.8
1023.2545	2962.8605	4674.35	3787.65
1023.3679	2963.9439	4632.35	3744.8
1023.4813	2965.0267	4600.55	3711.65
1023.5947	2966.1089	4615.55	3706
1023.708	2967.1905	4555.55	3667.95
1023.8213	2968.2714	4547.3	3661.1
1023.9346	2969.3516	4533.5	3646.65
1024.0478	2970.4312	4532.95	3639.6
1024.1609	2971.5102	4498.7	3612.45
1024.274	2972.5885	4491.6	3606.1
1024.3871	2973.6662	4487.85	3596.6
1024.5002	2974.7432	4465.9	3578.35
1024.6132	2975.8196	4456.15	3568.6
1024.7261	2976.8954	4430.8	3544.45
1024.839	2977.9705	4418.85	3531.3
1024.9519	2979.045	4403.5	3517.05
1025.0647	2980.1188	4373.6	3486.7
1025.1775	2981.192	4362.1	3476.4
1025.2902	2982.2645	4308.75	3420.45
1025.4029	2983.3364	4297.2	3410.75
1025.5156	2984.4077	4238	3351.35
1025.6282	2985.4783	4231.35	3339.05
1025.7407	2986.5483	4180.95	3294.15
1025.8532	2987.6177	4135.85	3251.05
1025.9657	2988.6864	4105.75	3217.95
1026.0782	2989.7545	4073.65	3185.6
1026.1906	2990.8219	4024.75	3139.5
1026.3029	2991.8887	3987.1	3099.85
1026.4152	2992.9548	3963.1	3075.05
1026.5275	2994.0204	3927	3039.05
1026.6397	2995.0852	3884.8	3000
1026.7519	2996.1495	3859.15	2972.15
1026.864	2997.2131	3834.25	2948.45
1026.9761	2998.276	3792.95	2904.75
1027.0882	2999.3383	3770.5	2882.85
1027.2002	3000.4	3742.2	2853.6
1027.3122	3001.4611	3720	2831.8
1027.4241	3002.5215	3692.6	2806.2
1027.536	3003.5812	3673.75	2786.7
1027.6478	3004.6404	3655.9	2768.1
1027.7596	3005.6989	3630.45	2741.6
1027.8714	3006.7567	3614.2	2725.7
1027.9831	3007.8139	3604.35	2697.4
1028.0947	3008.8705	3571.85	2684.4
1028.2064	3009.9264	3563.7	2673
1028.3179	3010.9818	3552.6	2665.55
1028.4295	3012.0364	3548	2659.7
1028.541	3013.0905	3517.45	2630.25
1028.6524	3014.1439	3508.5	2621.65
1028.7638	3015.1966	3495.6	2610.1
1028.8752	3016.2487	3490.5	2601.9
1028.9865	3017.3002	3462.95	2572.3
1029.0978	3018.3511	3460.4	2574.45
1029.209	3019.4013	3456.75	2569.85
1029.3202	3020.4509	3452.1	2566.1
1029.4314	3021.4998	3444.5	2557.6
1029.5425	3022.5481	3424.65	2537.55
1029.6535	3023.5958	3417.3	2529.9
1029.7645	3024.6428	3414.45	2526.3
1029.8755	3025.6892	3400.35	2513.65
1029.9864	3026.735	3389.65	2502.35
1030.0973	3027.7802	3375.85	2491.15
1030.2082	3028.8247	3364.1	2479.2
1030.319	3029.8685	3339.75	2452.05
1030.4297	3030.9118	3359.45	2471.85
1030.5404	3031.9544	3344.3	2459.05
1030.6511	3032.9963	3336.45	2449.3
1030.7617	3034.0376	3329.6	2444.55
1030.8723	3035.0783	3337.7	2447.85
1030.9829	3036.1184	3313.45	2425.5
1031.0934	3037.1578	3319.9	2435.95
1031.2038	3038.1966	3304.75	2416.6
1031.3142	3039.2348	3284	2397.1
1031.4246	3040.2723	3285.75	2390.9
1031.5349	3041.3092	3270.7	2384.4
1031.6452	3042.3455	3271.55	2384.4
1031.7554	3043.3811	3254.7	2367.05
1031.8656	3044.4161	3235.65	2347.75
1031.9758	3045.4505	3231.95	2346.75
1032.0859	3046.4842	3228.95	2342.35
1032.1959	3047.5173	3205.45	2318.9
1032.3059	3048.5498	3202.55	2316.1
1032.4159	3049.5816	3195.7	2307.8
1032.5258	3050.6128	3188.75	2301.3
1032.6357	3051.6434	3166.15	2277.5
1032.7455	3052.6734	3159.2	2271.35
1032.8553	3053.7027	3129.65	2244.65
1032.9651	3054.7314	3137.75	2251.1
1033.0748	3055.7594	3114.55	2228.3
1033.1845	3056.7868	3106.15	2218.65
1033.2941	3057.8136	3096.2	2210.65
1033.4037	3058.8398	3064.15	2178.75
1033.5132	3059.8653	3071.55	2186.6
1033.6227	3060.8902	3060.55	2172.1
1033.7321	3061.9145	3041.15	2155.15
1033.8415	3062.9381	3024.5	2136.6
1033.9509	3063.9612	3040.2	2137.5
1034.0602	3064.9835	3019	2129.45
1034.1694	3066.0053	3013.25	2123.9
1034.2787	3067.0264	2986.4	2100.8
1034.3878	3068.0469	2978.5	2089.4
1034.497	3069.0668	2973.4	2083.35
1034.6061	3070.086	2964.6	2076.7
1034.7151	3071.1046	2946.25	2060.35
1034.8241	3072.1226	2933.8	2044.55
1034.9331	3073.1399	2926.25	2039.1
1035.042	3074.1567	2895.35	2007.85
1035.1508	3075.1727	2884.9	1997.4
1035.2597	3076.1882	2865.8	1980.2
1035.3684	3077.203	2858.9	1969.6
1035.4772	3078.2173	2865.95	1977.4
1035.5859	3079.2308	2844.55	1955.95
1035.6945	3080.2438	2827.6	1936.5
1035.8031	3081.2561	2797.6	1911.3
1035.9117	3082.2678	2793.35	1909.25
1036.0202	3083.2789	2784.85	1898.75
1036.1286	3084.2893	2765.15	1879.5
1036.2371	3085.2991	2761	1870.75
1036.3454	3086.3083	2758.45	1867.95
1036.4538	3087.3169	2733.7	1845.35
1036.562	3088.3248	2724.05	1834.85
1036.6703	3089.3321	2714.95	1828.5
1036.7785	3090.3388	2709.2	1823.2
1036.8866	3091.3449	2687.35	1801.4
1036.9948	3092.3503	2678.55	1789.85
1037.1028	3093.3551	2677.65	1791.45
1037.2108	3094.3593	2661.1	1775.55
1037.3188	3095.3629	2642.75	1756.9
1037.4267	3096.3658	2643.9	1756.35
1037.5346	3097.3681	2636.65	1748.9
1037.6425	3098.3698	2625.05	1737.2
1037.7503	3099.3708	2620.1	1728.5
1037.858	3100.3713	2597.45	1710.5
1037.9657	3101.3711	2601.6	1714.55
1038.0734	3102.3702	2696.35	1669.95
1038.181	3103.3688	2583.35	1695.25
1038.2886	3104.3667	2559.9	1672.9
1038.3961	3105.364	2544.35	1657.8
1038.5036	3106.3607	2527.8	1638.7
1038.611	3107.3568	2524.2	1634.45
1038.7184	3108.3522	2520.2	1633.1
1038.8257	3109.347	2509.2	1621.1
1038.933	3110.3412	2509	1619.35
1039.0403	3111.3348	2498.35	1613
1039.1475	3112.3277	2476.6	1588.45
1039.2547	3113.32	2473.8	1590.45
1039.3618	3114.3117	2464.2	1575.3
1039.4689	3115.3028	2461.45	1575.3
1039.5759	3116.2932	2443.7	1554.35
1039.6829	3117.2831	2450.85	1562.45
1039.7898	3118.2723	2427.5	1541.45
1039.8967	3119.2608	2420.45	1533.55
1040.0035	3120.2488	2399.65	1512.8
1040.1103	3121.2361	2399.15	1512.6
1040.2171	3122.2229	2383.7	1499.35
1040.3238	3123.209	2387.75	1499.55
1040.4305	3124.1944	2370.05	1482.2
1040.5371	3125.1793	2381.3	1493.95
1040.6437	3126.1635	2362.95	1477.05
1040.7502	3127.1471	2349.2	1462.2
1040.8567	3128.1301	2352.25	1468.2
1040.9631	3129.1125	2337.65	1451
1041.0695	3130.0942	2340.75	1456.3
1041.1759	3131.0753	2332.8	1438.6
1041.2822	3132.0558	2328.45	1440.15
1041.3884	3133.0357	2310.35	1423.75
1041.4946	3134.015	2308	1419.65
1041.6008	3134.9936	2297.5	1407.8
1041.7069	3135.9716	2300.15	1392.5
1041.813	3136.949	2272.3	1387.75
1041.919	3137.9258	2289.65	1398.1
1042.025	3138.902	2286.95	1394.65
1042.1309	3139.8775	2270.4	1383.8
1042.2368	3140.8524	2267.6	1381.45
1042.3427	3141.8267	2251.6	1362.55
1042.4485	3142.8004	2249.95	1362.9
1042.5542	3143.7735	2252.8	1360.45
1042.6599	3144.7459	2243.9	1354.6
1042.7656	3145.7178	2240.15	1352
1042.8712	3146.689	2214.65	1328.4
1042.9768	3147.6596	2216.6	1328.4
1043.0823	3148.6295	2216.55	1327.95
1043.1878	3149.5989	2214.35	1326.25
1043.2932	3150.5676	2198.5	1313.45
1043.3986	3151.5357	2183.55	1299.85
1043.5039	3152.5032	2183.15	1297.3
1043.6092	3153.4701	2166.45	1279.85
1043.7145	3154.4364	2172.6	1282.55
1043.8197	3155.402	2155.35	1270.75
1043.9248	3156.367	2148.3	1260.35
1044.03	3157.3315	2186.55	1258.3
1044.135	3158.2952	2146.45	1258.5
1044.24	3159.2584	2128.35	1242.4
1044.345	3160.221	2123.9	1236.35
1044.4499	3161.1829	2121	1233.5
1044.5548	3162.1442	2113.8	1227.55
1044.6596	3163.105	2103.75	1216
1044.7644	3164.065	2094	1206.55
1044.8692	3165.0245	2093	1204.2
1044.9739	3165.9834	2073.3	1187.5
1045.0785	3166.9416	2083.65	1196.9
1045.1831	3167.8993	2065.05	1177.6
1045.2877	3168.8563	2066.4	1178.7
1045.3922	3169.8127	2057.95	1171.6
1045.4966	3170.7684	2047.2	1160.05
1045.6011	3171.7236	2055.05	1167.7
1045.7054	3172.6782	2022.2	1135.75
1045.8098	3173.6321	2040.95	1154.1
1045.914	3174.5854	2021.8	1132.2
1046.0183	3175.5381	2021	1131.95
1046.1224	3176.4902	2005.1	1119.2
1046.2266	3177.4417	2005.3	1119.05
1046.3307	3178.3926	2002.3	1116.55
1046.4347	3179.3428	1993.05	1109.6
1046.5387	3180.2924	1984.8	1098.85
1046.6427	3181.2415	1977.25	1091.2
1046.7466	3182.1899	1985.2	1095.5
1046.8504	3183.1377	1962.85	1076.2
1046.9542	3184.0848	1967.75	1078.8
1047.058	3185.0314	1958.05	1070
1047.1617	3185.9773	1951.9	1064.3
1047.2654	3186.9227	1945.8	1060.6
1047.369	3187.8674	1942.35	1056
1047.4726	3188.8115	1932.05	1043.1
1047.5761	3189.755	1926.4	1040.6
1047.6796	3190.6979	1922.7	1036.1
1047.783	3191.6402	1921.1	1036.1
1047.8864	3192.5818	1913.9	1027.05
1047.9898	3193.5229	1929.95	1021.3
1048.0931	3194.4633	1912.65	1025.4
1048.1963	3195.4031	1909.9	1022.7
1048.2995	3196.3423	1896	1010.3
1048.4027	3197.2809	1888.2	1002.9
1048.5058	3198.2189	1876.85	990.85
1048.6089	3199.1563	1885.8	991.95
1048.7119	3200.0931	1874.35	987.6
1048.8148	3201.0292	1864.85	980.45
1048.9178	3201.9648	1867.65	981.25
1049.0206	3202.8997	1851.85	962.05
1049.1235	3203.834	1854.15	966.85
1049.2262	3204.7677	1847.2	961.35
1049.329	3205.7008	1839.5	951.65
1049.4317	3206.6333	1828.15	942.95
1049.5343	3207.5652	1834	943.75
1049.6369	3208.4964	1828.6	942.7
1049.7394	3209.4271	1825	938.5
1049.8419	3210.3571	1816.45	931.05
1049.9444	3211.2865	1810.4	923.15
1050.0468	3212.2154	1808.7	920.9
1050.1491	3213.1436	1799	909.6
1050.2514	3214.0712	1797.35	903.5
1050.3537	3214.9982	1797.2	909.4
1050.4559	3215.9246	1784	896.4
1050.5581	3216.8503	1783.3	899.3
1050.6602	3217.7755	1784.25	899.45
1050.7623	3218.7001	1781.4	895
1050.8643	3219.624	1773.85	888.35
1050.9663	3220.5473	1763.5	876.75
1051.0682	3221.4701	1766.55	877.7
1051.1701	3222.3922	1767.4	879.1
1051.2719	3223.3137	1758.75	872.15
1051.3737	3224.2346	1754.1	867.85
1051.4754	3225.1549	1745.55	861.6
1051.5771	3226.0746	1736.45	850.55
1051.6788	3226.9937	1734.45	847.75
1051.7804	3227.9121	1730.75	843.55
1051.8819	3228.83	1728.05	840.75
1051.9834	3229.7473	1723.85	838
1052.0849	3230.6639	1719.75	833.5
1052.1863	3231.5799	1708.9	821.5
1052.2876	3232.4954	1707.5	819.3
1052.3889	3233.4102	1694.75	806.55
1052.4902	3234.3244	1700.6	812.4
1052.5914	3235.238	1691.05	805.9
1052.6926	3236.151	1707.4	800
1052.7937	3237.0634	1676.6	788.35
1052.8948	3237.9752	1677.8	792.35
1052.9958	3238.8864	1673.9	787
1053.0968	3239.797	1657.35	772.2
1053.1977	3240.7069	1667.5	781.75
1053.2986	3241.6163	1656.8	769.9
1053.3994	3242.5251	1654.55	767.85
1053.5002	3243.4332	1641.85	756.05
1053.6009	3244.3408	1647.15	758.15
1053.7016	3245.2477	1634.15	747.8
1053.8022	3246.154	1640.05	751.45
1053.9028	3247.0598	1640.5	753.35
1054.0034	3247.9649	1633.45	748.25
1054.1039	3248.8694	1619.45	732.05
1054.2043	3249.7733	1611.45	727.15
1054.3047	3250.6766	1618.9	732.5
1054.4051	3251.5793	1598.9	710.95
1054.5054	3252.4814	1604	717.35
1054.6056	3253.3829	1600.45	715
1054.7058	3254.2838	1591.3	706.65
1054.806	3255.1841	1595.55	709.8
1054.9061	3256.0838	1582.6	695.8
1055.0061	3256.9829	1576.25	691.55
1055.1062	3257.8814	1574.9	684.95
1055.2061	3258.7792	1562.05	671.75
1055.306	3259.6765	1561.95	676.25
1055.4059	3260.5731	1544.8	657.05
1055.5057	3261.4692	1540.7	653.2
1055.6055	3262.3647	1540.25	653.1
1055.7052	3263.2595	1535.75	647.6
1055.8049	3264.1538	1516.05	630.9
1055.9045	3265.0474	1506.35	618.3
1056.0041	3265.9404	1502.05	619.45
1056.1036	3266.8329	1489.5	603.9
1056.2031	3267.7247	1484.35	590.55
1056.3025	3268.616	1471.05	586.7
1056.4019	3269.5066	1457.95	569.8
1056.5013	3270.3966	1440.1	552.85
1056.6005	3271.286	1417.4	531.3
