Software Version:	3.9.2.0
Unit SN:	10000200
Spectrometer SN:	6960
Date:	3/6/2024 10:01:36 AM
Data Line Index:	25
Spectral Points:	2048
Integration time (ms):	125
Averages:	20
Delay (ms):	30
Sequence Number:	1
Processing:	dark subtract
Laser Power (mW):	300
Laser Current (mA):	826
Laser Diode Temp (C):	25.1
Laser Case Temp (C):	24.7
System Temp (C):	24.5
Spectrometer Temp (C):	22.1
CCD Temp (C):	-0.01
Secondary Temp (C):	20.007
Heatsink Temp (C):	18.419
CCDPCB Temp (C):	31.849
SecondaryPCB Temp (C):	26.347

Wavelength	RamanShift	Raw Counts	Dark Subtracted
787.061	30.1047	661	255.25
787.2016	32.3739	665.5	259.5
787.3422	34.6426	680.4	275.2
787.4828	36.9109	694	285.1
787.6235	39.1787	720.4	307.65
787.7642	41.4461	741.05	322.85
787.9049	43.7131	764.3	344.65
788.0456	45.9796	790.5	366.35
788.1863	48.2456	817.35	390.75
788.3271	50.5112	843.7	411.85
788.4679	52.7764	871.05	439.5
788.6087	55.0411	897.5	460.15
788.7496	57.3054	927.2	483.2
788.8904	59.5692	960.75	514.6
789.0313	61.8326	995.6	546.9
789.1722	64.0955	1036.1	584.15
789.3132	66.3579	1088.3	632.5
789.4541	68.6199	1138.65	678.65
789.5951	70.8815	1242.95	779.1
789.7361	73.1426	1463.25	994.35
789.8771	75.4032	2049.35	1577.5
790.0181	77.6634	3473.6	2998.3
790.1592	79.9231	7062.4	6581.65
790.3003	82.1824	16258.85	15768.35
790.4414	84.4412	33584.55	33077.8
790.5825	86.6995	47122	46595.5
790.7237	88.9574	54075.95	53530.35
790.8648	91.2148	58082.1	57524.25
791.006	93.4717	59280.7	58713.1
791.1472	95.7282	59867.95	59298.2
791.2885	97.9842	60186.15	59613.65
791.4297	100.2398	60189.05	59617.1
791.571	102.4949	60209.35	59629.85
791.7123	104.7495	60221.45	59640.65
791.8536	107.0036	60078.65	59497.1
791.9949	109.2573	60395.55	59817.85
792.1363	111.5105	60165.1	59579.8
792.2777	113.7632	60291.5	59706.8
792.4191	116.0154	60413	59813.4
792.5605	118.2672	60631.4	60039.7
792.7019	120.5185	60674.65	60082.55
792.8434	122.7693	60669.6	60073.45
792.9849	125.0197	60361.45	59758.25
793.1264	127.2696	60959.1	60359.35
793.2679	129.519	60881.95	60274.05
793.4094	131.7679	61119.15	60509.3
793.551	134.0163	60542.25	59931.7
793.6926	136.2642	60792.85	60177.35
793.8342	138.5117	61149.3	60530.6
793.9758	140.7587	61016.7	60399.75
794.1175	143.0052	61025.35	60404.05
794.2591	145.2512	60740.7	60120.3
794.4008	147.4967	61121.95	60495.45
794.5425	149.7417	61021.45	60393.55
794.6842	151.9863	61026.75	60395.9
794.826	154.2304	60801.5	60164.25
794.9677	156.4739	60958.25	60319.25
795.1095	158.717	61215.4	60573.35
795.2513	160.9596	61060.75	60414.95
795.3931	163.2017	60785.75	60138.1
795.535	165.4433	61112.3	60463.3
795.6768	167.6844	60930.9	60279.55
795.8187	169.925	61110.95	60457.8
795.9606	172.1651	60938.25	60281.35
796.1025	174.4047	61039.55	60379.85
796.2445	176.6439	61020.45	60357.75
796.3864	178.8825	60922.1	60254.35
796.5284	181.1206	61203.5	60531.75
796.6704	183.3582	61166.35	60492.4
796.8124	185.5954	61044.6	60368.35
796.9544	187.832	61081.55	60404.2
797.0965	190.0681	60900.8	60217.15
797.2386	192.3037	61247.9	60559.95
797.3806	194.5388	61567.45	60878.75
797.5228	196.7734	60773.5	60081.7
797.6649	199.0075	61515.25	60824.3
797.807	201.2411	61242.8	60550.55
797.9492	203.4742	61627.95	60932.75
798.0914	205.7068	61535.05	60837.6
798.2336	207.9389	61537.7	60837
798.3758	210.1704	61476.65	60778.4
798.518	212.4015	61747.4	61060.5
798.6603	214.632	61391.2	60710.45
798.8025	216.862	61775.15	61096.3
798.9448	219.0915	61598.5	60920.85
799.0871	221.3205	61582.25	60898.25
799.2294	223.549	61862.45	61184.9
799.3718	225.777	61805.85	61126.75
799.5141	228.0044	61949	61264.8
799.6565	230.2314	61831.3	61142.85
799.7989	232.4578	61836.3	61145.55
799.9413	234.6837	61907.9	61208.85
800.0837	236.909	62341.05	61641.4
800.2262	239.1339	61686.5	60965.05
800.3687	241.3582	61982.1	61273.8
800.5111	243.582	61979.45	61235.5
800.6536	245.8053	61974.4	61245.55
800.7961	248.0281	62033.25	61307.15
800.9387	250.2503	62118.1	61385.5
801.0812	252.472	61911.95	61184.3
801.2238	254.6932	62061.65	61330.5
801.3664	256.9139	61969.5	61237.4
801.509	259.134	62388.55	61654.05
801.6516	261.3536	61921.4	61186.6
801.7942	263.5727	62162.1	61425.95
801.9369	265.7912	62015.6	61282.65
802.0795	268.0092	62085.9	61352.8
802.2222	270.2267	62159.25	61422.9
802.3649	272.4436	61937.7	61200.6
802.5076	274.6601	62154.5	61403.7
802.6504	276.8759	62237.6	61496.05
802.7931	279.0913	62114.15	61372.3
802.9359	281.3061	62196.25	61451.9
803.0787	283.5204	62214.5	61465.7
803.2215	285.7341	62197.4	61447.3
803.3643	287.9473	62389.1	61624.85
803.5071	290.16	62218.95	61463.95
803.6499	292.3721	62312.9	61566.7
803.7928	294.5837	62145.25	61395.55
803.9357	296.7947	62013.7	61264.15
804.0786	299.0052	62325.5	61576.45
804.2215	301.2152	62212.85	61458.35
804.3644	303.4246	62356.15	61604.5
804.5074	305.6334	62352	61598.2
804.6503	307.8418	62083.4	61329.3
804.7933	310.0495	62113.9	61358.05
804.9363	312.2568	62120.7	61362.75
805.0793	314.4635	62128.85	61365.35
805.2223	316.6696	62221.2	61458.95
805.3653	318.8752	62323.55	61553.55
805.5084	321.0802	61879.65	61114.15
805.6514	323.2847	62082.25	61314.25
805.7945	325.4887	62065.5	61298.15
805.9376	327.692	61984.25	61214.8
806.0807	329.8949	62108.05	61337.65
806.2238	332.0972	62010.45	61237.45
806.367	334.2989	62099.15	61324.55
806.5101	336.5001	62243.05	61465.6
806.6533	338.7007	61897.85	61121
806.7965	340.9008	62103.5	61326.85
806.9397	343.1003	62110.25	61331.95
807.0829	345.2992	62257.45	61480.05
807.2261	347.4976	62055.35	61275.1
807.3693	349.6955	62161.1	61373.1
807.5126	351.8927	62028.95	61242.9
807.6559	354.0895	62141.25	61343.6
807.7991	356.2856	62156.05	61365.25
807.9424	358.4812	62285.05	61498.8
808.0857	360.6763	61998.6	61206.6
808.2291	362.8707	62232.05	61438.55
808.3724	365.0646	62102.25	61305.7
808.5158	367.258	62084.2	61285.55
808.6591	369.4508	61922.45	61121.35
808.8025	371.643	62200.1	61398.85
808.9459	373.8346	62069.95	61267.2
809.0893	376.0257	62093.95	61290.05
809.2327	378.2162	62036.8	61234.95
809.3762	380.4062	61828	61022.55
809.5196	382.5956	62010.95	61209.25
809.6631	384.7844	61995.75	61200.25
809.8066	386.9726	62100.65	61305.85
809.9501	389.1603	62088.8	61297.65
810.0936	391.3474	61909.85	61083.2
810.2371	393.5339	62095.1	61296.65
810.3806	395.7199	61791.1	60996.1
810.5241	397.9052	61865.25	61069.3
810.6677	400.09	61910.45	61112.6
810.8113	402.2743	62070.85	61270.3
810.9548	404.4579	61849.3	61048.1
811.0984	406.641	61874.75	61076.4
811.2421	408.8235	61949.1	61147.55
811.3857	411.0054	61976.25	61170.65
811.5293	413.1868	62018.55	61210.2
811.673	415.3675	61935.5	61123.35
811.8166	417.5477	61934.35	61120.1
811.9603	419.7273	61926.2	61111.2
812.104	421.9064	61916.6	61095.2
812.2477	424.0848	61939.3	61123.05
812.3914	426.2627	62069.15	61252.75
812.5351	428.4399	61804.9	60988.25
812.6788	430.6166	61603.8	60783.15
812.8226	432.7928	61888.75	61064.6
812.9663	434.9683	61708.9	60886.65
813.1101	437.1432	61676.8	60854.9
813.2539	439.3176	61841.9	61022.9
813.3977	441.4914	61539.25	60720.6
813.5415	443.6645	61570.4	60749.65
813.6853	445.8371	61619.9	60798.6
813.8291	448.0091	61462.2	60639.35
813.973	450.1806	61374.3	60550.9
814.1168	452.3514	61435.1	60608.6
814.2607	454.5216	61283.8	60451.15
814.4046	456.6913	61431.7	60605.6
814.5485	458.8603	61496.1	60672.4
814.6924	461.0288	61235.5	60412.25
814.8363	463.1967	61442.35	60620.2
814.9802	465.3639	61385.8	60560.85
815.1241	467.5306	61004.3	60178.55
815.2681	469.6967	61229.2	60402.85
815.412	471.8622	61361.65	60538.6
815.556	474.0271	61218.9	60393.05
815.7	476.1914	61261.4	60431.4
815.844	478.3551	61256.7	60425.35
815.988	480.5182	61505.65	60679.55
816.132	482.6807	61165.75	60339.6
816.276	484.8426	61204.45	60381.4
816.4201	487.0039	61470.25	60643.35
816.5641	489.1647	61440.75	60609.55
816.7082	491.3248	61144.65	60313.95
816.8522	493.4843	61498.45	60669.6
816.9963	495.6432	61498.3	60668.05
817.1404	497.8015	61123.6	60284.05
817.2845	499.9592	61340.25	60501.75
817.4286	502.1163	61355.85	60517.8
817.5727	504.2728	61306.7	60469.35
817.7168	506.4287	61280.35	60448.05
817.861	508.5839	61099.85	60267.65
818.0051	510.7386	61248.6	60413.05
818.1493	512.8927	61309.15	60468.1
818.2935	515.0461	61246.6	60405.5
818.4377	517.199	61373.05	60532
818.5818	519.3512	61219.5	60378.3
818.726	521.5029	61218.45	60373.4
818.8703	523.6539	61248.5	60407.35
819.0145	525.8043	60978.1	60136.65
819.1587	527.9541	61232.85	60388.75
819.303	530.1033	61199.05	60356.95
819.4472	532.2519	61056.6	60212.6
819.5915	534.3999	61215.05	60370.05
819.7357	536.5472	61329.15	60483.45
819.88	538.694	60986	60143.2
820.0243	540.8401	61178.2	60331.35
820.1686	542.9856	61159.9	60308.75
820.3129	545.1305	61280.6	60431.25
820.4572	547.2748	61074.95	60222.2
820.6016	549.4185	61094.05	60241.4
820.7459	551.5615	61252.45	60400.55
820.8902	553.704	61153.25	60303.8
821.0346	555.8458	61030.7	60181.45
821.1789	557.987	61056.55	60207.2
821.3233	560.1276	61157.45	60306.05
821.4677	562.2675	61064.85	60214.1
821.6121	564.4069	61063.25	60211.75
821.7565	566.5456	61205.65	60356.25
821.9009	568.6837	60924.9	60075.5
822.0453	570.8212	61054.7	60203.6
822.1897	572.958	60755	59900.45
822.3342	575.0942	61033.1	60183.35
822.4786	577.2299	60832.65	59981.7
822.6231	579.3648	60724.2	59876.15
822.7675	581.4992	60658.8	59815.75
822.912	583.6329	60657.05	59812
823.0565	585.766	60622.65	59777.5
823.201	587.8985	60702.45	59856.2
823.3454	590.0304	60363.65	59487.3
823.4899	592.1616	60608.4	59751.6
823.6345	594.2922	60465.25	59607.85
823.779	596.4222	60312.95	59451.55
823.9235	598.5515	60383.15	59522.35
824.068	600.6802	60516.4	59657.05
824.2126	602.8083	60233.45	59377.35
824.3571	604.9358	60195.45	59337.7
824.5017	607.0626	60375.95	59516.05
824.6462	609.1888	60047.5	59183
824.7908	611.3144	60235.2	59372.1
824.9354	613.4393	60122.6	59261.55
825.08	615.5636	59960.85	59098.55
825.2246	617.6873	60140.8	59280.7
825.3692	619.8103	59970.45	59105.6
825.5138	621.9327	60180.85	59315.4
825.6584	624.0544	60169.5	59309.2
825.803	626.1756	60039.05	59178.75
825.9477	628.2961	60014.45	59150.75
826.0923	630.4159	59903.2	59037.65
826.237	632.5351	59839	58977.3
826.3816	634.6537	60244.2	59377.15
826.5263	636.7716	59799.4	58932.2
826.6709	638.8889	59931.75	59063.75
826.8156	641.0056	59907.65	59038.35
826.9603	643.1216	59921.5	59052.1
827.105	645.237	60025	59157.35
827.2497	647.3518	59763.35	58900.65
827.3944	649.4659	59850.25	58984.35
827.5391	651.5793	59852.5	58990.5
827.6838	653.6922	59925.5	59059.5
827.8285	655.8043	59598.05	58731.7
827.9733	657.9159	60001.7	59131.35
828.118	660.0268	59258.85	58390.75
828.2627	662.137	59666.3	58796.5
828.4075	664.2466	59708.2	58834.1
828.5522	666.3556	59503.2	58629.85
828.697	668.4639	59663.3	58789.15
828.8418	670.5716	59473.55	58605.6
828.9865	672.6786	59647.7	58776.8
829.1313	674.785	59362.3	58490.65
829.2761	676.8907	59375.4	58505.9
829.4209	678.9958	59454.25	58587.45
829.5657	681.1002	59492.9	58618.25
829.7105	683.204	59237.6	58359.4
829.8553	685.3072	59095.4	58219.45
830.0001	687.4097	59191.6	58319.85
830.1449	689.5115	59126	58250
830.2898	691.6127	59326.75	58452.3
830.4346	693.7132	59098.8	58227.15
830.5794	695.8131	59148.35	58249.2
830.7243	697.9123	59187.05	58308.9
830.8691	700.0109	59226.15	58346.5
831.014	702.1089	58890.75	58016.55
831.1588	704.2061	58995.4	58117.15
831.3037	706.3028	59007.55	58129.8
831.4486	708.3987	59027.5	58147.9
831.5935	710.4941	58873.9	57996.4
831.7383	712.5887	59032.55	58153.5
831.8832	714.6827	58900.55	58019.8
832.0281	716.7761	59026	58148.85
832.173	718.8688	59037.95	58161.4
832.3179	720.9608	58847.7	57964.6
832.4628	723.0522	58846.15	57960.8
832.6077	725.1429	58675	57793.65
832.7527	727.233	59144.5	58263.15
832.8976	729.3224	58451.2	57570.3
833.0425	731.4112	58676.15	57794.4
833.1874	733.4993	58688.25	57807.45
833.3324	735.5867	58658.3	57775.65
833.4773	737.6735	58533.75	57652.5
833.6222	739.7596	58315.7	57432.4
833.7672	741.845	58324.3	57444.55
833.9122	743.9298	58496	57613.85
834.0571	746.014	58273.15	57390.4
834.2021	748.0974	58141.65	57259.05
834.347	750.1802	58425.45	57539.3
834.492	752.2624	57957.85	57074.4
834.637	754.3439	58010.55	57123.65
834.782	756.4247	58076.25	57184
834.9269	758.5048	57894.45	57008.4
835.0719	760.5843	57884	56997.45
835.2169	762.6631	57908.75	57023.1
835.3619	764.7413	57823.65	56937.75
835.5069	766.8188	57797.85	56907.3
835.6519	768.8956	57822.1	56934.55
835.7969	770.9718	57829.5	56943.1
835.9419	773.0473	57717.6	56831.85
836.0869	775.1221	57599.6	56714.75
836.232	777.1962	57524.5	56637.35
836.377	779.2697	57371	56480
836.522	781.3426	57381.45	56478
836.667	783.4147	57400.55	56509.75
836.8121	785.4862	57340.3	56451.4
836.9571	787.557	57230.5	56343.2
837.1021	789.6271	57328.6	56439.65
837.2472	791.6966	57151.4	56261.15
837.3922	793.7654	56990	56101
837.5373	795.8335	57007	56116.8
837.6823	797.901	56961.7	56074
837.8274	799.9678	56872.3	55980.4
837.9724	802.0339	56838.95	55948.05
838.1175	804.0993	56820.2	55917.65
838.2626	806.1641	56759.4	55868.6
838.4076	808.2282	56722.95	55833.1
838.5527	810.2916	56673.7	55781.8
838.6978	812.3544	56727	55838.3
838.8428	814.4164	56523.25	55635.5
838.9879	816.4778	56597.25	55705.65
839.133	818.5385	56527.1	55636.85
839.2781	820.5986	56497.05	55604.3
839.4232	822.658	56512	55619.4
839.5682	824.7166	56415.5	55525.8
839.7133	826.7747	56324.15	55433.7
839.8584	828.832	56404.85	55513.15
840.0035	830.8886	56407.7	55514.4
840.1486	832.9446	56380.6	55485.2
840.2937	834.9999	56163.2	55271.45
840.4388	837.0545	56244.95	55350.1
840.5839	839.1085	56199.25	55305.5
840.729	841.1618	56181.15	55283.9
840.8741	843.2143	56024.25	55131.65
841.0192	845.2662	55963.1	55068.7
841.1643	847.3175	56003.4	55110.5
841.3095	849.368	55837.25	54942.05
841.4546	851.4179	55888.2	54993.8
841.5997	853.467	55729.8	54833.8
841.7448	855.5155	55753	54857.85
841.8899	857.5633	55664.15	54769.45
842.0351	859.6105	55551.4	54655.2
842.1802	861.6569	55570.4	54674.75
842.3253	863.7027	55472.85	54576
842.4704	865.7478	55496.4	54597.85
842.6156	867.7922	55424.05	54530.95
842.7607	869.8359	55441.9	54544.6
842.9058	871.8789	55319.65	54422
843.0509	873.9212	55374.4	54444.45
843.1961	875.9629	55256.3	54357.15
843.3412	878.0039	55290.9	54393.7
843.4863	880.0441	55238.6	54339.6
843.6315	882.0837	55258.8	54363
843.7766	884.1226	55179.7	54283.85
843.9218	886.1609	55143.45	54249.05
844.0669	888.1984	55148.1	54252.4
844.212	890.2352	55174.75	54279.85
844.3572	892.2714	55021.95	54119.85
844.5023	894.3069	55066.65	54166.8
844.6475	896.3416	54955.45	54059.65
844.7926	898.3757	54957.5	54061.35
844.9377	900.4091	54835.5	53935.95
845.0829	902.4418	54893.3	53990.85
845.228	904.4739	54755.4	53856.1
845.3732	906.5052	54755.5	53857.5
845.5183	908.5358	54683.55	53784.7
845.6635	910.5658	54624.6	53721.7
845.8086	912.595	54576.7	53675.55
845.9538	914.6236	54491.95	53591.25
846.0989	916.6515	54584.9	53685.4
846.2441	918.6786	54432.75	53532.65
846.3892	920.7051	54395.05	53494.1
846.5344	922.7309	54394.75	53495.95
846.6795	924.756	54323.25	53423.1
846.8246	926.7804	54278.65	53377.05
846.9698	928.8041	54150.6	53252
847.1149	930.8272	54144.5	53246.1
847.2601	932.8495	53997.3	53096.7
847.4052	934.8711	53970.85	53071.4
847.5504	936.892	53864.25	52965.2
847.6955	938.9123	53830.5	52926.65
847.8407	940.9318	53794.55	52891
847.9858	942.9506	53703.8	52801.65
848.131	944.9688	53655.9	52754.2
848.2761	946.9862	53574.8	52674.55
848.4213	949.003	53472.5	52570.9
848.5664	951.019	53428.2	52526.35
848.7115	953.0344	53370	52465.7
848.8567	955.0491	53291.9	52389.85
849.0018	957.063	53336.15	52434.25
849.147	959.0763	53343.85	52440.3
849.2921	961.0888	53261.25	52358.65
849.4373	963.1007	53249.3	52349.85
849.5824	965.1119	53237	52341.85
849.7275	967.1223	53153.8	52259.15
849.8727	969.1321	53147.6	52255.15
850.0178	971.1412	53100	52203.05
850.1629	973.1495	53008.4	52112.15
850.3081	975.1572	52986.2	52046.55
850.4532	977.1641	52948.55	52045.9
850.5983	979.1704	52870.6	51966.05
850.7435	981.1759	52828	51923.3
850.8886	983.1808	52795.05	51892.2
851.0337	985.1849	52758.05	51845.45
851.1788	987.1884	52727.7	51822.5
851.324	989.1911	52655.05	51753.3
851.4691	991.1932	52614.1	51711.75
851.6142	993.1945	52559.85	51659.25
851.7593	995.1951	52405	51503.35
851.9045	997.1951	52374.3	51468.3
852.0496	999.1943	52323.7	51424.2
852.1947	1001.1928	52236.2	51332.75
852.3398	1003.1906	52137.65	51235.65
852.4849	1005.1877	52133.95	51231.05
852.63	1007.1841	52044.85	51143.4
852.7751	1009.1798	51973.95	51071.9
852.9202	1011.1748	51899.85	50999.15
853.0653	1013.1691	51831.45	50927.9
853.2104	1015.1627	51650.85	50748.8
853.3555	1017.1556	51594.55	50693.3
853.5006	1019.1477	51553.45	50653.1
853.6457	1021.1392	51398.55	50501.9
853.7908	1023.1299	51305.8	50408.2
853.9359	1025.12	51320.2	50420.85
854.081	1027.1093	51162.3	50269.2
854.2261	1029.0979	51122.65	50234.35
854.3712	1031.0859	51024.7	50131.4
854.5163	1033.0731	50905.75	50009.35
854.6613	1035.0596	50904.8	50008.3
854.8064	1037.0454	50733.55	49832.1
854.9515	1039.0304	50711.85	49807.7
855.0965	1041.0148	50438.2	49534.4
855.2416	1042.9985	50426.75	49525.3
855.3867	1044.9814	50519.45	49618.5
855.5317	1046.9636	50273.3	49370.95
855.6768	1048.9452	50273.4	49372.7
855.8219	1050.926	50190.55	49289.7
855.9669	1052.9061	50108.25	49207.35
856.112	1054.8855	50079.6	49178.7
856.257	1056.8642	49995.15	49093.2
856.4021	1058.8421	49872.35	48965.4
856.5471	1060.8194	49834.45	48930.1
856.6921	1062.7959	49699.8	48799.5
856.8372	1064.7717	49842.25	48939.95
856.9822	1066.7469	49758.85	48858.15
857.1272	1068.7213	49753.6	48848.95
857.2723	1070.695	49599.75	48697.95
857.4173	1072.6679	49454.6	48550.7
857.5623	1074.6402	49501.95	48598.35
857.7073	1076.6117	49367.45	48459.35
857.8523	1078.5826	49351.8	48448.8
857.9973	1080.5527	49308.85	48401.2
858.1423	1082.5221	49114.55	48212.2
858.2873	1084.4908	49176.45	48275.85
858.4323	1086.4587	49048	48144.6
858.5773	1088.426	49027	48121.8
858.7223	1090.3925	48923.8	48016.6
858.8673	1092.3584	48865.75	47963
859.0123	1094.3235	48644.85	47741.15
859.1573	1096.2879	48615.9	47712.95
859.3022	1098.2515	48701.05	47798.4
859.4472	1100.2145	48604.15	47702.95
859.5922	1102.1767	48514.3	47607.7
859.7371	1104.1382	48561.35	47656.95
859.8821	1106.099	48455.85	47551.15
860.027	1108.0591	48362.25	47463.05
860.172	1110.0185	48103.6	47198.7
860.3169	1111.9771	48379.75	47476.1
860.4619	1113.9351	48171.7	47269.25
860.6068	1115.8923	47999	47097.4
860.7517	1117.8488	47877.75	46971.65
860.8967	1119.8045	47654.1	46753.95
861.0416	1121.7596	47779.9	46875.85
861.1865	1123.7139	47657.4	46757.45
861.3314	1125.6675	47603.7	46701.5
861.4763	1127.6204	47557.5	46658.15
861.6212	1129.5726	47321.55	46419.65
861.7661	1131.524	47417.7	46513.45
861.911	1133.4748	47376.35	46472.2
862.0559	1135.4248	47172.85	46266.7
862.2008	1137.3741	47157.45	46253.45
862.3457	1139.3226	47110.6	46207.05
862.4905	1141.2705	47072.8	46169.05
862.6354	1143.2176	46962.85	46051.2
862.7803	1145.164	46740.25	45836.45
862.9251	1147.1097	46868.9	45965.1
863.07	1149.0546	46807.45	45901.9
863.2148	1150.9989	46802.55	45900.25
863.3597	1152.9424	46549.25	45645.95
863.5045	1154.8852	46729.05	45823.8
863.6493	1156.8272	46471.15	45565.55
863.7942	1158.7686	46683.2	45772.85
863.939	1160.7092	46362.65	45456.7
864.0838	1162.6491	46295.8	45392.25
864.2286	1164.5883	46377.45	45474
864.3734	1166.5267	46171.45	45267.5
864.5182	1168.4644	46305.9	45402.65
864.663	1170.4014	46188.35	45278.15
864.8078	1172.3377	46286.65	45386
864.9526	1174.2732	46360.8	45458.7
865.0974	1176.2081	46230.95	45328.25
865.2421	1178.1421	46124.75	45219.35
865.3869	1180.0755	46307.65	45405.65
865.5317	1182.0082	46187.95	45286.7
865.6764	1183.9401	46209.85	45308.9
865.8212	1185.8713	45958.15	45058.45
865.9659	1187.8017	45870	44971.1
866.1106	1189.7315	45846.45	44952.7
866.2554	1191.6605	45693.6	44799
866.4001	1193.5888	45515.15	44619.45
866.5448	1195.5163	45366.8	44467.1
866.6895	1197.4432	45310.15	44409.55
866.8342	1199.3693	45255.1	44353.05
866.9789	1201.2947	45090.1	44179.95
867.1236	1203.2193	45132.85	44230.25
867.2683	1205.1432	44888.65	43984.25
867.413	1207.0664	44827.65	43923.95
867.5576	1208.9889	44784.05	43880.4
867.7023	1210.9106	44717.35	43818.05
867.847	1212.8316	44496.2	43596.4
867.9916	1214.7519	44502.2	43587.85
868.1363	1216.6715	44406.45	43505.95
868.2809	1218.5903	44383.8	43480.7
868.4255	1220.5084	44297	43393.55
868.5701	1222.4257	44320.5	43418.15
868.7148	1224.3424	44184.9	43284.15
868.8594	1226.2583	44098.1	43189.85
869.004	1228.1735	44098.7	43196.5
869.1486	1230.0879	43905.85	43005.55
869.2932	1232.0016	44007.3	43108.25
869.4377	1233.9146	43841.1	42938.75
869.5823	1235.8269	43800.3	42897.25
869.7269	1237.7384	43744.45	42844.2
869.8715	1239.6492	43627.35	42725.15
870.016	1241.5592	43556.4	42655.65
870.1606	1243.4686	43492.1	42591.5
870.3051	1245.3772	43431.85	42530.4
870.4496	1247.285	43415.4	42511.55
870.5941	1249.1922	43263.3	42361.55
870.7387	1251.0986	43352.6	42450.8
870.8832	1253.0042	43164.1	42260.9
871.0277	1254.9092	43241.75	42339.7
871.1722	1256.8134	43022.25	42125.9
871.3167	1258.7169	43164.55	42263.65
871.4611	1260.6196	43026.25	42125.25
871.6056	1262.5216	43031.8	42130.05
871.7501	1264.4229	43062.45	42160.6
871.8945	1266.3234	43090.3	42187.45
872.039	1268.2232	43001.95	42099.45
872.1834	1270.1223	42868.55	41966.05
872.3278	1272.0207	42889.3	41986.8
872.4723	1273.9183	42832.55	41926.1
872.6167	1275.8151	42767.35	41866.15
872.7611	1277.7113	42715.7	41811.45
872.9055	1279.6067	42628.35	41728.1
873.0499	1281.5014	42582.25	41679.2
873.1943	1283.3953	42640.85	41741.55
873.3386	1285.2885	42590.7	41690.8
873.483	1287.181	42662.4	41760.95
873.6274	1289.0727	42708	41808.4
873.7717	1290.9637	42575.65	41674.6
873.9161	1292.854	42706.5	41807
874.0604	1294.7435	42573.6	41673.05
874.2047	1296.6323	42579.45	41679.35
874.349	1298.5204	42530.45	41626.65
874.4933	1300.4077	42513.25	41611
874.6376	1302.2943	42395.15	41493.05
874.7819	1304.1802	42303	41401.75
874.9262	1306.0653	42204.6	41298.85
875.0705	1307.9497	42102.4	41201.2
875.2147	1309.8333	41988.05	41088.8
875.359	1311.7162	41920.85	41018.05
875.5032	1313.5984	41875.55	40973.7
875.6475	1315.4798	41813.2	40909.9
875.7917	1317.3605	41757.3	40840.6
875.9359	1319.2405	41754.35	40852.55
876.0801	1321.1197	41547.95	40645.25
876.2243	1322.9982	41470.9	40564.75
876.3685	1324.876	41463.4	40561.95
876.5127	1326.753	41340.7	40439.35
876.6569	1328.6293	41379	40476.35
876.801	1330.5048	41296.75	40393.3
876.9452	1332.3796	41164.15	40261.95
877.0893	1334.2537	41150.6	40227.75
877.2335	1336.127	41076.65	40175
877.3776	1337.9996	41014.45	40112.4
877.5217	1339.8714	40985.2	40082.95
877.6658	1341.7426	40902.75	39957.1
877.8099	1343.6129	40881.75	39978.4
877.954	1345.4826	40807.65	39903.35
878.0981	1347.3515	40821.65	39919.05
878.2422	1349.2196	40791.65	39889.4
878.3862	1351.087	40771.05	39869.25
878.5303	1352.9537	40746.75	39844
878.6743	1354.8197	40721.05	39817.55
878.8184	1356.6849	40773.6	39870.4
878.9624	1358.5493	40703.5	39800.25
879.1064	1360.4131	40684.65	39783
879.2504	1362.276	40634.5	39732.15
879.3944	1364.1383	40548.7	39646.7
879.5384	1365.9998	40457.8	39549.6
879.6823	1367.8606	40327.9	39424.9
879.8263	1369.7206	40220.65	39318.8
879.9702	1371.5799	40143.6	39239.6
880.1142	1373.4384	40007.8	39105.3
880.2581	1375.2962	39996.45	39093.5
880.402	1377.1533	39804.35	38902.75
880.5459	1379.0096	39638.75	38737
880.6898	1380.8652	39565.95	38667.1
880.8337	1382.7201	39477.1	38578.1
880.9776	1384.5742	39286	38385.95
881.1215	1386.4275	39158.3	38256.5
881.2653	1388.2802	39072.9	38169.55
881.4092	1390.132	38973.15	38071.75
881.553	1391.9832	38961.1	38055.8
881.6968	1393.8336	38810.65	37907.15
881.8406	1395.6832	38760.3	37857.55
881.9844	1397.5322	38673.95	37771.9
882.1282	1399.3803	38590.9	37685.3
882.272	1401.2278	38496.85	37596.05
882.4158	1403.0745	38463.75	37561.85
882.5595	1404.9204	38307.9	37407.55
882.7033	1406.7656	38243.6	37343.4
882.847	1408.6101	38175.75	37274.35
882.9908	1410.4538	38107.8	37207.5
883.1345	1412.2968	38077.25	37177.1
883.2782	1414.139	37931.5	37032
883.4219	1415.9805	37972.6	37070.65
883.5656	1417.8213	37829.1	36921.75
883.7092	1419.6613	37821	36921.05
883.8529	1421.5006	37781.15	36879
883.9965	1423.3391	37753.45	36850.35
884.1402	1425.1769	37712.2	36810.15
884.2838	1427.0139	37808.85	36905.45
884.4274	1428.8502	37810.2	36908.35
884.571	1430.6858	37865.45	36964.05
884.7146	1432.5206	37868.35	36966.25
884.8582	1434.3547	37836.55	36934.55
885.0018	1436.188	37779.85	36877.75
885.1453	1438.0206	37762	36861.75
885.2889	1439.8524	37650.4	36747.85
885.4324	1441.6835	37574.4	36673.6
885.5759	1443.5139	37577.25	36674.8
885.7194	1445.3435	37459.4	36559.5
885.8629	1447.1724	37424.8	36525
886.0064	1449.0005	37278.55	36379.65
886.1499	1450.8279	37338.15	36434.7
886.2933	1452.6545	37267.9	36368.95
886.4368	1454.4804	37198.95	36298.45
886.5802	1456.3056	37122.75	36214.7
886.7237	1458.13	37132.75	36232.55
886.8671	1459.9536	37139.35	36241
887.0105	1461.7766	36927.45	36027.1
887.1539	1463.5987	36758.85	35855.7
887.2972	1465.4202	36701	35802.2
887.4406	1467.2409	36575.45	35674.95
887.584	1469.0608	36443.2	35545.2
887.7273	1470.88	36362.6	35462.1
887.8706	1472.6984	36278.2	35377.15
888.0139	1474.5161	36082.15	35181.05
888.1572	1476.3331	36066.85	35166.75
888.3005	1478.1493	35977.1	35075.65
888.4438	1479.9648	35913.05	35014.2
888.5871	1481.7795	35882.95	34982.25
888.7303	1483.5935	35871.45	34970.3
888.8736	1485.4067	35720.8	34820.7
889.0168	1487.2192	35731.6	34830.8
889.16	1489.031	35623.05	34720.15
889.3032	1490.842	35632.35	34734.05
889.4464	1492.6522	35644.4	34745.65
889.5896	1494.4618	35530.5	34628.55
889.7327	1496.2705	35510.7	34610.35
889.8759	1498.0785	35326.7	34425.7
890.019	1499.8858	35305.75	34402.9
890.1622	1501.6924	35361.1	34462.25
890.3053	1503.4981	35192.35	34291.8
890.4484	1505.3032	35204.3	34304.4
890.5914	1507.1075	35044.85	34144.9
890.7345	1508.911	35028.55	34131.05
890.8776	1510.7138	35019.2	34117.75
891.0206	1512.5159	34962.7	34063.7
891.1637	1514.3172	34703.4	33804.1
891.3067	1516.1178	34700.7	33803
891.4497	1517.9176	34718.45	33817.65
891.5927	1519.7166	34676.5	33778.85
891.7357	1521.515	34558.8	33653.5
891.8786	1523.3126	34467.7	33568
892.0216	1525.1094	34428.8	33527.8
892.1645	1526.9055	34359.9	33462.35
892.3074	1528.7008	34234.3	33336.85
892.4503	1530.4954	34025.4	33125.8
892.5932	1532.2893	34117.3	33220.2
892.7361	1534.0824	33955.95	33054.05
892.879	1535.8747	33858.35	32963.2
893.0218	1537.6663	33987.25	33090.25
893.1647	1539.4572	33605.95	32707.4
893.3075	1541.2473	33662.95	32769.05
893.4503	1543.0367	33587.9	32692.2
893.5931	1544.8253	33500.75	32601
893.7359	1546.6132	33557.9	32656.3
893.8787	1548.4003	33347.1	32440.4
894.0214	1550.1867	33285.5	32379.7
894.1642	1551.9723	33286.45	32383.75
894.3069	1553.7572	33282	32384.05
894.4496	1555.5414	33252.9	32356.55
894.5923	1557.3247	33059	32163.9
894.735	1559.1074	33204.45	32309.1
894.8777	1560.8893	33091.25	32195.95
895.0204	1562.6705	33031.45	32134.4
895.163	1564.4509	32886.75	31992.05
895.3056	1566.2305	32920.1	32028.8
895.4482	1568.0094	33044.25	32153.2
895.5908	1569.7876	32950.15	32057.15
895.7334	1571.565	32776.4	31882.1
895.876	1573.3417	32766.35	31873.95
896.0186	1575.1176	32728.3	31836
896.1611	1576.8928	32676.5	31783.05
896.3036	1578.6672	32513.55	31623.8
896.4461	1580.4409	32527.1	31637.1
896.5886	1582.2138	32393.4	31500.6
896.7311	1583.986	32352.65	31459
896.8736	1585.7575	32311.75	31420.15
897.0161	1587.5282	32303.35	31411
897.1585	1589.2981	32284.7	31396.85
897.3009	1591.0673	32136.25	31246.55
897.4433	1592.8358	32106.65	31215.6
897.5857	1594.6035	32159.15	31266.9
897.7281	1596.3704	32092.3	31199.85
897.8705	1598.1366	31956.05	31064.35
898.0128	1599.9021	31938.75	31048.55
898.1551	1601.6668	31915.35	31022.65
898.2975	1603.4308	31819.4	30926.15
898.4398	1605.194	31839.7	30943.15
898.5821	1606.9564	31701.2	30812.4
898.7243	1608.7182	31797.05	30907.1
898.8666	1610.4791	31723.75	30835.7
899.0088	1612.2394	31779.05	30892.95
899.1511	1613.9988	31739.6	30852.65
899.2933	1615.7576	31812.25	30923.95
899.4355	1617.5156	31849.2	30950.8
899.5776	1619.2728	31919.5	31026.25
899.7198	1621.0293	31736.85	30845.45
899.862	1622.785	31638.25	30745.55
900.0041	1624.54	31514.2	30623
900.1462	1626.2942	31408.6	30519.8
900.2883	1628.0477	31107.55	30216.25
900.4304	1629.8005	30924.5	30030.15
900.5725	1631.5525	30884.65	29997.3
900.7145	1633.3037	30651.85	29764.95
900.8566	1635.0542	30552.2	29664.95
900.9986	1636.804	30502.7	29614.65
901.1406	1638.553	30376.6	29446.25
901.2826	1640.3013	30308.05	29419.1
901.4245	1642.0488	30145.55	29255.4
901.5665	1643.7955	30190.1	29303.55
901.7085	1645.5416	30086.65	29197.45
901.8504	1647.2868	30060.35	29171.7
901.9923	1649.0313	30074.1	29184.75
902.1342	1650.7751	30006.1	29114.75
902.2761	1652.5181	29934.3	29049.15
902.4179	1654.2604	29854.05	28965.35
902.5598	1656.0019	29911.85	29025.1
902.7016	1657.7427	29932.1	29046.35
902.8434	1659.4828	30004.4	29115.5
902.9852	1661.222	29922.45	29031.2
903.127	1662.9606	29882.95	28996.3
903.2687	1664.6984	29785.2	28895.75
903.4105	1666.4354	29679.2	28788.6
903.5522	1668.1717	29391.3	28501.9
903.6939	1669.9072	29128.05	28237.95
903.8356	1671.642	28977.15	28083.65
903.9773	1673.3761	28816.45	27928.5
904.119	1675.1094	28668.45	27779.7
904.2606	1676.8419	28488.35	27598.7
904.4022	1678.5737	28372.95	27485.35
904.5439	1680.3048	28258.9	27368.3
904.6855	1682.0351	28119.25	27228.25
904.827	1683.7646	27980.45	27086.8
904.9686	1685.4934	27909.85	27021.5
905.1101	1687.2215	27757	26867.55
905.2517	1688.9488	27701.15	26814
905.3932	1690.6754	27450.65	26562.45
905.5347	1692.4012	27466	26578.35
905.6761	1694.1263	27438.15	26547.85
905.8176	1695.8506	27335.1	26444.45
905.9591	1697.5742	27260.2	26373.5
906.1005	1699.297	27167.4	26282.35
906.2419	1701.0191	27075	26187.45
906.3833	1702.7404	26948.4	26063.65
906.5246	1704.461	26856.1	25967.95
906.666	1706.1808	26782.4	25895.25
906.8073	1707.8999	26709.35	25821.65
906.9487	1709.6182	26622.85	25736.65
907.09	1711.3358	26555.6	25672.3
907.2313	1713.0527	26506.4	25622.15
907.3725	1714.7688	26402.85	25514.35
907.5138	1716.4841	26229.1	25340.4
907.655	1718.1987	26282.7	25391.05
907.7962	1719.9126	26181.05	25295.45
907.9374	1721.6257	26119.75	25232.2
908.0786	1723.338	26099.95	25213.85
908.2198	1725.0496	25839.8	24953.45
908.3609	1726.7605	25851.8	24964.5
908.502	1728.4706	25758.35	24870.9
908.6431	1730.18	25703.15	24817.05
908.7842	1731.8886	25553.45	24670.6
908.9253	1733.5964	25502.45	24613.9
909.0664	1735.3036	25481.8	24592.4
909.2074	1737.0099	25404.9	24519.55
909.3484	1738.7156	25332.85	24448.2
909.4894	1740.4204	25250.6	24360.65
909.6304	1742.1246	25247.7	24360
909.7714	1743.8279	25165.75	24278
909.9123	1745.5306	25151.55	24264.2
910.0532	1747.2325	24967	24081.55
910.1941	1748.9336	24873.85	23987.45
910.335	1750.634	24819.75	23933.4
910.4759	1752.3336	24885.1	23999.8
910.6168	1754.0325	24730.7	23848.7
910.7576	1755.7307	24757.5	23872.5
910.8984	1757.4281	24718	23830.8
911.0392	1759.1247	24688.55	23795.05
911.18	1760.8206	24567.25	23674.55
911.3208	1762.5158	24542.4	23652.3
911.4615	1764.2102	24433.7	23549.05
911.6022	1765.9039	24377.2	23492
911.7429	1767.5968	24314.6	23430.4
911.8836	1769.289	24275.85	23388.5
912.0243	1770.9804	24225.9	23342.65
912.1649	1772.6711	24146.2	23259.7
912.3056	1774.361	24072.7	23186.3
912.4462	1776.0502	24042.25	23154.5
912.5868	1777.7386	23980.95	23090.85
912.7274	1779.4263	23944.85	23060.2
912.8679	1781.1132	23889.8	23004.9
913.0084	1782.7994	23797.2	22912.5
913.149	1784.4849	23748.95	22865.85
913.2895	1786.1696	23700.85	22799.15
913.4299	1787.8535	23653.7	22772.65
913.5704	1789.5367	23622.65	22737.8
913.7108	1791.2192	23564.55	22681.45
913.8513	1792.9009	23460.6	22543.45
913.9917	1794.5818	23437.9	22549.9
914.132	1796.2621	23320.45	22436.7
914.2724	1797.9415	23306.15	22419.35
914.4128	1799.6202	23234.85	22351
914.5531	1801.2982	23212.5	22325.75
914.6934	1802.9755	23152.75	22267.55
914.8337	1804.6519	23098.85	22214.4
914.9739	1806.3277	23054.55	22168.5
915.1142	1808.0027	22891.65	22009
915.2544	1809.6769	22943.7	22059.15
915.3946	1811.3504	22858.75	21975.7
915.5348	1813.0231	22745	21862.85
915.675	1814.6951	22766.9	21882.25
915.8151	1816.3664	22757.85	21870.75
915.9553	1818.0369	22725.75	21841.6
916.0954	1819.7067	22593.75	21708.85
916.2355	1821.3757	22573.75	21685.05
916.3755	1823.044	22522.1	21636.35
916.5156	1824.7115	22448.25	21561.15
916.6556	1826.3783	22389.6	21506.15
916.7956	1828.0443	22345.85	21462.1
916.9356	1829.7096	22303.05	21417.65
917.0756	1831.3741	22258.45	21372.1
917.2155	1833.0379	22217.95	21332.15
917.3555	1834.701	22138.65	21254.45
917.4954	1836.3633	22072.75	21188.5
917.6353	1838.0248	22083.9	21199.55
917.7751	1839.6856	22044.45	21159.55
917.915	1841.3457	21969.45	21085.65
918.0548	1843.005	21931.1	21045.95
918.1946	1844.6636	21887.45	21003.3
918.3344	1846.3214	21815.5	20930.4
918.4742	1847.9785	21837.35	20956
918.6139	1849.6349	21779.2	20893.5
918.7537	1851.2904	21749.4	20854.55
918.8934	1852.9453	21634.5	20748.65
919.0331	1854.5994	21570.25	20681.2
919.1727	1856.2528	21594	20703.35
919.3124	1857.9054	21520.9	20635.5
919.452	1859.5572	21487.9	20605.65
919.5916	1861.2083	21474.25	20588.45
919.7312	1862.8587	21466.25	20581.2
919.8708	1864.5084	21359	20472.95
920.0103	1866.1572	21336.75	20447.45
920.1498	1867.8054	21215.2	20330.55
920.2893	1869.4528	21209.75	20321.4
920.4288	1871.0994	21111.45	20226.25
920.5683	1872.7453	21095.7	20210.9
920.7077	1874.3905	21042.15	20149.3
920.8471	1876.0349	20994.65	20111.4
920.9865	1877.6786	21004.45	20116.9
921.1259	1879.3215	20973.85	20088.15
921.2653	1880.9637	20895.75	20010.5
921.4046	1882.6051	20853.8	19969.7
921.5439	1884.2458	20788.95	19903.8
921.6832	1885.8858	20732.8	19846.8
921.8225	1887.525	20693.7	19807.75
921.9617	1889.1634	20607.5	19724
922.101	1890.8011	20547.05	19662.25
922.2402	1892.4381	20484.35	19600.85
922.3794	1894.0743	20509.8	19625.15
922.5185	1895.7098	20448.9	19563.85
922.6577	1897.3446	20405.25	19519
922.7968	1898.9786	20370.95	19481.95
922.9359	1900.6118	20305.05	19421.3
923.075	1902.2443	20199	19311.5
923.214	1903.8761	20143.3	19257.1
923.3531	1905.5071	20044.8	19158.7
923.4921	1907.1374	19982.95	19098.75
923.6311	1908.7669	19974.9	19088.75
923.77	1910.3957	19955.1	19071.7
923.909	1912.0237	19808.6	18923.25
924.0479	1913.651	19784.35	18898.9
924.1868	1915.2776	19757.35	18875.1
924.3257	1916.9034	19665.25	18781.5
924.4646	1918.5285	19604.5	18724
924.6034	1920.1528	19511.8	18625
924.7422	1921.7764	19465.3	18581.8
924.881	1923.3992	19406.3	18520.55
925.0198	1925.0213	19310.9	18426.5
925.1586	1926.6427	19226.75	18343.4
925.2973	1928.2633	19372.95	18236.5
925.436	1929.8832	19174.4	18285.6
925.5747	1931.5023	19040.15	18153.6
925.7134	1933.1207	19012.1	18127.25
925.852	1934.7383	18974.9	18090.35
925.9906	1936.3552	18898.55	18016.95
926.1292	1937.9714	18823.95	17938.55
926.2678	1939.5868	18769.3	17882.05
926.4064	1941.2015	18683.4	17799.25
926.5449	1942.8154	18605.85	17721.35
926.6834	1944.4286	18550.95	17663.65
926.8219	1946.041	18527.25	17621.6
926.9604	1947.6528	18413.25	17523.2
927.0988	1949.2637	18369.7	17484.8
927.2372	1950.8739	18305.3	17421.85
927.3756	1952.4834	18278.3	17393.7
927.514	1954.0921	18250.3	17366
927.6523	1955.7001	18205.5	17317.25
927.7907	1957.3074	18142.9	17259.35
927.929	1958.9139	18039.9	17157.5
928.0673	1960.5197	17975.95	17088.95
928.2055	1962.1247	17903.25	17020.9
928.3438	1963.729	17823.85	16942.35
928.482	1965.3325	17796.05	16890.15
928.6202	1966.9353	17740.3	16858.9
928.7584	1968.5374	17696.85	16812
928.8965	1970.1387	17641.75	16758.65
929.0346	1971.7393	17538.95	16656.2
929.1727	1973.3392	17493.35	16609.4
929.3108	1974.9383	17432.05	16550.6
929.4489	1976.5366	17336	16452
929.5869	1978.1342	17340.35	16455.5
929.7249	1979.7311	17291	16408
929.8629	1981.3273	17225.75	16344.15
930.0009	1982.9227	17179.5	16295.45
930.1388	1984.5173	17118.05	16237.45
930.2767	1986.1112	17088.8	16208
930.4146	1987.7044	17042.65	16161
930.5525	1989.2968	16995.8	16112.85
930.6904	1990.8885	16930.55	16047.9
930.8282	1992.4795	16916.6	16033.4
930.966	1994.0697	16842.1	15961.25
931.1038	1995.6592	16787.7	15906.2
931.2415	1997.2479	16758.2	15876.4
931.3793	1998.8359	16709.9	15827.4
931.517	2000.4232	16613.2	15732.15
931.6547	2002.0097	16552.95	15672.9
931.7923	2003.5955	16484.2	15603.55
931.93	2005.1805	16513.2	15630.85
932.0676	2006.7648	16446.55	15566.35
932.2052	2008.3484	16402.7	15522.05
932.3427	2009.9312	16415.25	15532.95
932.4803	2011.5133	16313.1	15432.25
932.6178	2013.0946	16291.25	15409.7
932.7553	2014.6752	16225.55	15345.1
932.8928	2016.2551	16217.4	15336.3
933.0302	2017.8342	16151.65	15270.75
933.1676	2019.4126	16086.9	15209.75
933.305	2020.9902	15999	15120.75
933.4424	2022.5672	15985.35	15104.4
933.5798	2024.1433	15924.7	15039.65
933.7171	2025.7188	15892.05	15013.15
933.8544	2027.2935	15884.8	15004.85
933.9917	2028.8674	15797.2	14915.95
934.129	2030.4406	15756.15	14877.65
934.2662	2032.0131	15671.45	14791.25
934.4034	2033.5849	15632.7	14749.85
934.5406	2035.1559	15587	14707.2
934.6778	2036.7261	15599.25	14718.45
934.8149	2038.2957	15539.45	14658.25
934.952	2039.8645	15468.6	14587.75
935.0891	2041.4325	15479.05	14592.95
935.2262	2042.9998	15406.95	14526.4
935.3632	2044.5664	15409.3	14526.85
935.5002	2046.1323	15385.25	14505.25
935.6372	2047.6974	15308.65	14428.25
935.7742	2049.2617	15250	14370
935.9111	2050.8254	15223.65	14338.95
936.048	2052.3883	15243.3	14362.75
936.1849	2053.9504	15183.35	14301.65
936.3218	2055.5118	15127.15	14245.8
936.4586	2057.0725	15041.1	14156.6
936.5955	2058.6325	15014.9	14136
936.7323	2060.1917	14970.95	14092.25
936.869	2061.7502	14933.7	14051.4
937.0058	2063.3079	14893.75	14014.5
937.1425	2064.8649	14828.5	13945.55
937.2792	2066.4212	14817.6	13936.2
937.4159	2067.9767	14765.9	13886
937.5525	2069.5315	14722.1	13841.05
937.6891	2071.0856	14632.7	13751.55
937.8257	2072.6389	14594.5	13712.6
937.9623	2074.1915	14515.15	13638.45
938.0989	2075.7433	14467.75	13585.2
938.2354	2077.2945	14460.15	13580.75
938.3719	2078.8448	14411.35	13531.2
938.5084	2080.3945	14348.75	13468.05
938.6448	2081.9434	14350.3	13469.9
938.7812	2083.4916	14303.6	13422.35
938.9176	2085.039	14246.2	13362.8
939.054	2086.5857	14219.75	13335.95
939.1903	2088.1317	14188.75	13305.15
939.3267	2089.677	14151.3	13268.3
939.463	2091.2215	14091.5	13207.3
939.5992	2092.7652	14091.75	13208.15
939.7355	2094.3083	14032.1	13147.9
939.8717	2095.8506	14009.3	13128.3
940.0079	2097.3921	13965	13083.85
940.1441	2098.933	13948.1	13066.9
940.2802	2100.4731	13923.1	13043.4
940.4163	2102.0124	13895.45	12995.3
940.5524	2103.5511	13834.65	12953.6
940.6885	2105.089	13840	12957
940.8245	2106.6261	13803.7	12922.1
940.9606	2108.1626	13736.25	12855.1
941.0965	2109.6983	13753.45	12842.1
941.2325	2111.2332	13679.3	12795.45
941.3684	2112.7675	13627.15	12744.8
941.5044	2114.301	13632.6	12748.25
941.6403	2115.8337	13607.5	12726.25
941.7761	2117.3657	13548.55	12668.4
941.912	2118.897	13537.35	12652.55
942.0478	2120.4276	13491.55	12603.3
942.1835	2121.9575	13422.45	12538.4
942.3193	2123.4866	13443.75	12547.05
942.455	2125.0149	13386.1	12501.3
942.5907	2126.5426	13293.7	12410.8
942.7264	2128.0695	13290.15	12405.2
942.8621	2129.5956	13242.05	12362.3
942.9977	2131.1211	13212.75	12328.1
943.1333	2132.6458	13192.7	12312.7
943.2689	2134.1698	13169.5	12285.95
943.4044	2135.693	13109	12224.9
943.54	2137.2155	13119.5	12234.55
943.6755	2138.7373	13056.95	12176.15
943.8109	2140.2584	13016.7	12138.3
943.9464	2141.7787	13027.45	12140.7
944.0818	2143.2983	12918.7	12039.75
944.2172	2144.8171	12860.3	11981.3
944.3526	2146.3353	12837.9	11956.4
944.4879	2147.8527	12793.5	11913.7
944.6232	2149.3693	12767.6	11884.2
944.7585	2150.8853	12728.35	11846.4
944.8938	2152.4005	12685.5	11802.25
945.029	2153.9149	12668.45	11783.45
945.1642	2155.4287	12649.35	11768.45
945.2994	2156.9417	12618.05	11735.15
945.4346	2158.454	12563.5	11680.45
945.5697	2159.9655	12534.5	11654.2
945.7048	2161.4764	12500.35	11619.65
945.8399	2162.9865	12481.2	11600.55
945.9749	2164.4958	12427.6	11545.85
946.1099	2166.0045	12409	11524.9
946.2449	2167.5124	12355.85	11474.25
946.3799	2169.0195	12342.2	11458.55
946.5148	2170.526	12319	11436.8
946.6498	2172.0317	12266.9	11384.65
946.7846	2173.5367	12244.85	11363.9
946.9195	2175.0409	12193.05	11311.65
947.0543	2176.5445	12206.4	11324.85
947.1891	2178.0473	12186.5	11304.65
947.3239	2179.5494	12106.9	11217.9
947.4587	2181.0507	12032.05	11148.05
947.5934	2182.5513	12024.55	11143.5
947.7281	2184.0512	11980.1	11097.45
947.8628	2185.5504	11952.3	11070.1
947.9974	2187.0488	11883.75	11004.1
948.132	2188.5465	11844.5	10963.05
948.2666	2190.0435	11797.4	10918.45
948.4012	2191.5397	11766.15	10882.65
948.5357	2193.0353	11754.2	10870.95
948.6702	2194.5301	11709.8	10824.2
948.8047	2196.0241	11673.8	10789.45
948.9392	2197.5175	11630.1	10747.2
949.0736	2199.0101	11605.6	10717.6
949.208	2200.502	11547.6	10667.8
949.3424	2201.9931	11490.3	10608.75
949.4767	2203.4835	11461.3	10579.3
949.611	2204.9733	11442.85	10556.2
949.7453	2206.4622	11431.9	10553.1
949.8796	2207.9505	11370.85	10488.5
950.0138	2209.438	11319.65	10441.45
950.148	2210.9248	11307.15	10424.9
950.2822	2212.4109	11265.5	10386.35
950.4164	2213.8962	11219.55	10335.3
950.5505	2215.3809	11204.45	10319.6
950.6846	2216.8648	11195.7	10314
950.8186	2218.3479	11154.5	10263.9
950.9527	2219.8304	11083.65	10197.75
951.0867	2221.3121	11075.5	10186.6
951.2207	2222.7931	11023.25	10139.5
951.3546	2224.2733	10982.35	10098.9
951.4886	2225.7529	10954.55	10071.6
951.6225	2227.2317	10917.2	10033.05
951.7563	2228.7098	10889.2	10008.55
951.8902	2230.1872	10846.1	9966.9
952.024	2231.6638	10822.3	9942.65
952.1578	2233.1397	10777.1	9888.35
952.2916	2234.6149	10763.2	9883.3
952.4253	2236.0894	10744.7	9861.95
952.559	2237.5632	10689.4	9796.05
952.6927	2239.0362	10654.5	9772.9
952.8263	2240.5085	10641.3	9760.2
952.9599	2241.9801	10577.3	9695.05
953.0935	2243.4509	10546.5	9662.6
953.2271	2244.921	10515.95	9633.15
953.3606	2246.3904	10458.4	9573.2
953.4941	2247.8591	10432.25	9550.05
953.6276	2249.3271	10434	9552.25
953.7611	2250.7943	10391.6	9508.3
953.8945	2252.2608	10346.05	9461.5
954.0279	2253.7266	10316.25	9435.45
954.1612	2255.1917	10274	9391.1
954.2946	2256.656	10246.2	9363.65
954.4279	2258.1197	10213.05	9333.35
954.5612	2259.5826	10226.45	9341.3
954.6944	2261.0447	10209.25	9328.55
954.8276	2262.5062	10156.3	9270.8
954.9608	2263.9669	10133	9248.35
955.094	2265.4269	10084.85	9202.65
955.2271	2266.8862	10066.05	9183.3
955.3602	2268.3448	10059.05	9178
955.4933	2269.8026	10041.9	9160.2
955.6264	2271.2598	10003.95	9120.55
955.7594	2272.7162	9967.45	9085.4
955.8924	2274.1719	9946.35	9063.45
956.0253	2275.6268	9923.65	9040.65
956.1583	2277.0811	9890.05	9007.35
956.2912	2278.5346	9885.05	9003.95
956.4241	2279.9874	9850.6	8969.1
956.5569	2281.4395	9838	8956.65
956.6897	2282.8908	9802	8916.45
956.8225	2284.3414	9769.7	8884.95
956.9553	2285.7914	9711.3	8829.75
957.088	2287.2406	9714.05	8827.8
957.2207	2288.689	9663.2	8780.95
957.3534	2290.1368	9645.3	8760
957.486	2291.5838	9613.6	8726.2
957.6186	2293.0302	9600.35	8713.95
957.7512	2294.4758	9547	8664.55
957.8838	2295.9206	9525.9	8639.8
958.0163	2297.3648	9492.95	8611.2
958.1488	2298.8082	9497.7	8614.05
958.2813	2300.251	9443.35	8559.75
958.4137	2301.693	9416.2	8531.15
958.5461	2303.1343	9423.25	8540.9
958.6785	2304.5748	9359	8478.3
958.8108	2306.0147	9346.4	8463.15
958.9432	2307.4538	9331.65	8447.7
959.0754	2308.8922	9298.6	8418.35
959.2077	2310.3299	9270.35	8387.9
959.3399	2311.7669	9215	8333.75
959.4721	2313.2031	9206.15	8322.6
959.6043	2314.6387	9150.45	8265.95
959.7365	2316.0735	9146.05	8264.35
959.8686	2317.5076	9146.5	8262
960.0006	2318.941	9097.25	8215.15
960.1327	2320.3737	9089.85	8206
960.2647	2321.8056	9054.05	8168.45
960.3967	2323.2369	9021.95	8138.15
960.5287	2324.6674	8990.45	8105.05
960.6606	2326.0972	8998.45	8115
960.7925	2327.5263	8938.8	8056.65
960.9244	2328.9547	8932.05	8047.75
961.0562	2330.3823	8900.55	8016.75
961.1881	2331.8092	8896.8	8010.8
961.3198	2333.2355	8835.95	7953.45
961.4516	2334.661	8822.85	7937.75
961.5833	2336.0858	8787.65	7902.75
961.715	2337.5098	8762.1	7878.8
961.8467	2338.9332	8778.45	7896.35
961.9783	2340.3558	8717.85	7831.75
962.1099	2341.7778	8726.5	7843.55
962.2415	2343.199	8674	7788.7
962.373	2344.6195	8624	7742.7
962.5045	2346.0393	8605.5	7726.8
962.636	2347.4583	8623.35	7739.2
962.7675	2348.8767	8589.35	7706.7
962.8989	2350.2943	8567.15	7682.55
963.0303	2351.7113	8542	7656.2
963.1617	2353.1275	8503.95	7620.2
963.293	2354.543	8483.65	7590.85
963.4243	2355.9578	8480.85	7595.55
963.5556	2357.3718	8417.15	7535.25
963.6868	2358.7852	8382.8	7498.9
963.818	2360.1978	8369.95	7487.45
963.9492	2361.6098	8336.65	7454.25
964.0803	2363.021	8301.2	7413.05
964.2114	2364.4315	8276.15	7392.55
964.3425	2365.8413	8269.05	7383.05
964.4736	2367.2504	8235.5	7353.45
964.6046	2368.6587	8204.05	7319.6
964.7356	2370.0664	8177.5	7295.7
964.8666	2371.4733	8143.9	7260.9
964.9975	2372.8795	8112.35	7229.05
965.1284	2374.285	8082.9	7199.95
965.2593	2375.6899	8047.95	7166.55
965.3901	2377.0939	8013.75	7132.85
965.5209	2378.4973	7999.3	7116.45
965.6517	2379.9	7992.25	7110.9
965.7825	2381.3019	7925.15	7043.5
965.9132	2382.7032	7911.15	7027.4
966.0439	2384.1037	7904.05	7021.8
966.1745	2385.5035	7877.2	6994.35
966.3051	2386.9027	7859.8	6978.5
966.4357	2388.3011	7834.55	6951.15
966.5663	2389.6987	7816.15	6933.95
966.6968	2391.0957	7785.95	6904.35
966.8273	2392.492	7739.75	6859.05
966.9578	2393.8876	7707.25	6823.85
967.0882	2395.2824	7706.6	6824.55
967.2186	2396.6765	7644.5	6764.15
967.349	2398.07	7604.6	6721.3
967.4793	2399.4627	7627.7	6744.05
967.6097	2400.8547	7575.2	6694.45
967.7399	2402.246	7551.1	6663.75
967.8702	2403.6366	7505.8	6623.05
968.0004	2405.0265	7476.1	6593.7
968.1306	2406.4156	7450.3	6565.25
968.2607	2407.8041	7438.5	6553.3
968.3909	2409.1918	7406.55	6519.6
968.521	2410.5789	7389.35	6507.55
968.651	2411.9652	7361.15	6473.3
968.781	2413.3508	7357.25	6476.7
968.911	2414.7358	7321.4	6437.6
969.041	2416.12	7283.25	6400.75
969.1709	2417.5035	7277.1	6396.25
969.3008	2418.8863	7245.9	6362.75
969.4307	2420.2684	7234.75	6349.9
969.5606	2421.6497	7179.9	6296.85
969.6904	2423.0304	7143.75	6261.7
969.8201	2424.4104	7148.25	6263.4
969.9499	2425.7896	7103	6217.1
970.0796	2427.1682	7113.15	6232.05
970.2093	2428.546	7086.5	6202.75
970.3389	2429.9232	7066.2	6183.65
970.4685	2431.2996	7055.5	6173
970.5981	2432.6753	7038.75	6154.2
970.7277	2434.0503	7030.25	6147.4
970.8572	2435.4246	6981.55	6098.5
970.9867	2436.7982	6965.9	6082.55
971.1161	2438.1711	6947.25	6063.75
971.2456	2439.5433	6907.05	6023.2
971.375	2440.9148	6900.3	6009
971.5043	2442.2856	6859.15	5975.55
971.6336	2443.6557	6831.05	5948.15
971.7629	2445.025	6820.65	5936.7
971.8922	2446.3937	6806.15	5923.1
972.0214	2447.7617	6790.3	5905
972.1506	2449.1289	6785.5	5901.4
972.2798	2450.4955	6780.7	5894.9
972.4089	2451.8613	6740.95	5859.2
972.538	2453.2265	6724.6	5841.05
972.6671	2454.5909	6709.2	5823.85
972.7961	2455.9546	6691.9	5807.65
972.9251	2457.3177	6649.75	5766.05
973.0541	2458.68	6661	5775.65
973.1831	2460.0416	6644.25	5762.75
973.312	2461.4025	6630.05	5745.9
973.4408	2462.7627	6625.85	5731.5
973.5697	2464.1222	6596.75	5716.3
973.6985	2465.4811	6559.9	5676.9
973.8273	2466.8392	6522.9	5640.65
973.956	2468.1966	6532.35	5647
974.0847	2469.5533	6530.7	5647.2
974.2134	2470.9093	6508.6	5625.6
974.3421	2472.2645	6475.5	5589.7
974.4707	2473.6191	6462.45	5580.75
974.5993	2474.973	6440.7	5557.85
974.7278	2476.3262	6425.75	5543.7
974.8563	2477.6787	6408.7	5527.5
974.9848	2479.0305	6371.5	5490.25
975.1132	2480.3816	6345.2	5461.5
975.2417	2481.7319	6351	5469.5
975.37	2483.0816	6302.45	5417.8
975.4984	2484.4306	6285.8	5404.75
975.6267	2485.7789	6263.65	5383
975.755	2487.1264	6237.85	5352.8
975.8833	2488.4733	6221.4	5339.7
976.0115	2489.8195	6204.25	5314.55
976.1397	2491.165	6179.3	5294.3
976.2678	2492.5097	6138.8	5257.4
976.3959	2493.8538	6127.2	5246.15
976.524	2495.1972	6114.45	5231.95
976.6521	2496.5398	6099.8	5216.9
976.7801	2497.8818	6079.9	5195.05
976.9081	2499.2231	6035.35	5149.8
977.036	2500.5637	6032.4	5146.85
977.164	2501.9035	6016.25	5132.2
977.2918	2503.2427	6008.55	5121.7
977.4197	2504.5812	5961.15	5079.45
977.5475	2505.919	5974.95	5089.65
977.6753	2507.256	5943.4	5058.7
977.8031	2508.5924	5924.6	5042.45
977.9308	2509.9281	5921.15	5033.45
978.0585	2511.2631	5890.6	5008.5
978.1861	2512.5974	5873.7	4991.95
978.3137	2513.9309	5856.9	4974.6
978.4413	2515.2638	5874.3	4960.95
978.5689	2516.596	5843.25	4961.1
978.6964	2517.9275	5795.35	4911.6
978.8239	2519.2583	5802.75	4920.4
978.9513	2520.5884	5763.05	4876.8
979.0788	2521.9178	5747.8	4863.15
979.2062	2523.2465	5740.05	4857.25
979.3335	2524.5745	5697.95	4814.65
979.4608	2525.9018	5691.2	4807.65
979.5881	2527.2284	5675.4	4792.95
979.7154	2528.5543	5670.5	4787.65
979.8426	2529.8796	5644.7	4760.25
979.9698	2531.2041	5648.85	4766.95
980.0969	2532.5279	5619.4	4737.8
980.224	2533.851	5610.55	4729.6
980.3511	2535.1735	5598.25	4716.9
980.4781	2536.4952	5577.7	4694.85
980.6052	2537.8163	5579.85	4693.95
980.7321	2539.1366	5557.6	4675.2
980.8591	2540.4562	5529.9	4646.8
980.986	2541.7752	5532.9	4651.85
981.1129	2543.0935	5524.25	4642.15
981.2397	2544.411	5527	4644.3
981.3665	2545.7279	5485.75	4600.3
981.4933	2547.0441	5484.9	4601.25
981.62	2548.3596	5477.9	4591.45
981.7467	2549.6744	5471.65	4587.9
981.8734	2550.9885	5463.8	4572.95
982.0001	2552.3019	5427.05	4545.2
982.1267	2553.6146	5416.9	4531.75
982.2532	2554.9266	5405	4523.15
982.3798	2556.2379	5369.85	4484.5
982.5063	2557.5485	5386.05	4503.55
982.6327	2558.8585	5373.85	4483.4
982.7592	2560.1677	5358.05	4469
982.8856	2561.4762	5333.45	4448.7
983.0119	2562.7841	5332.1	4447.65
983.1383	2564.0913	5314.35	4431.7
983.2646	2565.3977	5315.7	4434.35
983.3908	2566.7035	5303.35	4418.05
983.517	2568.0086	5294.9	4410.5
983.6432	2569.313	5286.5	4404.1
983.7694	2570.6167	5270.2	4383.05
983.8955	2571.9197	5243.45	4361.3
984.0216	2573.222	5254.8	4368.3
984.1476	2574.5236	5233.75	4351.05
984.2737	2575.8246	5229.85	4346.05
984.3996	2577.1248	5215.95	4330.85
984.5256	2578.4244	5196.2	4314.25
984.6515	2579.7232	5187.45	4304.15
984.7774	2581.0214	5188.05	4278.85
984.9032	2582.3189	5164.75	4282.05
985.029	2583.6157	5165.6	4276.9
985.1548	2584.9118	5148.55	4265.95
985.2806	2586.2072	5143.45	4261.6
985.4063	2587.5019	5102.65	4219.05
985.5319	2588.7959	5096.35	4212.45
985.6576	2590.0893	5084.65	4201.3
985.7832	2591.3819	5085	4204.45
985.9087	2592.6739	5038.8	4156.4
986.0343	2593.9652	5044.1	4160.15
986.1597	2595.2557	5043.5	4161.05
986.2852	2596.5456	5021.1	4134.45
986.4106	2597.8348	5001.9	4121.4
986.536	2599.1234	4981.9	4098.65
986.6614	2600.4112	4982.3	4099.05
986.7867	2601.6983	4957.3	4070.1
986.912	2602.9848	4939.45	4055.85
987.0372	2604.2705	4910.75	4021.05
987.1624	2605.5556	4907.85	4023.6
987.2876	2606.84	4901.75	4019.05
987.4128	2608.1237	4875.75	3993.45
987.5379	2609.4067	4861.7	3978.25
987.6629	2610.689	4836.75	3946.9
987.788	2611.9707	4822.15	3935.75
987.913	2613.2516	4815.7	3928.1
988.0379	2614.5319	4783.2	3902.15
988.1629	2615.8115	4760.6	3879.35
988.2878	2617.0903	4736.55	3853
988.4126	2618.3685	4733.85	3851.9
988.5375	2619.6461	4724.3	3839.75
988.6622	2620.9229	4705.2	3822.7
988.787	2622.199	4692.8	3809.25
988.9117	2623.4745	4682.75	3799.55
989.0364	2624.7493	4659.2	3778.05
989.161	2626.0234	4663.8	3784.75
989.2857	2627.2968	4637.3	3755.1
989.4102	2628.5695	4620.75	3738.05
989.5348	2629.8415	4617.75	3734.45
989.6593	2631.1128	4605.65	3722.65
989.7837	2632.3835	4575.95	3694.15
989.9082	2633.6535	4564.65	3682.85
990.0326	2634.9228	4535.45	3655.35
990.1569	2636.1914	4519.05	3637.7
990.2812	2637.4593	4523.95	3634.55
990.4055	2638.7265	4501.5	3619.1
990.5298	2639.9931	4487.1	3603.5
990.654	2641.259	4492.9	3610.3
990.7782	2642.5242	4476.1	3590.7
990.9023	2643.7887	4467.15	3586.25
991.0264	2645.0525	4448.8	3566.7
991.1505	2646.3156	4415.4	3530.2
991.2745	2647.5781	4392.65	3510.85
991.3985	2648.8398	4415.35	3534.55
991.5225	2650.1009	4425.3	3505.55
991.6464	2651.3613	4383.8	3500.95
991.7703	2652.6211	4365.2	3482.15
991.8942	2653.8801	4372.6	3491.2
992.018	2655.1385	4350.45	3463.7
992.1418	2656.3961	4329.65	3448.15
992.2655	2657.6531	4326.55	3443.2
992.3892	2658.9094	4315.8	3431.95
992.5129	2660.1651	4322.45	3441.75
992.6366	2661.42	4302.85	3419.15
992.7602	2662.6743	4284.85	3403.6
992.8837	2663.9279	4273.6	3392.5
993.0073	2665.1808	4266.6	3383.6
993.1307	2666.433	4253.95	3370.95
993.2542	2667.6846	4248.85	3366.65
993.3776	2668.9354	4233.5	3347.35
993.501	2670.1856	4224.5	3342.2
993.6244	2671.4351	4202.95	3320.7
993.7477	2672.6839	4214.35	3330.25
993.8709	2673.9321	4190.35	3309
993.9942	2675.1795	4196.9	3315.2
994.1174	2676.4263	4177.85	3297.65
994.2405	2677.6724	4177.55	3295.25
994.3637	2678.9179	4171.2	3288.7
994.4868	2680.1626	4144.25	3263.25
994.6098	2681.4067	4135.3	3253.1
994.7328	2682.6501	4113.85	3230.6
994.8558	2683.8928	4110.2	3227.05
994.9788	2685.1348	4094.85	3214.5
995.1017	2686.3761	4075	3193.15
995.2245	2687.6168	4063.35	3179.85
995.3474	2688.8568	4048.1	3165.6
995.4702	2690.0961	4045.7	3164.5
995.5929	2691.3348	4039.05	3157.45
995.7156	2692.5727	4026.9	3143.85
995.8383	2693.81	4005	3123.35
995.961	2695.0466	4000.7	3120.05
996.0836	2696.2826	3984.9	3103.35
996.2062	2697.5178	3990.25	3089.35
996.3287	2698.7524	3974.4	3092.25
996.4512	2699.9863	3968	3083.1
996.5737	2701.2195	3943.2	3059.6
996.6961	2702.452	3943.85	3058.95
996.8185	2703.6839	3928.45	3046.45
996.9408	2704.9151	3928.9	3048.75
997.0631	2706.1456	3899.2	3018.25
997.1854	2707.3755	3881.8	3000.75
997.3077	2708.6046	3892.7	3005.55
997.4299	2709.8331	3873.9	2991.9
997.552	2711.0609	3851.05	2969.2
997.6742	2712.2881	3865.8	2982.5
997.7963	2713.5145	3848.25	2962.3
997.9183	2714.7403	3842.8	2962.5
998.0403	2715.9654	3826.15	2943
998.1623	2717.1899	3822.7	2938.75
998.2842	2718.4136	3815.9	2934.9
998.4062	2719.6367	3808.85	2926.85
998.528	2720.8591	3795.2	2907.2
998.6498	2722.0809	3776.8	2894.2
998.7716	2723.3019	3778.4	2892.55
998.8934	2724.5223	3761	2880.15
999.0151	2725.7421	3759.4	2875.7
999.1368	2726.9611	3762.7	2877.8
999.2584	2728.1795	3747.85	2863.35
999.38	2729.3972	3718.85	2839.8
999.5016	2730.6142	3711.75	2816.1
999.6231	2731.8306	3689.6	2806.15
999.7446	2733.0462	3674.55	2790.5
999.8661	2734.2612	3652.65	2766.4
999.9875	2735.4756	3659.85	2776.2
1000.1089	2736.6892	3625.7	2741.5
1000.2302	2737.9022	3618.15	2736.3
1000.3515	2739.1145	3604.35	2721.35
1000.4728	2740.3262	3580	2692.05
1000.594	2741.5372	3554.8	2674.2
1000.7152	2742.7475	3539.45	2656.75
1000.8363	2743.9571	3550.05	2666.7
1000.9575	2745.1661	3533.8	2646.4
1001.0785	2746.3744	3530	2649.15
1001.1996	2747.582	3513.25	2631.7
1001.3206	2748.7889	3498.3	2615.05
1001.4415	2749.9952	3478.85	2597.3
1001.5625	2751.2008	3462.1	2579.25
1001.6833	2752.4057	3464.4	2582.4
1001.8042	2753.61	3454.45	2573.2
1001.925	2754.8136	3444.8	2561.75
1002.0458	2756.0165	3429.8	2548.2
1002.1665	2757.2188	3418.55	2538.25
1002.2872	2758.4204	3418.25	2537
1002.4078	2759.6213	3404.9	2520.3
1002.5285	2760.8215	3400.6	2514.65
1002.649	2762.0211	3385.75	2502.7
1002.7696	2763.22	3372.3	2487.05
1002.8901	2764.4182	3370.9	2486.35
1003.0106	2765.6158	3363.45	2481.75
1003.131	2766.8127	3351.1	2469.2
1003.2514	2768.009	3347.4	2466.3
1003.3717	2769.2045	3329.2	2447.55
1003.492	2770.3994	3336	2450.25
1003.6123	2771.5936	3313.85	2432.85
1003.7325	2772.7872	3292.85	2412.3
1003.8527	2773.9801	3297.15	2414.7
1003.9729	2775.1723	3294.2	2397.3
1004.093	2776.3639	3284.35	2402.1
1004.2131	2777.5548	3260.55	2376.75
1004.3331	2778.745	3260.95	2377.65
1004.4531	2779.9346	3256.05	2374.15
1004.5731	2781.1235	3239.4	2356.7
1004.693	2782.3117	3230.25	2351.75
1004.8129	2783.4992	3214.4	2332.95
1004.9328	2784.6861	3212.1	2332.35
1005.0526	2785.8723	3207	2325.45
1005.1723	2787.0579	3209.45	2327.7
1005.2921	2788.2428	3190.95	2309
1005.4118	2789.427	3165.45	2282.65
1005.5314	2790.6106	3170.3	2289
1005.651	2791.7935	3177.35	2294.5
1005.7706	2792.9757	3161.7	2283.2
1005.8902	2794.1573	3141.55	2259.9
1006.0097	2795.3382	3135.2	2253
1006.1291	2796.5184	3125.85	2245.6
1006.2485	2797.698	3128.75	2247.6
1006.3679	2798.8769	3118.85	2238.55
1006.4873	2800.0551	3117.65	2236.75
1006.6066	2801.2327	3110.8	2226.6
1006.7258	2802.4096	3103.05	2224.3
1006.8451	2803.5859	3107	2224
1006.9642	2804.7615	3096.1	2214.2
1007.0834	2805.9364	3091.55	2211.35
1007.2025	2807.1106	3107.85	2227.6
1007.3216	2808.2842	3093.6	2213.1
1007.4406	2809.4572	3091.4	2209.8
1007.5596	2810.6294	3081.4	2200
1007.6785	2811.801	3109.95	2229.1
1007.7975	2812.972	3121.8	2242.4
1007.9163	2814.1423	3110.6	2229.05
1008.0352	2815.3119	3129.75	2249.35
1008.154	2816.4808	3128.6	2248.7
1008.2727	2817.6491	3152.75	2273.2
1008.3914	2818.8167	3167.9	2287.25
1008.5101	2819.9837	3173.5	2286.95
1008.6288	2821.15	3171.1	2288.2
1008.7474	2822.3157	3171.85	2292.8
1008.8659	2823.4807	3199.5	2318.95
1008.9844	2824.645	3215.55	2331.45
1009.1029	2825.8086	3226.35	2345.45
1009.2214	2826.9716	3239.05	2357.15
1009.3398	2828.134	3263.85	2382.85
1009.4581	2829.2957	3269	2388.2
1009.5764	2830.4567	3272.55	2392.85
1009.6947	2831.617	3269.9	2389.65
1009.813	2832.7767	3258.7	2377.4
1009.9312	2833.9358	3260.05	2378.8
1010.0493	2835.0941	3253.4	2371.5
1010.1675	2836.2519	3252.65	2371.05
1010.2855	2837.4089	3220.3	2340.35
1010.4036	2838.5653	3217	2336.1
1010.5216	2839.7211	3205.85	2325.5
1010.6396	2840.8761	3196.35	2315.4
1010.7575	2842.0306	3198.2	2317.5
1010.8754	2843.1843	3201.1	2319.45
1010.9932	2844.3374	3218.6	2338
1011.111	2845.4899	3233.9	2350.85
1011.2288	2846.6417	3222.2	2341.45
1011.3465	2847.7928	3250.05	2370.05
1011.4642	2848.9433	3254.5	2373.4
1011.5818	2850.0931	3278	2397.55
1011.6995	2851.2422	3301.1	2419.55
1011.817	2852.3907	3310.35	2430.2
1011.9345	2853.5385	3330.5	2448.1
1012.052	2854.6857	3338.65	2448.85
1012.1695	2855.8323	3346.25	2466.85
1012.2869	2856.9781	3352.5	2471.35
1012.4042	2858.1233	3360.2	2479.6
1012.5216	2859.2679	3371	2489.95
1012.6389	2860.4118	3377.65	2496.5
1012.7561	2861.555	3384.3	2498.75
1012.8733	2862.6976	3399.35	2517.2
1012.9905	2863.8395	3405.55	2526.45
1013.1076	2864.9808	3407.7	2528.4
1013.2247	2866.1214	3402.45	2524
1013.3417	2867.2614	3411.45	2530.1
1013.4587	2868.4007	3405.7	2524.15
1013.5757	2869.5393	3402.05	2519.85
1013.6926	2870.6773	3400.1	2515.85
1013.8095	2871.8146	3400.8	2516.55
1013.9263	2872.9513	3393.5	2510.1
1014.0431	2874.0874	3369.55	2488.55
1014.1599	2875.2227	3383.2	2502.9
1014.2766	2876.3574	3353.2	2471.65
1014.3933	2877.4915	3338.8	2459
1014.51	2878.6249	3311.35	2433.8
1014.6266	2879.7577	3304.05	2421.6
1014.7431	2880.8898	3313.1	2422.35
1014.8596	2882.0212	3288.1	2409.8
1014.9761	2883.152	3265.2	2382.55
1015.0925	2884.2821	3241.7	2363.3
1015.2089	2885.4116	3241.25	2362.05
1015.3253	2886.5405	3245	2365
1015.4416	2887.6686	3231.05	2349.35
1015.5579	2888.7962	3229.8	2350.3
1015.6741	2889.923	3228.9	2350.65
1015.7903	2891.0493	3227.55	2347.6
1015.9065	2892.1748	3233.45	2351.9
1016.0226	2893.2997	3202.25	2322.5
1016.1387	2894.424	3212.65	2332.65
1016.2547	2895.5476	3198	2318.9
1016.3707	2896.6706	3210.75	2330.3
1016.4866	2897.7929	3204.45	2323.7
1016.6025	2898.9145	3218.1	2339.5
1016.7184	2900.0355	3209.35	2329.8
1016.8342	2901.1559	3215.45	2335.05
1016.95	2902.2756	3221	2342.5
1017.0658	2903.3946	3217.35	2337.6
1017.1815	2904.513	3213.85	2330.9
1017.2971	2905.6308	3224.45	2344.3
1017.4127	2906.7479	3228.7	2348.5
1017.5283	2907.8643	3224.75	2343.1
1017.6439	2908.9801	3226.85	2348.15
1017.7594	2910.0953	3220.05	2339.65
1017.8748	2911.2098	3212.95	2328.35
1017.9902	2912.3236	3207.35	2319.65
1018.1056	2913.4368	3196.65	2314.25
1018.2209	2914.5494	3179.65	2299.7
1018.3362	2915.6613	3163.8	2277.9
1018.4515	2916.7725	3156	2274
1018.5667	2917.8831	3134.45	2253.35
1018.6819	2918.9931	3110.75	2227.05
1018.797	2920.1024	3109.95	2230.05
1018.9121	2921.211	3098.75	2217.95
1019.0271	2922.319	3084.35	2203.2
1019.1421	2923.4264	3079.2	2199.55
1019.2571	2924.5331	3068.9	2190.8
1019.372	2925.6391	3055.15	2177.15
1019.4869	2926.7445	3051.9	2173.65
1019.6017	2927.8493	3046.9	2165.35
1019.7165	2928.9534	3035.3	2154.7
1019.8313	2930.0569	3045.75	2164.75
1019.946	2931.1597	3034	2154.2
1020.0606	2932.2619	3020.2	2139.9
1020.1753	2933.3634	3029.15	2148.45
1020.2899	2934.4643	3014.65	2127.3
1020.4044	2935.5645	3020.6	2134.25
1020.5189	2936.6641	3001	2118.9
1020.6334	2937.763	2976.8	2097.5
1020.7478	2938.8613	2968.3	2086.3
1020.8622	2939.959	2950.2	2065.1
1020.9765	2941.056	2918.95	2040.55
1021.0908	2942.1523	2883.25	2002.9
1021.2051	2943.248	2847.95	1967.15
1021.3193	2944.3431	2804.4	1924.65
1021.4334	2945.4375	2772.8	1894.6
1021.5476	2946.5313	2734.95	1855.9
1021.6617	2947.6244	2701.5	1821.2
1021.7757	2948.7169	2652.3	1771.2
1021.8897	2949.8087	2631.45	1751.65
1022.0037	2950.8999	2590.25	1711.6
1022.1176	2951.9904	2561.25	1681.15
1022.2315	2953.0803	2537.25	1657.35
1022.3453	2954.1696	2501.6	1621.45
1022.4591	2955.2582	2481.35	1601.6
1022.5728	2956.3462	2461.75	1582.85
1022.6865	2957.4335	2438.1	1558.35
1022.8002	2958.5202	2417.1	1533.25
1022.9138	2959.6062	2404.8	1524.7
1023.0274	2960.6916	2398.75	1520.15
1023.141	2961.7764	2394.6	1513.95
1023.2545	2962.8605	2371.85	1491.2
1023.3679	2963.9439	2358.25	1479.25
1023.4813	2965.0267	2355.25	1475.05
1023.5947	2966.1089	2369.35	1464.65
1023.708	2967.1905	2350.05	1469.7
1023.8213	2968.2714	2324.45	1445.5
1023.9346	2969.3516	2327.5	1447.85
1024.0478	2970.4312	2327.95	1440
1024.1609	2971.5102	2322.05	1442.8
1024.274	2972.5885	2326.55	1446.75
1024.3871	2973.6662	2319.05	1434.75
1024.5002	2974.7432	2314.4	1434.1
1024.6132	2975.8196	2295.8	1417.25
1024.7261	2976.8954	2288.15	1408.55
1024.839	2977.9705	2285.15	1404.8
1024.9519	2979.045	2272	1391.05
1025.0647	2980.1188	2274.65	1393.9
1025.1775	2981.192	2246	1367.7
1025.2902	2982.2645	2242.75	1362.55
1025.4029	2983.3364	2219.95	1341.4
1025.5156	2984.4077	2216.25	1338.3
1025.6282	2985.4783	2215.65	1331.85
1025.7407	2986.5483	2206.3	1326.7
1025.8532	2987.6177	2178.65	1301.05
1025.9657	2988.6864	2165.9	1285
1026.0782	2989.7545	2145.85	1264.6
1026.1906	2990.8219	2132.35	1255.2
1026.3029	2991.8887	2125.4	1242.6
1026.4152	2992.9548	2107.8	1227.8
1026.5275	2994.0204	2093.4	1215.5
1026.6397	2995.0852	2071.8	1195.05
1026.7519	2996.1495	2060.05	1179.05
1026.864	2997.2131	2043.1	1163.85
1026.9761	2998.276	2031.4	1151.45
1027.0882	2999.3383	2027.4	1145.75
1027.2002	3000.4	2010.75	1132.2
1027.3122	3001.4611	2007.2	1127.7
1027.4241	3002.5215	1985.05	1105.35
1027.536	3003.5812	1967.7	1086.95
1027.6478	3004.6404	1969.65	1089.65
1027.7596	3005.6989	1963.8	1083.75
1027.8714	3006.7567	1960.95	1081
1027.9831	3007.8139	1977.25	1066.4
1028.0947	3008.8705	1942.3	1061.35
1028.2064	3009.9264	1928.35	1043.8
1028.3179	3010.9818	1927.15	1048
1028.4295	3012.0364	1917.7	1037.15
1028.541	3013.0905	1929.85	1049.05
1028.6524	3014.1439	1915.85	1037.65
1028.7638	3015.1966	1914.35	1035.7
1028.8752	3016.2487	1902.85	1024.6
1028.9865	3017.3002	1902.65	1019.1
1029.0978	3018.3511	1895.05	1018.35
1029.209	3019.4013	1892.35	1014.7
1029.3202	3020.4509	1885.3	1005.65
1029.4314	3021.4998	1881.6	1001.05
1029.5425	3022.5481	1878.8	999.75
1029.6535	3023.5958	1877.6	996.9
1029.7645	3024.6428	1872.75	990
1029.8755	3025.6892	1868.8	991.2
1029.9864	3026.735	1857.2	977.85
1030.0973	3027.7802	1859.25	980.85
1030.2082	3028.8247	1856.6	975.8
1030.319	3029.8685	1849.8	968.15
1030.4297	3030.9118	1841.35	962.05
1030.5404	3031.9544	1843.3	964.1
1030.6511	3032.9963	1839.2	961.1
1030.7617	3034.0376	1839.9	960
1030.8723	3035.0783	1828.3	946.7
1030.9829	3036.1184	1826.95	947.65
1031.0934	3037.1578	1827.1	946.25
1031.2038	3038.1966	1822.6	942.7
1031.3142	3039.2348	1820.45	940.75
1031.4246	3040.2723	1825.85	937.8
1031.5349	3041.3092	1816.7	938.45
1031.6452	3042.3455	1803.8	923.35
1031.7554	3043.3811	1803.5	923.35
1031.8656	3044.4161	1810.3	928.85
1031.9758	3045.4505	1796.55	918.3
1032.0859	3046.4842	1800.35	919.55
1032.1959	3047.5173	1786.75	908.55
1032.3059	3048.5498	1781.45	900.75
1032.4159	3049.5816	1783.9	902.3
1032.5258	3050.6128	1771.8	892.4
1032.6357	3051.6434	1776.05	894.75
1032.7455	3052.6734	1766.1	885.2
1032.8553	3053.7027	1761.65	883.35
1032.9651	3054.7314	1757.95	880.15
1033.0748	3055.7594	1751.35	871.4
1033.1845	3056.7868	1756.5	875.2
1033.2941	3057.8136	1753.75	875
1033.4037	3058.8398	1749	869.25
1033.5132	3059.8653	1743.3	862.05
1033.6227	3060.8902	1731.95	853.15
1033.7321	3061.9145	1731.05	850.7
1033.8415	3062.9381	1734.1	854.1
1033.9509	3063.9612	1732.05	838.75
1034.0602	3064.9835	1720.95	842.75
1034.1694	3066.0053	1718.8	836.95
1034.2787	3067.0264	1713.75	834.45
1034.3878	3068.0469	1705.5	825.75
1034.497	3069.0668	1705.2	821.5
1034.6061	3070.086	1702.1	823.1
1034.7151	3071.1046	1686.05	806.7
1034.8241	3072.1226	1688.8	809.65
1034.9331	3073.1399	1677.6	799.2
1035.042	3074.1567	1666.3	786.9
1035.1508	3075.1727	1675.45	793.95
1035.2597	3076.1882	1668.65	789.05
1035.3684	3077.203	1659.4	778.8
1035.4772	3078.2173	1663.45	782.1
1035.5859	3079.2308	1656.8	773.8
1035.6945	3080.2438	1651.1	769.1
1035.8031	3081.2561	1631.15	751.95
1035.9117	3082.2678	1644.45	764.95
1036.0202	3083.2789	1628.6	749.55
1036.1286	3084.2893	1623.35	745.15
1036.2371	3085.2991	1619.6	740.4
1036.3454	3086.3083	1622.25	739.65
1036.4538	3087.3169	1612.7	731.4
1036.562	3088.3248	1609.45	727.9
1036.6703	3089.3321	1596.65	716.25
1036.7785	3090.3388	1592.2	714.05
1036.8866	3091.3449	1593.35	714.4
1036.9948	3092.3503	1599.35	718.55
1037.1028	3093.3551	1585.45	706.4
1037.2108	3094.3593	1587.05	710.5
1037.3188	3095.3629	1582.7	704.85
1037.4267	3096.3658	1579	700.15
1037.5346	3097.3681	1567.2	688.2
1037.6425	3098.3698	1566.95	684.2
1037.7503	3099.3708	1568.25	681.55
1037.858	3100.3713	1559.1	681.7
1037.9657	3101.3711	1556.25	675.8
1038.0734	3102.3702	1685.15	669.75
1038.181	3103.3688	1553.5	674.05
1038.2886	3104.3667	1548.5	669.75
1038.3961	3105.364	1541.45	662.75
1038.5036	3106.3607	1539.5	657.45
1038.611	3107.3568	1530.25	650.5
1038.7184	3108.3522	1527.05	647.35
1038.8257	3109.347	1533.4	652.8
1038.933	3110.3412	1522.65	639.3
1039.0403	3111.3348	1516.05	635.65
1039.1475	3112.3277	1511.55	632.55
1039.2547	3113.32	1510.2	630.05
1039.3618	3114.3117	1505.55	625.5
1039.4689	3115.3028	1508.85	630.65
1039.5759	3116.2932	1498.3	616.95
1039.6829	3117.2831	1489.45	604.45
1039.7898	3118.2723	1491	613.6
1039.8967	3119.2608	1483.8	606.1
1040.0035	3120.2488	1491.15	612.25
1040.1103	3121.2361	1484.95	604.9
1040.2171	3122.2229	1464.65	587.65
1040.3238	3123.209	1474.3	593.9
1040.4305	3124.1944	1471.55	593.5
1040.5371	3125.1793	1465.85	585.3
1040.6437	3126.1635	1465.1	585.05
1040.7502	3127.1471	1461.6	583.3
1040.8567	3128.1301	1455.45	576.75
1040.9631	3129.1125	1452.2	573.7
1041.0695	3130.0942	1455.2	575.9
1041.1759	3131.0753	1458.15	572.2
1041.2822	3132.0558	1448.45	567.2
1041.3884	3133.0357	1447.2	567.05
1041.4946	3134.015	1437	558.5
1041.6008	3134.9936	1438.45	557.3
1041.7069	3135.9716	1453.45	554.8
1041.813	3136.949	1429.95	551.35
1041.919	3137.9258	1432	548.65
1042.025	3138.902	1434.2	549.1
1042.1309	3139.8775	1419.35	542.1
1042.2368	3140.8524	1424.05	542.95
1042.3427	3141.8267	1422.35	540.95
1042.4485	3142.8004	1422.2	543.1
1042.5542	3143.7735	1415.7	529.25
1042.6599	3144.7459	1415.55	536.55
1042.7656	3145.7178	1414.5	532.1
1042.8712	3146.689	1408.75	532.3
1042.9768	3147.6596	1406.55	525.45
1043.0823	3148.6295	1406.7	526.4
1043.1878	3149.5989	1399.7	521.75
1043.2932	3150.5676	1399.25	521.05
1043.3986	3151.5357	1395.95	519
1043.5039	3152.5032	1394.6	516.6
1043.6092	3153.4701	1388.6	508.4
1043.7145	3154.4364	1386.55	505.65
1043.8197	3155.402	1384.5	505.8
1043.9248	3156.367	1380	500.9
1044.03	3157.3315	1417.7	501.7
1044.135	3158.2952	1374.55	495.5
1044.24	3159.2584	1369.75	490.75
1044.345	3160.221	1369.65	489.5
1044.4499	3161.1829	1360.45	479.95
1044.5548	3162.1442	1362.25	485.85
1044.6596	3163.105	1358.5	479.25
1044.7644	3164.065	1354.1	475.4
1044.8692	3165.0245	1356.95	476.45
1044.9739	3165.9834	1353.15	474.2
1045.0785	3166.9416	1351.5	472.1
1045.1831	3167.8993	1345.15	464.55
1045.2877	3168.8563	1346.6	467.95
1045.3922	3169.8127	1338.7	461.7
1045.4966	3170.7684	1335.15	457.15
1045.6011	3171.7236	1327.3	448.35
1045.7054	3172.6782	1337.3	458.2
1045.8098	3173.6321	1334.3	454.85
1045.914	3174.5854	1332.65	450.45
1046.0183	3175.5381	1327.75	449.25
1046.1224	3176.4902	1322.6	445.5
1046.2266	3177.4417	1320.85	441.7
1046.3307	3178.3926	1315.9	437.2
1046.4347	3179.3428	1315.95	437.05
1046.5387	3180.2924	1314.6	435.35
1046.6427	3181.2415	1315.2	436.15
1046.7466	3182.1899	1316.5	436.35
1046.8504	3183.1377	1312	431.95
1046.9542	3184.0848	1309.35	428.15
1047.058	3185.0314	1304.4	424.5
1047.1617	3185.9773	1298.85	420.9
1047.2654	3186.9227	1294.7	417.25
1047.369	3187.8674	1294.5	416.85
1047.4726	3188.8115	1299	416.1
1047.5761	3189.755	1287	409.95
1047.6796	3190.6979	1292.65	415.35
1047.783	3191.6402	1284.1	406.35
1047.8864	3192.5818	1284.65	404.25
1047.9898	3193.5229	1302.25	407.35
1048.0931	3194.4633	1287.7	409.5
1048.1963	3195.4031	1277.85	399.85
1048.2995	3196.3423	1275.3	397.05
1048.4027	3197.2809	1276.45	399.55
1048.5058	3198.2189	1272.2	392.4
1048.6089	3199.1563	1291.05	397.2
1048.7119	3200.0931	1266.25	388.65
1048.8148	3201.0292	1261.25	385.4
1048.9178	3201.9648	1255.6	375.45
1049.0206	3202.8997	1262.65	381.25
1049.1235	3203.834	1256.65	376.8
1049.2262	3204.7677	1253.95	378.35
1049.329	3205.7008	1257.75	378.55
1049.4317	3206.6333	1249.4	372.9
1049.5343	3207.5652	1254.65	374.2
1049.6369	3208.4964	1253	375.4
1049.7394	3209.4271	1252.85	375.15
1049.8419	3210.3571	1250.55	370.85
1049.9444	3211.2865	1244.65	364.65
1050.0468	3212.2154	1239.1	360.2
1050.1491	3213.1436	1239.5	357.9
1050.2514	3214.0712	1246	360.2
1050.3537	3214.9982	1238.95	360.2
1050.4559	3215.9246	1233.8	354.25
1050.5581	3216.8503	1230.05	352.55
1050.6602	3217.7755	1231.6	354.55
1050.7623	3218.7001	1230.35	353.3
1050.8643	3219.624	1227.15	347.9
1050.9663	3220.5473	1230.95	352
1051.0682	3221.4701	1221.95	343.7
1051.1701	3222.3922	1221.8	342.15
1051.2719	3223.3137	1221.1	343.15
1051.3737	3224.2346	1218.45	341.25
1051.4754	3225.1549	1218.75	341.2
1051.5771	3226.0746	1217.9	341.15
1051.6788	3226.9937	1213.4	334.65
1051.7804	3227.9121	1216	338.95
1051.8819	3228.83	1210.35	333.2
1051.9834	3229.7473	1209.9	331.5
1052.0849	3230.6639	1206.05	324.65
1052.1863	3231.5799	1204.4	326.4
1052.2876	3232.4954	1206.35	326
1052.3889	3233.4102	1199.4	322.6
1052.4902	3234.3244	1198.25	318.05
1052.5914	3235.238	1199.15	322.45
1052.6926	3236.151	1220	318.5
1052.7937	3237.0634	1190.35	315
1052.8948	3237.9752	1189	310.5
1052.9958	3238.8864	1185.05	305.55
1053.0968	3239.797	1182.7	304.4
1053.1977	3240.7069	1181.85	302.85
1053.2986	3241.6163	1183.75	304.15
1053.3994	3242.5251	1183.9	306.25
1053.5002	3243.4332	1178.15	301.1
1053.6009	3244.3408	1174.4	295.3
1053.7016	3245.2477	1174	296.25
1053.8022	3246.154	1182.85	304.75
1053.9028	3247.0598	1172.35	293.4
1054.0034	3247.9649	1167.55	289.2
1054.1039	3248.8694	1167.8	290.8
1054.2043	3249.7733	1164.1	285.6
1054.3047	3250.6766	1163.4	283.35
1054.4051	3251.5793	1165.2	285.25
1054.5054	3252.4814	1160.65	282.1
1054.6056	3253.3829	1158.3	280
1054.7058	3254.2838	1160.05	282.25
1054.806	3255.1841	1155.55	276.75
1054.9061	3256.0838	1159.7	281.75
1055.0061	3256.9829	1151.1	274.05
1055.1062	3257.8814	1153.2	271.75
1055.2061	3258.7792	1148.6	269.65
1055.306	3259.6765	1149.05	268.95
1055.4059	3260.5731	1140.65	262.3
1055.5057	3261.4692	1139.9	260.9
1055.6055	3262.3647	1133.9	254.85
1055.7052	3263.2595	1129.75	251.75
1055.8049	3264.1538	1129.65	251.05
1055.9045	3265.0474	1122.9	244.7
1056.0041	3265.9404	1119.45	241.75
1056.1036	3266.8329	1115.75	237.35
1056.2031	3267.7247	1123.7	236
1056.3025	3268.616	1107.3	230.3
1056.4019	3269.5066	1104.2	223.9
1056.5013	3270.3966	1101.85	218.9
1056.6005	3271.286	1087.7	211.15
