Software Version:	3.9.2.0
Unit SN:	10000200
Spectrometer SN:	6960
Date:	3/6/2024 10:06:36 AM
Data Line Index:	25
Spectral Points:	2048
Integration time (ms):	125
Averages:	20
Delay (ms):	30
Sequence Number:	1
Processing:	dark subtract
Laser Power (mW):	305
Laser Current (mA):	826
Laser Diode Temp (C):	25
Laser Case Temp (C):	24.8
System Temp (C):	24.6
Spectrometer Temp (C):	22.2
CCD Temp (C):	0.005
Secondary Temp (C):	20.007
Heatsink Temp (C):	18.563
CCDPCB Temp (C):	31.983
SecondaryPCB Temp (C):	25.836

Wavelength	RamanShift	Raw Counts	Dark Subtracted
787.061	30.1047	690.55	282.2
787.2016	32.3739	705.45	299.6
787.3422	34.6426	722.85	314.45
787.4828	36.9109	740.75	331.6
787.6235	39.1787	766.65	352.65
787.7642	41.4461	786.5	368.05
787.9049	43.7131	818.45	398.1
788.0456	45.9796	841.55	417.9
788.1863	48.2456	868.2	440.6
788.3271	50.5112	899.9	466.2
788.4679	52.7764	931.85	496.4
788.6087	55.0411	963.55	523.15
788.7496	57.3054	1002.35	558.25
788.8904	59.5692	1028.4	583.35
789.0313	61.8326	1065.35	615.7
789.1722	64.0955	1117.05	666.5
789.3132	66.3579	1167.35	712.3
789.4541	68.6199	1238	777.25
789.5951	70.8815	1359.2	897.9
789.7361	73.1426	1608.75	1140.05
789.8771	75.4032	2237.7	1766.25
790.0181	77.6634	3851.3	3376.55
790.1592	79.9231	7874.6	7394.65
790.3003	82.1824	17500.45	17010.95
790.4414	84.4412	40460.45	39955.15
790.5825	86.6995	55473.25	54951.25
790.7237	88.9574	59598.65	59061.35
790.8648	91.2148	61514.2	60964.4
791.006	93.4717	62029.85	61472.75
791.1472	95.7282	62281.1	61719.1
791.2885	97.9842	62416.7	61853.95
791.4297	100.2398	62436.55	61871.15
791.571	102.4949	62448.3	61879.65
791.7123	104.7495	62443.5	61872.55
791.8536	107.0036	62388.4	61815.1
791.9949	109.2573	62487.15	61916.2
792.1363	111.5105	62410.25	61835.5
792.2777	113.7632	62440.85	61864.15
792.4191	116.0154	62497.2	61907.55
792.5605	118.2672	62592.3	62006.9
792.7019	120.5185	62568.85	61988.4
792.8434	122.7693	62572.75	61986.5
792.9849	125.0197	62521.65	61932.5
793.1264	127.2696	62703.5	62110.75
793.2679	129.519	62682.95	62082.35
793.4094	131.7679	62778.55	62178.65
793.551	134.0163	62590.15	61987.7
793.6926	136.2642	62664.05	62059.25
793.8342	138.5117	62793.15	62182.7
793.9758	140.7587	62752.85	62142.5
794.1175	143.0052	62759.65	62145.7
794.2591	145.2512	62676.5	62060.7
794.4008	147.4967	62803	62186.15
794.5425	149.7417	62773.5	62155.25
794.6842	151.9863	62745.6	62124.5
794.826	154.2304	62696.45	62070.1
794.9677	156.4739	62729.05	62098.8
795.1095	158.717	62823.2	62190.2
795.2513	160.9596	62796.4	62158.6
795.3931	163.2017	62692.05	62053.7
795.535	165.4433	62791.7	62150.75
795.6768	167.6844	62735.1	62094.3
795.8187	169.925	62787.85	62143.5
795.9606	172.1651	62707.65	62061.5
796.1025	174.4047	62773	62121.95
796.2445	176.6439	62767.65	62113.5
796.3864	178.8825	62722.15	62063.1
796.5284	181.1206	62836.55	62177.05
796.6704	183.3582	62814.1	62148.1
796.8124	185.5954	62774.1	62106.5
796.9544	187.832	62792.65	62121.8
797.0965	190.0681	62734.05	62060.3
797.2386	192.3037	62836.6	62158.15
797.3806	194.5388	62912	62233.5
797.5228	196.7734	62691.05	62008.15
797.6649	199.0075	62927.65	62242.6
797.807	201.2411	62865.6	62183.05
797.9492	203.4742	62956.2	62272.2
798.0914	205.7068	62940.4	62252.05
798.2336	207.9389	62944.75	62255.2
798.3758	210.1704	62957.7	62268.75
798.518	212.4015	62985.85	62311.25
798.6603	214.632	62930.65	62262.1
798.8025	216.862	62989.35	62323.45
798.9448	219.0915	62995.85	62324.9
799.0871	221.3205	62983.95	62308.95
799.2294	223.549	63004.6	62337.1
799.3718	225.777	63016.8	62347.4
799.5141	228.0044	63026.9	62350.75
799.6565	230.2314	63022.15	62346
799.7989	232.4578	63021.35	62340.45
799.9413	234.6837	63030.15	62343.4
800.0837	236.909	63081.9	62389
800.2262	239.1339	63021.35	62305.1
800.3687	241.3582	63045.75	62342.65
800.5111	243.582	63043.65	62311.65
800.6536	245.8053	63068.4	62350.35
800.7961	248.0281	63059.8	62346.15
800.9387	250.2503	63061.75	62344.2
801.0812	252.472	63069.65	62349.35
801.2238	254.6932	63076.85	62358.75
801.3664	256.9139	63069.2	62349.85
801.509	259.134	63105.75	62377.65
801.6516	261.3536	63049.65	62324.95
801.7942	263.5727	63110.55	62385.05
801.9369	265.7912	63079.3	62353.1
802.0795	268.0092	63091.25	62366.05
802.2222	270.2267	63086.2	62361.9
802.3649	272.4436	63070.75	62340.9
802.5076	274.6601	63093.95	62352.8
802.6504	276.8759	63090.05	62354.75
802.7931	279.0913	63098.35	62365.3
802.9359	281.3061	63095.9	62359.2
803.0787	283.5204	63085	62345.9
803.2215	285.7341	63105.25	62361.35
803.3643	287.9473	63124.45	62370.45
803.5071	290.16	63092.35	62347.85
803.6499	292.3721	63121.4	62383.1
803.7928	294.5837	63082.2	62342.45
803.9357	296.7947	63087.95	62348.1
804.0786	299.0052	63112.25	62369.45
804.2215	301.2152	63095.75	62351.1
804.3644	303.4246	63125.8	62381.3
804.5074	305.6334	63104.5	62361.55
804.6503	307.8418	63086.9	62341.1
804.7933	310.0495	63104.3	62356.65
804.9363	312.2568	63093.8	62346.7
805.0793	314.4635	63066.9	62316.95
805.2223	316.6696	63093.7	62338.3
805.3653	318.8752	63089.8	62326.9
805.5084	321.0802	63045.4	62290.4
805.6514	323.2847	63061.15	62303.55
805.7945	325.4887	63044.95	62286.65
805.9376	327.692	63033.95	62277.25
806.0807	329.8949	63072.65	62312.95
806.2238	332.0972	63044.35	62283.7
806.367	334.2989	63052.6	62288.65
806.5101	336.5001	63050.9	62285.05
806.6533	338.7007	63054.65	62289.2
806.7965	340.9008	63050.95	62282.9
806.9397	343.1003	63057.6	62289
807.0829	345.2992	63080	62310.1
807.2261	347.4976	63054.85	62284.1
807.3693	349.6955	63058.65	62284.1
807.5126	351.8927	63060.9	62287.2
807.6559	354.0895	63063.8	62274.4
807.7991	356.2856	63075.75	62296.6
807.9424	358.4812	63064.65	62289
808.0857	360.6763	63072.7	62291.6
808.2291	362.8707	63063.1	62281.65
808.3724	365.0646	63053.15	62266.7
808.5158	367.258	63054.6	62267.7
808.6591	369.4508	63039.5	62251.05
808.8025	371.643	63041	62250.25
808.9459	373.8346	63034.55	62244.95
809.0893	376.0257	63037.75	62242.65
809.2327	378.2162	63030.25	62237.5
809.3762	380.4062	63019.3	62224.2
809.5196	382.5956	63024.1	62232.4
809.6631	384.7844	63023.25	62236.85
809.8066	386.9726	63014.9	62227.65
809.9501	389.1603	63019.4	62234.8
810.0936	391.3474	62998.4	62171.35
810.2371	393.5339	63023.8	62236.15
810.3806	395.7199	62998.9	62213.55
810.5241	397.9052	62998.1	62211
810.6677	400.09	62994.75	62209.15
810.8113	402.2743	63002	62214.65
810.9548	404.4579	62999.25	62209.4
811.0984	406.641	62989	62197.9
811.2421	408.8235	63006.85	62214.3
811.3857	411.0054	63000.85	62203.7
811.5293	413.1868	63015.7	62216.8
811.673	415.3675	63025.5	62225.55
811.8166	417.5477	63013.85	62210.65
811.9603	419.7273	63007.8	62206.8
812.104	421.9064	62994.9	62179.8
812.2477	424.0848	62987.5	62183.25
812.3914	426.2627	62991.75	62186.95
812.5351	428.4399	62971.35	62164.95
812.6788	430.6166	62962.45	62152.4
812.8226	432.7928	62969.5	62157.3
812.9663	434.9683	62947.15	62131.5
813.1101	437.1432	62940.05	62126.9
813.2539	439.3176	62941.05	62130.8
813.3977	441.4914	62917.5	62105.95
813.5415	443.6645	62925.45	62114.85
813.6853	445.8371	62907.75	62093.25
813.8291	448.0091	62892.2	62079.75
813.973	450.1806	62876.15	62063.4
814.1168	452.3514	62870.95	62056
814.2607	454.5216	62852.25	62028.3
814.4046	456.6913	62857.35	62037.75
814.5485	458.8603	62851.75	62033.55
814.6924	461.0288	62857.65	62042.1
814.8363	463.1967	62840.15	62026.15
814.9802	465.3639	62844.85	62025.1
815.1241	467.5306	62777.55	61958.3
815.2681	469.6967	62836.5	62020.2
815.412	471.8622	62826.8	62011.25
815.556	474.0271	62812.6	61996.15
815.7	476.1914	62825.4	62001.65
815.844	478.3551	62823	62002.65
815.988	480.5182	62835.55	62013.3
816.132	482.6807	62806.65	61986.25
816.276	484.8426	62821.2	62002.85
816.4201	487.0039	62853.5	62033.35
816.5641	489.1647	62840.6	62017.7
816.7082	491.3248	62834	62010.15
816.8522	493.4843	62841.8	62021.8
816.9963	495.6432	62843.75	62021.95
817.1404	497.8015	62791.95	61963.45
817.2845	499.9592	62831.35	62000.75
817.4286	502.1163	62819	61988.1
817.5727	504.2728	62823.25	61992.75
817.7168	506.4287	62814.1	61988.4
817.861	508.5839	62795.4	61970.85
818.0051	510.7386	62817.15	61991
818.1493	512.8927	62827.2	61995.85
818.2935	515.0461	62819.15	61986.45
818.4377	517.199	62810.6	61980.45
818.5818	519.3512	62801.95	61970.3
818.726	521.5029	62803.85	61964.4
818.8703	523.6539	62805.4	61973.95
819.0145	525.8043	62759.9	61924.1
819.1587	527.9541	62795.55	61959.2
819.303	530.1033	62793.3	61959.65
819.4472	532.2519	62777.45	61940.6
819.5915	534.3999	62804.65	61965.5
819.7357	536.5472	62807.85	61971.55
819.88	538.694	62737.05	61903.5
820.0243	540.8401	62801.1	61963.6
820.1686	542.9856	62807.85	61970
820.3129	545.1305	62802.25	61961.45
820.4572	547.2748	62779.65	61936.25
820.6016	549.4185	62761.35	61916.05
820.7459	551.5615	62788.4	61945.5
820.8902	553.704	62779.55	61936.3
821.0346	555.8458	62769.4	61926.5
821.1789	557.987	62760.8	61916.6
821.3233	560.1276	62770.25	61926.75
821.4677	562.2675	62753.25	61911
821.6121	564.4069	62758.85	61916.65
821.7565	566.5456	62774.75	61932.4
821.9009	568.6837	62730.65	61886.9
822.0453	570.8212	62742.45	61901.15
822.1897	572.958	62659.8	61816.4
822.3342	575.0942	62730.3	61889.1
822.4786	577.2299	62648.75	61805.15
822.6231	579.3648	62631.05	61790.25
822.7675	581.4992	62607.85	61770.85
822.912	583.6329	62602.85	61764.5
823.0565	585.766	62607.8	61769.25
823.201	587.8985	62622	61781.7
823.3454	590.0304	62487.6	61616.65
823.4899	592.1616	62581.2	61733.1
823.6345	594.2922	62540.65	61690.35
823.779	596.4222	62462	61613.35
823.9235	598.5515	62484.3	61634.95
824.068	600.6802	62551.5	61703
824.2126	602.8083	62412.1	61563.35
824.3571	604.9358	62405.95	61557
824.5017	607.0626	62504.8	61653.2
824.6462	609.1888	62341	61488.45
824.7908	611.3144	62443.15	61589.45
824.9354	613.4393	62400.65	61547.45
825.08	615.5636	62299.9	61444.15
825.2246	617.6873	62372.8	61520.95
825.3692	619.8103	62270.4	61416.9
825.5138	621.9327	62385.2	61532.3
825.6584	624.0544	62374.75	61523.5
825.803	626.1756	62343.8	61491.15
825.9477	628.2961	62318.95	61461.35
826.0923	630.4159	62273.45	61416.8
826.237	632.5351	62238.1	61381.95
826.3816	634.6537	62419.15	61562.5
826.5263	636.7716	62215.3	61356.75
826.6709	638.8889	62266.35	61407.25
826.8156	641.0056	62255.65	61396.55
826.9603	643.1216	62278.3	61419.95
827.105	645.237	62323.05	61461.2
827.2497	647.3518	62206.65	61348.3
827.3944	649.4659	62238.55	61382.9
827.5391	651.5793	62261.55	61405.2
827.6838	653.6922	62276	61421.05
827.8285	655.8043	62144.4	61286.4
827.9733	657.9159	62300.6	61440.35
828.118	660.0268	62038.25	61177.2
828.2627	662.137	62202.95	61340.25
828.4075	664.2466	62202.55	61339.4
828.5522	666.3556	62141.25	61277.1
828.697	668.4639	62179.25	61314.05
828.8418	670.5716	62096.15	61237.45
828.9865	672.6786	62179.85	61316.25
829.1313	674.785	62078.5	61213.25
829.2761	676.8907	62066.95	61204.8
829.4209	678.9958	62113.25	61251.6
829.5657	681.1002	62097.2	61232.55
829.7105	683.204	62039.25	61169.55
829.8553	685.3072	61980.7	61113.25
830.0001	687.4097	62005.65	61140.75
830.1449	689.5115	61957.15	61089.25
830.2898	691.6127	62053.65	61189.65
830.4346	693.7132	61975.9	61110.5
830.5794	695.8131	61981.65	61093.65
830.7243	697.9123	62002.15	61132.75
830.8691	700.0109	61998.2	61129.95
831.014	702.1089	61881.8	61018.35
831.1588	704.2061	61915.75	61049.15
831.3037	706.3028	61925.75	61055.3
831.4486	708.3987	61939.75	61070.7
831.5935	710.4941	61880.9	61014.25
831.7383	712.5887	61943.85	61076.35
831.8832	714.6827	61913.5	61039.9
832.0281	716.7761	61955.05	61089.05
832.173	718.8688	61945.95	61075.1
832.3179	720.9608	61864.4	60988.75
832.4628	723.0522	61871.55	60991.85
832.6077	725.1429	61824.65	60951.6
832.7527	727.233	61978.35	61105.55
832.8976	729.3224	61740.2	60867.85
833.0425	731.4112	61817.9	60944.7
833.1874	733.4993	61789.4	60914.35
833.3324	735.5867	61807.55	60934.25
833.4773	737.6735	61745.6	60871.3
833.6222	739.7596	61704	60827.8
833.7672	741.845	61687.4	60814.3
833.9122	743.9298	61736.3	60859.1
834.0571	746.014	61661.05	60786.65
834.2021	748.0974	61601.55	60722.4
834.347	750.1802	61698.9	60823.7
834.492	752.2624	61550.9	60677.1
834.637	754.3439	61575.75	60701.5
834.782	756.4247	61586.2	60699.65
834.9269	758.5048	61514.2	60641.35
835.0719	760.5843	61519.6	60645.25
835.2169	762.6631	61507.5	60629.05
835.3619	764.7413	61511.7	60635.2
835.5069	766.8188	61515.2	60637.25
835.6519	768.8956	61509.4	60630.9
835.7969	770.9718	61493.25	60617.25
835.9419	773.0473	61470.25	60593.05
836.0869	775.1221	61401.4	60527.75
836.232	777.1962	61389.65	60510.4
836.377	779.2697	61335.35	60454.05
836.522	781.3426	61353.55	60459.75
836.667	783.4147	61347.3	60465.2
836.8121	785.4862	61302.15	60422.3
836.9571	787.557	61284.85	60403.05
837.1021	789.6271	61303.65	60425
837.2472	791.6966	61252	60374.65
837.3922	793.7654	61215.45	60337.3
837.5373	795.8335	61218.6	60341.15
837.6823	797.901	61209.05	60327.9
837.8274	799.9678	61174.6	60294.45
837.9724	802.0339	61154.15	60275.7
838.1175	804.0993	61132.5	60240.75
838.2626	806.1641	61105.65	60226.5
838.4076	808.2282	61111.95	60230.95
838.5527	810.2916	61089.15	60207.85
838.6978	812.3544	61098.7	60221.55
838.8428	814.4164	61010.65	60130.2
838.9879	816.4778	61032	60149.05
839.133	818.5385	61004.15	60122.25
839.2781	820.5986	60990.75	60109.5
839.4232	822.658	61003.25	60119.9
839.5682	824.7166	60988.45	60105.7
839.7133	826.7747	60949.05	60065.9
839.8584	828.832	60967.3	60085.05
840.0035	830.8886	60983.95	60097.3
840.1486	832.9446	60972.95	60088.1
840.2937	834.9999	60812.2	59926.4
840.4388	837.0545	60892.8	60007.55
840.5839	839.1085	60889.25	60005.9
840.729	841.1618	60864.65	59975.25
840.8741	843.2143	60765.25	59882.2
841.0192	845.2662	60741.5	59856.45
841.1643	847.3175	60752.8	59869.15
841.3095	849.368	60645.05	59761.85
841.4546	851.4179	60717.95	59835.4
841.5997	853.467	60630.7	59747.3
841.7448	855.5155	60654.3	59768.45
841.8899	857.5633	60605.3	59720.2
842.0351	859.6105	60547.4	59661.1
842.1802	861.6569	60583.4	59697.35
842.3253	863.7027	60488.15	59600.85
842.4704	865.7478	60502.6	59617.2
842.6156	867.7922	60495.6	59608.4
842.7607	869.8359	60511.8	59624.05
842.9058	871.8789	60439.05	59550.95
843.0509	873.9212	60469.3	59550.95
843.1961	875.9629	60434.5	59549.3
843.3412	878.0039	60435.4	59549
843.4863	880.0441	60395.8	59509.45
843.6315	882.0837	60376.55	59487.35
843.7766	884.1226	60386.65	59499.35
843.9218	886.1609	60387.1	59501.1
844.0669	888.1984	60357.3	59472.05
844.212	890.2352	60414.2	59527.4
844.3572	892.2714	60307.5	59415.9
844.5023	894.3069	60355.2	59466.05
844.6475	896.3416	60298.2	59408.95
844.7926	898.3757	60263.1	59373.3
844.9377	900.4091	60200.45	59313.4
845.0829	902.4418	60258.6	59364
845.228	904.4739	60174.8	59283.85
845.3732	906.5052	60202.35	59314.6
845.5183	908.5358	60155.95	59267.4
845.6635	910.5658	60118.85	59225.6
845.8086	912.595	60087.8	59197.6
845.9538	914.6236	60008.3	59118.05
846.0989	916.6515	60138.7	59251.45
846.2441	918.6786	59978.25	59087.6
846.3892	920.7051	60004.6	59111.6
846.5344	922.7309	59987.1	59095.8
846.6795	924.756	59937.6	59048.75
846.8246	926.7804	59932.5	59042.95
846.9698	928.8041	59778.1	58887.25
847.1149	930.8272	59844.3	58954.4
847.2601	932.8495	59829.55	58938.1
847.4052	934.8711	59752.65	58863.55
847.5504	936.892	59666.45	58776.6
847.6955	938.9123	59662.8	58769.55
847.8407	940.9318	59634.6	58744.55
847.9858	942.9506	59579.7	58688.9
848.131	944.9688	59602.9	58713.4
848.2761	946.9862	59443.1	58550.85
848.4213	949.003	59488.3	58596.65
848.5664	951.019	59341.35	58449.35
848.7115	953.0344	59347.15	58457.7
848.8567	955.0491	59313.6	58420.9
849.0018	957.063	59332.05	58439.8
849.147	959.0763	59355.7	58464.3
849.2921	961.0888	59253.55	58359.4
849.4373	963.1007	59309.3	58417.05
849.5824	965.1119	59285.65	58396.55
849.7275	967.1223	59211.95	58323.35
849.8727	969.1321	59285	58398.15
850.0178	971.1412	59179.1	58291.5
850.1629	973.1495	59129.45	58238.3
850.3081	975.1572	59157.6	58228.05
850.4532	977.1641	59093.7	58202.65
850.5983	979.1704	59048.85	58156
850.7435	981.1759	59047.5	58150.2
850.8886	983.1808	58991.3	58098.15
851.0337	985.1849	58957.75	58055.95
851.1788	987.1884	58951.6	58055.6
851.324	989.1911	58989.5	58093.55
851.4691	991.1932	58830.5	57936.65
851.6142	993.1945	58805	57913
851.7593	995.1951	58848.75	57955.85
851.9045	997.1951	58760.7	57860.95
852.0496	999.1943	58659.15	57765.75
852.1947	1001.1928	58611.8	57717.65
852.3398	1003.1906	58639.8	57746.95
852.4849	1005.1877	58508.3	57614.5
852.63	1007.1841	58437.35	57544.8
852.7751	1009.1798	58412.5	57520
852.9202	1011.1748	58412.2	57521.95
853.0653	1013.1691	58371.3	57479.5
853.2104	1015.1627	58120.75	57228.25
853.3555	1017.1556	58180.55	57289
853.5006	1019.1477	58215.15	57321.85
853.6457	1021.1392	58043.7	57152.9
853.7908	1023.1299	57893.45	57003.05
853.9359	1025.12	57927.4	57036.65
854.081	1027.1093	57827.5	56940.55
854.2261	1029.0979	57794.75	56911.65
854.3712	1031.0859	57775.4	56888.95
854.5163	1033.0731	57662.7	56771.05
854.6613	1035.0596	57656.2	56764.6
854.8064	1037.0454	57623.9	56732
854.9515	1039.0304	57544.2	56650.7
855.0965	1041.0148	57392.25	56500.2
855.2416	1042.9985	57398.2	56504.85
855.3867	1044.9814	57436.3	56547.8
855.5317	1046.9636	57306	56413.1
855.6768	1048.9452	57262.7	56373
855.8219	1050.926	57270.75	56377.55
855.9669	1052.9061	57220.9	56329.6
856.112	1054.8855	57195.15	56303.65
856.257	1056.8642	57139.35	56245.4
856.4021	1058.8421	57098.95	56200.8
856.5471	1060.8194	57050.45	56154.15
856.6921	1062.7959	56981.3	56085.45
856.8372	1064.7717	57055.15	56162.2
856.9822	1066.7469	57019.8	56124.3
857.1272	1068.7213	56952.75	56057.25
857.2723	1070.695	56918.75	56024.6
857.4173	1072.6679	56809.3	55915.6
857.5623	1074.6402	56859.75	55963.9
857.7073	1076.6117	56793.05	55893.5
857.8523	1078.5826	56785.55	55889.95
857.9973	1080.5527	56757.85	55860.4
858.1423	1082.5221	56662.75	55768.95
858.2873	1084.4908	56672.45	55779.85
858.4323	1086.4587	56610.35	55716.7
858.5773	1088.426	56567.85	55673.5
858.7223	1090.3925	56545.9	55647.2
858.8673	1092.3584	56509.95	55615.25
859.0123	1094.3235	56375.45	55481.95
859.1573	1096.2879	56335.35	55443.75
859.3022	1098.2515	56378.35	55483.45
859.4472	1100.2145	56278.95	55385.9
859.5922	1102.1767	56262.7	55366.9
859.7371	1104.1382	56319.4	55426.75
859.8821	1106.099	56224.75	55328.3
860.027	1108.0591	56183.8	55291.1
860.172	1110.0185	56020.3	55124.1
860.3169	1111.9771	56171.15	55278.75
860.4619	1113.9351	56063.9	55172.55
860.6068	1115.8923	55959.9	55067.1
860.7517	1117.8488	55831.7	54934.95
860.8967	1119.8045	55721.65	54827.6
861.0416	1121.7596	55778.9	54883.05
861.1865	1123.7139	55671.65	54774.1
861.3314	1125.6675	55660.6	54767.05
861.4763	1127.6204	55619.65	54727.05
861.6212	1129.5726	55486.85	54590.4
861.7661	1131.524	55531.6	54637.2
861.911	1133.4748	55539.95	54645.4
862.0559	1135.4248	55369.95	54472.7
862.2008	1137.3741	55373.45	54477.85
862.3457	1139.3226	55324.2	54427.75
862.4905	1141.2705	55294.05	54399
862.6354	1143.2176	55278	54376.9
862.7803	1145.164	55104.4	54208.8
862.9251	1147.1097	55150.55	54255.8
863.07	1149.0546	55131.5	54233.85
863.2148	1150.9989	55148.15	54251.35
863.3597	1152.9424	54940.65	54043.2
863.5045	1154.8852	55084.8	54189.1
863.6493	1156.8272	54934.15	54040.4
863.7942	1158.7686	55011.3	54108.15
863.939	1160.7092	54801.65	53905.35
864.0838	1162.6491	54785.25	53886.35
864.2286	1164.5883	54862	53968.65
864.3734	1166.5267	54727.6	53829.9
864.5182	1168.4644	54772.1	53877.8
864.663	1170.4014	54724.3	53825.45
864.8078	1172.3377	54764.15	53871.45
864.9526	1174.2732	54842.3	53947.9
865.0974	1176.2081	54739.75	53846.15
865.2421	1178.1421	54694.65	53794.75
865.3869	1180.0755	54816.7	53924.15
865.5317	1182.0082	54751.15	53858.25
865.6764	1183.9401	54724.8	53829.95
865.8212	1185.8713	54535.9	53644.15
865.9659	1187.8017	54524.7	53632.9
866.1106	1189.7315	54511.95	53624.4
866.2554	1191.6605	54401.9	53483.95
866.4001	1193.5888	54302.6	53410.25
866.5448	1195.5163	54146.45	53253
866.6895	1197.4432	54109.15	53213.35
866.8342	1199.3693	54091.95	53201.2
866.9789	1201.2947	53973.55	53072.85
867.1236	1203.2193	54001.95	53106.4
867.2683	1205.1432	53826.3	52934.4
867.413	1207.0664	53798.9	52903.2
867.5576	1208.9889	53754.5	52855.35
867.7023	1210.9106	53699.4	52803.3
867.847	1212.8316	53592.6	52697.65
867.9916	1214.7519	53571.95	52669.2
868.1363	1216.6715	53477.35	52582.7
868.2809	1218.5903	53500.55	52606.6
868.4255	1220.5084	53430.15	52537.5
868.5701	1222.4257	53402.75	52508.15
868.7148	1224.3424	53353.15	52460
868.8594	1226.2583	53246.85	52347.35
869.004	1228.1735	53275	52379.4
869.1486	1230.0879	53121.85	52226.8
869.2932	1232.0016	53191.35	52298.7
869.4377	1233.9146	53041.2	52144.25
869.5823	1235.8269	53063	52169.75
869.7269	1237.7384	53002.55	52106.6
869.8715	1239.6492	52887	51993.5
870.016	1241.5592	52768.95	51871.1
870.1606	1243.4686	52846.35	51952.6
870.3051	1245.3772	52657.1	51762.75
870.4496	1247.285	52763.3	51868.15
870.5941	1249.1922	52549.05	51656.45
870.7387	1251.0986	52658.1	51762.25
870.8832	1253.0042	52519.85	51623.8
871.0277	1254.9092	52573.15	51678.75
871.1722	1256.8134	52306.4	51410.05
871.3167	1258.7169	52532.6	51638.4
871.4611	1260.6196	52332.85	51438.45
871.6056	1262.5216	52335.95	51441.65
871.7501	1264.4229	52387.1	51493.2
871.8945	1266.3234	52465.8	51569.2
872.039	1268.2232	52416.55	51520.85
872.1834	1270.1223	52245.4	51349.45
872.3278	1272.0207	52176.65	51281.7
872.4723	1273.9183	52199.05	51298.75
872.6167	1275.8151	52111.05	51214.4
872.7611	1277.7113	52121	51224.9
872.9055	1279.6067	51946.65	51055.5
873.0499	1281.5014	51907.85	51012
873.1943	1283.3953	52068.85	51169.6
873.3386	1285.2885	51972.35	51077.05
873.483	1287.181	52026.7	51132.8
873.6274	1289.0727	52041.2	51146.3
873.7717	1290.9637	51700.15	50807.4
873.9161	1292.854	52111.7	51217.2
874.0604	1294.7435	51917.45	51022.35
874.2047	1296.6323	51953.3	51058.25
874.349	1298.5204	51794.95	50897.1
874.4933	1300.4077	51912.85	51016.45
874.6376	1302.2943	51655.8	50763
874.7819	1304.1802	51537.6	50643
874.9262	1306.0653	51426.65	50530.3
875.0705	1307.9497	51318	50426.3
875.2147	1309.8333	51290.9	50396.9
875.359	1311.7162	51160.8	50265.5
875.5032	1313.5984	51185.1	50287.55
875.6475	1315.4798	50895.4	49999.05
875.7917	1317.3605	50943.2	50034
875.9359	1319.2405	50946.1	50049.15
876.0801	1321.1197	50620.2	49722.95
876.2243	1322.9982	50692.65	49792.6
876.3685	1324.876	50561.85	49667.3
876.5127	1326.753	50366.1	49470.25
876.6569	1328.6293	50651.75	49755.25
876.801	1330.5048	50383.2	49486.55
876.9452	1332.3796	50177.8	49282.85
877.0893	1334.2537	50109.8	49189.85
877.2335	1336.127	50191.3	49297.1
877.3776	1337.9996	49971.05	49075.6
877.5217	1339.8714	50173.55	49279.3
877.6658	1341.7426	49693.8	48756.1
877.8099	1343.6129	49940.15	49043.3
877.954	1345.4826	49942.2	49046.9
878.0981	1347.3515	49563.5	48663.05
878.2422	1349.2196	49848.85	48954.25
878.3862	1351.087	49724.25	48828.4
878.5303	1352.9537	49704.1	48807.25
878.6743	1354.8197	49732.05	48836.65
878.8184	1356.6849	49675.7	48777.6
878.9624	1358.5493	49610.85	48716.35
879.1064	1360.4131	49407.35	48509.8
879.2504	1362.276	49712.15	48817.25
879.3944	1364.1383	49347	48452.6
879.5384	1365.9998	49079.8	48178.2
879.6823	1367.8606	49245.95	48353
879.8263	1369.7206	48939.5	48044.4
879.9702	1371.5799	48764.85	47869.55
880.1142	1373.4384	48485.3	47590.5
880.2581	1375.2962	48598.45	47701.65
880.402	1377.1533	48089.3	47193.4
880.5459	1379.0096	47880	46984.75
880.6898	1380.8652	47821.65	46929.1
880.8337	1382.7201	47579.45	46683.65
880.9776	1384.5742	47557.4	46660.45
881.1215	1386.4275	47045.35	46148.05
881.2653	1388.2802	47107.25	46210.2
881.4092	1390.132	47148.85	46251.9
881.553	1391.9832	46731.4	45835.6
881.6968	1393.8336	46502.3	45606.4
881.8406	1395.6832	46536.6	45640.75
881.9844	1397.5322	46558.7	45662.4
882.1282	1399.3803	46202.5	45300.8
882.272	1401.2278	46090.1	45194.5
882.4158	1403.0745	46009.85	45114.75
882.5595	1404.9204	45885.9	44991.85
882.7033	1406.7656	45834.45	44939.7
882.847	1408.6101	45513.2	44616.2
882.9908	1410.4538	45538.9	44647.35
883.1345	1412.2968	45550.7	44653.45
883.2782	1414.139	45215.2	44320
883.4219	1415.9805	45302.7	44407.85
883.5656	1417.8213	45059.45	44157.4
883.7092	1419.6613	45200.85	44304.65
883.8529	1421.5006	45041.15	44145.85
883.9965	1423.3391	44966.95	44071.3
884.1402	1425.1769	44917.35	44022.75
884.2838	1427.0139	45068.55	44172.05
884.4274	1428.8502	45024.3	44130.65
884.571	1430.6858	45090.2	44194.55
884.7146	1432.5206	45255.9	44362.05
884.8582	1434.3547	45044.8	44147.65
885.0018	1436.188	44933.3	44038.6
885.1453	1438.0206	45013.15	44116.05
885.2889	1439.8524	44914.4	44019.25
885.4324	1441.6835	44727.85	43831.4
885.5759	1443.5139	44691.15	43793.1
885.7194	1445.3435	44450.2	43555.45
885.8629	1447.1724	44542.5	43651.35
886.0064	1449.0005	44238.7	43344.3
886.1499	1450.8279	44379.65	43485.45
886.2933	1452.6545	44296	43403.45
886.4368	1454.4804	44228.05	43333.4
886.5802	1456.3056	44058.25	43158.45
886.7237	1458.13	44098.5	43204.55
886.8671	1459.9536	44151.5	43256.1
887.0105	1461.7766	43805.65	42912.3
887.1539	1463.5987	43528.1	42630.85
887.2972	1465.4202	43474.55	42580.65
887.4406	1467.2409	43246.45	42352.3
887.584	1469.0608	43012.7	42117.2
887.7273	1470.88	42961.3	42065.1
887.8706	1472.6984	42959.15	42064.8
888.0139	1474.5161	42513	41614.55
888.1572	1476.3331	42561.65	41666.55
888.3005	1478.1493	42360.45	41466.25
888.4438	1479.9648	42263.9	41370.9
888.5871	1481.7795	42289.85	41395.55
888.7303	1483.5935	42289.1	41395.95
888.8736	1485.4067	41978.25	41083.95
889.0168	1487.2192	42044.3	41148.7
889.16	1489.031	41849.15	40950.3
889.3032	1490.842	41883.85	40990.25
889.4464	1492.6522	41878.8	40983.7
889.5896	1494.4618	41655.8	40759.95
889.7327	1496.2705	41706.4	40811.75
889.8759	1498.0785	41388.4	40492.35
890.019	1499.8858	41459.95	40565.55
890.1622	1501.6924	41467.95	40573.4
890.3053	1503.4981	41267.5	40374.9
890.4484	1505.3032	41253.35	40359.75
890.5914	1507.1075	41029.45	40134.4
890.7345	1508.911	41035.15	40141.35
890.8776	1510.7138	40970.15	40074.7
891.0206	1512.5159	40907.9	40014.4
891.1637	1514.3172	40554.1	39659.15
891.3067	1516.1178	40543.9	39651.75
891.4497	1517.9176	40601.4	39704.3
891.5927	1519.7166	40395.95	39501.8
891.7357	1521.515	40273.55	39375.5
891.8786	1523.3126	40198.4	39304.8
892.0216	1525.1094	40202.7	39308.05
892.1645	1526.9055	40004.85	39112.5
892.3074	1528.7008	39963.65	39071.75
892.4503	1530.4954	39635.5	38740.45
892.5932	1532.2893	39704.05	38811.2
892.7361	1534.0824	39431.8	38532.7
892.879	1535.8747	39378.65	38488.45
893.0218	1537.6663	39470.05	38577.7
893.1647	1539.4572	39032.95	38140.5
893.3075	1541.2473	39139.2	38248.2
893.4503	1543.0367	39015.1	38126.55
893.5931	1544.8253	38870.55	37973.9
893.7359	1546.6132	38913.7	38018.65
893.8787	1548.4003	38688.65	37787.05
894.0214	1550.1867	38661.05	37760.6
894.1642	1551.9723	38569.05	37673.65
894.3069	1553.7572	38520.45	37627.8
894.4496	1555.5414	38506.65	37615.25
894.5923	1557.3247	38351.55	37460.75
894.735	1559.1074	38403.4	37513.7
894.8777	1560.8893	38302.25	37413.65
895.0204	1562.6705	38280.15	37388.7
895.163	1564.4509	38166	37276.3
895.3056	1566.2305	38104.05	37216.45
895.4482	1568.0094	38199.95	37311.5
895.5908	1569.7876	38098.8	37209.45
895.7334	1571.565	37963.15	37072.35
895.876	1573.3417	37932.15	37041.5
896.0186	1575.1176	37816.55	36927.25
896.1611	1576.8928	37741.5	36852.65
896.3036	1578.6672	37604.6	36718.35
896.4461	1580.4409	37510.3	36623.15
896.5886	1582.2138	37360.35	36468.9
896.7311	1583.986	37318.9	36429
896.8736	1585.7575	37255.25	36367.6
897.0161	1587.5282	37176.05	36290.85
897.1585	1589.2981	37196.9	36311.25
897.3009	1591.0673	37038.6	36151.25
897.4433	1592.8358	37053	36164.55
897.5857	1594.6035	37078.8	36187.85
897.7281	1596.3704	36954	36066.9
897.8705	1598.1366	36817.9	35930.8
898.0128	1599.9021	36704.3	35817.95
898.1551	1601.6668	36649.6	35761.25
898.2975	1603.4308	36628.6	35738.55
898.4398	1605.194	36644	35752.15
898.5821	1606.9564	36509.4	35622.35
898.7243	1608.7182	36551.1	35663.7
898.8666	1610.4791	36537.45	35653.3
899.0088	1612.2394	36543.35	35659.1
899.1511	1613.9988	36489.5	35605.3
899.2933	1615.7576	36550.4	35665.7
899.4355	1617.5156	36632.8	35737.6
899.5776	1619.2728	36687.9	35801.65
899.7198	1621.0293	36458.45	35573.25
899.862	1622.785	36350.45	35459.4
900.0041	1624.54	36127.15	35238.45
900.1462	1626.2942	35948.1	35060.45
900.2883	1628.0477	35602.3	34715.05
900.4304	1629.8005	35387.65	34497.8
900.5725	1631.5525	35308.4	34424.55
900.7145	1633.3037	35050.55	34167.2
900.8566	1635.0542	34953.75	34066.3
900.9986	1636.804	34865.55	33981
901.1406	1638.553	34725.15	33793.05
901.2826	1640.3013	34544.85	33657.7
901.4245	1642.0488	34465.25	33578.6
901.5665	1643.7955	34450.15	33563.5
901.7085	1645.5416	34306.55	33422.4
901.8504	1647.2868	34282.15	33395.5
901.9923	1649.0313	34236.2	33346.85
902.1342	1650.7751	34183.15	33294.85
902.2761	1652.5181	34143.4	33258.8
902.4179	1654.2604	34129.9	33244.1
902.5598	1656.0019	34136.4	33253.2
902.7016	1657.7427	34145.9	33259.6
902.8434	1659.4828	34218.85	33332.55
902.9852	1661.222	34157.35	33271.3
903.127	1662.9606	34084.5	33200.1
903.2687	1664.6984	33927.05	33038.75
903.4105	1666.4354	33788.45	32900.85
903.5522	1668.1717	33409.8	32522.2
903.6939	1669.9072	33087.15	32199.4
903.8356	1671.642	32911.1	32021.9
903.9773	1673.3761	32725.75	31840.65
904.119	1675.1094	32511.9	31625.8
904.2606	1676.8419	32312.75	31426.7
904.4022	1678.5737	32144.15	31257.1
904.5439	1680.3048	32000.6	31111.95
904.6855	1682.0351	31802.85	30918.8
904.827	1683.7646	31647.25	30757.05
904.9686	1685.4934	31566.1	30683.55
905.1101	1687.2215	31413.05	30525.85
905.2517	1688.9488	31314.55	30427
905.3932	1690.6754	31093.7	30210.3
905.5347	1692.4012	31102.7	30213.75
905.6761	1694.1263	30987.4	30102.25
905.8176	1695.8506	30866.75	29980.95
905.9591	1697.5742	30751.95	29867.45
906.1005	1699.297	30607.35	29723.75
906.2419	1701.0191	30461.15	29578.55
906.3833	1702.7404	30356.65	29472.2
906.5246	1704.461	30211.95	29328.6
906.666	1706.1808	30143.6	29256.9
906.8073	1707.8999	30050.6	29165.8
906.9487	1709.6182	29916.75	29029.65
907.09	1711.3358	29866.55	28983.6
907.2313	1713.0527	29733.8	28851.35
907.3725	1714.7688	29646.25	28755.8
907.5138	1716.4841	29522.25	28636.4
907.655	1718.1987	29515.15	28627.65
907.7962	1719.9126	29427.7	28545.95
907.9374	1721.6257	29305.2	28419.95
908.0786	1723.338	29283.9	28399.55
908.2198	1725.0496	29087.35	28203.15
908.3609	1726.7605	29035.35	28150.95
908.502	1728.4706	28996.35	28111.3
908.6431	1730.18	28801.85	27915.55
908.7842	1731.8886	28730.45	27846.8
908.9253	1733.5964	28713.95	27823.7
909.0664	1735.3036	28610.35	27724.15
909.2074	1737.0099	28567.1	27683.75
909.3484	1738.7156	28533.05	27649.4
909.4894	1740.4204	28359.55	27470.7
909.6304	1742.1246	28301.25	27416.1
909.7714	1743.8279	28291.6	27407.8
909.9123	1745.5306	28226.65	27342.8
910.0532	1747.2325	28100.05	27217.2
910.1941	1748.9336	28028.55	27143.25
910.335	1750.634	27950.6	27065.2
910.4759	1752.3336	27871.15	26987
910.6168	1754.0325	27834.9	26955
910.7576	1755.7307	27764	26882.2
910.8984	1757.4281	27744	26859.95
911.0392	1759.1247	27695	26801.95
911.18	1760.8206	27607.15	26717.1
911.3208	1762.5158	27582.75	26693.5
911.4615	1764.2102	27432.95	26548.45
911.6022	1765.9039	27340.25	26457.55
911.7429	1767.5968	27275.9	26394.55
911.8836	1769.289	27197.7	26315.3
912.0243	1770.9804	27149	26264.5
912.1649	1772.6711	27104.8	26220.75
912.3056	1774.361	27046.2	26159.7
912.4462	1776.0502	27039.85	26155.5
912.5868	1777.7386	26972.45	26084.3
912.7274	1779.4263	26848.6	25965.4
912.8679	1781.1132	26848.6	25965.95
913.0084	1782.7994	26763.9	25879.1
913.149	1784.4849	26663.05	25782.7
913.2895	1786.1696	26602.15	25699.5
913.4299	1787.8535	26544.15	25663.15
913.5704	1789.5367	26496.5	25614.85
913.7108	1791.2192	26441.35	25560.1
913.8513	1792.9009	26341.85	25428.2
913.9917	1794.5818	26301.8	25419.4
914.132	1796.2621	26227.85	25345.9
914.2724	1797.9415	26163.05	25279.85
914.4128	1799.6202	26055.05	25170.5
914.5531	1801.2982	26061.8	25178.6
914.6934	1802.9755	25984	25099.75
914.8337	1804.6519	25945.8	25060
914.9739	1806.3277	25803.85	24921.2
915.1142	1808.0027	25743.8	24861.75
915.2544	1809.6769	25725.95	24843.7
915.3946	1811.3504	25654.2	24771.2
915.5348	1813.0231	25553.35	24669.8
915.675	1814.6951	25547.8	24665.75
915.8151	1816.3664	25545.7	24660.1
915.9553	1818.0369	25473.95	24591.65
916.0954	1819.7067	25358.55	24476.7
916.2355	1821.3757	25341.7	24455.5
916.3755	1823.044	25265.15	24380.7
916.5156	1824.7115	25217.25	24330.85
916.6556	1826.3783	25128.65	24246.45
916.7956	1828.0443	25028.95	24146.35
916.9356	1829.7096	24975.95	24091.6
917.0756	1831.3741	24977.85	24091.35
917.2155	1833.0379	24916.8	24034.6
917.3555	1834.701	24791	23905.4
917.4954	1836.3633	24771.05	23887.85
917.6353	1838.0248	24742.65	23858.95
917.7751	1839.6856	24692.5	23808.45
917.915	1841.3457	24649.2	23767.7
918.0548	1843.005	24606.05	23722.55
918.1946	1844.6636	24578.45	23696.65
918.3344	1846.3214	24459.55	23575.95
918.4742	1847.9785	24434	23551.15
918.6139	1849.6349	24376.75	23490.55
918.7537	1851.2904	24412.15	23519.9
918.8934	1852.9453	24282.7	23399.25
919.0331	1854.5994	24178.4	23292.95
919.1727	1856.2528	24185	23296.6
919.3124	1857.9054	24122.75	23239.9
919.452	1859.5572	24104.8	23220.55
919.5916	1861.2083	24076.65	23193.4
919.7312	1862.8587	24070.7	23187.8
919.8708	1864.5084	23998.85	23117.7
920.0103	1866.1572	23920.2	23035.5
920.1498	1867.8054	23779.9	22893.95
920.2893	1869.4528	23790.5	22905.75
920.4288	1871.0994	23692.45	22809.05
920.5683	1872.7453	23700.8	22815.65
920.7077	1874.3905	23607.15	22717.5
920.8471	1876.0349	23558.2	22674.65
920.9865	1877.6786	23496.85	22612.4
921.1259	1879.3215	23502.3	22617.35
921.2653	1880.9637	23444.8	22560.1
921.4046	1882.6051	23364.05	22481.85
921.5439	1884.2458	23325.1	22439.95
921.6832	1885.8858	23225.45	22342.9
921.8225	1887.525	23212.1	22329.7
921.9617	1889.1634	23081.65	22196.85
922.101	1890.8011	22999.2	22116.8
922.2402	1892.4381	22984.45	22099.65
922.3794	1894.0743	22981.5	22099.95
922.5185	1895.7098	22909.25	22026.3
922.6577	1897.3446	22848.35	21964.5
922.7968	1898.9786	22783.7	21896.65
922.9359	1900.6118	22728.05	21844.45
923.075	1902.2443	22632.95	21748.5
923.214	1903.8761	22572.2	21689.6
923.3531	1905.5071	22467.95	21583.95
923.4921	1907.1374	22386.75	21502.35
923.6311	1908.7669	22389.2	21507.5
923.77	1910.3957	22339.95	21457.7
923.909	1912.0237	22235.95	21353
924.0479	1913.651	22158.8	21275.7
924.1868	1915.2776	22105.35	21223.85
924.3257	1916.9034	22019.7	21138.15
924.4646	1918.5285	21902.75	21023.1
924.6034	1920.1528	21820.35	20937.25
924.7422	1921.7764	21818.4	20934.65
924.881	1923.3992	21761.1	20878.8
925.0198	1925.0213	21614.6	20731.2
925.1586	1926.6427	21514	20631.65
925.2973	1928.2633	21613.3	20525.05
925.436	1929.8832	21430.5	20543.55
925.5747	1931.5023	21315.2	20433.35
925.7134	1933.1207	21277.55	20393.6
925.852	1934.7383	21245.85	20363.05
925.9906	1936.3552	21144.5	20262.95
926.1292	1937.9714	21058.2	20173.9
926.2678	1939.5868	21086.15	20203.6
926.4064	1941.2015	20946.9	20063.65
926.5449	1942.8154	20840.5	19956.6
926.6834	1944.4286	20779.9	19897.35
926.8219	1946.041	20684.25	19776.55
926.9604	1947.6528	20606.7	19719.05
927.0988	1949.2637	20540.1	19657.4
927.2372	1950.8739	20515.55	19631.2
927.3756	1952.4834	20454.2	19570.4
927.514	1954.0921	20414.55	19529.65
927.6523	1955.7001	20327.6	19440.8
927.7907	1957.3074	20280.85	19399.6
927.929	1958.9139	20176.55	19293.15
928.0673	1960.5197	20168.5	19283.65
928.2055	1962.1247	20045.5	19164.65
928.3438	1963.729	19956.2	19075.65
928.482	1965.3325	19855.25	18949.65
928.6202	1966.9353	19822	18939.25
928.7584	1968.5374	19812.15	18930.6
928.8965	1970.1387	19745.95	18863.35
929.0346	1971.7393	19660.05	18777.6
929.1727	1973.3392	19580.25	18698.4
929.3108	1974.9383	19510.65	18629.5
929.4489	1976.5366	19420	18538.8
929.5869	1978.1342	19405.45	18523.85
929.7249	1979.7311	19366.3	18483.3
929.8629	1981.3273	19278.45	18396.95
930.0009	1982.9227	19233.6	18349.4
930.1388	1984.5173	19189.6	18308.3
930.2767	1986.1112	19075.25	18193.9
930.4146	1987.7044	19050.25	18169.95
930.5525	1989.2968	18983.4	18101.7
930.6904	1990.8885	18973.95	18087.6
930.8282	1992.4795	18904.55	18023.2
930.966	1994.0697	18854.2	17974.5
931.1038	1995.6592	18797.4	17917.15
931.2415	1997.2479	18714.6	17834.8
931.3793	1998.8359	18685.4	17802.9
931.517	2000.4232	18595.5	17717.45
931.6547	2002.0097	18541.15	17660.85
931.7923	2003.5955	18462.25	17582.45
931.93	2005.1805	18468.55	17586.25
932.0676	2006.7648	18371.5	17491.45
932.2052	2008.3484	18344.4	17463.9
932.3427	2009.9312	18332.3	17449.95
932.4803	2011.5133	18257.75	17378.1
932.6178	2013.0946	18194.65	17314.7
932.7553	2014.6752	18149.8	17270.85
932.8928	2016.2551	18082.4	17201.5
933.0302	2017.8342	18022.95	17142.65
933.1676	2019.4126	17984.9	17103.95
933.305	2020.9902	17882.8	17005.45
933.4424	2022.5672	17849.45	16968.75
933.5798	2024.1433	17840.3	16956.4
933.7171	2025.7188	17800.7	16923.5
933.8544	2027.2935	17725.6	16845.95
933.9917	2028.8674	17627.5	16749.5
934.129	2030.4406	17596.2	16717.8
934.2662	2032.0131	17520.4	16640.2
934.4034	2033.5849	17444.8	16558.85
934.5406	2035.1559	17422.45	16541.95
934.6778	2036.7261	17384.7	16504.85
934.8149	2038.2957	17336.95	16457.2
934.952	2039.8645	17332.95	16451.45
935.0891	2041.4325	17322.4	16440.55
935.2262	2042.9998	17234.5	16356.1
935.3632	2044.5664	17202.15	16321.3
935.5002	2046.1323	17141	16261
935.6372	2047.6974	17094.25	16213.8
935.7742	2049.2617	17056.9	16176.85
935.9111	2050.8254	17035.5	16149.8
936.048	2052.3883	16999.8	16120.95
936.1849	2053.9504	16906.2	16025.5
936.3218	2055.5118	16901.05	16019.3
936.4586	2057.0725	16783.75	15899.15
936.5955	2058.6325	16754.15	15874.75
936.7323	2060.1917	16690.5	15814.05
936.869	2061.7502	16695.9	15811
937.0058	2063.3079	16612.35	15730.9
937.1425	2064.8649	16532.1	15647.25
937.2792	2066.4212	16549.75	15668.6
937.4159	2067.9767	16495.3	15617.2
937.5525	2069.5315	16408.55	15528.5
937.6891	2071.0856	16359.25	15479.3
937.8257	2072.6389	16279.05	15400.3
937.9623	2074.1915	16210.8	15333.65
938.0989	2075.7433	16138.85	15258.05
938.2354	2077.2945	16094.2	15216.1
938.3719	2078.8448	16035.95	15157.1
938.5084	2080.3945	16002.1	15120.15
938.6448	2081.9434	15978.15	15098.95
938.7812	2083.4916	15938.35	15057.45
938.9176	2085.039	15853.15	14970.5
939.054	2086.5857	15819.5	14936.65
939.1903	2088.1317	15810.55	14929
939.3267	2089.677	15766.15	14885.1
939.463	2091.2215	15716.35	14833.2
939.5992	2092.7652	15674.7	14791
939.7355	2094.3083	15658.2	14775.55
939.8717	2095.8506	15634.7	14753.75
940.0079	2097.3921	15589.1	14709.5
940.1441	2098.933	15510.7	14630.85
940.2802	2100.4731	15503.1	14622.35
940.4163	2102.0124	15497.8	14598.8
940.5524	2103.5511	15444.6	14564.85
940.6885	2105.089	15413.85	14533.2
940.8245	2106.6261	15374	14492
940.9606	2108.1626	15305.3	14424.5
941.0965	2109.6983	15313.3	14404.65
941.2325	2111.2332	15276.05	14392.85
941.3684	2112.7675	15214.4	14333.25
941.5044	2114.301	15158.35	14274.3
941.6403	2115.8337	15125.1	14241.3
941.7761	2117.3657	15097.25	14215.75
941.912	2118.897	15051.45	14169.2
942.0478	2120.4276	14994.95	14108.35
942.1835	2121.9575	14936	14054.7
942.3193	2123.4866	14939.55	14042.75
942.455	2125.0149	14872.15	13989.6
942.5907	2126.5426	14780.2	13901.75
942.7264	2128.0695	14792.5	13909.4
942.8621	2129.5956	14769.85	13890.25
942.9977	2131.1211	14734.6	13851.65
943.1333	2132.6458	14683.3	13803.5
943.2689	2134.1698	14676.5	13795.35
943.4044	2135.693	14633.45	13750.05
943.54	2137.2155	14607.35	13724.6
943.6755	2138.7373	14555.45	13673.5
943.8109	2140.2584	14518.3	13638.3
943.9464	2141.7787	14474.45	13590.1
944.0818	2143.2983	14362.5	13482.75
944.2172	2144.8171	14286.1	13408.55
944.3526	2146.3353	14269.7	13388.8
944.4879	2147.8527	14211.7	13331.55
944.6232	2149.3693	14240.6	13358.25
944.7585	2150.8853	14180.65	13296.75
944.8938	2152.4005	14102.65	13221.8
945.029	2153.9149	14084	13202.6
945.1642	2155.4287	14042.75	13163.4
945.2994	2156.9417	14018.15	13136.9
945.4346	2158.454	13961.85	13078.95
945.5697	2159.9655	13910.2	13030.7
945.7048	2161.4764	13914.4	13033.8
945.8399	2162.9865	13849.05	12968.45
945.9749	2164.4958	13833.6	12951.85
946.1099	2166.0045	13775.65	12892.5
946.2449	2167.5124	13781.45	12899.8
946.3799	2169.0195	13717.75	12836.4
946.5148	2170.526	13673.7	12790.8
946.6498	2172.0317	13630.9	12750.8
946.7846	2173.5367	13600	12717.7
946.9195	2175.0409	13561	12679.2
947.0543	2176.5445	13556.35	12674.35
947.1891	2178.0473	13490.7	12610.4
947.3239	2179.5494	13418.05	12532.5
947.4587	2181.0507	13403.2	12521.5
947.5934	2182.5513	13365.55	12482.6
947.7281	2184.0512	13313.55	12432.55
947.8628	2185.5504	13293.05	12412.1
947.9974	2187.0488	13193	12314.55
948.132	2188.5465	13189.6	12309.85
948.2666	2190.0435	13128.65	12247.1
948.4012	2191.5397	13088.15	12207.85
948.5357	2193.0353	13070.2	12189.75
948.6702	2194.5301	13012.8	12128.9
948.8047	2196.0241	12939.9	12057.2
948.9392	2197.5175	12919.6	12037.1
949.0736	2199.0101	12877.9	11990.55
949.208	2200.502	12817.2	11936.85
949.3424	2201.9931	12759.8	11881
949.4767	2203.4835	12731.9	11852.8
949.611	2204.9733	12711.75	11827.7
949.7453	2206.4622	12660.3	11783.15
949.8796	2207.9505	12623.55	11739.3
950.0138	2209.438	12567.6	11689.5
950.148	2210.9248	12525.35	11642.75
950.2822	2212.4109	12483.3	11604
950.4164	2213.8962	12462.05	11578.75
950.5505	2215.3809	12434.55	11550.45
950.6846	2216.8648	12405	11521.7
950.8186	2218.3479	12379.9	11491.15
950.9527	2219.8304	12326.95	11441.55
951.0867	2221.3121	12240.9	11356.75
951.2207	2222.7931	12205.1	11324.8
951.3546	2224.2733	12176.3	11293.6
951.4886	2225.7529	12146.55	11264.55
951.6225	2227.2317	12108.85	11227.55
951.7563	2228.7098	12079.65	11199.25
951.8902	2230.1872	12013.7	11130.35
952.024	2231.6638	12011.45	11131.7
952.1578	2233.1397	11959.65	11073.4
952.2916	2234.6149	11934.3	11056.8
952.4253	2236.0894	11871.8	10989.65
952.559	2237.5632	11885.15	10994.05
952.6927	2239.0362	11825.3	10943.3
952.8263	2240.5085	11773.75	10893.65
952.9599	2241.9801	11727.55	10844.2
953.0935	2243.4509	11688.25	10805.5
953.2271	2244.921	11639.65	10758.25
953.3606	2246.3904	11596.4	10712.55
953.4941	2247.8591	11576.55	10697.05
953.6276	2249.3271	11560.4	10678
953.7611	2250.7943	11524.3	10644.3
953.8945	2252.2608	11471.85	10590.8
954.0279	2253.7266	11422	10541.1
954.1612	2255.1917	11413.65	10532.8
954.2946	2256.656	11363.3	10483.15
954.4279	2258.1197	11336.95	10455.65
954.5612	2259.5826	11318.8	10434
954.6944	2261.0447	11297.2	10413.7
954.8276	2262.5062	11231.35	10348.7
954.9608	2263.9669	11213.3	10330.9
955.094	2265.4269	11203.55	10323.95
955.2271	2266.8862	11146.7	10265.8
955.3602	2268.3448	11126.15	10244.2
955.4933	2269.8026	11138.9	10258
955.6264	2271.2598	11102.5	10221
955.7594	2272.7162	11046.35	10164.8
955.8924	2274.1719	11010.15	10127.2
956.0253	2275.6268	10964.65	10084.15
956.1583	2277.0811	10938.4	10055.35
956.2912	2278.5346	10921.8	10040.15
956.4241	2279.9874	10924.7	10043.9
956.5569	2281.4395	10884.65	10005.95
956.6897	2282.8908	10815.95	9929.15
956.8225	2284.3414	10796.75	9914.1
956.9553	2285.7914	10781.65	9902
957.088	2287.2406	10732	9847.65
957.2207	2288.689	10738	9856.5
957.3534	2290.1368	10665.6	9781.1
957.486	2291.5838	10653.7	9770.1
957.6186	2293.0302	10617.2	9733.15
957.7512	2294.4758	10580.75	9700.05
957.8838	2295.9206	10544.7	9661.1
958.0163	2297.3648	10491.7	9611.35
958.1488	2298.8082	10499.9	9616
958.2813	2300.251	10451.85	9570.65
958.4137	2301.693	10400.4	9516.7
958.5461	2303.1343	10411.6	9529.05
958.6785	2304.5748	10373.05	9491.7
958.8108	2306.0147	10345.95	9463.25
958.9432	2307.4538	10302.35	9419.4
959.0754	2308.8922	10294.7	9414.35
959.2077	2310.3299	10264.4	9383.75
959.3399	2311.7669	10222.7	9340.45
959.4721	2313.2031	10166.25	9285.25
959.6043	2314.6387	10143.25	9262.95
959.7365	2316.0735	10111.5	9228.45
959.8686	2317.5076	10111.55	9231.4
960.0006	2318.941	10077.4	9196.7
960.1327	2320.3737	10048.45	9165.15
960.2647	2321.8056	10010.95	9126.75
960.3967	2323.2369	10007.2	9123.05
960.5287	2324.6674	9991.15	9105.45
960.6606	2326.0972	9925.95	9042.7
960.7925	2327.5263	9889.8	9010.45
960.9244	2328.9547	9853.95	8972.3
961.0562	2330.3823	9810.3	8928.35
961.1881	2331.8092	9820.05	8935.9
961.3198	2333.2355	9742.15	8860.05
961.4516	2334.661	9767.95	8883.75
961.5833	2336.0858	9737.15	8852.55
961.715	2337.5098	9694.6	8812.45
961.8467	2338.9332	9696.55	8814.2
961.9783	2340.3558	9659.2	8774.9
962.1099	2341.7778	9619.8	8738.35
962.2415	2343.199	9586.15	8702.55
962.373	2344.6195	9578.7	8696.7
962.5045	2346.0393	9534.65	8653.95
962.636	2347.4583	9523.15	8640.15
962.7675	2348.8767	9478.05	8594.15
962.8989	2350.2943	9479.2	8596.25
963.0303	2351.7113	9450.35	8565.05
963.1617	2353.1275	9393.9	8512.85
963.293	2354.543	9378.25	8485.7
963.4243	2355.9578	9347.55	8463.85
963.5556	2357.3718	9273.9	8392.45
963.6868	2358.7852	9261.45	8377
963.818	2360.1978	9221.45	8340
963.9492	2361.6098	9198.1	8317.35
964.0803	2363.021	9169.4	8280.75
964.2114	2364.4315	9165.1	8283.95
964.3425	2365.8413	9145.75	8261
964.4736	2367.2504	9119.2	8240
964.6046	2368.6587	9042.5	8163
964.7356	2370.0664	9028.35	8147.1
964.8666	2371.4733	8997.65	8115.05
964.9975	2372.8795	8982.5	8101.95
965.1284	2374.285	8940.35	8059.4
965.2593	2375.6899	8894.45	8012.15
965.3901	2377.0939	8860.45	7978.8
965.5209	2378.4973	8818.45	7939.95
965.6517	2379.9	8791.3	7910.1
965.7825	2381.3019	8776.1	7894.65
965.9132	2382.7032	8753.15	7875.7
966.0439	2384.1037	8741.9	7860.3
966.1745	2385.5035	8712.95	7831.65
966.3051	2386.9027	8697.8	7817.9
966.4357	2388.3011	8660.9	7775.45
966.5663	2389.6987	8635.5	7752.5
966.6968	2391.0957	8587.3	7706.65
966.8273	2392.492	8549.25	7668.9
966.9578	2393.8876	8522.1	7638.6
967.0882	2395.2824	8489.8	7607.35
967.2186	2396.6765	8470.75	7591.35
967.349	2398.07	8431.4	7548.25
967.4793	2399.4627	8418.4	7534.45
967.6097	2400.8547	8389.4	7509.15
967.7399	2402.246	8364.25	7475.75
967.8702	2403.6366	8320.15	7437.9
968.0004	2405.0265	8264.7	7383.75
968.1306	2406.4156	8258.1	7373.2
968.2607	2407.8041	8235.75	7348.5
968.3909	2409.1918	8192.15	7310.65
968.521	2410.5789	8164.15	7281.45
968.651	2411.9652	8128	7243.2
968.781	2413.3508	8116	7234.7
968.911	2414.7358	8074.4	7191.6
969.041	2416.12	8063.55	7183.9
969.1709	2417.5035	8045	7163.35
969.3008	2418.8863	7988.2	7107.5
969.4307	2420.2684	7990.15	7106.55
969.5606	2421.6497	7950.6	7068.2
969.6904	2423.0304	7896.7	7014.75
969.8201	2424.4104	7880.3	6999.45
969.9499	2425.7896	7851.65	6967.1
970.0796	2427.1682	7814.1	6934.6
970.2093	2428.546	7820.6	6936.6
970.3389	2429.9232	7816.1	6934.05
970.4685	2431.2996	7783.35	6901.95
970.5981	2432.6753	7758.9	6878.65
970.7277	2434.0503	7757.8	6875.25
970.8572	2435.4246	7702.7	6821.15
970.9867	2436.7982	7678.45	6795.5
971.1161	2438.1711	7640.25	6758.8
971.2456	2439.5433	7609.55	6727.25
971.375	2440.9148	7608.75	6724.8
971.5043	2442.2856	7560.75	6681.35
971.6336	2443.6557	7553.5	6670.5
971.7629	2445.025	7539.5	6659.8
971.8922	2446.3937	7531.65	6648.45
972.0214	2447.7617	7501.7	6619.25
972.1506	2449.1289	7475.15	6591.6
972.2798	2450.4955	7467.4	6580.75
972.4089	2451.8613	7429.55	6550.7
972.538	2453.2265	7421.2	6540.1
972.6671	2454.5909	7370.85	6486.65
972.7961	2455.9546	7393.9	6513.2
972.9251	2457.3177	7347.75	6468.75
973.0541	2458.68	7293.9	6411.05
973.1831	2460.0416	7308.1	6425.4
973.312	2461.4025	7297	6416.45
973.4408	2462.7627	7279.65	6385.6
973.5697	2464.1222	7255.05	6375.05
973.6985	2465.4811	7220.55	6337.85
973.8273	2466.8392	7209.15	6326.55
973.956	2468.1966	7195.25	6311.55
974.0847	2469.5533	7194.6	6310.65
974.2134	2470.9093	7165.7	6284.15
974.3421	2472.2645	7136.9	6254.6
974.4707	2473.6191	7112.55	6233
974.5993	2474.973	7074.8	6192.45
974.7278	2476.3262	7083.95	6201.25
974.8563	2477.6787	7048.8	6168.65
974.9848	2479.0305	7004.7	6122.6
975.1132	2480.3816	7007.75	6123.95
975.2417	2481.7319	6968	6088.2
975.37	2483.0816	6936.5	6054.55
975.4984	2484.4306	6899.65	6016.25
975.6267	2485.7789	6882.4	6003.75
975.755	2487.1264	6843.15	5958.95
975.8833	2488.4733	6828.6	5950
976.0115	2489.8195	6824.65	5937.95
976.1397	2491.165	6777.85	5894.7
976.2678	2492.5097	6751.45	5868.35
976.3959	2493.8538	6748	5865.6
976.524	2495.1972	6714.05	5833.25
976.6521	2496.5398	6697.1	5813.7
976.7801	2497.8818	6686.15	5802.6
976.9081	2499.2231	6641.45	5761.3
977.036	2500.5637	6629.45	5747.4
977.164	2501.9035	6631.6	5748.55
977.2918	2503.2427	6618.9	5733.85
977.4197	2504.5812	6584.85	5703.1
977.5475	2505.919	6554.4	5670.1
977.6753	2507.256	6532.55	5651.4
977.8031	2508.5924	6518.15	5637.1
977.9308	2509.9281	6494.7	5607.55
978.0585	2511.2631	6475.5	5594.1
978.1861	2512.5974	6472	5589.5
978.3137	2513.9309	6441.15	5559.75
978.4413	2515.2638	6435.2	5524.35
978.5689	2516.596	6423.35	5542
978.6964	2517.9275	6375.4	5492.05
978.8239	2519.2583	6336.3	5455.35
978.9513	2520.5884	6325.45	5442.5
979.0788	2521.9178	6296.35	5415.75
979.2062	2523.2465	6294.5	5414
979.3335	2524.5745	6256.45	5376.35
979.4608	2525.9018	6226.5	5345.15
979.5881	2527.2284	6224.45	5342.7
979.7154	2528.5543	6196.2	5315.5
979.8426	2529.8796	6190.15	5308.35
979.9698	2531.2041	6183.9	5302.25
980.0969	2532.5279	6147.35	5267.75
980.224	2533.851	6158.95	5277.35
980.3511	2535.1735	6141.4	5261
980.4781	2536.4952	6109.8	5229.15
980.6052	2537.8163	6109.15	5226.15
980.7321	2539.1366	6084.8	5204.8
980.8591	2540.4562	6062.65	5180.55
980.986	2541.7752	6061.85	5180.15
981.1129	2543.0935	6054.45	5173.8
981.2397	2544.411	6031.6	5148.95
981.3665	2545.7279	6011.05	5129
981.4933	2547.0441	6034.3	5150.85
981.62	2548.3596	6011.9	5126.95
981.7467	2549.6744	5977.85	5095.5
981.8734	2550.9885	5985.65	5096.6
982.0001	2552.3019	5958.6	5078.8
982.1267	2553.6146	5942.4	5059.1
982.2532	2554.9266	5921.4	5038.95
982.3798	2556.2379	5895.8	5014.3
982.5063	2557.5485	5888.25	5006.45
982.6327	2558.8585	5858.35	4970.35
982.7592	2560.1677	5864.4	4978.85
982.8856	2561.4762	5866.3	4983.8
983.0119	2562.7841	5852.35	4968.5
983.1383	2564.0913	5832.65	4953.45
983.2646	2565.3977	5816.55	4936.55
983.3908	2566.7035	5790.6	4908.9
983.517	2568.0086	5800.3	4917.7
983.6432	2569.313	5790.25	4906.25
983.7694	2570.6167	5778.5	4894.35
983.8955	2571.9197	5771.8	4889.5
984.0216	2573.222	5740.95	4856.7
984.1476	2574.5236	5735.65	4852.35
984.2737	2575.8246	5727.6	4843.9
984.3996	2577.1248	5722.8	4839.9
984.5256	2578.4244	5724.8	4842.65
984.6515	2579.7232	5705.05	4821.55
984.7774	2581.0214	5710.95	4804.75
984.9032	2582.3189	5682	4802.85
985.029	2583.6157	5660	4772.6
985.1548	2584.9118	5645.25	4763.3
985.2806	2586.2072	5617.3	4737
985.4063	2587.5019	5613.65	4730.5
985.5319	2588.7959	5592.8	4712.7
985.6576	2590.0893	5584.3	4702.1
985.7832	2591.3819	5554.6	4674.2
985.9087	2592.6739	5550.2	4668.6
986.0343	2593.9652	5532.5	4648.85
986.1597	2595.2557	5506.85	4626.45
986.2852	2596.5456	5494.3	4609.45
986.4106	2597.8348	5486.5	4605.25
986.536	2599.1234	5462.45	4581.45
986.6614	2600.4112	5428.5	4547.2
986.7867	2601.6983	5413.5	4528
986.912	2602.9848	5412.6	4533.3
987.0372	2604.2705	5398.6	4511.3
987.1624	2605.5556	5374.2	4493.85
987.2876	2606.84	5355.15	4474.9
987.4128	2608.1237	5331.7	4447.95
987.5379	2609.4067	5303.35	4419.15
987.6629	2610.689	5289.95	4399.25
987.788	2611.9707	5269.55	4383.95
987.913	2613.2516	5265.05	4378.25
988.0379	2614.5319	5228.15	4347.05
988.1629	2615.8115	5220.55	4339.45
988.2878	2617.0903	5201.2	4317.25
988.4126	2618.3685	5184.4	4304.8
988.5375	2619.6461	5153.85	4272.6
988.6622	2620.9229	5148.45	4267.9
988.787	2622.199	5150.65	4267.85
988.9117	2623.4745	5126	4244
989.0364	2624.7493	5103.55	4223.85
989.161	2626.0234	5098.35	4218.8
989.2857	2627.2968	5075.75	4192.6
989.4102	2628.5695	5059	4177.1
989.5348	2629.8415	5039.55	4156.95
989.6593	2631.1128	5005.9	4123.55
989.7837	2632.3835	5013.7	4135.15
989.9082	2633.6535	4985.85	4105.25
990.0326	2634.9228	4950.85	4069.95
990.1569	2636.1914	4947.75	4067.8
990.2812	2637.4593	4946.5	4058.75
990.4055	2638.7265	4917.6	4035.85
990.5298	2639.9931	4918.65	4034.5
990.654	2641.259	4908.4	4028.4
990.7782	2642.5242	4878.45	3995.35
990.9023	2643.7887	4878.55	3997.3
991.0264	2645.0525	4862.25	3981.85
991.1505	2646.3156	4825.5	3944.1
991.2745	2647.5781	4809.7	3929.75
991.3985	2648.8398	4811.4	3931.7
991.5225	2650.1009	4801.9	3910.25
991.6464	2651.3613	4786.45	3906.5
991.7703	2652.6211	4772.75	3888.8
991.8942	2653.8801	4747.95	3867.3
992.018	2655.1385	4741.35	3856.85
992.1418	2656.3961	4741.3	3858.75
992.2655	2657.6531	4722.85	3843.6
992.3892	2658.9094	4727.8	3847.65
992.5129	2660.1651	4700.35	3819
992.6366	2661.42	4704.35	3823.4
992.7602	2662.6743	4680.65	3798.1
992.8837	2663.9279	4683.1	3802.2
993.0073	2665.1808	4638.3	3757.5
993.1307	2666.433	4649.7	3766.9
993.2542	2667.6846	4630.1	3750.55
993.3776	2668.9354	4627.15	3742.6
993.501	2670.1856	4605.25	3724
993.6244	2671.4351	4593.9	3713.65
993.7477	2672.6839	4597.65	3715.4
993.8709	2673.9321	4583.55	3704.5
993.9942	2675.1795	4552.75	3670.9
994.1174	2676.4263	4550.8	3670.65
994.2405	2677.6724	4537.3	3655.95
994.3637	2678.9179	4506.05	3624.95
994.4868	2680.1626	4507.5	3626.15
994.6098	2681.4067	4501.1	3618.6
994.7328	2682.6501	4481.5	3601.65
994.8558	2683.8928	4459.75	3577.45
994.9788	2685.1348	4453.6	3575.45
995.1017	2686.3761	4432	3554.1
995.2245	2687.6168	4426.25	3547.3
995.3474	2688.8568	4407.45	3527.35
995.4702	2690.0961	4407.2	3527.95
995.5929	2691.3348	4396.1	3514.7
995.7156	2692.5727	4392.45	3509
995.8383	2693.81	4365.25	3484.3
995.961	2695.0466	4362.35	3482.45
996.0836	2696.2826	4341.35	3458.95
996.2062	2697.5178	4330.6	3447.15
996.3287	2698.7524	4311.45	3431.55
996.4512	2699.9863	4314.45	3429.1
996.5737	2701.2195	4291.4	3411.9
996.6961	2702.452	4294	3410.35
996.8185	2703.6839	4277.8	3396.35
996.9408	2704.9151	4252.95	3374.25
997.0631	2706.1456	4248.75	3368.7
997.1854	2707.3755	4234.3	3353.1
997.3077	2708.6046	4241.35	3358.6
997.4299	2709.8331	4227.35	3346.75
997.552	2711.0609	4205.35	3324.15
997.6742	2712.2881	4191.9	3310.4
997.7963	2713.5145	4183.4	3299.2
997.9183	2714.7403	4166.45	3287.45
998.0403	2715.9654	4159.75	3278.8
998.1623	2717.1899	4164.05	3279.9
998.2842	2718.4136	4140.4	3261.75
998.4062	2719.6367	4124.95	3243.35
998.528	2720.8591	4105.4	3217.35
998.6498	2722.0809	4100.85	3219.3
998.7716	2723.3019	4092.8	3210
998.8934	2724.5223	4092.8	3210.3
999.0151	2725.7421	4083.9	3203.8
999.1368	2726.9611	4065.85	3182.8
999.2584	2728.1795	4051.2	3166
999.38	2729.3972	4035.3	3155.75
999.5016	2730.6142	4026.35	3138.2
999.6231	2731.8306	4003.9	3122.85
999.7446	2733.0462	3979.85	3097.2
999.8661	2734.2612	3975.25	3091.05
999.9875	2735.4756	3958.95	3076.75
1000.1089	2736.6892	3917.15	3033.9
1000.2302	2737.9022	3898.65	3019.55
1000.3515	2739.1145	3896.6	3014.2
1000.4728	2740.3262	3896.15	3008.35
1000.594	2741.5372	3860.05	2979.35
1000.7152	2742.7475	3847.6	2965.15
1000.8363	2743.9571	3840.6	2957.5
1000.9575	2745.1661	3835.6	2948.85
1001.0785	2746.3744	3831.8	2950
1001.1996	2747.582	3815.4	2934.65
1001.3206	2748.7889	3798.35	2914.6
1001.4415	2749.9952	3773.05	2895.9
1001.5625	2751.2008	3767	2885.65
1001.6833	2752.4057	3745.2	2862.55
1001.8042	2753.61	3749.2	2868.3
1001.925	2754.8136	3737.75	2855.75
1002.0458	2756.0165	3719.55	2841.15
1002.1665	2757.2188	3700.55	2819.65
1002.2872	2758.4204	3698.8	2816.4
1002.4078	2759.6213	3676.2	2792
1002.5285	2760.8215	3679.7	2794.9
1002.649	2762.0211	3665.95	2784.1
1002.7696	2763.22	3664.2	2781.45
1002.8901	2764.4182	3639.6	2756.55
1003.0106	2765.6158	3634	2752.05
1003.131	2766.8127	3633.2	2754
1003.2514	2768.009	3611.55	2731.25
1003.3717	2769.2045	3595.15	2712
1003.492	2770.3994	3596.6	2712.3
1003.6123	2771.5936	3595.75	2712.8
1003.7325	2772.7872	3577.85	2697.2
1003.8527	2773.9801	3566.6	2683.2
1003.9729	2775.1723	3550.6	2651.9
1004.093	2776.3639	3538.85	2659.5
1004.2131	2777.5548	3521.7	2640.8
1004.3331	2778.745	3524.95	2641.9
1004.4531	2779.9346	3517.9	2637.1
1004.5731	2781.1235	3498.9	2617.8
1004.693	2782.3117	3495.15	2615.85
1004.8129	2783.4992	3495.5	2617
1004.9328	2784.6861	3478	2598.45
1005.0526	2785.8723	3476.1	2594.85
1005.1723	2787.0579	3457.95	2575.95
1005.2921	2788.2428	3439.6	2556.3
1005.4118	2789.427	3427.6	2546.85
1005.5314	2790.6106	3429.35	2548.65
1005.651	2791.7935	3420.1	2540.15
1005.7706	2792.9757	3398.9	2518.25
1005.8902	2794.1573	3410.45	2528.1
1006.0097	2795.3382	3374.85	2494.3
1006.1291	2796.5184	3388.8	2510.2
1006.2485	2797.698	3382.9	2500.25
1006.3679	2798.8769	3372.9	2493.25
1006.4873	2800.0551	3354.65	2471.6
1006.6066	2801.2327	3355.75	2474.6
1006.7258	2802.4096	3348.4	2469.1
1006.8451	2803.5859	3359.4	2477.8
1006.9642	2804.7615	3341.25	2461.35
1007.0834	2805.9364	3355.4	2475.55
1007.2025	2807.1106	3338.95	2461.55
1007.3216	2808.2842	3342.25	2461.95
1007.4406	2809.4572	3343.1	2463.7
1007.5596	2810.6294	3340.05	2457.65
1007.6785	2811.801	3348.95	2468.3
1007.7975	2812.972	3358.95	2479.65
1007.9163	2814.1423	3367.5	2487.45
1008.0352	2815.3119	3375.95	2494.9
1008.154	2816.4808	3375.2	2494.85
1008.2727	2817.6491	3382.6	2503.55
1008.3914	2818.8167	3395.8	2518.35
1008.5101	2819.9837	3401.45	2517.8
1008.6288	2821.15	3414.85	2533.4
1008.7474	2822.3157	3424.25	2545.65
1008.8659	2823.4807	3447.85	2568.7
1008.9844	2824.645	3465.55	2584.65
1009.1029	2825.8086	3477.15	2598.7
1009.2214	2826.9716	3477.55	2597.6
1009.3398	2828.134	3503.6	2623.9
1009.4581	2829.2957	3502.9	2623.4
1009.5764	2830.4567	3524.55	2647.3
1009.6947	2831.617	3511.7	2631.75
1009.813	2832.7767	3499.3	2620.45
1009.9312	2833.9358	3496.05	2617.1
1010.0493	2835.0941	3509.6	2627.45
1010.1675	2836.2519	3482.5	2602.75
1010.2855	2837.4089	3474.35	2595.4
1010.4036	2838.5653	3469.05	2590.2
1010.5216	2839.7211	3444.6	2565.95
1010.6396	2840.8761	3444.15	2562.4
1010.7575	2842.0306	3432.85	2553.75
1010.8754	2843.1843	3453.9	2575.35
1010.9932	2844.3374	3453	2573.15
1011.111	2845.4899	3462.65	2582.85
1011.2288	2846.6417	3472.85	2596.05
1011.3465	2847.7928	3491.9	2613.45
1011.4642	2848.9433	3491	2613
1011.5818	2850.0931	3513.65	2633.55
1011.6995	2851.2422	3534	2652
1011.817	2852.3907	3555.85	2674.8
1011.9345	2853.5385	3579.8	2698.15
1012.052	2854.6857	3586.5	2695.95
1012.1695	2855.8323	3581.2	2701.5
1012.2869	2856.9781	3599.35	2718.35
1012.4042	2858.1233	3612.15	2732.55
1012.5216	2859.2679	3612.15	2733.25
1012.6389	2860.4118	3621	2741.3
1012.7561	2861.555	3633.3	2749.25
1012.8733	2862.6976	3653.4	2770.5
1012.9905	2863.8395	3652.55	2774.5
1013.1076	2864.9808	3655.9	2775.5
1013.2247	2866.1214	3653.2	2774.4
1013.3417	2867.2614	3645.25	2764.05
1013.4587	2868.4007	3657.7	2776.7
1013.5757	2869.5393	3646.45	2764.1
1013.6926	2870.6773	3657.4	2774.7
1013.8095	2871.8146	3646.4	2763.5
1013.9263	2872.9513	3632.65	2749.45
1014.0431	2874.0874	3615.4	2736.15
1014.1599	2875.2227	3613.75	2734.65
1014.2766	2876.3574	3591.4	2711
1014.3933	2877.4915	3574.05	2693.8
1014.51	2878.6249	3560.15	2682
1014.6266	2879.7577	3539.2	2658.6
1014.7431	2880.8898	3521.6	2630.75
1014.8596	2882.0212	3501.4	2623.8
1014.9761	2883.152	3488.65	2607.7
1015.0925	2884.2821	3473.8	2594.15
1015.2089	2885.4116	3460.6	2582.75
1015.3253	2886.5405	3459.35	2580
1015.4416	2887.6686	3459.9	2577.7
1015.5579	2888.7962	3462.25	2583.35
1015.6741	2889.923	3440.55	2563.2
1015.7903	2891.0493	3441.85	2561.45
1015.9065	2892.1748	3445.3	2564.4
1016.0226	2893.2997	3428.45	2546.7
1016.1387	2894.424	3431.85	2553.15
1016.2547	2895.5476	3432.2	2554.15
1016.3707	2896.6706	3439.5	2558.7
1016.4866	2897.7929	3424.45	2543.95
1016.6025	2898.9145	3438.6	2557.2
1016.7184	2900.0355	3427.8	2545.55
1016.8342	2901.1559	3433.65	2552.2
1016.95	2902.2756	3442.05	2561.6
1017.0658	2903.3946	3434.25	2556
1017.1815	2904.513	3449.9	2569.35
1017.2971	2905.6308	3445.4	2564.65
1017.4127	2906.7479	3446.25	2565.1
1017.5283	2907.8643	3443.4	2564.65
1017.6439	2908.9801	3442.75	2564.45
1017.7594	2910.0953	3444.65	2566.65
1017.8748	2911.2098	3429.1	2547.5
1017.9902	2912.3236	3433.3	2547.05
1018.1056	2913.4368	3415.85	2534.6
1018.2209	2914.5494	3395.6	2515.55
1018.3362	2915.6613	3377.35	2491
1018.4515	2916.7725	3353.85	2470.55
1018.5667	2917.8831	3354.5	2475.3
1018.6819	2918.9931	3332.25	2447.8
1018.797	2920.1024	3319.8	2438.5
1018.9121	2921.211	3298.3	2418.85
1019.0271	2922.319	3280.95	2402.65
1019.1421	2923.4264	3268.6	2389.35
1019.2571	2924.5331	3255.35	2376.1
1019.372	2925.6391	3254.85	2375.6
1019.4869	2926.7445	3241.7	2364.25
1019.6017	2927.8493	3241.05	2362.25
1019.7165	2928.9534	3232.35	2351.85
1019.8313	2930.0569	3221.5	2338.1
1019.946	2931.1597	3216.9	2337.1
1020.0606	2932.2619	3225.8	2346.25
1020.1753	2933.3634	3213.85	2333.15
1020.2899	2934.4643	3225.75	2339.1
1020.4044	2935.5645	3212.8	2328.9
1020.5189	2936.6641	3193.65	2309.25
1020.6334	2937.763	3175.55	2296.9
1020.7478	2938.8613	3162.65	2282.5
1020.8622	2939.959	3134.35	2248.7
1020.9765	2941.056	3109.7	2233.3
1021.0908	2942.1523	3065.35	2184.3
1021.2051	2943.248	3032.45	2152.8
1021.3193	2944.3431	2995.65	2117.35
1021.4334	2945.4375	2952.55	2073.65
1021.5476	2946.5313	2905.7	2029.8
1021.6617	2947.6244	2865.95	1986.2
1021.7757	2948.7169	2827.05	1947.3
1021.8897	2949.8087	2794.2	1915.15
1022.0037	2950.8999	2746.3	1867.85
1022.1176	2951.9904	2714.55	1835.4
1022.2315	2953.0803	2677.45	1795.05
1022.3453	2954.1696	2653.3	1774.05
1022.4591	2955.2582	2626.75	1747.3
1022.5728	2956.3462	2603.65	1724.75
1022.6865	2957.4335	2589.9	1708.05
1022.8002	2958.5202	2564.8	1682.3
1022.9138	2959.6062	2552.1	1674.55
1023.0274	2960.6916	2536.8	1657.65
1023.141	2961.7764	2528.45	1648.85
1023.2545	2962.8605	2530.2	1652.05
1023.3679	2963.9439	2510.65	1631.15
1023.4813	2965.0267	2497.35	1616.55
1023.5947	2966.1089	2516.15	1613.5
1023.708	2967.1905	2476.05	1597.7
1023.8213	2968.2714	2465.45	1585.95
1023.9346	2969.3516	2466.1	1586.45
1024.0478	2970.4312	2480	1593.75
1024.1609	2971.5102	2474.35	1596.9
1024.274	2972.5885	2455.3	1576.4
1024.3871	2973.6662	2460.05	1577.15
1024.5002	2974.7432	2433.7	1554.15
1024.6132	2975.8196	2437.25	1560
1024.7261	2976.8954	2427.05	1550.1
1024.839	2977.9705	2418.4	1537.9
1024.9519	2979.045	2405.45	1527.9
1025.0647	2980.1188	2404.1	1524.8
1025.1775	2981.192	2382.65	1504.2
1025.2902	2982.2645	2378.85	1497.45
1025.4029	2983.3364	2365.35	1486.1
1025.5156	2984.4077	2366.1	1487.8
1025.6282	2985.4783	2343.3	1458.45
1025.7407	2986.5483	2322.55	1445.2
1025.8532	2987.6177	2304.3	1424.15
1025.9657	2988.6864	2293.8	1414.55
1026.0782	2989.7545	2273.9	1394.45
1026.1906	2990.8219	2262.65	1383.6
1026.3029	2991.8887	2244.25	1363.7
1026.4152	2992.9548	2235	1355.8
1026.5275	2994.0204	2216.45	1339.4
1026.6397	2995.0852	2196.55	1320.1
1026.7519	2996.1495	2182.65	1302.3
1026.864	2997.2131	2165.1	1287.5
1026.9761	2998.276	2162.75	1284.8
1027.0882	2999.3383	2140.05	1259.4
1027.2002	3000.4	2121.1	1242.85
1027.3122	3001.4611	2121.8	1242.4
1027.4241	3002.5215	2106.1	1227.05
1027.536	3003.5812	2100.75	1220.75
1027.6478	3004.6404	2079.25	1200.1
1027.7596	3005.6989	2068.7	1186.8
1027.8714	3006.7567	2071.75	1193.5
1027.9831	3007.8139	2088.75	1179.4
1028.0947	3008.8705	2047.4	1168.3
1028.2064	3009.9264	2053.4	1169.45
1028.3179	3010.9818	2038.2	1157.55
1028.4295	3012.0364	2036.3	1157.75
1028.541	3013.0905	2031.7	1152.95
1028.6524	3014.1439	2028.15	1149.1
1028.7638	3015.1966	2021.5	1145.5
1028.8752	3016.2487	2003.25	1125.4
1028.9865	3017.3002	2013.25	1130
1029.0978	3018.3511	2002.85	1124.05
1029.209	3019.4013	2002.4	1124.2
1029.3202	3020.4509	1988.6	1109.05
1029.4314	3021.4998	1994.1	1114.35
1029.5425	3022.5481	1985.3	1106.1
1029.6535	3023.5958	1973.95	1096.15
1029.7645	3024.6428	1978.35	1099.5
1029.8755	3025.6892	1970.5	1091.6
1029.9864	3026.735	1959.75	1079.9
1030.0973	3027.7802	1962.2	1083.6
1030.2082	3028.8247	1952.9	1075.25
1030.319	3029.8685	1953.3	1073.25
1030.4297	3030.9118	1937.4	1059.15
1030.5404	3031.9544	1946.7	1068.15
1030.6511	3032.9963	1938.4	1059.3
1030.7617	3034.0376	1927.85	1050.5
1030.8723	3035.0783	1937.75	1057.3
1030.9829	3036.1184	1933.85	1054.3
1031.0934	3037.1578	1928.1	1049.45
1031.2038	3038.1966	1917.6	1037.8
1031.3142	3039.2348	1916.1	1038.7
1031.4246	3040.2723	1922.35	1034.45
1031.5349	3041.3092	1905.45	1027.75
1031.6452	3042.3455	1916.6	1037.2
1031.7554	3043.3811	1898.15	1019.25
1031.8656	3044.4161	1903.6	1024.75
1031.9758	3045.4505	1890.2	1011.15
1032.0859	3046.4842	1890.45	1011.3
1032.1959	3047.5173	1885.55	1007
1032.3059	3048.5498	1879.5	1001.05
1032.4159	3049.5816	1884.65	1006.3
1032.5258	3050.6128	1870.15	990.3
1032.6357	3051.6434	1870.75	990.4
1032.7455	3052.6734	1862.65	983.85
1032.8553	3053.7027	1858.65	980.35
1032.9651	3054.7314	1856.9	978.5
1033.0748	3055.7594	1848.55	970
1033.1845	3056.7868	1841.95	962.55
1033.2941	3057.8136	1836.5	956.65
1033.4037	3058.8398	1841.85	964.3
1033.5132	3059.8653	1835.75	956
1033.6227	3060.8902	1818.55	939.6
1033.7321	3061.9145	1823.3	943.5
1033.8415	3062.9381	1818.2	939.65
1033.9509	3063.9612	1824.7	929.65
1034.0602	3064.9835	1807.05	928.45
1034.1694	3066.0053	1804.5	923.95
1034.2787	3067.0264	1797.2	919.35
1034.3878	3068.0469	1801.8	920.2
1034.497	3069.0668	1788.2	908.1
1034.6061	3070.086	1776.9	898.2
1034.7151	3071.1046	1778.65	900.45
1034.8241	3072.1226	1778.45	897
1034.9331	3073.1399	1767.95	890
1035.042	3074.1567	1770.9	891.2
1035.1508	3075.1727	1762.4	882.4
1035.2597	3076.1882	1748	870.15
1035.3684	3077.203	1749.95	870.65
1035.4772	3078.2173	1734.5	854.1
1035.5859	3079.2308	1730.05	848.85
1035.6945	3080.2438	1734.8	853.5
1035.8031	3081.2561	1727.15	849.9
1035.9117	3082.2678	1716.45	838.15
1036.0202	3083.2789	1718.9	838.7
1036.1286	3084.2893	1704.95	826.3
1036.2371	3085.2991	1701.1	819.85
1036.3454	3086.3083	1698.3	815.6
1036.4538	3087.3169	1688	807.75
1036.562	3088.3248	1681.15	800.05
1036.6703	3089.3321	1692.35	810.85
1036.7785	3090.3388	1673.95	796.85
1036.8866	3091.3449	1674.2	795.75
1036.9948	3092.3503	1668.35	788.85
1037.1028	3093.3551	1663.85	785.15
1037.2108	3094.3593	1659.55	782.95
1037.3188	3095.3629	1662.2	785.2
1037.4267	3096.3658	1647.75	768.3
1037.5346	3097.3681	1652.95	772.4
1037.6425	3098.3698	1639.65	760.1
1037.7503	3099.3708	1643.95	759.9
1037.858	3100.3713	1627	749.7
1037.9657	3101.3711	1625.15	746.25
1038.0734	3102.3702	1752.35	736.25
1038.181	3103.3688	1625.5	745.5
1038.2886	3104.3667	1615.15	737.7
1038.3961	3105.364	1605.05	725.3
1038.5036	3106.3607	1603.35	723.2
1038.611	3107.3568	1596.1	714.5
1038.7184	3108.3522	1589.65	712.2
1038.8257	3109.347	1601.85	720.2
1038.933	3110.3412	1583.8	701.65
1039.0403	3111.3348	1586.1	705.4
1039.1475	3112.3277	1578.75	703.05
1039.2547	3113.32	1576.75	699.75
1039.3618	3114.3117	1572.8	696.4
1039.4689	3115.3028	1567.65	688.1
1039.5759	3116.2932	1563.9	682.7
1039.6829	3117.2831	1565.85	683.65
1039.7898	3118.2723	1555.9	679.3
1039.8967	3119.2608	1553.7	673.6
1040.0035	3120.2488	1551.65	671.65
1040.1103	3121.2361	1540.85	664.2
1040.2171	3122.2229	1536.1	658.05
1040.3238	3123.209	1532.95	653.05
1040.4305	3124.1944	1529.85	652.2
1040.5371	3125.1793	1536.4	657.75
1040.6437	3126.1635	1526.95	650.05
1040.7502	3127.1471	1523	643.95
1040.8567	3128.1301	1515.55	636.75
1040.9631	3129.1125	1518.85	641.1
1041.0695	3130.0942	1510.15	632
1041.1759	3131.0753	1516.95	629.6
1041.2822	3132.0558	1512.1	631.75
1041.3884	3133.0357	1502.85	622.2
1041.4946	3134.015	1504.3	624.95
1041.6008	3134.9936	1501.3	620.85
1041.7069	3135.9716	1510.85	611.4
1041.813	3136.949	1494.1	616.1
1041.919	3137.9258	1496.8	611.95
1042.025	3138.902	1495.15	612
1042.1309	3139.8775	1486.8	609.1
1042.2368	3140.8524	1476.5	598.9
1042.3427	3141.8267	1484.15	604
1042.4485	3142.8004	1476.4	597.95
1042.5542	3143.7735	1482	597.15
1042.6599	3144.7459	1474.45	594.2
1042.7656	3145.7178	1477.75	597.25
1042.8712	3146.689	1466	589.05
1042.9768	3147.6596	1458.95	578.45
1043.0823	3148.6295	1461.25	584.35
1043.1878	3149.5989	1453.05	573.65
1043.2932	3150.5676	1455.8	579.75
1043.3986	3151.5357	1450.75	573
1043.5039	3152.5032	1447.7	569.7
1043.6092	3153.4701	1435.85	558.8
1043.7145	3154.4364	1440.15	558.45
1043.8197	3155.402	1444.8	567.4
1043.9248	3156.367	1438.95	558
1044.03	3157.3315	1467.85	550.8
1044.135	3158.2952	1430.5	551.4
1044.24	3159.2584	1421.7	545.55
1044.345	3160.221	1420.1	540.65
1044.4499	3161.1829	1413.25	534.85
1044.5548	3162.1442	1418.75	541.6
1044.6596	3163.105	1416.8	537.9
1044.7644	3164.065	1402.8	524.25
1044.8692	3165.0245	1408.15	527.3
1044.9739	3165.9834	1407.25	529.75
1045.0785	3166.9416	1401.45	522.2
1045.1831	3167.8993	1397.25	519.05
1045.2877	3168.8563	1387.55	508.1
1045.3922	3169.8127	1385.5	507.65
1045.4966	3170.7684	1386.55	505.9
1045.6011	3171.7236	1388.25	507.2
1045.7054	3172.6782	1386.35	506.75
1045.8098	3173.6321	1379	501.25
1045.914	3174.5854	1378.6	494.9
1046.0183	3175.5381	1373.1	496.6
1046.1224	3176.4902	1367.35	487.85
1046.2266	3177.4417	1371.6	492.85
1046.3307	3178.3926	1364.1	486.3
1046.4347	3179.3428	1360.1	482.45
1046.5387	3180.2924	1359.5	480.15
1046.6427	3181.2415	1360.9	483.15
1046.7466	3182.1899	1355.45	475.2
1046.8504	3183.1377	1354.5	476.9
1046.9542	3184.0848	1359.85	477.6
1047.058	3185.0314	1350.55	473.5
1047.1617	3185.9773	1350.7	471.9
1047.2654	3186.9227	1347.85	468.1
1047.369	3187.8674	1343.75	465.55
1047.4726	3188.8115	1340.3	456.55
1047.5761	3189.755	1336.4	458.1
1047.6796	3190.6979	1337.35	457.25
1047.783	3191.6402	1329.7	452.6
1047.8864	3192.5818	1329.2	451.4
1047.9898	3193.5229	1340.75	445.5
1048.0931	3194.4633	1324.6	446.45
1048.1963	3195.4031	1321.05	441.25
1048.2995	3196.3423	1314.85	435
1048.4027	3197.2809	1317.9	439.45
1048.5058	3198.2189	1320	443
1048.6089	3199.1563	1333.35	437.85
1048.7119	3200.0931	1304.2	427.95
1048.8148	3201.0292	1306.25	427.75
1048.9178	3201.9648	1307.6	429.3
1049.0206	3202.8997	1308.9	428.45
1049.1235	3203.834	1308.5	428.15
1049.2262	3204.7677	1300.55	422.15
1049.329	3205.7008	1300.9	419.35
1049.4317	3206.6333	1294.15	419
1049.5343	3207.5652	1294.2	414.75
1049.6369	3208.4964	1294.7	416.9
1049.7394	3209.4271	1292.05	416.3
1049.8419	3210.3571	1283.25	406.45
1049.9444	3211.2865	1282.65	403.15
1050.0468	3212.2154	1280	400.9
1050.1491	3213.1436	1284.15	400.7
1050.2514	3214.0712	1284.05	398.85
1050.3537	3214.9982	1277.15	400.7
1050.4559	3215.9246	1268.9	388.95
1050.5581	3216.8503	1268.5	390.85
1050.6602	3217.7755	1266	388.15
1050.7623	3218.7001	1268.95	391.5
1050.8643	3219.624	1269.2	389.3
1050.9663	3220.5473	1265.15	387.5
1051.0682	3221.4701	1264.55	384.4
1051.1701	3222.3922	1269.5	389.55
1051.2719	3223.3137	1260.65	384.15
1051.3737	3224.2346	1255.25	377.15
1051.4754	3225.1549	1257.35	378.45
1051.5771	3226.0746	1247.9	371.4
1051.6788	3226.9937	1252.3	373.65
1051.7804	3227.9121	1245.75	367.45
1051.8819	3228.83	1246.8	368.75
1051.9834	3229.7473	1242.8	363.15
1052.0849	3230.6639	1248.95	371.7
1052.1863	3231.5799	1235.95	359
1052.2876	3232.4954	1241.75	361
1052.3889	3233.4102	1236.45	358.85
1052.4902	3234.3244	1236.85	357.8
1052.5914	3235.238	1230.8	353.95
1052.6926	3236.151	1250.65	349.9
1052.7937	3237.0634	1225.85	350.05
1052.8948	3237.9752	1224.3	345.15
1052.9958	3238.8864	1222.55	343.55
1053.0968	3239.797	1227.15	347.55
1053.1977	3240.7069	1222.55	344.25
1053.2986	3241.6163	1222.6	343.05
1053.3994	3242.5251	1214.35	338.65
1053.5002	3243.4332	1210.15	331.5
1053.6009	3244.3408	1206.85	327.85
1053.7016	3245.2477	1213.5	332.8
1053.8022	3246.154	1201.7	322.4
1053.9028	3247.0598	1203.45	323.55
1054.0034	3247.9649	1202.85	326.1
1054.1039	3248.8694	1196.95	319.35
1054.2043	3249.7733	1201.45	323.8
1054.3047	3250.6766	1193.55	314.5
1054.4051	3251.5793	1191.7	313.9
1054.5054	3252.4814	1189.4	312.2
1054.6056	3253.3829	1184.2	307
1054.7058	3254.2838	1188.7	312.85
1054.806	3255.1841	1185.95	309.65
1054.9061	3256.0838	1187.95	309.15
1055.0061	3256.9829	1183.45	304.9
1055.1062	3257.8814	1177.75	297.05
1055.2061	3258.7792	1176.05	294.55
1055.306	3259.6765	1181.25	303.3
1055.4059	3260.5731	1169.8	291.45
1055.5057	3261.4692	1169.1	291.35
1055.6055	3262.3647	1160.05	282.55
1055.7052	3263.2595	1153.95	276.65
1055.8049	3264.1538	1159.75	282.5
1055.9045	3265.0474	1147.1	268.5
1056.0041	3265.9404	1145.25	266.65
1056.1036	3266.8329	1138.8	262.8
1056.2031	3267.7247	1145.6	257.3
1056.3025	3268.616	1136.35	261.05
1056.4019	3269.5066	1124.6	246.1
1056.5013	3270.3966	1124.05	243.2
1056.6005	3271.286	1112.7	236.45
