Software Version:	3.9.2.0
Unit SN:	10000200
Spectrometer SN:	6960
Date:	3/6/2024 10:30:13 AM
Data Line Index:	25
Spectral Points:	2048
Integration time (ms):	125
Averages:	20
Delay (ms):	30
Sequence Number:	1
Processing:	dark subtract
Laser Power (mW):	305
Laser Current (mA):	825
Laser Diode Temp (C):	25.1
Laser Case Temp (C):	26.2
System Temp (C):	26
Spectrometer Temp (C):	23.4
CCD Temp (C):	0.002
Secondary Temp (C):	20.01
Heatsink Temp (C):	21.493
CCDPCB Temp (C):	36.029
SecondaryPCB Temp (C):	30.193

Wavelength	RamanShift	Raw Counts	Dark Subtracted
787.061	30.1047	1140	729.05
787.2016	32.3739	1156.75	746.25
787.3422	34.6426	1207.65	795.55
787.4828	36.9109	1256.8	843.1
787.6235	39.1787	1315.1	897.95
787.7642	41.4461	1375.2	951.95
787.9049	43.7131	1432.8	1008.65
788.0456	45.9796	1506.65	1077.8
788.1863	48.2456	1568.6	1135.3
788.3271	50.5112	1641	1204.2
788.4679	52.7764	1706.4	1266.95
788.6087	55.0411	1787.55	1345.8
788.7496	57.3054	1874.7	1425.7
788.8904	59.5692	1953.9	1504.7
789.0313	61.8326	2059.8	1606.65
789.1722	64.0955	2157.65	1700.9
789.3132	66.3579	2293.05	1831.9
789.4541	68.6199	2441.15	1978.5
789.5951	70.8815	2690.15	2222.35
789.7361	73.1426	3225.9	2755.2
789.8771	75.4032	4593.15	4115.75
790.0181	77.6634	8072.8	7591.8
790.1592	79.9231	17432.25	16945.7
790.3003	82.1824	56014.15	55513.9
790.4414	84.4412	65535	65014.8
790.5825	86.6995	65535	64984.95
790.7237	88.9574	65535	64958.35
790.8648	91.2148	65535	64941.75
791.006	93.4717	65535	64932.7
791.1472	95.7282	65535	64924.05
791.2885	97.9842	65535	64924.45
791.4297	100.2398	65535	64916.2
791.571	102.4949	65535	64915.3
791.7123	104.7495	65535	64911.25
791.8536	107.0036	65535	64909.9
791.9949	109.2573	65535	64912.95
792.1363	111.5105	65535	64907.2
792.2777	113.7632	65535	64910.25
792.4191	116.0154	65535	64895.55
792.5605	118.2672	65535	64901.55
792.7019	120.5185	65535	64901.85
792.8434	122.7693	65535	64898.25
792.9849	125.0197	65535	64892.45
793.1264	127.2696	65535	64888.75
793.2679	129.519	65535	64886.8
793.4094	131.7679	65535	64883.3
793.551	134.0163	65535	64882.8
793.6926	136.2642	65535	64880.75
793.8342	138.5117	65535	64868.1
793.9758	140.7587	65535	64874.55
794.1175	143.0052	65535	64875.3
794.2591	145.2512	65535	64873.45
794.4008	147.4967	65535	64870
794.5425	149.7417	65535	64867.2
794.6842	151.9863	65535	64862.25
794.826	154.2304	65535	64861.55
794.9677	156.4739	65535	64853.95
795.1095	158.717	65535	64854.35
795.2513	160.9596	65535	64857.1
795.3931	163.2017	65535	64850.6
795.535	165.4433	65535	64845.5
795.6768	167.6844	65535	64844
795.8187	169.925	65535	64843.55
795.9606	172.1651	65535	64838.45
796.1025	174.4047	65535	64835
796.2445	176.6439	65535	64835.45
796.3864	178.8825	65535	64831.3
796.5284	181.1206	65535	64829.55
796.6704	183.3582	65535	64826.95
796.8124	185.5954	65535	64823.45
796.9544	187.832	65535	64821.2
797.0965	190.0681	65535	64816.1
797.2386	192.3037	65535	64813.8
797.3806	194.5388	65535	64807.5
797.5228	196.7734	65535	64808.85
797.6649	199.0075	65535	64805.75
797.807	201.2411	65535	64802.95
797.9492	203.4742	65535	64807.55
798.0914	205.7068	65535	64799.95
798.2336	207.9389	65535	64799.6
798.3758	210.1704	65535	64799.5
798.518	212.4015	65535	64801.2
798.6603	214.632	65535	64812.45
798.8025	216.862	65535	64820.65
798.9448	219.0915	65535	64816.9
799.0871	221.3205	65535	64811.55
799.2294	223.549	65535	64820.55
799.3718	225.777	65535	64817.25
799.5141	228.0044	65535	64813.2
799.6565	230.2314	65535	64815.4
799.7989	232.4578	65535	64810.15
799.9413	234.6837	65535	64801.9
800.0837	236.909	65535	64799.65
800.2262	239.1339	65535	64776.55
800.3687	241.3582	65535	64791.45
800.5111	243.582	65535	64755.95
800.6536	245.8053	65535	64776.4
800.7961	248.0281	65535	64777.4
800.9387	250.2503	65535	64773.55
801.0812	252.472	65535	64769.7
801.2238	254.6932	65535	64767.55
801.3664	256.9139	65535	64773.25
801.509	259.134	65535	64766.65
801.6516	261.3536	65535	64765.95
801.7942	263.5727	65535	64764.5
801.9369	265.7912	65535	64768.9
802.0795	268.0092	65535	64766.45
802.2222	270.2267	65535	64765.3
802.3649	272.4436	65535	64767.75
802.5076	274.6601	65535	64757.55
802.6504	276.8759	65535	64758.3
802.7931	279.0913	65535	64760.15
802.9359	281.3061	65535	64756.25
803.0787	283.5204	65535	64753.55
803.2215	285.7341	65535	64753.6
803.3643	287.9473	65535	64737.95
803.5071	290.16	65535	64750.5
803.6499	292.3721	65535	64754.05
803.7928	294.5837	65535	64750.8
803.9357	296.7947	65535	64752.2
804.0786	299.0052	65535	64753.1
804.2215	301.2152	65535	64748.6
804.3644	303.4246	65535	64752.9
804.5074	305.6334	65535	64751.8
804.6503	307.8418	65535	64749.75
804.7933	310.0495	65535	64744.3
804.9363	312.2568	65535	64749.55
805.0793	314.4635	65535	64743.25
805.2223	316.6696	65535	64743.05
805.3653	318.8752	65535	64732.85
805.5084	321.0802	65535	64739.5
805.6514	323.2847	65535	64739.65
805.7945	325.4887	65535	64741.4
805.9376	327.692	65535	64741.35
806.0807	329.8949	65535	64738.9
806.2238	332.0972	65535	64733.95
806.367	334.2989	65535	64730.75
806.5101	336.5001	65535	64733.8
806.6533	338.7007	65535	64732.6
806.7965	340.9008	65535	64729.35
806.9397	343.1003	65535	64726.75
807.0829	345.2992	65535	64724.05
807.2261	347.4976	65535	64729.4
807.3693	349.6955	65535	64722.35
807.5126	351.8927	65535	64719.1
807.6559	354.0895	65535	64712.1
807.7991	356.2856	65535	64720.95
807.9424	358.4812	65535	64721.85
808.0857	360.6763	65535	64717.85
808.2291	362.8707	65535	64716.15
808.3724	365.0646	65535	64714.2
808.5158	367.258	65535	64713.35
808.6591	369.4508	65535	64708.1
808.8025	371.643	65535	64709.75
808.9459	373.8346	65535	64709.35
809.0893	376.0257	65535	64704.75
809.2327	378.2162	65535	64703.95
809.3762	380.4062	65535	64704.05
809.5196	382.5956	65535	64702.7
809.6631	384.7844	65535	64700.7
809.8066	386.9726	65535	64703.2
809.9501	389.1603	65535	64709.5
810.0936	391.3474	65535	64673.75
810.2371	393.5339	65535	64709.3
810.3806	395.7199	65535	64714.35
810.5241	397.9052	65535	64714
810.6677	400.09	65535	64710.8
810.8113	402.2743	65535	64710.9
810.9548	404.4579	65535	64712.3
811.0984	406.641	65535	64709.3
811.2421	408.8235	65535	64707.7
811.3857	411.0054	65535	64711.5
811.5293	413.1868	65535	64705.6
811.673	415.3675	65535	64696.45
811.8166	417.5477	65535	64699.4
811.9603	419.7273	65535	64693.05
812.104	421.9064	65535	64686.25
812.2477	424.0848	65535	64695.3
812.3914	426.2627	65535	64691.85
812.5351	428.4399	65535	64690.7
812.6788	430.6166	65535	64691.55
812.8226	432.7928	65535	64687.95
812.9663	434.9683	65535	64689.65
813.1101	437.1432	65535	64684.65
813.2539	439.3176	65535	64689.05
813.3977	441.4914	65535	64689.35
813.5415	443.6645	65535	64689
813.6853	445.8371	65535	64688
813.8291	448.0091	65535	64690.45
813.973	450.1806	65535	64689.6
814.1168	452.3514	65535	64683.45
814.2607	454.5216	65535	64675.9
814.4046	456.6913	65535	64682.15
814.5485	458.8603	65535	64687.6
814.6924	461.0288	65535	64686.05
814.8363	463.1967	65535	64690
814.9802	465.3639	65535	64686.5
815.1241	467.5306	65535	64684.85
815.2681	469.6967	65535	64682.65
815.412	471.8622	65535	64684.65
815.556	474.0271	65535	64683.1
815.7	476.1914	65535	64679.8
815.844	478.3551	65535	64681.35
815.988	480.5182	65535	64680.05
816.132	482.6807	65535	64685.5
816.276	484.8426	65535	64683.25
816.4201	487.0039	65535	64681.8
816.5641	489.1647	65535	64678.9
816.7082	491.3248	65535	64680.75
816.8522	493.4843	65535	64677.7
816.9963	495.6432	65535	64678.65
817.1404	497.8015	65535	64676.95
817.2845	499.9592	65535	64675.5
817.4286	502.1163	65535	64678.15
817.5727	504.2728	65535	64673.45
817.7168	506.4287	65535	64676.9
817.861	508.5839	65535	64676.9
818.0051	510.7386	65535	64674.2
818.1493	512.8927	65535	64672.15
818.2935	515.0461	65535	64675.1
818.4377	517.199	65535	64672.35
818.5818	519.3512	65535	64669.65
818.726	521.5029	65535	64664.9
818.8703	523.6539	65535	64671.05
819.0145	525.8043	65535	64671.4
819.1587	527.9541	65535	64668.15
819.303	530.1033	65535	64667.75
819.4472	532.2519	65535	64665.85
819.5915	534.3999	65535	64663.5
819.7357	536.5472	65535	64668.95
819.88	538.694	65535	64667.95
820.0243	540.8401	65535	64665
820.1686	542.9856	65535	64663
820.3129	545.1305	65535	64657.9
820.4572	547.2748	65535	64663.05
820.6016	549.4185	65535	64659.75
820.7459	551.5615	65535	64660.4
820.8902	553.704	65535	64663.2
821.0346	555.8458	65535	64664.45
821.1789	557.987	65535	64667.1
821.3233	560.1276	65535	64663.45
821.4677	562.2675	65535	64665.65
821.6121	564.4069	65535	64665.25
821.7565	566.5456	65535	64666.2
821.9009	568.6837	65535	64662.65
822.0453	570.8212	65535	64663.7
822.1897	572.958	65535	64658.8
822.3342	575.0942	65535	64666.75
822.4786	577.2299	65535	64661.7
822.6231	579.3648	65535	64662.55
822.7675	581.4992	65535	64664.65
822.912	583.6329	65535	64666.3
823.0565	585.766	65535	64667.2
823.201	587.8985	65535	64665.2
823.3454	590.0304	65535	64635.75
823.4899	592.1616	65535	64658.3
823.6345	594.2922	65535	64657.5
823.779	596.4222	65535	64655.3
823.9235	598.5515	65535	64656.6
824.068	600.6802	65535	64657.25
824.2126	602.8083	65535	64657.4
824.3571	604.9358	65535	64658.55
824.5017	607.0626	65535	64655.95
824.6462	609.1888	65535	64656.6
824.7908	611.3144	65535	64653.15
824.9354	613.4393	65535	64657.5
825.08	615.5636	65535	64653.75
825.2246	617.6873	65535	64655.65
825.3692	619.8103	65535	64652.15
825.5138	621.9327	65535	64654.45
825.6584	624.0544	65535	64657.2
825.803	626.1756	65535	64655.1
825.9477	628.2961	65535	64654.8
826.0923	630.4159	65535	64655.95
826.237	632.5351	65535	64653.55
826.3816	634.6537	65535	64657.1
826.5263	636.7716	65535	64650.95
826.6709	638.8889	65535	64650.45
826.8156	641.0056	65535	64649.15
826.9603	643.1216	65535	64648.55
827.105	645.237	65535	64652.4
827.2497	647.3518	65535	64650.6
827.3944	649.4659	65535	64654.3
827.5391	651.5793	65535	64650
827.6838	653.6922	65535	64652.3
827.8285	655.8043	65535	64653.45
827.9733	657.9159	65535	64650.7
828.118	660.0268	65535	64650.3
828.2627	662.137	65535	64648.4
828.4075	664.2466	65535	64646
828.5522	666.3556	65535	64650.05
828.697	668.4639	65535	64645.7
828.8418	670.5716	65535	64651.9
828.9865	672.6786	65535	64649.15
829.1313	674.785	65535	64645.55
829.2761	676.8907	65535	64646.55
829.4209	678.9958	65535	64648.65
829.5657	681.1002	65535	64646.95
829.7105	683.204	65535	64642.75
829.8553	685.3072	65535	64642.75
830.0001	687.4097	65535	64646.9
830.1449	689.5115	65535	64641.8
830.2898	691.6127	65535	64646.95
830.4346	693.7132	65535	64645.95
830.5794	695.8131	65535	64637.55
830.7243	697.9123	65535	64643.25
830.8691	700.0109	65535	64645.8
831.014	702.1089	65535	64643.8
831.1588	704.2061	65535	64644.1
831.3037	706.3028	65535	64641.25
831.4486	708.3987	65535	64642.25
831.5935	710.4941	65535	64644.05
831.7383	712.5887	65535	64643.4
831.8832	714.6827	65535	64639.4
832.0281	716.7761	65535	64642.65
832.173	718.8688	65535	64638.95
832.3179	720.9608	65535	64638.9
832.4628	723.0522	65535	64638.3
832.6077	725.1429	65535	64640
832.7527	727.233	65535	64640.4
832.8976	729.3224	65535	64640.3
833.0425	731.4112	65535	64640.25
833.1874	733.4993	65535	64639.75
833.3324	735.5867	65535	64639.4
833.4773	737.6735	65535	64637.85
833.6222	739.7596	65535	64638.4
833.7672	741.845	65535	64638.65
833.9122	743.9298	65535	64635.75
834.0571	746.014	65535	64643.25
834.2021	748.0974	65535	64638.65
834.347	750.1802	65535	64638.4
834.492	752.2624	65535	64638.45
834.637	754.3439	65535	64634.75
834.782	756.4247	65535	64630.55
834.9269	758.5048	65535	64640.5
835.0719	760.5843	65535	64638.4
835.2169	762.6631	65535	64638.3
835.3619	764.7413	65535	64641.65
835.5069	766.8188	65535	64639.1
835.6519	768.8956	65535	64636.55
835.7969	770.9718	65535	64640.5
835.9419	773.0473	65535	64639.65
836.0869	775.1221	65535	64640.25
836.232	777.1962	65535	64639.4
836.377	779.2697	65535	64634.15
836.522	781.3426	65535	64618.85
836.667	783.4147	65535	64634.25
836.8121	785.4862	65535	64637.2
836.9571	787.557	65535	64638.45
837.1021	789.6271	65535	64637.95
837.2472	791.6966	65535	64634.95
837.3922	793.7654	65535	64633.1
837.5373	795.8335	65535	64636.85
837.6823	797.901	65535	64634.95
837.8274	799.9678	65535	64633.65
837.9724	802.0339	65535	64635.8
838.1175	804.0993	65535	64625.3
838.2626	806.1641	65535	64636.15
838.4076	808.2282	65535	64634.6
838.5527	810.2916	65535	64633.45
838.6978	812.3544	65535	64638.6
838.8428	814.4164	65535	64639.45
838.9879	816.4778	65535	64631.1
839.133	818.5385	65535	64634.05
839.2781	820.5986	65535	64632.7
839.4232	822.658	65535	64633.2
839.5682	824.7166	65535	64637.35
839.7133	826.7747	65535	64634.8
839.8584	828.832	65535	64634.7
840.0035	830.8886	65535	64631.75
840.1486	832.9446	65535	64635.4
840.2937	834.9999	65535	64638.3
840.4388	837.0545	65535	64632.65
840.5839	839.1085	65535	64635.4
840.729	841.1618	65535	64632.2
840.8741	843.2143	65535	64631.95
841.0192	845.2662	65535	64632.7
841.1643	847.3175	65535	64637.4
841.3095	849.368	65535	64634.25
841.4546	851.4179	65535	64633.35
841.5997	853.467	65535	64633.75
841.7448	855.5155	65535	64636.85
841.8899	857.5633	65535	64634.85
842.0351	859.6105	65535	64634.4
842.1802	861.6569	65535	64636.7
842.3253	863.7027	65535	64631.2
842.4704	865.7478	65535	64632.65
842.6156	867.7922	65535	64631.6
842.7607	869.8359	65535	64633.4
842.9058	871.8789	65535	64631.95
843.0509	873.9212	65535	64597.75
843.1961	875.9629	65535	64635.7
843.3412	878.0039	65535	64633.5
843.4863	880.0441	65535	64633.35
843.6315	882.0837	65535	64631.75
843.7766	884.1226	65535	64629.65
843.9218	886.1609	65535	64632.1
844.0669	888.1984	65535	64632.75
844.212	890.2352	65535	64633
844.3572	892.2714	65535	64627.55
844.5023	894.3069	65535	64633.2
844.6475	896.3416	65535	64630.85
844.7926	898.3757	65535	64631.7
844.9377	900.4091	65535	64628.7
845.0829	902.4418	65535	64623.65
845.228	904.4739	65535	64628.95
845.3732	906.5052	65535	64630.15
845.5183	908.5358	65535	64633.8
845.6635	910.5658	65535	64627.05
845.8086	912.595	65535	64631.45
845.9538	914.6236	65535	64629.45
846.0989	916.6515	65535	64629.75
846.2441	918.6786	65535	64627.6
846.3892	920.7051	65535	64630.95
846.5344	922.7309	65535	64631.1
846.6795	924.756	65535	64630.1
846.8246	926.7804	65535	64628.9
846.9698	928.8041	65535	64627.65
847.1149	930.8272	65535	64629.35
847.2601	932.8495	65535	64631.3
847.4052	934.8711	65535	64628.35
847.5504	936.892	65535	64631.8
847.6955	938.9123	65535	64627.8
847.8407	940.9318	65535	64628.05
847.9858	942.9506	65535	64630.9
848.131	944.9688	65535	64630.75
848.2761	946.9862	65535	64628.65
848.4213	949.003	65535	64629.1
848.5664	951.019	65535	64629.85
848.7115	953.0344	65535	64628.55
848.8567	955.0491	65535	64629.8
849.0018	957.063	65535	64631.45
849.147	959.0763	65535	64633.25
849.2921	961.0888	65535	64628.15
849.4373	963.1007	65535	64629.9
849.5824	965.1119	65535	64629.05
849.7275	967.1223	65535	64631.95
849.8727	969.1321	65535	64631.9
850.0178	971.1412	65535	64633.95
850.1629	973.1495	65535	64630
850.3081	975.1572	65535	64600.7
850.4532	977.1641	65535	64630.9
850.5983	979.1704	65535	64632.15
850.7435	981.1759	65535	64629.25
850.8886	983.1808	65535	64629.45
851.0337	985.1849	65535	64618.65
851.1788	987.1884	65535	64625.6
851.324	989.1911	65535	64627.2
851.4691	991.1932	65535	64628.55
851.6142	993.1945	65535	64629.95
851.7593	995.1951	65535	64629.2
851.9045	997.1951	65535	64622
852.0496	999.1943	65535	64630.05
852.1947	1001.1928	65535	64630.2
852.3398	1003.1906	65535	64630.85
852.4849	1005.1877	65535	64630.3
852.63	1007.1841	65535	64628.45
852.7751	1009.1798	65535	64631.15
852.9202	1011.1748	65535	64626.75
853.0653	1013.1691	65535	64628.55
853.2104	1015.1627	65535	64629.75
853.3555	1017.1556	65535	64631.4
853.5006	1019.1477	65535	64629.35
853.6457	1021.1392	65535	64632.8
853.7908	1023.1299	65535	64630.25
853.9359	1025.12	65535	64628.6
854.081	1027.1093	65535	64634.5
854.2261	1029.0979	65535	64640
854.3712	1031.0859	65535	64632.15
854.5163	1033.0731	65535	64634.15
854.6613	1035.0596	65535	64631.65
854.8064	1037.0454	65535	64630.65
854.9515	1039.0304	65535	64632.7
855.0965	1041.0148	65535	64633.05
855.2416	1042.9985	65535	64631.55
855.3867	1044.9814	65535	64631.5
855.5317	1046.9636	65535	64629.55
855.6768	1048.9452	65535	64633.75
855.8219	1050.926	65535	64633.2
855.9669	1052.9061	65535	64632.2
856.112	1054.8855	65535	64630.5
856.257	1056.8642	65535	64630.05
856.4021	1058.8421	65535	64627.15
856.5471	1060.8194	65535	64629.2
856.6921	1062.7959	65535	64633.75
856.8372	1064.7717	65535	64630.9
856.9822	1066.7469	65535	64630.5
857.1272	1068.7213	65535	64628.45
857.2723	1070.695	65535	64632.15
857.4173	1072.6679	65535	64629.15
857.5623	1074.6402	65535	64628.85
857.7073	1076.6117	65535	64624.55
857.8523	1078.5826	65535	64631.25
857.9973	1080.5527	65535	64624.85
858.1423	1082.5221	65535	64628.7
858.2873	1084.4908	65535	64631.8
858.4323	1086.4587	65535	64628.4
858.5773	1088.426	65535	64630
858.7223	1090.3925	65535	64624.7
858.8673	1092.3584	65535	64629.8
859.0123	1094.3235	65535	64629.5
859.1573	1096.2879	65535	64632.45
859.3022	1098.2515	65535	64633.75
859.4472	1100.2145	65535	64629.6
859.5922	1102.1767	65535	64625.3
859.7371	1104.1382	65535	64628.45
859.8821	1106.099	65535	64625.2
860.027	1108.0591	65535	64630.85
860.172	1110.0185	65535	64628.6
860.3169	1111.9771	65535	64630.95
860.4619	1113.9351	65535	64628.55
860.6068	1115.8923	65535	64631.3
860.7517	1117.8488	65535	64629.3
860.8967	1119.8045	65535	64629.05
861.0416	1121.7596	65535	64629.5
861.1865	1123.7139	65535	64630.9
861.3314	1125.6675	65535	64631.35
861.4763	1127.6204	65535	64630.45
861.6212	1129.5726	65535	64626.7
861.7661	1131.524	65535	64628.8
861.911	1133.4748	65535	64631.55
862.0559	1135.4248	65535	64630.65
862.2008	1137.3741	65535	64634.4
862.3457	1139.3226	65535	64628.1
862.4905	1141.2705	65535	64629.95
862.6354	1143.2176	65535	64625.65
862.7803	1145.164	65535	64629.75
862.9251	1147.1097	65535	64631.05
863.07	1149.0546	65535	64630.4
863.2148	1150.9989	65535	64626.9
863.3597	1152.9424	65535	64631.75
863.5045	1154.8852	65535	64630.5
863.6493	1156.8272	65535	64631.85
863.7942	1158.7686	65535	64623.7
863.939	1160.7092	65535	64627.4
864.0838	1162.6491	65535	64628.7
864.2286	1164.5883	65535	64630.05
864.3734	1166.5267	65535	64630.5
864.5182	1168.4644	65535	64628.9
864.663	1170.4014	65535	64624.2
864.8078	1172.3377	65535	64631.85
864.9526	1174.2732	65535	64634.7
865.0974	1176.2081	65535	64631.1
865.2421	1178.1421	65535	64627.7
865.3869	1180.0755	65535	64631.65
865.5317	1182.0082	65535	64632.6
865.6764	1183.9401	65535	64631.25
865.8212	1185.8713	65535	64632.1
865.9659	1187.8017	65535	64634.05
866.1106	1189.7315	65535	64633.4
866.2554	1191.6605	65535	64606.3
866.4001	1193.5888	65535	64630.95
866.5448	1195.5163	65535	64631.75
866.6895	1197.4432	65535	64628.45
866.8342	1199.3693	65535	64632.4
866.9789	1201.2947	65535	64631.1
867.1236	1203.2193	65535	64631.45
867.2683	1205.1432	65535	64630
867.413	1207.0664	65535	64630.95
867.5576	1208.9889	65535	64628.35
867.7023	1210.9106	65535	64630.15
867.847	1212.8316	65535	64632.6
867.9916	1214.7519	65535	64621.55
868.1363	1216.6715	65535	64631.7
868.2809	1218.5903	65535	64632.85
868.4255	1220.5084	65535	64628.55
868.5701	1222.4257	65535	64630.85
868.7148	1224.3424	65535	64632.05
868.8594	1226.2583	65535	64629.65
869.004	1228.1735	65535	64630.05
869.1486	1230.0879	65535	64629.6
869.2932	1232.0016	65535	64634.1
869.4377	1233.9146	65535	64630.25
869.5823	1235.8269	65535	64631.6
869.7269	1237.7384	65535	64630.85
869.8715	1239.6492	65535	64632.95
870.016	1241.5592	65535	64630.05
870.1606	1243.4686	65535	64631.35
870.3051	1245.3772	65535	64631.1
870.4496	1247.285	65535	64631.45
870.5941	1249.1922	65535	64630.8
870.7387	1251.0986	65535	64634.4
870.8832	1253.0042	65535	64630.2
871.0277	1254.9092	65535	64633.5
871.1722	1256.8134	65535	64632.95
871.3167	1258.7169	65535	64631.95
871.4611	1260.6196	65535	64631.9
871.6056	1262.5216	65535	64632.8
871.7501	1264.4229	65535	64632.5
871.8945	1266.3234	65535	64631.1
872.039	1268.2232	65535	64629.95
872.1834	1270.1223	65535	64630.65
872.3278	1272.0207	65535	64632.95
872.4723	1273.9183	65535	64625.3
872.6167	1275.8151	65535	64631.85
872.7611	1277.7113	65535	64631.95
872.9055	1279.6067	65535	64630.1
873.0499	1281.5014	65535	64631.9
873.1943	1283.3953	65535	64628.9
873.3386	1285.2885	65535	64634.55
873.483	1287.181	65535	64628.75
873.6274	1289.0727	65535	64634.35
873.7717	1290.9637	65535	64633.4
873.9161	1292.854	65535	64632.2
874.0604	1294.7435	65535	64631.65
874.2047	1296.6323	65535	64631.6
874.349	1298.5204	65535	64626.8
874.4933	1300.4077	65535	64631.2
874.6376	1302.2943	65535	64631.55
874.7819	1304.1802	65535	64631.35
874.9262	1306.0653	65535	64628.4
875.0705	1307.9497	65535	64632.5
875.2147	1309.8333	65535	64631.05
875.359	1311.7162	65535	64630.45
875.5032	1313.5984	65535	64630.05
875.6475	1315.4798	65535	64631.8
875.7917	1317.3605	65535	64613.9
875.9359	1319.2405	65535	64630.65
876.0801	1321.1197	65535	64629.2
876.2243	1322.9982	65535	64629.1
876.3685	1324.876	65535	64631.45
876.5127	1326.753	65535	64632.3
876.6569	1328.6293	65535	64631.35
876.801	1330.5048	65535	64627.5
876.9452	1332.3796	65535	64634.2
877.0893	1334.2537	65535	64609.7
877.2335	1336.127	65535	64633.65
877.3776	1337.9996	65535	64630.75
877.5217	1339.8714	65535	64632.35
877.6658	1341.7426	65535	64588.2
877.8099	1343.6129	65535	64633.3
877.954	1345.4826	65535	64632
878.0981	1347.3515	65535	64631.05
878.2422	1349.2196	65535	64631.95
878.3862	1351.087	65535	64630.45
878.5303	1352.9537	65535	64631.35
878.6743	1354.8197	65535	64630.4
878.8184	1356.6849	65535	64632.05
878.9624	1358.5493	65535	64632.6
879.1064	1360.4131	65535	64634.95
879.2504	1362.276	65535	64630.6
879.3944	1364.1383	65535	64631.7
879.5384	1365.9998	65535	64627.7
879.6823	1367.8606	65535	64633.1
879.8263	1369.7206	65535	64631.55
879.9702	1371.5799	65535	64631.6
880.1142	1373.4384	65535	64631.55
880.2581	1375.2962	65535	64630.3
880.402	1377.1533	65535	64632.85
880.5459	1379.0096	65535	64631.8
880.6898	1380.8652	65535	64633.25
880.8337	1382.7201	65535	64632.65
880.9776	1384.5742	65535	64631.35
881.1215	1386.4275	65535	64630.85
881.2653	1388.2802	65535	64631.7
881.4092	1390.132	65535	64631.75
881.553	1391.9832	65535	64631.5
881.6968	1393.8336	65535	64633.25
881.8406	1395.6832	65535	64631.65
881.9844	1397.5322	65535	64633.5
882.1282	1399.3803	65535	64627.95
882.272	1401.2278	65535	64631.7
882.4158	1403.0745	65535	64631.7
882.5595	1404.9204	65535	64632.95
882.7033	1406.7656	65535	64632.15
882.847	1408.6101	65535	64632.4
882.9908	1410.4538	65535	64632.8
883.1345	1412.2968	65535	64634.7
883.2782	1414.139	65535	64633.55
883.4219	1415.9805	65535	64632.6
883.5656	1417.8213	65535	64629.25
883.7092	1419.6613	65535	64630.95
883.8529	1421.5006	65535	64632.3
883.9965	1423.3391	65535	64631.85
884.1402	1425.1769	65535	64631.9
884.2838	1427.0139	65535	64632.2
884.4274	1428.8502	65535	64632.6
884.571	1430.6858	65535	64633.45
884.7146	1432.5206	65535	64633.75
884.8582	1434.3547	65535	64631.35
885.0018	1436.188	65535	64633.95
885.1453	1438.0206	65535	64631.75
885.2889	1439.8524	65535	64631.75
885.4324	1441.6835	65535	64631.95
885.5759	1443.5139	65535	64629.4
885.7194	1445.3435	65535	64632.35
885.8629	1447.1724	65535	64631.75
886.0064	1449.0005	65535	64633.55
886.1499	1450.8279	65535	64632.5
886.2933	1452.6545	65535	64632.4
886.4368	1454.4804	65535	64632.2
886.5802	1456.3056	65535	64625.5
886.7237	1458.13	65535	64635.4
886.8671	1459.9536	65535	64635.05
887.0105	1461.7766	65535	64634.2
887.1539	1463.5987	65535	64632.8
887.2972	1465.4202	65535	64634.2
887.4406	1467.2409	65535	64632.1
887.584	1469.0608	65535	64634.65
887.7273	1470.88	65535	64632.35
887.8706	1472.6984	65535	64633.8
888.0139	1474.5161	65535	64632.7
888.1572	1476.3331	65535	64633.8
888.3005	1478.1493	65535	64633.2
888.4438	1479.9648	65535	64637.1
888.5871	1481.7795	65535	64636.6
888.7303	1483.5935	65535	64633.75
888.8736	1485.4067	65535	64634.25
889.0168	1487.2192	65535	64633
889.16	1489.031	65535	64630.45
889.3032	1490.842	65535	64634.1
889.4464	1492.6522	65535	64634.65
889.5896	1494.4618	65535	64634.55
889.7327	1496.2705	65535	64633.75
889.8759	1498.0785	65535	64633.5
890.019	1499.8858	65535	64631.75
890.1622	1501.6924	65535	64632.45
890.3053	1503.4981	65535	64631.85
890.4484	1505.3032	65535	64633.35
890.5914	1507.1075	65535	64631.8
890.7345	1508.911	65535	64632.95
890.8776	1510.7138	65535	64633.85
891.0206	1512.5159	65535	64634.25
891.1637	1514.3172	65535	64634.65
891.3067	1516.1178	65535	64635.25
891.4497	1517.9176	65535	64629.95
891.5927	1519.7166	65535	64633.85
891.7357	1521.515	65535	64628.95
891.8786	1523.3126	65535	64631.45
892.0216	1525.1094	65535	64630.95
892.1645	1526.9055	65535	64635.05
892.3074	1528.7008	65535	64634.75
892.4503	1530.4954	65535	64632.8
892.5932	1532.2893	65535	64636.8
892.7361	1534.0824	65535	64628.2
892.879	1535.8747	65535	64637.3
893.0218	1537.6663	65535	64634.15
893.1647	1539.4572	65535	64635.25
893.3075	1541.2473	65535	64633.4
893.4503	1543.0367	65535	64635.55
893.5931	1544.8253	65535	64630.45
893.7359	1546.6132	65535	64630.4
893.8787	1548.4003	65535	64627.45
894.0214	1550.1867	65535	64627.15
894.1642	1551.9723	65535	64630.05
894.3069	1553.7572	65535	64632.85
894.4496	1555.5414	65535	64635.85
894.5923	1557.3247	65535	64636.65
894.735	1559.1074	65535	64638.45
894.8777	1560.8893	65535	64637.9
895.0204	1562.6705	65535	64637.9
895.163	1564.4509	65535	64637.05
895.3056	1566.2305	65535	64637.1
895.4482	1568.0094	65535	64639.65
895.5908	1569.7876	65535	64636.55
895.7334	1571.565	65535	64636.1
895.876	1573.3417	65535	64638.4
896.0186	1575.1176	65535	64636.7
896.1611	1576.8928	65535	64637.4
896.3036	1578.6672	65535	64638.8
896.4461	1580.4409	65535	64638.95
896.5886	1582.2138	65535	64634.2
896.7311	1583.986	65535	64635.3
896.8736	1585.7575	65535	64638.95
897.0161	1587.5282	65535	64639.5
897.1585	1589.2981	65535	64638.65
897.3009	1591.0673	65535	64640.1
897.4433	1592.8358	65535	64638.65
897.5857	1594.6035	65535	64636.25
897.7281	1596.3704	65535	64638.65
897.8705	1598.1366	65535	64638.5
898.0128	1599.9021	65535	64639.65
898.1551	1601.6668	65535	64637.75
898.2975	1603.4308	65535	64636.45
898.4398	1605.194	65535	64632.25
898.5821	1606.9564	65535	64640.95
898.7243	1608.7182	65535	64637.35
898.8666	1610.4791	65535	64640.2
899.0088	1612.2394	65535	64641.35
899.1511	1613.9988	65535	64639.4
899.2933	1615.7576	65535	64638.2
899.4355	1617.5156	65535	64633.4
899.5776	1619.2728	65535	64637.55
899.7198	1621.0293	65535	64637.55
899.862	1622.785	65535	64637.3
900.0041	1624.54	65535	64637.4
900.1462	1626.2942	65535	64638.75
900.2883	1628.0477	65535	64637
900.4304	1629.8005	65535	64634.6
900.5725	1631.5525	65535	64639.85
900.7145	1633.3037	65535	64638.75
900.8566	1635.0542	65535	64639.15
900.9986	1636.804	65535	64640.3
901.1406	1638.553	65535	64550.35
901.2826	1640.3013	65535	64638.65
901.4245	1642.0488	65535	64639.3
901.5665	1643.7955	65535	64639.9
901.7085	1645.5416	65535	64640.95
901.8504	1647.2868	65535	64640.15
901.9923	1649.0313	65535	64639.5
902.1342	1650.7751	65535	64635.75
902.2761	1652.5181	65535	64639.75
902.4179	1654.2604	65535	64640.8
902.5598	1656.0019	65535	64641.35
902.7016	1657.7427	65535	64640.05
902.8434	1659.4828	65535	64640.3
902.9852	1661.222	65535	64637.55
903.127	1662.9606	65535	64640.75
903.2687	1664.6984	65535	64638.55
903.4105	1666.4354	65535	64639.2
903.5522	1668.1717	65535	64639.95
903.6939	1669.9072	65519.6	64623.7
903.8356	1671.642	65523.2	64624.65
903.9773	1673.3761	65518.75	64623.55
904.119	1675.1094	65514.55	64620.35
904.2606	1676.8419	65451.55	64556.55
904.4022	1678.5737	65486.3	64593.6
904.5439	1680.3048	65452.55	64556.2
904.6855	1682.0351	65428.15	64532.6
904.827	1683.7646	65403.45	64504.8
904.9686	1685.4934	65439.45	64544.1
905.1101	1687.2215	65276.35	64382.1
905.2517	1688.9488	65415.55	64521.05
905.3932	1690.6754	65167.9	64274.9
905.5347	1692.4012	65296.7	64401.1
905.6761	1694.1263	65318.7	64424.4
905.8176	1695.8506	65198.15	64302.55
905.9591	1697.5742	65214.4	64320.95
906.1005	1699.297	65193.4	64300.15
906.2419	1701.0191	65221.65	64329.5
906.3833	1702.7404	65073.45	64180.15
906.5246	1704.461	65020.6	64125.45
906.666	1706.1808	65132.3	64236.1
906.8073	1707.8999	65073.4	64176.9
906.9487	1709.6182	65044.75	64151.4
907.09	1711.3358	65048.35	64157.05
907.2313	1713.0527	65021.15	64128.15
907.3725	1714.7688	65027.15	64128.75
907.5138	1716.4841	64843.85	63948.65
907.655	1718.1987	64914.95	64016.35
907.7962	1719.9126	64860.3	63970.45
907.9374	1721.6257	64925.2	64028.95
908.0786	1723.338	64951	64058.4
908.2198	1725.0496	64678.9	63782.45
908.3609	1726.7605	64726.95	63832.3
908.502	1728.4706	64635.15	63738.9
908.6431	1730.18	64771.6	63876.5
908.7842	1731.8886	64609.65	63716.5
908.9253	1733.5964	64500.9	63603.7
909.0664	1735.3036	64675.2	63780.45
909.2074	1737.0099	64560.3	63665.55
909.3484	1738.7156	64432.6	63541.3
909.4894	1740.4204	64373.95	63479.55
909.6304	1742.1246	64456.15	63561.3
909.7714	1743.8279	64485.65	63592.35
909.9123	1745.5306	64457.15	63563.4
910.0532	1747.2325	64027.55	63135.7
910.1941	1748.9336	64039.7	63147.75
910.335	1750.634	64183.4	63290
910.4759	1752.3336	64307.1	63413.1
910.6168	1754.0325	63972.6	63081.5
910.7576	1755.7307	64290.85	63398.25
910.8984	1757.4281	63840.45	62948.05
911.0392	1759.1247	64182.6	63280.65
911.18	1760.8206	63626.6	62729.4
911.3208	1762.5158	63701.65	62804.5
911.4615	1764.2102	63848.75	62957.55
911.6022	1765.9039	63776.7	62883.6
911.7429	1767.5968	63622.45	62729.35
911.8836	1769.289	63548.1	62656.4
912.0243	1770.9804	63653.35	62759.5
912.1649	1772.6711	63509.15	62616.25
912.3056	1774.361	63391.55	62498.9
912.4462	1776.0502	63399.6	62504.75
912.5868	1777.7386	62813.75	61917.8
912.7274	1779.4263	63192.35	62299.85
912.8679	1781.1132	63132.05	62240.7
913.0084	1782.7994	63071.1	62178.15
913.149	1784.4849	63082.85	62192.35
913.2895	1786.1696	62377.65	61480.75
913.4299	1787.8535	62834.45	61941.85
913.5704	1789.5367	62876.8	61984.4
913.7108	1791.2192	62417.2	61523.45
913.8513	1792.9009	62100.2	61175.3
913.9917	1794.5818	62481.7	61587.3
914.132	1796.2621	62087.75	61196.15
914.2724	1797.9415	62184.4	61291.35
914.4128	1799.6202	62124.7	61230.85
914.5531	1801.2982	62117.4	61223.25
914.6934	1802.9755	61611.15	60717.4
914.8337	1804.6519	61482.65	60588.95
914.9739	1806.3277	62158.2	61266.7
915.1142	1808.0027	61008.15	60118.05
915.2544	1809.6769	61463.25	60569.55
915.3946	1811.3504	61510.8	60618.75
915.5348	1813.0231	60582.15	59690.6
915.675	1814.6951	61229.45	60338.15
915.8151	1816.3664	60794.5	59899.25
915.9553	1818.0369	60867.6	59975.9
916.0954	1819.7067	60601.7	59712
916.2355	1821.3757	61092.95	60199
916.3755	1823.044	60265	59373.7
916.5156	1824.7115	59817.9	58924.95
916.6556	1826.3783	60056.85	59165.1
916.7956	1828.0443	60178.65	59287.85
916.9356	1829.7096	59866.45	58974.05
917.0756	1831.3741	59182.7	58285.25
917.2155	1833.0379	59589	58698.8
917.3555	1834.701	59614	58719.4
917.4954	1836.3633	59060.2	58168
917.6353	1838.0248	59357	58462.8
917.7751	1839.6856	59168.95	58276.55
917.915	1841.3457	58558.35	57665.9
918.0548	1843.005	59226.6	58334.75
918.1946	1844.6636	58817.25	57926.1
918.3344	1846.3214	58119.2	57228.6
918.4742	1847.9785	58299.7	57407.15
918.6139	1849.6349	58154.9	57261.95
918.7537	1851.2904	58671.9	57768.2
918.8934	1852.9453	57795.55	56904.35
919.0331	1854.5994	58143.45	57248.55
919.1727	1856.2528	58098.35	57200.9
919.3124	1857.9054	57568.85	56677
919.452	1859.5572	57379.3	56488.75
919.5916	1861.2083	57561.3	56670
919.7312	1862.8587	58092.7	57201.8
919.8708	1864.5084	56655.1	55761.25
920.0103	1866.1572	57230.5	56341.45
920.1498	1867.8054	56466.7	55574.1
920.2893	1869.4528	56904.1	56013.35
920.4288	1871.0994	56333.1	55442.15
920.5683	1872.7453	56287.3	55396.15
920.7077	1874.3905	56531.95	55634
920.8471	1876.0349	55970	55076.8
920.9865	1877.6786	56419	55528.1
921.1259	1879.3215	55868.75	54976.95
921.2653	1880.9637	56393.45	55499.95
921.4046	1882.6051	55769.8	54878.8
921.5439	1884.2458	55509.4	54615.85
921.6832	1885.8858	55196.5	54303.85
921.8225	1887.525	55434.85	54543.6
921.9617	1889.1634	55240.5	54347.8
922.101	1890.8011	54978.1	54087
922.2402	1892.4381	54340.85	53446.65
922.3794	1894.0743	54954.85	54062.45
922.5185	1895.7098	54557.55	53666.85
922.6577	1897.3446	54154.65	53263.6
922.7968	1898.9786	54349.05	53451.3
922.9359	1900.6118	53986.2	53096.35
923.075	1902.2443	53700	52805.8
923.214	1903.8761	53930.55	53042.45
923.3531	1905.5071	53558.5	52665.75
923.4921	1907.1374	52897.25	52005.25
923.6311	1908.7669	53116.95	52226.4
923.77	1910.3957	53399.6	52507.7
923.909	1912.0237	52715.8	51824.5
924.0479	1913.651	52465.55	51572.3
924.1868	1915.2776	52332.15	51441.65
924.3257	1916.9034	52330.45	51440.7
924.4646	1918.5285	52034.8	51145.75
924.6034	1920.1528	51997.55	51106.65
924.7422	1921.7764	51811.15	50917.95
924.881	1923.3992	51654.2	50761.85
925.0198	1925.0213	51339.2	50448.45
925.1586	1926.6427	50896.4	50006
925.2973	1928.2633	51063.85	50091.05
925.436	1929.8832	50842.5	49950.05
925.5747	1931.5023	50719.1	49826.4
925.7134	1933.1207	50363.65	49472.45
925.852	1934.7383	50449.9	49559.1
925.9906	1936.3552	50125.65	49234.35
926.1292	1937.9714	50084.2	49193
926.2678	1939.5868	49969.5	49075.9
926.4064	1941.2015	49525.75	48634.3
926.5449	1942.8154	49248.95	48356.5
926.6834	1944.4286	49178.05	48286.95
926.8219	1946.041	49070.2	48157.55
926.9604	1947.6528	48784.8	47888.5
927.0988	1949.2637	48670.85	47781.3
927.2372	1950.8739	48414.55	47522.8
927.3756	1952.4834	48486.2	47594.85
927.514	1954.0921	48360.6	47469.65
927.6523	1955.7001	48014.2	47118.15
927.7907	1957.3074	48012	47121.8
927.929	1958.9139	47648.65	46759.65
928.0673	1960.5197	47658.8	46766.65
928.2055	1962.1247	47423.1	46533.55
928.3438	1963.729	47186.65	46296.3
928.482	1965.3325	47051.15	46136.3
928.6202	1966.9353	46944.1	46053.3
928.7584	1968.5374	46676.7	45785.3
928.8965	1970.1387	46583.35	45693.1
929.0346	1971.7393	46432.05	45540.4
929.1727	1973.3392	46267.6	45377.45
929.3108	1974.9383	46064.85	45174.9
929.4489	1976.5366	45871.45	44981.2
929.5869	1978.1342	45812.5	44920.6
929.7249	1979.7311	45679.35	44787.85
929.8629	1981.3273	45519.6	44628.15
930.0009	1982.9227	45382.65	44490.45
930.1388	1984.5173	45210.7	44322.5
930.2767	1986.1112	44987.4	44098.9
930.4146	1987.7044	44987.25	44097.1
930.5525	1989.2968	44643.85	43754
930.6904	1990.8885	44633.95	43741.15
930.8282	1992.4795	44497.6	43605.4
930.966	1994.0697	44381.8	43492.15
931.1038	1995.6592	44155.2	43266.15
931.2415	1997.2479	44058.2	43167.1
931.3793	1998.8359	43918.4	43030.4
931.517	2000.4232	43731.6	42842.8
931.6547	2002.0097	43644.5	42755.75
931.7923	2003.5955	43400.7	42511
931.93	2005.1805	43374.95	42481.8
932.0676	2006.7648	43287.85	42398.75
932.2052	2008.3484	43082.85	42192.85
932.3427	2009.9312	43053.7	42163.4
932.4803	2011.5133	42849.6	41961.8
932.6178	2013.0946	42739.8	41850.1
932.7553	2014.6752	42579.7	41690
932.8928	2016.2551	42502.9	41611.35
933.0302	2017.8342	42306.6	41417.05
933.1676	2019.4126	42173	41284.55
933.305	2020.9902	42025.8	41137.3
933.4424	2022.5672	41956.25	41065.2
933.5798	2024.1433	41838.25	40942.25
933.7171	2025.7188	41644.25	40756.4
933.8544	2027.2935	41516.6	40627.6
933.9917	2028.8674	41303	40416
934.129	2030.4406	41254.2	40366.05
934.2662	2032.0131	41026.55	40137.15
934.4034	2033.5849	40928.6	40032.35
934.5406	2035.1559	40859.85	39971.55
934.6778	2036.7261	40796.2	39908.1
934.8149	2038.2957	40635.95	39745.95
934.952	2039.8645	40606.45	39717.1
935.0891	2041.4325	40600.75	39710.4
935.2262	2042.9998	40383	39492.4
935.3632	2044.5664	40211.5	39320.05
935.5002	2046.1323	40081.6	39190.9
935.6372	2047.6974	39959.35	39068.45
935.7742	2049.2617	39901.55	39012.6
935.9111	2050.8254	39878	38985.3
936.048	2052.3883	39791.9	38901
936.1849	2053.9504	39605	38717.4
936.3218	2055.5118	39445	38556.5
936.4586	2057.0725	39255.65	38361.15
936.5955	2058.6325	39145.6	38254.95
936.7323	2060.1917	39027.9	38140.15
936.869	2061.7502	38976.95	38085.15
937.0058	2063.3079	38809.75	37921.15
937.1425	2064.8649	38662.05	37770
937.2792	2066.4212	38577.8	37686.75
937.4159	2067.9767	38467	37579.2
937.5525	2069.5315	38230	37340.25
937.6891	2071.0856	38076.65	37186.95
937.8257	2072.6389	37944.3	37055
937.9623	2074.1915	37817.8	36931.9
938.0989	2075.7433	37581.05	36689.9
938.2354	2077.2945	37538.65	36649.95
938.3719	2078.8448	37402.1	36511.4
938.5084	2080.3945	37329.9	36438.55
938.6448	2081.9434	37300.45	36412.5
938.7812	2083.4916	37187.7	36298.6
938.9176	2085.039	36997.5	36106.95
939.054	2086.5857	36937.75	36044.9
939.1903	2088.1317	36851.75	35960.9
939.3267	2089.677	36710.4	35819.7
939.463	2091.2215	36619.75	35731.1
939.5992	2092.7652	36476.5	35583.2
939.7355	2094.3083	36438.6	35547.55
939.8717	2095.8506	36338.45	35448.65
940.0079	2097.3921	36329.9	35440.5
940.1441	2098.933	36153.2	35262.65
940.2802	2100.4731	36028.4	35140.15
940.4163	2102.0124	35975.45	35079.05
940.5524	2103.5511	35886.85	34998.2
940.6885	2105.089	35803.3	34915.3
940.8245	2106.6261	35690.35	34799.2
940.9606	2108.1626	35628.6	34737.6
941.0965	2109.6983	35531.15	34611.25
941.2325	2111.2332	35414.4	34524.8
941.3684	2112.7675	35249.75	34358.25
941.5044	2114.301	35164.4	34272.6
941.6403	2115.8337	35162.5	34274
941.7761	2117.3657	35044.45	34155.05
941.912	2118.897	34955.95	34064.4
942.0478	2120.4276	34836.45	33940.4
942.1835	2121.9575	34635.25	33745.5
942.3193	2123.4866	34664.4	33760.9
942.455	2125.0149	34552.05	33660.45
942.5907	2126.5426	34315.9	33425.9
942.7264	2128.0695	34275.15	33380.3
942.8621	2129.5956	34227.1	33337.65
942.9977	2131.1211	34119.35	33226.3
943.1333	2132.6458	33990.2	33099.9
943.2689	2134.1698	33968.95	33078.95
943.4044	2135.693	33821.25	32928.6
943.54	2137.2155	33756.2	32864.3
943.6755	2138.7373	33674.9	32784.95
943.8109	2140.2584	33567.9	32677.05
943.9464	2141.7787	33432.75	32537.95
944.0818	2143.2983	33280.4	32391.55
944.2172	2144.8171	33125.7	32236.35
944.3526	2146.3353	33028.4	32139.4
944.4879	2147.8527	32865.15	31976
944.6232	2149.3693	32875.9	31988.15
944.7585	2150.8853	32710.1	31818.7
944.8938	2152.4005	32515.4	31626.2
945.029	2153.9149	32502.9	31613.7
945.1642	2155.4287	32360.35	31470.1
945.2994	2156.9417	32368.65	31476.45
945.4346	2158.454	32309.25	31416.95
945.5697	2159.9655	32132.3	31244.2
945.7048	2161.4764	32107	31217.9
945.8399	2162.9865	31952.85	31065.95
945.9749	2164.4958	31917.75	31027.9
946.1099	2166.0045	31702.6	30810.9
946.2449	2167.5124	31758.55	30866.7
946.3799	2169.0195	31630.6	30742.05
946.5148	2170.526	31629.55	30739.15
946.6498	2172.0317	31455.95	30566.55
946.7846	2173.5367	31405.35	30514.35
946.9195	2175.0409	31293	30403.4
947.0543	2176.5445	31249.6	30360.25
947.1891	2178.0473	31100.35	30210.55
947.3239	2179.5494	30943.95	30051.3
947.4587	2181.0507	30827.35	29936.9
947.5934	2182.5513	30749.75	29860
947.7281	2184.0512	30695.5	29806.1
947.8628	2185.5504	30592.15	29703.15
947.9974	2187.0488	30417.85	29528.85
948.132	2188.5465	30303.4	29414.9
948.2666	2190.0435	30204.3	29313.7
948.4012	2191.5397	30110.5	29219.05
948.5357	2193.0353	30034.15	29145.3
948.6702	2194.5301	29855.15	28963.3
948.8047	2196.0241	29772.9	28884.75
948.9392	2197.5175	29650.7	28760.7
949.0736	2199.0101	29524.4	28630.6
949.208	2200.502	29412.65	28523.4
949.3424	2201.9931	29309.2	28418.75
949.4767	2203.4835	29205.5	28313.8
949.611	2204.9733	29133.95	28238.25
949.7453	2206.4622	29055.85	28167.3
949.8796	2207.9505	28972.4	28079.75
950.0138	2209.438	28822.25	27936
950.148	2210.9248	28734.25	27844.75
950.2822	2212.4109	28659.85	27770.45
950.4164	2213.8962	28516.5	27623.8
950.5505	2215.3809	28462.6	27569.15
950.6846	2216.8648	28396.2	27505.45
950.8186	2218.3479	28287.45	27392.65
950.9527	2219.8304	28196.75	27303.2
951.0867	2221.3121	28097.95	27204
951.2207	2222.7931	27972.5	27084.6
951.3546	2224.2733	27876.2	26985.2
951.4886	2225.7529	27775	26884.5
951.6225	2227.2317	27712.9	26819.2
951.7563	2228.7098	27627	26736.8
951.8902	2230.1872	27489.95	26601.65
952.024	2231.6638	27434.7	26544.35
952.1578	2233.1397	27285.8	26389.2
952.2916	2234.6149	27231.75	26339.4
952.4253	2236.0894	27156.2	26265.15
952.559	2237.5632	27107	26217.6
952.6927	2239.0362	26948.45	26060.6
952.8263	2240.5085	26881.3	25991.9
952.9599	2241.9801	26730.4	25842
953.0935	2243.4509	26701.8	25812.75
953.2271	2244.921	26583.65	25693.1
953.3606	2246.3904	26509.7	25618.4
953.4941	2247.8591	26406.4	25516.45
953.6276	2249.3271	26324.05	25433.85
953.7611	2250.7943	26254.75	25364
953.8945	2252.2608	26125.75	25235.9
954.0279	2253.7266	26047.75	25158.25
954.1612	2255.1917	25981.05	25092.15
954.2946	2256.656	25924.85	25033.35
954.4279	2258.1197	25824.8	24934.5
954.5612	2259.5826	25735.9	24846.45
954.6944	2261.0447	25671.9	24778.75
954.8276	2262.5062	25552.05	24661.1
954.9608	2263.9669	25484.9	24592.8
955.094	2265.4269	25467.45	24579.35
955.2271	2266.8862	25366.6	24478.05
955.3602	2268.3448	25259.05	24369.75
955.4933	2269.8026	25228.15	24338.05
955.6264	2271.2598	25201.05	24313.6
955.7594	2272.7162	25078.4	24188.95
955.8924	2274.1719	24991.15	24102.35
956.0253	2275.6268	24905.9	24016.2
956.1583	2277.0811	24846.3	23956.4
956.2912	2278.5346	24815.7	23926.75
956.4241	2279.9874	24759.45	23869.7
956.5569	2281.4395	24705.1	23815.55
956.6897	2282.8908	24566.45	23670.6
956.8225	2284.3414	24520.9	23630.85
956.9553	2285.7914	24406.9	23518.6
957.088	2287.2406	24343.7	23450.7
957.2207	2288.689	24288.55	23399.8
957.3534	2290.1368	24164.4	23274.05
957.486	2291.5838	24096.5	23205.45
957.6186	2293.0302	24011.1	23121.6
957.7512	2294.4758	23907.8	23019
957.8838	2295.9206	23814.65	22922.1
958.0163	2297.3648	23770.05	22879.05
958.1488	2298.8082	23742.4	22850.1
958.2813	2300.251	23648.75	22759.65
958.4137	2301.693	23567.6	22676.05
958.5461	2303.1343	23513.3	22622.65
958.6785	2304.5748	23415.55	22524.3
958.8108	2306.0147	23360.25	22469.5
958.9432	2307.4538	23280.5	22388.2
959.0754	2308.8922	23197.15	22308.9
959.2077	2310.3299	23158.65	22270.2
959.3399	2311.7669	23043.25	22155.2
959.4721	2313.2031	22993.1	22104.5
959.6043	2314.6387	22874.2	21983.3
959.7365	2316.0735	22818	21926.9
959.8686	2317.5076	22768.55	21878.4
960.0006	2318.941	22719.3	21827.4
960.1327	2320.3737	22635.9	21745.3
960.2647	2321.8056	22561.75	21669.2
960.3967	2323.2369	22417.6	21526.55
960.5287	2324.6674	22395.75	21503.5
960.6606	2326.0972	22301.85	21411.8
960.7925	2327.5263	22250.55	21360.6
960.9244	2328.9547	22163.25	21275.4
961.0562	2330.3823	22107.25	21216
961.1881	2331.8092	22095.1	21202
961.3198	2333.2355	21962	21072.35
961.4516	2334.661	21921.65	21031.4
961.5833	2336.0858	21863.95	20972.7
961.715	2337.5098	21805.1	20917.1
961.8467	2338.9332	21782.25	20892.6
961.9783	2340.3558	21658.95	20765.45
962.1099	2341.7778	21567.6	20677.95
962.2415	2343.199	21507.25	20616.9
962.373	2344.6195	21438.5	20548.85
962.5045	2346.0393	21375.5	20485.65
962.636	2347.4583	21347.1	20454.05
962.7675	2348.8767	21274.6	20383.45
962.8989	2350.2943	21204.05	20314.55
963.0303	2351.7113	21146.2	20256.35
963.1617	2353.1275	21082.4	20193.85
963.293	2354.543	21028.85	20131.75
963.4243	2355.9578	20942.95	20052.5
963.5556	2357.3718	20808.25	19917.9
963.6868	2358.7852	20748.05	19855.4
963.818	2360.1978	20672.3	19780.55
963.9492	2361.6098	20598.3	19707.8
964.0803	2363.021	20553.15	19658.9
964.2114	2364.4315	20476	19584.65
964.3425	2365.8413	20407.45	19516.7
964.4736	2367.2504	20378.9	19488.9
964.6046	2368.6587	20219.6	19330.95
964.7356	2370.0664	20137.15	19247.4
964.8666	2371.4733	20081.65	19192.1
964.9975	2372.8795	20016.4	19128.8
965.1284	2374.285	19939.05	19047.8
965.2593	2375.6899	19842.75	18953
965.3901	2377.0939	19750.65	18862.45
965.5209	2378.4973	19673.6	18786
965.6517	2379.9	19624.2	18735.8
965.7825	2381.3019	19562.65	18673.2
965.9132	2382.7032	19500.6	18612.35
966.0439	2384.1037	19452.8	18564.95
966.1745	2385.5035	19388.5	18501.65
966.3051	2386.9027	19306.85	18421
966.4357	2388.3011	19276.45	18383.7
966.5663	2389.6987	19185.9	18295.85
966.6968	2391.0957	19124	18236.7
966.8273	2392.492	19024	18134.25
966.9578	2393.8876	18888	17997.1
967.0882	2395.2824	18816.85	17926.5
967.2186	2396.6765	18739	17850.35
967.349	2398.07	18653.5	17766.9
967.4793	2399.4627	18625.55	17734.2
967.6097	2400.8547	18576.6	17687.8
967.7399	2402.246	18500.7	17605.05
967.8702	2403.6366	18420.65	17531.25
968.0004	2405.0265	18315.45	17427.4
968.1306	2406.4156	18272.4	17378.2
968.2607	2407.8041	18186.35	17294.75
968.3909	2409.1918	18126.35	17235.5
968.521	2410.5789	18042.5	17154.1
968.651	2411.9652	17978.25	17087.05
968.781	2413.3508	17913.95	17023.05
968.911	2414.7358	17874.45	16984.95
969.041	2416.12	17805.4	16915.15
969.1709	2417.5035	17778.45	16889.2
969.3008	2418.8863	17685.55	16795.1
969.4307	2420.2684	17623.15	16734.7
969.5606	2421.6497	17537.85	16649.7
969.6904	2423.0304	17426.7	16538.1
969.8201	2424.4104	17396.6	16506.35
969.9499	2425.7896	17343.5	16451.35
970.0796	2427.1682	17303.75	16413.05
970.2093	2428.546	17232.2	16342.05
970.3389	2429.9232	17205.3	16315.25
970.4685	2431.2996	17158.8	16270.65
970.5981	2432.6753	17100.95	16212.25
970.7277	2434.0503	17087.8	16198.95
970.8572	2435.4246	16996.6	16107.75
970.9867	2436.7982	16896.85	16005.95
971.1161	2438.1711	16844.9	15954.3
971.2456	2439.5433	16789.8	15899.45
971.375	2440.9148	16689.85	15794.3
971.5043	2442.2856	16647.2	15759.1
971.6336	2443.6557	16624.2	15733.8
971.7629	2445.025	16541.05	15651.05
971.8922	2446.3937	16506.6	15618.4
972.0214	2447.7617	16434.75	15544
972.1506	2449.1289	16422.45	15533.85
972.2798	2450.4955	16355.85	15463.45
972.4089	2451.8613	16292.55	15403.25
972.538	2453.2265	16253.7	15364.2
972.6671	2454.5909	16206.1	15317.05
972.7961	2455.9546	16178.45	15291.7
972.9251	2457.3177	16087.35	15198.35
973.0541	2458.68	16022.75	15131.15
973.1831	2460.0416	16001	15112.1
973.312	2461.4025	15991.7	15099.95
973.4408	2462.7627	15919.1	15019.05
973.5697	2464.1222	15881.85	14992.7
973.6985	2465.4811	15831	14940.25
973.8273	2466.8392	15752.95	14865.6
973.956	2468.1966	15734.25	14843
974.0847	2469.5533	15726.35	14834.9
974.2134	2470.9093	15645.25	14754.45
974.3421	2472.2645	15605.4	14714.75
974.4707	2473.6191	15547	14660.05
974.5993	2474.973	15481.05	14590.8
974.7278	2476.3262	15426.95	14534.7
974.8563	2477.6787	15347.1	14457.75
974.9848	2479.0305	15281.45	14389.5
975.1132	2480.3816	15239	14350.1
975.2417	2481.7319	15189.9	14300.6
975.37	2483.0816	15130.8	14239.3
975.4984	2484.4306	15066.45	14176.2
975.6267	2485.7789	15027.05	14137.75
975.755	2487.1264	14953.15	14064.35
975.8833	2488.4733	14900.05	14011.25
976.0115	2489.8195	14830.75	13933.85
976.1397	2491.165	14764.15	13870.55
976.2678	2492.5097	14697.95	13805.05
976.3959	2493.8538	14664.75	13774.5
976.524	2495.1972	14562.25	13673
976.6521	2496.5398	14524.4	13633.45
976.7801	2497.8818	14492.45	13600.85
976.9081	2499.2231	14430.85	13540.35
977.036	2500.5637	14391.15	13500.1
977.164	2501.9035	14316.6	13425.85
977.2918	2503.2427	14267.45	13374.2
977.4197	2504.5812	14227.05	13338.55
977.5475	2505.919	14210.65	13317.65
977.6753	2507.256	14200	13310.75
977.8031	2508.5924	14098.5	13208.05
977.9308	2509.9281	14056.75	13161.05
978.0585	2511.2631	14007.9	13120.6
978.1861	2512.5974	13956.15	13067.85
978.3137	2513.9309	13896.45	13006.55
978.4413	2515.2638	13867.8	12952
978.5689	2516.596	13841.05	12952.05
978.6964	2517.9275	13757.4	12866.05
978.8239	2519.2583	13742.25	12851.5
978.9513	2520.5884	13644.55	12753.15
979.0788	2521.9178	13617.6	12726.5
979.2062	2523.2465	13556.25	12666.15
979.3335	2524.5745	13506.7	12616.1
979.4608	2525.9018	13446.8	12556.25
979.5881	2527.2284	13449.45	12560.45
979.7154	2528.5543	13401.55	12514.2
979.8426	2529.8796	13356.25	12466.35
979.9698	2531.2041	13330.4	12441.95
980.0969	2532.5279	13271.6	12382.35
980.224	2533.851	13248.65	12359.8
980.3511	2535.1735	13194.3	12304.65
980.4781	2536.4952	13152.3	12261.7
980.6052	2537.8163	13129.7	12240.9
980.7321	2539.1366	13112.25	12224.7
980.8591	2540.4562	13028.7	12140.2
980.986	2541.7752	12984.65	12096.9
981.1129	2543.0935	13004.15	12113.85
981.2397	2544.411	12964.95	12073.4
981.3665	2545.7279	12934.05	12043.1
981.4933	2547.0441	12901.8	12011.6
981.62	2548.3596	12875.3	11983.45
981.7467	2549.6744	12836.55	11946.75
981.8734	2550.9885	12780.2	11883.05
982.0001	2552.3019	12756.2	11867.4
982.1267	2553.6146	12751.75	11860.85
982.2532	2554.9266	12649.85	11760.8
982.3798	2556.2379	12625.85	11734.6
982.5063	2557.5485	12592.1	11703.05
982.6327	2558.8585	12564.9	11669.55
982.7592	2560.1677	12564.45	11671.65
982.8856	2561.4762	12535.95	11647.05
983.0119	2562.7841	12474.7	11582.35
983.1383	2564.0913	12459.55	11570.8
983.2646	2565.3977	12431.6	11542
983.3908	2566.7035	12384.6	11494.2
983.517	2568.0086	12378.25	11487
983.6432	2569.313	12346.7	11455.6
983.7694	2570.6167	12308.65	11417.55
983.8955	2571.9197	12270.05	11382.65
984.0216	2573.222	12231.15	11337.6
984.1476	2574.5236	12234.7	11346.4
984.2737	2575.8246	12207.7	11315.2
984.3996	2577.1248	12169.55	11278.65
984.5256	2578.4244	12141	11253.5
984.6515	2579.7232	12124.15	11235.2
984.7774	2581.0214	12122.1	11208.2
984.9032	2582.3189	12051.6	11162.65
985.029	2583.6157	12020.8	11126.75
985.1548	2584.9118	11995.85	11105.4
985.2806	2586.2072	11945.3	11057.45
985.4063	2587.5019	11910.45	11020.6
985.5319	2588.7959	11871.15	10981
985.6576	2590.0893	11871.95	10981.45
985.7832	2591.3819	11840.2	10949.1
985.9087	2592.6739	11773.15	10884.3
986.0343	2593.9652	11730.7	10841.2
986.1597	2595.2557	11713.35	10824.05
986.2852	2596.5456	11640.9	10748.9
986.4106	2597.8348	11631.95	10743.6
986.536	2599.1234	11557.55	10669
986.6614	2600.4112	11531.85	10641.75
986.7867	2601.6983	11506.7	10612.8
986.912	2602.9848	11439.95	10550.3
987.0372	2604.2705	11407.1	10510.65
987.1624	2605.5556	11394.4	10503.85
987.2876	2606.84	11345	10457.75
987.4128	2608.1237	11294.9	10405.35
987.5379	2609.4067	11269.3	10382.95
987.6629	2610.689	11204.05	10307.65
987.788	2611.9707	11154.9	10263.95
987.913	2613.2516	11141.4	10248.05
988.0379	2614.5319	11081.15	10190.55
988.1629	2615.8115	11030.3	10138.85
988.2878	2617.0903	10984.8	10093
988.4126	2618.3685	10941.85	10051.4
988.5375	2619.6461	10907.4	10017.8
988.6622	2620.9229	10862.5	9972.25
988.787	2622.199	10856	9966.15
988.9117	2623.4745	10801.1	9913.45
989.0364	2624.7493	10765.8	9876.6
989.161	2626.0234	10719.2	9829.45
989.2857	2627.2968	10706.35	9815.85
989.4102	2628.5695	10649.95	9758.65
989.5348	2629.8415	10586.95	9698.6
989.6593	2631.1128	10547.65	9658.2
989.7837	2632.3835	10537.3	9648.7
989.9082	2633.6535	10467.05	9577.7
990.0326	2634.9228	10429.9	9541.4
990.1569	2636.1914	10398	9508.55
990.2812	2637.4593	10372.7	9481.6
990.4055	2638.7265	10344.4	9454.1
990.5298	2639.9931	10294.7	9404.95
990.654	2641.259	10250.1	9358.35
990.7782	2642.5242	10239.35	9350.3
990.9023	2643.7887	10199.35	9310.15
991.0264	2645.0525	10166.6	9276.85
991.1505	2646.3156	10133.1	9241.2
991.2745	2647.5781	10106.6	9215.85
991.3985	2648.8398	10060.4	9170.7
991.5225	2650.1009	10019.25	9090.9
991.6464	2651.3613	9988.45	9099.25
991.7703	2652.6211	9983.75	9095.6
991.8942	2653.8801	9929.3	9041.75
992.018	2655.1385	9898.5	9005.65
992.1418	2656.3961	9891.2	9002.65
992.2655	2657.6531	9868.05	8980.6
992.3892	2658.9094	9835.7	8945.4
992.5129	2660.1651	9804.8	8915.15
992.6366	2661.42	9773.75	8883.45
992.7602	2662.6743	9757.8	8867.45
992.8837	2663.9279	9728.1	8838.75
993.0073	2665.1808	9688.4	8798.15
993.1307	2666.433	9665.05	8775
993.2542	2667.6846	9625.8	8738.1
993.3776	2668.9354	9595.8	8705.45
993.501	2670.1856	9564.05	8674.55
993.6244	2671.4351	9559.8	8670.7
993.7477	2672.6839	9535.3	8644.05
993.8709	2673.9321	9507.4	8618.85
993.9942	2675.1795	9461.2	8571.35
994.1174	2676.4263	9428.85	8540.1
994.2405	2677.6724	9416.5	8526.5
994.3637	2678.9179	9378.85	8490.45
994.4868	2680.1626	9367	8478.4
994.6098	2681.4067	9348.4	8457.5
994.7328	2682.6501	9316	8427.9
994.8558	2683.8928	9285.15	8396.3
994.9788	2685.1348	9228.6	8340.4
995.1017	2686.3761	9160.65	8272.35
995.2245	2687.6168	9143.7	8254.85
995.3474	2688.8568	9128.05	8238.95
995.4702	2690.0961	9083.45	8194.55
995.5929	2691.3348	9097.1	8208.15
995.7156	2692.5727	9060.85	8171.4
995.8383	2693.81	9013.15	8124.45
995.961	2695.0466	8990	8103.6
996.0836	2696.2826	8947.25	8057.9
996.2062	2697.5178	8936.8	8044.9
996.3287	2698.7524	8906.25	8018.1
996.4512	2699.9863	8899	8007.75
996.5737	2701.2195	8843.95	7957.1
996.6961	2702.452	8825.15	7935.5
996.8185	2703.6839	8778.3	7888.3
996.9408	2704.9151	8756.95	7868.45
997.0631	2706.1456	8726.8	7840.05
997.1854	2707.3755	8708.35	7818.35
997.3077	2708.6046	8670.85	7780.9
997.4299	2709.8331	8654.3	7765.2
997.552	2711.0609	8598.45	7708.6
997.6742	2712.2881	8620.05	7733.8
997.7963	2713.5145	8580.4	7688.95
997.9183	2714.7403	8564.8	7674.85
998.0403	2715.9654	8530.55	7641.6
998.1623	2717.1899	8530.3	7626.15
998.2842	2718.4136	8493.75	7604.25
998.4062	2719.6367	8483.7	7594.6
998.528	2720.8591	8476.55	7580.3
998.6498	2722.0809	8424.25	7535.15
998.7716	2723.3019	8408	7516.55
998.8934	2724.5223	8369.65	7479.25
999.0151	2725.7421	8382.65	7493.9
999.1368	2726.9611	8335.4	7444.45
999.2584	2728.1795	8337.75	7442.45
999.38	2729.3972	8258.25	7368.55
999.5016	2730.6142	8242.55	7342.7
999.6231	2731.8306	8186.2	7296.55
999.7446	2733.0462	8158.75	7269.85
999.8661	2734.2612	8093.7	7199.2
999.9875	2735.4756	8042.35	7150.95
1000.1089	2736.6892	8004.45	7113.9
1000.2302	2737.9022	7953.95	7064.1
1000.3515	2739.1145	7923.95	7036.05
1000.4728	2740.3262	7905.95	7009
1000.594	2741.5372	7842.65	6954.1
1000.7152	2742.7475	7807	6917.55
1000.8363	2743.9571	7780.25	6891.35
1000.9575	2745.1661	7749.15	6855.55
1001.0785	2746.3744	7731.55	6840.9
1001.1996	2747.582	7713.45	6824.75
1001.3206	2748.7889	7669.35	6779.25
1001.4415	2749.9952	7640.45	6752.95
1001.5625	2751.2008	7594.65	6704.45
1001.6833	2752.4057	7567	6677.2
1001.8042	2753.61	7546	6655.05
1001.925	2754.8136	7530.65	6639.35
1002.0458	2756.0165	7499.9	6611.9
1002.1665	2757.2188	7458.25	6569.85
1002.2872	2758.4204	7416.8	6529.2
1002.4078	2759.6213	7409.1	6517.3
1002.5285	2760.8215	7412.95	6519.65
1002.649	2762.0211	7375.05	6482.75
1002.7696	2763.22	7343.7	6450.9
1002.8901	2764.4182	7312.6	6423.75
1003.0106	2765.6158	7291	6401.3
1003.131	2766.8127	7257	6368.15
1003.2514	2768.009	7226.15	6338.5
1003.3717	2769.2045	7210	6319.1
1003.492	2770.3994	7200.7	6309.6
1003.6123	2771.5936	7166.1	6276.8
1003.7325	2772.7872	7123.7	6236.7
1003.8527	2773.9801	7105.25	6213.85
1003.9729	2775.1723	7099.05	6192.75
1004.093	2776.3639	7072	6184.45
1004.2131	2777.5548	7030.6	6140.15
1004.3331	2778.745	7005.1	6115.4
1004.4531	2779.9346	6992.35	6103.15
1004.5731	2781.1235	6990.35	6102
1004.693	2782.3117	6961.9	6074.9
1004.8129	2783.4992	6929.35	6039.95
1004.9328	2784.6861	6905.3	6015.75
1005.0526	2785.8723	6884.35	5996.25
1005.1723	2787.0579	6871.2	5981.75
1005.2921	2788.2428	6861.75	5973.6
1005.4118	2789.427	6823.8	5934
1005.5314	2790.6106	6811.55	5922.45
1005.651	2791.7935	6797.95	5908.8
1005.7706	2792.9757	6769.9	5881.65
1005.8902	2794.1573	6756.2	5864.95
1006.0097	2795.3382	6749.55	5860.65
1006.1291	2796.5184	6745.4	5858.2
1006.2485	2797.698	6728	5836.85
1006.3679	2798.8769	6713.75	5826.75
1006.4873	2800.0551	6706.75	5818.35
1006.6066	2801.2327	6702.45	5811.4
1006.7258	2802.4096	6709.35	5819
1006.8451	2803.5859	6677.9	5787.75
1006.9642	2804.7615	6657.65	5769
1007.0834	2805.9364	6669.6	5781.9
1007.2025	2807.1106	6679.7	5791.45
1007.3216	2808.2842	6665.4	5775.35
1007.4406	2809.4572	6675.7	5787.45
1007.5596	2810.6294	6709.4	5820.35
1007.6785	2811.801	6732.85	5844.4
1007.7975	2812.972	6733.3	5845.2
1007.9163	2814.1423	6734.55	5846.8
1008.0352	2815.3119	6776.35	5889.5
1008.154	2816.4808	6801.5	5911.5
1008.2727	2817.6491	6845.1	5954.05
1008.3914	2818.8167	6865.7	5979.75
1008.5101	2819.9837	6895.2	6001.4
1008.6288	2821.15	6939.1	6049.25
1008.7474	2822.3157	6948.6	6060.2
1008.8659	2823.4807	6974.35	6084.7
1008.9844	2824.645	7018.85	6129.7
1009.1029	2825.8086	7015.55	6128.65
1009.2214	2826.9716	7047.8	6161.5
1009.3398	2828.134	7086.2	6197.4
1009.4581	2829.2957	7118.55	6229.45
1009.5764	2830.4567	7111.6	6221.75
1009.6947	2831.617	7127.15	6236.7
1009.813	2832.7767	7111.4	6224.75
1009.9312	2833.9358	7106.65	6218.75
1010.0493	2835.0941	7088.95	6198.8
1010.1675	2836.2519	7065.65	6178.45
1010.2855	2837.4089	7006.25	6116.6
1010.4036	2838.5653	7016.05	6129.25
1010.5216	2839.7211	6983.45	6097.05
1010.6396	2840.8761	6972.8	6084.55
1010.7575	2842.0306	6989.7	6102.9
1010.8754	2843.1843	7021.65	6133.7
1010.9932	2844.3374	7038.55	6150.85
1011.111	2845.4899	7069.65	6180.85
1011.2288	2846.6417	7126.95	6240.15
1011.3465	2847.7928	7173.65	6287.6
1011.4642	2848.9433	7234.05	6344.05
1011.5818	2850.0931	7290.8	6402.2
1011.6995	2851.2422	7339.8	6450.35
1011.817	2852.3907	7381.95	6492.45
1011.9345	2853.5385	7431.6	6540.45
1012.052	2854.6857	7481.75	6565.2
1012.1695	2855.8323	7495.85	6608.8
1012.2869	2856.9781	7548.1	6661.55
1012.4042	2858.1233	7540.25	6653.05
1012.5216	2859.2679	7566.7	6677.55
1012.6389	2860.4118	7612.65	6723
1012.7561	2861.555	7621	6728.45
1012.8733	2862.6976	7655.35	6764.35
1012.9905	2863.8395	7682.1	6793.75
1013.1076	2864.9808	7640.25	6751
1013.2247	2866.1214	7632.15	6744.65
1013.3417	2867.2614	7631.65	6744.3
1013.4587	2868.4007	7647.5	6757.5
1013.5757	2869.5393	7622.1	6730.45
1013.6926	2870.6773	7624.15	6733.3
1013.8095	2871.8146	7612.35	6720.5
1013.9263	2872.9513	7593.35	6702.45
1014.0431	2874.0874	7555.05	6667.6
1014.1599	2875.2227	7539.3	6648.1
1014.2766	2876.3574	7502.9	6616.35
1014.3933	2877.4915	7461.25	6571.9
1014.51	2878.6249	7395.55	6507.5
1014.6266	2879.7577	7380.6	6492.1
1014.7431	2880.8898	7348.5	6448.75
1014.8596	2882.0212	7327.75	6439
1014.9761	2883.152	7297.8	6409.5
1015.0925	2884.2821	7256.9	6369.95
1015.2089	2885.4116	7241.35	6353.35
1015.3253	2886.5405	7197.9	6309.05
1015.4416	2887.6686	7215.6	6322.8
1015.5579	2888.7962	7185.8	6298.75
1015.6741	2889.923	7164.05	6277.35
1015.7903	2891.0493	7141.6	6254.95
1015.9065	2892.1748	7154.8	6265.25
1016.0226	2893.2997	7126.4	6237.3
1016.1387	2894.424	7124.55	6237.3
1016.2547	2895.5476	7132.9	6243.6
1016.3707	2896.6706	7145.85	6257.5
1016.4866	2897.7929	7137	6247.65
1016.6025	2898.9145	7165.2	6277.5
1016.7184	2900.0355	7151.35	6263.55
1016.8342	2901.1559	7173.85	6286
1016.95	2902.2756	7189.1	6301.3
1017.0658	2903.3946	7215.2	6326.75
1017.1815	2904.513	7191	6300.85
1017.2971	2905.6308	7215.9	6326.1
1017.4127	2906.7479	7198.15	6308.3
1017.5283	2907.8643	7226.8	6338
1017.6439	2908.9801	7216.2	6327.5
1017.7594	2910.0953	7203.1	6314.2
1017.8748	2911.2098	7180.05	6288.35
1017.9902	2912.3236	7163.65	6267.75
1018.1056	2913.4368	7131.25	6239.3
1018.2209	2914.5494	7123.65	6233.85
1018.3362	2915.6613	7055.05	6161.4
1018.4515	2916.7725	7019.4	6128.6
1018.5667	2917.8831	7008.65	6119.4
1018.6819	2918.9931	6958.55	6069.3
1018.797	2920.1024	6897.35	6007.5
1018.9121	2921.211	6886.6	5997.1
1019.0271	2922.319	6846.5	5959.65
1019.1421	2923.4264	6816.95	5929.35
1019.2571	2924.5331	6779.55	5892.25
1019.372	2925.6391	6761.95	5873.5
1019.4869	2926.7445	6754.25	5867
1019.6017	2927.8493	6733.4	5845.6
1019.7165	2928.9534	6707.65	5820.1
1019.8313	2930.0569	6687.1	5797.1
1019.946	2931.1597	6678.35	5789.25
1020.0606	2932.2619	6645.4	5756.9
1020.1753	2933.3634	6634.1	5747.8
1020.2899	2934.4643	6622.55	5728.8
1020.4044	2935.5645	6618.25	5723.8
1020.5189	2936.6641	6574.3	5680.95
1020.6334	2937.763	6485.25	5598.75
1020.7478	2938.8613	6439.5	5551.3
1020.8622	2939.959	6366.7	5474.05
1020.9765	2941.056	6282.75	5394.8
1021.0908	2942.1523	6202.25	5313.35
1021.2051	2943.248	6119.45	5228.45
1021.3193	2944.3431	6015.9	5127.4
1021.4334	2945.4375	5903.25	5015.6
1021.5476	2946.5313	5791.6	4904.85
1021.6617	2947.6244	5681	4794.25
1021.7757	2948.7169	5571.75	4682.9
1021.8897	2949.8087	5476.2	4588.15
1022.0037	2950.8999	5379.3	4489.5
1022.1176	2951.9904	5284.95	4396.65
1022.2315	2953.0803	5199.15	4310.35
1022.3453	2954.1696	5132.85	4244.95
1022.4591	2955.2582	5086.2	4199.6
1022.5728	2956.3462	4992.85	4106.2
1022.6865	2957.4335	4970.25	4082.25
1022.8002	2958.5202	4904.5	4013.9
1022.9138	2959.6062	4867.95	3977.4
1023.0274	2960.6916	4822	3934.65
1023.141	2961.7764	4814.85	3925.8
1023.2545	2962.8605	4775.3	3888.35
1023.3679	2963.9439	4752	3864.7
1023.4813	2965.0267	4718.95	3830.95
1023.5947	2966.1089	4711.65	3799.75
1023.708	2967.1905	4682.45	3795.15
1023.8213	2968.2714	4667.15	3778.45
1023.9346	2969.3516	4664.05	3775.95
1024.0478	2970.4312	4656.85	3761.95
1024.1609	2971.5102	4617.6	3731.05
1024.274	2972.5885	4613.2	3726.3
1024.3871	2973.6662	4605.5	3711.9
1024.5002	2974.7432	4592.65	3706
1024.6132	2975.8196	4576.8	3687.45
1024.7261	2976.8954	4543.15	3655.05
1024.839	2977.9705	4526.5	3638.95
1024.9519	2979.045	4519.5	3633.75
1025.0647	2980.1188	4486.55	3598.7
1025.1775	2981.192	4441.15	3554.4
1025.2902	2982.2645	4413.8	3525.35
1025.4029	2983.3364	4382.8	3494.55
1025.5156	2984.4077	4344.45	3456.55
1025.6282	2985.4783	4300.2	3407.9
1025.7407	2986.5483	4264.55	3377.45
1025.8532	2987.6177	4233.3	3346.35
1025.9657	2988.6864	4196.55	3307.65
1026.0782	2989.7545	4150.2	3259.45
1026.1906	2990.8219	4112.8	3225.35
1026.3029	2991.8887	4071.6	3183.3
1026.4152	2992.9548	4031.9	3141.35
1026.5275	2994.0204	3999.65	3111.35
1026.6397	2995.0852	3949.65	3062.5
1026.7519	2996.1495	3907.25	3017.4
1026.864	2997.2131	3884.45	2998.25
1026.9761	2998.276	3841.9	2951.55
1027.0882	2999.3383	3821.75	2932.95
1027.2002	3000.4	3788.6	2898.85
1027.3122	3001.4611	3764.15	2875.55
1027.4241	3002.5215	3757.1	2868.25
1027.536	3003.5812	3710.95	2823.3
1027.6478	3004.6404	3711.65	2824.55
1027.7596	3005.6989	3687.85	2799.4
1027.8714	3006.7567	3663	2775.85
1027.9831	3007.8139	3647.9	2740.6
1028.0947	3008.8705	3625.7	2737.75
1028.2064	3009.9264	3624.45	2734
1028.3179	3010.9818	3603.6	2716.15
1028.4295	3012.0364	3594.2	2706.2
1028.541	3013.0905	3573.8	2686
1028.6524	3014.1439	3566	2678.65
1028.7638	3015.1966	3548.9	2661.55
1028.8752	3016.2487	3537	2649.45
1028.9865	3017.3002	3540.2	2648
1029.0978	3018.3511	3523.75	2637.3
1029.209	3019.4013	3501.7	2614.55
1029.3202	3020.4509	3505.3	2618.75
1029.4314	3021.4998	3493	2605.75
1029.5425	3022.5481	3472.9	2585.25
1029.6535	3023.5958	3459.05	2571.15
1029.7645	3024.6428	3446.75	2557.5
1029.8755	3025.6892	3453.55	2566.6
1029.9864	3026.735	3457.55	2568.95
1030.0973	3027.7802	3434.95	2547.15
1030.2082	3028.8247	3429.2	2541.65
1030.319	3029.8685	3418.5	2528.55
1030.4297	3030.9118	3400.45	2511.8
1030.5404	3031.9544	3399.6	2512.65
1030.6511	3032.9963	3397.75	2509.55
1030.7617	3034.0376	3391.4	2504.2
1030.8723	3035.0783	3368	2477.45
1030.9829	3036.1184	3373.5	2485
1031.0934	3037.1578	3370.45	2483.25
1031.2038	3038.1966	3380	2491.6
1031.3142	3039.2348	3350.7	2463.25
1031.4246	3040.2723	3358.25	2461.75
1031.5349	3041.3092	3330.35	2443.5
1031.6452	3042.3455	3333.7	2445.95
1031.7554	3043.3811	3324.95	2437.15
1031.8656	3044.4161	3303.9	2416.65
1031.9758	3045.4505	3281.3	2393.75
1032.0859	3046.4842	3283	2395.9
1032.1959	3047.5173	3261	2375.4
1032.3059	3048.5498	3256.85	2370.05
1032.4159	3049.5816	3235.1	2347.35
1032.5258	3050.6128	3226.6	2335.5
1032.6357	3051.6434	3224.1	2335.25
1032.7455	3052.6734	3218.2	2330.8
1032.8553	3053.7027	3191.2	2303
1032.9651	3054.7314	3192.8	2305.6
1033.0748	3055.7594	3170.4	2283.25
1033.1845	3056.7868	3155.9	2268
1033.2941	3057.8136	3124.3	2238.35
1033.4037	3058.8398	3122.05	2235.2
1033.5132	3059.8653	3117.25	2229.75
1033.6227	3060.8902	3094.1	2205.9
1033.7321	3061.9145	3089	2199.75
1033.8415	3062.9381	3067.55	2181.5
1033.9509	3063.9612	3069.35	2166.9
1034.0602	3064.9835	3051.35	2165
1034.1694	3066.0053	3041.25	2153.7
1034.2787	3067.0264	3021.3	2134.3
1034.3878	3068.0469	3019.75	2131.85
1034.497	3069.0668	3005.35	2112.85
1034.6061	3070.086	2989.5	2103.75
1034.7151	3071.1046	2972.05	2083.45
1034.8241	3072.1226	2959.1	2071.25
1034.9331	3073.1399	2941.1	2055.75
1035.042	3074.1567	2929.5	2042.85
1035.1508	3075.1727	2923.8	2034.4
1035.2597	3076.1882	2898.4	2011.6
1035.3684	3077.203	2867.45	1980.75
1035.4772	3078.2173	2872.35	1983.85
1035.5859	3079.2308	2857.4	1965.45
1035.6945	3080.2438	2851.9	1961.3
1035.8031	3081.2561	2820.4	1932.95
1035.9117	3082.2678	2812.95	1926.1
1036.0202	3083.2789	2796	1908.1
1036.1286	3084.2893	2786.85	1901.4
1036.2371	3085.2991	2775	1887.85
1036.3454	3086.3083	2761.95	1870.5
1036.4538	3087.3169	2760.4	1870.25
1036.562	3088.3248	2754	1864.5
1036.6703	3089.3321	2735.55	1845.25
1036.7785	3090.3388	2713.1	1826.05
1036.8866	3091.3449	2712.1	1823.85
1036.9948	3092.3503	2692.2	1802.2
1037.1028	3093.3551	2682.2	1796.15
1037.2108	3094.3593	2674.95	1786.6
1037.3188	3095.3629	2665.4	1776.85
1037.4267	3096.3658	2663.85	1774.45
1037.5346	3097.3681	2640.4	1753.25
1037.6425	3098.3698	2635.3	1746
1037.7503	3099.3708	2627	1733.45
1037.858	3100.3713	2617.9	1730.15
1037.9657	3101.3711	2599.65	1710.05
1038.0734	3102.3702	2703.9	1675.95
1038.181	3103.3688	2596.15	1706.75
1038.2886	3104.3667	2567.25	1680.45
1038.3961	3105.364	2567.8	1682
1038.5036	3106.3607	2554.25	1664.3
1038.611	3107.3568	2535.15	1646.85
1038.7184	3108.3522	2526.05	1637.75
1038.8257	3109.347	2518.8	1629.3
1038.933	3110.3412	2515.5	1625.5
1039.0403	3111.3348	2498.45	1610
1039.1475	3112.3277	2489.25	1602.35
1039.2547	3113.32	2492.7	1605.85
1039.3618	3114.3117	2475.7	1588.55
1039.4689	3115.3028	2459.4	1573.2
1039.5759	3116.2932	2442.6	1553.55
1039.6829	3117.2831	2447	1552.85
1039.7898	3118.2723	2423.4	1535.35
1039.8967	3119.2608	2428.6	1540.65
1040.0035	3120.2488	2422.35	1534.55
1040.1103	3121.2361	2407.2	1519.25
1040.2171	3122.2229	2400.2	1514.35
1040.3238	3123.209	2394.85	1505.75
1040.4305	3124.1944	2388.4	1502
1040.5371	3125.1793	2380.1	1491.3
1040.6437	3126.1635	2377.15	1491.5
1040.7502	3127.1471	2352.65	1464.2
1040.8567	3128.1301	2355.8	1470.5
1040.9631	3129.1125	2349.8	1463.55
1041.0695	3130.0942	2344.2	1456.8
1041.1759	3131.0753	2347.85	1451.15
1041.2822	3132.0558	2327.35	1437.65
1041.3884	3133.0357	2320.1	1431.95
1041.4946	3134.015	2304.3	1416.3
1041.6008	3134.9936	2312.05	1423
1041.7069	3135.9716	2314.35	1405.85
1041.813	3136.949	2283.15	1396.25
1041.919	3137.9258	2298.6	1406
1042.025	3138.902	2291.45	1397.95
1042.1309	3139.8775	2283.35	1395.8
1042.2368	3140.8524	2273.1	1386.25
1042.3427	3141.8267	2266.95	1377.1
1042.4485	3142.8004	2257	1369.8
1042.5542	3143.7735	2257	1364.5
1042.6599	3144.7459	2252.2	1362.9
1042.7656	3145.7178	2236.4	1348.4
1042.8712	3146.689	2222.95	1336.8
1042.9768	3147.6596	2229.25	1339.45
1043.0823	3148.6295	2221.15	1333.3
1043.1878	3149.5989	2210.75	1323
1043.2932	3150.5676	2205.1	1319.45
1043.3986	3151.5357	2201.35	1315.35
1043.5039	3152.5032	2188.35	1302.25
1043.6092	3153.4701	2173.6	1286.7
1043.7145	3154.4364	2176.2	1285.9
1043.8197	3155.402	2159	1273.5
1043.9248	3156.367	2163.3	1275.45
1044.03	3157.3315	2183.15	1250.2
1044.135	3158.2952	2141.3	1254.25
1044.24	3159.2584	2150.15	1261.7
1044.345	3160.221	2137.1	1249.15
1044.4499	3161.1829	2118.8	1232.15
1044.5548	3162.1442	2110.9	1222.1
1044.6596	3163.105	2105.7	1219.1
1044.7644	3164.065	2094	1206.7
1044.8692	3165.0245	2095.55	1204.45
1044.9739	3165.9834	2094.4	1207.4
1045.0785	3166.9416	2086.25	1199.7
1045.1831	3167.8993	2078.95	1192.1
1045.2877	3168.8563	2066.85	1177.7
1045.3922	3169.8127	2064.5	1178.25
1045.4966	3170.7684	2052.05	1164.4
1045.6011	3171.7236	2040.25	1153.45
1045.7054	3172.6782	2041.45	1154.1
1045.8098	3173.6321	2037.8	1149.65
1045.914	3174.5854	2034.85	1143.2
1046.0183	3175.5381	2029.2	1140.95
1046.1224	3176.4902	2017.8	1131.45
1046.2266	3177.4417	2002.45	1117.8
1046.3307	3178.3926	2000	1112.4
1046.4347	3179.3428	1996.8	1108.6
1046.5387	3180.2924	1988.95	1101.35
1046.6427	3181.2415	1987.3	1098.9
1046.7466	3182.1899	1983.7	1095.85
1046.8504	3183.1377	1975.45	1088.25
1046.9542	3184.0848	1970.1	1080.15
1047.058	3185.0314	1959.5	1073
1047.1617	3185.9773	1949.65	1061.4
1047.2654	3186.9227	1948.2	1058.85
1047.369	3187.8674	1939.15	1050.4
1047.4726	3188.8115	1948.65	1055.25
1047.5761	3189.755	1934.9	1048.9
1047.6796	3190.6979	1928	1041.4
1047.783	3191.6402	1933.85	1048.75
1047.8864	3192.5818	1921.5	1035.25
1047.9898	3193.5229	1931.65	1020.4
1048.0931	3194.4633	1920.3	1032.85
1048.1963	3195.4031	1902.1	1012.3
1048.2995	3196.3423	1899.6	1011.1
1048.4027	3197.2809	1888.15	1001.25
1048.5058	3198.2189	1882.15	993.85
1048.6089	3199.1563	1897	1005.1
1048.7119	3200.0931	1887.2	1001.2
1048.8148	3201.0292	1874.05	987.15
1048.9178	3201.9648	1866.75	979.05
1049.0206	3202.8997	1866.45	975.15
1049.1235	3203.834	1849.7	962.45
1049.2262	3204.7677	1850.9	964.05
1049.329	3205.7008	1839.55	949.45
1049.4317	3206.6333	1836.5	952.95
1049.5343	3207.5652	1840.95	953.5
1049.6369	3208.4964	1833.4	948.4
1049.7394	3209.4271	1832.6	945.7
1049.8419	3210.3571	1822.25	935
1049.9444	3211.2865	1824.2	935.85
1050.0468	3212.2154	1811.65	922.6
1050.1491	3213.1436	1816.3	926.7
1050.2514	3214.0712	1816.15	921.3
1050.3537	3214.9982	1792.15	904.55
1050.4559	3215.9246	1796.5	909.25
1050.5581	3216.8503	1790.85	904.5
1050.6602	3217.7755	1799.75	914.6
1050.7623	3218.7001	1785.95	899.3
1050.8643	3219.624	1775.3	886.55
1050.9663	3220.5473	1769.35	881.4
1051.0682	3221.4701	1770.1	880.1
1051.1701	3222.3922	1768.8	879.95
1051.2719	3223.3137	1758.45	870.35
1051.3737	3224.2346	1754.55	865.75
1051.4754	3225.1549	1746.75	862.4
1051.5771	3226.0746	1740.2	854.9
1051.6788	3226.9937	1739.85	852.95
1051.7804	3227.9121	1729.7	842.8
1051.8819	3228.83	1732.3	843.65
1051.9834	3229.7473	1722.85	833.8
1052.0849	3230.6639	1720.05	831.05
1052.1863	3231.5799	1719.2	831.6
1052.2876	3232.4954	1710.4	823.95
1052.3889	3233.4102	1710.95	823.95
1052.4902	3234.3244	1706.45	819.45
1052.5914	3235.238	1690.25	803.7
1052.6926	3236.151	1713.5	802.55
1052.7937	3237.0634	1685.7	799.45
1052.8948	3237.9752	1676.7	790.25
1052.9958	3238.8864	1678	790.2
1053.0968	3239.797	1676.65	788
1053.1977	3240.7069	1669.15	780.3
1053.2986	3241.6163	1664.2	775.65
1053.3994	3242.5251	1660.75	773.85
1053.5002	3243.4332	1658.9	773.9
1053.6009	3244.3408	1649.3	763.55
1053.7016	3245.2477	1648.65	762.75
1053.8022	3246.154	1639.45	751.55
1053.9028	3247.0598	1630.05	741.1
1054.0034	3247.9649	1630.2	743.05
1054.1039	3248.8694	1624.75	737.95
1054.2043	3249.7733	1629.05	741.9
1054.3047	3250.6766	1617.85	731.2
1054.4051	3251.5793	1615.55	728.5
1054.5054	3252.4814	1600	713.6
1054.6056	3253.3829	1604.4	716.4
1054.7058	3254.2838	1600.6	714.95
1054.806	3255.1841	1591.65	705.05
1054.9061	3256.0838	1581.7	694.05
1055.0061	3256.9829	1578.75	695.2
1055.1062	3257.8814	1586.35	697.25
1055.2061	3258.7792	1579.95	689
1055.306	3259.6765	1563.8	674
1055.4059	3260.5731	1553.8	668.45
1055.5057	3261.4692	1550.15	662.65
1055.6055	3262.3647	1543.85	658.3
1055.7052	3263.2595	1523.65	637.1
1055.8049	3264.1538	1522.7	635.25
1055.9045	3265.0474	1516.7	626.95
1056.0041	3265.9404	1513.7	626.1
1056.1036	3266.8329	1494.75	607.95
1056.2031	3267.7247	1490.3	592.6
1056.3025	3268.616	1471.75	584.15
1056.4019	3269.5066	1455.75	569.25
1056.5013	3270.3966	1441.35	552.15
1056.6005	3271.286	1420.05	536.25
