Software Version:	3.9.2.0
Unit SN:	10000200
Spectrometer SN:	6960
Date:	3/6/2024 10:34:40 AM
Data Line Index:	25
Spectral Points:	2048
Integration time (ms):	125
Averages:	20
Delay (ms):	30
Sequence Number:	1
Processing:	dark subtract
Laser Power (mW):	305
Laser Current (mA):	825
Laser Diode Temp (C):	25.1
Laser Case Temp (C):	26.5
System Temp (C):	26.3
Spectrometer Temp (C):	23.8
CCD Temp (C):	-0.01
Secondary Temp (C):	20.014
Heatsink Temp (C):	21.962
CCDPCB Temp (C):	36.296
SecondaryPCB Temp (C):	31.127

Wavelength	RamanShift	Raw Counts	Dark Subtracted
787.061	30.1047	1157	744.85
787.2016	32.3739	1182.6	771.95
787.3422	34.6426	1228.75	817.2
787.4828	36.9109	1280.3	865.65
787.6235	39.1787	1336.3	918.9
787.7642	41.4461	1402.65	980.9
787.9049	43.7131	1465.45	1040.25
788.0456	45.9796	1536	1107.25
788.1863	48.2456	1602.45	1169.35
788.3271	50.5112	1674.35	1237.35
788.4679	52.7764	1744.65	1304.95
788.6087	55.0411	1827.95	1385.5
788.7496	57.3054	1911.25	1461.35
788.8904	59.5692	2009.45	1559
789.0313	61.8326	2111.2	1659.2
789.1722	64.0955	2214.6	1757.6
789.3132	66.3579	2340.65	1879.75
789.4541	68.6199	2500.45	2034.35
789.5951	70.8815	2764.45	2294.25
789.7361	73.1426	3302.65	2829.45
789.8771	75.4032	4689.75	4211.6
790.0181	77.6634	8228.7	7746.2
790.1592	79.9231	18024.85	17535.2
790.3003	82.1824	56271.9	55769.6
790.4414	84.4412	65535	65013.95
790.5825	86.6995	65535	64980.4
790.7237	88.9574	65535	64954.95
790.8648	91.2148	65535	64937.5
791.006	93.4717	65535	64926.45
791.1472	95.7282	65535	64918.2
791.2885	97.9842	65535	64915.6
791.4297	100.2398	65535	64911.65
791.571	102.4949	65535	64910.4
791.7123	104.7495	65535	64901.7
791.8536	107.0036	65535	64906.05
791.9949	109.2573	65535	64904.7
792.1363	111.5105	65535	64903.3
792.2777	113.7632	65535	64903.65
792.4191	116.0154	65535	64895.45
792.5605	118.2672	65535	64897.5
792.7019	120.5185	65535	64896
792.8434	122.7693	65535	64893.65
792.9849	125.0197	65535	64886.1
793.1264	127.2696	65535	64884.6
793.2679	129.519	65535	64881.05
793.4094	131.7679	65535	64878.85
793.551	134.0163	65535	64875.75
793.6926	136.2642	65535	64873.25
793.8342	138.5117	65535	64867.25
793.9758	140.7587	65535	64872.65
794.1175	143.0052	65535	64866.6
794.2591	145.2512	65535	64868.7
794.4008	147.4967	65535	64866.7
794.5425	149.7417	65535	64865
794.6842	151.9863	65535	64864
794.826	154.2304	65535	64854.15
794.9677	156.4739	65535	64849.65
795.1095	158.717	65535	64851
795.2513	160.9596	65535	64848.45
795.3931	163.2017	65535	64846.45
795.535	165.4433	65535	64844.1
795.6768	167.6844	65535	64840.8
795.8187	169.925	65535	64840.35
795.9606	172.1651	65535	64831.5
796.1025	174.4047	65535	64830.8
796.2445	176.6439	65535	64827.65
796.3864	178.8825	65535	64826.15
796.5284	181.1206	65535	64822
796.6704	183.3582	65535	64819.25
796.8124	185.5954	65535	64820.55
796.9544	187.832	65535	64817.8
797.0965	190.0681	65535	64815.55
797.2386	192.3037	65535	64809.55
797.3806	194.5388	65535	64809.05
797.5228	196.7734	65535	64800.85
797.6649	199.0075	65535	64799.55
797.807	201.2411	65535	64798.75
797.9492	203.4742	65535	64802.4
798.0914	205.7068	65535	64799.75
798.2336	207.9389	65535	64799.2
798.3758	210.1704	65535	64791.55
798.518	212.4015	65535	64798.05
798.6603	214.632	65535	64803.95
798.8025	216.862	65535	64817.55
798.9448	219.0915	65535	64815.8
799.0871	221.3205	65535	64809.4
799.2294	223.549	65535	64817.5
799.3718	225.777	65535	64816.65
799.5141	228.0044	65535	64811.4
799.6565	230.2314	65535	64811.2
799.7989	232.4578	65535	64807.35
799.9413	234.6837	65535	64801.7
800.0837	236.909	65535	64795.6
800.2262	239.1339	65535	64773.9
800.3687	241.3582	65535	64787.6
800.5111	243.582	65535	64755.6
800.6536	245.8053	65535	64770.25
800.7961	248.0281	65535	64780.45
800.9387	250.2503	65535	64774.65
801.0812	252.472	65535	64768.4
801.2238	254.6932	65535	64767.1
801.3664	256.9139	65535	64763.2
801.509	259.134	65535	64760.55
801.6516	261.3536	65535	64761.7
801.7942	263.5727	65535	64763.8
801.9369	265.7912	65535	64764.1
802.0795	268.0092	65535	64764.45
802.2222	270.2267	65535	64758.1
802.3649	272.4436	65535	64761.8
802.5076	274.6601	65535	64752.9
802.6504	276.8759	65535	64753.2
802.7931	279.0913	65535	64752.25
802.9359	281.3061	65535	64752.2
803.0787	283.5204	65535	64751.65
803.2215	285.7341	65535	64741.2
803.3643	287.9473	65535	64731.55
803.5071	290.16	65535	64740.7
803.6499	292.3721	65535	64748.05
803.7928	294.5837	65535	64749.35
803.9357	296.7947	65535	64746.95
804.0786	299.0052	65535	64745.65
804.2215	301.2152	65535	64747.05
804.3644	303.4246	65535	64749.5
804.5074	305.6334	65535	64747.1
804.6503	307.8418	65535	64744.4
804.7933	310.0495	65535	64741.45
804.9363	312.2568	65535	64745.75
805.0793	314.4635	65535	64738.85
805.2223	316.6696	65535	64736.65
805.3653	318.8752	65535	64729.75
805.5084	321.0802	65535	64734.9
805.6514	323.2847	65535	64734.95
805.7945	325.4887	65535	64737.35
805.9376	327.692	65535	64734.8
806.0807	329.8949	65535	64734.1
806.2238	332.0972	65535	64732.25
806.367	334.2989	65535	64727.7
806.5101	336.5001	65535	64727.05
806.6533	338.7007	65535	64726.1
806.7965	340.9008	65535	64724.15
806.9397	343.1003	65535	64722.45
807.0829	345.2992	65535	64725
807.2261	347.4976	65535	64723.7
807.3693	349.6955	65535	64714.8
807.5126	351.8927	65535	64716.2
807.6559	354.0895	65535	64709.05
807.7991	356.2856	65535	64713.4
807.9424	358.4812	65535	64717.6
808.0857	360.6763	65535	64714.35
808.2291	362.8707	65535	64715.5
808.3724	365.0646	65535	64708.8
808.5158	367.258	65535	64709.6
808.6591	369.4508	65535	64705.7
808.8025	371.643	65535	64705.55
808.9459	373.8346	65535	64700.15
809.0893	376.0257	65535	64699.1
809.2327	378.2162	65535	64698.5
809.3762	380.4062	65535	64701.15
809.5196	382.5956	65535	64699.45
809.6631	384.7844	65535	64706.5
809.8066	386.9726	65535	64706.4
809.9501	389.1603	65535	64704.95
810.0936	391.3474	65535	64660.9
810.2371	393.5339	65535	64703
810.3806	395.7199	65535	64708.5
810.5241	397.9052	65535	64710.8
810.6677	400.09	65535	64709.4
810.8113	402.2743	65535	64708.2
810.9548	404.4579	65535	64711.7
811.0984	406.641	65535	64704.85
811.2421	408.8235	65535	64705.6
811.3857	411.0054	65535	64706.9
811.5293	413.1868	65535	64696.05
811.673	415.3675	65535	64696.75
811.8166	417.5477	65535	64694.8
811.9603	419.7273	65535	64692
812.104	421.9064	65535	64686
812.2477	424.0848	65535	64689.45
812.3914	426.2627	65535	64688.85
812.5351	428.4399	65535	64689.45
812.6788	430.6166	65535	64685.3
812.8226	432.7928	65535	64683.55
812.9663	434.9683	65535	64684.8
813.1101	437.1432	65535	64683
813.2539	439.3176	65535	64686.4
813.3977	441.4914	65535	64686.3
813.5415	443.6645	65535	64685.9
813.6853	445.8371	65535	64685.85
813.8291	448.0091	65535	64686.1
813.973	450.1806	65535	64685.25
814.1168	452.3514	65535	64681.3
814.2607	454.5216	65535	64672.95
814.4046	456.6913	65535	64676.6
814.5485	458.8603	65535	64681.65
814.6924	461.0288	65535	64678.15
814.8363	463.1967	65535	64681.45
814.9802	465.3639	65535	64680.2
815.1241	467.5306	65535	64680
815.2681	469.6967	65535	64681.1
815.412	471.8622	65535	64682.25
815.556	474.0271	65535	64681.05
815.7	476.1914	65535	64676.4
815.844	478.3551	65535	64676.55
815.988	480.5182	65535	64676.4
816.132	482.6807	65535	64682.2
816.276	484.8426	65535	64684.15
816.4201	487.0039	65535	64677.45
816.5641	489.1647	65535	64674.15
816.7082	491.3248	65535	64673
816.8522	493.4843	65535	64677.05
816.9963	495.6432	65535	64676.15
817.1404	497.8015	65535	64669.35
817.2845	499.9592	65535	64673.75
817.4286	502.1163	65535	64672.95
817.5727	504.2728	65535	64671.15
817.7168	506.4287	65535	64672.15
817.861	508.5839	65535	64675.65
818.0051	510.7386	65535	64674.55
818.1493	512.8927	65535	64666.55
818.2935	515.0461	65535	64671.8
818.4377	517.199	65535	64672.95
818.5818	519.3512	65535	64667.1
818.726	521.5029	65535	64664.9
818.8703	523.6539	65535	64667.3
819.0145	525.8043	65535	64666.1
819.1587	527.9541	65535	64665.9
819.303	530.1033	65535	64663.95
819.4472	532.2519	65535	64666
819.5915	534.3999	65535	64660.8
819.7357	536.5472	65535	64663.5
819.88	538.694	65535	64661.55
820.0243	540.8401	65535	64660.75
820.1686	542.9856	65535	64659.7
820.3129	545.1305	65535	64660.7
820.4572	547.2748	65535	64657.5
820.6016	549.4185	65535	64656.9
820.7459	551.5615	65535	64657.35
820.8902	553.704	65535	64657.4
821.0346	555.8458	65535	64658.3
821.1789	557.987	65535	64661.5
821.3233	560.1276	65535	64658.5
821.4677	562.2675	65535	64660.8
821.6121	564.4069	65535	64660.45
821.7565	566.5456	65535	64662.6
821.9009	568.6837	65535	64660.75
822.0453	570.8212	65535	64657.95
822.1897	572.958	65535	64657.05
822.3342	575.0942	65535	64661.4
822.4786	577.2299	65535	64661.95
822.6231	579.3648	65535	64664.4
822.7675	581.4992	65535	64663.6
822.912	583.6329	65535	64664.1
823.0565	585.766	65535	64663.15
823.201	587.8985	65535	64664.55
823.3454	590.0304	65535	64637.5
823.4899	592.1616	65535	64655.4
823.6345	594.2922	65535	64655.9
823.779	596.4222	65535	64657.2
823.9235	598.5515	65535	64654.2
824.068	600.6802	65535	64657.5
824.2126	602.8083	65535	64655.2
824.3571	604.9358	65535	64653.45
824.5017	607.0626	65535	64656.7
824.6462	609.1888	65535	64649.85
824.7908	611.3144	65535	64650.2
824.9354	613.4393	65535	64653.25
825.08	615.5636	65535	64649.05
825.2246	617.6873	65535	64654.15
825.3692	619.8103	65535	64650.2
825.5138	621.9327	65535	64649.55
825.6584	624.0544	65535	64654.5
825.803	626.1756	65535	64654.15
825.9477	628.2961	65535	64650.9
826.0923	630.4159	65535	64647.65
826.237	632.5351	65535	64646.35
826.3816	634.6537	65535	64649.15
826.5263	636.7716	65535	64647.1
826.6709	638.8889	65535	64647.65
826.8156	641.0056	65535	64646.85
826.9603	643.1216	65535	64647.75
827.105	645.237	65535	64644.15
827.2497	647.3518	65535	64651.35
827.3944	649.4659	65535	64648.75
827.5391	651.5793	65535	64650.35
827.6838	653.6922	65535	64650.9
827.8285	655.8043	65535	64650.05
827.9733	657.9159	65535	64647.5
828.118	660.0268	65535	64645.8
828.2627	662.137	65535	64648.65
828.4075	664.2466	65535	64645.45
828.5522	666.3556	65535	64643.1
828.697	668.4639	65535	64643.2
828.8418	670.5716	65535	64647.9
828.9865	672.6786	65535	64644.15
829.1313	674.785	65535	64641.15
829.2761	676.8907	65535	64645.05
829.4209	678.9958	65535	64646.5
829.5657	681.1002	65535	64644
829.7105	683.204	65535	64638.8
829.8553	685.3072	65535	64639.75
830.0001	687.4097	65535	64642.55
830.1449	689.5115	65535	64641.05
830.2898	691.6127	65535	64644.85
830.4346	693.7132	65535	64641.4
830.5794	695.8131	65535	64633.2
830.7243	697.9123	65535	64640.4
830.8691	700.0109	65535	64639.65
831.014	702.1089	65535	64642.15
831.1588	704.2061	65535	64642.85
831.3037	706.3028	65535	64638.3
831.4486	708.3987	65535	64640.85
831.5935	710.4941	65535	64641.75
831.7383	712.5887	65535	64643.45
831.8832	714.6827	65535	64638.6
832.0281	716.7761	65535	64639.85
832.173	718.8688	65535	64640.55
832.3179	720.9608	65535	64635.6
832.4628	723.0522	65535	64636.6
832.6077	725.1429	65535	64639.05
832.7527	727.233	65535	64635.6
832.8976	729.3224	65535	64638.45
833.0425	731.4112	65535	64636.35
833.1874	733.4993	65535	64633.5
833.3324	735.5867	65535	64637.25
833.4773	737.6735	65535	64634.65
833.6222	739.7596	65535	64633.95
833.7672	741.845	65535	64635.5
833.9122	743.9298	65535	64634.05
834.0571	746.014	65535	64637.9
834.2021	748.0974	65535	64637.05
834.347	750.1802	65535	64635.95
834.492	752.2624	65535	64635.3
834.637	754.3439	65535	64633.25
834.782	756.4247	65535	64627.8
834.9269	758.5048	65535	64636.4
835.0719	760.5843	65535	64634.45
835.2169	762.6631	65535	64637.4
835.3619	764.7413	65535	64635.6
835.5069	766.8188	65535	64633.2
835.6519	768.8956	65535	64631.4
835.7969	770.9718	65535	64633.85
835.9419	773.0473	65535	64634.35
836.0869	775.1221	65535	64633.85
836.232	777.1962	65535	64634.9
836.377	779.2697	65535	64633.35
836.522	781.3426	65535	64615.85
836.667	783.4147	65535	64635.4
836.8121	785.4862	65535	64634.1
836.9571	787.557	65535	64634
837.1021	789.6271	65535	64634.2
837.2472	791.6966	65535	64634.8
837.3922	793.7654	65535	64632.7
837.5373	795.8335	65535	64630.65
837.6823	797.901	65535	64632.1
837.8274	799.9678	65535	64629.95
837.9724	802.0339	65535	64632.85
838.1175	804.0993	65535	64624.3
838.2626	806.1641	65535	64632.95
838.4076	808.2282	65535	64633.9
838.5527	810.2916	65535	64629.95
838.6978	812.3544	65535	64635.2
838.8428	814.4164	65535	64633.2
838.9879	816.4778	65535	64630.6
839.133	818.5385	65535	64632.6
839.2781	820.5986	65535	64632
839.4232	822.658	65535	64631.05
839.5682	824.7166	65535	64632.2
839.7133	826.7747	65535	64634.7
839.8584	828.832	65535	64633.95
840.0035	830.8886	65535	64628.75
840.1486	832.9446	65535	64630.75
840.2937	834.9999	65535	64633.6
840.4388	837.0545	65535	64628.45
840.5839	839.1085	65535	64629.75
840.729	841.1618	65535	64626.9
840.8741	843.2143	65535	64627.85
841.0192	845.2662	65535	64629.5
841.1643	847.3175	65535	64630.05
841.3095	849.368	65535	64636.3
841.4546	851.4179	65535	64632.3
841.5997	853.467	65535	64632.15
841.7448	855.5155	65535	64631.85
841.8899	857.5633	65535	64631.4
842.0351	859.6105	65535	64630.1
842.1802	861.6569	65535	64631.75
842.3253	863.7027	65535	64629.5
842.4704	865.7478	65535	64631.15
842.6156	867.7922	65535	64629.6
842.7607	869.8359	65535	64627.85
842.9058	871.8789	65535	64628.9
843.0509	873.9212	65535	64598.05
843.1961	875.9629	65535	64630.75
843.3412	878.0039	65535	64629.4
843.4863	880.0441	65535	64631.1
843.6315	882.0837	65535	64629.45
843.7766	884.1226	65535	64630.55
843.9218	886.1609	65535	64631.05
844.0669	888.1984	65535	64630.4
844.212	890.2352	65535	64629.55
844.3572	892.2714	65535	64626.5
844.5023	894.3069	65535	64627.8
844.6475	896.3416	65535	64629.4
844.7926	898.3757	65535	64627.25
844.9377	900.4091	65535	64628.95
845.0829	902.4418	65535	64623.6
845.228	904.4739	65535	64626.65
845.3732	906.5052	65535	64628.7
845.5183	908.5358	65535	64631.05
845.6635	910.5658	65535	64626.05
845.8086	912.595	65535	64627.2
845.9538	914.6236	65535	64626.9
846.0989	916.6515	65535	64630.2
846.2441	918.6786	65535	64626.85
846.3892	920.7051	65535	64627.2
846.5344	922.7309	65535	64627.55
846.6795	924.756	65535	64627.7
846.8246	926.7804	65535	64627.65
846.9698	928.8041	65535	64624.9
847.1149	930.8272	65535	64625.95
847.2601	932.8495	65535	64627.95
847.4052	934.8711	65535	64627.55
847.5504	936.892	65535	64627.5
847.6955	938.9123	65535	64625.25
847.8407	940.9318	65535	64628.6
847.9858	942.9506	65535	64626.15
848.131	944.9688	65535	64626.2
848.2761	946.9862	65535	64626.2
848.4213	949.003	65535	64629.4
848.5664	951.019	65535	64629.55
848.7115	953.0344	65535	64629.4
848.8567	955.0491	65535	64627.4
849.0018	957.063	65535	64626.7
849.147	959.0763	65535	64628.4
849.2921	961.0888	65535	64625.05
849.4373	963.1007	65535	64628.75
849.5824	965.1119	65535	64630.8
849.7275	967.1223	65535	64632.2
849.8727	969.1321	65535	64630.6
850.0178	971.1412	65535	64631.05
850.1629	973.1495	65535	64628.6
850.3081	975.1572	65535	64595.4
850.4532	977.1641	65535	64627.75
850.5983	979.1704	65535	64624.8
850.7435	981.1759	65535	64624.05
850.8886	983.1808	65535	64625.8
851.0337	985.1849	65535	64617.2
851.1788	987.1884	65535	64625
851.324	989.1911	65535	64626.4
851.4691	991.1932	65535	64628.7
851.6142	993.1945	65535	64629.55
851.7593	995.1951	65535	64626.2
851.9045	997.1951	65535	64620.45
852.0496	999.1943	65535	64627.4
852.1947	1001.1928	65535	64627.8
852.3398	1003.1906	65535	64625.15
852.4849	1005.1877	65535	64626.15
852.63	1007.1841	65535	64626.55
852.7751	1009.1798	65535	64629.95
852.9202	1011.1748	65535	64627.6
853.0653	1013.1691	65535	64626.95
853.2104	1015.1627	65535	64627.2
853.3555	1017.1556	65535	64628.75
853.5006	1019.1477	65535	64626.6
853.6457	1021.1392	65535	64631.4
853.7908	1023.1299	65535	64629.95
853.9359	1025.12	65535	64630.05
854.081	1027.1093	65535	64631.35
854.2261	1029.0979	65535	64635.55
854.3712	1031.0859	65535	64633.65
854.5163	1033.0731	65535	64629.3
854.6613	1035.0596	65535	64629.8
854.8064	1037.0454	65535	64629.55
854.9515	1039.0304	65535	64626.2
855.0965	1041.0148	65535	64628.1
855.2416	1042.9985	65535	64627.7
855.3867	1044.9814	65535	64626.7
855.5317	1046.9636	65535	64626.3
855.6768	1048.9452	65535	64630.4
855.8219	1050.926	65535	64628.4
855.9669	1052.9061	65535	64628.5
856.112	1054.8855	65535	64626.7
856.257	1056.8642	65535	64629.6
856.4021	1058.8421	65535	64626.3
856.5471	1060.8194	65535	64627
856.6921	1062.7959	65535	64628.1
856.8372	1064.7717	65535	64627.25
856.9822	1066.7469	65535	64628.35
857.1272	1068.7213	65535	64623.95
857.2723	1070.695	65535	64628.95
857.4173	1072.6679	65535	64628
857.5623	1074.6402	65535	64627.85
857.7073	1076.6117	65535	64623.15
857.8523	1078.5826	65535	64625.7
857.9973	1080.5527	65535	64627.05
858.1423	1082.5221	65535	64626.8
858.2873	1084.4908	65535	64626.45
858.4323	1086.4587	65535	64626.15
858.5773	1088.426	65535	64629.75
858.7223	1090.3925	65535	64622.55
858.8673	1092.3584	65535	64629.15
859.0123	1094.3235	65535	64628.65
859.1573	1096.2879	65535	64627.25
859.3022	1098.2515	65535	64627.85
859.4472	1100.2145	65535	64631.7
859.5922	1102.1767	65535	64625.55
859.7371	1104.1382	65535	64630.35
859.8821	1106.099	65535	64625.25
860.027	1108.0591	65535	64626.7
860.172	1110.0185	65535	64625.5
860.3169	1111.9771	65535	64627.15
860.4619	1113.9351	65535	64626.85
860.6068	1115.8923	65535	64625.95
860.7517	1117.8488	65535	64625.55
860.8967	1119.8045	65535	64629.8
861.0416	1121.7596	65535	64629.3
861.1865	1123.7139	65535	64629.2
861.3314	1125.6675	65535	64632.25
861.4763	1127.6204	65535	64626.5
861.6212	1129.5726	65535	64625.25
861.7661	1131.524	65535	64629.9
861.911	1133.4748	65535	64627.15
862.0559	1135.4248	65535	64625.85
862.2008	1137.3741	65535	64628.3
862.3457	1139.3226	65535	64627.1
862.4905	1141.2705	65535	64626.9
862.6354	1143.2176	65535	64621.85
862.7803	1145.164	65535	64625.2
862.9251	1147.1097	65535	64628.05
863.07	1149.0546	65535	64625.15
863.2148	1150.9989	65535	64627.7
863.3597	1152.9424	65535	64629.15
863.5045	1154.8852	65535	64628.85
863.6493	1156.8272	65535	64627.8
863.7942	1158.7686	65535	64621.5
863.939	1160.7092	65535	64626.6
864.0838	1162.6491	65535	64627.35
864.2286	1164.5883	65535	64628.7
864.3734	1166.5267	65535	64628.7
864.5182	1168.4644	65535	64629.05
864.663	1170.4014	65535	64626.9
864.8078	1172.3377	65535	64630.4
864.9526	1174.2732	65535	64630.25
865.0974	1176.2081	65535	64629.85
865.2421	1178.1421	65535	64624.7
865.3869	1180.0755	65535	64629.25
865.5317	1182.0082	65535	64627.85
865.6764	1183.9401	65535	64628.9
865.8212	1185.8713	65535	64630.15
865.9659	1187.8017	65535	64630.55
866.1106	1189.7315	65535	64632.75
866.2554	1191.6605	65535	64606
866.4001	1193.5888	65535	64635.1
866.5448	1195.5163	65535	64632.35
866.6895	1197.4432	65535	64629.35
866.8342	1199.3693	65535	64627.75
866.9789	1201.2947	65535	64625.45
867.1236	1203.2193	65535	64628.55
867.2683	1205.1432	65535	64629.75
867.413	1207.0664	65535	64627.65
867.5576	1208.9889	65535	64627
867.7023	1210.9106	65535	64629.55
867.847	1212.8316	65535	64629.8
867.9916	1214.7519	65535	64619.05
868.1363	1216.6715	65535	64628.75
868.2809	1218.5903	65535	64629.45
868.4255	1220.5084	65535	64628.25
868.5701	1222.4257	65535	64629.45
868.7148	1224.3424	65535	64633.25
868.8594	1226.2583	65535	64623.95
869.004	1228.1735	65535	64626.55
869.1486	1230.0879	65535	64629.35
869.2932	1232.0016	65535	64632.1
869.4377	1233.9146	65535	64628
869.5823	1235.8269	65535	64628.4
869.7269	1237.7384	65535	64630.75
869.8715	1239.6492	65535	64629.05
870.016	1241.5592	65535	64628.8
870.1606	1243.4686	65535	64631.95
870.3051	1245.3772	65535	64631.25
870.4496	1247.285	65535	64628.75
870.5941	1249.1922	65535	64629.8
870.7387	1251.0986	65535	64630.3
870.8832	1253.0042	65535	64627.35
871.0277	1254.9092	65535	64628.2
871.1722	1256.8134	65535	64632.05
871.3167	1258.7169	65535	64629.1
871.4611	1260.6196	65535	64631.4
871.6056	1262.5216	65535	64628.6
871.7501	1264.4229	65535	64631.25
871.8945	1266.3234	65535	64630.45
872.039	1268.2232	65535	64629.55
872.1834	1270.1223	65535	64628.15
872.3278	1272.0207	65535	64628.5
872.4723	1273.9183	65535	64622.9
872.6167	1275.8151	65535	64631.25
872.7611	1277.7113	65535	64628.8
872.9055	1279.6067	65535	64631.15
873.0499	1281.5014	65535	64627.55
873.1943	1283.3953	65535	64627
873.3386	1285.2885	65535	64631.55
873.483	1287.181	65535	64627.9
873.6274	1289.0727	65535	64633.75
873.7717	1290.9637	65535	64628.95
873.9161	1292.854	65535	64630.1
874.0604	1294.7435	65535	64630.85
874.2047	1296.6323	65535	64629.5
874.349	1298.5204	65535	64625
874.4933	1300.4077	65535	64627.3
874.6376	1302.2943	65535	64628.85
874.7819	1304.1802	65535	64632.75
874.9262	1306.0653	65535	64628.6
875.0705	1307.9497	65535	64628.8
875.2147	1309.8333	65535	64630.55
875.359	1311.7162	65535	64630.05
875.5032	1313.5984	65535	64627.8
875.6475	1315.4798	65535	64617.95
875.7917	1317.3605	65535	64613.65
875.9359	1319.2405	65535	64627.45
876.0801	1321.1197	65535	64627.05
876.2243	1322.9982	65535	64625.75
876.3685	1324.876	65535	64628.25
876.5127	1326.753	65535	64629.4
876.6569	1328.6293	65535	64630.3
876.801	1330.5048	65535	64627.95
876.9452	1332.3796	65535	64630.25
877.0893	1334.2537	65535	64603.85
877.2335	1336.127	65535	64629.05
877.3776	1337.9996	65535	64627.8
877.5217	1339.8714	65535	64630.7
877.6658	1341.7426	65535	64584.6
877.8099	1343.6129	65535	64629.3
877.954	1345.4826	65535	64627.9
878.0981	1347.3515	65535	64630.1
878.2422	1349.2196	65535	64629.7
878.3862	1351.087	65535	64631.6
878.5303	1352.9537	65535	64629.95
878.6743	1354.8197	65535	64629.35
878.8184	1356.6849	65535	64632.05
878.9624	1358.5493	65535	64628.5
879.1064	1360.4131	65535	64632.35
879.2504	1362.276	65535	64632.4
879.3944	1364.1383	65535	64629.75
879.5384	1365.9998	65535	64626.6
879.6823	1367.8606	65535	64627.6
879.8263	1369.7206	65535	64631.25
879.9702	1371.5799	65535	64628.4
880.1142	1373.4384	65535	64629.2
880.2581	1375.2962	65535	64631.3
880.402	1377.1533	65535	64631.5
880.5459	1379.0096	65535	64628.2
880.6898	1380.8652	65535	64631.25
880.8337	1382.7201	65535	64630.15
880.9776	1384.5742	65535	64629.8
881.1215	1386.4275	65535	64631.25
881.2653	1388.2802	65535	64629.35
881.4092	1390.132	65535	64631.1
881.553	1391.9832	65535	64630.2
881.6968	1393.8336	65535	64631.6
881.8406	1395.6832	65535	64630.25
881.9844	1397.5322	65535	64630.55
882.1282	1399.3803	65535	64625.55
882.272	1401.2278	65535	64627.65
882.4158	1403.0745	65535	64631.15
882.5595	1404.9204	65535	64632.85
882.7033	1406.7656	65535	64630.45
882.847	1408.6101	65535	64628.75
882.9908	1410.4538	65535	64629.2
883.1345	1412.2968	65535	64630.85
883.2782	1414.139	65535	64629.55
883.4219	1415.9805	65535	64630.8
883.5656	1417.8213	65535	64625
883.7092	1419.6613	65535	64630.65
883.8529	1421.5006	65535	64628.9
883.9965	1423.3391	65535	64627.7
884.1402	1425.1769	65535	64629.4
884.2838	1427.0139	65535	64629.95
884.4274	1428.8502	65535	64629.25
884.571	1430.6858	65535	64629.75
884.7146	1432.5206	65535	64633.2
884.8582	1434.3547	65535	64630.55
885.0018	1436.188	65535	64629.35
885.1453	1438.0206	65535	64629.7
885.2889	1439.8524	65535	64630.45
885.4324	1441.6835	65535	64629.35
885.5759	1443.5139	65535	64627.7
885.7194	1445.3435	65535	64628.6
885.8629	1447.1724	65535	64632.8
886.0064	1449.0005	65535	64633.75
886.1499	1450.8279	65535	64630.75
886.2933	1452.6545	65535	64631.6
886.4368	1454.4804	65535	64633.7
886.5802	1456.3056	65535	64623.5
886.7237	1458.13	65535	64631.3
886.8671	1459.9536	65535	64631.2
887.0105	1461.7766	65535	64630.75
887.1539	1463.5987	65535	64630.4
887.2972	1465.4202	65535	64632.6
887.4406	1467.2409	65535	64630.7
887.584	1469.0608	65535	64631.1
887.7273	1470.88	65535	64630.95
887.8706	1472.6984	65535	64630.6
888.0139	1474.5161	65535	64627.25
888.1572	1476.3331	65535	64631.15
888.3005	1478.1493	65535	64633.1
888.4438	1479.9648	65535	64631
888.5871	1481.7795	65535	64631.6
888.7303	1483.5935	65535	64631.55
888.8736	1485.4067	65535	64631.95
889.0168	1487.2192	65535	64630.9
889.16	1489.031	65535	64630
889.3032	1490.842	65535	64632.95
889.4464	1492.6522	65535	64631.6
889.5896	1494.4618	65535	64630.8
889.7327	1496.2705	65535	64632.05
889.8759	1498.0785	65535	64629.15
890.019	1499.8858	65535	64629.05
890.1622	1501.6924	65535	64633.3
890.3053	1503.4981	65535	64634
890.4484	1505.3032	65535	64633.2
890.5914	1507.1075	65535	64630.7
890.7345	1508.911	65535	64633.4
890.8776	1510.7138	65535	64630.95
891.0206	1512.5159	65535	64631.5
891.1637	1514.3172	65535	64633.7
891.3067	1516.1178	65535	64634.15
891.4497	1517.9176	65535	64631.7
891.5927	1519.7166	65535	64630.75
891.7357	1521.515	65535	64625.5
891.8786	1523.3126	65535	64631.5
892.0216	1525.1094	65535	64630.45
892.1645	1526.9055	65535	64633.1
892.3074	1528.7008	65535	64636.95
892.4503	1530.4954	65535	64628.1
892.5932	1532.2893	65535	64634.2
892.7361	1534.0824	65535	64630.3
892.879	1535.8747	65535	64632.7
893.0218	1537.6663	65535	64633.3
893.1647	1539.4572	65535	64629.8
893.3075	1541.2473	65535	64632.2
893.4503	1543.0367	65535	64635.3
893.5931	1544.8253	65535	64628.35
893.7359	1546.6132	65535	64631.25
893.8787	1548.4003	65535	64625.05
894.0214	1550.1867	65535	64623.45
894.1642	1551.9723	65535	64630.5
894.3069	1553.7572	65535	64631.45
894.4496	1555.5414	65535	64632.5
894.5923	1557.3247	65535	64634.55
894.735	1559.1074	65535	64637.4
894.8777	1560.8893	65535	64637.45
895.0204	1562.6705	65535	64632.85
895.163	1564.4509	65535	64633.55
895.3056	1566.2305	65535	64636.85
895.4482	1568.0094	65535	64635.8
895.5908	1569.7876	65535	64635.45
895.7334	1571.565	65535	64634.5
895.876	1573.3417	65535	64636.35
896.0186	1575.1176	65535	64634.5
896.1611	1576.8928	65535	64635.8
896.3036	1578.6672	65535	64636.25
896.4461	1580.4409	65535	64638
896.5886	1582.2138	65535	64636.85
896.7311	1583.986	65535	64635.1
896.8736	1585.7575	65535	64635.6
897.0161	1587.5282	65535	64634.95
897.1585	1589.2981	65535	64637
897.3009	1591.0673	65535	64639.15
897.4433	1592.8358	65535	64636.95
897.5857	1594.6035	65535	64635.9
897.7281	1596.3704	65535	64634.8
897.8705	1598.1366	65535	64636.65
898.0128	1599.9021	65535	64637.6
898.1551	1601.6668	65535	64635.75
898.2975	1603.4308	65535	64636.7
898.4398	1605.194	65535	64632.35
898.5821	1606.9564	65535	64636.85
898.7243	1608.7182	65535	64636.05
898.8666	1610.4791	65535	64638.9
899.0088	1612.2394	65535	64639.2
899.1511	1613.9988	65535	64638.55
899.2933	1615.7576	65535	64639
899.4355	1617.5156	65535	64632.05
899.5776	1619.2728	65535	64636.25
899.7198	1621.0293	65535	64638.45
899.862	1622.785	65535	64632.9
900.0041	1624.54	65535	64635.55
900.1462	1626.2942	65535	64638.05
900.2883	1628.0477	65535	64634.7
900.4304	1629.8005	65535	64633.5
900.5725	1631.5525	65535	64639.5
900.7145	1633.3037	65535	64637.35
900.8566	1635.0542	65535	64638.9
900.9986	1636.804	65535	64637.95
901.1406	1638.553	65535	64546.2
901.2826	1640.3013	65535	64637.6
901.4245	1642.0488	65535	64635.85
901.5665	1643.7955	65535	64640.6
901.7085	1645.5416	65535	64639.1
901.8504	1647.2868	65535	64638.2
901.9923	1649.0313	65535	64639.15
902.1342	1650.7751	65535	64633.55
902.2761	1652.5181	65535	64636.95
902.4179	1654.2604	65535	64636.95
902.5598	1656.0019	65535	64640.25
902.7016	1657.7427	65535	64640.2
902.8434	1659.4828	65535	64638.85
902.9852	1661.222	65535	64638.5
903.127	1662.9606	65535	64638
903.2687	1664.6984	65535	64637.9
903.4105	1666.4354	65535	64638.05
903.5522	1668.1717	65535	64636.55
903.6939	1669.9072	65522.75	64626.1
903.8356	1671.642	65527.5	64628.05
903.9773	1673.3761	65519.7	64621.6
904.119	1675.1094	65518.15	64623.75
904.2606	1676.8419	65462	64566
904.4022	1678.5737	65500.8	64604
904.5439	1680.3048	65464	64567.75
904.6855	1682.0351	65439.45	64541.5
904.827	1683.7646	65421.9	64522.8
904.9686	1685.4934	65460.5	64564.8
905.1101	1687.2215	65319.2	64422.25
905.2517	1688.9488	65429.55	64534.1
905.3932	1690.6754	65166.15	64271.75
905.5347	1692.4012	65336.5	64441.4
905.6761	1694.1263	65368.1	64472.6
905.8176	1695.8506	65219.2	64321.8
905.9591	1697.5742	65258.2	64365.35
906.1005	1699.297	65241.85	64345
906.2419	1701.0191	65257.5	64364.65
906.3833	1702.7404	65075.5	64180.75
906.5246	1704.461	64989.3	64091.6
906.666	1706.1808	65150.8	64254.1
906.8073	1707.8999	65072.3	64174
906.9487	1709.6182	65044.55	64151.45
907.09	1711.3358	64988.75	64095.25
907.2313	1713.0527	64969.65	64077
907.3725	1714.7688	64988.1	64089.45
907.5138	1716.4841	64592.75	63693.45
907.655	1718.1987	64769.5	63868.95
907.7962	1719.9126	64653.8	63759.65
907.9374	1721.6257	64801.65	63904.6
908.0786	1723.338	64807.2	63913.9
908.2198	1725.0496	64110.55	63216.5
908.3609	1726.7605	64212.25	63315.35
908.502	1728.4706	63976.85	63080.75
908.6431	1730.18	64349.2	63452.85
908.7842	1731.8886	63870.2	62977.85
908.9253	1733.5964	63662.7	62763.5
909.0664	1735.3036	64135.55	63239.9
909.2074	1737.0099	63809.35	62915.1
909.3484	1738.7156	63406.8	62514.85
909.4894	1740.4204	63249.95	62352.85
909.6304	1742.1246	63443.85	62547.45
909.7714	1743.8279	63595.1	62701.05
909.9123	1745.5306	63439.9	62545.95
910.0532	1747.2325	62171.35	61276.3
910.1941	1748.9336	62241	61345.75
910.335	1750.634	62678.35	61783
910.4759	1752.3336	63022.45	62128.25
910.6168	1754.0325	61999.45	61106.6
910.7576	1755.7307	62920.15	62026.2
910.8984	1757.4281	61662.35	60769.65
911.0392	1759.1247	62601.35	61699.65
911.18	1760.8206	61264.75	60365.6
911.3208	1762.5158	61436.7	60537.8
911.4615	1764.2102	61729.25	60836.95
911.6022	1765.9039	61444.6	60550.2
911.7429	1767.5968	61145.35	60252.05
911.8836	1769.289	60957.35	60063.5
912.0243	1770.9804	61265.4	60373.35
912.1649	1772.6711	60969.35	60074.25
912.3056	1774.361	60703.1	59807.15
912.4462	1776.0502	60762.7	59867.8
912.5868	1777.7386	59837.15	58940
912.7274	1779.4263	60350.2	59455.75
912.8679	1781.1132	60299.05	59404.6
913.0084	1782.7994	60052.75	59157.85
913.149	1784.4849	60139.35	59246.05
913.2895	1786.1696	59042.75	58143.75
913.4299	1787.8535	59606.1	58714.3
913.5704	1789.5367	59707.6	58814.7
913.7108	1791.2192	59049.15	58155.55
913.8513	1792.9009	58670.2	57746.4
913.9917	1794.5818	59125.45	58228.2
914.132	1796.2621	58602.6	57711.05
914.2724	1797.9415	58637.45	57743.5
914.4128	1799.6202	58476.05	57581.85
914.5531	1801.2982	58555.3	57662.1
914.6934	1802.9755	58001.25	57105.9
914.8337	1804.6519	57793.4	56900.35
914.9739	1806.3277	58506.9	57612.5
915.1142	1808.0027	57247.95	56355.85
915.2544	1809.6769	57623	56728.1
915.3946	1811.3504	57798.75	56904.65
915.5348	1813.0231	56859.3	55966.85
915.675	1814.6951	57359.45	56466.4
915.8151	1816.3664	56993.15	56097
915.9553	1818.0369	57065.3	56170.5
916.0954	1819.7067	56778.4	55885.65
916.2355	1821.3757	57213.2	56317.6
916.3755	1823.044	56389.35	55496.45
916.5156	1824.7115	56148.1	55253.15
916.6556	1826.3783	56268.2	55374.1
916.7956	1828.0443	56198.1	55305.5
916.9356	1829.7096	55940.85	55046.1
917.0756	1831.3741	55554.65	54657.75
917.2155	1833.0379	55704.1	54811.75
917.3555	1834.701	55607.3	54712.35
917.4954	1836.3633	55232	54335.55
917.6353	1838.0248	55428.15	54533.7
917.7751	1839.6856	55251.5	54358.9
917.915	1841.3457	54819	53926.05
918.0548	1843.005	55257.5	54365.2
918.1946	1844.6636	54926.4	54032.75
918.3344	1846.3214	54473.6	53580.6
918.4742	1847.9785	54596.2	53702.85
918.6139	1849.6349	54459.75	53566.2
918.7537	1851.2904	54683.75	53777.85
918.8934	1852.9453	54172.75	53277.2
919.0331	1854.5994	54192.85	53295.75
919.1727	1856.2528	54352.8	53455.3
919.3124	1857.9054	53933.35	53040.75
919.452	1859.5572	53808.85	52918
919.5916	1861.2083	53785.85	52891.7
919.7312	1862.8587	54109.5	53216.25
919.8708	1864.5084	53253.2	52359.3
920.0103	1866.1572	53414.4	52520.8
920.1498	1867.8054	53002.25	52108.5
920.2893	1869.4528	53211.75	52317.3
920.4288	1871.0994	52753.8	51859.8
920.5683	1872.7453	52844	51950.3
920.7077	1874.3905	52808.3	51909.05
920.8471	1876.0349	52501.15	51605.8
920.9865	1877.6786	52536.7	51642.65
921.1259	1879.3215	52309.6	51416.65
921.2653	1880.9637	52485.85	51590.95
921.4046	1882.6051	52239.3	51347.3
921.5439	1884.2458	52007.35	51111.85
921.6832	1885.8858	51726.15	50834.2
921.8225	1887.525	51847.85	50952.05
921.9617	1889.1634	51615.1	50721.65
922.101	1890.8011	51454.6	50561.45
922.2402	1892.4381	51120.35	50226.55
922.3794	1894.0743	51329.2	50437.5
922.5185	1895.7098	51109.45	50215.75
922.6577	1897.3446	50818.15	49923.9
922.7968	1898.9786	50870.75	49971.1
922.9359	1900.6118	50713.25	49820.9
923.075	1902.2443	50425.65	49529.3
923.214	1903.8761	50448.8	49556.45
923.3531	1905.5071	50133.5	49239.95
923.4921	1907.1374	49893.4	49000.55
923.6311	1908.7669	49897.95	49006.75
923.77	1910.3957	49934.85	49044.35
923.909	1912.0237	49477.2	48581
924.0479	1913.651	49410.05	48516.5
924.1868	1915.2776	49270.35	48379.55
924.3257	1916.9034	49147.45	48255.1
924.4646	1918.5285	48844.95	47953.3
924.6034	1920.1528	48618.55	47723.35
924.7422	1921.7764	48610.7	47719.05
924.881	1923.3992	48436.75	47544.95
925.0198	1925.0213	48164	47271.35
925.1586	1926.6427	47910.4	47019.85
925.2973	1928.2633	47959	46956
925.436	1929.8832	47716.5	46821.8
925.5747	1931.5023	47564.9	46672.75
925.7134	1933.1207	47353.75	46460.35
925.852	1934.7383	47345.95	46453.5
925.9906	1936.3552	47090.15	46195.15
926.1292	1937.9714	46964.7	46070.3
926.2678	1939.5868	46799.15	45905.05
926.4064	1941.2015	46533.55	45639.9
926.5449	1942.8154	46312.9	45420.4
926.6834	1944.4286	46200.05	45306.5
926.8219	1946.041	46066.95	45154.15
926.9604	1947.6528	45799.9	44901.1
927.0988	1949.2637	45701.45	44810.1
927.2372	1950.8739	45544.3	44651.7
927.3756	1952.4834	45474.05	44582.4
927.514	1954.0921	45365.35	44474.5
927.6523	1955.7001	45126.1	44230.5
927.7907	1957.3074	45016.4	44124.05
927.929	1958.9139	44773.65	43883.3
928.0673	1960.5197	44735.7	43839.95
928.2055	1962.1247	44473.3	43580.8
928.3438	1963.729	44212.9	43320.5
928.482	1965.3325	44060.85	43145.2
928.6202	1966.9353	44035.95	43144.6
928.7584	1968.5374	43751.5	42858.7
928.8965	1970.1387	43657.05	42765.75
929.0346	1971.7393	43510.8	42619.05
929.1727	1973.3392	43351.7	42457.55
929.3108	1974.9383	43132.05	42241.2
929.4489	1976.5366	42980.6	42087.9
929.5869	1978.1342	42951.1	42057.55
929.7249	1979.7311	42830.25	41938.8
929.8629	1981.3273	42710.5	41817.45
930.0009	1982.9227	42502.1	41608.55
930.1388	1984.5173	42399.35	41506.35
930.2767	1986.1112	42181.9	41287.65
930.4146	1987.7044	42178.45	41287.7
930.5525	1989.2968	41896.9	41005.1
930.6904	1990.8885	41848.7	40952.55
930.8282	1992.4795	41728.75	40836.2
930.966	1994.0697	41549.5	40659.45
931.1038	1995.6592	41447.4	40558
931.2415	1997.2479	41331.35	40440.25
931.3793	1998.8359	41145	40254.9
931.517	2000.4232	40978.95	40088.85
931.6547	2002.0097	40870.65	39980.5
931.7923	2003.5955	40631.4	39741.8
931.93	2005.1805	40561.6	39667.2
932.0676	2006.7648	40433.25	39541.7
932.2052	2008.3484	40368.55	39475.85
932.3427	2009.9312	40312.9	39419.1
932.4803	2011.5133	40154	39262.65
932.6178	2013.0946	40021.6	39130.35
932.7553	2014.6752	39954.95	39066.25
932.8928	2016.2551	39831.1	38939.3
933.0302	2017.8342	39597.5	38705.65
933.1676	2019.4126	39493.75	38603.6
933.305	2020.9902	39344.45	38453.45
933.4424	2022.5672	39280	38388.15
933.5798	2024.1433	39208	38311.35
933.7171	2025.7188	39032.05	38142.35
933.8544	2027.2935	38896.35	38006.05
933.9917	2028.8674	38674	37784.75
934.129	2030.4406	38616.2	37726.55
934.2662	2032.0131	38406.4	37518.35
934.4034	2033.5849	38265.4	37366.2
934.5406	2035.1559	38273.1	37383.75
934.6778	2036.7261	38245.95	37354.2
934.8149	2038.2957	38066.1	37175.8
934.952	2039.8645	37961.2	37070.9
935.0891	2041.4325	37974.75	37079.35
935.2262	2042.9998	37740.6	36850.7
935.3632	2044.5664	37574.8	36684.2
935.5002	2046.1323	37536.05	36645.45
935.6372	2047.6974	37389.4	36497.95
935.7742	2049.2617	37279.25	36387.95
935.9111	2050.8254	37213.4	36318.9
936.048	2052.3883	37135.25	36242.95
936.1849	2053.9504	37043.75	36152.4
936.3218	2055.5118	36918.1	36029.35
936.4586	2057.0725	36747.55	35851.7
936.5955	2058.6325	36651.1	35759.85
936.7323	2060.1917	36539.6	35650.3
936.869	2061.7502	36468.25	35573.8
937.0058	2063.3079	36295.6	35407.2
937.1425	2064.8649	36147.8	35254.15
937.2792	2066.4212	36058.7	35167.05
937.4159	2067.9767	35949.5	35059.8
937.5525	2069.5315	35789.05	34898.15
937.6891	2071.0856	35639.2	34749.2
937.8257	2072.6389	35471.75	34580.7
937.9623	2074.1915	35283.7	34396.45
938.0989	2075.7433	35169.15	34276.05
938.2354	2077.2945	35097.75	34207.35
938.3719	2078.8448	34998.15	34109.75
938.5084	2080.3945	34849.4	33958
938.6448	2081.9434	34848.1	33957.85
938.7812	2083.4916	34715.4	33824.45
938.9176	2085.039	34536	33643.2
939.054	2086.5857	34470.3	33576.3
939.1903	2088.1317	34378.8	33488.05
939.3267	2089.677	34298.45	33406.05
939.463	2091.2215	34185.6	33293.85
939.5992	2092.7652	34105.5	33211.45
939.7355	2094.3083	33987.05	33093.95
939.8717	2095.8506	33924.45	33034.7
940.0079	2097.3921	33859	32968.4
940.1441	2098.933	33747.7	32857.65
940.2802	2100.4731	33660.55	32768.75
940.4163	2102.0124	33600.95	32703.6
940.5524	2103.5511	33540.55	32649.95
940.6885	2105.089	33420.65	32531
940.8245	2106.6261	33315.35	32425.4
940.9606	2108.1626	33227.05	32334.65
941.0965	2109.6983	33173.05	32254.05
941.2325	2111.2332	33037.6	32145.15
941.3684	2112.7675	32955.9	32063.3
941.5044	2114.301	32833.55	31941.25
941.6403	2115.8337	32821.2	31929.95
941.7761	2117.3657	32692.15	31802.35
941.912	2118.897	32618.05	31726.7
942.0478	2120.4276	32476.35	31578.05
942.1835	2121.9575	32287.15	31396
942.3193	2123.4866	32341.55	31435.5
942.455	2125.0149	32221	31326.35
942.5907	2126.5426	31996.4	31107.05
942.7264	2128.0695	31914.85	31018.9
942.8621	2129.5956	31869.75	30982.05
942.9977	2131.1211	31820.05	30925.1
943.1333	2132.6458	31724.05	30832.45
943.2689	2134.1698	31648.6	30755.95
943.4044	2135.693	31573.2	30677.15
943.54	2137.2155	31476.6	30583.7
943.6755	2138.7373	31382.3	30491.5
943.8109	2140.2584	31274.85	30384.85
943.9464	2141.7787	31198.1	30305.2
944.0818	2143.2983	31038.05	30147.65
944.2172	2144.8171	30865.8	29976.75
944.3526	2146.3353	30813.7	29920.1
944.4879	2147.8527	30678.55	29787.65
944.6232	2149.3693	30674.95	29784.05
944.7585	2150.8853	30485.4	29593.55
944.8938	2152.4005	30367.4	29475.95
945.029	2153.9149	30319.75	29427.65
945.1642	2155.4287	30215.75	29323.25
945.2994	2156.9417	30166.8	29274.25
945.4346	2158.454	30039.9	29145.35
945.5697	2159.9655	29951.85	29061.6
945.7048	2161.4764	29931.15	29040.55
945.8399	2162.9865	29785.7	28895.55
945.9749	2164.4958	29731.3	28840.45
946.1099	2166.0045	29629.75	28735.8
946.2449	2167.5124	29575.05	28684.35
946.3799	2169.0195	29455.3	28564
946.5148	2170.526	29444.7	28550.2
946.6498	2172.0317	29347.3	28456.95
946.7846	2173.5367	29218.8	28325.4
946.9195	2175.0409	29116.1	28228.45
947.0543	2176.5445	29130.95	28239.5
947.1891	2178.0473	29001.25	28109.35
947.3239	2179.5494	28889.6	27995
947.4587	2181.0507	28775.35	27883.35
947.5934	2182.5513	28684.45	27793.6
947.7281	2184.0512	28592.5	27701.65
947.8628	2185.5504	28494.65	27603.2
947.9974	2187.0488	28364.15	27474.05
948.132	2188.5465	28248	27358.1
948.2666	2190.0435	28148.05	27259.65
948.4012	2191.5397	28067.1	27174.75
948.5357	2193.0353	27981.45	27090.5
948.6702	2194.5301	27830.65	26938.5
948.8047	2196.0241	27727.7	26835.15
948.9392	2197.5175	27679.85	26790.65
949.0736	2199.0101	27561.65	26669.1
949.208	2200.502	27404.4	26513.8
949.3424	2201.9931	27322.25	26432.5
949.4767	2203.4835	27187	26294.85
949.611	2204.9733	27150.45	26251.35
949.7453	2206.4622	27060.1	26170.55
949.8796	2207.9505	26979.15	26085.1
950.0138	2209.438	26835.55	25947.05
950.148	2210.9248	26732.65	25841.8
950.2822	2212.4109	26644.6	25755.1
950.4164	2213.8962	26595.95	25702.2
950.5505	2215.3809	26520.1	25628
950.6846	2216.8648	26456.6	25563.9
950.8186	2218.3479	26347.5	25450.85
950.9527	2219.8304	26246.05	25352.2
951.0867	2221.3121	26110.55	25218.5
951.2207	2222.7931	26037.1	25144.45
951.3546	2224.2733	25925.1	25033.5
951.4886	2225.7529	25833.7	24942.85
951.6225	2227.2317	25737.05	24843.3
951.7563	2228.7098	25737.5	24848.75
951.8902	2230.1872	25576.35	24686
952.024	2231.6638	25585.3	24695.35
952.1578	2233.1397	25440.45	24544.6
952.2916	2234.6149	25388.4	24496.55
952.4253	2236.0894	25278.75	24387.25
952.559	2237.5632	25186.1	24293.65
952.6927	2239.0362	25087.85	24196.45
952.8263	2240.5085	24982	24093.85
952.9599	2241.9801	24901.35	24008.75
953.0935	2243.4509	24823.55	23934.3
953.2271	2244.921	24769	23876.55
953.3606	2246.3904	24651.95	23758.25
953.4941	2247.8591	24562.2	23671.6
953.6276	2249.3271	24497.95	23606.4
953.7611	2250.7943	24409.8	23518.55
953.8945	2252.2608	24320.9	23429.05
954.0279	2253.7266	24244.6	23352.45
954.1612	2255.1917	24153.9	23263.75
954.2946	2256.656	24019.95	23125.55
954.4279	2258.1197	23998.8	23110
954.5612	2259.5826	23935.45	23042.2
954.6944	2261.0447	23847.4	22955.1
954.8276	2262.5062	23764.15	22873.55
954.9608	2263.9669	23749.15	22854.2
955.094	2265.4269	23701.9	22812.2
955.2271	2266.8862	23598	22707.6
955.3602	2268.3448	23574.8	22683.45
955.4933	2269.8026	23485.75	22596.15
955.6264	2271.2598	23403.95	22513.2
955.7594	2272.7162	23327.95	22438.05
955.8924	2274.1719	23258.75	22367.9
956.0253	2275.6268	23165	22274.75
956.1583	2277.0811	23112.55	22219.85
956.2912	2278.5346	23020.2	22129.25
956.4241	2279.9874	22976.8	22085.95
956.5569	2281.4395	22945.2	22055.7
956.6897	2282.8908	22826.85	21932.45
956.8225	2284.3414	22785.05	21892.15
956.9553	2285.7914	22713.35	21822.45
957.088	2287.2406	22612.35	21720.05
957.2207	2288.689	22551.35	21660.05
957.3534	2290.1368	22509.65	21616
957.486	2291.5838	22430.75	21537.75
957.6186	2293.0302	22368.35	21475.85
957.7512	2294.4758	22258.25	21364.35
957.8838	2295.9206	22168.05	21273.95
958.0163	2297.3648	22073.3	21182.3
958.1488	2298.8082	22126.65	21235.3
958.2813	2300.251	22005.35	21114.25
958.4137	2301.693	21914.2	21021.55
958.5461	2303.1343	21906.1	21012.8
958.6785	2304.5748	21752.95	20859.05
958.8108	2306.0147	21743.6	20853.5
958.9432	2307.4538	21660.1	20767.05
959.0754	2308.8922	21582.5	20693.6
959.2077	2310.3299	21507.9	20617.65
959.3399	2311.7669	21426.85	20536.9
959.4721	2313.2031	21348.7	20458.15
959.6043	2314.6387	21263.7	20372.1
959.7365	2316.0735	21198.85	20306.75
959.8686	2317.5076	21147.5	20255.85
960.0006	2318.941	21107	20215.15
960.1327	2320.3737	21005.8	20115.55
960.2647	2321.8056	20945.05	20050.65
960.3967	2323.2369	20892.45	20000.05
960.5287	2324.6674	20802.8	19910.55
960.6606	2326.0972	20741.2	19849.4
960.7925	2327.5263	20665.25	19772.5
960.9244	2328.9547	20601.85	19710.65
961.0562	2330.3823	20541.2	19650.9
961.1881	2331.8092	20527.25	19633.4
961.3198	2333.2355	20415.35	19523.5
961.4516	2334.661	20394.5	19500.9
961.5833	2336.0858	20321.25	19428.85
961.715	2337.5098	20243.85	19352.15
961.8467	2338.9332	20196.9	19305.35
961.9783	2340.3558	20148.45	19254.95
962.1099	2341.7778	20044.95	19153.15
962.2415	2343.199	19995.45	19103.15
962.373	2344.6195	19914.4	19022.75
962.5045	2346.0393	19870	18980.2
962.636	2347.4583	19826.45	18934.05
962.7675	2348.8767	19755.45	18863.25
962.8989	2350.2943	19706.95	18816.25
963.0303	2351.7113	19696.65	18800.7
963.1617	2353.1275	19612.75	18721.9
963.293	2354.543	19543	18645
963.4243	2355.9578	19445.15	18554.05
963.5556	2357.3718	19325.85	18436.75
963.6868	2358.7852	19258.4	18363.6
963.818	2360.1978	19205	18312.9
963.9492	2361.6098	19158	18268.4
964.0803	2363.021	19085.35	18191.2
964.2114	2364.4315	19028.45	18137.2
964.3425	2365.8413	18956.15	18064.3
964.4736	2367.2504	18868.55	17979
964.6046	2368.6587	18756.85	17867.25
964.7356	2370.0664	18701.9	17810.35
964.8666	2371.4733	18637.4	17748.3
964.9975	2372.8795	18543.2	17652.25
965.1284	2374.285	18477.5	17585.65
965.2593	2375.6899	18378.15	17488.45
965.3901	2377.0939	18347	17456.6
965.5209	2378.4973	18266.3	17376.25
965.6517	2379.9	18204.85	17312.8
965.7825	2381.3019	18157.4	17266.1
965.9132	2382.7032	18078	17189
966.0439	2384.1037	18024.85	17135.05
966.1745	2385.5035	17958	17067.4
966.3051	2386.9027	17904.1	17014.3
966.4357	2388.3011	17871.45	16978.8
966.5663	2389.6987	17831.4	16940.6
966.6968	2391.0957	17718.55	16828.15
966.8273	2392.492	17641.75	16753.2
966.9578	2393.8876	17547.25	16657
967.0882	2395.2824	17463.3	16573.65
967.2186	2396.6765	17397.25	16508.9
967.349	2398.07	17280.15	16390.35
967.4793	2399.4627	17294	16403.5
967.6097	2400.8547	17224.4	16332.3
967.7399	2402.246	17177.15	16280.75
967.8702	2403.6366	17078.3	16187.25
968.0004	2405.0265	16990.15	16102.4
968.1306	2406.4156	16921	16028.15
968.2607	2407.8041	16881.35	15987.05
968.3909	2409.1918	16785.05	15890.9
968.521	2410.5789	16714.55	15825.1
968.651	2411.9652	16673.55	15779.2
968.781	2413.3508	16609.15	15718.5
968.911	2414.7358	16565.45	15674.45
969.041	2416.12	16510.6	15620.45
969.1709	2417.5035	16455.2	15566.3
969.3008	2418.8863	16374.1	15484.4
969.4307	2420.2684	16339.2	15449.35
969.5606	2421.6497	16276.4	15384.25
969.6904	2423.0304	16160.8	15271.3
969.8201	2424.4104	16137.8	15245.9
969.9499	2425.7896	16038.7	15146.05
970.0796	2427.1682	16005.8	15115.65
970.2093	2428.546	15987.95	15095.1
970.3389	2429.9232	15924.1	15030.9
970.4685	2431.2996	15890.2	15002.35
970.5981	2432.6753	15846.95	14956.4
970.7277	2434.0503	15781.15	14891.1
970.8572	2435.4246	15710	14819.6
970.9867	2436.7982	15648.1	14755.4
971.1161	2438.1711	15638.6	14748.85
971.2456	2439.5433	15589.9	14700.25
971.375	2440.9148	15505.45	14610.2
971.5043	2442.2856	15389.65	14497.5
971.6336	2443.6557	15389.75	14498.65
971.7629	2445.025	15326.85	14435.95
971.8922	2446.3937	15273.45	14382.4
972.0214	2447.7617	15229.1	14338.75
972.1506	2449.1289	15194.55	14302.7
972.2798	2450.4955	15158.35	14263.25
972.4089	2451.8613	15084.9	14196.5
972.538	2453.2265	15025.85	14136.15
972.6671	2454.5909	15027.45	14136.1
972.7961	2455.9546	14962.55	14073.8
972.9251	2457.3177	14933.45	14042.5
973.0541	2458.68	14844.7	13951.9
973.1831	2460.0416	14849.7	13957.5
973.312	2461.4025	14815	13923.2
973.4408	2462.7627	14773.4	13871.25
973.5697	2464.1222	14728.5	13838.75
973.6985	2465.4811	14686	13795.85
973.8273	2466.8392	14654.95	13763.35
973.956	2468.1966	14586.4	13693.45
974.0847	2469.5533	14560.35	13665.6
974.2134	2470.9093	14540.55	13648.8
974.3421	2472.2645	14424.85	13534.2
974.4707	2473.6191	14393.95	13504.35
974.5993	2474.973	14341.6	13451.7
974.7278	2476.3262	14302.55	13411.15
974.8563	2477.6787	14230.55	13338.3
974.9848	2479.0305	14170.65	13279.8
975.1132	2480.3816	14121.5	13230.45
975.2417	2481.7319	14064.55	13173.3
975.37	2483.0816	14009.75	13117.95
975.4984	2484.4306	13962.55	13070.7
975.6267	2485.7789	13922.4	13032.35
975.755	2487.1264	13828.7	12935.6
975.8833	2488.4733	13800.55	12911.8
976.0115	2489.8195	13742.35	12836.3
976.1397	2491.165	13697.8	12803.85
976.2678	2492.5097	13653.45	12759.55
976.3959	2493.8538	13611.05	12721.1
976.524	2495.1972	13527.5	12637.2
976.6521	2496.5398	13480.05	12590.4
976.7801	2497.8818	13432.05	12538.65
976.9081	2499.2231	13389.8	12499.6
977.036	2500.5637	13330.3	12437.65
977.164	2501.9035	13286.05	12393.3
977.2918	2503.2427	13260.45	12363.5
977.4197	2504.5812	13224.4	12335.3
977.5475	2505.919	13154.1	12263.4
977.6753	2507.256	13163.1	12273.4
977.8031	2508.5924	13078.6	12189.1
977.9308	2509.9281	13047.25	12150.65
978.0585	2511.2631	12960.5	12068.35
978.1861	2512.5974	12986.6	12095.5
978.3137	2513.9309	12936	12045.1
978.4413	2515.2638	12874.9	11958.5
978.5689	2516.596	12817.7	11929.05
978.6964	2517.9275	12739.75	11848.3
978.8239	2519.2583	12692.65	11800.65
978.9513	2520.5884	12645.9	11754.35
979.0788	2521.9178	12615.5	11723.2
979.2062	2523.2465	12562.4	11672.05
979.3335	2524.5745	12493.45	11604.2
979.4608	2525.9018	12492.3	11602.6
979.5881	2527.2284	12438.8	11550.45
979.7154	2528.5543	12399.8	11509.35
979.8426	2529.8796	12364	11475
979.9698	2531.2041	12358	11466.8
980.0969	2532.5279	12285.5	11396.25
980.224	2533.851	12283.4	11393.3
980.3511	2535.1735	12231.4	11340.65
980.4781	2536.4952	12205.15	11313.4
980.6052	2537.8163	12178.35	11287.3
980.7321	2539.1366	12139.3	11250.75
980.8591	2540.4562	12071.8	11179.4
980.986	2541.7752	12082.15	11191.75
981.1129	2543.0935	12025.65	11134.15
981.2397	2544.411	12005.7	11113.6
981.3665	2545.7279	11967.8	11076.7
981.4933	2547.0441	11993.2	11103.45
981.62	2548.3596	11919.4	11025.35
981.7467	2549.6744	11909.65	11020.9
981.8734	2550.9885	11854.1	10955.75
982.0001	2552.3019	11834.65	10944.95
982.1267	2553.6146	11804.15	10915.95
982.2532	2554.9266	11741.8	10850.15
982.3798	2556.2379	11719.85	10829.3
982.5063	2557.5485	11681.35	10790.5
982.6327	2558.8585	11651.2	10753.75
982.7592	2560.1677	11644.1	10749.05
982.8856	2561.4762	11592.6	10703.95
983.0119	2562.7841	11595.55	10702.8
983.1383	2564.0913	11562.05	10673.5
983.2646	2565.3977	11508.25	10620.5
983.3908	2566.7035	11484.75	10595.6
983.517	2568.0086	11493	10601.4
983.6432	2569.313	11436.55	10544.15
983.7694	2570.6167	11425.45	10530.4
983.8955	2571.9197	11385.75	10494.8
984.0216	2573.222	11377.1	10484
984.1476	2574.5236	11323.35	10433
984.2737	2575.8246	11291.15	10397.55
984.3996	2577.1248	11279.9	10385.6
984.5256	2578.4244	11248.6	10358.15
984.6515	2579.7232	11224.25	10334.6
984.7774	2581.0214	11217.8	10299.7
984.9032	2582.3189	11188.45	10299.75
985.029	2583.6157	11163	10266.25
985.1548	2584.9118	11130.8	10239.35
985.2806	2586.2072	11088.25	10197.85
985.4063	2587.5019	11049.55	10159
985.5319	2588.7959	11012.55	10121.15
985.6576	2590.0893	10999.9	10107.55
985.7832	2591.3819	10983.05	10092.15
985.9087	2592.6739	10915.5	10027.1
986.0343	2593.9652	10876.8	9984.5
986.1597	2595.2557	10846.5	9954.6
986.2852	2596.5456	10806.4	9913.55
986.4106	2597.8348	10760.5	9870.6
986.536	2599.1234	10736.5	9845.85
986.6614	2600.4112	10682.05	9792.1
986.7867	2601.6983	10658.5	9762
986.912	2602.9848	10607.4	9716.95
987.0372	2604.2705	10568.35	9668.95
987.1624	2605.5556	10521.15	9628.85
987.2876	2606.84	10490.9	9599.6
987.4128	2608.1237	10446.7	9556.3
987.5379	2609.4067	10418.6	9528.6
987.6629	2610.689	10385.05	9484.1
987.788	2611.9707	10343.65	9450.45
987.913	2613.2516	10313.65	9420.05
988.0379	2614.5319	10249.25	9359.75
988.1629	2615.8115	10231.7	9340.2
988.2878	2617.0903	10193.1	9301
988.4126	2618.3685	10124.35	9233
988.5375	2619.6461	10101.55	9210.7
988.6622	2620.9229	10055.65	9165.1
988.787	2622.199	10025.6	9135.25
988.9117	2623.4745	10010.1	9115.95
989.0364	2624.7493	9965.85	9075.25
989.161	2626.0234	9946.85	9057.2
989.2857	2627.2968	9900.55	9009.55
989.4102	2628.5695	9879.1	8987.75
989.5348	2629.8415	9794.65	8904.45
989.6593	2631.1128	9766.35	8872.5
989.7837	2632.3835	9737.95	8846.7
989.9082	2633.6535	9678.55	8786.25
990.0326	2634.9228	9642.3	8751.35
990.1569	2636.1914	9655.85	8764.9
990.2812	2637.4593	9589.85	8697.3
990.4055	2638.7265	9565.85	8676.05
990.5298	2639.9931	9535	8643.6
990.654	2641.259	9532.5	8643.05
990.7782	2642.5242	9498.35	8607.3
990.9023	2643.7887	9475.65	8584.35
991.0264	2645.0525	9436.5	8546.45
991.1505	2646.3156	9394.85	8503.6
991.2745	2647.5781	9343.55	8453.4
991.3985	2648.8398	9327.95	8437.9
991.5225	2650.1009	9295.4	8394.2
991.6464	2651.3613	9267.9	8376.7
991.7703	2652.6211	9241.5	8351.8
991.8942	2653.8801	9210.45	8322.25
992.018	2655.1385	9192.35	8299.6
992.1418	2656.3961	9165.5	8274.5
992.2655	2657.6531	9149.55	8259.05
992.3892	2658.9094	9103.45	8211.7
992.5129	2660.1651	9084.45	8194.9
992.6366	2661.42	9064.55	8175.7
992.7602	2662.6743	9051.45	8157.5
992.8837	2663.9279	9039.5	8150.35
993.0073	2665.1808	8981	8088.6
993.1307	2666.433	8968.25	8077.05
993.2542	2667.6846	8916.85	8026.75
993.3776	2668.9354	8915.15	8021.25
993.501	2670.1856	8884.7	7993.2
993.6244	2671.4351	8864.7	7975.1
993.7477	2672.6839	8831.7	7940.5
993.8709	2673.9321	8818.05	7927.65
993.9942	2675.1795	8786.5	7894.95
994.1174	2676.4263	8767.95	7875.8
994.2405	2677.6724	8728.35	7839.15
994.3637	2678.9179	8704.7	7813.9
994.4868	2680.1626	8685	7796.2
994.6098	2681.4067	8651.85	7761.35
994.7328	2682.6501	8641.75	7751.7
994.8558	2683.8928	8598.6	7707.8
994.9788	2685.1348	8548.75	7658.65
995.1017	2686.3761	8509.25	7619.25
995.2245	2687.6168	8498.95	7608.95
995.3474	2688.8568	8478.55	7586.4
995.4702	2690.0961	8463.2	7572.05
995.5929	2691.3348	8438.7	7548.8
995.7156	2692.5727	8411.8	7520.85
995.8383	2693.81	8371.3	7480.95
995.961	2695.0466	8328.05	7437.95
996.0836	2696.2826	8329.7	7436.95
996.2062	2697.5178	8281.4	7388.05
996.3287	2698.7524	8263.95	7373.95
996.4512	2699.9863	8235.8	7344.6
996.5737	2701.2195	8206.5	7316.75
996.6961	2702.452	8194.6	7303.6
996.8185	2703.6839	8147.05	7254.95
996.9408	2704.9151	8134.9	7244.4
997.0631	2706.1456	8135.4	7244.65
997.1854	2707.3755	8068.25	7177.5
997.3077	2708.6046	8075.3	7182.95
997.4299	2709.8331	8077.05	7186.1
997.552	2711.0609	8047.9	7159.4
997.6742	2712.2881	7987.15	7097.05
997.7963	2713.5145	7996	7102.55
997.9183	2714.7403	7949.75	7059.7
998.0403	2715.9654	7929.25	7038.6
998.1623	2717.1899	7918.65	7012.85
998.2842	2718.4136	7919.1	7029.3
998.4062	2719.6367	7897.3	7005.85
998.528	2720.8591	7864.25	6966.85
998.6498	2722.0809	7817.45	6928.45
998.7716	2723.3019	7827.2	6936.1
998.8934	2724.5223	7787.1	6894.9
999.0151	2725.7421	7765.6	6874.15
999.1368	2726.9611	7749	6857.65
999.2584	2728.1795	7725.45	6829.65
999.38	2729.3972	7696.2	6806.45
999.5016	2730.6142	7676.35	6773.7
999.6231	2731.8306	7615.1	6723.55
999.7446	2733.0462	7585.55	6691.35
999.8661	2734.2612	7543.4	6647.6
999.9875	2735.4756	7492.2	6600.1
1000.1089	2736.6892	7427.55	6537.3
1000.2302	2737.9022	7390.75	6500.7
1000.3515	2739.1145	7348.95	6457.95
1000.4728	2740.3262	7331.6	6432.6
1000.594	2741.5372	7300.9	6412.75
1000.7152	2742.7475	7254.8	6364.05
1000.8363	2743.9571	7231.8	6341.95
1000.9575	2745.1661	7190.95	6294.95
1001.0785	2746.3744	7198.3	6308.4
1001.1996	2747.582	7136	6246.25
1001.3206	2748.7889	7107.45	6216.5
1001.4415	2749.9952	7089.05	6201.2
1001.5625	2751.2008	7046	6155.25
1001.6833	2752.4057	7039.45	6145.85
1001.8042	2753.61	7008.5	6117.95
1001.925	2754.8136	6988.5	6097.7
1002.0458	2756.0165	6960.05	6070.7
1002.1665	2757.2188	6932.4	6045.1
1002.2872	2758.4204	6898.9	6008.85
1002.4078	2759.6213	6865.7	5973.1
1002.5285	2760.8215	6887.05	5992.85
1002.649	2762.0211	6845.85	5954.4
1002.7696	2763.22	6803.05	5910.5
1002.8901	2764.4182	6788.75	5897.35
1003.0106	2765.6158	6788.95	5897.8
1003.131	2766.8127	6753.1	5863.75
1003.2514	2768.009	6752.8	5863
1003.3717	2769.2045	6697.65	5806.95
1003.492	2770.3994	6727.9	5835
1003.6123	2771.5936	6667.75	5776.9
1003.7325	2772.7872	6638.45	5749.6
1003.8527	2773.9801	6604.75	5711.8
1003.9729	2775.1723	6608.05	5700.15
1004.093	2776.3639	6555.75	5666.75
1004.2131	2777.5548	6553.1	5662.95
1004.3331	2778.745	6532.75	5640.4
1004.4531	2779.9346	6527.8	5638.4
1004.5731	2781.1235	6503.75	5612.75
1004.693	2782.3117	6484.9	5596.1
1004.8129	2783.4992	6457.5	5565.95
1004.9328	2784.6861	6420.75	5530.95
1005.0526	2785.8723	6421.25	5529.15
1005.1723	2787.0579	6410.75	5520.1
1005.2921	2788.2428	6381.15	5491.95
1005.4118	2789.427	6374.95	5485.15
1005.5314	2790.6106	6355.5	5466.9
1005.651	2791.7935	6338.35	5446.9
1005.7706	2792.9757	6319.7	5429.4
1005.8902	2794.1573	6290.25	5398.3
1006.0097	2795.3382	6287.85	5398.5
1006.1291	2796.5184	6292.55	5404.35
1006.2485	2797.698	6290.65	5399.7
1006.3679	2798.8769	6272.75	5381.05
1006.4873	2800.0551	6257.3	5368.65
1006.6066	2801.2327	6241.75	5347.25
1006.7258	2802.4096	6244.7	5354.8
1006.8451	2803.5859	6237	5346.25
1006.9642	2804.7615	6247.7	5357.8
1007.0834	2805.9364	6254.45	5363.6
1007.2025	2807.1106	6261.05	5372.45
1007.3216	2808.2842	6265.75	5374.2
1007.4406	2809.4572	6280.8	5390.45
1007.5596	2810.6294	6310	5418.3
1007.6785	2811.801	6331.1	5441.8
1007.7975	2812.972	6363.65	5474.3
1007.9163	2814.1423	6369.45	5480.3
1008.0352	2815.3119	6392.55	5504.35
1008.154	2816.4808	6405.85	5516.35
1008.2727	2817.6491	6430.1	5538.1
1008.3914	2818.8167	6468.25	5578.9
1008.5101	2819.9837	6499.55	5604.55
1008.6288	2821.15	6526.3	5635.55
1008.7474	2822.3157	6542.05	5653.1
1008.8659	2823.4807	6578.95	5688.9
1008.9844	2824.645	6638.95	5748.1
1009.1029	2825.8086	6648.9	5760.15
1009.2214	2826.9716	6658.35	5768.25
1009.3398	2828.134	6698.65	5811.5
1009.4581	2829.2957	6731.55	5841.35
1009.5764	2830.4567	6738.9	5851.25
1009.6947	2831.617	6733.15	5842.15
1009.813	2832.7767	6742	5853.75
1009.9312	2833.9358	6729.4	5841.15
1010.0493	2835.0941	6698.7	5807.15
1010.1675	2836.2519	6697.05	5808.3
1010.2855	2837.4089	6656.1	5765.8
1010.4036	2838.5653	6638.95	5751
1010.5216	2839.7211	6628.9	5741.5
1010.6396	2840.8761	6617.8	5725.85
1010.7575	2842.0306	6636.05	5747.55
1010.8754	2843.1843	6646.9	5757.2
1010.9932	2844.3374	6673.7	5785.05
1011.111	2845.4899	6722.6	5834.2
1011.2288	2846.6417	6758.2	5868.65
1011.3465	2847.7928	6843.25	5954.1
1011.4642	2848.9433	6912.7	6023.8
1011.5818	2850.0931	6955.4	6065.95
1011.6995	2851.2422	7037.85	6146.55
1011.817	2852.3907	7082	6191.15
1011.9345	2853.5385	7123.55	6233
1012.052	2854.6857	7173.3	6255.55
1012.1695	2855.8323	7206.25	6317.7
1012.2869	2856.9781	7212.85	6325.15
1012.4042	2858.1233	7254.3	6364.8
1012.5216	2859.2679	7285.75	6395.85
1012.6389	2860.4118	7303.95	6414
1012.7561	2861.555	7327.55	6432.7
1012.8733	2862.6976	7345.55	6452.3
1012.9905	2863.8395	7362.35	6472.6
1013.1076	2864.9808	7354.7	6465.4
1013.2247	2866.1214	7347.45	6458.75
1013.3417	2867.2614	7375	6485.35
1013.4587	2868.4007	7362	6471.05
1013.5757	2869.5393	7357.95	6465.45
1013.6926	2870.6773	7332.35	6439.65
1013.8095	2871.8146	7346.8	6453.6
1013.9263	2872.9513	7320.25	6426.7
1014.0431	2874.0874	7284.95	6396.3
1014.1599	2875.2227	7260.1	6370.75
1014.2766	2876.3574	7225	6336.65
1014.3933	2877.4915	7194.7	6306.2
1014.51	2878.6249	7136.6	6248
1014.6266	2879.7577	7096.55	6207.45
1014.7431	2880.8898	7072.6	6173.55
1014.8596	2882.0212	7027.9	6138.55
1014.9761	2883.152	7020.45	6130.4
1015.0925	2884.2821	6988.45	6100.9
1015.2089	2885.4116	6949.75	6060
1015.3253	2886.5405	6927.75	6037.4
1015.4416	2887.6686	6920	6025.7
1015.5579	2888.7962	6928.4	6039.8
1015.6741	2889.923	6904.05	6014.4
1015.7903	2891.0493	6902.65	6014.15
1015.9065	2892.1748	6918.15	6029.6
1016.0226	2893.2997	6875.35	5985.5
1016.1387	2894.424	6900.3	6013.35
1016.2547	2895.5476	6874.5	5984.75
1016.3707	2896.6706	6898.4	6010.45
1016.4866	2897.7929	6918.4	6027.9
1016.6025	2898.9145	6924.65	6034.9
1016.7184	2900.0355	6922.15	6030.05
1016.8342	2901.1559	6953.65	6063.25
1016.95	2902.2756	6970.8	6079.9
1017.0658	2903.3946	6997	6107.9
1017.1815	2904.513	6997.1	6106
1017.2971	2905.6308	6981.3	6091.55
1017.4127	2906.7479	6995.8	6106.45
1017.5283	2907.8643	7018.85	6127.95
1017.6439	2908.9801	7017.9	6129.1
1017.7594	2910.0953	6990.65	6102.25
1017.8748	2911.2098	6967.2	6075.05
1017.9902	2912.3236	6949.5	6050.25
1018.1056	2913.4368	6942.05	6048.8
1018.2209	2914.5494	6900.7	6012.6
1018.3362	2915.6613	6857.2	5963.15
1018.4515	2916.7725	6838	5945.85
1018.5667	2917.8831	6793.2	5902
1018.6819	2918.9931	6738.15	5848.35
1018.797	2920.1024	6718.35	5827
1018.9121	2921.211	6685.85	5797.35
1019.0271	2922.319	6650.45	5761.4
1019.1421	2923.4264	6614.45	5725.8
1019.2571	2924.5331	6592.25	5706.65
1019.372	2925.6391	6579.65	5690.85
1019.4869	2926.7445	6559.45	5672.35
1019.6017	2927.8493	6529.2	5639.2
1019.7165	2928.9534	6519.05	5630.25
1019.8313	2930.0569	6500.95	5610.05
1019.946	2931.1597	6482.3	5589.25
1020.0606	2932.2619	6464.2	5577.9
1020.1753	2933.3634	6441.6	5552.35
1020.2899	2934.4643	6440.2	5544.3
1020.4044	2935.5645	6416	5519.65
1020.5189	2936.6641	6362.3	5470.55
1020.6334	2937.763	6298.25	5409.85
1020.7478	2938.8613	6240.15	5351.05
1020.8622	2939.959	6177.95	5282.3
1020.9765	2941.056	6088.05	5199.2
1021.0908	2942.1523	6007.35	5114.65
1021.2051	2943.248	5920.8	5032.95
1021.3193	2944.3431	5810.8	4921.6
1021.4334	2945.4375	5700.65	4809.45
1021.5476	2946.5313	5585.05	4696.85
1021.6617	2947.6244	5463.85	4574.4
1021.7757	2948.7169	5355.35	4464.95
1021.8897	2949.8087	5246.15	4357.2
1022.0037	2950.8999	5155.85	4266.55
1022.1176	2951.9904	5059.75	4172.5
1022.2315	2953.0803	4986.65	4097.3
1022.3453	2954.1696	4918.15	4028.75
1022.4591	2955.2582	4851.9	3962.4
1022.5728	2956.3462	4793.2	3903.2
1022.6865	2957.4335	4732.65	3842.3
1022.8002	2958.5202	4675.3	3784
1022.9138	2959.6062	4641.45	3751.55
1023.0274	2960.6916	4608.75	3720.9
1023.141	2961.7764	4572.55	3681.25
1023.2545	2962.8605	4543.75	3653.3
1023.3679	2963.9439	4533.25	3643.2
1023.4813	2965.0267	4496.05	3608.15
1023.5947	2966.1089	4511.05	3598
1023.708	2967.1905	4464.4	3575.95
1023.8213	2968.2714	4437.55	3549.6
1023.9346	2969.3516	4424.5	3533.95
1024.0478	2970.4312	4440.9	3545.85
1024.1609	2971.5102	4418.85	3530.75
1024.274	2972.5885	4394.5	3506.9
1024.3871	2973.6662	4393.85	3498.65
1024.5002	2974.7432	4375	3486.6
1024.6132	2975.8196	4360.9	3472.55
1024.7261	2976.8954	4325.05	3434.7
1024.839	2977.9705	4296.25	3407.4
1024.9519	2979.045	4293.6	3403.9
1025.0647	2980.1188	4268.15	3377.4
1025.1775	2981.192	4235.3	3346.75
1025.2902	2982.2645	4209.55	3320.05
1025.4029	2983.3364	4152.6	3262.5
1025.5156	2984.4077	4116.45	3228
1025.6282	2985.4783	4093.5	3197.35
1025.7407	2986.5483	4046.9	3158.9
1025.8532	2987.6177	4021.25	3133.2
1025.9657	2988.6864	3986.7	3097.2
1026.0782	2989.7545	3950.05	3061.65
1026.1906	2990.8219	3885.4	2996.5
1026.3029	2991.8887	3844.95	2956.15
1026.4152	2992.9548	3816.15	2925.6
1026.5275	2994.0204	3787.3	2898.9
1026.6397	2995.0852	3736.7	2847.15
1026.7519	2996.1495	3709.75	2818.45
1026.864	2997.2131	3670.75	2782.2
1026.9761	2998.276	3646.8	2757.85
1027.0882	2999.3383	3627.2	2737.8
1027.2002	3000.4	3581.65	2692.05
1027.3122	3001.4611	3551.4	2662.8
1027.4241	3002.5215	3544	2655.45
1027.536	3003.5812	3506	2615.65
1027.6478	3004.6404	3498.75	2609.65
1027.7596	3005.6989	3489.9	2599.7
1027.8714	3006.7567	3469.05	2579
1027.9831	3007.8139	3462.25	2553.35
1028.0947	3008.8705	3425.4	2538.3
1028.2064	3009.9264	3415.4	2522.55
1028.3179	3010.9818	3403	2512.55
1028.4295	3012.0364	3402.15	2513.2
1028.541	3013.0905	3377.4	2486.75
1028.6524	3014.1439	3356.95	2466.6
1028.7638	3015.1966	3344.2	2455.9
1028.8752	3016.2487	3347.95	2461.8
1028.9865	3017.3002	3340.9	2444.95
1029.0978	3018.3511	3328.85	2440.6
1029.209	3019.4013	3317.65	2427.3
1029.3202	3020.4509	3312.85	2426.15
1029.4314	3021.4998	3305.7	2417.5
1029.5425	3022.5481	3305.1	2415
1029.6535	3023.5958	3294.85	2405.55
1029.7645	3024.6428	3284.1	2393.05
1029.8755	3025.6892	3279.65	2391.05
1029.9864	3026.735	3272.1	2383.65
1030.0973	3027.7802	3261.3	2370.75
1030.2082	3028.8247	3234.95	2345.6
1030.319	3029.8685	3240.45	2352.05
1030.4297	3030.9118	3238.35	2349.6
1030.5404	3031.9544	3220.2	2331.85
1030.6511	3032.9963	3219.05	2329.05
1030.7617	3034.0376	3227.55	2338.9
1030.8723	3035.0783	3223.1	2333.35
1030.9829	3036.1184	3210.8	2321.55
1031.0934	3037.1578	3217.3	2328.45
1031.2038	3038.1966	3199.4	2306.65
1031.3142	3039.2348	3195.2	2306.8
1031.4246	3040.2723	3186.95	2290.1
1031.5349	3041.3092	3172.5	2283.9
1031.6452	3042.3455	3179.2	2289.5
1031.7554	3043.3811	3151.85	2263.9
1031.8656	3044.4161	3143.5	2254.75
1031.9758	3045.4505	3126.35	2239
1032.0859	3046.4842	3114.55	2226.2
1032.1959	3047.5173	3097.6	2209.55
1032.3059	3048.5498	3102.8	2214.5
1032.4159	3049.5816	3089.7	2199.85
1032.5258	3050.6128	3073.35	2183.65
1032.6357	3051.6434	3073.95	2181.5
1032.7455	3052.6734	3060.6	2171.65
1032.8553	3053.7027	3022.35	2134.3
1032.9651	3054.7314	3019.45	2131.8
1033.0748	3055.7594	2994.9	2108.4
1033.1845	3056.7868	2995.3	2106.5
1033.2941	3057.8136	2978.55	2088.1
1033.4037	3058.8398	2971.95	2084.75
1033.5132	3059.8653	2963.15	2073.55
1033.6227	3060.8902	2945.75	2056.9
1033.7321	3061.9145	2927.95	2038.85
1033.8415	3062.9381	2922.5	2033.3
1033.9509	3063.9612	2926.95	2022.85
1034.0602	3064.9835	2897.6	2006.2
1034.1694	3066.0053	2890.9	2001.3
1034.2787	3067.0264	2864.65	1977.55
1034.3878	3068.0469	2862.2	1972.2
1034.497	3069.0668	2841.45	1951.35
1034.6061	3070.086	2831.15	1944.1
1034.7151	3071.1046	2820.2	1932.6
1034.8241	3072.1226	2802.45	1912.4
1034.9331	3073.1399	2785.45	1898.35
1035.042	3074.1567	2759.8	1870.6
1035.1508	3075.1727	2756.6	1866.9
1035.2597	3076.1882	2741.75	1855.1
1035.3684	3077.203	2730.55	1841.25
1035.4772	3078.2173	2709.35	1819.9
1035.5859	3079.2308	2704.5	1811.2
1035.6945	3080.2438	2688.15	1796.4
1035.8031	3081.2561	2669.45	1780.8
1035.9117	3082.2678	2663.15	1776.55
1036.0202	3083.2789	2655.6	1766.2
1036.1286	3084.2893	2628.5	1741.25
1036.2371	3085.2991	2625.7	1737.55
1036.3454	3086.3083	2608	1714.15
1036.4538	3087.3169	2607.05	1718.5
1036.562	3088.3248	2583	1690.45
1036.6703	3089.3321	2575.9	1685.9
1036.7785	3090.3388	2572.9	1685.4
1036.8866	3091.3449	2548	1659.45
1036.9948	3092.3503	2543.8	1653.45
1037.1028	3093.3551	2540.15	1652.95
1037.2108	3094.3593	2530.05	1642.4
1037.3188	3095.3629	2512.75	1626.3
1037.4267	3096.3658	2496.1	1606.85
1037.5346	3097.3681	2494.55	1606
1037.6425	3098.3698	2484.75	1594.7
1037.7503	3099.3708	2477.95	1581.85
1037.858	3100.3713	2472.55	1582.3
1037.9657	3101.3711	2455.9	1567.9
1038.0734	3102.3702	2567.8	1543.15
1038.181	3103.3688	2452.65	1562.65
1038.2886	3104.3667	2437.5	1550.75
1038.3961	3105.364	2429.95	1541.8
1038.5036	3106.3607	2411.3	1520.35
1038.611	3107.3568	2401	1513.1
1038.7184	3108.3522	2390.35	1501.35
1038.8257	3109.347	2374.6	1484.45
1038.933	3110.3412	2381.15	1487.75
1039.0403	3111.3348	2363.1	1474.2
1039.1475	3112.3277	2352.15	1463.5
1039.2547	3113.32	2339.5	1452.35
1039.3618	3114.3117	2331.95	1443
1039.4689	3115.3028	2327	1441.3
1039.5759	3116.2932	2324.8	1432.8
1039.6829	3117.2831	2318.2	1422.65
1039.7898	3118.2723	2307.3	1418.4
1039.8967	3119.2608	2289.25	1400.5
1040.0035	3120.2488	2297.3	1408.35
1040.1103	3121.2361	2274.95	1387.4
1040.2171	3122.2229	2268.4	1381
1040.3238	3123.209	2254.05	1363.7
1040.4305	3124.1944	2258.7	1370.5
1040.5371	3125.1793	2255.05	1365.65
1040.6437	3126.1635	2247.35	1360.35
1040.7502	3127.1471	2236.4	1347.8
1040.8567	3128.1301	2224.95	1337.35
1040.9631	3129.1125	2220.65	1332.6
1041.0695	3130.0942	2224.75	1335.75
1041.1759	3131.0753	2226.75	1330.3
1041.2822	3132.0558	2209.05	1317
1041.3884	3133.0357	2193.65	1305.85
1041.4946	3134.015	2199.25	1310.7
1041.6008	3134.9936	2189.55	1301.9
1041.7069	3135.9716	2192.8	1285.1
1041.813	3136.949	2180.7	1290.55
1041.919	3137.9258	2175.6	1280.4
1042.025	3138.902	2164.55	1270.4
1042.1309	3139.8775	2161.05	1272.5
1042.2368	3140.8524	2161	1271.15
1042.3427	3141.8267	2149.8	1261.3
1042.4485	3142.8004	2143.05	1255
1042.5542	3143.7735	2136.85	1241.3
1042.6599	3144.7459	2131.7	1242.05
1042.7656	3145.7178	2134.8	1244.9
1042.8712	3146.689	2117.2	1231.15
1042.9768	3147.6596	2121.15	1230.6
1043.0823	3148.6295	2110.75	1221.95
1043.1878	3149.5989	2094	1204.85
1043.2932	3150.5676	2094.25	1207.75
1043.3986	3151.5357	2081.55	1195.2
1043.5039	3152.5032	2070.45	1184.9
1043.6092	3153.4701	2073.55	1187.25
1043.7145	3154.4364	2072.1	1181.65
1043.8197	3155.402	2055.1	1167.3
1043.9248	3156.367	2057.2	1167
1044.03	3157.3315	2089.85	1159.1
1044.135	3158.2952	2040.7	1152.7
1044.24	3159.2584	2036.6	1149.4
1044.345	3160.221	2022.4	1133.25
1044.4499	3161.1829	2008.9	1121.4
1044.5548	3162.1442	2007.55	1118.45
1044.6596	3163.105	2002.75	1113.15
1044.7644	3164.065	1998.9	1110.2
1044.8692	3165.0245	1991	1100.25
1044.9739	3165.9834	1986	1100.5
1045.0785	3166.9416	1976.15	1086.85
1045.1831	3167.8993	1973.5	1085.6
1045.2877	3168.8563	1963.5	1075.55
1045.3922	3169.8127	1965	1077.15
1045.4966	3170.7684	1953.2	1065.25
1045.6011	3171.7236	1949	1059.15
1045.7054	3172.6782	1942.9	1054.25
1045.8098	3173.6321	1931.05	1043.1
1045.914	3174.5854	1932.3	1037.4
1046.0183	3175.5381	1920.85	1031.9
1046.1224	3176.4902	1928.4	1040.2
1046.2266	3177.4417	1916.95	1028.65
1046.3307	3178.3926	1902.05	1014.95
1046.4347	3179.3428	1900.65	1011.6
1046.5387	3180.2924	1898.85	1010
1046.6427	3181.2415	1892.1	1002.3
1046.7466	3182.1899	1884.85	994.75
1046.8504	3183.1377	1875.75	988.65
1046.9542	3184.0848	1874.05	982.65
1047.058	3185.0314	1872.65	983.7
1047.1617	3185.9773	1863.05	975
1047.2654	3186.9227	1855.85	968.5
1047.369	3187.8674	1856.9	970
1047.4726	3188.8115	1851.85	960.85
1047.5761	3189.755	1850	960.9
1047.6796	3190.6979	1836.15	946.25
1047.783	3191.6402	1838.15	952.55
1047.8864	3192.5818	1835.7	946.9
1047.9898	3193.5229	1851.45	939.5
1048.0931	3194.4633	1828	939
1048.1963	3195.4031	1812.15	924
1048.2995	3196.3423	1802	914.2
1048.4027	3197.2809	1813.8	926.05
1048.5058	3198.2189	1802.2	911.9
1048.6089	3199.1563	1806.4	912.35
1048.7119	3200.0931	1792.8	906.3
1048.8148	3201.0292	1797.65	911.7
1048.9178	3201.9648	1778.55	890
1049.0206	3202.8997	1785.35	893.85
1049.1235	3203.834	1782.6	892.7
1049.2262	3204.7677	1764.15	876.35
1049.329	3205.7008	1765.85	876.05
1049.4317	3206.6333	1756.25	869.35
1049.5343	3207.5652	1763.1	874.5
1049.6369	3208.4964	1749.8	863.85
1049.7394	3209.4271	1746	858.3
1049.8419	3210.3571	1738.95	850.2
1049.9444	3211.2865	1733.95	846.3
1050.0468	3212.2154	1734.95	843.9
1050.1491	3213.1436	1726.65	836.6
1050.2514	3214.0712	1729.95	834.35
1050.3537	3214.9982	1722.5	832.75
1050.4559	3215.9246	1720	830.45
1050.5581	3216.8503	1707.6	820.6
1050.6602	3217.7755	1711.55	823.35
1050.7623	3218.7001	1709.35	822.25
1050.8643	3219.624	1706.05	817.35
1050.9663	3220.5473	1700.2	812.9
1051.0682	3221.4701	1692.25	803.65
1051.1701	3222.3922	1687.8	796.8
1051.2719	3223.3137	1680.2	791.3
1051.3737	3224.2346	1696.25	808.5
1051.4754	3225.1549	1678.05	792.15
1051.5771	3226.0746	1669.6	783.4
1051.6788	3226.9937	1666	778.4
1051.7804	3227.9121	1653.75	766
1051.8819	3228.83	1654.25	766.3
1051.9834	3229.7473	1654.65	763.6
1052.0849	3230.6639	1648.9	760.4
1052.1863	3231.5799	1637.7	750
1052.2876	3232.4954	1642.15	752.6
1052.3889	3233.4102	1627.55	739.65
1052.4902	3234.3244	1632.65	742.6
1052.5914	3235.238	1632.05	743.15
1052.6926	3236.151	1648.35	737
1052.7937	3237.0634	1614.05	726.75
1052.8948	3237.9752	1618.8	730.2
1052.9958	3238.8864	1614.2	725.1
1053.0968	3239.797	1610.45	724.15
1053.1977	3240.7069	1604.8	714.55
1053.2986	3241.6163	1595.45	706.85
1053.3994	3242.5251	1591.2	706.1
1053.5002	3243.4332	1584.3	696.05
1053.6009	3244.3408	1582.15	693.1
1053.7016	3245.2477	1583.6	695.25
1053.8022	3246.154	1580.35	692.6
1053.9028	3247.0598	1570.85	681.05
1054.0034	3247.9649	1560.4	672.1
1054.1039	3248.8694	1561.45	672.55
1054.2043	3249.7733	1557.3	667.95
1054.3047	3250.6766	1557.05	668.6
1054.4051	3251.5793	1556.55	667.1
1054.5054	3252.4814	1543.9	655.1
1054.6056	3253.3829	1541.3	654.65
1054.7058	3254.2838	1537.15	650.3
1054.806	3255.1841	1534.55	646.2
1054.9061	3256.0838	1528.5	639.65
1055.0061	3256.9829	1522.2	635.1
1055.1062	3257.8814	1515.7	626.2
1055.2061	3258.7792	1512.3	620.8
1055.306	3259.6765	1510.25	619.5
1055.4059	3260.5731	1502.35	614.45
1055.5057	3261.4692	1485.6	596.95
1055.6055	3262.3647	1478.45	590.25
1055.7052	3263.2595	1483.2	596.2
1055.8049	3264.1538	1467.55	580.15
1055.9045	3265.0474	1467.5	578.2
1056.0041	3265.9404	1448.25	560.35
1056.1036	3266.8329	1437.8	550.5
1056.2031	3267.7247	1439.05	539.9
1056.3025	3268.616	1416.85	529.35
1056.4019	3269.5066	1413.75	524.6
1056.5013	3270.3966	1395.95	507.35
1056.6005	3271.286	1376.75	490.7
