Software Version:	3.9.2.0
Unit SN:	10000200
Spectrometer SN:	6960
Date:	3/6/2024 9:38:55 AM
Data Line Index:	25
Spectral Points:	2048
Integration time (ms):	125
Averages:	20
Delay (ms):	30
Sequence Number:	1
Processing:	dark subtract
Laser Power (mW):	305
Laser Current (mA):	824
Laser Diode Temp (C):	25.1
Laser Case Temp (C):	23.9
System Temp (C):	23.7
Spectrometer Temp (C):	21.3
CCD Temp (C):	-0.03
Secondary Temp (C):	20.006
Heatsink Temp (C):	17.138
CCDPCB Temp (C):	30.471
SecondaryPCB Temp (C):	25.491

Wavelength	RamanShift	Raw Counts	Dark Subtracted
787.061	30.1047	484.55	77.65
787.2016	32.3739	486.15	78.55
787.3422	34.6426	492.05	85.25
787.4828	36.9109	497.2	87.6
787.6235	39.1787	510.8	100.15
787.7642	41.4461	520.5	104.6
787.9049	43.7131	524.05	105.4
788.0456	45.9796	535.7	113.95
788.1863	48.2456	543.4	118.8
788.3271	50.5112	558.35	129.1
788.4679	52.7764	563.4	131.9
788.6087	55.0411	575.45	136.45
788.7496	57.3054	595.75	153.35
788.8904	59.5692	603.15	158.4
789.0313	61.8326	615.8	169.45
789.1722	64.0955	632.05	182.45
789.3132	66.3579	645.7	190.65
789.4541	68.6199	672.5	215.05
789.5951	70.8815	711.2	250.7
789.7361	73.1426	791.15	324.5
789.8771	75.4032	989.95	520.9
790.0181	77.6634	1492.7	1022.9
790.1592	79.9231	2681.25	2208.8
790.3003	82.1824	5259.25	4780.05
790.4414	84.4412	9793.95	9309.45
790.5825	86.6995	15909.35	15418.1
790.7237	88.9574	21967.5	21471.15
790.8648	91.2148	26284.35	25785.45
791.006	93.4717	28661.35	28157.9
791.1472	95.7282	29665.8	29161
791.2885	97.9842	30191.55	29684.65
791.4297	100.2398	30432.5	29924.3
791.571	102.4949	30521.9	30009.8
791.7123	104.7495	30547.35	30030.05
791.8536	107.0036	30525.75	30006.65
791.9949	109.2573	30602.25	30086.95
792.1363	111.5105	30652.1	30131.85
792.2777	113.7632	30591.55	30071.9
792.4191	116.0154	30665.1	30132.3
792.5605	118.2672	30765.65	30239.4
792.7019	120.5185	30819.5	30293.6
792.8434	122.7693	30881.4	30347.7
792.9849	125.0197	30920.7	30381.9
793.1264	127.2696	30922.95	30383.5
793.2679	129.519	31140.3	30597.2
793.4094	131.7679	31199.45	30655.85
793.551	134.0163	31257.4	30713.25
793.6926	136.2642	31351.15	30801.15
793.8342	138.5117	31342.45	30789.3
793.9758	140.7587	31375.65	30822.6
794.1175	143.0052	31467.95	30909.4
794.2591	145.2512	31448.55	30892.05
794.4008	147.4967	31456.05	30896.65
794.5425	149.7417	31463.95	30899.15
794.6842	151.9863	31469.3	30901
794.826	154.2304	31501.75	30931.9
794.9677	156.4739	31425.25	30848.4
795.1095	158.717	31527.25	30950.75
795.2513	160.9596	31545.15	30966.45
795.3931	163.2017	31543.8	30962.25
795.535	165.4433	31603.95	31019.35
795.6768	167.6844	31612.35	31025.5
795.8187	169.925	31710.6	31120.95
795.9606	172.1651	31616.25	31021.4
796.1025	174.4047	31657.9	31060.2
796.2445	176.6439	31658.2	31058.45
796.3864	178.8825	31673.25	31070.3
796.5284	181.1206	31758.5	31151.8
796.6704	183.3582	31803.95	31194.8
796.8124	185.5954	31825.8	31214.1
796.9544	187.832	31866.8	31251.1
797.0965	190.0681	31923.8	31304.5
797.2386	192.3037	32024.2	31402.4
797.3806	194.5388	32044.1	31417.9
797.5228	196.7734	32153.2	31526.75
797.6649	199.0075	32274.2	31649.65
797.807	201.2411	32437.35	31811.55
797.9492	203.4742	32481.3	31849.5
798.0914	205.7068	32661.4	32026.15
798.2336	207.9389	32699.55	32067
798.3758	210.1704	32743.6	32120.9
798.518	212.4015	32737.05	32123.8
798.6603	214.632	32842.65	32233.75
798.8025	216.862	32904.4	32291.75
798.9448	219.0915	32903.05	32291.4
799.0871	221.3205	32985.4	32369.7
799.2294	223.549	33139.85	32527.95
799.3718	225.777	33193.75	32579.6
799.5141	228.0044	33211.7	32590.35
799.6565	230.2314	33313	32687.3
799.7989	232.4578	33324.3	32694.15
799.9413	234.6837	33367	32728.5
800.0837	236.909	33467.4	32829.05
800.2262	239.1339	33440.3	32777.75
800.3687	241.3582	33514.1	32868.65
800.5111	243.582	33542.75	32864.5
800.6536	245.8053	33577	32909.95
800.7961	248.0281	33557.2	32895.7
800.9387	250.2503	33625.75	32963.2
801.0812	252.472	33700.65	33037.6
801.2238	254.6932	33764	33098.9
801.3664	256.9139	33731.3	33064.55
801.509	259.134	33833.95	33163.25
801.6516	261.3536	33815.9	33145.25
801.7942	263.5727	33911.85	33240.2
801.9369	265.7912	33899	33229.95
802.0795	268.0092	34019.05	33350.3
802.2222	270.2267	34030.15	33358.65
802.3649	272.4436	34120.55	33445.1
802.5076	274.6601	34158.95	33473.4
802.6504	276.8759	34142.95	33461.9
802.7931	279.0913	34171.6	33490.3
802.9359	281.3061	34213.75	33534
803.0787	283.5204	34305.95	33621.3
803.2215	285.7341	34377.75	33689.7
803.3643	287.9473	34415.35	33718.65
803.5071	290.16	34396.7	33707.2
803.6499	292.3721	34428.75	33742.4
803.7928	294.5837	34381.8	33695.85
803.9357	296.7947	34328.75	33643.35
804.0786	299.0052	34382.2	33693.85
804.2215	301.2152	34317.6	33625.55
804.3644	303.4246	34350.55	33663.15
804.5074	305.6334	34311.45	33620.45
804.6503	307.8418	34347.8	33653.85
804.7933	310.0495	34297.15	33603.1
804.9363	312.2568	34255.25	33560.5
805.0793	314.4635	34185.25	33487.5
805.2223	316.6696	34100.15	33400.45
805.3653	318.8752	34037.2	33328.95
805.5084	321.0802	33949.8	33248
805.6514	323.2847	34014.85	33310.7
805.7945	325.4887	33928.65	33224.55
805.9376	327.692	33932.35	33226.85
806.0807	329.8949	34050.45	33343.65
806.2238	332.0972	34062.8	33354.65
806.367	334.2989	34152.3	33441.45
806.5101	336.5001	34106.3	33391.85
806.6533	338.7007	34132.5	33420.35
806.7965	340.9008	34145.2	33429.75
806.9397	343.1003	34094.2	33378.25
807.0829	345.2992	34079.25	33361.7
807.2261	347.4976	34036.35	33317.15
807.3693	349.6955	34010.45	33286.95
807.5126	351.8927	34090.25	33366.8
807.6559	354.0895	33964.85	33229.05
807.7991	356.2856	34012.2	33287.15
807.9424	358.4812	33973	33246.4
808.0857	360.6763	34067.2	33337
808.2291	362.8707	33969.85	33237.5
808.3724	365.0646	34013.75	33278.1
808.5158	367.258	33976.15	33239.3
808.6591	369.4508	33920.45	33182
808.8025	371.643	33991.4	33253.65
808.9459	373.8346	33873.25	33130.45
809.0893	376.0257	33896.6	33153.35
809.2327	378.2162	33896.55	33154.6
809.3762	380.4062	33889.95	33147.45
809.5196	382.5956	33806.8	33066
809.6631	384.7844	33848.05	33111.45
809.8066	386.9726	33712.25	32976.8
809.9501	389.1603	33627.3	32893.4
810.0936	391.3474	33706.7	32923.45
810.2371	393.5339	33633.65	32899.1
810.3806	395.7199	33517.55	32783.5
810.5241	397.9052	33515.25	32780.7
810.6677	400.09	33568.25	32831.25
810.8113	402.2743	33601.85	32862.7
810.9548	404.4579	33511	32772.35
811.0984	406.641	33614.5	32872.65
811.2421	408.8235	33637.2	32891.75
811.3857	411.0054	33670.7	32923.3
811.5293	413.1868	33806.65	33057.95
811.673	415.3675	33777.8	33025.95
811.8166	417.5477	33774.25	33021.6
811.9603	419.7273	33720.4	32962.85
812.104	421.9064	33612.7	32847.65
812.2477	424.0848	33471.45	32714.4
812.3914	426.2627	33359.8	32602.5
812.5351	428.4399	33304.35	32547.6
812.6788	430.6166	33194.4	32428.75
812.8226	432.7928	33130.6	32364.05
812.9663	434.9683	33047.95	32282
813.1101	437.1432	32958.5	32190.05
813.2539	439.3176	32820.55	32055
813.3977	441.4914	32722.1	31956.65
813.5415	443.6645	32727.4	31959.7
813.6853	445.8371	32569.65	31802.95
813.8291	448.0091	32471.5	31705.15
813.973	450.1806	32397.2	31630.1
814.1168	452.3514	32292.95	31523.2
814.2607	454.5216	32338.85	31559.7
814.4046	456.6913	32174.6	31402.15
814.5485	458.8603	32197.05	31424.35
814.6924	461.0288	32236.75	31466.9
814.8363	463.1967	32164.9	31392.4
814.9802	465.3639	32188.75	31414.35
815.1241	467.5306	32091.8	31319.2
815.2681	469.6967	31989.95	31216.1
815.412	471.8622	31963.2	31189.6
815.556	474.0271	31961.7	31187.25
815.7	476.1914	31949.6	31172
815.844	478.3551	31841.15	31065.7
815.988	480.5182	31953.1	31176.65
816.132	482.6807	31940.95	31162.9
816.276	484.8426	32004.7	31227
816.4201	487.0039	32018.95	31241.75
816.5641	489.1647	32055.7	31276.95
816.7082	491.3248	32125.65	31345.5
816.8522	493.4843	32053.05	31273.3
816.9963	495.6432	32088.25	31306.8
817.1404	497.8015	31939.95	31152.65
817.2845	499.9592	32008.3	31227.1
817.4286	502.1163	31886.8	31103.9
817.5727	504.2728	31747.8	30960.45
817.7168	506.4287	31848.9	31062.9
817.861	508.5839	31737.9	30952.65
818.0051	510.7386	31733.1	30948.75
818.1493	512.8927	31751.35	30956.15
818.2935	515.0461	31714.05	30923.85
818.4377	517.199	31698.8	30909.35
818.5818	519.3512	31666.35	30875.95
818.726	521.5029	31722.3	30926.6
818.8703	523.6539	31737.2	30946.3
819.0145	525.8043	31697.8	30906.05
819.1587	527.9541	31636.95	30842.25
819.303	530.1033	31522.95	30730
819.4472	532.2519	31518.2	30726
819.5915	534.3999	31447.15	30650.9
819.7357	536.5472	31391.25	30596.2
819.88	538.694	31401.65	30606.3
820.0243	540.8401	31444.5	30647.95
820.1686	542.9856	31416.15	30618.8
820.3129	545.1305	31429.5	30631.3
820.4572	547.2748	31443	30643.25
820.6016	549.4185	31398.45	30597.1
820.7459	551.5615	31324.8	30524.6
820.8902	553.704	31340.1	30540.6
821.0346	555.8458	31220.6	30423.25
821.1789	557.987	31305.4	30508.95
821.3233	560.1276	31288.85	30489.95
821.4677	562.2675	31329.05	30530.5
821.6121	564.4069	31333.5	30535.15
821.7565	566.5456	31278.6	30480.4
821.9009	568.6837	31248.1	30446.8
822.0453	570.8212	31131.2	30331.1
822.1897	572.958	31045.3	30244.15
822.3342	575.0942	30900.65	30100.2
822.4786	577.2299	30893.65	30091.65
822.6231	579.3648	30771.45	29968.65
822.7675	581.4992	30612.25	29809.4
822.912	583.6329	30483.7	29680.1
823.0565	585.766	30472.95	29668
823.201	587.8985	30426.95	29623.25
823.3454	590.0304	30361.45	29544.65
823.4899	592.1616	30360.7	29549.25
823.6345	594.2922	30305.85	29497.55
823.779	596.4222	30214	29404.45
823.9235	598.5515	30125.55	29316.65
824.068	600.6802	30019	29210
824.2126	602.8083	29866.25	29057.85
824.3571	604.9358	29860	29050
824.5017	607.0626	29785.95	28975.25
824.6462	609.1888	29774.4	28964.3
824.7908	611.3144	29736.75	28925.2
824.9354	613.4393	29685.55	28875.6
825.08	615.5636	29688.45	28877.1
825.2246	617.6873	29665.7	28854.75
825.3692	619.8103	29745.85	28931.1
825.5138	621.9327	29703.05	28887
825.6584	624.0544	29609.6	28796.25
825.803	626.1756	29568.1	28754.1
825.9477	628.2961	29504.55	28688.85
826.0923	630.4159	29402.15	28586.45
826.237	632.5351	29466.5	28648.65
826.3816	634.6537	29356.1	28539.15
826.5263	636.7716	29332.95	28517
826.6709	638.8889	29266.7	28448.25
826.8156	641.0056	29333.2	28515.6
826.9603	643.1216	29279.55	28460.35
827.105	645.237	29270.25	28449.9
827.2497	647.3518	29223.85	28405.2
827.3944	649.4659	29227.6	28410.35
827.5391	651.5793	29142.95	28323.45
827.6838	653.6922	29017	28197.1
827.8285	655.8043	29039.55	28221.3
827.9733	657.9159	29020.95	28200.5
828.118	660.0268	28950.55	28128.35
828.2627	662.137	28916.55	28094.6
828.4075	664.2466	28866.2	28041.95
828.5522	666.3556	28852.85	28031.25
828.697	668.4639	28718.5	27893.15
828.8418	670.5716	28758.75	27936.15
828.9865	672.6786	28723.6	27899.65
829.1313	674.785	28589.4	27764.5
829.2761	676.8907	28503.55	27680.35
829.4209	678.9958	28522.55	27698.65
829.5657	681.1002	28421.7	27596.65
829.7105	683.204	28399.75	27572.1
829.8553	685.3072	28351.5	27524.15
830.0001	687.4097	28293.35	27466.65
830.1449	689.5115	28321.55	27491.9
830.2898	691.6127	28328.45	27501.9
830.4346	693.7132	28255.55	27428.2
830.5794	695.8131	28261.45	27425.3
830.7243	697.9123	28214.85	27385.25
830.8691	700.0109	28147.8	27318.65
831.014	702.1089	28178.7	27351.85
831.1588	704.2061	28149	27321.35
831.3037	706.3028	28125.9	27293.8
831.4486	708.3987	28110.75	27282.35
831.5935	710.4941	28082.9	27252.95
831.7383	712.5887	28056.25	27223.75
831.8832	714.6827	28019.95	27186.55
832.0281	716.7761	27998.4	27168.85
832.173	718.8688	27959.7	27126.15
832.3179	720.9608	27926.7	27089.45
832.4628	723.0522	27966.85	27128.85
832.6077	725.1429	27881.3	27050.1
832.7527	727.233	27916.9	27082.3
832.8976	729.3224	27977.1	27143.15
833.0425	731.4112	27919.35	27085.6
833.1874	733.4993	27864.15	27026.65
833.3324	735.5867	27744.7	26906.65
833.4773	737.6735	27640.15	26803.5
833.6222	739.7596	27559.3	26725.55
833.7672	741.845	27511.75	26675.4
833.9122	743.9298	27433.5	26595.6
834.0571	746.014	27422.4	26587.35
834.2021	748.0974	27384.1	26545.25
834.347	750.1802	27286.3	26449.5
834.492	752.2624	27182.45	26344.75
834.637	754.3439	27099.4	26260.8
834.782	756.4247	27006.55	26157.25
834.9269	758.5048	26919.6	26081.8
835.0719	760.5843	26920.05	26080.6
835.2169	762.6631	26802.4	25963.5
835.3619	764.7413	26838.25	26000
835.5069	766.8188	26879.2	26038.45
835.6519	768.8956	26791.7	25949.55
835.7969	770.9718	26857.1	26017.65
835.9419	773.0473	26744.55	25905.05
836.0869	775.1221	26758.25	25919.8
836.232	777.1962	26640.1	25799.3
836.377	779.2697	26595.1	25753.55
836.522	781.3426	26639.15	25780.2
836.667	783.4147	26614	25773.05
836.8121	785.4862	26609.8	25770
836.9571	787.557	26481.25	25639.65
837.1021	789.6271	26343.1	25500.5
837.2472	791.6966	26235.55	25393
837.3922	793.7654	26089.25	25245.55
837.5373	795.8335	26030.35	25188.3
837.6823	797.901	25912.6	25071.8
837.8274	799.9678	25907.65	25063.65
837.9724	802.0339	25843.6	25001.4
838.1175	804.0993	25830.65	24979.45
838.2626	806.1641	25732.15	24887.45
838.4076	808.2282	25701.9	24858.95
838.5527	810.2916	25677.65	24830.7
838.6978	812.3544	25652.5	24810.6
838.8428	814.4164	25549.25	24706.8
838.9879	816.4778	25609.75	24765.75
839.133	818.5385	25518	24674.25
839.2781	820.5986	25500.05	24654.55
839.4232	822.658	25536.4	24690.15
839.5682	824.7166	25504.05	24658.25
839.7133	826.7747	25578.6	24734.5
839.8584	828.832	25597.8	24750.55
840.0035	830.8886	25549.65	24701.45
840.1486	832.9446	25552.35	24703.6
840.2937	834.9999	25478.6	24633.45
840.4388	837.0545	25409.5	24559.35
840.5839	839.1085	25349.7	24502.5
840.729	841.1618	25200.4	24347.8
840.8741	843.2143	25104.7	24259.25
841.0192	845.2662	24998.8	24150.8
841.1643	847.3175	24987.55	24141.05
841.3095	849.368	24926.7	24079.3
841.4546	851.4179	24923.15	24075.85
841.5997	853.467	24802.2	23953.6
841.7448	855.5155	24799.05	23947.6
841.8899	857.5633	24737.55	23887.25
842.0351	859.6105	24673.85	23825.3
842.1802	861.6569	24641.15	23793.55
842.3253	863.7027	24560.4	23711.55
842.4704	865.7478	24571.45	23723.6
842.6156	867.7922	24558.95	23710.95
842.7607	869.8359	24511.75	23662.05
842.9058	871.8789	24461.9	23612.7
843.0509	873.9212	24416.5	23533.6
843.1961	875.9629	24337.4	23486.6
843.3412	878.0039	24362.6	23509.85
843.4863	880.0441	24347.95	23498.8
843.6315	882.0837	24350.6	23500.25
843.7766	884.1226	24378.55	23524.15
843.9218	886.1609	24356.2	23505.95
844.0669	888.1984	24403.95	23552.7
844.212	890.2352	24435.8	23586.25
844.3572	892.2714	24398.85	23543.15
844.5023	894.3069	24333.65	23479.9
844.6475	896.3416	24209.75	23356.55
844.7926	898.3757	24200.55	23347.3
844.9377	900.4091	24158.85	23305.05
845.0829	902.4418	24115.25	23257.9
845.228	904.4739	24026.1	23171.7
845.3732	906.5052	24028.75	23176.1
845.5183	908.5358	23951.7	23098.3
845.6635	910.5658	23920.1	23066.2
845.8086	912.595	23876.3	23023.1
845.9538	914.6236	23802.05	22947.5
846.0989	916.6515	23756.8	22905.35
846.2441	918.6786	23653.85	22799.1
846.3892	920.7051	23647.1	22790.6
846.5344	922.7309	23672	22817.4
846.6795	924.756	23564.9	22710.05
846.8246	926.7804	23602.45	22745.95
846.9698	928.8041	23404.55	22547.55
847.1149	930.8272	23439.5	22584.15
847.2601	932.8495	23306.9	22450
847.4052	934.8711	23330.4	22472.9
847.5504	936.892	23230.9	22376.1
847.6955	938.9123	23224.6	22367.5
847.8407	940.9318	23181.75	22325.35
847.9858	942.9506	23084.7	22227.3
848.131	944.9688	23020.55	22162.85
848.2761	946.9862	22981.35	22125.25
848.4213	949.003	22846.5	21989.2
848.5664	951.019	22789.15	21931.25
848.7115	953.0344	22756.15	21899.35
848.8567	955.0491	22703.5	21844.9
849.0018	957.063	22653.05	21796.7
849.147	959.0763	22670.85	21814.9
849.2921	961.0888	22593.9	21733.8
849.4373	963.1007	22610.35	21754.9
849.5824	965.1119	22571.25	21714.35
849.7275	967.1223	22539.75	21682.9
849.8727	969.1321	22474.4	21614.7
850.0178	971.1412	22466.15	21606.1
850.1629	973.1495	22362.1	21503.3
850.3081	975.1572	22398.05	21492.85
850.4532	977.1641	22338.15	21477.9
850.5983	979.1704	22248.05	21389.25
850.7435	981.1759	22235.6	21373.9
850.8886	983.1808	22211.2	21349.7
851.0337	985.1849	22170.8	21304.35
851.1788	987.1884	22083.4	21222
851.324	989.1911	22046.6	21183.65
851.4691	991.1932	22035.7	21175.95
851.6142	993.1945	21955.25	21097.65
851.7593	995.1951	21838.4	20978.75
851.9045	997.1951	21815.5	20950.4
852.0496	999.1943	21731.9	20873.05
852.1947	1001.1928	21628.7	20768.4
852.3398	1003.1906	21576.2	20717.7
852.4849	1005.1877	21580	20718.5
852.63	1007.1841	21509.9	20648.3
852.7751	1009.1798	21463.2	20602.9
852.9202	1011.1748	21365.45	20505.3
853.0653	1013.1691	21349.05	20487.25
853.2104	1015.1627	21214.95	20352.65
853.3555	1017.1556	21099.95	20238.55
853.5006	1019.1477	21041.35	20179.45
853.6457	1021.1392	20897.55	20037.45
853.7908	1023.1299	20864.15	20001.8
853.9359	1025.12	20767.9	19905.5
854.081	1027.1093	20708.1	19847.25
854.2261	1029.0979	20640.1	19781.1
854.3712	1031.0859	20567.45	19707.65
854.5163	1033.0731	20553.1	19689.6
854.6613	1035.0596	20451.9	19590.6
854.8064	1037.0454	20351.35	19488.65
854.9515	1039.0304	20359.05	19496.4
855.0965	1041.0148	20280.1	19416.95
855.2416	1042.9985	20204.1	19338.85
855.3867	1044.9814	20189.3	19328.3
855.5317	1046.9636	20068.1	19203.7
855.6768	1048.9452	20039.2	19177.95
855.8219	1050.926	19993.2	19129.9
855.9669	1052.9061	19979.8	19118.15
856.112	1054.8855	19914.75	19051.3
856.257	1056.8642	19908.85	19045.65
856.4021	1058.8421	19909.5	19043.05
856.5471	1060.8194	19818.9	18954.7
856.6921	1062.7959	19785.65	18922.9
856.8372	1064.7717	19759.3	18893.65
856.9822	1066.7469	19723.75	18859.1
857.1272	1068.7213	19677.35	18812.25
857.2723	1070.695	19674.5	18809.4
857.4173	1072.6679	19587.75	18723.4
857.5623	1074.6402	19573	18708.75
857.7073	1076.6117	19586.3	18718.6
857.8523	1078.5826	19588.8	18724.4
857.9973	1080.5527	19494.9	18627.85
858.1423	1082.5221	19419.7	18553.25
858.2873	1084.4908	19361	18494.1
858.4323	1086.4587	19258.9	18394.95
858.5773	1088.426	19272.1	18405.5
858.7223	1090.3925	19169.25	18299.2
858.8673	1092.3584	19224.5	18357.95
859.0123	1094.3235	19113.55	18249.9
859.1573	1096.2879	19108.3	18243.15
859.3022	1098.2515	19072.8	18208.75
859.4472	1100.2145	19093.6	18227.75
859.5922	1102.1767	19089.8	18221.6
859.7371	1104.1382	19043.25	18178.05
859.8821	1106.099	19078.6	18211.3
860.027	1108.0591	19029.2	18164.15
860.172	1110.0185	18997	18130.9
860.3169	1111.9771	19037.6	18172.7
860.4619	1113.9351	19037.3	18170.2
860.6068	1115.8923	19013.95	18147.4
860.7517	1117.8488	19011.4	18142.85
860.8967	1119.8045	18895.05	18028.4
861.0416	1121.7596	18811.05	17944.1
861.1865	1123.7139	18662.45	17796.75
861.3314	1125.6675	18581.3	17715.25
861.4763	1127.6204	18566.5	17700.65
861.6212	1129.5726	18529.9	17660.9
861.7661	1131.524	18568.95	17704.35
861.911	1133.4748	18453.7	17586.5
862.0559	1135.4248	18367.95	17498.45
862.2008	1137.3741	18299.25	17434.9
862.3457	1139.3226	18243.85	17377.45
862.4905	1141.2705	18266.5	17399.4
862.6354	1143.2176	18111.25	17237.9
862.7803	1145.164	18129.75	17261.1
862.9251	1147.1097	18111.3	17244.9
863.07	1149.0546	18112.1	17243.25
863.2148	1150.9989	18078.8	17211.05
863.3597	1152.9424	18024	17156.75
863.5045	1154.8852	17961.65	17093.85
863.6493	1156.8272	17951.4	17085.1
863.7942	1158.7686	17965.75	17093.2
863.939	1160.7092	17930.1	17058.8
864.0838	1162.6491	17841.9	16970.1
864.2286	1164.5883	17831.35	16963.1
864.3734	1166.5267	17834.9	16964.45
864.5182	1168.4644	17865.75	16996.35
864.663	1170.4014	17822	16947.3
864.8078	1172.3377	17889.55	17023.35
864.9526	1174.2732	17872.2	17004.75
865.0974	1176.2081	17941.15	17075.7
865.2421	1178.1421	17993.65	17122.35
865.3869	1180.0755	18080.8	17213.4
865.5317	1182.0082	18133.5	17264.8
865.6764	1183.9401	18050.6	17180.3
865.8212	1185.8713	17955.1	17087.1
865.9659	1187.8017	17814.65	16947.15
866.1106	1189.7315	17701.15	16834.2
866.2554	1191.6605	17543.7	16675
866.4001	1193.5888	17427.3	16558.55
866.5448	1195.5163	17383.75	16516.9
866.6895	1197.4432	17325.8	16454.95
866.8342	1199.3693	17239.95	16371.35
866.9789	1201.2947	17184.1	16312.6
867.1236	1203.2193	17132.35	16262.5
867.2683	1205.1432	17083.05	16212.4
867.413	1207.0664	17003.85	16134.35
867.5576	1208.9889	17003	16131.25
867.7023	1210.9106	16924.5	16055
867.847	1212.8316	16852.2	15984.7
867.9916	1214.7519	16858.55	15980.2
868.1363	1216.6715	16832.35	15963
868.2809	1218.5903	16819.45	15950.15
868.4255	1220.5084	16765.5	15896.75
868.5701	1222.4257	16794.5	15925.7
868.7148	1224.3424	16709.8	15840.05
868.8594	1226.2583	16685.7	15812.75
869.004	1228.1735	16684.85	15812.3
869.1486	1230.0879	16669.9	15798.15
869.2932	1232.0016	16634.1	15762.75
869.4377	1233.9146	16668.7	15796.9
869.5823	1235.8269	16620.35	15751.2
869.7269	1237.7384	16604.1	15734.1
869.8715	1239.6492	16554.8	15684.7
870.016	1241.5592	16528.6	15657.8
870.1606	1243.4686	16559.6	15690.2
870.3051	1245.3772	16603.35	15733.8
870.4496	1247.285	16620.45	15749.5
870.5941	1249.1922	16603.25	15732.7
870.7387	1251.0986	16712.05	15843
870.8832	1253.0042	16688.2	15815.65
871.0277	1254.9092	16765.4	15896.05
871.1722	1256.8134	16771.3	15902.65
871.3167	1258.7169	16869.8	16000.75
871.4611	1260.6196	16879.7	16008.45
871.6056	1262.5216	16892	16021.6
871.7501	1264.4229	16830.45	15960.8
871.8945	1266.3234	16795.05	15922.4
872.039	1268.2232	16734.65	15864.15
872.1834	1270.1223	16638.5	15766.1
872.3278	1272.0207	16623.25	15751.3
872.4723	1273.9183	16572.3	15694.55
872.6167	1275.8151	16526.3	15655.2
872.7611	1277.7113	16525.05	15654.15
872.9055	1279.6067	16544.85	15673.2
873.0499	1281.5014	16660.55	15789.05
873.1943	1283.3953	16794.4	15920.8
873.3386	1285.2885	16956.85	16085.25
873.483	1287.181	17055.15	16181.8
873.6274	1289.0727	17109.4	16240.85
873.7717	1290.9637	17082.9	16209.45
873.9161	1292.854	17002.85	16131.45
874.0604	1294.7435	16854.55	15980.45
874.2047	1296.6323	16752.95	15879.8
874.349	1298.5204	16636.35	15760.35
874.4933	1300.4077	16566.1	15693
874.6376	1302.2943	16483.85	15611.7
874.7819	1304.1802	16433.35	15561.7
874.9262	1306.0653	16379.45	15505.85
875.0705	1307.9497	16327.35	15456.55
875.2147	1309.8333	16300.9	15428.1
875.359	1311.7162	16240.95	15369.35
875.5032	1313.5984	16204.15	15329.35
875.6475	1315.4798	16140.65	15266.9
875.7917	1317.3605	16136.55	15259.85
875.9359	1319.2405	16104.85	15230.1
876.0801	1321.1197	16063.5	15187.8
876.2243	1322.9982	15995.5	15119
876.3685	1324.876	15928.8	15056.6
876.5127	1326.753	15850.4	14976.15
876.6569	1328.6293	15768.25	14893.35
876.801	1330.5048	15683.35	14809.5
876.9452	1332.3796	15572.85	14700.25
877.0893	1334.2537	15536.95	14638.65
877.2335	1336.127	15448.85	14576.75
877.3776	1337.9996	15378.85	14505.5
877.5217	1339.8714	15333.95	14459.35
877.6658	1341.7426	15295.05	14376.3
877.8099	1343.6129	15287.25	14413.3
877.954	1345.4826	15230.45	14358.4
878.0981	1347.3515	15237.8	14361.15
878.2422	1349.2196	15180.25	14306.7
878.3862	1351.087	15191.9	14319.85
878.5303	1352.9537	15164.8	14290.9
878.6743	1354.8197	15159.1	14286.7
878.8184	1356.6849	15164.55	14291.05
878.9624	1358.5493	15137.7	14265.5
879.1064	1360.4131	15140.15	14267.95
879.2504	1362.276	15123.7	14250.3
879.3944	1364.1383	15117.95	14243.25
879.5384	1365.9998	15083.15	14203.55
879.6823	1367.8606	15028.4	14153
879.8263	1369.7206	15018.05	14143.75
879.9702	1371.5799	14992.05	14115.55
880.1142	1373.4384	14936.05	14062.5
880.2581	1375.2962	14909.8	14036.65
880.402	1377.1533	14785.75	13910.7
880.5459	1379.0096	14697	13822.75
880.6898	1380.8652	14655.1	13781.45
880.8337	1382.7201	14595.35	13720.75
880.9776	1384.5742	14504.45	13630.45
881.1215	1386.4275	14461.25	13586.95
881.2653	1388.2802	14364.5	13491.1
881.4092	1390.132	14291.45	13416.45
881.553	1391.9832	14306.1	13430.35
881.6968	1393.8336	14197.6	13323.65
881.8406	1395.6832	14196.55	13319.6
881.9844	1397.5322	14131.3	13257.35
882.1282	1399.3803	14074.3	13195.25
882.272	1401.2278	14034.3	13159.75
882.4158	1403.0745	13972.5	13099.05
882.5595	1404.9204	13943.25	13072.25
882.7033	1406.7656	13890	13016.95
882.847	1408.6101	13874.7	12999.95
882.9908	1410.4538	13802.5	12927.85
883.1345	1412.2968	13781	12907.2
883.2782	1414.139	13706.3	12830.9
883.4219	1415.9805	13739.25	12864.65
883.5656	1417.8213	13696.8	12802.25
883.7092	1419.6613	13655.75	12782.7
883.8529	1421.5006	13660.6	12785.4
883.9965	1423.3391	13635.1	12759.15
884.1402	1425.1769	13609.15	12733.2
884.2838	1427.0139	13677.65	12804.6
884.4274	1428.8502	13741.4	12864.25
884.571	1430.6858	13760.8	12884.55
884.7146	1432.5206	13696.8	12821.95
884.8582	1434.3547	13731.5	12856.4
885.0018	1436.188	13715.05	12839.5
885.1453	1438.0206	13690.85	12815.2
885.2889	1439.8524	13612.85	12740
885.4324	1441.6835	13608.9	12732.6
885.5759	1443.5139	13583.25	12705.35
885.7194	1445.3435	13550.45	12674.65
885.8629	1447.1724	13538	12662.8
886.0064	1449.0005	13521	12646.15
886.1499	1450.8279	13497.15	12622.3
886.2933	1452.6545	13501.85	12627.65
886.4368	1454.4804	13471.85	12596.3
886.5802	1456.3056	13451.4	12568.4
886.7237	1458.13	13400.8	12528
886.8671	1459.9536	13384.95	12508.8
887.0105	1461.7766	13346.9	12470.3
887.1539	1463.5987	13248.15	12370.75
887.2972	1465.4202	13203.95	12328.65
887.4406	1467.2409	13116	12240.8
887.584	1469.0608	13119.8	12244.45
887.7273	1470.88	13059.3	12184
887.8706	1472.6984	13031.6	12157
888.0139	1474.5161	12931.1	12050.3
888.1572	1476.3331	12893.15	12020.75
888.3005	1478.1493	12880.25	12003.8
888.4438	1479.9648	12850.1	11971
888.5871	1481.7795	12806.15	11932.6
888.7303	1483.5935	12804.95	11931.1
888.8736	1485.4067	12772.15	11898.45
889.0168	1487.2192	12786	11910.45
889.16	1489.031	12777.95	11900.8
889.3032	1490.842	12720.85	11846.8
889.4464	1492.6522	12711.55	11837.15
889.5896	1494.4618	12703.95	11826.6
889.7327	1496.2705	12662.25	11786.25
889.8759	1498.0785	12659.85	11784.2
890.019	1499.8858	12610.8	11734.75
890.1622	1501.6924	12592.5	11717.55
890.3053	1503.4981	12542.45	11668.5
890.4484	1505.3032	12496.6	11621.8
890.5914	1507.1075	12493.4	11617.55
890.7345	1508.911	12468.9	11593.9
890.8776	1510.7138	12450.1	11573.15
891.0206	1512.5159	12396.35	11521.1
891.1637	1514.3172	12351.7	11477.05
891.3067	1516.1178	12315.1	11439.2
891.4497	1517.9176	12309.95	11432.8
891.5927	1519.7166	12238.8	11363.95
891.7357	1521.515	12197.3	11316.95
891.8786	1523.3126	12177.2	11303.3
892.0216	1525.1094	12168.95	11290.85
892.1645	1526.9055	12109.65	11234.8
892.3074	1528.7008	12048.85	11174.45
892.4503	1530.4954	12010.35	11133.55
892.5932	1532.2893	11992.5	11117.95
892.7361	1534.0824	11917.45	11036.7
892.879	1535.8747	11896.6	11021.15
893.0218	1537.6663	11857.1	10980.15
893.1647	1539.4572	11828.7	10950.45
893.3075	1541.2473	11797.2	10921.15
893.4503	1543.0367	11768.9	10895.2
893.5931	1544.8253	11707.1	10827.1
893.7359	1546.6132	11679.3	10800.6
893.8787	1548.4003	11653.75	10764.2
894.0214	1550.1867	11663.5	10778.95
894.1642	1551.9723	11623.4	10741.75
894.3069	1553.7572	11618.85	10743.05
894.4496	1555.5414	11560.15	10683.1
894.5923	1557.3247	11581.15	10703.6
894.735	1559.1074	11576.15	10701.95
894.8777	1560.8893	11551.3	10676.75
895.0204	1562.6705	11561	10687.05
895.163	1564.4509	11575	10698.6
895.3056	1566.2305	11538.5	10663.15
895.4482	1568.0094	11555.3	10682.8
895.5908	1569.7876	11539.75	10665.25
895.7334	1571.565	11492.7	10614.3
895.876	1573.3417	11457.8	10583.6
896.0186	1575.1176	11426.75	10551.45
896.1611	1576.8928	11423.9	10549.3
896.3036	1578.6672	11382.9	10509.05
896.4461	1580.4409	11394.4	10522.3
896.5886	1582.2138	11385.45	10508.9
896.7311	1583.986	11382	10506.15
896.8736	1585.7575	11413.7	10540.75
897.0161	1587.5282	11431	10556.65
897.1585	1589.2981	11411.9	10537.15
897.3009	1591.0673	11395	10519.05
897.4433	1592.8358	11384.4	10511.2
897.5857	1594.6035	11347.85	10470.1
897.7281	1596.3704	11299.65	10423.4
897.8705	1598.1366	11253.55	10377.65
898.0128	1599.9021	11226.45	10351.8
898.1551	1601.6668	11137.75	10260.05
898.2975	1603.4308	11079.35	10203.25
898.4398	1605.194	11065.95	10186.3
898.5821	1606.9564	11031.4	10157.3
898.7243	1608.7182	11089.65	10210.1
898.8666	1610.4791	11138.65	10264
899.0088	1612.2394	11188.45	10315.6
899.1511	1613.9988	11221.8	10348.6
899.2933	1615.7576	11306.45	10432.2
899.4355	1617.5156	11337.4	10456.9
899.5776	1619.2728	11298.8	10424.75
899.7198	1621.0293	11193	10317.75
899.862	1622.785	11050.25	10170.9
900.0041	1624.54	10898.55	10017.55
900.1462	1626.2942	10731.15	9854
900.2883	1628.0477	10616.4	9740.25
900.4304	1629.8005	10494.6	9614.15
900.5725	1631.5525	10418.45	9544.4
900.7145	1633.3037	10306.85	9432.15
900.8566	1635.0542	10270.9	9395.8
900.9986	1636.804	10185.25	9309.15
901.1406	1638.553	10214.9	9261.3
901.2826	1640.3013	10084.05	9209.55
901.4245	1642.0488	10041.65	9164.8
901.5665	1643.7955	10002.45	9127.3
901.7085	1645.5416	9958	9081.7
901.8504	1647.2868	9922.2	9046.3
901.9923	1649.0313	9887.9	9012.45
902.1342	1650.7751	9841.1	8965.25
902.2761	1652.5181	9815.7	8941.3
902.4179	1654.2604	9804.1	8927.15
902.5598	1656.0019	9782.85	8908.7
902.7016	1657.7427	9747.05	8870.9
902.8434	1659.4828	9757.75	8881.7
902.9852	1661.222	9760.5	8883.8
903.127	1662.9606	9765.35	8890.15
903.2687	1664.6984	9761.2	8885.35
903.4105	1666.4354	9757.9	8879.65
903.5522	1668.1717	9732.35	8857.5
903.6939	1669.9072	9622.5	8747.3
903.8356	1671.642	9571.5	8693.5
903.9773	1673.3761	9519.55	8645.75
904.119	1675.1094	9431.75	8556.35
904.2606	1676.8419	9399.6	8524
904.4022	1678.5737	9344.05	8468.05
904.5439	1680.3048	9296.65	8422
904.6855	1682.0351	9264.5	8390.8
904.827	1683.7646	9195.35	8317.85
904.9686	1685.4934	9183.6	8308.55
905.1101	1687.2215	9135.9	8261.1
905.2517	1688.9488	9099.35	8224.6
905.3932	1690.6754	9051.55	8176.55
905.5347	1692.4012	9032.5	8156.85
905.6761	1694.1263	8989.4	8114.95
905.8176	1695.8506	8963.6	8085.75
905.9591	1697.5742	8946.7	8070.9
906.1005	1699.297	8923.7	8049.35
906.2419	1701.0191	8838.65	7963.3
906.3833	1702.7404	8861.95	7986.7
906.5246	1704.461	8786.25	7909.85
906.666	1706.1808	8771.9	7895.4
906.8073	1707.8999	8726.05	7849.25
906.9487	1709.6182	8721.3	7846.2
907.09	1711.3358	8681	7804.6
907.2313	1713.0527	8662.75	7787.85
907.3725	1714.7688	8634.4	7752.65
907.5138	1716.4841	8600.8	7723.6
907.655	1718.1987	8600.35	7718.1
907.7962	1719.9126	8594	7717.9
907.9374	1721.6257	8536.35	7657.7
908.0786	1723.338	8522.75	7644.6
908.2198	1725.0496	8478.6	7600.35
908.3609	1726.7605	8480.45	7605.35
908.502	1728.4706	8456.85	7579.3
908.6431	1730.18	8414.1	7536.8
908.7842	1731.8886	8412	7536.7
908.9253	1733.5964	8415.75	7520.25
909.0664	1735.3036	8397.35	7523.15
909.2074	1737.0099	8374.6	7497.7
909.3484	1738.7156	8342.15	7467.7
909.4894	1740.4204	8331.65	7452.95
909.6304	1742.1246	8317.05	7439.05
909.7714	1743.8279	8287.85	7413.6
909.9123	1745.5306	8294.2	7417.5
910.0532	1747.2325	8278.3	7402.4
910.1941	1748.9336	8258.75	7382.65
910.335	1750.634	8207.35	7329.5
910.4759	1752.3336	8211.4	7336.4
910.6168	1754.0325	8212.35	7335.3
910.7576	1755.7307	8194.3	7318.85
910.8984	1757.4281	8203.15	7327.45
911.0392	1759.1247	8174.15	7288.65
911.18	1760.8206	8160.35	7279.3
911.3208	1762.5158	8148.1	7266.75
911.4615	1764.2102	8118.05	7242.65
911.6022	1765.9039	8070.1	7192.85
911.7429	1767.5968	8067.15	7189.15
911.8836	1769.289	8062.7	7187.3
912.0243	1770.9804	8040.25	7162.85
912.1649	1772.6711	8037.5	7160.85
912.3056	1774.361	8020.9	7143.5
912.4462	1776.0502	7996.4	7119
912.5868	1777.7386	7996.65	7117.05
912.7274	1779.4263	7979.5	7104.05
912.8679	1781.1132	7956.9	7080.9
913.0084	1782.7994	7940.3	7061.85
913.149	1784.4849	7919.5	7042.45
913.2895	1786.1696	7906	7010.55
913.4299	1787.8535	7896.05	7021.6
913.5704	1789.5367	7859.85	6982.3
913.7108	1791.2192	7835.3	6959.9
913.8513	1792.9009	7812.55	6918.65
913.9917	1794.5818	7804.2	6928.45
914.132	1796.2621	7808.2	6934.95
914.2724	1797.9415	7759.35	6883.7
914.4128	1799.6202	7745.2	6868.65
914.5531	1801.2982	7734.7	6857.55
914.6934	1802.9755	7729.8	6850.95
914.8337	1804.6519	7693.8	6816.8
914.9739	1806.3277	7647.65	6771.45
915.1142	1808.0027	7648.65	6775.05
915.2544	1809.6769	7653.45	6777.55
915.3946	1811.3504	7642.95	6766.4
915.5348	1813.0231	7616.5	6739.2
915.675	1814.6951	7603.95	6726.55
915.8151	1816.3664	7611.3	6732.15
915.9553	1818.0369	7591.7	6715.15
916.0954	1819.7067	7548.4	6673.15
916.2355	1821.3757	7557.4	6680.5
916.3755	1823.044	7515.9	6638.85
916.5156	1824.7115	7517.35	6641.7
916.6556	1826.3783	7481.15	6606.85
916.7956	1828.0443	7476.25	6602.4
916.9356	1829.7096	7458.65	6581.65
917.0756	1831.3741	7471.35	6590.7
917.2155	1833.0379	7463.4	6587.9
917.3555	1834.701	7416.95	6539
917.4954	1836.3633	7409.1	6531.05
917.6353	1838.0248	7398.2	6522.1
917.7751	1839.6856	7377.55	6500
917.915	1841.3457	7376.9	6503.55
918.0548	1843.005	7357.1	6480.55
918.1946	1844.6636	7349	6473.45
918.3344	1846.3214	7324.25	6448.9
918.4742	1847.9785	7292.1	6416
918.6139	1849.6349	7303.7	6427.9
918.7537	1851.2904	7293.6	6407.5
918.8934	1852.9453	7272.5	6395.45
919.0331	1854.5994	7239.5	6362.7
919.1727	1856.2528	7272.7	6390.75
919.3124	1857.9054	7214.1	6338.7
919.452	1859.5572	7218.1	6342.35
919.5916	1861.2083	7200.35	6323.1
919.7312	1862.8587	7198.4	6321.65
919.8708	1864.5084	7162.35	6285.45
920.0103	1866.1572	7157.25	6283.4
920.1498	1867.8054	7125.6	6249.75
920.2893	1869.4528	7134.1	6258.3
920.4288	1871.0994	7112.1	6235.05
920.5683	1872.7453	7095.65	6218.8
920.7077	1874.3905	7093.1	6211.8
920.8471	1876.0349	7061.75	6183.45
920.9865	1877.6786	7056.4	6176.55
921.1259	1879.3215	7050.85	6176.05
921.2653	1880.9637	7025.35	6147.45
921.4046	1882.6051	7022.1	6145.9
921.5439	1884.2458	7010.75	6133.4
921.6832	1885.8858	7000.05	6121.55
921.8225	1887.525	6980.1	6105.15
921.9617	1889.1634	6928.1	6051.15
922.101	1890.8011	6926.7	6050.1
922.2402	1892.4381	6928.45	6054.7
922.3794	1894.0743	6925.85	6050.65
922.5185	1895.7098	6888.3	6012.9
922.6577	1897.3446	6902.4	6026.15
922.7968	1898.9786	6879.35	5996.9
922.9359	1900.6118	6864.2	5989.15
923.075	1902.2443	6808.65	5930.9
923.214	1903.8761	6801.55	5925.85
923.3531	1905.5071	6775.15	5898
923.4921	1907.1374	6769.55	5892.7
923.6311	1908.7669	6746.7	5869.6
923.77	1910.3957	6748.85	5871.1
923.909	1912.0237	6705.25	5827.85
924.0479	1913.651	6708.25	5830.7
924.1868	1915.2776	6715.75	5839.35
924.3257	1916.9034	6675.9	5801.6
924.4646	1918.5285	6631.55	5757.6
924.6034	1920.1528	6620.55	5744.85
924.7422	1921.7764	6620.9	5746.65
924.881	1923.3992	6567.7	5692.8
925.0198	1925.0213	6564.95	5689.4
925.1586	1926.6427	6541.75	5665.95
925.2973	1928.2633	6712.1	5627.9
925.436	1929.8832	6561.25	5681.8
925.5747	1931.5023	6507.15	5629.5
925.7134	1933.1207	6482.9	5606.45
925.852	1934.7383	6471.4	5594.25
925.9906	1936.3552	6449.5	5574.75
926.1292	1937.9714	6432.75	5553.75
926.2678	1939.5868	6402.55	5524.15
926.4064	1941.2015	6362.25	5487.35
926.5449	1942.8154	6363.85	5486.6
926.6834	1944.4286	6329.6	5454.2
926.8219	1946.041	6338.6	5441.35
926.9604	1947.6528	6298.1	5415.3
927.0988	1949.2637	6284.65	5408.95
927.2372	1950.8739	6261.3	5382.6
927.3756	1952.4834	6261.35	5383
927.514	1954.0921	6248.3	5372.75
927.6523	1955.7001	6226.55	5345.7
927.7907	1957.3074	6211.85	5337.4
927.929	1958.9139	6189.65	5312.1
928.0673	1960.5197	6199.3	5320.8
928.2055	1962.1247	6161.05	5285.05
928.3438	1963.729	6147.75	5272.85
928.482	1965.3325	6152.35	5255.2
928.6202	1966.9353	6113.05	5237.85
928.7584	1968.5374	6106.25	5226.6
928.8965	1970.1387	6083.8	5207.15
929.0346	1971.7393	6060.4	5182.15
929.1727	1973.3392	6057.8	5181.9
929.3108	1974.9383	6037.1	5161.05
929.4489	1976.5366	6012.35	5136.95
929.5869	1978.1342	6001.9	5126.75
929.7249	1979.7311	6004.65	5127.45
929.8629	1981.3273	5978.35	5101.8
930.0009	1982.9227	5959.25	5082.75
930.1388	1984.5173	5948.25	5072.25
930.2767	1986.1112	5934.65	5059.65
930.4146	1987.7044	5915.05	5040.3
930.5525	1989.2968	5908.45	5032.2
930.6904	1990.8885	5887.95	5008.45
930.8282	1992.4795	5890.75	5013.6
930.966	1994.0697	5860.95	4985.8
931.1038	1995.6592	5861.3	4984.9
931.2415	1997.2479	5847.1	4971.3
931.3793	1998.8359	5839.1	4964.85
931.517	2000.4232	5813.4	4937.55
931.6547	2002.0097	5787.95	4913.1
931.7923	2003.5955	5779.9	4902.85
931.93	2005.1805	5771.25	4894.4
932.0676	2006.7648	5754.65	4877.55
932.2052	2008.3484	5750.8	4873.05
932.3427	2009.9312	5756.5	4880.25
932.4803	2011.5133	5715.35	4840.35
932.6178	2013.0946	5714.05	4837.45
932.7553	2014.6752	5712	4838.4
932.8928	2016.2551	5698.2	4821.15
933.0302	2017.8342	5663.8	4786.15
933.1676	2019.4126	5646.85	4770.75
933.305	2020.9902	5639.25	4763.9
933.4424	2022.5672	5642.6	4765.15
933.5798	2024.1433	5621.75	4739.5
933.7171	2025.7188	5612.65	4738.3
933.8544	2027.2935	5587.95	4712.05
933.9917	2028.8674	5563.9	4688.6
934.129	2030.4406	5564.8	4691
934.2662	2032.0131	5558.8	4682.7
934.4034	2033.5849	5530	4649.6
934.5406	2035.1559	5530.05	4653.85
934.6778	2036.7261	5518.7	4642.6
934.8149	2038.2957	5517.55	4641.5
934.952	2039.8645	5500.85	4624.05
935.0891	2041.4325	5497	4620
935.2262	2042.9998	5482.5	4607.1
935.3632	2044.5664	5486.75	4610.25
935.5002	2046.1323	5450.5	4575.7
935.6372	2047.6974	5451.6	4576.5
935.7742	2049.2617	5448.85	4572.9
935.9111	2050.8254	5451.85	4553.7
936.048	2052.3883	5449.75	4572.65
936.1849	2053.9504	5426.5	4552.35
936.3218	2055.5118	5410.4	4534.95
936.4586	2057.0725	5399.15	4519.1
936.5955	2058.6325	5370.15	4494.4
936.7323	2060.1917	5368.55	4494.1
936.869	2061.7502	5369.6	4492.2
937.0058	2063.3079	5330.05	4454.5
937.1425	2064.8649	5338.95	4459.3
937.2792	2066.4212	5339.15	4462.55
937.4159	2067.9767	5329.6	4454.85
937.5525	2069.5315	5302.65	4428.25
937.6891	2071.0856	5273.75	4395.95
937.8257	2072.6389	5273.3	4395.45
937.9623	2074.1915	5246.7	4373.5
938.0989	2075.7433	5235.75	4358.55
938.2354	2077.2945	5232.2	4358.45
938.3719	2078.8448	5210.65	4335.25
938.5084	2080.3945	5197.6	4320.95
938.6448	2081.9434	5221.9	4345.8
938.7812	2083.4916	5205.9	4328.75
938.9176	2085.039	5185.1	4308.35
939.054	2086.5857	5173.7	4296.6
939.1903	2088.1317	5166.15	4289.7
939.3267	2089.677	5153.75	4277.75
939.463	2091.2215	5144.7	4266.65
939.5992	2092.7652	5136.45	4259.75
939.7355	2094.3083	5117.8	4240.4
939.8717	2095.8506	5115.6	4240.55
940.0079	2097.3921	5109.15	4234
940.1441	2098.933	5096.05	4219.5
940.2802	2100.4731	5100.85	4225.3
940.4163	2102.0124	5127.3	4233.15
940.5524	2103.5511	5097.25	4221.7
940.6885	2105.089	5081.3	4205.9
940.8245	2106.6261	5072.6	4195.85
940.9606	2108.1626	5063.65	4186.2
941.0965	2109.6983	5077.05	4171.05
941.2325	2111.2332	5074.95	4198.25
941.3684	2112.7675	5039.85	4164
941.5044	2114.301	5029.2	4151.9
941.6403	2115.8337	5033.65	4157.85
941.7761	2117.3657	5024.45	4148.45
941.912	2118.897	5008.2	4131.8
942.0478	2120.4276	5004.1	4122.8
942.1835	2121.9575	4976.35	4099.95
942.3193	2123.4866	4986.05	4108.25
942.455	2125.0149	4961.5	4082.15
942.5907	2126.5426	4941.9	4066.55
942.7264	2128.0695	4934.4	4055.05
942.8621	2129.5956	4948	4073.5
942.9977	2131.1211	4920.15	4039.5
943.1333	2132.6458	4917.45	4043.75
943.2689	2134.1698	4899	4023
943.4044	2135.693	4909.65	4030.85
943.54	2137.2155	4879.2	4001.7
943.6755	2138.7373	4878.75	4000.65
943.8109	2140.2584	4864.4	3989.55
943.9464	2141.7787	4863.1	3981.9
944.0818	2143.2983	4837.7	3962.15
944.2172	2144.8171	4808.85	3935.3
944.3526	2146.3353	4818.75	3941.7
944.4879	2147.8527	4789.9	3915.7
944.6232	2149.3693	4799.6	3923.85
944.7585	2150.8853	4767.7	3890.8
944.8938	2152.4005	4755.1	3877.55
945.029	2153.9149	4774.85	3897
945.1642	2155.4287	4742	3867.9
945.2994	2156.9417	4758.85	3880.6
945.4346	2158.454	4737.55	3858.6
945.5697	2159.9655	4724.75	3850.2
945.7048	2161.4764	4717.45	3843.05
945.8399	2162.9865	4693	3816.95
945.9749	2164.4958	4704.5	3826.55
946.1099	2166.0045	4683.7	3805.6
946.2449	2167.5124	4694.3	3816.8
946.3799	2169.0195	4678.9	3802.95
946.5148	2170.526	4684.4	3809.9
946.6498	2172.0317	4661.1	3786.55
946.7846	2173.5367	4642.7	3766.55
946.9195	2175.0409	4620.3	3746.6
947.0543	2176.5445	4628.45	3754.25
947.1891	2178.0473	4602.85	3727.65
947.3239	2179.5494	4611.3	3730.75
947.4587	2181.0507	4596.15	3720.65
947.5934	2182.5513	4574.8	3697.6
947.7281	2184.0512	4579.1	3704.85
947.8628	2185.5504	4554	3677.8
947.9974	2187.0488	4539.9	3665.25
948.132	2188.5465	4540.6	3665
948.2666	2190.0435	4514.45	3637.15
948.4012	2191.5397	4515.3	3639.25
948.5357	2193.0353	4502.05	3627.85
948.6702	2194.5301	4476.95	3599.7
948.8047	2196.0241	4482.35	3606.95
948.9392	2197.5175	4470.3	3596.4
949.0736	2199.0101	4462.3	3582.9
949.208	2200.502	4432.35	3557.7
949.3424	2201.9931	4415.25	3539.95
949.4767	2203.4835	4407.7	3529.55
949.611	2204.9733	4399.45	3516.7
949.7453	2206.4622	4409.35	3532.25
949.8796	2207.9505	4384.05	3505.05
950.0138	2209.438	4356.8	3479.8
950.148	2210.9248	4367	3488.7
950.2822	2212.4109	4332.75	3457.25
950.4164	2213.8962	4316.8	3440.15
950.5505	2215.3809	4328.4	3453.3
950.6846	2216.8648	4329.15	3452.7
950.8186	2218.3479	4308.85	3427.75
950.9527	2219.8304	4283.35	3407.15
951.0867	2221.3121	4279.8	3400.6
951.2207	2222.7931	4275.75	3401.1
951.3546	2224.2733	4257.7	3380.25
951.4886	2225.7529	4237	3359.1
951.6225	2227.2317	4236	3356.95
951.7563	2228.7098	4229.2	3353.7
951.8902	2230.1872	4204.9	3328.95
952.024	2231.6638	4195.85	3319.3
952.1578	2233.1397	4187.6	3305.3
952.2916	2234.6149	4183.9	3308.85
952.4253	2236.0894	4180.75	3304.05
952.559	2237.5632	4177.8	3291.5
952.6927	2239.0362	4148.6	3272.95
952.8263	2240.5085	4153.05	3278.65
952.9599	2241.9801	4120.75	3244.9
953.0935	2243.4509	4104.75	3229.9
953.2271	2244.921	4108.05	3232.35
953.3606	2246.3904	4104.7	3227.75
953.4941	2247.8591	4091.8	3217.15
953.6276	2249.3271	4074.15	3198.6
953.7611	2250.7943	4079.15	3202.9
953.8945	2252.2608	4068.55	3192.85
954.0279	2253.7266	4048.1	3173.85
954.1612	2255.1917	4036.85	3160.4
954.2946	2256.656	4030.6	3153.7
954.4279	2258.1197	4002.6	3126.75
954.5612	2259.5826	4002.95	3124.4
954.6944	2261.0447	4011.15	3134.15
954.8276	2262.5062	4005.5	3129.1
954.9608	2263.9669	3992.8	3116.5
955.094	2265.4269	3976.1	3100.1
955.2271	2266.8862	3971.6	3094.7
955.3602	2268.3448	3959.1	3081.9
955.4933	2269.8026	3960.85	3083.35
955.6264	2271.2598	3946.55	3071.05
955.7594	2272.7162	3931.4	3055.65
955.8924	2274.1719	3914.8	3039.15
956.0253	2275.6268	3914.5	3041.1
956.1583	2277.0811	3907.4	3031
956.2912	2278.5346	3904.1	3029.9
956.4241	2279.9874	3889.4	3012.45
956.5569	2281.4395	3889.75	3014.4
956.6897	2282.8908	3878.8	2997.45
956.8225	2284.3414	3872.9	2995.9
956.9553	2285.7914	3857.9	2983.45
957.088	2287.2406	3842.45	2964.6
957.2207	2288.689	3837	2960.8
957.3534	2290.1368	3826.25	2950.4
957.486	2291.5838	3822.8	2945.6
957.6186	2293.0302	3819	2944.3
957.7512	2294.4758	3799.95	2924.1
957.8838	2295.9206	3795.55	2917.3
958.0163	2297.3648	3788.95	2911.9
958.1488	2298.8082	3770.2	2892.85
958.2813	2300.251	3757.15	2881.85
958.4137	2301.693	3753.75	2874.25
958.5461	2303.1343	3747	2867.2
958.6785	2304.5748	3748.35	2873.45
958.8108	2306.0147	3722.75	2846.75
958.9432	2307.4538	3732.5	2855.85
959.0754	2308.8922	3708.65	2834.6
959.2077	2310.3299	3705.35	2829.9
959.3399	2311.7669	3703.25	2827.1
959.4721	2313.2031	3682.5	2805.9
959.6043	2314.6387	3685.9	2807.85
959.7365	2316.0735	3665.2	2789.9
959.8686	2317.5076	3661.85	2786.8
960.0006	2318.941	3650.7	2775.45
960.1327	2320.3737	3646	2769.2
960.2647	2321.8056	3637.1	2758.9
960.3967	2323.2369	3631.4	2756.05
960.5287	2324.6674	3630.2	2751.25
960.6606	2326.0972	3620.5	2742.7
960.7925	2327.5263	3604.3	2729.05
960.9244	2328.9547	3584.95	2709.4
961.0562	2330.3823	3591.9	2714.35
961.1881	2331.8092	3593.55	2714.35
961.3198	2333.2355	3576.3	2701.8
961.4516	2334.661	3563.65	2686.9
961.5833	2336.0858	3566.3	2688.95
961.715	2337.5098	3546.15	2669.6
961.8467	2338.9332	3525.7	2648
961.9783	2340.3558	3540.35	2661.15
962.1099	2341.7778	3528.1	2652.45
962.2415	2343.199	3509.15	2629.6
962.373	2344.6195	3507.45	2631.7
962.5045	2346.0393	3506.8	2630.25
962.636	2347.4583	3491.65	2615.4
962.7675	2348.8767	3476.5	2599.25
962.8989	2350.2943	3465.95	2587.3
963.0303	2351.7113	3471.2	2593.45
963.1617	2353.1275	3454.5	2577.45
963.293	2354.543	3444.75	2559.05
963.4243	2355.9578	3439.85	2564.55
963.5556	2357.3718	3423.7	2546.95
963.6868	2358.7852	3413.6	2534.8
963.818	2360.1978	3411.05	2532.1
963.9492	2361.6098	3399.85	2522.8
964.0803	2363.021	3397.5	2518
964.2114	2364.4315	3384.4	2508.15
964.3425	2365.8413	3375.2	2492.75
964.4736	2367.2504	3367.15	2490.75
964.6046	2368.6587	3358.95	2481.85
964.7356	2370.0664	3348.4	2473.3
964.8666	2371.4733	3332.3	2455.6
964.9975	2372.8795	3331.35	2456.4
965.1284	2374.285	3331.85	2455.2
965.2593	2375.6899	3307	2433.9
965.3901	2377.0939	3293	2417.45
965.5209	2378.4973	3300.85	2425.15
965.6517	2379.9	3281.15	2402.75
965.7825	2381.3019	3271.9	2394.45
965.9132	2382.7032	3260.3	2384.2
966.0439	2384.1037	3250.95	2376.7
966.1745	2385.5035	3242.95	2365.95
966.3051	2386.9027	3235.95	2361.25
966.4357	2388.3011	3236.35	2357.8
966.5663	2389.6987	3219.8	2342.45
966.6968	2391.0957	3210.75	2335.8
966.8273	2392.492	3197.15	2320.9
966.9578	2393.8876	3199.25	2321.3
967.0882	2395.2824	3180.3	2304.6
967.2186	2396.6765	3155.25	2279.25
967.349	2398.07	3159.8	2286.45
967.4793	2399.4627	3167.1	2289.2
967.6097	2400.8547	3159.05	2281.2
967.7399	2402.246	3146.2	2264.9
967.8702	2403.6366	3109.2	2232.9
968.0004	2405.0265	3112.65	2238
968.1306	2406.4156	3113.9	2235.95
968.2607	2407.8041	3106.9	2227.85
968.3909	2409.1918	3093.4	2214.3
968.521	2410.5789	3069.35	2192.85
968.651	2411.9652	3077.1	2197.85
968.781	2413.3508	3065.65	2188.6
968.911	2414.7358	3057.9	2181.65
969.041	2416.12	3036.4	2162
969.1709	2417.5035	3023.85	2147.75
969.3008	2418.8863	3030.9	2153.1
969.4307	2420.2684	3023.8	2146.45
969.5606	2421.6497	3002.15	2125.25
969.6904	2423.0304	2989.9	2114.4
969.8201	2424.4104	2987.75	2111.1
969.9499	2425.7896	2984.4	2104.9
970.0796	2427.1682	2981.05	2104.25
970.2093	2428.546	2970.95	2094.45
970.3389	2429.9232	2968.2	2090.65
970.4685	2431.2996	2960.5	2083.05
970.5981	2432.6753	2967.3	2091.6
970.7277	2434.0503	2951.55	2073.55
970.8572	2435.4246	2935.8	2060.05
970.9867	2436.7982	2925.4	2044.5
971.1161	2438.1711	2929.45	2054.2
971.2456	2439.5433	2919.4	2042.15
971.375	2440.9148	2913.15	2031.45
971.5043	2442.2856	2893.05	2017.1
971.6336	2443.6557	2899.65	2021.55
971.7629	2445.025	2890.7	2012.85
971.8922	2446.3937	2891.6	2014.55
972.0214	2447.7617	2886.5	2009.35
972.1506	2449.1289	2867.75	1990.6
972.2798	2450.4955	2874.05	1993.4
972.4089	2451.8613	2869.55	1994.4
972.538	2453.2265	2863.5	1987.05
972.6671	2454.5909	2856.75	1979.7
972.7961	2455.9546	2842.3	1964.5
972.9251	2457.3177	2834.05	1957.55
973.0541	2458.68	2825.4	1946.45
973.1831	2460.0416	2822.95	1945.55
973.312	2461.4025	2826.5	1949.6
973.4408	2462.7627	2822.7	1936.65
973.5697	2464.1222	2801.55	1927.15
973.6985	2465.4811	2801.25	1925
973.8273	2466.8392	2795.55	1919.7
973.956	2468.1966	2789.75	1910.35
974.0847	2469.5533	2798.85	1921.3
974.2134	2470.9093	2780.8	1902.8
974.3421	2472.2645	2770.25	1892.7
974.4707	2473.6191	2768.05	1892.85
974.5993	2474.973	2755.85	1877.85
974.7278	2476.3262	2756.45	1877.45
974.8563	2477.6787	2750.65	1875
974.9848	2479.0305	2733.55	1857.6
975.1132	2480.3816	2727.4	1849.55
975.2417	2481.7319	2725.55	1848.85
975.37	2483.0816	2720.6	1842.75
975.4984	2484.4306	2713.75	1834.8
975.6267	2485.7789	2696	1822.3
975.755	2487.1264	2702	1824
975.8833	2488.4733	2678.1	1802.3
976.0115	2489.8195	2679.15	1794.1
976.1397	2491.165	2674.1	1794.5
976.2678	2492.5097	2661.1	1782.5
976.3959	2493.8538	2649.8	1773.3
976.524	2495.1972	2634	1755.35
976.6521	2496.5398	2635.4	1756.2
976.7801	2497.8818	2629.3	1751.5
976.9081	2499.2231	2628.15	1751.35
977.036	2500.5637	2620.7	1743.75
977.164	2501.9035	2618.15	1739.2
977.2918	2503.2427	2609.05	1729.35
977.4197	2504.5812	2598.8	1722.6
977.5475	2505.919	2602.85	1723.55
977.6753	2507.256	2600.05	1723.25
977.8031	2508.5924	2580.95	1705.05
977.9308	2509.9281	2587.5	1705.4
978.0585	2511.2631	2568.4	1690.7
978.1861	2512.5974	2563.15	1687.2
978.3137	2513.9309	2556.8	1679.1
978.4413	2515.2638	2581.95	1677.95
978.5689	2516.596	2552.05	1676.75
978.6964	2517.9275	2543.95	1666.9
978.8239	2519.2583	2535.6	1657.85
978.9513	2520.5884	2537.4	1659.7
979.0788	2521.9178	2520.4	1643.7
979.2062	2523.2465	2510.4	1635.05
979.3335	2524.5745	2504	1627.15
979.4608	2525.9018	2501.65	1624.4
979.5881	2527.2284	2500.65	1625.35
979.7154	2528.5543	2488.3	1612.05
979.8426	2529.8796	2501	1623.55
979.9698	2531.2041	2481.85	1605.7
980.0969	2532.5279	2472.1	1598
980.224	2533.851	2470.7	1591.8
980.3511	2535.1735	2468.1	1591.9
980.4781	2536.4952	2470.55	1595.2
980.6052	2537.8163	2461.3	1585
980.7321	2539.1366	2454.85	1580.15
980.8591	2540.4562	2452.35	1573.75
980.986	2541.7752	2440.6	1563.65
981.1129	2543.0935	2453.5	1575.3
981.2397	2544.411	2440.75	1564.65
981.3665	2545.7279	2439.55	1564.45
981.4933	2547.0441	2433.1	1557.45
981.62	2548.3596	2425.7	1546.45
981.7467	2549.6744	2422.3	1546
981.8734	2550.9885	2423.45	1539.3
982.0001	2552.3019	2401.35	1527.55
982.1267	2553.6146	2400.65	1524.55
982.2532	2554.9266	2396.9	1519
982.3798	2556.2379	2394.9	1516.7
982.5063	2557.5485	2398.1	1522.65
982.6327	2558.8585	2398.55	1514.85
982.7592	2560.1677	2378	1499
982.8856	2561.4762	2378.7	1501.15
983.0119	2562.7841	2383.2	1504.5
983.1383	2564.0913	2376.35	1501.05
983.2646	2565.3977	2372.75	1496.15
983.3908	2566.7035	2374.05	1497.35
983.517	2568.0086	2367.8	1490.4
983.6432	2569.313	2366.25	1489.2
983.7694	2570.6167	2362.9	1481.4
983.8955	2571.9197	2352.2	1474.3
984.0216	2573.222	2349.55	1469.75
984.1476	2574.5236	2352.95	1475.9
984.2737	2575.8246	2333.1	1451.75
984.3996	2577.1248	2331.5	1452.85
984.5256	2578.4244	2337.2	1461.45
984.6515	2579.7232	2324	1448.75
984.7774	2581.0214	2354	1452.95
984.9032	2582.3189	2325.15	1448.35
985.029	2583.6157	2312.95	1432.65
985.1548	2584.9118	2314.45	1437.05
985.2806	2586.2072	2307.45	1431.9
985.4063	2587.5019	2295.6	1419.25
985.5319	2588.7959	2291.85	1413.8
985.6576	2590.0893	2293.35	1414.15
985.7832	2591.3819	2286.7	1413.2
985.9087	2592.6739	2280.6	1406.8
986.0343	2593.9652	2284.45	1406.75
986.1597	2595.2557	2270.35	1392.95
986.2852	2596.5456	2270.75	1393.3
986.4106	2597.8348	2265.85	1390.6
986.536	2599.1234	2259.05	1384.5
986.6614	2600.4112	2251.55	1375.5
986.7867	2601.6983	2238.35	1360.3
986.912	2602.9848	2232	1354.45
987.0372	2604.2705	2230.8	1347.75
987.1624	2605.5556	2228.55	1352.1
987.2876	2606.84	2218.35	1341.7
987.4128	2608.1237	2215.2	1337.1
987.5379	2609.4067	2205.3	1329.5
987.6629	2610.689	2218.6	1332.95
987.788	2611.9707	2201.7	1321.45
987.913	2613.2516	2197.4	1316.1
988.0379	2614.5319	2185.1	1308.7
988.1629	2615.8115	2177.75	1300.1
988.2878	2617.0903	2186.4	1310.3
988.4126	2618.3685	2163.5	1286.85
988.5375	2619.6461	2165.15	1289.4
988.6622	2620.9229	2159.35	1283.25
988.787	2622.199	2162.1	1284.75
988.9117	2623.4745	2153.75	1278.3
989.0364	2624.7493	2133.4	1256.1
989.161	2626.0234	2142	1265.7
989.2857	2627.2968	2138	1259.75
989.4102	2628.5695	2132	1252.85
989.5348	2629.8415	2118.55	1242.7
989.6593	2631.1128	2113.75	1234.95
989.7837	2632.3835	2105.45	1229.05
989.9082	2633.6535	2104.85	1228.5
990.0326	2634.9228	2101	1226.15
990.1569	2636.1914	2100.45	1225
990.2812	2637.4593	2098.35	1216.4
990.4055	2638.7265	2089.6	1211.45
990.5298	2639.9931	2078.65	1202.6
990.654	2641.259	2083.35	1205.15
990.7782	2642.5242	2079.05	1202.65
990.9023	2643.7887	2071	1194.15
991.0264	2645.0525	2064.9	1189.2
991.1505	2646.3156	2058.85	1182.05
991.2745	2647.5781	2053.25	1177.75
991.3985	2648.8398	2039.7	1165.45
991.5225	2650.1009	2046.15	1160.45
991.6464	2651.3613	2039.35	1164.7
991.7703	2652.6211	2027.9	1152.75
991.8942	2653.8801	2036.5	1159.6
992.018	2655.1385	2033.15	1153.55
992.1418	2656.3961	2038.2	1161.15
992.2655	2657.6531	2024	1148
992.3892	2658.9094	2012.5	1134.65
992.5129	2660.1651	2018.95	1142.4
992.6366	2661.42	2008.25	1130.15
992.7602	2662.6743	2019.05	1142.75
992.8837	2663.9279	2002.6	1125.55
993.0073	2665.1808	1994.1	1115.7
993.1307	2666.433	1996.5	1117.45
993.2542	2667.6846	1992.3	1116.1
993.3776	2668.9354	1993.65	1115.1
993.501	2670.1856	1986	1107.8
993.6244	2671.4351	1977.7	1100.65
993.7477	2672.6839	1985.65	1106.95
993.8709	2673.9321	1981.95	1107.9
993.9942	2675.1795	1977.75	1101.5
994.1174	2676.4263	1973.55	1096.2
994.2405	2677.6724	1961.75	1086.8
994.3637	2678.9179	1964.85	1086.15
994.4868	2680.1626	1956.1	1080.9
994.6098	2681.4067	1955.7	1079.55
994.7328	2682.6501	1957.5	1081.5
994.8558	2683.8928	1954.1	1077.1
994.9788	2685.1348	1935.8	1060.5
995.1017	2686.3761	1926.1	1049.7
995.2245	2687.6168	1936.35	1059.45
995.3474	2688.8568	1918.4	1042.65
995.4702	2690.0961	1919.5	1046.3
995.5929	2691.3348	1909.15	1031.95
995.7156	2692.5727	1917.7	1041.6
995.8383	2693.81	1905.3	1029.1
995.961	2695.0466	1904.15	1030.05
996.0836	2696.2826	1902.8	1027.05
996.2062	2697.5178	1915.2	1020.25
996.3287	2698.7524	1897.55	1022
996.4512	2699.9863	1893.15	1014.75
996.5737	2701.2195	1888.9	1012.7
996.6961	2702.452	1890.9	1013.2
996.8185	2703.6839	1889	1012.75
996.9408	2704.9151	1883.55	1007.9
997.0631	2706.1456	1874.45	997.9
997.1854	2707.3755	1866.85	990.3
997.3077	2708.6046	1872.1	996.4
997.4299	2709.8331	1859	982.6
997.552	2711.0609	1848.8	972.95
997.6742	2712.2881	1853.3	976.1
997.7963	2713.5145	1841.4	962.6
997.9183	2714.7403	1845.5	969.15
998.0403	2715.9654	1838	960.7
998.1623	2717.1899	1857.45	965.4
998.2842	2718.4136	1838	961.9
998.4062	2719.6367	1835.8	959.45
998.528	2720.8591	1832.85	950.5
998.6498	2722.0809	1819.55	941.15
998.7716	2723.3019	1823.05	943.4
998.8934	2724.5223	1822.9	944.15
999.0151	2725.7421	1818.2	940.05
999.1368	2726.9611	1809.5	932.4
999.2584	2728.1795	1823.5	943.9
999.38	2729.3972	1800.8	927.65
999.5016	2730.6142	1806	915.75
999.6231	2731.8306	1787.65	910.4
999.7446	2733.0462	1793.55	912.25
999.8661	2734.2612	1788.9	908.9
999.9875	2735.4756	1782	902.95
1000.1089	2736.6892	1767.4	891.75
1000.2302	2737.9022	1753.35	877.75
1000.3515	2739.1145	1759.85	883.6
1000.4728	2740.3262	1773.4	891
1000.594	2741.5372	1757.25	881.65
1000.7152	2742.7475	1749.2	871.9
1000.8363	2743.9571	1745	867.2
1000.9575	2745.1661	1748.85	867.55
1001.0785	2746.3744	1741.85	863.85
1001.1996	2747.582	1745	869.25
1001.3206	2748.7889	1737.05	860.3
1001.4415	2749.9952	1729.25	853.55
1001.5625	2751.2008	1723.75	845.7
1001.6833	2752.4057	1721.1	842.35
1001.8042	2753.61	1729	851.15
1001.925	2754.8136	1719.75	841.1
1002.0458	2756.0165	1708.5	831.65
1002.1665	2757.2188	1710.7	834.55
1002.2872	2758.4204	1709.25	833.25
1002.4078	2759.6213	1706.5	826.85
1002.5285	2760.8215	1698.9	818.75
1002.649	2762.0211	1709.05	831.3
1002.7696	2763.22	1693.1	814.5
1002.8901	2764.4182	1691.6	812.25
1003.0106	2765.6158	1680.1	803.55
1003.131	2766.8127	1674.7	795.7
1003.2514	2768.009	1677.85	801.35
1003.3717	2769.2045	1680	802.8
1003.492	2770.3994	1674.55	796.15
1003.6123	2771.5936	1672.25	795.15
1003.7325	2772.7872	1672.2	797.7
1003.8527	2773.9801	1661.5	782.6
1003.9729	2775.1723	1675.25	781.9
1004.093	2776.3639	1648.85	773.6
1004.2131	2777.5548	1662	782.7
1004.3331	2778.745	1647.85	768.35
1004.4531	2779.9346	1646.05	769.7
1004.5731	2781.1235	1641.9	765
1004.693	2782.3117	1639.25	762.1
1004.8129	2783.4992	1629.85	756.05
1004.9328	2784.6861	1628.45	751.85
1005.0526	2785.8723	1635.75	758.7
1005.1723	2787.0579	1626.7	748.15
1005.2921	2788.2428	1630.8	753.5
1005.4118	2789.427	1615.35	739.1
1005.5314	2790.6106	1614.8	739.9
1005.651	2791.7935	1613.4	736.95
1005.7706	2792.9757	1612.85	736.2
1005.8902	2794.1573	1610.25	732.25
1006.0097	2795.3382	1605.5	729.55
1006.1291	2796.5184	1601.75	729.25
1006.2485	2797.698	1597.3	719.55
1006.3679	2798.8769	1600.85	723.95
1006.4873	2800.0551	1592.1	715.35
1006.6066	2801.2327	1591.75	714.3
1006.7258	2802.4096	1595.85	720.75
1006.8451	2803.5859	1582.35	707.5
1006.9642	2804.7615	1577.4	698.8
1007.0834	2805.9364	1578.25	702.65
1007.2025	2807.1106	1573.15	695.95
1007.3216	2808.2842	1581.2	702.75
1007.4406	2809.4572	1572.9	697
1007.5596	2810.6294	1569.25	691.65
1007.6785	2811.801	1576.9	702.1
1007.7975	2812.972	1565.85	688.8
1007.9163	2814.1423	1571.25	695.25
1008.0352	2815.3119	1574.6	698.05
1008.154	2816.4808	1574.4	698.75
1008.2727	2817.6491	1570.4	693.25
1008.3914	2818.8167	1571.2	697.5
1008.5101	2819.9837	1583.45	702.45
1008.6288	2821.15	1577	700.9
1008.7474	2822.3157	1581.55	707.4
1008.8659	2823.4807	1586.95	711.1
1008.9844	2824.645	1596.5	719.3
1009.1029	2825.8086	1592.9	717.4
1009.2214	2826.9716	1607.3	731.05
1009.3398	2828.134	1610.4	734.85
1009.4581	2829.2957	1617.3	742.2
1009.5764	2830.4567	1620.7	745.75
1009.6947	2831.617	1627.1	751
1009.813	2832.7767	1634	758.2
1009.9312	2833.9358	1617.05	741.95
1010.0493	2835.0941	1631.8	755.65
1010.1675	2836.2519	1617	739.2
1010.2855	2837.4089	1608.75	732.7
1010.4036	2838.5653	1604	727.6
1010.5216	2839.7211	1600.45	722.85
1010.6396	2840.8761	1597.4	720.3
1010.7575	2842.0306	1589.95	714.7
1010.8754	2843.1843	1590.45	715.05
1010.9932	2844.3374	1586.75	710.3
1011.111	2845.4899	1584.55	709.05
1011.2288	2846.6417	1583.7	709.15
1011.3465	2847.7928	1594.15	716.55
1011.4642	2848.9433	1584.5	710.2
1011.5818	2850.0931	1585.25	710.15
1011.6995	2851.2422	1583.85	705.35
1011.817	2852.3907	1582.1	707.45
1011.9345	2853.5385	1584.5	706.6
1012.052	2854.6857	1588.35	702.6
1012.1695	2855.8323	1586.3	710.7
1012.2869	2856.9781	1587.4	710.9
1012.4042	2858.1233	1588.65	711.95
1012.5216	2859.2679	1578.7	704.95
1012.6389	2860.4118	1593.9	718.4
1012.7561	2861.555	1595.4	714.65
1012.8733	2862.6976	1587.5	707.95
1012.9905	2863.8395	1596.65	721.4
1013.1076	2864.9808	1588.6	712.4
1013.2247	2866.1214	1591.25	716.5
1013.3417	2867.2614	1585.35	708.85
1013.4587	2868.4007	1595.15	716.65
1013.5757	2869.5393	1590.05	712.35
1013.6926	2870.6773	1588.15	708.45
1013.8095	2871.8146	1586.45	706.65
1013.9263	2872.9513	1585.7	706.8
1014.0431	2874.0874	1582.45	706.1
1014.1599	2875.2227	1578.45	702.1
1014.2766	2876.3574	1577.5	702.95
1014.3933	2877.4915	1585.3	707.55
1014.51	2878.6249	1582.95	707.35
1014.6266	2879.7577	1589.95	714.15
1014.7431	2880.8898	1596.45	711.25
1014.8596	2882.0212	1584.15	708.4
1014.9761	2883.152	1582.9	704.3
1015.0925	2884.2821	1578.15	702.5
1015.2089	2885.4116	1576.05	698.3
1015.3253	2886.5405	1579.15	702.4
1015.4416	2887.6686	1576.9	697.5
1015.5579	2888.7962	1575	700.7
1015.6741	2889.923	1574.95	699.55
1015.7903	2891.0493	1567	692.9
1015.9065	2892.1748	1568.25	690
1016.0226	2893.2997	1565.7	689.8
1016.1387	2894.424	1566.2	690.6
1016.2547	2895.5476	1562.05	689
1016.3707	2896.6706	1555.35	679.75
1016.4866	2897.7929	1558.45	680.65
1016.6025	2898.9145	1556.65	679.4
1016.7184	2900.0355	1558.45	681.5
1016.8342	2901.1559	1557.3	681.85
1016.95	2902.2756	1539.8	665.95
1017.0658	2903.3946	1544.4	667.45
1017.1815	2904.513	1547.35	669.35
1017.2971	2905.6308	1549.15	672.5
1017.4127	2906.7479	1530.25	652.8
1017.5283	2907.8643	1535.4	658.35
1017.6439	2908.9801	1529.7	652.75
1017.7594	2910.0953	1533.2	657.3
1017.8748	2911.2098	1527	645.75
1017.9902	2912.3236	1532.35	647.5
1018.1056	2913.4368	1530.95	653.55
1018.2209	2914.5494	1522.5	646.6
1018.3362	2915.6613	1531.2	649.4
1018.4515	2916.7725	1510.5	629.95
1018.5667	2917.8831	1501.8	622.3
1018.6819	2918.9931	1511.35	633.05
1018.797	2920.1024	1501.55	625.15
1018.9121	2921.211	1496.45	620
1019.0271	2922.319	1495.05	616.65
1019.1421	2923.4264	1485.4	611.4
1019.2571	2924.5331	1487.4	613.3
1019.372	2925.6391	1479.55	604.7
1019.4869	2926.7445	1479.75	605.4
1019.6017	2927.8493	1482.4	606.05
1019.7165	2928.9534	1485.8	609.05
1019.8313	2930.0569	1483.6	604.45
1019.946	2931.1597	1485.7	607.45
1020.0606	2932.2619	1488.65	612.75
1020.1753	2933.3634	1480.95	606.4
1020.2899	2934.4643	1484.95	603.8
1020.4044	2935.5645	1488.45	603.8
1020.5189	2936.6641	1478.6	599.05
1020.6334	2937.763	1478	602.65
1020.7478	2938.8613	1471.4	594.85
1020.8622	2939.959	1475.1	593.3
1020.9765	2941.056	1462.35	587.9
1021.0908	2942.1523	1451.6	575.4
1021.2051	2943.248	1448.3	571.05
1021.3193	2944.3431	1432.75	557.65
1021.4334	2945.4375	1428.8	554.9
1021.5476	2946.5313	1409.35	534.25
1021.6617	2947.6244	1411.3	534.75
1021.7757	2948.7169	1407.65	531.95
1021.8897	2949.8087	1390.3	513.5
1022.0037	2950.8999	1374.45	497.5
1022.1176	2951.9904	1365.1	487.95
1022.2315	2953.0803	1357.7	480.95
1022.3453	2954.1696	1357.55	482.5
1022.4591	2955.2582	1350.3	475.75
1022.5728	2956.3462	1345.4	469.55
1022.6865	2957.4335	1342.75	464.35
1022.8002	2958.5202	1340.4	462.6
1022.9138	2959.6062	1337.65	461.05
1023.0274	2960.6916	1339.75	463.15
1023.141	2961.7764	1331.2	454.25
1023.2545	2962.8605	1333.75	456.3
1023.3679	2963.9439	1330.3	454.65
1023.4813	2965.0267	1330.85	451.65
1023.5947	2966.1089	1342.45	444.8
1023.708	2967.1905	1322.35	446.6
1023.8213	2968.2714	1317.45	441.1
1023.9346	2969.3516	1317.8	441.05
1024.0478	2970.4312	1324.25	441.15
1024.1609	2971.5102	1320.75	445.15
1024.274	2972.5885	1310.25	436.15
1024.3871	2973.6662	1318.4	437.15
1024.5002	2974.7432	1313.2	438.7
1024.6132	2975.8196	1316.15	440
1024.7261	2976.8954	1314.35	439.2
1024.839	2977.9705	1299.6	424.5
1024.9519	2979.045	1308.15	432.7
1025.0647	2980.1188	1301.3	425.15
1025.1775	2981.192	1296.3	421.55
1025.2902	2982.2645	1296.1	420
1025.4029	2983.3364	1292.5	414.8
1025.5156	2984.4077	1281.95	406
1025.6282	2985.4783	1283.1	399
1025.7407	2986.5483	1275.75	399.4
1025.8532	2987.6177	1275.4	400.65
1025.9657	2988.6864	1264.6	387.05
1026.0782	2989.7545	1267.65	391.05
1026.1906	2990.8219	1269.3	395.35
1026.3029	2991.8887	1260.25	382.85
1026.4152	2992.9548	1258.1	380.55
1026.5275	2994.0204	1251.3	376.7
1026.6397	2995.0852	1242.35	369.4
1026.7519	2996.1495	1251.05	375.1
1026.864	2997.2131	1233.85	359.6
1026.9761	2998.276	1235	360.6
1027.0882	2999.3383	1231.2	354.7
1027.2002	3000.4	1235.4	359.9
1027.3122	3001.4611	1226.95	349.05
1027.4241	3002.5215	1224.35	348.6
1027.536	3003.5812	1219.15	343
1027.6478	3004.6404	1218.45	343.3
1027.7596	3005.6989	1217.2	338.65
1027.8714	3006.7567	1216.4	339.9
1027.9831	3007.8139	1232.8	334.95
1028.0947	3008.8705	1207.85	331.2
1028.2064	3009.9264	1209.7	329.3
1028.3179	3010.9818	1203.45	327.05
1028.4295	3012.0364	1210.3	332.4
1028.541	3013.0905	1200.3	322.85
1028.6524	3014.1439	1201.5	325.35
1028.7638	3015.1966	1201.2	326
1028.8752	3016.2487	1192.25	314.4
1028.9865	3017.3002	1202.9	322.4
1029.0978	3018.3511	1188.65	315.25
1029.209	3019.4013	1190.7	315.4
1029.3202	3020.4509	1197.7	322.6
1029.4314	3021.4998	1191.75	315.7
1029.5425	3022.5481	1189.2	312.8
1029.6535	3023.5958	1187.05	311.2
1029.7645	3024.6428	1185.95	309.8
1029.8755	3025.6892	1179.15	305.1
1029.9864	3026.735	1183.15	306.45
1030.0973	3027.7802	1183.35	307.05
1030.2082	3028.8247	1185.4	310
1030.319	3029.8685	1176.7	300.8
1030.4297	3030.9118	1176.85	299.65
1030.5404	3031.9544	1171.15	294.9
1030.6511	3032.9963	1171	295.5
1030.7617	3034.0376	1173.9	298.5
1030.8723	3035.0783	1175.05	297.6
1030.9829	3036.1184	1175	298.5
1031.0934	3037.1578	1166.15	290.9
1031.2038	3038.1966	1170.1	293.8
1031.3142	3039.2348	1163.4	287.15
1031.4246	3040.2723	1170.7	285.35
1031.5349	3041.3092	1170.3	296.3
1031.6452	3042.3455	1164.4	287.85
1031.7554	3043.3811	1165.75	289.4
1031.8656	3044.4161	1162.65	287.9
1031.9758	3045.4505	1160.75	285.8
1032.0859	3046.4842	1162.25	286.05
1032.1959	3047.5173	1154	277.8
1032.3059	3048.5498	1156.8	281.2
1032.4159	3049.5816	1165.7	288.85
1032.5258	3050.6128	1156.05	279.15
1032.6357	3051.6434	1156	279.45
1032.7455	3052.6734	1155.95	279.65
1032.8553	3053.7027	1154.4	276.95
1032.9651	3054.7314	1149.85	275.9
1033.0748	3055.7594	1150.25	275.5
1033.1845	3056.7868	1152.3	276.85
1033.2941	3057.8136	1151.6	276.85
1033.4037	3058.8398	1143.4	268.2
1033.5132	3059.8653	1147.8	271.6
1033.6227	3060.8902	1147.45	270
1033.7321	3061.9145	1148.1	271.4
1033.8415	3062.9381	1147.65	271.95
1033.9509	3063.9612	1164.3	273.95
1034.0602	3064.9835	1143.75	269.7
1034.1694	3066.0053	1144.5	266
1034.2787	3067.0264	1144.25	269.2
1034.3878	3068.0469	1141.85	265.55
1034.497	3069.0668	1142.9	265.95
1034.6061	3070.086	1141.65	265.45
1034.7151	3071.1046	1138.3	261.3
1034.8241	3072.1226	1137.8	262.15
1034.9331	3073.1399	1134.85	259.1
1035.042	3074.1567	1131.9	255.35
1035.1508	3075.1727	1132.85	256.4
1035.2597	3076.1882	1126.3	250.55
1035.3684	3077.203	1124.4	246.55
1035.4772	3078.2173	1126.35	249.15
1035.5859	3079.2308	1125.75	247.45
1035.6945	3080.2438	1128.7	250.65
1035.8031	3081.2561	1120.65	245.2
1035.9117	3082.2678	1118.3	242.4
1036.0202	3083.2789	1121.25	244.3
1036.1286	3084.2893	1116.65	240.15
1036.2371	3085.2991	1120.6	243.55
1036.3454	3086.3083	1121.95	242.75
1036.4538	3087.3169	1114.35	236.1
1036.562	3088.3248	1114.35	237.35
1036.6703	3089.3321	1117.35	238.9
1036.7785	3090.3388	1114.5	239.9
1036.8866	3091.3449	1107.55	230.15
1036.9948	3092.3503	1113.55	235.45
1037.1028	3093.3551	1103.8	229.1
1037.2108	3094.3593	1106.25	230.45
1037.3188	3095.3629	1106.65	231.75
1037.4267	3096.3658	1106.55	229.4
1037.5346	3097.3681	1104.95	227.95
1037.6425	3098.3698	1100.3	225.2
1037.7503	3099.3708	1104.7	222
1037.858	3100.3713	1098.8	222.2
1037.9657	3101.3711	1099.6	222.2
1038.0734	3102.3702	1233.75	221.3
1038.181	3103.3688	1099.75	224.75
1038.2886	3104.3667	1087.85	213.8
1038.3961	3105.364	1091.1	215.8
1038.5036	3106.3607	1093.05	216.4
1038.611	3107.3568	1088.15	209.8
1038.7184	3108.3522	1089.55	215.35
1038.8257	3109.347	1083.35	206.7
1038.933	3110.3412	1090	212.6
1039.0403	3111.3348	1088	213.7
1039.1475	3112.3277	1083.4	206.9
1039.2547	3113.32	1080	206.3
1039.3618	3114.3117	1084.05	208.6
1039.4689	3115.3028	1075.1	199.25
1039.5759	3116.2932	1080.1	202.95
1039.6829	3117.2831	1077	195.85
1039.7898	3118.2723	1075.05	199.95
1039.8967	3119.2608	1071.65	195.2
1040.0035	3120.2488	1068.15	193.9
1040.1103	3121.2361	1078.8	204.3
1040.2171	3122.2229	1067.6	191.45
1040.3238	3123.209	1070.15	193.5
1040.4305	3124.1944	1067.5	192.45
1040.5371	3125.1793	1068.95	189.9
1040.6437	3126.1635	1066.1	190.65
1040.7502	3127.1471	1063.3	187.55
1040.8567	3128.1301	1061.25	186.05
1040.9631	3129.1125	1063.3	188.3
1041.0695	3130.0942	1061.55	184.4
1041.1759	3131.0753	1069.55	185
1041.2822	3132.0558	1068.1	189.3
1041.3884	3133.0357	1059.95	183.5
1041.4946	3134.015	1058.25	181.8
1041.6008	3134.9936	1059.05	181.75
1041.7069	3135.9716	1080.8	183.4
1041.813	3136.949	1058.85	184.35
1041.919	3137.9258	1062	181.1
1042.025	3138.902	1061.75	180.8
1042.1309	3139.8775	1052.8	176.85
1042.2368	3140.8524	1052.9	177.35
1042.3427	3141.8267	1050	173.3
1042.4485	3142.8004	1055.25	178.7
1042.5542	3143.7735	1058.2	175.3
1042.6599	3144.7459	1051	173.35
1042.7656	3145.7178	1048.2	170.55
1042.8712	3146.689	1046.75	171.05
1042.9768	3147.6596	1048.35	171.95
1043.0823	3148.6295	1045.75	170.65
1043.1878	3149.5989	1045.95	169.25
1043.2932	3150.5676	1045	168.6
1043.3986	3151.5357	1043.9	168.7
1043.5039	3152.5032	1042.25	166.2
1043.6092	3153.4701	1042.55	167.3
1043.7145	3154.4364	1044.15	167.3
1043.8197	3155.402	1041.8	167.5
1043.9248	3156.367	1043.15	165.4
1044.03	3157.3315	1075.75	162.1
1044.135	3158.2952	1037.85	162.3
1044.24	3159.2584	1038	163.4
1044.345	3160.221	1032.75	155.35
1044.4499	3161.1829	1032.85	156.85
1044.5548	3162.1442	1034.25	157.5
1044.6596	3163.105	1032.5	156.35
1044.7644	3164.065	1031.5	155.95
1044.8692	3165.0245	1038.6	160.1
1044.9739	3165.9834	1028.85	154.45
1045.0785	3166.9416	1028.45	153
1045.1831	3167.8993	1031.3	153.9
1045.2877	3168.8563	1029.2	152.65
1045.3922	3169.8127	1025.75	151.25
1045.4966	3170.7684	1031.05	155.55
1045.6011	3171.7236	1027.5	149.15
1045.7054	3172.6782	1027.8	152.2
1045.8098	3173.6321	1024.9	149.2
1045.914	3174.5854	1027.9	148.8
1046.0183	3175.5381	1018.8	144.4
1046.1224	3176.4902	1020.3	145.55
1046.2266	3177.4417	1016.4	141.1
1046.3307	3178.3926	1021.55	147.6
1046.4347	3179.3428	1018.7	144.8
1046.5387	3180.2924	1022.75	146.9
1046.6427	3181.2415	1017	140
1046.7466	3182.1899	1017.9	139.6
1046.8504	3183.1377	1019.75	143.7
1046.9542	3184.0848	1017.85	138.1
1047.058	3185.0314	1014.5	137.2
1047.1617	3185.9773	1014.3	138.75
1047.2654	3186.9227	1015.75	140.1
1047.369	3187.8674	1013.9	138.5
1047.4726	3188.8115	1019.25	139.55
1047.5761	3189.755	1008.45	130.3
1047.6796	3190.6979	1006.5	129.55
1047.783	3191.6402	1005.9	131.55
1047.8864	3192.5818	1008.7	134.55
1047.9898	3193.5229	1013.55	131.6
1048.0931	3194.4633	1009.6	133.8
1048.1963	3195.4031	1007.2	130.45
1048.2995	3196.3423	1006.9	129.75
1048.4027	3197.2809	1005.95	130.85
1048.5058	3198.2189	1006.65	130.85
1048.6089	3199.1563	1007.7	126.45
1048.7119	3200.0931	1004.4	129.9
1048.8148	3201.0292	1004.75	128.35
1048.9178	3201.9648	1001.65	123.95
1049.0206	3202.8997	1005.45	126.3
1049.1235	3203.834	998.4	122.15
1049.2262	3204.7677	1000.45	124.25
1049.329	3205.7008	1002.1	123.95
1049.4317	3206.6333	998.15	123.6
1049.5343	3207.5652	998.9	120.85
1049.6369	3208.4964	998.5	122.4
1049.7394	3209.4271	997.6	123.65
1049.8419	3210.3571	993.85	118.9
1049.9444	3211.2865	996.35	119.55
1050.0468	3212.2154	996.85	119
1050.1491	3213.1436	1000.6	121.8
1050.2514	3214.0712	1002.7	117.5
1050.3537	3214.9982	997.35	120.75
1050.4559	3215.9246	992.25	112.75
1050.5581	3216.8503	991.5	116.9
1050.6602	3217.7755	994.9	119.35
1050.7623	3218.7001	990.8	115.15
1050.8643	3219.624	990.75	115.9
1050.9663	3220.5473	990.9	114
1051.0682	3221.4701	992.25	115.4
1051.1701	3222.3922	986.7	108.55
1051.2719	3223.3137	985.55	109.95
1051.3737	3224.2346	988.75	112.3
1051.4754	3225.1549	985.7	110.85
1051.5771	3226.0746	985.65	110.7
1051.6788	3226.9937	987.85	111.3
1051.7804	3227.9121	985.45	110.3
1051.8819	3228.83	981.7	104.95
1051.9834	3229.7473	981.3	105.95
1052.0849	3230.6639	983.6	109.9
1052.1863	3231.5799	979.35	102.2
1052.2876	3232.4954	981.2	105
1052.3889	3233.4102	979.55	103.4
1052.4902	3234.3244	984.3	108.15
1052.5914	3235.238	982	106.3
1052.6926	3236.151	1008.15	109.3
1052.7937	3237.0634	977.55	103.75
1052.8948	3237.9752	976.2	99.95
1052.9958	3238.8864	976.55	101.05
1053.0968	3239.797	976.25	99.9
1053.1977	3240.7069	974.7	97.65
1053.2986	3241.6163	974.35	97.1
1053.3994	3242.5251	976.35	101.9
1053.5002	3243.4332	972.9	96.8
1053.6009	3244.3408	974.4	97.55
1053.7016	3245.2477	978.05	104.5
1053.8022	3246.154	973.25	95.7
1053.9028	3247.0598	973.6	97.75
1054.0034	3247.9649	971.3	94.85
1054.1039	3248.8694	972.3	95.95
1054.2043	3249.7733	969.7	96.3
1054.3047	3250.6766	967.9	92.45
1054.4051	3251.5793	973.35	96.9
1054.5054	3252.4814	967.55	91.25
1054.6056	3253.3829	965.95	89.55
1054.7058	3254.2838	970.45	94.65
1054.806	3255.1841	965.85	89.65
1054.9061	3256.0838	963.05	87.8
1055.0061	3256.9829	960.95	86.15
1055.1062	3257.8814	964.75	86.25
1055.2061	3258.7792	969.4	92.4
1055.306	3259.6765	966.55	90.2
1055.4059	3260.5731	963.7	87.7
1055.5057	3261.4692	961.5	85.55
1055.6055	3262.3647	961.8	84.3
1055.7052	3263.2595	957.2	82.05
1055.8049	3264.1538	956.05	80.3
1055.9045	3265.0474	958.05	80.8
1056.0041	3265.9404	956.85	82.5
1056.1036	3266.8329	950.9	73.95
1056.2031	3267.7247	957.6	70.85
1056.3025	3268.616	949.9	76.15
1056.4019	3269.5066	947.25	72.55
1056.5013	3270.3966	947.95	71.7
1056.6005	3271.286	944.25	68.25
