Software Version:	3.9.2.0
Unit SN:	10000200
Spectrometer SN:	6960
Date:	3/6/2024 9:33:59 AM
Data Line Index:	25
Spectral Points:	2048
Integration time (ms):	125
Averages:	20
Delay (ms):	30
Sequence Number:	1
Processing:	dark subtract
Laser Power (mW):	300
Laser Current (mA):	825
Laser Diode Temp (C):	25.1
Laser Case Temp (C):	23.7
System Temp (C):	23.5
Spectrometer Temp (C):	21.1
CCD Temp (C):	-0.032
Secondary Temp (C):	20.008
Heatsink Temp (C):	17.815
CCDPCB Temp (C):	30.104
SecondaryPCB Temp (C):	25.491

Wavelength	RamanShift	Raw Counts	Dark Subtracted
787.061	30.1047	509.8	102.25
787.2016	32.3739	511.35	103.8
787.3422	34.6426	518.5	111.4
787.4828	36.9109	526.4	116.05
787.6235	39.1787	535.35	121.95
787.7642	41.4461	548.3	130.85
787.9049	43.7131	558.4	139.55
788.0456	45.9796	572.1	150.7
788.1863	48.2456	583.2	157.5
788.3271	50.5112	596.45	165.6
788.4679	52.7764	600.85	167.65
788.6087	55.0411	620.2	182.45
788.7496	57.3054	639.3	195.05
788.8904	59.5692	651.6	206.65
789.0313	61.8326	667.2	219.3
789.1722	64.0955	690.45	241.3
789.3132	66.3579	709.95	254.3
789.4541	68.6199	736	278
789.5951	70.8815	788.8	326.25
789.7361	73.1426	886.1	420.9
789.8771	75.4032	1149.1	680.65
790.0181	77.6634	1791.15	1317.25
790.1592	79.9231	3324.95	2850.2
790.3003	82.1824	6664.8	6185.65
790.4414	84.4412	12507.1	12020.35
790.5825	86.6995	20480.55	19986.2
790.7237	88.9574	28211.95	27713.2
790.8648	91.2148	33631.55	33123.85
791.006	93.4717	36549.25	36038.35
791.1472	95.7282	37780.7	37270.3
791.2885	97.9842	38433.4	37920.5
791.4297	100.2398	38645.25	38128.4
791.571	102.4949	38783.1	38264.3
791.7123	104.7495	38843.75	38319.75
791.8536	107.0036	38831.15	38307.9
791.9949	109.2573	39001.95	38480.2
792.1363	111.5105	39002.75	38476.75
792.2777	113.7632	39005.45	38479.65
792.4191	116.0154	39111.5	38573.1
792.5605	118.2672	39343.45	38812.45
792.7019	120.5185	39331.25	38799.65
792.8434	122.7693	39442.2	38905.7
792.9849	125.0197	39585.3	39044.3
793.1264	127.2696	39650	39104.35
793.2679	129.519	39827	39282
793.4094	131.7679	39969.4	39418.9
793.551	134.0163	39879	39326.85
793.6926	136.2642	40004.4	39450.4
793.8342	138.5117	40139	39580.6
793.9758	140.7587	40134.35	39576.2
794.1175	143.0052	40223.95	39660.5
794.2591	145.2512	40158.25	39594.25
794.4008	147.4967	40235.65	39670.35
794.5425	149.7417	40191.5	39622
794.6842	151.9863	40224.95	39652.4
794.826	154.2304	40227.15	39651.9
794.9677	156.4739	40211.9	39628.6
795.1095	158.717	40350.6	39770.15
795.2513	160.9596	40386.9	39801.85
795.3931	163.2017	40395.1	39807
795.535	165.4433	40425.75	39833.85
795.6768	167.6844	40429.45	39835.9
795.8187	169.925	40446.1	39848.6
795.9606	172.1651	40401.85	39802.9
796.1025	174.4047	40470.2	39867.55
796.2445	176.6439	40452.4	39846.65
796.3864	178.8825	40499.6	39890.85
796.5284	181.1206	40609.85	39997.8
796.6704	183.3582	40663	40047.5
796.8124	185.5954	40628.75	40014.05
796.9544	187.832	40735.55	40113.65
797.0965	190.0681	40811.55	40186.15
797.2386	192.3037	40932.7	40305.9
797.3806	194.5388	41052	40422.05
797.5228	196.7734	41028.25	40396.25
797.6649	199.0075	41184.9	40550.65
797.807	201.2411	41446.55	40811.5
797.9492	203.4742	41551.55	40915.85
798.0914	205.7068	41727.3	41088.5
798.2336	207.9389	41727	41085.15
798.3758	210.1704	41802.95	41164.3
798.518	212.4015	41831.05	41202.6
798.6603	214.632	41865.1	41246.2
798.8025	216.862	42008.05	41389.45
798.9448	219.0915	41998	41377.05
799.0871	221.3205	42062.95	41439.55
799.2294	223.549	42232.25	41614.55
799.3718	225.777	42304.25	41685.25
799.5141	228.0044	42362.4	41734.95
799.6565	230.2314	42499.8	41870.65
799.7989	232.4578	42477.85	41847
799.9413	234.6837	42568.45	41926.45
800.0837	236.909	42709.15	42067.75
800.2262	239.1339	42601.95	41934.35
800.3687	241.3582	42735.3	42082.15
800.5111	243.582	42744	42058.5
800.6536	245.8053	42818.75	42148
800.7961	248.0281	42829.85	42164.05
800.9387	250.2503	42906.6	42237.6
801.0812	252.472	42867.65	42195.2
801.2238	254.6932	43031.65	42363.15
801.3664	256.9139	42942.95	42269.05
801.509	259.134	43036.3	42359
801.6516	261.3536	42928.25	42253.95
801.7942	263.5727	43146.45	42470.85
801.9369	265.7912	43106.6	42428
802.0795	268.0092	43218.85	42543.05
802.2222	270.2267	43262.4	42586.05
802.3649	272.4436	43341.15	42662.15
802.5076	274.6601	43381.7	42687.85
802.6504	276.8759	43343.95	42656.3
802.7931	279.0913	43434.95	42749.15
802.9359	281.3061	43436.3	42749.1
803.0787	283.5204	43542.8	42851.9
803.2215	285.7341	43623.2	42928.75
803.3643	287.9473	43711.6	43008.1
803.5071	290.16	43666.05	42969.5
803.6499	292.3721	43760.5	43068.3
803.7928	294.5837	43541.8	42849.85
803.9357	296.7947	43501.4	42807.35
804.0786	299.0052	43538.4	42845.4
804.2215	301.2152	43441.35	42741.65
804.3644	303.4246	43587.55	42894.55
804.5074	305.6334	43521.75	42827.55
804.6503	307.8418	43512.45	42813.85
804.7933	310.0495	43489.2	42789.1
804.9363	312.2568	43528.35	42827.1
805.0793	314.4635	43342.55	42638.25
805.2223	316.6696	43309	42603.85
805.3653	318.8752	43255.05	42539.65
805.5084	321.0802	43113.1	42405.1
805.6514	323.2847	43186.35	42478.15
805.7945	325.4887	43134.95	42427.15
805.9376	327.692	43130	42418.1
806.0807	329.8949	43226.5	42515.85
806.2238	332.0972	43263.3	42549.65
806.367	334.2989	43301.35	42584.1
806.5101	336.5001	43293.25	42576.65
806.6533	338.7007	43308.45	42588.3
806.7965	340.9008	43338.5	42616.25
806.9397	343.1003	43263	42540.9
807.0829	345.2992	43270.2	42546.95
807.2261	347.4976	43228.25	42503.75
807.3693	349.6955	43156.05	42427.15
807.5126	351.8927	43294.25	42564.6
807.6559	354.0895	43173.5	42432.2
807.7991	356.2856	43221.15	42490.3
807.9424	358.4812	43167.4	42434.25
808.0857	360.6763	43235.05	42501.45
808.2291	362.8707	43100.8	42364.05
808.3724	365.0646	43263.4	42523.5
808.5158	367.258	43140.65	42401.15
808.6591	369.4508	43097.4	42354.1
808.8025	371.643	43135.75	42391.35
808.9459	373.8346	43032.7	42285.8
809.0893	376.0257	43062.1	42312
809.2327	378.2162	42954.8	42207.75
809.3762	380.4062	43026	42276.15
809.5196	382.5956	42912.55	42165.2
809.6631	384.7844	42873.2	42128.15
809.8066	386.9726	42766.35	42024.35
809.9501	389.1603	42685	41948.95
810.0936	391.3474	42697.25	41909.35
810.2371	393.5339	42771.75	42027.85
810.3806	395.7199	42538.65	41796.5
810.5241	397.9052	42561.95	41822.6
810.6677	400.09	42539.9	41798.25
810.8113	402.2743	42568.85	41822.5
810.9548	404.4579	42542.25	41797.1
811.0984	406.641	42633.1	41885.95
811.2421	408.8235	42678.25	41930.5
811.3857	411.0054	42720.9	41970.4
811.5293	413.1868	42877.95	42122.85
811.673	415.3675	42721.25	41962.2
811.8166	417.5477	42773.6	42016.05
811.9603	419.7273	42722.05	41958.65
812.104	421.9064	42522.2	41753.85
812.2477	424.0848	42401.6	41636.6
812.3914	426.2627	42276.95	41510.75
812.5351	428.4399	42191.55	41427.05
812.6788	430.6166	42134.2	41367.6
812.8226	432.7928	41987.7	41215.1
812.9663	434.9683	41916.35	41144.65
813.1101	437.1432	41822.05	41050.4
813.2539	439.3176	41656.4	40886.7
813.3977	441.4914	41573.25	40802.65
813.5415	443.6645	41600.85	40827.1
813.6853	445.8371	41357.55	40585.7
813.8291	448.0091	41263.15	40489.8
813.973	450.1806	41162.9	40388.35
814.1168	452.3514	40989.95	40211.1
814.2607	454.5216	41073.05	40286.55
814.4046	456.6913	40860.45	40080.7
814.5485	458.8603	40873.55	40095.45
814.6924	461.0288	40879.1	40100.9
814.8363	463.1967	40819.15	40041.7
814.9802	465.3639	40845.6	40068.2
815.1241	467.5306	40781.55	40001.55
815.2681	469.6967	40639.9	39861.7
815.412	471.8622	40518.35	39739.4
815.556	474.0271	40516.65	39736.7
815.7	476.1914	40490.1	39706.55
815.844	478.3551	40484.25	39702.65
815.988	480.5182	40556.95	39775.55
816.132	482.6807	40549.4	39765.35
816.276	484.8426	40538.05	39756.85
816.4201	487.0039	40619.85	39835.6
816.5641	489.1647	40695	39908.45
816.7082	491.3248	40714.5	39929.8
816.8522	493.4843	40671.15	39886.05
816.9963	495.6432	40648.8	39862.05
817.1404	497.8015	40514.55	39723.9
817.2845	499.9592	40563.95	39775.75
817.4286	502.1163	40480.2	39690.9
817.5727	504.2728	40340.25	39547.95
817.7168	506.4287	40431.25	39643.6
817.861	508.5839	40229.3	39439.3
818.0051	510.7386	40243.45	39452.6
818.1493	512.8927	40253.05	39451.9
818.2935	515.0461	40300.8	39506.95
818.4377	517.199	40250.3	39456.15
818.5818	519.3512	40205.45	39410.8
818.726	521.5029	40256.55	39452.8
818.8703	523.6539	40213.7	39417.05
819.0145	525.8043	40204.85	39406.9
819.1587	527.9541	40141.35	39343.25
819.303	530.1033	39990.35	39192.25
819.4472	532.2519	39914.45	39115.6
819.5915	534.3999	39906.85	39106.05
819.7357	536.5472	39834.05	39033.5
819.88	538.694	39827.25	39027.85
820.0243	540.8401	39832.7	39030.05
820.1686	542.9856	39881.7	39077.4
820.3129	545.1305	39770.75	38966.35
820.4572	547.2748	39879.35	39074.2
820.6016	549.4185	39837.05	39031.55
820.7459	551.5615	39743.95	38936.05
820.8902	553.704	39774.35	38969.3
821.0346	555.8458	39685.95	38880.75
821.1789	557.987	39729.9	38925.6
821.3233	560.1276	39697.75	38891.4
821.4677	562.2675	39747.8	38943.95
821.6121	564.4069	39700.95	38895.25
821.7565	566.5456	39632.3	38828.05
821.9009	568.6837	39623.6	38817.95
822.0453	570.8212	39423.65	38620.15
822.1897	572.958	39349.5	38542.1
822.3342	575.0942	39257.3	38451.1
822.4786	577.2299	39069.1	38261.75
822.6231	579.3648	38929.55	38121.2
822.7675	581.4992	38779.45	37970.8
822.912	583.6329	38697.1	37889.6
823.0565	585.766	38662.8	37854.4
823.201	587.8985	38564.7	37756.45
823.3454	590.0304	38516.15	37693.5
823.4899	592.1616	38508	37693.75
823.6345	594.2922	38431.9	37619.3
823.779	596.4222	38290.85	37477.35
823.9235	598.5515	38201.95	37386.4
824.068	600.6802	38056.4	37242.25
824.2126	602.8083	37881.8	37067.7
824.3571	604.9358	37922.95	37106.25
824.5017	607.0626	37809.35	36993.45
824.6462	609.1888	37718.8	36902.55
824.7908	611.3144	37701.7	36886.5
824.9354	613.4393	37620.2	36802.7
825.08	615.5636	37595.7	36779.7
825.2246	617.6873	37620.5	36803.95
825.3692	619.8103	37651.65	36832.7
825.5138	621.9327	37623.4	36804.45
825.6584	624.0544	37563.3	36743.7
825.803	626.1756	37491.3	36672.7
825.9477	628.2961	37438.55	36617.7
826.0923	630.4159	37325.1	36504.3
826.237	632.5351	37322.2	36499.25
826.3816	634.6537	37242.15	36419.4
826.5263	636.7716	37177.55	36351.05
826.6709	638.8889	37185.15	36360.6
826.8156	641.0056	37231.9	36407.3
826.9603	643.1216	37165.95	36341.7
827.105	645.237	37173.3	36349
827.2497	647.3518	37112.9	36289.75
827.3944	649.4659	37062.75	36238.4
827.5391	651.5793	36933.05	36108.3
827.6838	653.6922	36862.65	36039.8
827.8285	655.8043	36800.95	35977.05
827.9733	657.9159	36809.15	35984.25
828.118	660.0268	36692.3	35861.85
828.2627	662.137	36611.15	35783.85
828.4075	664.2466	36650.7	35820.85
828.5522	666.3556	36610.8	35784.15
828.697	668.4639	36466.1	35636.5
828.8418	670.5716	36475.4	35648.1
828.9865	672.6786	36453.6	35623.6
829.1313	674.785	36337.85	35508
829.2761	676.8907	36251.6	35421.3
829.4209	678.9958	36201.8	35371.7
829.5657	681.1002	36089.55	35260.2
829.7105	683.204	36064.15	35229.85
829.8553	685.3072	36016	35183.3
830.0001	687.4097	35928.35	35095.65
830.1449	689.5115	35917.25	35081.65
830.2898	691.6127	35885.75	35053.6
830.4346	693.7132	35784.5	34949.95
830.5794	695.8131	35853.4	34995.85
830.7243	697.9123	35839.8	35004.7
830.8691	700.0109	35752.7	34915.8
831.014	702.1089	35730.75	34896.2
831.1588	704.2061	35622.65	34788.2
831.3037	706.3028	35685.05	34848.95
831.4486	708.3987	35634.3	34799.3
831.5935	710.4941	35538.7	34701.15
831.7383	712.5887	35552.4	34716.05
831.8832	714.6827	35526.1	34684.1
832.0281	716.7761	35496.4	34660.5
832.173	718.8688	35454.65	34614.25
832.3179	720.9608	35372.9	34531.85
832.4628	723.0522	35404.65	34562.9
832.6077	725.1429	35276.7	34437.2
832.7527	727.233	35296.05	34457.05
832.8976	729.3224	35329.85	34490.95
833.0425	731.4112	35227.55	34385.95
833.1874	733.4993	35183.25	34340.1
833.3324	735.5867	35067.2	34226.75
833.4773	737.6735	34960.65	34120.2
833.6222	739.7596	34846.3	34005.45
833.7672	741.845	34784.8	33942.35
833.9122	743.9298	34675.3	33830.1
834.0571	746.014	34615.05	33774.9
834.2021	748.0974	34595.7	33753.3
834.347	750.1802	34487.55	33644.55
834.492	752.2624	34417.4	33574.75
834.637	754.3439	34248.35	33404.15
834.782	756.4247	34182.75	33330.9
834.9269	758.5048	34060.5	33217.15
835.0719	760.5843	33963.35	33119.35
835.2169	762.6631	33976.3	33131.3
835.3619	764.7413	33913.3	33069.55
835.5069	766.8188	33954.8	33108.85
835.6519	768.8956	33857.3	33008.2
835.7969	770.9718	33912.05	33065.6
835.9419	773.0473	33764.1	32918.8
836.0869	775.1221	33699.7	32854
836.232	777.1962	33553.6	32708.45
836.377	779.2697	33517.6	32671.6
836.522	781.3426	33520.3	32656.4
836.667	783.4147	33477.8	32632
836.8121	785.4862	33482.1	32637.35
836.9571	787.557	33339.05	32492.75
837.1021	789.6271	33229.95	32382
837.2472	791.6966	33103.05	32255.95
837.3922	793.7654	32916.5	32066.4
837.5373	795.8335	32889.8	32041.5
837.6823	797.901	32754.4	31906.1
837.8274	799.9678	32681.15	31831.1
837.9724	802.0339	32572.75	31723.15
838.1175	804.0993	32607.85	31748.6
838.2626	806.1641	32498.95	31649.35
838.4076	808.2282	32423.85	31576.55
838.5527	810.2916	32418.65	31567
838.6978	812.3544	32341.05	31493.35
838.8428	814.4164	32208.95	31360.8
838.9879	816.4778	32309.45	31457.7
839.133	818.5385	32139.9	31291
839.2781	820.5986	32198.05	31347.05
839.4232	822.658	32241.05	31388.7
839.5682	824.7166	32100.85	31250.15
839.7133	826.7747	32270	31419.4
839.8584	828.832	32237.75	31386.8
840.0035	830.8886	32138.5	31286.25
840.1486	832.9446	32094.9	31240.5
840.2937	834.9999	32014.9	31162.95
840.4388	837.0545	31931.75	31071.65
840.5839	839.1085	31820.95	30965.55
840.729	841.1618	31774.85	30916.95
840.8741	843.2143	31577.9	30725.35
841.0192	845.2662	31470.05	30617.4
841.1643	847.3175	31490.45	30639.4
841.3095	849.368	31356.2	30503.5
841.4546	851.4179	31347.9	30494.45
841.5997	853.467	31157.15	30302.55
841.7448	855.5155	31136.05	30280.45
841.8899	857.5633	31095.7	30241.45
842.0351	859.6105	31008.25	30154.15
842.1802	861.6569	30969.6	30115.8
842.3253	863.7027	30904.55	30048.5
842.4704	865.7478	30858.9	30002.4
842.6156	867.7922	30827.55	29973.9
842.7607	869.8359	30762.8	29908.3
842.9058	871.8789	30729.35	29871.45
843.0509	873.9212	30709.6	29820.3
843.1961	875.9629	30572.05	29716.6
843.3412	878.0039	30597.35	29740.3
843.4863	880.0441	30529.5	29677.65
843.6315	882.0837	30546.05	29687.75
843.7766	884.1226	30544.45	29686.35
843.9218	886.1609	30532.8	29678.5
844.0669	888.1984	30547	29690.3
844.212	890.2352	30594.15	29737.3
844.3572	892.2714	30542.45	29682.05
844.5023	894.3069	30521.4	29664.95
844.6475	896.3416	30369.05	29509.55
844.7926	898.3757	30299.65	29441.2
844.9377	900.4091	30243.8	29385
845.0829	902.4418	30154.3	29291.9
845.228	904.4739	30052	29191.65
845.3732	906.5052	30055.95	29195.55
845.5183	908.5358	30018.7	29161.5
845.6635	910.5658	29971.05	29110.3
845.8086	912.595	29864.25	29007.75
845.9538	914.6236	29724.65	28865.45
846.0989	916.6515	29736.45	28879.7
846.2441	918.6786	29612.45	28749.3
846.3892	920.7051	29604.35	28741.2
846.5344	922.7309	29644.9	28785.7
846.6795	924.756	29451.75	28590.25
846.8246	926.7804	29493.05	28630.1
846.9698	928.8041	29251.45	28390.35
847.1149	930.8272	29309.35	28447.7
847.2601	932.8495	29165.3	28302.95
847.4052	934.8711	29115.45	28252.35
847.5504	936.892	28990.3	28128.25
847.6955	938.9123	28964.7	28100.35
847.8407	940.9318	28894.8	28034.4
847.9858	942.9506	28797.95	27936.25
848.131	944.9688	28719.8	27856.55
848.2761	946.9862	28640.3	27777.8
848.4213	949.003	28474.35	27611.25
848.5664	951.019	28394.8	27532.1
848.7115	953.0344	28335.55	27475.7
848.8567	955.0491	28303.3	27438.55
849.0018	957.063	28263.6	27398.35
849.147	959.0763	28252.2	27390.8
849.2921	961.0888	28120.9	27254.55
849.4373	963.1007	28170.2	27308.15
849.5824	965.1119	28117.3	27254.85
849.7275	967.1223	28058.95	27194
849.8727	969.1321	28014.7	27152.2
850.0178	971.1412	27958.05	27095.05
850.1629	973.1495	27866.95	27003.1
850.3081	975.1572	27851.9	26942.3
850.4532	977.1641	27852.4	26989.8
850.5983	979.1704	27725.5	26860.15
850.7435	981.1759	27658.15	26790.35
850.8886	983.1808	27627.7	26760.75
851.0337	985.1849	27527.8	26660.3
851.1788	987.1884	27436.75	26569.25
851.324	989.1911	27408.15	26542.25
851.4691	991.1932	27378.6	26510.1
851.6142	993.1945	27239.75	26375.95
851.7593	995.1951	27133.75	26268.9
851.9045	997.1951	27114.7	26243.05
852.0496	999.1943	26967.2	26103.2
852.1947	1001.1928	26882.7	26015.75
852.3398	1003.1906	26787.6	25922.7
852.4849	1005.1877	26755.8	25889.15
852.63	1007.1841	26652.15	25786.7
852.7751	1009.1798	26583.9	25717.65
852.9202	1011.1748	26491.35	25625.15
853.0653	1013.1691	26409.9	25543
853.2104	1015.1627	26268.7	25404.7
853.3555	1017.1556	26128.35	25262
853.5006	1019.1477	26060.15	25190.55
853.6457	1021.1392	25874.2	25009.75
853.7908	1023.1299	25798.6	24931.65
853.9359	1025.12	25726.25	24856.75
854.081	1027.1093	25617.3	24752.15
854.2261	1029.0979	25557.3	24692
854.3712	1031.0859	25462.15	24596.7
854.5163	1033.0731	25453	24586
854.6613	1035.0596	25356.75	24490.35
854.8064	1037.0454	25233.45	24365.8
854.9515	1039.0304	25161.55	24291.65
855.0965	1041.0148	25049.8	24182.4
855.2416	1042.9985	24956.4	24088.55
855.3867	1044.9814	24924.25	24056.95
855.5317	1046.9636	24829.25	23959.45
855.6768	1048.9452	24770.45	23904.6
855.8219	1050.926	24737.35	23870
855.9669	1052.9061	24676.7	23809.95
856.112	1054.8855	24569.8	23701.5
856.257	1056.8642	24531.2	23662.95
856.4021	1058.8421	24505.45	23631.05
856.5471	1060.8194	24453	23583.4
856.6921	1062.7959	24389.85	23520.9
856.8372	1064.7717	24330.1	23459.95
856.9822	1066.7469	24284.3	23412.4
857.1272	1068.7213	24237.8	23366.55
857.2723	1070.695	24233.6	23363.85
857.4173	1072.6679	24129.6	23258.3
857.5623	1074.6402	24120.8	23252.45
857.7073	1076.6117	24117.2	23243.15
857.8523	1078.5826	24075.35	23204
857.9973	1080.5527	23987.3	23113.1
858.1423	1082.5221	23886.9	23015.7
858.2873	1084.4908	23841.7	22971.2
858.4323	1086.4587	23766.6	22894.65
858.5773	1088.426	23684.85	22813.5
858.7223	1090.3925	23610.3	22734.8
858.8673	1092.3584	23614.55	22744.1
859.0123	1094.3235	23488.8	22620
859.1573	1096.2879	23437.65	22568.4
859.3022	1098.2515	23408.4	22538.55
859.4472	1100.2145	23429.55	22559.6
859.5922	1102.1767	23339.65	22466.05
859.7371	1104.1382	23331.8	22463.25
859.8821	1106.099	23327.85	22455.85
860.027	1108.0591	23300.5	22430.25
860.172	1110.0185	23284.55	22411.15
860.3169	1111.9771	23301.7	22430.15
860.4619	1113.9351	23235.15	22365.45
860.6068	1115.8923	23237.6	22366.35
860.7517	1117.8488	23206.3	22330.65
860.8967	1119.8045	23087.85	22215
861.0416	1121.7596	22997.55	22124.6
861.1865	1123.7139	22830.7	21959.05
861.3314	1125.6675	22713.95	21843.3
861.4763	1127.6204	22720.45	21848.15
861.6212	1129.5726	22651.9	21777.9
861.7661	1131.524	22650.15	21778.85
861.911	1133.4748	22577.35	21705.7
862.0559	1135.4248	22450.55	21576.4
862.2008	1137.3741	22319.2	21449.4
862.3457	1139.3226	22254.55	21381.45
862.4905	1141.2705	22307.6	21436.8
862.6354	1143.2176	22182.05	21304.1
862.7803	1145.164	22160.9	21285.55
862.9251	1147.1097	22146	21272.95
863.07	1149.0546	22118.5	21245.35
863.2148	1150.9989	22076.65	21202.65
863.3597	1152.9424	22007.4	21133.7
863.5045	1154.8852	21957.7	21084.35
863.6493	1156.8272	21948.3	21076.4
863.7942	1158.7686	21938.4	21059.25
863.939	1160.7092	21872.5	20998.75
864.0838	1162.6491	21780.9	20906.8
864.2286	1164.5883	21762.3	20887.4
864.3734	1166.5267	21696.55	20822.4
864.5182	1168.4644	21756.5	20882.2
864.663	1170.4014	21729.45	20852.2
864.8078	1172.3377	21752.9	20882.4
864.9526	1174.2732	21711.9	20840.7
865.0974	1176.2081	21814.2	20941.45
865.2421	1178.1421	21846.2	20968.65
865.3869	1180.0755	21936.55	21065.1
865.5317	1182.0082	21906.85	21033.4
865.6764	1183.9401	21823.9	20948.3
865.8212	1185.8713	21755.5	20882.05
865.9659	1187.8017	21605.25	20731.45
866.1106	1189.7315	21487.2	20615.95
866.2554	1191.6605	21306.1	20434.6
866.4001	1193.5888	21160.2	20285.9
866.5448	1195.5163	21092.6	20218.95
866.6895	1197.4432	21030.8	20156.6
866.8342	1199.3693	20955.15	20079.8
866.9789	1201.2947	20860.5	19982.3
867.1236	1203.2193	20799.05	19922.55
867.2683	1205.1432	20770.7	19895.95
867.413	1207.0664	20691.2	19815.5
867.5576	1208.9889	20657.95	19779.75
867.7023	1210.9106	20519.8	19645.8
867.847	1212.8316	20465.65	19591.25
867.9916	1214.7519	20448.7	19566.6
868.1363	1216.6715	20393.1	19521.3
868.2809	1218.5903	20376.25	19501.65
868.4255	1220.5084	20319.1	19444.65
868.5701	1222.4257	20332.05	19456.45
868.7148	1224.3424	20195.95	19320.45
868.8594	1226.2583	20213.55	19337.85
869.004	1228.1735	20211.3	19334.95
869.1486	1230.0879	20155.2	19281.8
869.2932	1232.0016	20117.55	19243.75
869.4377	1233.9146	20092.9	19215.8
869.5823	1235.8269	20033.8	19158.85
869.7269	1237.7384	20034.7	19158.4
869.8715	1239.6492	19941.9	19065.2
870.016	1241.5592	19920.5	19044.35
870.1606	1243.4686	19918.35	19042.85
870.3051	1245.3772	19972.15	19097.8
870.4496	1247.285	19964.4	19089.4
870.5941	1249.1922	20000.75	19124.8
870.7387	1251.0986	20069.15	19195.55
870.8832	1253.0042	20021.2	19145.2
871.0277	1254.9092	20081.85	19204.8
871.1722	1256.8134	20082.45	19208.45
871.3167	1258.7169	20163.25	19287
871.4611	1260.6196	20146.25	19269.85
871.6056	1262.5216	20164.65	19284.2
871.7501	1264.4229	20119.2	19245.45
871.8945	1266.3234	20117.3	19239.4
872.039	1268.2232	19985.35	19108.85
872.1834	1270.1223	19949.85	19070.8
872.3278	1272.0207	19886.45	19008.85
872.4723	1273.9183	19823.2	18940.6
872.6167	1275.8151	19741.15	18865.9
872.7611	1277.7113	19764.15	18887.15
872.9055	1279.6067	19800.55	18924
873.0499	1281.5014	19862.4	18984.75
873.1943	1283.3953	19998.4	19120.8
873.3386	1285.2885	20172.05	19295.4
873.483	1287.181	20285.45	19408.55
873.6274	1289.0727	20367.05	19491.3
873.7717	1290.9637	20269.5	19391.7
873.9161	1292.854	20187.75	19311.95
874.0604	1294.7435	19994.35	19117.35
874.2047	1296.6323	19889.65	19012.85
874.349	1298.5204	19769.35	18888.45
874.4933	1300.4077	19702.55	18824.55
874.6376	1302.2943	19599.7	18722.15
874.7819	1304.1802	19554.1	18678.4
874.9262	1306.0653	19488.2	18609.15
875.0705	1307.9497	19437.8	18561
875.2147	1309.8333	19410.75	18534.25
875.359	1311.7162	19372.5	18495.6
875.5032	1313.5984	19356	18474.4
875.6475	1315.4798	19251.1	18374.1
875.7917	1317.3605	19204.35	18321.65
875.9359	1319.2405	19216.3	18337.4
876.0801	1321.1197	19181.25	18302.55
876.2243	1322.9982	19103.2	18221.35
876.3685	1324.876	19068.3	18191.4
876.5127	1326.753	18953.1	18074.3
876.6569	1328.6293	18873.6	17993.1
876.801	1330.5048	18795.95	17914.3
876.9452	1332.3796	18669.8	17795.55
877.0893	1334.2537	18598.65	17693.7
877.2335	1336.127	18495.7	17618.95
877.3776	1337.9996	18448.15	17569.55
877.5217	1339.8714	18381.85	17504.55
877.6658	1341.7426	18358.95	17439.65
877.8099	1343.6129	18318.95	17441.1
877.954	1345.4826	18259.5	17380.35
878.0981	1347.3515	18271.3	17390.75
878.2422	1349.2196	18185.55	17307.4
878.3862	1351.087	18215.35	17338.6
878.5303	1352.9537	18178.05	17299.55
878.6743	1354.8197	18150.4	17273.55
878.8184	1356.6849	18136.15	17255.15
878.9624	1358.5493	18097.25	17218.65
879.1064	1360.4131	18087.2	17209.1
879.2504	1362.276	18072.9	17194.4
879.3944	1364.1383	18072.35	17195.65
879.5384	1365.9998	18040.7	17157.35
879.6823	1367.8606	18017.65	17139.9
879.8263	1369.7206	17986.6	17107.75
879.9702	1371.5799	17927.6	17048.7
880.1142	1373.4384	17857.4	16979.4
880.2581	1375.2962	17818.95	16940.6
880.402	1377.1533	17726.9	16848.9
880.5459	1379.0096	17579.95	16701.4
880.6898	1380.8652	17500.35	16621
880.8337	1382.7201	17463.4	16586.5
880.9776	1384.5742	17362.4	16484.55
881.1215	1386.4275	17253.45	16374.7
881.2653	1388.2802	17232.75	16355.7
881.4092	1390.132	17119.8	16241.3
881.553	1391.9832	17111.15	16229.85
881.6968	1393.8336	17008.05	16128.65
881.8406	1395.6832	17004.5	16124.05
881.9844	1397.5322	16915.1	16035.4
882.1282	1399.3803	16881.2	15996.65
882.272	1401.2278	16760.55	15883.05
882.4158	1403.0745	16742.65	15862.45
882.5595	1404.9204	16628.2	15750.15
882.7033	1406.7656	16602.65	15721.95
882.847	1408.6101	16593.05	15712.75
882.9908	1410.4538	16519.75	15639.9
883.1345	1412.2968	16487.75	15608.15
883.2782	1414.139	16401.25	15521.5
883.4219	1415.9805	16379.65	15502.55
883.5656	1417.8213	16348.75	15448.15
883.7092	1419.6613	16304.35	15427.5
883.8529	1421.5006	16276	15397.25
883.9965	1423.3391	16269	15387.4
884.1402	1425.1769	16236.35	15355.45
884.2838	1427.0139	16281.45	15402.15
884.4274	1428.8502	16341.55	15461.55
884.571	1430.6858	16363.55	15486.15
884.7146	1432.5206	16313.7	15435.75
884.8582	1434.3547	16344.05	15463.8
885.0018	1436.188	16258.75	15377.7
885.1453	1438.0206	16250.25	15371.05
885.2889	1439.8524	16164.55	15286.25
885.4324	1441.6835	16165.7	15283.95
885.5759	1443.5139	16142	15260.3
885.7194	1445.3435	16058.4	15176.5
885.8629	1447.1724	16071.6	15192.6
886.0064	1449.0005	16046.5	15166.4
886.1499	1450.8279	16022.75	15141.95
886.2933	1452.6545	15972.55	15094.6
886.4368	1454.4804	15995.45	15118.85
886.5802	1456.3056	15949.4	15064.05
886.7237	1458.13	15879.5	15003.55
886.8671	1459.9536	15884.15	15003.8
887.0105	1461.7766	15824.75	14946.05
887.1539	1463.5987	15764.8	14884.65
887.2972	1465.4202	15682.6	14800.6
887.4406	1467.2409	15599.35	14720
887.584	1469.0608	15590.65	14709.55
887.7273	1470.88	15486.2	14606.85
887.8706	1472.6984	15464.15	14586.35
888.0139	1474.5161	15410.05	14528.3
888.1572	1476.3331	15356.25	14477.4
888.3005	1478.1493	15314.25	14433.95
888.4438	1479.9648	15306.8	14427.5
888.5871	1481.7795	15227.75	14349.75
888.7303	1483.5935	15257.6	14379.2
888.8736	1485.4067	15237.45	14358.45
889.0168	1487.2192	15223.8	14345.45
889.16	1489.031	15186	14303.55
889.3032	1490.842	15139.55	14259.35
889.4464	1492.6522	15108.7	14229.9
889.5896	1494.4618	15117.75	14235.6
889.7327	1496.2705	15058.25	14178.2
889.8759	1498.0785	15024.85	14143.7
890.019	1499.8858	14969.75	14089.6
890.1622	1501.6924	14928.85	14049.65
890.3053	1503.4981	14926.3	14048.85
890.4484	1505.3032	14882.1	14002.6
890.5914	1507.1075	14858.15	13977.95
890.7345	1508.911	14826	13946.2
890.8776	1510.7138	14779.3	13897.1
891.0206	1512.5159	14708.25	13827.6
891.1637	1514.3172	14654.85	13773.3
891.3067	1516.1178	14591.5	13711.85
891.4497	1517.9176	14615.25	13733.55
891.5927	1519.7166	14530.35	13651.85
891.7357	1521.515	14523.65	13636.85
891.8786	1523.3126	14459.65	13580.75
892.0216	1525.1094	14404.1	13521.2
892.1645	1526.9055	14355.1	13476.35
892.3074	1528.7008	14302	13422.05
892.4503	1530.4954	14199.15	13317.95
892.5932	1532.2893	14196.55	13319.8
892.7361	1534.0824	14120.15	13235.55
892.879	1535.8747	14100.25	13220.85
893.0218	1537.6663	14047.85	13167.05
893.1647	1539.4572	14015.2	13133.45
893.3075	1541.2473	14000.45	13119.1
893.4503	1543.0367	13955.8	13076.5
893.5931	1544.8253	13903.3	13019.65
893.7359	1546.6132	13877.8	12996.3
893.8787	1548.4003	13803.1	12911.85
894.0214	1550.1867	13816.6	12929.2
894.1642	1551.9723	13764.4	12880.2
894.3069	1553.7572	13735.1	12853.05
894.4496	1555.5414	13684.5	12802.05
894.5923	1557.3247	13700.05	12818.9
894.735	1559.1074	13673.35	12792.9
894.8777	1560.8893	13675.35	12794.2
895.0204	1562.6705	13645.45	12765.8
895.163	1564.4509	13649.75	12770.3
895.3056	1566.2305	13603.2	12725.8
895.4482	1568.0094	13644.7	12764.05
895.5908	1569.7876	13578.7	12699.15
895.7334	1571.565	13545.5	12664.35
895.876	1573.3417	13508.8	12628.5
896.0186	1575.1176	13455.35	12573.65
896.1611	1576.8928	13459.05	12579
896.3036	1578.6672	13438.75	12561.9
896.4461	1580.4409	13395.5	12516.65
896.5886	1582.2138	13378.25	12495.45
896.7311	1583.986	13371.25	12492.3
896.8736	1585.7575	13400.9	12522.2
897.0161	1587.5282	13392.55	12513.95
897.1585	1589.2981	13384.35	12505.4
897.3009	1591.0673	13351.2	12472.25
897.4433	1592.8358	13346	12466.2
897.5857	1594.6035	13304.95	12422.6
897.7281	1596.3704	13241.8	12361.45
897.8705	1598.1366	13180.7	12301.25
898.0128	1599.9021	13129.85	12249.35
898.1551	1601.6668	13055.2	12173.15
898.2975	1603.4308	12964.5	12084.1
898.4398	1605.194	12923.9	12037.8
898.5821	1606.9564	12906.95	12028.65
898.7243	1608.7182	12943.05	12058.35
898.8666	1610.4791	12959.35	12080.75
899.0088	1612.2394	12991.8	12110.4
899.1511	1613.9988	13039.7	12159.05
899.2933	1615.7576	13102.55	12220.15
899.4355	1617.5156	13133.6	12247.95
899.5776	1619.2728	13122.15	12243.55
899.7198	1621.0293	12979.5	12099.55
899.862	1622.785	12877.25	11993.55
900.0041	1624.54	12694.5	11813.15
900.1462	1626.2942	12577.1	11697.85
900.2883	1628.0477	12382.8	11496.25
900.4304	1629.8005	12306.95	11423.55
900.5725	1631.5525	12200.35	11318.7
900.7145	1633.3037	12110.65	11229.75
900.8566	1635.0542	12038.5	11155.05
900.9986	1636.804	11963.95	11083.7
901.1406	1638.553	11999.85	11029.3
901.2826	1640.3013	11864.55	10985.35
901.4245	1642.0488	11790.2	10909.45
901.5665	1643.7955	11738.4	10858
901.7085	1645.5416	11729.55	10849.6
901.8504	1647.2868	11667.55	10790.3
901.9923	1649.0313	11609.2	10726.6
902.1342	1650.7751	11602.35	10718.2
902.2761	1652.5181	11544.7	10665.9
902.4179	1654.2604	11509.1	10626.9
902.5598	1656.0019	11435.25	10557.15
902.7016	1657.7427	11435.85	10554.6
902.8434	1659.4828	11485.55	10607.75
902.9852	1661.222	11439.75	10559.3
903.127	1662.9606	11440.95	10560.55
903.2687	1664.6984	11454.85	10574
903.4105	1666.4354	11422.1	10540.65
903.5522	1668.1717	11387	10506.15
903.6939	1669.9072	11292.8	10413.25
903.8356	1671.642	11238.05	10354.7
903.9773	1673.3761	11157.3	10278.6
904.119	1675.1094	11086.85	10207.45
904.2606	1676.8419	11028.9	10148.5
904.4022	1678.5737	10960.75	10078.55
904.5439	1680.3048	10927.65	10049.1
904.6855	1682.0351	10901.85	10020.85
904.827	1683.7646	10821.85	9940.1
904.9686	1685.4934	10777.2	9895.9
905.1101	1687.2215	10713.8	9833.4
905.2517	1688.9488	10624.55	9745.65
905.3932	1690.6754	10601.4	9723.6
905.5347	1692.4012	10578.75	9699.95
905.6761	1694.1263	10584.95	9704.8
905.8176	1695.8506	10570.15	9688.15
905.9591	1697.5742	10498.75	9618.35
906.1005	1699.297	10471.85	9592.4
906.2419	1701.0191	10401.9	9521.95
906.3833	1702.7404	10339	9458.75
906.5246	1704.461	10297.4	9415.4
906.666	1706.1808	10273	9391.8
906.8073	1707.8999	10245.15	9364
906.9487	1709.6182	10223.55	9341.75
907.09	1711.3358	10184.75	9305.9
907.2313	1713.0527	10147.35	9267.45
907.3725	1714.7688	10121.95	9236.9
907.5138	1716.4841	10066.6	9187.1
907.655	1718.1987	10064.7	9177.65
907.7962	1719.9126	10038.9	9159.15
907.9374	1721.6257	9991.85	9107.25
908.0786	1723.338	9990.4	9108.8
908.2198	1725.0496	9934.95	9053.45
908.3609	1726.7605	9915.4	9033.45
908.502	1728.4706	9867.7	8984.5
908.6431	1730.18	9841.5	8958.95
908.7842	1731.8886	9822.9	8941.5
908.9253	1733.5964	9840.85	8940.1
909.0664	1735.3036	9812.5	8930.4
909.2074	1737.0099	9790	8911.6
909.3484	1738.7156	9783.25	8904
909.4894	1740.4204	9716.6	8832.55
909.6304	1742.1246	9731.1	8849.05
909.7714	1743.8279	9692.2	8812.95
909.9123	1745.5306	9714.75	8834.2
910.0532	1747.2325	9665.3	8786.15
910.1941	1748.9336	9661.65	8783.4
910.335	1750.634	9617.55	8735.85
910.4759	1752.3336	9597.35	8717.45
910.6168	1754.0325	9587.4	8709.05
910.7576	1755.7307	9563.65	8685.45
910.8984	1757.4281	9571.6	8692.15
911.0392	1759.1247	9548.2	8659.65
911.18	1760.8206	9508	8623.15
911.3208	1762.5158	9521.05	8635.1
911.4615	1764.2102	9493.4	8612.65
911.6022	1765.9039	9458.65	8576.65
911.7429	1767.5968	9435.7	8555.35
911.8836	1769.289	9428.45	8547.8
912.0243	1770.9804	9401.95	8520.65
912.1649	1772.6711	9371.25	8490.25
912.3056	1774.361	9338.75	8459.25
912.4462	1776.0502	9318.9	8438
912.5868	1777.7386	9319.45	8435.95
912.7274	1779.4263	9256.35	8374.65
912.8679	1781.1132	9271.95	8392.1
913.0084	1782.7994	9251.05	8367.6
913.149	1784.4849	9230.35	8349.95
913.2895	1786.1696	9223	8324.9
913.4299	1787.8535	9206.05	8326.6
913.5704	1789.5367	9165.3	8284.5
913.7108	1791.2192	9137.05	8256.6
913.8513	1792.9009	9099.45	8198.45
913.9917	1794.5818	9082.75	8201.65
914.132	1796.2621	9072.75	8193.8
914.2724	1797.9415	9069.35	8188.15
914.4128	1799.6202	9046.45	8167.4
914.5531	1801.2982	9009.45	8128.25
914.6934	1802.9755	8997.3	8116.45
914.8337	1804.6519	8956.95	8076.85
914.9739	1806.3277	8941.1	8063.15
915.1142	1808.0027	8900.55	8019.45
915.2544	1809.6769	8873.15	7991.7
915.3946	1811.3504	8875.6	7994.65
915.5348	1813.0231	8860	7981.15
915.675	1814.6951	8831.3	7950.25
915.8151	1816.3664	8858.25	7975.9
915.9553	1818.0369	8847.8	7967.6
916.0954	1819.7067	8786.75	7905.25
916.2355	1821.3757	8775.35	7892.45
916.3755	1823.044	8763.4	7881.9
916.5156	1824.7115	8746.2	7866.7
916.6556	1826.3783	8688.2	7810.2
916.7956	1828.0443	8664.8	7784.4
916.9356	1829.7096	8659.4	7777.5
917.0756	1831.3741	8660.95	7777.7
917.2155	1833.0379	8645.95	7764.6
917.3555	1834.701	8600.05	7716.8
917.4954	1836.3633	8613.05	7730.55
917.6353	1838.0248	8568.25	7685.6
917.7751	1839.6856	8554.45	7674.9
917.915	1841.3457	8556.45	7677.95
918.0548	1843.005	8526.95	7648.2
918.1946	1844.6636	8489.15	7610.2
918.3344	1846.3214	8482.05	7600.2
918.4742	1847.9785	8472.6	7593.4
918.6139	1849.6349	8453.5	7572.5
918.7537	1851.2904	8444.45	7554.45
918.8934	1852.9453	8397.65	7517.3
919.0331	1854.5994	8386.5	7503.5
919.1727	1856.2528	8376.05	7493.25
919.3124	1857.9054	8369.15	7489.25
919.452	1859.5572	8340.95	7461.9
919.5916	1861.2083	8327.05	7445.55
919.7312	1862.8587	8324.25	7444.1
919.8708	1864.5084	8324.75	7445.45
920.0103	1866.1572	8304.75	7426.7
920.1498	1867.8054	8253.4	7371.8
920.2893	1869.4528	8241.2	7361.15
920.4288	1871.0994	8220.25	7338.5
920.5683	1872.7453	8211.05	7330.8
920.7077	1874.3905	8203.15	7314.9
920.8471	1876.0349	8161.1	7279.85
920.9865	1877.6786	8161.65	7278.85
921.1259	1879.3215	8152.4	7273.15
921.2653	1880.9637	8128.75	7249
921.4046	1882.6051	8118	7238.35
921.5439	1884.2458	8101.75	7218.75
921.6832	1885.8858	8067.4	7186.35
921.8225	1887.525	8081.6	7201.3
921.9617	1889.1634	8020	7138.1
922.101	1890.8011	8016.65	7135.9
922.2402	1892.4381	7988.9	7111.3
922.3794	1894.0743	7975.95	7095.5
922.5185	1895.7098	7956.55	7077.55
922.6577	1897.3446	7941.35	7059.8
922.7968	1898.9786	7942.25	7057.25
922.9359	1900.6118	7928.8	7048
923.075	1902.2443	7896.7	7016
923.214	1903.8761	7892.05	7011.75
923.3531	1905.5071	7833	6950.25
923.4921	1907.1374	7807.8	6927.45
923.6311	1908.7669	7797.2	6917.1
923.77	1910.3957	7797.7	6917.95
923.909	1912.0237	7764.2	6883.75
924.0479	1913.651	7747.05	6865
924.1868	1915.2776	7724.8	6847.3
924.3257	1916.9034	7684.5	6805.4
924.4646	1918.5285	7643.9	6763.65
924.6034	1920.1528	7615.95	6734.75
924.7422	1921.7764	7642.2	6761.85
924.881	1923.3992	7603.6	6723.75
925.0198	1925.0213	7543.15	6663
925.1586	1926.6427	7533.4	6653.55
925.2973	1928.2633	7685.1	6593.4
925.436	1929.8832	7527	6644.5
925.5747	1931.5023	7444.4	6563.8
925.7134	1933.1207	7462.75	6581.8
925.852	1934.7383	7457.85	6577.5
925.9906	1936.3552	7398.6	6517.8
926.1292	1937.9714	7390.4	6507.3
926.2678	1939.5868	7378	6497.55
926.4064	1941.2015	7344.6	6461.4
926.5449	1942.8154	7315.55	6434.4
926.6834	1944.4286	7292.4	6414
926.8219	1946.041	7281.65	6377.95
926.9604	1947.6528	7237.15	6353.9
927.0988	1949.2637	7210.5	6329.8
927.2372	1950.8739	7209.3	6326.55
927.3756	1952.4834	7196.1	6316.6
927.514	1954.0921	7181.8	6300.95
927.6523	1955.7001	7172.6	6288.25
927.7907	1957.3074	7158.55	6276.4
927.929	1958.9139	7123.9	6242.8
928.0673	1960.5197	7102.9	6220.7
928.2055	1962.1247	7072.85	6191.75
928.3438	1963.729	7032.6	6153.7
928.482	1965.3325	7047.75	6144.05
928.6202	1966.9353	7016.95	6137.05
928.7584	1968.5374	6986.75	6105.45
928.8965	1970.1387	6950.65	6071.45
929.0346	1971.7393	6933.25	6053.3
929.1727	1973.3392	6934.75	6055.6
929.3108	1974.9383	6909.5	6029.75
929.4489	1976.5366	6892.75	6012.3
929.5869	1978.1342	6871.2	5990.25
929.7249	1979.7311	6857.1	5974.7
929.8629	1981.3273	6855	5973.55
930.0009	1982.9227	6842.15	5962.1
930.1388	1984.5173	6808.5	5926.5
930.2767	1986.1112	6786.25	5907.65
930.4146	1987.7044	6752.7	5871.8
930.5525	1989.2968	6750.45	5870.7
930.6904	1990.8885	6772.5	5888.35
930.8282	1992.4795	6749.75	5867.5
930.966	1994.0697	6729.5	5848.75
931.1038	1995.6592	6704.85	5826.65
931.2415	1997.2479	6682.65	5801.25
931.3793	1998.8359	6680.45	5799.75
931.517	2000.4232	6633.9	5754.2
931.6547	2002.0097	6626.3	5747.7
931.7923	2003.5955	6573.6	5692.1
931.93	2005.1805	6589.8	5708.75
932.0676	2006.7648	6569.9	5690.45
932.2052	2008.3484	6560.2	5679.5
932.3427	2009.9312	6578.45	5697
932.4803	2011.5133	6522.7	5644.1
932.6178	2013.0946	6518.95	5637.6
932.7553	2014.6752	6482.7	5602.55
932.8928	2016.2551	6494.2	5613.7
933.0302	2017.8342	6459.4	5579.55
933.1676	2019.4126	6451.05	5571.35
933.305	2020.9902	6440.65	5562.25
933.4424	2022.5672	6423.2	5541.95
933.5798	2024.1433	6402.15	5516.3
933.7171	2025.7188	6382.35	5505.75
933.8544	2027.2935	6372.35	5491.2
933.9917	2028.8674	6357.45	5477.65
934.129	2030.4406	6354.2	5475
934.2662	2032.0131	6312.5	5432.6
934.4034	2033.5849	6312.2	5426.45
934.5406	2035.1559	6304.7	5426.7
934.6778	2036.7261	6308.4	5427.5
934.8149	2038.2957	6280.65	5402.65
934.952	2039.8645	6270.2	5390.25
935.0891	2041.4325	6282.8	5399.2
935.2262	2042.9998	6251.05	5372.5
935.3632	2044.5664	6240.35	5357.6
935.5002	2046.1323	6218.85	5340
935.6372	2047.6974	6213.7	5333.3
935.7742	2049.2617	6195.6	5316.55
935.9111	2050.8254	6214.45	5312.2
936.048	2052.3883	6217.55	5337.4
936.1849	2053.9504	6173.25	5293.75
936.3218	2055.5118	6134.25	5252.35
936.4586	2057.0725	6140.95	5259.6
936.5955	2058.6325	6116.45	5236.5
936.7323	2060.1917	6098.3	5217.9
936.869	2061.7502	6103.3	5220.15
937.0058	2063.3079	6071.05	5190
937.1425	2064.8649	6053.75	5170.7
937.2792	2066.4212	6055.95	5174.5
937.4159	2067.9767	6035.75	5155.4
937.5525	2069.5315	6035.65	5157.25
937.6891	2071.0856	5995.25	5114.4
937.8257	2072.6389	5983.75	5101.1
937.9623	2074.1915	5962.9	5084.7
938.0989	2075.7433	5963	5081.65
938.2354	2077.2945	5943.95	5066.8
938.3719	2078.8448	5940.55	5059.8
938.5084	2080.3945	5931.1	5052.85
938.6448	2081.9434	5915.2	5034.9
938.7812	2083.4916	5893.7	5012.35
938.9176	2085.039	5888.95	5008.95
939.054	2086.5857	5866.9	4984.65
939.1903	2088.1317	5842.55	4961.8
939.3267	2089.677	5836.2	4956.55
939.463	2091.2215	5837.9	4959.5
939.5992	2092.7652	5817.25	4938.35
939.7355	2094.3083	5802.55	4922.95
939.8717	2095.8506	5803.7	4924.15
940.0079	2097.3921	5795.25	4917.2
940.1441	2098.933	5791.8	4909.7
940.2802	2100.4731	5763.85	4885.6
940.4163	2102.0124	5770.35	4872.5
940.5524	2103.5511	5762.95	4883.9
940.6885	2105.089	5744.05	4865.1
940.8245	2106.6261	5735.95	4854.8
940.9606	2108.1626	5729.75	4847.95
941.0965	2109.6983	5745.5	4837.5
941.2325	2111.2332	5695.6	4817.15
941.3684	2112.7675	5701.35	4820.9
941.5044	2114.301	5689.65	4807.7
941.6403	2115.8337	5686.45	4806.5
941.7761	2117.3657	5685.65	4807.25
941.912	2118.897	5672.7	4791.2
942.0478	2120.4276	5665.65	4780.5
942.1835	2121.9575	5623.4	4742.75
942.3193	2123.4866	5633.55	4752
942.455	2125.0149	5610.05	4725.6
942.5907	2126.5426	5583.2	4705.5
942.7264	2128.0695	5585.35	4702.7
942.8621	2129.5956	5570.45	4691.8
942.9977	2131.1211	5587.35	4701.5
943.1333	2132.6458	5564.9	4686.5
943.2689	2134.1698	5544.7	4664.95
943.4044	2135.693	5530.6	4649.35
943.54	2137.2155	5527.2	4645.75
943.6755	2138.7373	5509.75	4630.3
943.8109	2140.2584	5503.9	4623.95
943.9464	2141.7787	5496.85	4609.75
944.0818	2143.2983	5433.05	4552.45
944.2172	2144.8171	5426.05	4547
944.3526	2146.3353	5441.6	4559.55
944.4879	2147.8527	5412.6	4533.65
944.6232	2149.3693	5411.55	4532.6
944.7585	2150.8853	5390.9	4509.9
944.8938	2152.4005	5377.9	4497.95
945.029	2153.9149	5381.5	4500.65
945.1642	2155.4287	5360.75	4481.2
945.2994	2156.9417	5349.6	4466.8
945.4346	2158.454	5364.95	4482.25
945.5697	2159.9655	5321.1	4440.2
945.7048	2161.4764	5318.7	4439.7
945.8399	2162.9865	5290.9	4410.35
945.9749	2164.4958	5300.15	4420.85
946.1099	2166.0045	5275.9	4393.05
946.2449	2167.5124	5250.35	4372.1
946.3799	2169.0195	5257.35	4377.8
946.5148	2170.526	5249.7	4369.35
946.6498	2172.0317	5225.85	4347
946.7846	2173.5367	5232.8	4351.65
946.9195	2175.0409	5220.8	4341.55
947.0543	2176.5445	5201.5	4322
947.1891	2178.0473	5196.8	4318.6
947.3239	2179.5494	5162.15	4277.4
947.4587	2181.0507	5171.1	4290.3
947.5934	2182.5513	5128.9	4248.7
947.7281	2184.0512	5137.3	4257.5
947.8628	2185.5504	5131.05	4251.4
947.9974	2187.0488	5105.85	4226.65
948.132	2188.5465	5093.85	4213.15
948.2666	2190.0435	5076.15	4195.5
948.4012	2191.5397	5049.1	4169.9
948.5357	2193.0353	5063.95	4184.4
948.6702	2194.5301	5033.55	4151.05
948.8047	2196.0241	5029.9	4149.3
948.9392	2197.5175	5008.15	4127.4
949.0736	2199.0101	5004.55	4123.15
949.208	2200.502	4974.75	4096.1
949.3424	2201.9931	4951.25	4071.15
949.4767	2203.4835	4941.75	4060.9
949.611	2204.9733	4947	4060.7
949.7453	2206.4622	4928.1	4049.25
949.8796	2207.9505	4910.15	4029.8
950.0138	2209.438	4903.1	4021.45
950.148	2210.9248	4876	3996.05
950.2822	2212.4109	4879.2	3999.9
950.4164	2213.8962	4881.45	3998.8
950.5505	2215.3809	4858.35	3976.55
950.6846	2216.8648	4837	3957.55
950.8186	2218.3479	4830.75	3946.2
950.9527	2219.8304	4821.5	3940.1
951.0867	2221.3121	4778.25	3896.9
951.2207	2222.7931	4773.4	3893.25
951.3546	2224.2733	4774	3893.25
951.4886	2225.7529	4736.45	3856.6
951.6225	2227.2317	4725.3	3841.3
951.7563	2228.7098	4735.5	3857.15
951.8902	2230.1872	4722.75	3842.4
952.024	2231.6638	4705.85	3825.35
952.1578	2233.1397	4704.25	3818.35
952.2916	2234.6149	4686.25	3808.05
952.4253	2236.0894	4673.15	3793.7
952.559	2237.5632	4649.25	3769.6
952.6927	2239.0362	4647.25	3770.35
952.8263	2240.5085	4624.7	3745.6
952.9599	2241.9801	4621.55	3741.05
953.0935	2243.4509	4604.45	3723.85
953.2271	2244.921	4584.05	3702.45
953.3606	2246.3904	4585.9	3703.95
953.4941	2247.8591	4562.55	3684.05
953.6276	2249.3271	4559.2	3678.65
953.7611	2250.7943	4539.9	3659.05
953.8945	2252.2608	4534	3654.5
954.0279	2253.7266	4511.3	3630.5
954.1612	2255.1917	4502.35	3621.7
954.2946	2256.656	4487.5	3609.3
954.4279	2258.1197	4485.3	3606.2
954.5612	2259.5826	4472.85	3590.3
954.6944	2261.0447	4454.85	3572.75
954.8276	2262.5062	4445.75	3563.85
954.9608	2263.9669	4440.35	3558.3
955.094	2265.4269	4442.25	3564.1
955.2271	2266.8862	4428.2	3548.65
955.3602	2268.3448	4411.2	3529.25
955.4933	2269.8026	4404.05	3525.45
955.6264	2271.2598	4386.1	3506.1
955.7594	2272.7162	4386.2	3507.75
955.8924	2274.1719	4369.15	3487.35
956.0253	2275.6268	4370.05	3490.2
956.1583	2277.0811	4370.3	3490
956.2912	2278.5346	4348.5	3468.25
956.4241	2279.9874	4352.4	3472.15
956.5569	2281.4395	4326.1	3447.2
956.6897	2282.8908	4302.15	3417.45
956.8225	2284.3414	4303.15	3422
956.9553	2285.7914	4293.85	3415.45
957.088	2287.2406	4280.8	3399.2
957.2207	2288.689	4284.45	3401.9
957.3534	2290.1368	4260.35	3380.05
957.486	2291.5838	4258.7	3374.1
957.6186	2293.0302	4237.7	3358.8
957.7512	2294.4758	4204.3	3324.55
957.8838	2295.9206	4219.25	3335.6
958.0163	2297.3648	4198.1	3318.25
958.1488	2298.8082	4208.65	3327.9
958.2813	2300.251	4184.55	3305.6
958.4137	2301.693	4189.85	3308
958.5461	2303.1343	4185.95	3304.5
958.6785	2304.5748	4162	3281.4
958.8108	2306.0147	4152.9	3272.65
958.9432	2307.4538	4146.45	3262.6
959.0754	2308.8922	4118.6	3239.25
959.2077	2310.3299	4116.7	3237.15
959.3399	2311.7669	4103	3224.6
959.4721	2313.2031	4089.9	3209.45
959.6043	2314.6387	4088.4	3209.65
959.7365	2316.0735	4075.5	3196
959.8686	2317.5076	4074.75	3196.05
960.0006	2318.941	4057.6	3176.8
960.1327	2320.3737	4061.25	3180.05
960.2647	2321.8056	4037.85	3155.25
960.3967	2323.2369	4033.85	3151.8
960.5287	2324.6674	4025.2	3143.8
960.6606	2326.0972	4029.55	3146.65
960.7925	2327.5263	4006.85	3127.8
960.9244	2328.9547	3999.85	3119.6
961.0562	2330.3823	3980.2	3097.35
961.1881	2331.8092	3990.85	3108.55
961.3198	2333.2355	3950.55	3072.05
961.4516	2334.661	3953.85	3073.25
961.5833	2336.0858	3954.35	3072.8
961.715	2337.5098	3932.45	3051.6
961.8467	2338.9332	3927.9	3048.65
961.9783	2340.3558	3916.5	3033.1
962.1099	2341.7778	3897.45	3019.5
962.2415	2343.199	3895.55	3013.45
962.373	2344.6195	3861.45	2981.15
962.5045	2346.0393	3878.2	3000.4
962.636	2347.4583	3871.15	2991.25
962.7675	2348.8767	3859.6	2978.1
962.8989	2350.2943	3846.8	2967.4
963.0303	2351.7113	3837.65	2954.35
963.1617	2353.1275	3842.25	2964.6
963.293	2354.543	3830.45	2941.8
963.4243	2355.9578	3803.6	2923.4
963.5556	2357.3718	3795.1	2913.2
963.6868	2358.7852	3797.5	2916.65
963.818	2360.1978	3774.45	2892.25
963.9492	2361.6098	3769	2890.35
964.0803	2363.021	3754.7	2868.4
964.2114	2364.4315	3743	2864.1
964.3425	2365.8413	3740.6	2854.2
964.4736	2367.2504	3723.35	2844.05
964.6046	2368.6587	3703.5	2821.55
964.7356	2370.0664	3710.45	2830.5
964.8666	2371.4733	3686.1	2806.8
964.9975	2372.8795	3665.3	2787.85
965.1284	2374.285	3667.15	2785.25
965.2593	2375.6899	3644.2	2765.3
965.3901	2377.0939	3638.35	2759.2
965.5209	2378.4973	3617.1	2739.1
965.6517	2379.9	3618.25	2737.6
965.7825	2381.3019	3613.5	2733.35
965.9132	2382.7032	3590.3	2709.1
966.0439	2384.1037	3599.4	2720.35
966.1745	2385.5035	3583.7	2702.65
966.3051	2386.9027	3573.75	2696.1
966.4357	2388.3011	3575.1	2690.6
966.5663	2389.6987	3572.5	2691
966.6968	2391.0957	3558.85	2678.95
966.8273	2392.492	3534.05	2654
966.9578	2393.8876	3523.3	2643.45
967.0882	2395.2824	3508	2627.2
967.2186	2396.6765	3501.9	2622.95
967.349	2398.07	3476.75	2597.4
967.4793	2399.4627	3467.85	2584.9
967.6097	2400.8547	3467.8	2588.65
967.7399	2402.246	3466.55	2582
967.8702	2403.6366	3437.9	2557.35
968.0004	2405.0265	3437	2559.3
968.1306	2406.4156	3426.25	2539.2
968.2607	2407.8041	3421.1	2537.8
968.3909	2409.1918	3409.6	2527.25
968.521	2410.5789	3385.6	2503.85
968.651	2411.9652	3381.25	2497.4
968.781	2413.3508	3377.25	2495.15
968.911	2414.7358	3364.85	2484.55
969.041	2416.12	3353.7	2474.45
969.1709	2417.5035	3346.15	2465.25
969.3008	2418.8863	3342.15	2460.55
969.4307	2420.2684	3334.6	2452.25
969.5606	2421.6497	3306.25	2425.95
969.6904	2423.0304	3294.7	2415
969.8201	2424.4104	3276.95	2395.15
969.9499	2425.7896	3287.45	2403.95
970.0796	2427.1682	3263.5	2382.8
970.2093	2428.546	3274.45	2392
970.3389	2429.9232	3251.35	2370.95
970.4685	2431.2996	3246.15	2364.7
970.5981	2432.6753	3248.9	2369.1
970.7277	2434.0503	3247.8	2366.55
970.8572	2435.4246	3236	2356.85
970.9867	2436.7982	3240.5	2356.75
971.1161	2438.1711	3228.45	2349.95
971.2456	2439.5433	3210.85	2331.7
971.375	2440.9148	3205	2318.5
971.5043	2442.2856	3175.85	2297.2
971.6336	2443.6557	3175.7	2291.55
971.7629	2445.025	3140.4	2259.15
971.8922	2446.3937	3166.85	2287.2
972.0214	2447.7617	3151.3	2270.05
972.1506	2449.1289	3136.3	2257.25
972.2798	2450.4955	3139.45	2254.5
972.4089	2451.8613	3131	2252.05
972.538	2453.2265	3117.15	2238.85
972.6671	2454.5909	3106.8	2224.65
972.7961	2455.9546	3115.4	2236.25
972.9251	2457.3177	3104.9	2225
973.0541	2458.68	3100.8	2218.05
973.1831	2460.0416	3090.9	2209.1
973.312	2461.4025	3089.3	2206.65
973.4408	2462.7627	3104.85	2211.75
973.5697	2464.1222	3080.7	2202.9
973.6985	2465.4811	3065	2183.75
973.8273	2466.8392	3062.95	2182.25
973.956	2468.1966	3052.7	2169.45
974.0847	2469.5533	3051.9	2169.25
974.2134	2470.9093	3041.15	2161.6
974.3421	2472.2645	3028.4	2145.95
974.4707	2473.6191	3028.15	2147.5
974.5993	2474.973	3016.9	2137.45
974.7278	2476.3262	3006.4	2123.45
974.8563	2477.6787	2997.75	2118.7
974.9848	2479.0305	2984.2	2104.15
975.1132	2480.3816	2979.4	2098.6
975.2417	2481.7319	2965.5	2085.2
975.37	2483.0816	2964.45	2083.7
975.4984	2484.4306	2954.9	2072.4
975.6267	2485.7789	2942.35	2063.45
975.755	2487.1264	2940	2056.6
975.8833	2488.4733	2924.55	2046.45
976.0115	2489.8195	2913.15	2025.15
976.1397	2491.165	2917.9	2035.65
976.2678	2492.5097	2916.75	2033.45
976.3959	2493.8538	2907.95	2026.45
976.524	2495.1972	2885.2	2005.2
976.6521	2496.5398	2869.35	1988.1
976.7801	2497.8818	2885.8	2004.55
976.9081	2499.2231	2873.05	1993.1
977.036	2500.5637	2860.1	1977.3
977.164	2501.9035	2863.65	1983.55
977.2918	2503.2427	2849.95	1966.15
977.4197	2504.5812	2822.4	1942.8
977.5475	2505.919	2833.35	1949.8
977.6753	2507.256	2826	1946.45
977.8031	2508.5924	2816.6	1935.5
977.9308	2509.9281	2813.5	1928
978.0585	2511.2631	2798.9	1920.35
978.1861	2512.5974	2790.5	1910.45
978.3137	2513.9309	2785.05	1905.1
978.4413	2515.2638	2793.95	1886.3
978.5689	2516.596	2777.25	1898.35
978.6964	2517.9275	2773.6	1890
978.8239	2519.2583	2757.55	1874.8
978.9513	2520.5884	2750.55	1867
979.0788	2521.9178	2743.85	1863.4
979.2062	2523.2465	2720	1841.65
979.3335	2524.5745	2726	1845.65
979.4608	2525.9018	2718.25	1836.55
979.5881	2527.2284	2717.55	1838.75
979.7154	2528.5543	2705.9	1826.6
979.8426	2529.8796	2704.95	1824.85
979.9698	2531.2041	2694.5	1814.8
980.0969	2532.5279	2692.6	1812.75
980.224	2533.851	2679.4	1798.55
980.3511	2535.1735	2689.55	1810.9
980.4781	2536.4952	2675.7	1796.1
980.6052	2537.8163	2671.6	1790.7
980.7321	2539.1366	2664.55	1785.1
980.8591	2540.4562	2666.1	1785.65
980.986	2541.7752	2648.5	1768.7
981.1129	2543.0935	2648.6	1769.1
981.2397	2544.411	2642.65	1760.15
981.3665	2545.7279	2633.4	1753.35
981.4933	2547.0441	2630.25	1750.3
981.62	2548.3596	2629.8	1746.5
981.7467	2549.6744	2623.35	1743.3
981.8734	2550.9885	2628.25	1739.8
982.0001	2552.3019	2601	1721.6
982.1267	2553.6146	2615.25	1735.2
982.2532	2554.9266	2593.8	1713.65
982.3798	2556.2379	2594.5	1714.9
982.5063	2557.5485	2582.85	1701.75
982.6327	2558.8585	2593.1	1705.3
982.7592	2560.1677	2572.7	1687.85
982.8856	2561.4762	2576.8	1694.75
983.0119	2562.7841	2572.8	1689.5
983.1383	2564.0913	2578.9	1700.9
983.2646	2565.3977	2563.8	1684.65
983.3908	2566.7035	2566.75	1685.45
983.517	2568.0086	2556.65	1674.7
983.6432	2569.313	2549.05	1669.65
983.7694	2570.6167	2555.3	1675.05
983.8955	2571.9197	2547.1	1668.3
984.0216	2573.222	2534.85	1651.5
984.1476	2574.5236	2541.05	1659.45
984.2737	2575.8246	2535.15	1652.4
984.3996	2577.1248	2522.2	1637.8
984.5256	2578.4244	2521.9	1641.8
984.6515	2579.7232	2514.75	1634.7
984.7774	2581.0214	2540.65	1634.4
984.9032	2582.3189	2517	1639.3
985.029	2583.6157	2511.05	1626.6
985.1548	2584.9118	2499.1	1620.05
985.2806	2586.2072	2483.45	1603.35
985.4063	2587.5019	2474.45	1593.8
985.5319	2588.7959	2479.2	1598.1
985.6576	2590.0893	2477.35	1595.65
985.7832	2591.3819	2481.55	1602.1
985.9087	2592.6739	2465.7	1585.5
986.0343	2593.9652	2464.5	1583.6
986.1597	2595.2557	2459.45	1581.7
986.2852	2596.5456	2453.85	1571.65
986.4106	2597.8348	2448.1	1568.45
986.536	2599.1234	2433.95	1553.2
986.6614	2600.4112	2428.45	1550.15
986.7867	2601.6983	2421.6	1537.2
986.912	2602.9848	2408.5	1529.1
987.0372	2604.2705	2406.7	1521.5
987.1624	2605.5556	2400.7	1519.8
987.2876	2606.84	2398.5	1519.25
987.4128	2608.1237	2389.25	1507.75
987.5379	2609.4067	2386.9	1504.35
987.6629	2610.689	2390.8	1502.65
987.788	2611.9707	2379.25	1495.85
987.913	2613.2516	2364.45	1479.55
988.0379	2614.5319	2339.55	1460.4
988.1629	2615.8115	2350.95	1469.3
988.2878	2617.0903	2339.25	1457.4
988.4126	2618.3685	2335.9	1454.9
988.5375	2619.6461	2329.6	1449.4
988.6622	2620.9229	2333.25	1452.45
988.787	2622.199	2318.65	1436.8
988.9117	2623.4745	2312.5	1431.6
989.0364	2624.7493	2305.35	1427.05
989.161	2626.0234	2294.55	1415.15
989.2857	2627.2968	2297.5	1416.65
989.4102	2628.5695	2285.2	1402.65
989.5348	2629.8415	2277.35	1396.8
989.6593	2631.1128	2281.75	1399.4
989.7837	2632.3835	2262.5	1382.1
989.9082	2633.6535	2257.55	1377.15
990.0326	2634.9228	2254.65	1374.2
990.1569	2636.1914	2249.05	1370.05
990.2812	2637.4593	2261.9	1377.35
990.4055	2638.7265	2248.8	1368.65
990.5298	2639.9931	2238.2	1357.4
990.654	2641.259	2236.7	1354.05
990.7782	2642.5242	2229.35	1347.8
990.9023	2643.7887	2218.65	1338.3
991.0264	2645.0525	2211.4	1330
991.1505	2646.3156	2214.6	1332
991.2745	2647.5781	2208.45	1330.65
991.3985	2648.8398	2202.9	1325.05
991.5225	2650.1009	2196.05	1305.45
991.6464	2651.3613	2187.7	1307.75
991.7703	2652.6211	2195	1313.25
991.8942	2653.8801	2180.65	1303.05
992.018	2655.1385	2178.15	1294.25
992.1418	2656.3961	2176.75	1298.65
992.2655	2657.6531	2174.7	1295.4
992.3892	2658.9094	2170.05	1289.7
992.5129	2660.1651	2157.25	1275
992.6366	2661.42	2161.15	1280.1
992.7602	2662.6743	2155.8	1274.75
992.8837	2663.9279	2148.9	1270.4
993.0073	2665.1808	2136.9	1256.5
993.1307	2666.433	2137.65	1256.25
993.2542	2667.6846	2134.1	1254.1
993.3776	2668.9354	2140.25	1257.1
993.501	2670.1856	2127.55	1246
993.6244	2671.4351	2124.7	1244.65
993.7477	2672.6839	2124.9	1241.25
993.8709	2673.9321	2114.05	1234.55
993.9942	2675.1795	2109.15	1228.85
994.1174	2676.4263	2113.1	1231.5
994.2405	2677.6724	2097.45	1218.2
994.3637	2678.9179	2105.6	1225.25
994.4868	2680.1626	2082.6	1204.45
994.6098	2681.4067	2088.5	1208.2
994.7328	2682.6501	2087.25	1208.7
994.8558	2683.8928	2076.65	1198.7
994.9788	2685.1348	2063.65	1183.95
995.1017	2686.3761	2058.15	1178.1
995.2245	2687.6168	2054.4	1174.35
995.3474	2688.8568	2056.45	1175.8
995.4702	2690.0961	2051.6	1172.6
995.5929	2691.3348	2043.65	1163
995.7156	2692.5727	2044.25	1163.6
995.8383	2693.81	2049.05	1169.05
995.961	2695.0466	2029.65	1148.95
996.0836	2696.2826	2024.95	1144.7
996.2062	2697.5178	2040.4	1156.95
996.3287	2698.7524	2021.25	1140.9
996.4512	2699.9863	2022.35	1140.85
996.5737	2701.2195	2012.35	1134.65
996.6961	2702.452	2016.3	1135.85
996.8185	2703.6839	2006.5	1127.2
996.9408	2704.9151	2009.85	1130.8
997.0631	2706.1456	2000.2	1119.15
997.1854	2707.3755	1994.75	1111.75
997.3077	2708.6046	1986.2	1103.95
997.4299	2709.8331	1991.95	1111.65
997.552	2711.0609	1976.05	1094.65
997.6742	2712.2881	1974.4	1095.75
997.7963	2713.5145	1983.85	1099.65
997.9183	2714.7403	1965.35	1088.15
998.0403	2715.9654	1969.9	1089.4
998.1623	2717.1899	1970.45	1076.25
998.2842	2718.4136	1957	1075.95
998.4062	2719.6367	1950.15	1070.4
998.528	2720.8591	1951.9	1063.7
998.6498	2722.0809	1941.85	1060.5
998.7716	2723.3019	1944.7	1059.9
998.8934	2724.5223	1941.8	1060.45
999.0151	2725.7421	1940.5	1060.5
999.1368	2726.9611	1920.85	1038.85
999.2584	2728.1795	1930.55	1045.5
999.38	2729.3972	1917.4	1036.05
999.5016	2730.6142	1924	1031.1
999.6231	2731.8306	1904.25	1023.3
999.7446	2733.0462	1905.7	1022.5
999.8661	2734.2612	1887.05	1002.65
999.9875	2735.4756	1889.2	1005.95
1000.1089	2736.6892	1884.1	1004.05
1000.2302	2737.9022	1880.15	1001.45
1000.3515	2739.1145	1864.65	983.65
1000.4728	2740.3262	1877.8	990
1000.594	2741.5372	1866.1	986.95
1000.7152	2742.7475	1858.8	978.7
1000.8363	2743.9571	1860.35	977.75
1000.9575	2745.1661	1854.9	972.2
1001.0785	2746.3744	1839.8	960.35
1001.1996	2747.582	1847.3	967.3
1001.3206	2748.7889	1845.3	962.85
1001.4415	2749.9952	1826.65	946.6
1001.5625	2751.2008	1838.35	955.7
1001.6833	2752.4057	1837.45	955.65
1001.8042	2753.61	1827.8	945.05
1001.925	2754.8136	1827.6	943.1
1002.0458	2756.0165	1815.1	937.35
1002.1665	2757.2188	1813.95	934.75
1002.2872	2758.4204	1808.05	928.25
1002.4078	2759.6213	1810.75	927.65
1002.5285	2760.8215	1797.25	912.1
1002.649	2762.0211	1797.2	916.2
1002.7696	2763.22	1795.5	912.65
1002.8901	2764.4182	1792.8	911.2
1003.0106	2765.6158	1784.55	902.85
1003.131	2766.8127	1782.95	903.2
1003.2514	2768.009	1772.55	889.95
1003.3717	2769.2045	1775.1	896.05
1003.492	2770.3994	1784	902.75
1003.6123	2771.5936	1767.5	883.65
1003.7325	2772.7872	1759.7	880.55
1003.8527	2773.9801	1760.8	878.75
1003.9729	2775.1723	1771.5	875.55
1004.093	2776.3639	1753.05	874.65
1004.2131	2777.5548	1748.55	866.75
1004.3331	2778.745	1740.4	857.7
1004.4531	2779.9346	1736.15	856
1004.5731	2781.1235	1740.25	858.55
1004.693	2782.3117	1734.3	855.3
1004.8129	2783.4992	1725.1	843.45
1004.9328	2784.6861	1722.95	842.1
1005.0526	2785.8723	1725.6	843.85
1005.1723	2787.0579	1724.2	844.3
1005.2921	2788.2428	1714.25	834.1
1005.4118	2789.427	1708	829.9
1005.5314	2790.6106	1708.55	829.65
1005.651	2791.7935	1696.75	817.1
1005.7706	2792.9757	1700.15	820.95
1005.8902	2794.1573	1694	810.15
1006.0097	2795.3382	1697.95	818.2
1006.1291	2796.5184	1687.5	809
1006.2485	2797.698	1687.6	805
1006.3679	2798.8769	1682.8	801.65
1006.4873	2800.0551	1676.5	796
1006.6066	2801.2327	1675.75	795.1
1006.7258	2802.4096	1668.25	788.45
1006.8451	2803.5859	1671.4	789.95
1006.9642	2804.7615	1661.45	780.35
1007.0834	2805.9364	1656.35	775.9
1007.2025	2807.1106	1655.25	775.65
1007.3216	2808.2842	1658.9	776.8
1007.4406	2809.4572	1656.05	775.95
1007.5596	2810.6294	1656.1	774
1007.6785	2811.801	1647	769.45
1007.7975	2812.972	1647.55	768.7
1007.9163	2814.1423	1650.6	769.6
1008.0352	2815.3119	1660.7	780.8
1008.154	2816.4808	1644.4	766.65
1008.2727	2817.6491	1649.35	766.65
1008.3914	2818.8167	1650.75	771.55
1008.5101	2819.9837	1649.35	764
1008.6288	2821.15	1647.5	768.05
1008.7474	2822.3157	1657	778.25
1008.8659	2823.4807	1657.8	776.75
1008.9844	2824.645	1669.35	789.6
1009.1029	2825.8086	1674	796.05
1009.2214	2826.9716	1676.5	796.85
1009.3398	2828.134	1689.15	810.2
1009.4581	2829.2957	1678.5	798.45
1009.5764	2830.4567	1696.7	817.7
1009.6947	2831.617	1695.35	815.05
1009.813	2832.7767	1699.65	821.25
1009.9312	2833.9358	1694.15	815.45
1010.0493	2835.0941	1693.7	811.25
1010.1675	2836.2519	1684.8	806.15
1010.2855	2837.4089	1678.9	797.2
1010.4036	2838.5653	1677.45	795.6
1010.5216	2839.7211	1665.3	788.2
1010.6396	2840.8761	1659.8	776.05
1010.7575	2842.0306	1657.35	778.75
1010.8754	2843.1843	1652.3	772.5
1010.9932	2844.3374	1654.1	774.25
1011.111	2845.4899	1671.4	791.05
1011.2288	2846.6417	1659.9	780.15
1011.3465	2847.7928	1648.6	769.35
1011.4642	2848.9433	1652.7	773.5
1011.5818	2850.0931	1664.2	785.65
1011.6995	2851.2422	1656.55	774.55
1011.817	2852.3907	1660.65	779.8
1011.9345	2853.5385	1654.05	770.05
1012.052	2854.6857	1655.35	763.65
1012.1695	2855.8323	1652.25	773.55
1012.2869	2856.9781	1652.95	774.3
1012.4042	2858.1233	1658.75	778.65
1012.5216	2859.2679	1656.95	777.6
1012.6389	2860.4118	1652.5	773.75
1012.7561	2861.555	1658.6	773.1
1012.8733	2862.6976	1656.95	776.35
1012.9905	2863.8395	1650.05	769.75
1013.1076	2864.9808	1648.5	769.95
1013.2247	2866.1214	1651.25	773.05
1013.3417	2867.2614	1647	766.95
1013.4587	2868.4007	1657.65	776.85
1013.5757	2869.5393	1643.25	760.65
1013.6926	2870.6773	1645.95	762.7
1013.8095	2871.8146	1650.95	766.7
1013.9263	2872.9513	1639.05	757.55
1014.0431	2874.0874	1647.35	767
1014.1599	2875.2227	1647.9	766.1
1014.2766	2876.3574	1644.1	764.05
1014.3933	2877.4915	1641.35	761
1014.51	2878.6249	1645.9	767.55
1014.6266	2879.7577	1638.1	759
1014.7431	2880.8898	1650.05	761.05
1014.8596	2882.0212	1627.85	749
1014.9761	2883.152	1641.65	761.85
1015.0925	2884.2821	1638.3	758.55
1015.2089	2885.4116	1624.9	744.9
1015.3253	2886.5405	1632.7	752.35
1015.4416	2887.6686	1639.85	757.2
1015.5579	2888.7962	1635.6	758.15
1015.6741	2889.923	1629.8	749.55
1015.7903	2891.0493	1626.2	748.15
1015.9065	2892.1748	1627.95	748.3
1016.0226	2893.2997	1621.2	740.35
1016.1387	2894.424	1615.1	736.9
1016.2547	2895.5476	1620.5	741.2
1016.3707	2896.6706	1614.4	734.45
1016.4866	2897.7929	1615.1	734.95
1016.6025	2898.9145	1606.15	726.3
1016.7184	2900.0355	1607.55	726
1016.8342	2901.1559	1602.3	722.9
1016.95	2902.2756	1598.1	717.85
1017.0658	2903.3946	1598.75	719.45
1017.1815	2904.513	1585.85	702.65
1017.2971	2905.6308	1589	711.05
1017.4127	2906.7479	1586.5	705.8
1017.5283	2907.8643	1584.85	703.45
1017.6439	2908.9801	1574.35	694.95
1017.7594	2910.0953	1576.2	696.65
1017.8748	2911.2098	1576.75	694
1017.9902	2912.3236	1578.8	691.7
1018.1056	2913.4368	1574.65	692.85
1018.2209	2914.5494	1561.9	683.45
1018.3362	2915.6613	1569.95	685.25
1018.4515	2916.7725	1559.35	675.25
1018.5667	2917.8831	1559.15	678.25
1018.6819	2918.9931	1555.45	674.8
1018.797	2920.1024	1555.05	672.75
1018.9121	2921.211	1537.55	657.25
1019.0271	2922.319	1531.55	651.15
1019.1421	2923.4264	1531.15	652.4
1019.2571	2924.5331	1526.65	648.7
1019.372	2925.6391	1526.35	647.2
1019.4869	2926.7445	1533.6	655.25
1019.6017	2927.8493	1532.7	653.7
1019.7165	2928.9534	1524.9	643.05
1019.8313	2930.0569	1524.95	640.55
1019.946	2931.1597	1527.95	645.25
1020.0606	2932.2619	1528.15	648.55
1020.1753	2933.3634	1527.25	647
1020.2899	2934.4643	1534.65	648.85
1020.4044	2935.5645	1528.8	641.8
1020.5189	2936.6641	1524.15	642.25
1020.6334	2937.763	1520.5	642.2
1020.7478	2938.8613	1519.75	639.9
1020.8622	2939.959	1523.6	639.15
1020.9765	2941.056	1498.55	619.6
1021.0908	2942.1523	1499.95	619.85
1021.2051	2943.248	1480.2	598.75
1021.3193	2944.3431	1476.7	597.3
1021.4334	2945.4375	1470.7	589
1021.5476	2946.5313	1455.4	577.05
1021.6617	2947.6244	1461.3	580.95
1021.7757	2948.7169	1438.75	559.55
1021.8897	2949.8087	1433.7	553.55
1022.0037	2950.8999	1422.65	543.4
1022.1176	2951.9904	1421.1	540.7
1022.2315	2953.0803	1406.6	526.45
1022.3453	2954.1696	1409.7	529.85
1022.4591	2955.2582	1395.95	516
1022.5728	2956.3462	1385.55	505.15
1022.6865	2957.4335	1385.6	503.8
1022.8002	2958.5202	1383.1	501.1
1022.9138	2959.6062	1382.35	503
1023.0274	2960.6916	1373.05	494.85
1023.141	2961.7764	1381.2	501.1
1023.2545	2962.8605	1378.5	498.3
1023.3679	2963.9439	1370.15	490.95
1023.4813	2965.0267	1367.8	489.2
1023.5947	2966.1089	1385.65	483.9
1023.708	2967.1905	1369.55	490.15
1023.8213	2968.2714	1365.1	485.85
1023.9346	2969.3516	1354.5	474.85
1024.0478	2970.4312	1365.15	476.65
1024.1609	2971.5102	1353.75	474.1
1024.274	2972.5885	1357.9	479.85
1024.3871	2973.6662	1365.9	480.85
1024.5002	2974.7432	1355.15	475.5
1024.6132	2975.8196	1343.5	465.3
1024.7261	2976.8954	1347	470.25
1024.839	2977.9705	1342.7	462.25
1024.9519	2979.045	1339.55	459.85
1025.0647	2980.1188	1337.8	458.3
1025.1775	2981.192	1343.35	465.15
1025.2902	2982.2645	1338.85	458.75
1025.4029	2983.3364	1331.5	450.4
1025.5156	2984.4077	1329.6	452.4
1025.6282	2985.4783	1329.95	445
1025.7407	2986.5483	1324.75	446.4
1025.8532	2987.6177	1306.2	427.75
1025.9657	2988.6864	1308.2	427.1
1026.0782	2989.7545	1313.05	432.8
1026.1906	2990.8219	1309.25	429.25
1026.3029	2991.8887	1299.4	414.35
1026.4152	2992.9548	1299.3	419.3
1026.5275	2994.0204	1294.7	416.35
1026.6397	2995.0852	1284.1	405.95
1026.7519	2996.1495	1287.85	408.8
1026.864	2997.2131	1282.05	403.35
1026.9761	2998.276	1275.5	396
1027.0882	2999.3383	1269.8	390.8
1027.2002	3000.4	1271.15	391.4
1027.3122	3001.4611	1263.85	381.7
1027.4241	3002.5215	1258.1	378.25
1027.536	3003.5812	1263.45	384.15
1027.6478	3004.6404	1254.25	373.65
1027.7596	3005.6989	1258.45	375
1027.8714	3006.7567	1250.35	370.25
1027.9831	3007.8139	1272.95	368.7
1028.0947	3008.8705	1249.65	371.65
1028.2064	3009.9264	1249.4	364.55
1028.3179	3010.9818	1241.85	361.55
1028.4295	3012.0364	1248.4	369.2
1028.541	3013.0905	1244.2	364.25
1028.6524	3014.1439	1236.8	356.2
1028.7638	3015.1966	1232.4	354.3
1028.8752	3016.2487	1232.9	353.7
1028.9865	3017.3002	1241.2	356.55
1029.0978	3018.3511	1230.8	350.95
1029.209	3019.4013	1226.15	344.95
1029.3202	3020.4509	1223	344.8
1029.4314	3021.4998	1227.55	346.4
1029.5425	3022.5481	1226.75	348.4
1029.6535	3023.5958	1230.2	349.4
1029.7645	3024.6428	1219.5	340.55
1029.8755	3025.6892	1223.5	344.9
1029.9864	3026.735	1221.35	342.8
1030.0973	3027.7802	1216.15	335.9
1030.2082	3028.8247	1215.25	335.95
1030.319	3029.8685	1213.6	332.35
1030.4297	3030.9118	1215.8	335.9
1030.5404	3031.9544	1210.95	330.05
1030.6511	3032.9963	1208.55	330.35
1030.7617	3034.0376	1207.05	325.85
1030.8723	3035.0783	1211.8	329.1
1030.9829	3036.1184	1203.95	323.8
1031.0934	3037.1578	1201.35	323.5
1031.2038	3038.1966	1202.3	322.6
1031.3142	3039.2348	1200.25	320.55
1031.4246	3040.2723	1205.7	317.85
1031.5349	3041.3092	1198.85	321.55
1031.6452	3042.3455	1202.6	322.1
1031.7554	3043.3811	1192.65	313.6
1031.8656	3044.4161	1198.95	320.55
1031.9758	3045.4505	1191.55	311.5
1032.0859	3046.4842	1186.25	305
1032.1959	3047.5173	1192.65	314.95
1032.3059	3048.5498	1192.2	313.45
1032.4159	3049.5816	1192.05	312.85
1032.5258	3050.6128	1187.95	308.25
1032.6357	3051.6434	1187.4	305.3
1032.7455	3052.6734	1192.35	312.45
1032.8553	3053.7027	1182.25	301.25
1032.9651	3054.7314	1187.35	308.45
1033.0748	3055.7594	1179.6	298.5
1033.1845	3056.7868	1183.7	304.95
1033.2941	3057.8136	1187.15	308.6
1033.4037	3058.8398	1179.6	300.95
1033.5132	3059.8653	1179.9	301.45
1033.6227	3060.8902	1178.35	299.2
1033.7321	3061.9145	1170	291.7
1033.8415	3062.9381	1176.75	297.55
1033.9509	3063.9612	1192.05	297.7
1034.0602	3064.9835	1169.65	290.6
1034.1694	3066.0053	1173.95	291.85
1034.2787	3067.0264	1171.6	293.05
1034.3878	3068.0469	1172.7	292.45
1034.497	3069.0668	1173.3	291
1034.6061	3070.086	1173.15	294.9
1034.7151	3071.1046	1166.55	286.8
1034.8241	3072.1226	1165.45	284.05
1034.9331	3073.1399	1164.5	284.5
1035.042	3074.1567	1162.95	283.4
1035.1508	3075.1727	1167.05	287.3
1035.2597	3076.1882	1158.7	278.3
1035.3684	3077.203	1155.65	276.9
1035.4772	3078.2173	1156.55	275.25
1035.5859	3079.2308	1163.25	280.65
1035.6945	3080.2438	1160	278.15
1035.8031	3081.2561	1152.7	274.05
1035.9117	3082.2678	1152	274.05
1036.0202	3083.2789	1144.25	266.45
1036.1286	3084.2893	1148.4	269
1036.2371	3085.2991	1142.8	263.15
1036.3454	3086.3083	1152.1	266.75
1036.4538	3087.3169	1139.95	259.65
1036.562	3088.3248	1147.85	264.55
1036.6703	3089.3321	1136.9	254.8
1036.7785	3090.3388	1136.6	255.9
1036.8866	3091.3449	1135.35	256.55
1036.9948	3092.3503	1138.5	256.25
1037.1028	3093.3551	1131.5	253.6
1037.2108	3094.3593	1134.6	256.1
1037.3188	3095.3629	1131.7	254.2
1037.4267	3096.3658	1131.65	250.45
1037.5346	3097.3681	1128.9	251.35
1037.6425	3098.3698	1130.05	249
1037.7503	3099.3708	1133.8	249.9
1037.858	3100.3713	1126.15	249.05
1037.9657	3101.3711	1122.2	241.55
1038.0734	3102.3702	1254.1	237.75
1038.181	3103.3688	1123.85	241.9
1038.2886	3104.3667	1124.15	244.7
1038.3961	3105.364	1112.85	235.5
1038.5036	3106.3607	1114.5	235.25
1038.611	3107.3568	1110.25	231.5
1038.7184	3108.3522	1110.55	233.6
1038.8257	3109.347	1113.95	234.55
1038.933	3110.3412	1120.3	236.1
1039.0403	3111.3348	1109.9	229.45
1039.1475	3112.3277	1107	225.85
1039.2547	3113.32	1109.05	230.8
1039.3618	3114.3117	1106.9	227.65
1039.4689	3115.3028	1106.85	227.05
1039.5759	3116.2932	1104.9	222.05
1039.6829	3117.2831	1106.8	223.25
1039.7898	3118.2723	1101.55	221.15
1039.8967	3119.2608	1096.1	217.1
1040.0035	3120.2488	1100.05	220.15
1040.1103	3121.2361	1095.6	214.65
1040.2171	3122.2229	1092.85	211.95
1040.3238	3123.209	1097.55	217.3
1040.4305	3124.1944	1091.45	212.85
1040.5371	3125.1793	1092.45	212.5
1040.6437	3126.1635	1089.55	211.9
1040.7502	3127.1471	1086.55	207.7
1040.8567	3128.1301	1088.1	207.9
1040.9631	3129.1125	1083.1	205.55
1041.0695	3130.0942	1087.9	208.2
1041.1759	3131.0753	1099.05	210.25
1041.2822	3132.0558	1084.4	202.8
1041.3884	3133.0357	1085.25	202.7
1041.4946	3134.015	1076.7	196.55
1041.6008	3134.9936	1077.95	198
1041.7069	3135.9716	1101.95	202.3
1041.813	3136.949	1081	202.65
1041.919	3137.9258	1086.65	202.9
1042.025	3138.902	1079.1	193.75
1042.1309	3139.8775	1073.9	195.75
1042.2368	3140.8524	1077.95	198.45
1042.3427	3141.8267	1078.55	196.6
1042.4485	3142.8004	1070.65	190.4
1042.5542	3143.7735	1076.3	191.55
1042.6599	3144.7459	1075.35	194.35
1042.7656	3145.7178	1069.1	188.45
1042.8712	3146.689	1073.3	196.45
1042.9768	3147.6596	1069.95	187.95
1043.0823	3148.6295	1066.8	185.55
1043.1878	3149.5989	1065.65	184.35
1043.2932	3150.5676	1066.2	187.4
1043.3986	3151.5357	1067.1	189.25
1043.5039	3152.5032	1064.35	186.4
1043.6092	3153.4701	1065.15	184.6
1043.7145	3154.4364	1062.45	180.45
1043.8197	3155.402	1061.75	183.3
1043.9248	3156.367	1065.9	185.9
1044.03	3157.3315	1098.1	183.05
1044.135	3158.2952	1056.8	175.75
1044.24	3159.2584	1055	175.1
1044.345	3160.221	1058.45	177.65
1044.4499	3161.1829	1057.4	178.15
1044.5548	3162.1442	1055.3	174.5
1044.6596	3163.105	1050.65	170.6
1044.7644	3164.065	1054.1	174.3
1044.8692	3165.0245	1050.6	167.8
1044.9739	3165.9834	1046.45	170.25
1045.0785	3166.9416	1046.85	167.9
1045.1831	3167.8993	1047.1	166.95
1045.2877	3168.8563	1052.5	173.25
1045.3922	3169.8127	1044.35	164.7
1045.4966	3170.7684	1049.35	170.8
1045.6011	3171.7236	1041.5	160.2
1045.7054	3172.6782	1043.5	163.4
1045.8098	3173.6321	1048.1	165.9
1045.914	3174.5854	1045.7	161.85
1046.0183	3175.5381	1039.95	161.7
1046.1224	3176.4902	1038.75	158.7
1046.2266	3177.4417	1036.05	156.05
1046.3307	3178.3926	1042	163.2
1046.4347	3179.3428	1036.45	156.85
1046.5387	3180.2924	1038.4	159.05
1046.6427	3181.2415	1035.65	157.75
1046.7466	3182.1899	1036.45	155.3
1046.8504	3183.1377	1034.1	154.35
1046.9542	3184.0848	1033.9	151.1
1047.058	3185.0314	1032.1	151.15
1047.1617	3185.9773	1036.1	154.9
1047.2654	3186.9227	1029.25	148.8
1047.369	3187.8674	1033.05	154.8
1047.4726	3188.8115	1035.6	153.35
1047.5761	3189.755	1028.8	150.2
1047.6796	3190.6979	1028.5	148.3
1047.783	3191.6402	1024.75	145.15
1047.8864	3192.5818	1024.85	144.5
1047.9898	3193.5229	1030.85	147.9
1048.0931	3194.4633	1027.55	148.15
1048.1963	3195.4031	1025.1	146.85
1048.2995	3196.3423	1021.95	143.3
1048.4027	3197.2809	1022.3	141.3
1048.5058	3198.2189	1020.55	141.8
1048.6089	3199.1563	1027.35	140.85
1048.7119	3200.0931	1019.3	141.7
1048.8148	3201.0292	1020.4	138.3
1048.9178	3201.9648	1022.2	142.6
1049.0206	3202.8997	1021.95	139.45
1049.1235	3203.834	1020.8	140.65
1049.2262	3204.7677	1015.05	136.9
1049.329	3205.7008	1018	137.95
1049.4317	3206.6333	1016.15	135.7
1049.5343	3207.5652	1017	135.25
1049.6369	3208.4964	1014.4	133.95
1049.7394	3209.4271	1012.5	132.55
1049.8419	3210.3571	1012.2	132.3
1049.9444	3211.2865	1015.75	137.05
1050.0468	3212.2154	1010.05	128.95
1050.1491	3213.1436	1013.55	133.3
1050.2514	3214.0712	1019.85	134.2
1050.3537	3214.9982	1010	130.8
1050.4559	3215.9246	1015.05	134.8
1050.5581	3216.8503	1003.75	124.05
1050.6602	3217.7755	1006.6	126.75
1050.7623	3218.7001	1008.6	128.75
1050.8643	3219.624	1004.25	123.45
1050.9663	3220.5473	1008.3	128.7
1051.0682	3221.4701	1007.6	126.95
1051.1701	3222.3922	1007.25	127.65
1051.2719	3223.3137	999.5	120.05
1051.3737	3224.2346	1001.5	121.05
1051.4754	3225.1549	1001.05	120.55
1051.5771	3226.0746	1004.4	125.05
1051.6788	3226.9937	1002.7	120.9
1051.7804	3227.9121	1000.75	122.25
1051.8819	3228.83	1001.75	124.9
1051.9834	3229.7473	998.85	119.55
1052.0849	3230.6639	998.1	118.1
1052.1863	3231.5799	996.2	117.45
1052.2876	3232.4954	997.75	116.2
1052.3889	3233.4102	993.95	114.3
1052.4902	3234.3244	999.75	117.85
1052.5914	3235.238	994.05	114.45
1052.6926	3236.151	1019.95	118
1052.7937	3237.0634	994.1	115.2
1052.8948	3237.9752	992.5	113.75
1052.9958	3238.8864	990.65	109.1
1053.0968	3239.797	992.75	114.05
1053.1977	3240.7069	991.15	110.05
1053.2986	3241.6163	986.25	102.95
1053.3994	3242.5251	988.45	110.55
1053.5002	3243.4332	986	106.8
1053.6009	3244.3408	987.9	108.75
1053.7016	3245.2477	987.5	109.2
1053.8022	3246.154	986.7	105.75
1053.9028	3247.0598	983.05	102.35
1054.0034	3247.9649	985.2	104.5
1054.1039	3248.8694	986.05	106.2
1054.2043	3249.7733	985.55	106.25
1054.3047	3250.6766	984.4	104.2
1054.4051	3251.5793	982.65	102.95
1054.5054	3252.4814	978.2	99.25
1054.6056	3253.3829	980.7	100.4
1054.7058	3254.2838	980.6	103.75
1054.806	3255.1841	979.8	99.5
1054.9061	3256.0838	979.9	101.35
1055.0061	3256.9829	979.45	100.35
1055.1062	3257.8814	980.75	99.35
1055.2061	3258.7792	979.2	98.75
1055.306	3259.6765	978.8	97.35
1055.4059	3260.5731	975.55	96.5
1055.5057	3261.4692	973.65	93.65
1055.6055	3262.3647	972.4	93.45
1055.7052	3263.2595	969.1	90.45
1055.8049	3264.1538	968.9	89.9
1055.9045	3265.0474	966.2	86.05
1056.0041	3265.9404	964.45	87.15
1056.1036	3266.8329	966.35	86.95
1056.2031	3267.7247	975.7	85.35
1056.3025	3268.616	963.15	84.55
1056.4019	3269.5066	957.9	78.25
1056.5013	3270.3966	960.3	77.95
1056.6005	3271.286	955.45	77.6
