Software Version:	3.9.2.0
Unit SN:	10000200
Spectrometer SN:	6960
Date:	3/6/2024 9:59:11 AM
Data Line Index:	25
Spectral Points:	2048
Integration time (ms):	125
Averages:	20
Delay (ms):	30
Sequence Number:	1
Processing:	dark subtract
Laser Power (mW):	305
Laser Current (mA):	826
Laser Diode Temp (C):	25.1
Laser Case Temp (C):	24.6
System Temp (C):	24.4
Spectrometer Temp (C):	22
CCD Temp (C):	0.005
Secondary Temp (C):	20.013
Heatsink Temp (C):	18.327
CCDPCB Temp (C):	30.927
SecondaryPCB Temp (C):	26.225

Wavelength	RamanShift	Raw Counts	Dark Subtracted
787.061	30.1047	589.15	181.35
787.2016	32.3739	593.85	187.45
787.3422	34.6426	610.7	201.85
787.4828	36.9109	616.65	207.35
787.6235	39.1787	631.5	217.15
787.7642	41.4461	654.45	235.55
787.9049	43.7131	669.65	248.5
788.0456	45.9796	680	256.05
788.1863	48.2456	704.15	275.2
788.3271	50.5112	726.05	295.3
788.4679	52.7764	751.4	316.45
788.6087	55.0411	765.45	327.05
788.7496	57.3054	791.45	347.6
788.8904	59.5692	821	375.9
789.0313	61.8326	841.1	393.2
789.1722	64.0955	873.15	422.9
789.3132	66.3579	905.4	449.9
789.4541	68.6199	956.25	496
789.5951	70.8815	1040.55	577.55
789.7361	73.1426	1212.7	746.3
789.8771	75.4032	1632.4	1159.3
790.0181	77.6634	2696.7	2223.35
790.1592	79.9231	5357.85	4878.75
790.3003	82.1824	11248.7	10759.15
790.4414	84.4412	22281.2	21775.35
790.5825	86.6995	39577.6	39054.2
790.7237	88.9574	51107.05	50570.5
790.8648	91.2148	57599.8	57051.7
791.006	93.4717	59095.35	58539.9
791.1472	95.7282	59819.05	59257.95
791.2885	97.9842	60157.05	59591.75
791.4297	100.2398	60163.65	59596.4
791.571	102.4949	60126.15	59556.75
791.7123	104.7495	60182.95	59611.5
791.8536	107.0036	59981.4	59408.7
791.9949	109.2573	60352.85	59780.6
792.1363	111.5105	60064.35	59490.85
792.2777	113.7632	60216.25	59639.65
792.4191	116.0154	60351.3	59762.1
792.5605	118.2672	60610.35	60029.4
792.7019	120.5185	60658.05	60074.3
792.8434	122.7693	60674.3	60088
792.9849	125.0197	60330.2	59742.4
793.1264	127.2696	61009.45	60413.6
793.2679	129.519	60926.5	60327.25
793.4094	131.7679	61230.25	60629.15
793.551	134.0163	60526.4	59922.2
793.6926	136.2642	60817.15	60211.25
793.8342	138.5117	61226.05	60616.55
793.9758	140.7587	61102.9	60492.7
794.1175	143.0052	61104.1	60489.35
794.2591	145.2512	60731.65	60119.65
794.4008	147.4967	61216.85	60602.4
794.5425	149.7417	61089.55	60471.8
794.6842	151.9863	61091.9	60470.4
794.826	154.2304	60833.5	60208.8
794.9677	156.4739	61034.85	60401.9
795.1095	158.717	61328.4	60698.1
795.2513	160.9596	61133.55	60495.7
795.3931	163.2017	60820.9	60183.25
795.535	165.4433	61185.95	60542.85
795.6768	167.6844	60994.1	60352.4
795.8187	169.925	61211.6	60569
795.9606	172.1651	61008.4	60361.1
796.1025	174.4047	61150.85	60499.5
796.2445	176.6439	61141.8	60493
796.3864	178.8825	61029.65	60373.1
796.5284	181.1206	61375.75	60716.4
796.6704	183.3582	61303.95	60636.7
796.8124	185.5954	61139.05	60473.05
796.9544	187.832	61219.5	60549.75
797.0965	190.0681	61001.45	60327.25
797.2386	192.3037	61381.85	60703.8
797.3806	194.5388	61778	61097.1
797.5228	196.7734	60877.2	60196.9
797.6649	199.0075	61726.55	61043.65
797.807	201.2411	61432.45	60747.65
797.9492	203.4742	61894.9	61209.45
798.0914	205.7068	61808.95	61118.45
798.2336	207.9389	61772.6	61081.5
798.3758	210.1704	61712.25	61024.7
798.518	212.4015	62033.2	61355.3
798.6603	214.632	61664.3	60993.25
798.8025	216.862	62046.2	61376.3
798.9448	219.0915	61862.55	61192.2
799.0871	221.3205	61812.1	61140.15
799.2294	223.549	62119.3	61448.75
799.3718	225.777	62101.45	61430.95
799.5141	228.0044	62234.9	61556.65
799.6565	230.2314	62147.15	61469.7
799.7989	232.4578	62124.7	61442.1
799.9413	234.6837	62180.45	61487.9
800.0837	236.909	62637.25	61945.35
800.2262	239.1339	61962.8	61245.05
800.3687	241.3582	62285.2	61584.1
800.5111	243.582	62312.9	61575.3
800.6536	245.8053	62307.1	61588.4
800.7961	248.0281	62344.85	61629.95
800.9387	250.2503	62434.45	61714.9
801.0812	252.472	62232.15	61511.2
801.2238	254.6932	62386.7	61666.25
801.3664	256.9139	62286.65	61565.1
801.509	259.134	62682.65	61954.55
801.6516	261.3536	62226.5	61500.05
801.7942	263.5727	62538	61811.35
801.9369	265.7912	62370.05	61644.85
802.0795	268.0092	62419.1	61694.9
802.2222	270.2267	62492.85	61768.25
802.3649	272.4436	62312.75	61583.05
802.5076	274.6601	62502.3	61764.05
802.6504	276.8759	62580.05	61846.9
802.7931	279.0913	62501.65	61765.6
802.9359	281.3061	62515.6	61779.7
803.0787	283.5204	62554.85	61814.05
803.2215	285.7341	62518.05	61775.05
803.3643	287.9473	62686.25	61929.9
803.5071	290.16	62566.45	61820.8
803.6499	292.3721	62681.8	61942.05
803.7928	294.5837	62478.1	61737.35
803.9357	296.7947	62371.25	61629.95
804.0786	299.0052	62687.85	61944.7
804.2215	301.2152	62552.75	61809.3
804.3644	303.4246	62669.15	61928.6
804.5074	305.6334	62665.95	61920.95
804.6503	307.8418	62443.1	61697.9
804.7933	310.0495	62518.7	61769.65
804.9363	312.2568	62481.85	61732.55
805.0793	314.4635	62465.25	61715.95
805.2223	316.6696	62525.75	61771.85
805.3653	318.8752	62663.95	61897.35
805.5084	321.0802	62236.2	61479.05
805.6514	323.2847	62441.45	61681.1
805.7945	325.4887	62430.15	61672.05
805.9376	327.692	62346.05	61587.3
806.0807	329.8949	62482.35	61720
806.2238	332.0972	62371.25	61607.45
806.367	334.2989	62451.75	61681.65
806.5101	336.5001	62580.9	61812.05
806.6533	338.7007	62255.35	61487.45
806.7965	340.9008	62438.8	61668.8
806.9397	343.1003	62448.5	61676.75
807.0829	345.2992	62582.9	61810.9
807.2261	347.4976	62431.2	61657.5
807.3693	349.6955	62470.75	61693.4
807.5126	351.8927	62372.1	61593.25
807.6559	354.0895	62504.45	61716
807.7991	356.2856	62470.3	61690.25
807.9424	358.4812	62588.9	61808.55
808.0857	360.6763	62361.35	61577.5
808.2291	362.8707	62528.15	61743.35
808.3724	365.0646	62423.15	61634.75
808.5158	367.258	62440.75	61652.05
808.6591	369.4508	62287.25	61496.2
808.8025	371.643	62531.15	61739.9
808.9459	373.8346	62431.3	61638.2
809.0893	376.0257	62446.55	61652.65
809.2327	378.2162	62396.3	61597.6
809.3762	380.4062	62201.35	61410.6
809.5196	382.5956	62359.55	61567.1
809.6631	384.7844	62344.55	61558.4
809.8066	386.9726	62402.05	61616.1
809.9501	389.1603	62435.95	61650.95
810.0936	391.3474	62259	61439.65
810.2371	393.5339	62426.45	61635.65
810.3806	395.7199	62155.8	61370.8
810.5241	397.9052	62215.15	61428
810.6677	400.09	62279.85	61490.55
810.8113	402.2743	62371.4	61581.4
810.9548	404.4579	62236.95	61442.95
811.0984	406.641	62202.95	61408
811.2421	408.8235	62300.95	61505.4
811.3857	411.0054	62342	61546.05
811.5293	413.1868	62351.25	61549.75
811.673	415.3675	62286.9	61479.75
811.8166	417.5477	62296.65	61493.95
811.9603	419.7273	62301.85	61495.45
812.104	421.9064	62236.35	61423.95
812.2477	424.0848	62254.85	61449.25
812.3914	426.2627	62342.65	61532.65
812.5351	428.4399	62157.1	61348.6
812.6788	430.6166	61963.05	61147.85
812.8226	432.7928	62207.85	61391.7
812.9663	434.9683	61973.3	61160
813.1101	437.1432	61982.75	61167.1
813.2539	439.3176	62156.75	61343.8
813.3977	441.4914	61848.6	61038.15
813.5415	443.6645	61909.65	61096.7
813.6853	445.8371	61898.9	61085.65
813.8291	448.0091	61771.75	60959.4
813.973	450.1806	61693.15	60878.05
814.1168	452.3514	61721.6	60903.9
814.2607	454.5216	61599.65	60773.7
814.4046	456.6913	61717.15	60897.8
814.5485	458.8603	61749.25	60931.5
814.6924	461.0288	61554.25	60737.5
814.8363	463.1967	61761.05	60948.8
814.9802	465.3639	61709.55	60890.8
815.1241	467.5306	61354	60533.05
815.2681	469.6967	61539.75	60719.1
815.412	471.8622	61659.15	60844.3
815.556	474.0271	61499.05	60681.8
815.7	476.1914	61572.2	60745.4
815.844	478.3551	61565.1	60745.4
815.988	480.5182	61775.95	60955.5
816.132	482.6807	61500.25	60681.75
816.276	484.8426	61517.15	60700.65
816.4201	487.0039	61771.95	60951.7
816.5641	489.1647	61736.95	60915.45
816.7082	491.3248	61477.7	60655.75
816.8522	493.4843	61797.8	60974.95
816.9963	495.6432	61807.7	60986.15
817.1404	497.8015	61448.35	60617.75
817.2845	499.9592	61637.7	60806.55
817.4286	502.1163	61618.35	60787.3
817.5727	504.2728	61622.45	60792.8
817.7168	506.4287	61602	60778.8
817.861	508.5839	61417.7	60592.9
818.0051	510.7386	61552.05	60725.4
818.1493	512.8927	61561.65	60727.25
818.2935	515.0461	61485.3	60650.45
818.4377	517.199	61663.55	60828.45
818.5818	519.3512	61514.9	60678.9
818.726	521.5029	61489.9	60650.55
818.8703	523.6539	61528.85	60693.7
819.0145	525.8043	61275.8	60438.1
819.1587	527.9541	61497.8	60660.35
819.303	530.1033	61489.45	60652.15
819.4472	532.2519	61353.6	60514.2
819.5915	534.3999	61499.3	60659.7
819.7357	536.5472	61559.9	60721.65
819.88	538.694	61266.4	60429.65
820.0243	540.8401	61469.45	60629.85
820.1686	542.9856	61471.95	60628.7
820.3129	545.1305	61555.8	60710.05
820.4572	547.2748	61362.3	60515.4
820.6016	549.4185	61350.65	60501.15
820.7459	551.5615	61523.05	60676.45
820.8902	553.704	61445.2	60597.65
821.0346	555.8458	61315.4	60472.7
821.1789	557.987	61365.6	60524.6
821.3233	560.1276	61423.4	60576.65
821.4677	562.2675	61323.3	60476.7
821.6121	564.4069	61359.95	60515.45
821.7565	566.5456	61467.85	60626.45
821.9009	568.6837	61250.95	60407.65
822.0453	570.8212	61337.15	60492.05
822.1897	572.958	61020.6	60173.85
822.3342	575.0942	61330	60487.25
822.4786	577.2299	61051.3	60208
822.6231	579.3648	60990.1	60151.8
822.7675	581.4992	60907.7	60071.85
822.912	583.6329	60858.65	60021.5
823.0565	585.766	60876.25	60036.1
823.201	587.8985	60987.35	60148.05
823.3454	590.0304	60593.25	59735.4
823.4899	592.1616	60816.9	59964.25
823.6345	594.2922	60669.4	59819.55
823.779	596.4222	60486.65	59635.7
823.9235	598.5515	60548.65	59694.85
824.068	600.6802	60670.25	59817.05
824.2126	602.8083	60370.95	59517.1
824.3571	604.9358	60345.3	59490.75
824.5017	607.0626	60603.3	59749.95
824.6462	609.1888	60194	59337.05
824.7908	611.3144	60404.25	59545.05
824.9354	613.4393	60309.6	59451.55
825.08	615.5636	60117.75	59258.65
825.2246	617.6873	60294.25	59439.75
825.3692	619.8103	60018.9	59160.5
825.5138	621.9327	60291.9	59433.6
825.6584	624.0544	60301.5	59446.35
825.803	626.1756	60166.1	59308.25
825.9477	628.2961	60142.55	59284.05
826.0923	630.4159	59998.85	59139.25
826.237	632.5351	59936.05	59077.2
826.3816	634.6537	60348.55	59485.75
826.5263	636.7716	59886.1	59023.95
826.6709	638.8889	59982.25	59118.5
826.8156	641.0056	59936.45	59074.75
826.9603	643.1216	60020.9	59155.3
827.105	645.237	60118.5	59256.25
827.2497	647.3518	59826.85	58968.1
827.3944	649.4659	59928.55	59069.95
827.5391	651.5793	59969.4	59111.75
827.6838	653.6922	60011.75	59153.9
827.8285	655.8043	59672.1	58809.9
827.9733	657.9159	60121.15	59259.95
828.118	660.0268	59368.1	58504.7
828.2627	662.137	59747.6	58883.85
828.4075	664.2466	59797.95	58929.55
828.5522	666.3556	59632.65	58766.65
828.697	668.4639	59750.6	58885
828.8418	670.5716	59506	58645.1
828.9865	672.6786	59678.15	58814.05
829.1313	674.785	59389.4	58522.6
829.2761	676.8907	59433.25	58568.1
829.4209	678.9958	59528.4	58664.1
829.5657	681.1002	59583.7	58716.9
829.7105	683.204	59337.35	58466.8
829.8553	685.3072	59225.55	58354.35
830.0001	687.4097	59255.05	58387.35
830.1449	689.5115	59166.85	58294.35
830.2898	691.6127	59394.35	58527.1
830.4346	693.7132	59140.3	58270.25
830.5794	695.8131	59180.65	58288.65
830.7243	697.9123	59239.2	58364.7
830.8691	700.0109	59305.05	58432.6
831.014	702.1089	58966.35	58091.85
831.1588	704.2061	59089.45	58216.6
831.3037	706.3028	59068	58194.45
831.4486	708.3987	59086.8	58210.35
831.5935	710.4941	58953.05	58082.55
831.7383	712.5887	59084.7	58212.2
831.8832	714.6827	58942.4	58065
832.0281	716.7761	59044.15	58173.6
832.173	718.8688	59069.7	58196.75
832.3179	720.9608	58839.6	57961.75
832.4628	723.0522	58914.2	58034.7
832.6077	725.1429	58707.85	57830.7
832.7527	727.233	59198.5	58319.1
832.8976	729.3224	58484.5	57610
833.0425	731.4112	58669.9	57793.1
833.1874	733.4993	58669.25	57791.3
833.3324	735.5867	58663.2	57785.55
833.4773	737.6735	58540.15	57664.55
833.6222	739.7596	58348.3	57469.9
833.7672	741.845	58293.15	57417.7
833.9122	743.9298	58532.85	57653.95
834.0571	746.014	58255.65	57380.6
834.2021	748.0974	58091.25	57212.6
834.347	750.1802	58410.25	57532.15
834.492	752.2624	57930	57051.4
834.637	754.3439	57951.1	57067.45
834.782	756.4247	57989.8	57101.3
834.9269	758.5048	57793.5	56913.2
835.0719	760.5843	57861.4	56981.3
835.2169	762.6631	57835.75	56955.05
835.3619	764.7413	57741.35	56862.95
835.5069	766.8188	57762	56877.5
835.6519	768.8956	57826.75	56943.35
835.7969	770.9718	57775.5	56898.15
835.9419	773.0473	57672.45	56791.55
836.0869	775.1221	57469.8	56588.45
836.232	777.1962	57449.65	56567.85
836.377	779.2697	57174.2	56290.85
836.522	781.3426	57278.05	56377.75
836.667	783.4147	57292.55	56407.95
836.8121	785.4862	57210.45	56328.05
836.9571	787.557	56988.6	56102.75
837.1021	789.6271	57205.45	56321.2
837.2472	791.6966	56953.6	56071.15
837.3922	793.7654	56719.85	55834.35
837.5373	795.8335	56765.5	55883.25
837.6823	797.901	56776.1	55892
837.8274	799.9678	56641.1	55754
837.9724	802.0339	56512.95	55629.65
838.1175	804.0993	56529	55634.15
838.2626	806.1641	56376.5	55489.25
838.4076	808.2282	56312.6	55430.1
838.5527	810.2916	56220.85	55334.35
838.6978	812.3544	56359.5	55473.5
838.8428	814.4164	55988	55107.9
838.9879	816.4778	56043.65	55156.45
839.133	818.5385	56010.95	55125.35
839.2781	820.5986	55985	55100.65
839.4232	822.658	56014.5	55125.75
839.5682	824.7166	56019.95	55134.3
839.7133	826.7747	55775.35	54887.7
839.8584	828.832	55895.3	55008.65
840.0035	830.8886	55974.3	55085.55
840.1486	832.9446	55978.65	55089.85
840.2937	834.9999	55403.05	54513.65
840.4388	837.0545	55596.4	54706.25
840.5839	839.1085	55724.15	54833.2
840.729	841.1618	55622.3	54730.05
840.8741	843.2143	55216.8	54326.75
841.0192	845.2662	55141.25	54252.4
841.1643	847.3175	55299.3	54410.9
841.3095	849.368	54822.9	53931.8
841.4546	851.4179	55173.4	54285.2
841.5997	853.467	54785.6	53896.05
841.7448	855.5155	54965.15	54072.55
841.8899	857.5633	54687.3	53795.6
842.0351	859.6105	54534.55	53643.35
842.1802	861.6569	54696.6	53806.4
842.3253	863.7027	54326.4	53435.2
842.4704	865.7478	54401.25	53507.05
842.6156	867.7922	54302.9	53409.8
842.7607	869.8359	54483.35	53591.65
842.9058	871.8789	54076.35	53183.85
843.0509	873.9212	54260.25	53338
843.1961	875.9629	54194.45	53302.1
843.3412	878.0039	54160.35	53267.75
843.4863	880.0441	54014.25	53122.8
843.6315	882.0837	54068.8	53176.3
843.7766	884.1226	53992.4	53098.2
843.9218	886.1609	53997.2	53107.55
844.0669	888.1984	53901.75	53011.2
844.212	890.2352	54202.75	53310.75
844.3572	892.2714	53797.35	52902.55
844.5023	894.3069	53952.15	53060.2
844.6475	896.3416	53749.35	52855.65
844.7926	898.3757	53688.25	52795.85
844.9377	900.4091	53288.95	52393.45
845.0829	902.4418	53735.45	52835
845.228	904.4739	53318.95	52421.6
845.3732	906.5052	53417.2	52520.5
845.5183	908.5358	53255.15	52361.3
845.6635	910.5658	53139.95	52245.65
845.8086	912.595	53121.4	52225.75
845.9538	914.6236	52700.35	51806.7
846.0989	916.6515	53197.15	52305.85
846.2441	918.6786	52568.5	51672.45
846.3892	920.7051	52709.3	51811.95
846.5344	922.7309	52631	51735.5
846.6795	924.756	52653.9	51756.3
846.8246	926.7804	52474.95	51577.85
846.9698	928.8041	51966.15	51068.65
847.1149	930.8272	52281	51383.15
847.2601	932.8495	52183	51285.5
847.4052	934.8711	51904.8	51004.65
847.5504	936.892	51702.85	50806.7
847.6955	938.9123	51787.45	50891.25
847.8407	940.9318	51568.3	50671.95
847.9858	942.9506	51473.6	50577.55
848.131	944.9688	51482.15	50587
848.2761	946.9862	50933.2	50034.85
848.4213	949.003	51068.3	50171.45
848.5664	951.019	50620.4	49721.75
848.7115	953.0344	50659.1	49763.75
848.8567	955.0491	50535.5	49639.75
849.0018	957.063	50649.3	49751.45
849.147	959.0763	50693.9	49796.6
849.2921	961.0888	50312.35	49414
849.4373	963.1007	50539.45	49644.4
849.5824	965.1119	50525.45	49632.65
849.7275	967.1223	50275.55	49384.85
849.8727	969.1321	50458.9	49567.85
850.0178	971.1412	50110.7	49214.5
850.1629	973.1495	49853.75	48955.9
850.3081	975.1572	50045	49109.95
850.4532	977.1641	49845.2	48946.7
850.5983	979.1704	49725.7	48828.9
850.7435	981.1759	49706.65	48805.15
850.8886	983.1808	49481.55	48582.65
851.0337	985.1849	49425.85	48516.15
851.1788	987.1884	49397.7	48493.85
851.324	989.1911	49518.35	48617.85
851.4691	991.1932	48995.25	48097.4
851.6142	993.1945	49016.25	48120.25
851.7593	995.1951	48930.85	48033.15
851.9045	997.1951	48749.3	47846.6
852.0496	999.1943	48563.9	47666.4
852.1947	1001.1928	48418.6	47521.6
852.3398	1003.1906	48355.15	47456.1
852.4849	1005.1877	48042.85	47140.9
852.63	1007.1841	47915.65	47017.45
852.7751	1009.1798	47868.9	46968.8
852.9202	1011.1748	47723.45	46824.95
853.0653	1013.1691	47632.25	46730.9
853.2104	1015.1627	47097.05	46198.35
853.3555	1017.1556	46994.75	46097.35
853.5006	1019.1477	47091.3	46192.7
853.6457	1021.1392	46691.2	45793.9
853.7908	1023.1299	46401.7	45508.9
853.9359	1025.12	46422.4	45527.3
854.081	1027.1093	46186.5	45297.55
854.2261	1029.0979	46093.7	45206.35
854.3712	1031.0859	45987.5	45099.55
854.5163	1033.0731	45698	44804.5
854.6613	1035.0596	45667.15	44774.8
854.8064	1037.0454	45510.8	44613.25
854.9515	1039.0304	45311	44412.45
855.0965	1041.0148	45081.45	44183.05
855.2416	1042.9985	45050.6	44151.15
855.3867	1044.9814	45041.95	44143.3
855.5317	1046.9636	44682.65	43782.85
855.6768	1048.9452	44641.3	43743.35
855.8219	1050.926	44536.2	43637.3
855.9669	1052.9061	44462.4	43565.7
856.112	1054.8855	44413.55	43515.6
856.257	1056.8642	44223.4	43326.1
856.4021	1058.8421	44086.55	43185.45
856.5471	1060.8194	44033	43133.25
856.6921	1062.7959	43895.95	42996.8
856.8372	1064.7717	43976.35	43075.2
856.9822	1066.7469	43840.35	42941.55
857.1272	1068.7213	43814.1	42912.55
857.2723	1070.695	43711.25	42812.9
857.4173	1072.6679	43450	42550.15
857.5623	1074.6402	43532	42630.9
857.7073	1076.6117	43368.15	42463
857.8523	1078.5826	43344.95	42442.85
857.9973	1080.5527	43202.4	42299
858.1423	1082.5221	42997.45	42096.4
858.2873	1084.4908	43028.7	42128.1
858.4323	1086.4587	42882.25	41983.75
858.5773	1088.426	42818.1	41916.65
858.7223	1090.3925	42643.5	41740.55
858.8673	1092.3584	42625.55	41723.2
859.0123	1094.3235	42409.8	41509.5
859.1573	1096.2879	42364.2	41463.5
859.3022	1098.2515	42326.5	41428
859.4472	1100.2145	42321.95	41424.1
859.5922	1102.1767	42199.75	41299.75
859.7371	1104.1382	42153.8	41256.25
859.8821	1106.099	42066.85	41165.55
860.027	1108.0591	41980.65	41080.75
860.172	1110.0185	41792.6	40890.2
860.3169	1111.9771	41930.15	41030.15
860.4619	1113.9351	41639.25	40740
860.6068	1115.8923	41479.45	40576.2
860.7517	1117.8488	41314.5	40412.75
860.8967	1119.8045	41049.8	40148.9
861.0416	1121.7596	41049.8	40151
861.1865	1123.7139	40883.2	39984.55
861.3314	1125.6675	40827.25	39926
861.4763	1127.6204	40827.6	39928.25
861.6212	1129.5726	40611.25	39711.3
861.7661	1131.524	40601.25	39703.6
861.911	1133.4748	40508.65	39606
862.0559	1135.4248	40389.05	39487.7
862.2008	1137.3741	40313.25	39413.5
862.3457	1139.3226	40180.4	39280.1
862.4905	1141.2705	40151.2	39254.1
862.6354	1143.2176	39962.05	39059.75
862.7803	1145.164	39870.6	38971
862.9251	1147.1097	39821.25	38921.45
863.07	1149.0546	39734.05	38831.15
863.2148	1150.9989	39695.9	38794.15
863.3597	1152.9424	39555.1	38654.8
863.5045	1154.8852	39525.5	38624.85
863.6493	1156.8272	39423.5	38523.85
863.7942	1158.7686	39486.45	38579.35
863.939	1160.7092	39294.05	38393.25
864.0838	1162.6491	39188.95	38285.75
864.2286	1164.5883	39184.25	38283.6
864.3734	1166.5267	39055.4	38156.45
864.5182	1168.4644	39081.8	38180
864.663	1170.4014	39031.15	38127.65
864.8078	1172.3377	39111.35	38213.85
864.9526	1174.2732	39136.9	38239.4
865.0974	1176.2081	39146.45	38246.2
865.2421	1178.1421	39157.3	38253.4
865.3869	1180.0755	39242.6	38344.4
865.5317	1182.0082	39030.85	38130.1
865.6764	1183.9401	39045	38145.55
865.8212	1185.8713	38861.25	37963.5
865.9659	1187.8017	38733.45	37837.15
866.1106	1189.7315	38671.1	37779.3
866.2554	1191.6605	38389.45	37497.1
866.4001	1193.5888	38190.95	37296.7
866.5448	1195.5163	38032.75	37136.55
866.6895	1197.4432	37920.35	37018.1
866.8342	1199.3693	37867.05	36969.15
866.9789	1201.2947	37670.65	36762.95
867.1236	1203.2193	37551.45	36653.05
867.2683	1205.1432	37501.2	36603.6
867.413	1207.0664	37328.8	36428.35
867.5576	1208.9889	37237.05	36336.65
867.7023	1210.9106	37114.5	36216.4
867.847	1212.8316	36963.2	36064
867.9916	1214.7519	36872.8	35963.2
868.1363	1216.6715	36801.1	35901
868.2809	1218.5903	36749.7	35851.65
868.4255	1220.5084	36672.2	35771.55
868.5701	1222.4257	36715.8	35817.85
868.7148	1224.3424	36515.3	35617.1
868.8594	1226.2583	36475.45	35572.65
869.004	1228.1735	36391.15	35490.5
869.1486	1230.0879	36254.15	35353.05
869.2932	1232.0016	36220.6	35322.2
869.4377	1233.9146	36126.25	35224.3
869.5823	1235.8269	36026.25	35125.7
869.7269	1237.7384	36006.6	35109
869.8715	1239.6492	35839.8	34939.95
870.016	1241.5592	35806.6	34908.15
870.1606	1243.4686	35614.05	34714.35
870.3051	1245.3772	35625.5	34728.1
870.4496	1247.285	35549.7	34653.2
870.5941	1249.1922	35477.55	34577.75
870.7387	1251.0986	35467.25	34567.05
870.8832	1253.0042	35314.1	34415.75
871.0277	1254.9092	35303.85	34406.4
871.1722	1256.8134	35206.15	34308.35
871.3167	1258.7169	35218.5	34319.6
871.4611	1260.6196	35077.65	34180.45
871.6056	1262.5216	35126.45	34225.05
871.7501	1264.4229	35077.4	34178.35
871.8945	1266.3234	35164.95	34266.45
872.039	1268.2232	35080.25	34180.7
872.1834	1270.1223	35021.65	34123.25
872.3278	1272.0207	34972.5	34070.9
872.4723	1273.9183	34917.75	34012.75
872.6167	1275.8151	34799.8	33899.2
872.7611	1277.7113	34795.4	33893.85
872.9055	1279.6067	34626.45	33725.55
873.0499	1281.5014	34614.45	33713.7
873.1943	1283.3953	34640.4	33738.75
873.3386	1285.2885	34658.5	33757.85
873.483	1287.181	34717.8	33817
873.6274	1289.0727	34817.45	33918.75
873.7717	1290.9637	34781	33880.65
873.9161	1292.854	34828.65	33928.4
874.0604	1294.7435	34694.8	33794.75
874.2047	1296.6323	34636.9	33736.55
874.349	1298.5204	34528.15	33625.35
874.4933	1300.4077	34534.45	33633.7
874.6376	1302.2943	34401.5	33501.25
874.7819	1304.1802	34373.15	33474.35
874.9262	1306.0653	34140.8	33241.05
875.0705	1307.9497	34044.85	33144.4
875.2147	1309.8333	33861.3	32962.6
875.359	1311.7162	33787.8	32889.25
875.5032	1313.5984	33777.6	32876.7
875.6475	1315.4798	33551.15	32651
875.7917	1317.3605	33527.15	32612.4
875.9359	1319.2405	33481.2	32579.45
876.0801	1321.1197	33333.9	32432.55
876.2243	1322.9982	33185.85	32281.7
876.3685	1324.876	33143.3	32243.7
876.5127	1326.753	32979.75	32081.5
876.6569	1328.6293	32944.15	32042.2
876.801	1330.5048	32959.25	32056.45
876.9452	1332.3796	32768.45	31869.15
877.0893	1334.2537	32778.05	31851.05
877.2335	1336.127	32643.65	31743.1
877.3776	1337.9996	32582.65	31683.85
877.5217	1339.8714	32537.85	31639.5
877.6658	1341.7426	32496.25	31551.35
877.8099	1343.6129	32481.35	31578.8
877.954	1345.4826	32348.1	31446.9
878.0981	1347.3515	32327.5	31423.75
878.2422	1349.2196	32230.6	31327.85
878.3862	1351.087	32219.95	31317.8
878.5303	1352.9537	32225.5	31323.2
878.6743	1354.8197	32213.45	31312.65
878.8184	1356.6849	32244.7	31343.3
878.9624	1358.5493	32169.35	31268.15
879.1064	1360.4131	32104.95	31203.1
879.2504	1362.276	32118.6	31219.65
879.3944	1364.1383	31988.35	31089.4
879.5384	1365.9998	31890.3	30982.25
879.6823	1367.8606	31734.25	30832.55
879.8263	1369.7206	31603.15	30702.2
879.9702	1371.5799	31392	30491.65
880.1142	1373.4384	31253.2	30351.75
880.2581	1375.2962	31257.15	30355.8
880.402	1377.1533	31016.35	30118.3
880.5459	1379.0096	30789.5	29891.15
880.6898	1380.8652	30654.95	29754.4
880.8337	1382.7201	30538.45	29639.45
880.9776	1384.5742	30278.1	29377.6
881.1215	1386.4275	30158.05	29256.7
881.2653	1388.2802	30034	29134.9
881.4092	1390.132	29901.6	29001.9
881.553	1391.9832	29838.45	28935.5
881.6968	1393.8336	29703.85	28805.3
881.8406	1395.6832	29610.9	28709
881.9844	1397.5322	29486.4	28584.95
882.1282	1399.3803	29408.95	28505.2
882.272	1401.2278	29257.55	28356.95
882.4158	1403.0745	29180.45	28280
882.5595	1404.9204	29036.3	28139.15
882.7033	1406.7656	29039.85	28139.9
882.847	1408.6101	28907.1	28006.65
882.9908	1410.4538	28808.15	27908.2
883.1345	1412.2968	28773.65	27870.8
883.2782	1414.139	28659.8	27760
883.4219	1415.9805	28613.6	27716.5
883.5656	1417.8213	28552.5	27648.15
883.7092	1419.6613	28446.05	27548.65
883.8529	1421.5006	28417.25	27517.15
883.9965	1423.3391	28425.75	27526.5
884.1402	1425.1769	28360.55	27460.55
884.2838	1427.0139	28418.75	27518.7
884.4274	1428.8502	28498.4	27597.25
884.571	1430.6858	28547.85	27650.5
884.7146	1432.5206	28494.6	27596.05
884.8582	1434.3547	28554.35	27653.15
885.0018	1436.188	28479.05	27579.5
885.1453	1438.0206	28421.85	27523.35
885.2889	1439.8524	28295.65	27396.35
885.4324	1441.6835	28243.6	27343.1
885.5759	1443.5139	28162.6	27258.45
885.7194	1445.3435	28091.45	27189.9
885.8629	1447.1724	28037.55	27141.35
886.0064	1449.0005	27996.2	27097.45
886.1499	1450.8279	27918.7	27019.7
886.2933	1452.6545	27855	26955.7
886.4368	1454.4804	27887.2	26991.05
886.5802	1456.3056	27814.8	26910.4
886.7237	1458.13	27739.35	26840.95
886.8671	1459.9536	27690.9	26791.5
887.0105	1461.7766	27601.5	26703.05
887.1539	1463.5987	27405.65	26506.3
887.2972	1465.4202	27321.45	26424.45
887.4406	1467.2409	27141.2	26242.55
887.584	1469.0608	27122.45	26223.4
887.7273	1470.88	26936.15	26036.15
887.8706	1472.6984	26887.45	25987.9
888.0139	1474.5161	26730.55	25828.2
888.1572	1476.3331	26625.15	25727.15
888.3005	1478.1493	26587.85	25688.45
888.4438	1479.9648	26580.15	25683.7
888.5871	1481.7795	26503.25	25603.8
888.7303	1483.5935	26413.45	25516.95
888.8736	1485.4067	26309.65	25411.5
889.0168	1487.2192	26326.65	25427.1
889.16	1489.031	26279.85	25381.9
889.3032	1490.842	26229.65	25329.85
889.4464	1492.6522	26248.85	25351.55
889.5896	1494.4618	26118.3	25218.9
889.7327	1496.2705	26052.15	25153.8
889.8759	1498.0785	25996.4	25097.95
890.019	1499.8858	25927.85	25028.35
890.1622	1501.6924	25871.7	24975.45
890.3053	1503.4981	25837.6	24940.35
890.4484	1505.3032	25751.1	24854.35
890.5914	1507.1075	25711.3	24814.3
890.7345	1508.911	25643.7	24748.6
890.8776	1510.7138	25581.45	24681.4
891.0206	1512.5159	25456.6	24557.4
891.1637	1514.3172	25430.6	24533.15
891.3067	1516.1178	25312.95	24415.9
891.4497	1517.9176	25280.1	24377.2
891.5927	1519.7166	25220	24321.7
891.7357	1521.515	25199.55	24296.65
891.8786	1523.3126	25110.65	24212.3
892.0216	1525.1094	25023.05	24125.95
892.1645	1526.9055	24968.35	24073.05
892.3074	1528.7008	24857	23958.65
892.4503	1530.4954	24724.25	23826.25
892.5932	1532.2893	24706.2	23810.6
892.7361	1534.0824	24540.3	23640.05
892.879	1535.8747	24524.3	23626.65
893.0218	1537.6663	24449.35	23553.6
893.1647	1539.4572	24354.05	23455.75
893.3075	1541.2473	24313.85	23416.3
893.4503	1543.0367	24250	23354.8
893.5931	1544.8253	24129.25	23229.4
893.7359	1546.6132	24146.15	23246.45
893.8787	1548.4003	24064.7	23159.35
894.0214	1550.1867	24067.9	23164.7
894.1642	1551.9723	23958.5	23059.45
894.3069	1553.7572	23922.5	23027.75
894.4496	1555.5414	23905.95	23011.25
894.5923	1557.3247	23904	23011.35
894.735	1559.1074	23815.2	22923.2
894.8777	1560.8893	23788.7	22895.9
895.0204	1562.6705	23714.9	22822
895.163	1564.4509	23670.25	22776.6
895.3056	1566.2305	23581.25	22689.7
895.4482	1568.0094	23665.05	22773.95
895.5908	1569.7876	23623.8	22733.55
895.7334	1571.565	23575	22681.2
895.876	1573.3417	23569.7	22676.65
896.0186	1575.1176	23503.2	22609.15
896.1611	1576.8928	23438.2	22544.6
896.3036	1578.6672	23343.5	22453.9
896.4461	1580.4409	23259.95	22373.05
896.5886	1582.2138	23195.55	22304.45
896.7311	1583.986	23123.3	22231.2
896.8736	1585.7575	23113.2	22224.55
897.0161	1587.5282	23040	22150.15
897.1585	1589.2981	23077.05	22190.15
897.3009	1591.0673	22948.95	22059.2
897.4433	1592.8358	22951.3	22062.35
897.5857	1594.6035	22936.85	22043.95
897.7281	1596.3704	22875.2	21984
897.8705	1598.1366	22815.5	21925.6
898.0128	1599.9021	22787.7	21898.1
898.1551	1601.6668	22707.75	21816.25
898.2975	1603.4308	22652.25	21759.6
898.4398	1605.194	22653.15	21760.25
898.5821	1606.9564	22647.6	21759.15
898.7243	1608.7182	22682.8	21792.2
898.8666	1610.4791	22653.85	21770.5
899.0088	1612.2394	22653.75	21770.7
899.1511	1613.9988	22639.45	21752.5
899.2933	1615.7576	22680.65	21792.8
899.4355	1617.5156	22712.45	21815.9
899.5776	1619.2728	22727.5	21837.1
899.7198	1621.0293	22654.7	21765.4
899.862	1622.785	22534.2	21641.15
900.0041	1624.54	22376.55	21487.5
900.1462	1626.2942	22266.95	21377.35
900.2883	1628.0477	22079.85	21186.2
900.4304	1629.8005	21962.35	21070.35
900.5725	1631.5525	21853.3	20966.35
900.7145	1633.3037	21756.65	20870.7
900.8566	1635.0542	21653.45	20765.9
900.9986	1636.804	21537.85	20649
901.1406	1638.553	21544.4	20612.15
901.2826	1640.3013	21407.75	20519.3
901.4245	1642.0488	21308.55	20418.8
901.5665	1643.7955	21311.35	20424.7
901.7085	1645.5416	21260.15	20372.4
901.8504	1647.2868	21196.6	20310.4
901.9923	1649.0313	21194.25	20304.1
902.1342	1650.7751	21154.35	20265.35
902.2761	1652.5181	21160.9	20275.15
902.4179	1654.2604	21107.4	20222.85
902.5598	1656.0019	21114.05	20229.45
902.7016	1657.7427	21126.4	20239.1
902.8434	1659.4828	21179.15	20291.4
902.9852	1661.222	21140.9	20252.85
903.127	1662.9606	21074.35	20186.35
903.2687	1664.6984	20973.7	20086.85
903.4105	1666.4354	20865.95	19976.1
903.5522	1668.1717	20712.7	19824.2
903.6939	1669.9072	20479.45	19590.65
903.8356	1671.642	20366.7	19476.85
903.9773	1673.3761	20286.8	19398.45
904.119	1675.1094	20090.45	19202.75
904.2606	1676.8419	19973.95	19089.1
904.4022	1678.5737	19883.1	18996.75
904.5439	1680.3048	19767.65	18879.4
904.6855	1682.0351	19665.05	18776.75
904.827	1683.7646	19555.15	18664.3
904.9686	1685.4934	19471.35	18584.75
905.1101	1687.2215	19410.5	18519.85
905.2517	1688.9488	19289.6	18402.9
905.3932	1690.6754	19226.25	18341.15
905.5347	1692.4012	19168.25	18283
905.6761	1694.1263	19135.2	18245.85
905.8176	1695.8506	19076.4	18187.6
905.9591	1697.5742	18999.4	18112.9
906.1005	1699.297	18904	18017.35
906.2419	1701.0191	18845	17958.4
906.3833	1702.7404	18773.3	17888.95
906.5246	1704.461	18634.7	17747.2
906.666	1706.1808	18604.45	17718.8
906.8073	1707.8999	18554.75	17667.6
906.9487	1709.6182	18486.1	17600.25
907.09	1711.3358	18419.1	17533.4
907.2313	1713.0527	18376.3	17494.4
907.3725	1714.7688	18311.45	17419.15
907.5138	1716.4841	18225.65	17338.9
907.655	1718.1987	18207.85	17316.4
907.7962	1719.9126	18181.9	17296.65
907.9374	1721.6257	18098.2	17210.05
908.0786	1723.338	18060.15	17173.8
908.2198	1725.0496	17992.5	17105.6
908.3609	1726.7605	17952.5	17066.85
908.502	1728.4706	17892.1	17005.7
908.6431	1730.18	17806.35	16918.7
908.7842	1731.8886	17801.6	16916.9
908.9253	1733.5964	17755.7	16863.05
909.0664	1735.3036	17719.75	16829.05
909.2074	1737.0099	17651.1	16765.4
909.3484	1738.7156	17598.45	16713.05
909.4894	1740.4204	17504.6	16616.05
909.6304	1742.1246	17506.25	16618.75
909.7714	1743.8279	17436.05	16551.05
909.9123	1745.5306	17405.4	16519.7
910.0532	1747.2325	17365.6	16483.5
910.1941	1748.9336	17337.15	16453.55
910.335	1750.634	17253.85	16366.6
910.4759	1752.3336	17243.65	16361
910.6168	1754.0325	17213.6	16330.3
910.7576	1755.7307	17149.85	16265.8
910.8984	1757.4281	17170.45	16285.55
911.0392	1759.1247	17147.2	16253.7
911.18	1760.8206	17113.2	16222.3
911.3208	1762.5158	17062.5	16170.15
911.4615	1764.2102	16980.45	16093.9
911.6022	1765.9039	16944.8	16061.4
911.7429	1767.5968	16928.8	16045.75
911.8836	1769.289	16855.65	15969.6
912.0243	1770.9804	16809.1	15923.95
912.1649	1772.6711	16775.8	15889.35
912.3056	1774.361	16775.65	15890.3
912.4462	1776.0502	16721.5	15836.25
912.5868	1777.7386	16688.85	15801.7
912.7274	1779.4263	16610.05	15724.85
912.8679	1781.1132	16634.4	15749.55
913.0084	1782.7994	16506.85	15621.5
913.149	1784.4849	16510.55	15627.9
913.2895	1786.1696	16494.55	15590.6
913.4299	1787.8535	16455.45	15573.5
913.5704	1789.5367	16396.35	15513.15
913.7108	1791.2192	16369.3	15485.65
913.8513	1792.9009	16316.1	15398.25
913.9917	1794.5818	16281.4	15396.25
914.132	1796.2621	16255.3	15371.5
914.2724	1797.9415	16196.9	15311.65
914.4128	1799.6202	16128.45	15242.45
914.5531	1801.2982	16083.5	15199.25
914.6934	1802.9755	16070.5	15186.3
914.8337	1804.6519	16053.85	15167.9
914.9739	1806.3277	15992.45	15110.35
915.1142	1808.0027	15947.95	15065.4
915.2544	1809.6769	15919.15	15037.15
915.3946	1811.3504	15890.9	15007.95
915.5348	1813.0231	15853.55	14969.85
915.675	1814.6951	15830.9	14947.85
915.8151	1816.3664	15830	14944.2
915.9553	1818.0369	15800.3	14918.3
916.0954	1819.7067	15702.35	14819.5
916.2355	1821.3757	15696.1	14808.9
916.3755	1823.044	15665	14777.5
916.5156	1824.7115	15622.95	14737.9
916.6556	1826.3783	15560.45	14677.05
916.7956	1828.0443	15496.95	14614.1
916.9356	1829.7096	15488.2	14603.5
917.0756	1831.3741	15462.15	14575.8
917.2155	1833.0379	15442.55	14558.05
917.3555	1834.701	15393	14508
917.4954	1836.3633	15377.65	14492.95
917.6353	1838.0248	15308.4	14421.7
917.7751	1839.6856	15285.9	14402
917.915	1841.3457	15281.6	14397.9
918.0548	1843.005	15220.6	14335.7
918.1946	1844.6636	15224.05	14339.9
918.3344	1846.3214	15186.5	14301.85
918.4742	1847.9785	15175.9	14291
918.6139	1849.6349	15118.9	14233.65
918.7537	1851.2904	15090	14198.55
918.8934	1852.9453	15057.15	14172.3
919.0331	1854.5994	15009.55	14120.5
919.1727	1856.2528	15001.25	14111.15
919.3124	1857.9054	14945.5	14059.3
919.452	1859.5572	14940	14056.75
919.5916	1861.2083	14939.2	14053.75
919.7312	1862.8587	14929.1	14045.6
919.8708	1864.5084	14864.65	13976.25
920.0103	1866.1572	14808.8	13924.85
920.1498	1867.8054	14746.05	13860.55
920.2893	1869.4528	14712.65	13827.9
920.4288	1871.0994	14695.95	13811.05
920.5683	1872.7453	14644.5	13758.05
920.7077	1874.3905	14621.75	13730.3
920.8471	1876.0349	14576.85	13688.85
920.9865	1877.6786	14602.8	13715.55
921.1259	1879.3215	14575.3	13690.6
921.2653	1880.9637	14561.35	13675.55
921.4046	1882.6051	14490.6	13608.1
921.5439	1884.2458	14451.9	13566.45
921.6832	1885.8858	14413.05	13528.95
921.8225	1887.525	14382.25	13495.95
921.9617	1889.1634	14336.35	13453.4
922.101	1890.8011	14281.05	13398.25
922.2402	1892.4381	14270.25	13384.4
922.3794	1894.0743	14254.15	13368
922.5185	1895.7098	14236.65	13352.75
922.6577	1897.3446	14197.15	13312.6
922.7968	1898.9786	14143.05	13254.7
922.9359	1900.6118	14125	13240.75
923.075	1902.2443	14047.7	13161.7
923.214	1903.8761	14049.75	13164.95
923.3531	1905.5071	13952.85	13067.5
923.4921	1907.1374	13908.05	13022.75
923.6311	1908.7669	13873.9	12991.25
923.77	1910.3957	13880.55	12996.1
923.909	1912.0237	13789.65	12905.25
924.0479	1913.651	13771.7	12885.95
924.1868	1915.2776	13757.55	12877.05
924.3257	1916.9034	13680.1	12796
924.4646	1918.5285	13640.7	12757.4
924.6034	1920.1528	13612.9	12729.25
924.7422	1921.7764	13578.15	12694.95
924.881	1923.3992	13477.85	12593.8
925.0198	1925.0213	13414.4	12531.2
925.1586	1926.6427	13360.7	12477.5
925.2973	1928.2633	13548.05	12413.7
925.436	1929.8832	13364.7	12476.95
925.5747	1931.5023	13257.75	12376.45
925.7134	1933.1207	13235.55	12348.85
925.852	1934.7383	13201.2	12318.2
925.9906	1936.3552	13166.65	12283.15
926.1292	1937.9714	13146.75	12261.8
926.2678	1939.5868	13087.5	12199.45
926.4064	1941.2015	13029.85	12143.55
926.5449	1942.8154	12987.4	12101.1
926.6834	1944.4286	12932.35	12048.6
926.8219	1946.041	12901.9	11992.8
926.9604	1947.6528	12835.25	11943.85
927.0988	1949.2637	12821.7	11938.85
927.2372	1950.8739	12758.45	11875.05
927.3756	1952.4834	12753.05	11869.1
927.514	1954.0921	12722.15	11835.3
927.6523	1955.7001	12677.1	11788.6
927.7907	1957.3074	12642.45	11759.1
927.929	1958.9139	12563.75	11681.9
928.0673	1960.5197	12528.55	11644.6
928.2055	1962.1247	12490.5	11607.55
928.3438	1963.729	12426.4	11545.2
928.482	1965.3325	12392.35	11486.65
928.6202	1966.9353	12350.4	11469.25
928.7584	1968.5374	12315.4	11430.5
928.8965	1970.1387	12304.1	11421.35
929.0346	1971.7393	12256.55	11373.25
929.1727	1973.3392	12219.3	11336.6
929.3108	1974.9383	12151.2	11268.55
929.4489	1976.5366	12100.75	11218.75
929.5869	1978.1342	12096.8	11214.45
929.7249	1979.7311	12083.15	11200.55
929.8629	1981.3273	12035.45	11152.85
930.0009	1982.9227	11962.8	11079.75
930.1388	1984.5173	11947.9	11067.35
930.2767	1986.1112	11892.5	11010.35
930.4146	1987.7044	11862.05	10980.1
930.5525	1989.2968	11864.85	10981.15
930.6904	1990.8885	11848.55	10965.05
930.8282	1992.4795	11816.75	10934.2
930.966	1994.0697	11775.35	10894.1
931.1038	1995.6592	11729	10845.75
931.2415	1997.2479	11685.4	10801.9
931.3793	1998.8359	11676.05	10794.3
931.517	2000.4232	11614.25	10733
931.6547	2002.0097	11571.9	10693.1
931.7923	2003.5955	11516.25	10634.1
931.93	2005.1805	11530.5	10648.5
932.0676	2006.7648	11493.95	10613.8
932.2052	2008.3484	11460.45	10577.05
932.3427	2009.9312	11455.35	10573.05
932.4803	2011.5133	11426.1	10548.7
932.6178	2013.0946	11396.95	10516.25
932.7553	2014.6752	11353.85	10474.75
932.8928	2016.2551	11347.1	10465.4
933.0302	2017.8342	11286.8	10406.65
933.1676	2019.4126	11235.35	10355.15
933.305	2020.9902	11194.45	10315.45
933.4424	2022.5672	11172.5	10291.7
933.5798	2024.1433	11171.5	10285.25
933.7171	2025.7188	11116.05	10237.4
933.8544	2027.2935	11084.7	10201.55
933.9917	2028.8674	11045.1	10164.6
934.129	2030.4406	11011.45	10132.85
934.2662	2032.0131	10948.45	10070.1
934.4034	2033.5849	10913.75	10026.5
934.5406	2035.1559	10915.2	10035.45
934.6778	2036.7261	10904.25	10023.85
934.8149	2038.2957	10877.05	9997.35
934.952	2039.8645	10845.2	9964.45
935.0891	2041.4325	10852.05	9967.85
935.2262	2042.9998	10797.1	9916.55
935.3632	2044.5664	10809.3	9925.55
935.5002	2046.1323	10745.55	9865.2
935.6372	2047.6974	10682.95	9803.45
935.7742	2049.2617	10667.9	9790.7
935.9111	2050.8254	10666.65	9782.05
936.048	2052.3883	10650.15	9768.95
936.1849	2053.9504	10628	9747.15
936.3218	2055.5118	10569.2	9687.85
936.4586	2057.0725	10539.75	9655.6
936.5955	2058.6325	10499.15	9618.15
936.7323	2060.1917	10470.7	9590.75
936.869	2061.7502	10479.8	9596.85
937.0058	2063.3079	10433.3	9555.5
937.1425	2064.8649	10417.5	9536.05
937.2792	2066.4212	10370.6	9488.6
937.4159	2067.9767	10356.4	9479.05
937.5525	2069.5315	10288.55	9409.4
937.6891	2071.0856	10265.7	9384.3
937.8257	2072.6389	10236.35	9354.75
937.9623	2074.1915	10203.5	9324.7
938.0989	2075.7433	10132.3	9249.95
938.2354	2077.2945	10127.3	9250.85
938.3719	2078.8448	10099.4	9219.05
938.5084	2080.3945	10057.25	9176.25
938.6448	2081.9434	10070	9188.65
938.7812	2083.4916	10026.25	9144.15
938.9176	2085.039	9997.65	9114.65
939.054	2086.5857	9988.8	9105.5
939.1903	2088.1317	9947.95	9063.6
939.3267	2089.677	9939.15	9056.9
939.463	2091.2215	9883.75	9002.35
939.5992	2092.7652	9862.1	8976.7
939.7355	2094.3083	9856.25	8971.3
939.8717	2095.8506	9854.2	8972.55
940.0079	2097.3921	9834.4	8953.65
940.1441	2098.933	9794	8911.1
940.2802	2100.4731	9760.35	8878.75
940.4163	2102.0124	9741.75	8843
940.5524	2103.5511	9733.85	8851
940.6885	2105.089	9697.65	8817
940.8245	2106.6261	9712.45	8829
940.9606	2108.1626	9650.55	8768.45
941.0965	2109.6983	9669	8757.8
941.2325	2111.2332	9638.25	8756.8
941.3684	2112.7675	9601.45	8716.9
941.5044	2114.301	9564.6	8680.3
941.6403	2115.8337	9574.2	8691.8
941.7761	2117.3657	9526.6	8645.45
941.912	2118.897	9495.75	8611.45
942.0478	2120.4276	9481.7	8593.4
942.1835	2121.9575	9428.5	8543.9
942.3193	2123.4866	9431.4	8534.4
942.455	2125.0149	9414.35	8527.85
942.5907	2126.5426	9348.9	8467.6
942.7264	2128.0695	9341.35	8455.4
942.8621	2129.5956	9339.4	8459.8
942.9977	2131.1211	9318.95	8435.15
943.1333	2132.6458	9299.9	8419.2
943.2689	2134.1698	9263.5	8381.35
943.4044	2135.693	9236.5	8351.6
943.54	2137.2155	9222.65	8338.75
943.6755	2138.7373	9221.05	8337.4
943.8109	2140.2584	9159.6	8278.3
943.9464	2141.7787	9146.9	8261.25
944.0818	2143.2983	9104.1	8225.95
944.2172	2144.8171	9075.95	8197.35
944.3526	2146.3353	9039.35	8156.45
944.4879	2147.8527	9002.65	8122.4
944.6232	2149.3693	8989.4	8108.4
944.7585	2150.8853	8948.1	8064.6
944.8938	2152.4005	8923	8039.5
945.029	2153.9149	8907.15	8024
945.1642	2155.4287	8882.2	7998.35
945.2994	2156.9417	8891.75	8009.65
945.4346	2158.454	8852.1	7967.95
945.5697	2159.9655	8809.7	7929.1
945.7048	2161.4764	8795.9	7916.05
945.8399	2162.9865	8783.2	7902.3
945.9749	2164.4958	8758.4	7876.15
946.1099	2166.0045	8743.85	7858.4
946.2449	2167.5124	8706.65	7826.05
946.3799	2169.0195	8681.45	7799.45
946.5148	2170.526	8699.15	7816.35
946.6498	2172.0317	8648.3	7766.3
946.7846	2173.5367	8622.3	7739.65
946.9195	2175.0409	8604.45	7724.6
947.0543	2176.5445	8605.8	7724.6
947.1891	2178.0473	8584.3	7700.8
947.3239	2179.5494	8534.3	7647.2
947.4587	2181.0507	8513.95	7633.3
947.5934	2182.5513	8481.5	7598.9
947.7281	2184.0512	8482.05	7600.4
947.8628	2185.5504	8435.2	7555.45
947.9974	2187.0488	8382.75	7500.85
948.132	2188.5465	8377.85	7496.35
948.2666	2190.0435	8353.45	7469.55
948.4012	2191.5397	8311.85	7432.05
948.5357	2193.0353	8306	7423.3
948.6702	2194.5301	8274.05	7390.2
948.8047	2196.0241	8235.7	7353.2
948.9392	2197.5175	8226.8	7343.45
949.0736	2199.0101	8187.2	7302.85
949.208	2200.502	8160.95	7278.45
949.3424	2201.9931	8129.3	7247.3
949.4767	2203.4835	8125.35	7242.8
949.611	2204.9733	8111.65	7226.05
949.7453	2206.4622	8080.5	7198.45
949.8796	2207.9505	8060	7178.05
950.0138	2209.438	7992.15	7113.45
950.148	2210.9248	7985.55	7103.4
950.2822	2212.4109	7979	7098.55
950.4164	2213.8962	7933.65	7047.55
950.5505	2215.3809	7915	7030.9
950.6846	2216.8648	7918.45	7035.3
950.8186	2218.3479	7883	6994.7
950.9527	2219.8304	7846.5	6959.45
951.0867	2221.3121	7829.85	6944
951.2207	2222.7931	7809.3	6926.55
951.3546	2224.2733	7791.3	6905.65
951.4886	2225.7529	7752.5	6868.65
951.6225	2227.2317	7735.4	6850.9
951.7563	2228.7098	7749.7	6869.8
951.8902	2230.1872	7675.9	6793.85
952.024	2231.6638	7672.5	6792.35
952.1578	2233.1397	7643.9	6758.5
952.2916	2234.6149	7630.8	6749.25
952.4253	2236.0894	7589.7	6708.5
952.559	2237.5632	7588.55	6697.8
952.6927	2239.0362	7541.4	6657.75
952.8263	2240.5085	7518.5	6635.25
952.9599	2241.9801	7507.85	6625.6
953.0935	2243.4509	7482.35	6599.4
953.2271	2244.921	7457.7	6573.2
953.3606	2246.3904	7435.3	6549.65
953.4941	2247.8591	7412.15	6527.15
953.6276	2249.3271	7393.6	6510.6
953.7611	2250.7943	7346.2	6462.1
953.8945	2252.2608	7339.15	6455.45
954.0279	2253.7266	7323.45	6439.15
954.1612	2255.1917	7308.75	6425
954.2946	2256.656	7276.15	6393.85
954.4279	2258.1197	7250.75	6369.65
954.5612	2259.5826	7242.75	6359.45
954.6944	2261.0447	7230.6	6346.8
954.8276	2262.5062	7195.05	6310.05
954.9608	2263.9669	7187.55	6302
955.094	2265.4269	7167.7	6284.5
955.2271	2266.8862	7161.3	6280.35
955.3602	2268.3448	7152.85	6268.9
955.4933	2269.8026	7143.85	6262.1
955.6264	2271.2598	7112.75	6232.3
955.7594	2272.7162	7064.25	6184.15
955.8924	2274.1719	7076.15	6193.5
956.0253	2275.6268	7045.05	6161.15
956.1583	2277.0811	7032.5	6146.3
956.2912	2278.5346	7017.35	6139.65
956.4241	2279.9874	6998.85	6114.7
956.5569	2281.4395	6980.4	6097.95
956.6897	2282.8908	6957.9	6070.5
956.8225	2284.3414	6934.95	6051.3
956.9553	2285.7914	6913.6	6031.2
957.088	2287.2406	6902.35	6017.45
957.2207	2288.689	6896.55	6012.35
957.3534	2290.1368	6867.05	5982.25
957.486	2291.5838	6852.4	5965.35
957.6186	2293.0302	6850.95	5965.65
957.7512	2294.4758	6811.85	5925.05
957.8838	2295.9206	6799.65	5913.2
958.0163	2297.3648	6758.55	5877.4
958.1488	2298.8082	6745	5862.75
958.2813	2300.251	6714.05	5833.35
958.4137	2301.693	6699.8	5814.45
958.5461	2303.1343	6722.85	5839.1
958.6785	2304.5748	6660.95	5779.3
958.8108	2306.0147	6644.2	5761.45
958.9432	2307.4538	6627.9	5745.15
959.0754	2308.8922	6605.8	5724.55
959.2077	2310.3299	6591.05	5710
959.3399	2311.7669	6564.25	5682.6
959.4721	2313.2031	6572	5689.25
959.6043	2314.6387	6537	5653.6
959.7365	2316.0735	6524.3	5641.95
959.8686	2317.5076	6515.55	5632.6
960.0006	2318.941	6475.6	5592.4
960.1327	2320.3737	6470.65	5587.3
960.2647	2321.8056	6472.25	5583.35
960.3967	2323.2369	6429.9	5547.25
960.5287	2324.6674	6420.2	5534
960.6606	2326.0972	6387.7	5505.75
960.7925	2327.5263	6382.65	5499.15
960.9244	2328.9547	6355.5	5472.35
961.0562	2330.3823	6330.75	5446.9
961.1881	2331.8092	6327.85	5439.8
961.3198	2333.2355	6305.85	5420.15
961.4516	2334.661	6307.6	5424.75
961.5833	2336.0858	6309.05	5423
961.715	2337.5098	6260.25	5379.85
961.8467	2338.9332	6261.15	5375.8
961.9783	2340.3558	6245.6	5360.6
962.1099	2341.7778	6212.15	5329.45
962.2415	2343.199	6187.85	5302
962.373	2344.6195	6186.05	5303.6
962.5045	2346.0393	6149.7	5268.25
962.636	2347.4583	6154.9	5271.8
962.7675	2348.8767	6127.45	5244.05
962.8989	2350.2943	6108.8	5223.75
963.0303	2351.7113	6099.25	5214.95
963.1617	2353.1275	6094	5210.2
963.293	2354.543	6078.45	5186.45
963.4243	2355.9578	6040.7	5155.6
963.5556	2357.3718	6008.15	5124.5
963.6868	2358.7852	6007.05	5120.7
963.818	2360.1978	5979.1	5095.7
963.9492	2361.6098	5966.25	5084
964.0803	2363.021	5948.95	5061.75
964.2114	2364.4315	5938.8	5057.55
964.3425	2365.8413	5899.95	5018.25
964.4736	2367.2504	5879.9	4998.7
964.6046	2368.6587	5868.8	4986.05
964.7356	2370.0664	5840	4958.45
964.8666	2371.4733	5817.4	4931.95
964.9975	2372.8795	5832.45	4949.6
965.1284	2374.285	5796.25	4911.7
965.2593	2375.6899	5765.8	4882.85
965.3901	2377.0939	5726.95	4845.3
965.5209	2378.4973	5735.2	4852.6
965.6517	2379.9	5718.45	4836
965.7825	2381.3019	5700.55	4819.35
965.9132	2382.7032	5669.6	4788.35
966.0439	2384.1037	5658.55	4777.9
966.1745	2385.5035	5639.9	4759.4
966.3051	2386.9027	5610.3	4729.3
966.4357	2388.3011	5610	4725.05
966.5663	2389.6987	5600.1	4717.15
966.6968	2391.0957	5576.4	4695.2
966.8273	2392.492	5561.05	4679.3
966.9578	2393.8876	5526	4642.55
967.0882	2395.2824	5506.15	4622.1
967.2186	2396.6765	5476.3	4592.85
967.349	2398.07	5471.15	4589.05
967.4793	2399.4627	5461.6	4575.3
967.6097	2400.8547	5444.35	4561.35
967.7399	2402.246	5427.15	4538.75
967.8702	2403.6366	5397.55	4514.75
968.0004	2405.0265	5370.75	4489.8
968.1306	2406.4156	5370.15	4482.5
968.2607	2407.8041	5345.65	4460.75
968.3909	2409.1918	5340	4455.3
968.521	2410.5789	5324.4	4439.75
968.651	2411.9652	5296.9	4412.8
968.781	2413.3508	5289.75	4407.15
968.911	2414.7358	5262.15	4378.3
969.041	2416.12	5246.3	4363.35
969.1709	2417.5035	5242.6	4359
969.3008	2418.8863	5227.85	4342.35
969.4307	2420.2684	5199.7	4318.5
969.5606	2421.6497	5162.55	4278.1
969.6904	2423.0304	5140.05	4257.45
969.8201	2424.4104	5120.15	4234.7
969.9499	2425.7896	5124.5	4239.25
970.0796	2427.1682	5128.15	4246.95
970.2093	2428.546	5100.35	4216.3
970.3389	2429.9232	5072.8	4186.8
970.4685	2431.2996	5093.6	4211.25
970.5981	2432.6753	5074.4	4190.85
970.7277	2434.0503	5055.1	4172.35
970.8572	2435.4246	5041.25	4157.2
970.9867	2436.7982	5025.9	4140.2
971.1161	2438.1711	5009.65	4128
971.2456	2439.5433	5002.2	4117.3
971.375	2440.9148	4981.1	4092.15
971.5043	2442.2856	4968.25	4084.7
971.6336	2443.6557	4947.6	4063.4
971.7629	2445.025	4933.3	4051.85
971.8922	2446.3937	4926.1	4044
972.0214	2447.7617	4920.85	4038.4
972.1506	2449.1289	4891.4	4009.7
972.2798	2450.4955	4888.5	4000.9
972.4089	2451.8613	4869.35	3987.75
972.538	2453.2265	4854.95	3972.25
972.6671	2454.5909	4856.05	3973
972.7961	2455.9546	4833.45	3951.3
972.9251	2457.3177	4823.4	3941.3
973.0541	2458.68	4812	3926.25
973.1831	2460.0416	4802.05	3919.1
973.312	2461.4025	4800.1	3916.2
973.4408	2462.7627	4795.75	3900.65
973.5697	2464.1222	4776.65	3895.95
973.6985	2465.4811	4750.85	3868.2
973.8273	2466.8392	4731.5	3849.9
973.956	2468.1966	4734.65	3849.85
974.0847	2469.5533	4730.1	3844.8
974.2134	2470.9093	4699.85	3814.9
974.3421	2472.2645	4683.95	3799.75
974.4707	2473.6191	4691	3809.25
974.5993	2474.973	4671.85	3787.7
974.7278	2476.3262	4661.45	3775.4
974.8563	2477.6787	4637.4	3755.55
974.9848	2479.0305	4618	3736.6
975.1132	2480.3816	4605.05	3721.65
975.2417	2481.7319	4576.85	3695.3
975.37	2483.0816	4581.75	3696.55
975.4984	2484.4306	4576.1	3692.65
975.6267	2485.7789	4561.95	3679.7
975.755	2487.1264	4531.95	3648.9
975.8833	2488.4733	4504.3	3623.7
976.0115	2489.8195	4501.25	3609.7
976.1397	2491.165	4494.25	3609.45
976.2678	2492.5097	4463.75	3580.35
976.3959	2493.8538	4446.75	3566.05
976.524	2495.1972	4439.5	3556.35
976.6521	2496.5398	4421.85	3538.35
976.7801	2497.8818	4418.35	3531.8
976.9081	2499.2231	4403.4	3521
977.036	2500.5637	4387.85	3502.15
977.164	2501.9035	4377.65	3492.95
977.2918	2503.2427	4361.55	3472.6
977.4197	2504.5812	4358.1	3476.95
977.5475	2505.919	4346.55	3462
977.6753	2507.256	4343.25	3460.85
977.8031	2508.5924	4316.35	3434.6
977.9308	2509.9281	4299.15	3410.8
978.0585	2511.2631	4296.6	3415.15
978.1861	2512.5974	4277.95	3394.95
978.3137	2513.9309	4271.9	3388.7
978.4413	2515.2638	4287.2	3375.45
978.5689	2516.596	4243.15	3359.2
978.6964	2517.9275	4215.25	3330.35
978.8239	2519.2583	4208.35	3325.35
978.9513	2520.5884	4197.25	3313.95
979.0788	2521.9178	4189.55	3306.45
979.2062	2523.2465	4195.15	3311.85
979.3335	2524.5745	4156.75	3274.15
979.4608	2525.9018	4143.6	3261.4
979.5881	2527.2284	4128.4	3248.95
979.7154	2528.5543	4117.95	3237
979.8426	2529.8796	4139.05	3256.25
979.9698	2531.2041	4125.35	3240.75
980.0969	2532.5279	4104.9	3224
980.224	2533.851	4106.6	3225.6
980.3511	2535.1735	4101.5	3218.5
980.4781	2536.4952	4083.95	3202.7
980.6052	2537.8163	4074.65	3190.65
980.7321	2539.1366	4047.75	3164.85
980.8591	2540.4562	4031.35	3147.45
980.986	2541.7752	4040.45	3157.05
981.1129	2543.0935	4044.5	3160.05
981.2397	2544.411	4024.05	3140.35
981.3665	2545.7279	4012.8	3128.15
981.4933	2547.0441	4005.75	3123.9
981.62	2548.3596	4009.75	3125.3
981.7467	2549.6744	4001.95	3118.85
981.8734	2550.9885	4002.1	3109.8
982.0001	2552.3019	3982.75	3100.3
982.1267	2553.6146	3958.55	3077.65
982.2532	2554.9266	3954.45	3070.6
982.3798	2556.2379	3944.55	3058.1
982.5063	2557.5485	3947.45	3064.7
982.6327	2558.8585	3937.1	3047.15
982.7592	2560.1677	3929.05	3041.55
982.8856	2561.4762	3925.15	3041.35
983.0119	2562.7841	3915.6	3028.1
983.1383	2564.0913	3893.65	3011.35
983.2646	2565.3977	3903.05	3021
983.3908	2566.7035	3889.7	3007.85
983.517	2568.0086	3881.45	2996.85
983.6432	2569.313	3885.75	3001.4
983.7694	2570.6167	3866.4	2980.3
983.8955	2571.9197	3849.85	2969.2
984.0216	2573.222	3861.5	2973.95
984.1476	2574.5236	3836.65	2954.15
984.2737	2575.8246	3834.7	2949.2
984.3996	2577.1248	3831.7	2946.9
984.5256	2578.4244	3821.1	2938.85
984.6515	2579.7232	3810.75	2926.5
984.7774	2581.0214	3810.65	2901.6
984.9032	2582.3189	3789.35	2907.65
985.029	2583.6157	3799.25	2912.1
985.1548	2584.9118	3795.45	2912.15
985.2806	2586.2072	3778.2	2896.75
985.4063	2587.5019	3770.05	2887.05
985.5319	2588.7959	3757.8	2874.35
985.6576	2590.0893	3755.5	2870.25
985.7832	2591.3819	3753.7	2872.25
985.9087	2592.6739	3724.55	2841.5
986.0343	2593.9652	3725.15	2843.5
986.1597	2595.2557	3724.9	2842.25
986.2852	2596.5456	3692.05	2806.95
986.4106	2597.8348	3681.8	2800.3
986.536	2599.1234	3648.55	2767.15
986.6614	2600.4112	3654.5	2771.05
986.7867	2601.6983	3659.1	2773.4
986.912	2602.9848	3646.1	2763.1
987.0372	2604.2705	3638.85	2747
987.1624	2605.5556	3629.55	2747.35
987.2876	2606.84	3616.9	2735.05
987.4128	2608.1237	3620.85	2737.75
987.5379	2609.4067	3583.65	2701.9
987.6629	2610.689	3569.7	2679.75
987.788	2611.9707	3559.55	2672.5
987.913	2613.2516	3559.75	2672.35
988.0379	2614.5319	3543.95	2661.35
988.1629	2615.8115	3530.05	2647.45
988.2878	2617.0903	3511.35	2627.25
988.4126	2618.3685	3505.45	2624
988.5375	2619.6461	3501.6	2616.9
988.6622	2620.9229	3488.55	2605.7
988.787	2622.199	3473.3	2589.95
988.9117	2623.4745	3464.7	2582
989.0364	2624.7493	3445.7	2562.55
989.161	2626.0234	3441.3	2559.85
989.2857	2627.2968	3434.15	2550
989.4102	2628.5695	3419.2	2532.9
989.5348	2629.8415	3407.6	2525.3
989.6593	2631.1128	3395.7	2511.75
989.7837	2632.3835	3396.35	2513.65
989.9082	2633.6535	3374.2	2492.55
990.0326	2634.9228	3370.3	2488
990.1569	2636.1914	3360.95	2479.05
990.2812	2637.4593	3356.15	2467.9
990.4055	2638.7265	3346.8	2462.1
990.5298	2639.9931	3338.15	2456.55
990.654	2641.259	3332.5	2448.35
990.7782	2642.5242	3334.3	2451.95
990.9023	2643.7887	3331.25	2447.2
991.0264	2645.0525	3311.45	2428.35
991.1505	2646.3156	3292.65	2408.25
991.2745	2647.5781	3278.4	2397.7
991.3985	2648.8398	3269.75	2389.05
991.5225	2650.1009	3276.85	2386.6
991.6464	2651.3613	3257.35	2374.95
991.7703	2652.6211	3249.55	2367.3
991.8942	2653.8801	3236.15	2353.95
992.018	2655.1385	3238.9	2354.6
992.1418	2656.3961	3242.6	2361.85
992.2655	2657.6531	3230.75	2348.1
992.3892	2658.9094	3231.9	2351.4
992.5129	2660.1651	3209.1	2328.55
992.6366	2661.42	3194.55	2312.75
992.7602	2662.6743	3191.55	2308
992.8837	2663.9279	3192.8	2313.45
993.0073	2665.1808	3186.5	2303
993.1307	2666.433	3179.7	2296.5
993.2542	2667.6846	3170.85	2288.5
993.3776	2668.9354	3154.45	2268.3
993.501	2670.1856	3155.8	2271.85
993.6244	2671.4351	3150.6	2269.8
993.7477	2672.6839	3146.75	2264.4
993.8709	2673.9321	3135.2	2252.4
993.9942	2675.1795	3126.15	2244.75
994.1174	2676.4263	3114.3	2230.35
994.2405	2677.6724	3106.15	2223.65
994.3637	2678.9179	3097.9	2215.75
994.4868	2680.1626	3090.85	2209.45
994.6098	2681.4067	3101.2	2218.55
994.7328	2682.6501	3084.85	2201.4
994.8558	2683.8928	3068.8	2186.9
994.9788	2685.1348	3064.9	2182.85
995.1017	2686.3761	3053.3	2172.85
995.2245	2687.6168	3041.7	2160.7
995.3474	2688.8568	3036.6	2154.6
995.4702	2690.0961	3018.8	2136.85
995.5929	2691.3348	3016.2	2135.2
995.7156	2692.5727	3008.75	2126
995.8383	2693.81	3002.55	2121.6
995.961	2695.0466	2994.65	2113.25
996.0836	2696.2826	2991.75	2109.05
996.2062	2697.5178	2993.9	2090.3
996.3287	2698.7524	2988.8	2108.05
996.4512	2699.9863	2984.6	2101.45
996.5737	2701.2195	2960	2080.3
996.6961	2702.452	2967.05	2081.65
996.8185	2703.6839	2948.6	2065.4
996.9408	2704.9151	2939.1	2056.9
997.0631	2706.1456	2935.75	2053.05
997.1854	2707.3755	2929.2	2046
997.3077	2708.6046	2928.15	2043.45
997.4299	2709.8331	2919.75	2036.65
997.552	2711.0609	2906.35	2022.2
997.6742	2712.2881	2900.95	2020.2
997.7963	2713.5145	2895.25	2010.2
997.9183	2714.7403	2892.1	2010.5
998.0403	2715.9654	2873.55	1991.4
998.1623	2717.1899	2886.2	1990.3
998.2842	2718.4136	2881	1999.85
998.4062	2719.6367	2868.85	1986.6
998.528	2720.8591	2866.15	1977.5
998.6498	2722.0809	2851.85	1969.75
998.7716	2723.3019	2851.2	1967.05
998.8934	2724.5223	2841.45	1958.85
999.0151	2725.7421	2837.55	1953.9
999.1368	2726.9611	2822.3	1937.15
999.2584	2728.1795	2830.4	1943.9
999.38	2729.3972	2815.35	1932.65
999.5016	2730.6142	2807.55	1911.8
999.6231	2731.8306	2776.5	1894.2
999.7446	2733.0462	2780.1	1896.1
999.8661	2734.2612	2768.45	1881.25
999.9875	2735.4756	2769.15	1887.2
1000.1089	2736.6892	2743.4	1860.1
1000.2302	2737.9022	2730.25	1850.35
1000.3515	2739.1145	2727	1844.75
1000.4728	2740.3262	2724.5	1834.6
1000.594	2741.5372	2700.75	1819.9
1000.7152	2742.7475	2694.05	1811.2
1000.8363	2743.9571	2689.15	1805.15
1000.9575	2745.1661	2693.15	1807.65
1001.0785	2746.3744	2684.4	1799.75
1001.1996	2747.582	2662.35	1780.8
1001.3206	2748.7889	2663.95	1780.2
1001.4415	2749.9952	2658.45	1776.45
1001.5625	2751.2008	2652.5	1771.25
1001.6833	2752.4057	2647.2	1765.35
1001.8042	2753.61	2632.9	1749.8
1001.925	2754.8136	2635.1	1749.9
1002.0458	2756.0165	2624.5	1743.55
1002.1665	2757.2188	2609.45	1727.65
1002.2872	2758.4204	2604.9	1724.8
1002.4078	2759.6213	2594.1	1708.45
1002.5285	2760.8215	2595.75	1712.7
1002.649	2762.0211	2586.05	1701.9
1002.7696	2763.22	2584.5	1698.2
1002.8901	2764.4182	2576.2	1694.3
1003.0106	2765.6158	2557.65	1676.9
1003.131	2766.8127	2543.55	1659.95
1003.2514	2768.009	2550.15	1668.8
1003.3717	2769.2045	2550.25	1667.55
1003.492	2770.3994	2551.1	1668.4
1003.6123	2771.5936	2535.85	1653.75
1003.7325	2772.7872	2522.6	1641.65
1003.8527	2773.9801	2515.55	1633.5
1003.9729	2775.1723	2523.75	1625.95
1004.093	2776.3639	2496.95	1617.6
1004.2131	2777.5548	2498.65	1613.85
1004.3331	2778.745	2482	1599.65
1004.4531	2779.9346	2488.8	1608.55
1004.5731	2781.1235	2484.5	1602.5
1004.693	2782.3117	2476.1	1596.35
1004.8129	2783.4992	2456	1573
1004.9328	2784.6861	2469.95	1589.45
1005.0526	2785.8723	2468.4	1585.25
1005.1723	2787.0579	2465.4	1583.4
1005.2921	2788.2428	2450.5	1569.4
1005.4118	2789.427	2445.5	1563.45
1005.5314	2790.6106	2440.3	1559.5
1005.651	2791.7935	2437.35	1554.25
1005.7706	2792.9757	2426.15	1544.55
1005.8902	2794.1573	2418.6	1533.9
1006.0097	2795.3382	2408.7	1529.45
1006.1291	2796.5184	2400.7	1519.35
1006.2485	2797.698	2405.45	1523.7
1006.3679	2798.8769	2402.6	1523.85
1006.4873	2800.0551	2402.25	1519.05
1006.6066	2801.2327	2395.6	1513.55
1006.7258	2802.4096	2392.3	1510.45
1006.8451	2803.5859	2391	1509.3
1006.9642	2804.7615	2388.25	1505.75
1007.0834	2805.9364	2373.9	1493.4
1007.2025	2807.1106	2385.45	1506.5
1007.3216	2808.2842	2384.2	1501.15
1007.4406	2809.4572	2383.4	1502.1
1007.5596	2810.6294	2389.75	1508.25
1007.6785	2811.801	2392	1509.3
1007.7975	2812.972	2387.75	1507.3
1007.9163	2814.1423	2394.2	1513.25
1008.0352	2815.3119	2401.85	1521.35
1008.154	2816.4808	2407.2	1526.7
1008.2727	2817.6491	2414.75	1531.75
1008.3914	2818.8167	2413.1	1533.4
1008.5101	2819.9837	2428.65	1543.55
1008.6288	2821.15	2428.3	1546.15
1008.7474	2822.3157	2441.2	1560.15
1008.8659	2823.4807	2441.95	1559.2
1008.9844	2824.645	2455.4	1572.85
1009.1029	2825.8086	2463.7	1583
1009.2214	2826.9716	2467.45	1585.9
1009.3398	2828.134	2486.65	1606.2
1009.4581	2829.2957	2493.3	1610.75
1009.5764	2830.4567	2498.05	1619.05
1009.6947	2831.617	2488.9	1607.3
1009.813	2832.7767	2491.45	1611
1009.9312	2833.9358	2488.5	1606.4
1010.0493	2835.0941	2487.3	1605
1010.1675	2836.2519	2468.8	1588.4
1010.2855	2837.4089	2461.05	1580.75
1010.4036	2838.5653	2455.55	1574.45
1010.5216	2839.7211	2455.1	1574.85
1010.6396	2840.8761	2449.15	1565.1
1010.7575	2842.0306	2453.15	1574.15
1010.8754	2843.1843	2441.6	1561.25
1010.9932	2844.3374	2463.3	1581.9
1011.111	2845.4899	2454.85	1573.95
1011.2288	2846.6417	2466.15	1586.4
1011.3465	2847.7928	2484.65	1607.7
1011.4642	2848.9433	2479.95	1601.95
1011.5818	2850.0931	2495.85	1615.8
1011.6995	2851.2422	2511.75	1629.15
1011.817	2852.3907	2518.8	1638.65
1011.9345	2853.5385	2530.6	1647.85
1012.052	2854.6857	2543.35	1650.55
1012.1695	2855.8323	2543.15	1663.6
1012.2869	2856.9781	2553	1671.1
1012.4042	2858.1233	2553.25	1671.85
1012.5216	2859.2679	2562.65	1682.6
1012.6389	2860.4118	2570.15	1689.05
1012.7561	2861.555	2579.5	1692.05
1012.8733	2862.6976	2576.1	1692.2
1012.9905	2863.8395	2583.85	1704.05
1013.1076	2864.9808	2575.85	1694.95
1013.2247	2866.1214	2582.4	1701.8
1013.3417	2867.2614	2561.8	1680.6
1013.4587	2868.4007	2581.85	1698.95
1013.5757	2869.5393	2574.3	1693.5
1013.6926	2870.6773	2579.15	1696.15
1013.8095	2871.8146	2566.25	1683.2
1013.9263	2872.9513	2561.1	1676.6
1014.0431	2874.0874	2561.4	1681.9
1014.1599	2875.2227	2552.25	1671.2
1014.2766	2876.3574	2541.95	1661.35
1014.3933	2877.4915	2525.1	1645.25
1014.51	2878.6249	2508.55	1629.1
1014.6266	2879.7577	2512.7	1631.1
1014.7431	2880.8898	2507.25	1616.25
1014.8596	2882.0212	2488.3	1609.45
1014.9761	2883.152	2495.3	1615.4
1015.0925	2884.2821	2481.95	1600.55
1015.2089	2885.4116	2469.15	1588.9
1015.3253	2886.5405	2470.9	1589.85
1015.4416	2887.6686	2468.35	1584.5
1015.5579	2888.7962	2456.15	1576.15
1015.6741	2889.923	2458.05	1578.75
1015.7903	2891.0493	2455.4	1575.15
1015.9065	2892.1748	2453.9	1574
1016.0226	2893.2997	2451.15	1570.3
1016.1387	2894.424	2451	1572.25
1016.2547	2895.5476	2452.9	1573.4
1016.3707	2896.6706	2451.2	1572.4
1016.4866	2897.7929	2456.65	1576.45
1016.6025	2898.9145	2445.05	1565
1016.7184	2900.0355	2456.85	1575.9
1016.8342	2901.1559	2456.35	1575.9
1016.95	2902.2756	2451.95	1572
1017.0658	2903.3946	2462.85	1581.45
1017.1815	2904.513	2459.4	1575.85
1017.2971	2905.6308	2460	1578.75
1017.4127	2906.7479	2455.9	1574.95
1017.5283	2907.8643	2458.8	1577.05
1017.6439	2908.9801	2458.2	1576.95
1017.7594	2910.0953	2452.45	1573.7
1017.8748	2911.2098	2454.15	1568.9
1017.9902	2912.3236	2448.05	1561
1018.1056	2913.4368	2439.7	1556.7
1018.2209	2914.5494	2421.5	1540.05
1018.3362	2915.6613	2428.3	1541.95
1018.4515	2916.7725	2413.75	1531.35
1018.5667	2917.8831	2396.35	1515.45
1018.6819	2918.9931	2381.1	1498.2
1018.797	2920.1024	2378.5	1497.45
1018.9121	2921.211	2361.55	1481.65
1019.0271	2922.319	2364.75	1483.1
1019.1421	2923.4264	2353.8	1472.95
1019.2571	2924.5331	2348.8	1470.65
1019.372	2925.6391	2338.5	1457.15
1019.4869	2926.7445	2328.95	1450.25
1019.6017	2927.8493	2329.2	1448.55
1019.7165	2928.9534	2338.2	1456.15
1019.8313	2930.0569	2333.9	1449.45
1019.946	2931.1597	2324.05	1442.05
1020.0606	2932.2619	2327.35	1447.75
1020.1753	2933.3634	2312.4	1432.2
1020.2899	2934.4643	2322.65	1435
1020.4044	2935.5645	2324.5	1440.05
1020.5189	2936.6641	2314.9	1431.05
1020.6334	2937.763	2293.2	1414.95
1020.7478	2938.8613	2286.25	1406.65
1020.8622	2939.959	2272.95	1387.15
1020.9765	2941.056	2232.85	1355.75
1021.0908	2942.1523	2229.95	1346.65
1021.2051	2943.248	2201.95	1323.2
1021.3193	2944.3431	2178.05	1297.45
1021.4334	2945.4375	2162.2	1280
1021.5476	2946.5313	2135	1256
1021.6617	2947.6244	2109.25	1230.45
1021.7757	2948.7169	2088.75	1208.5
1021.8897	2949.8087	2050.65	1170.6
1022.0037	2950.8999	2038.3	1157.25
1022.1176	2951.9904	2003.8	1123.5
1022.2315	2953.0803	1995.7	1115.45
1022.3453	2954.1696	1977.9	1099.05
1022.4591	2955.2582	1959.65	1078.95
1022.5728	2956.3462	1947.4	1065.55
1022.6865	2957.4335	1923.15	1039.95
1022.8002	2958.5202	1919.8	1037.65
1022.9138	2959.6062	1907.25	1027.25
1023.0274	2960.6916	1899.5	1020.65
1023.141	2961.7764	1901.95	1022.05
1023.2545	2962.8605	1900.2	1019.9
1023.3679	2963.9439	1887.5	1006.7
1023.4813	2965.0267	1874.85	992.75
1023.5947	2966.1089	1893.65	993.65
1023.708	2967.1905	1866.55	987.15
1023.8213	2968.2714	1864.65	986.9
1023.9346	2969.3516	1856.6	976.9
1024.0478	2970.4312	1862	974.1
1024.1609	2971.5102	1859.6	979.6
1024.274	2972.5885	1846.6	966.45
1024.3871	2973.6662	1852.95	968.3
1024.5002	2974.7432	1846.95	967.75
1024.6132	2975.8196	1846.65	966
1024.7261	2976.8954	1834.95	956.1
1024.839	2977.9705	1830.1	950
1024.9519	2979.045	1826.85	948.15
1025.0647	2980.1188	1816.1	935.25
1025.1775	2981.192	1808.15	929.2
1025.2902	2982.2645	1801.4	918.8
1025.4029	2983.3364	1796.25	916.2
1025.5156	2984.4077	1787.45	907.2
1025.6282	2985.4783	1788.8	902.15
1025.7407	2986.5483	1764.15	885.3
1025.8532	2987.6177	1760.25	881.05
1025.9657	2988.6864	1754.4	872.8
1026.0782	2989.7545	1743.45	862.2
1026.1906	2990.8219	1726.65	848.25
1026.3029	2991.8887	1722.45	839.7
1026.4152	2992.9548	1714.7	834.85
1026.5275	2994.0204	1703.2	823.65
1026.6397	2995.0852	1684.05	806.3
1026.7519	2996.1495	1678.75	796.75
1026.864	2997.2131	1669.45	790.45
1026.9761	2998.276	1664.05	783
1027.0882	2999.3383	1656.6	776.6
1027.2002	3000.4	1652.6	771.6
1027.3122	3001.4611	1639.25	758
1027.4241	3002.5215	1636.3	754.6
1027.536	3003.5812	1623.35	745.5
1027.6478	3004.6404	1624.7	746.4
1027.7596	3005.6989	1620.85	739.3
1027.8714	3006.7567	1619.45	740.6
1027.9831	3007.8139	1620.85	720.1
1028.0947	3008.8705	1602.5	723.25
1028.2064	3009.9264	1598.4	715.1
1028.3179	3010.9818	1600.55	719.9
1028.4295	3012.0364	1588.25	708.4
1028.541	3013.0905	1583.75	704.25
1028.6524	3014.1439	1579.1	700.7
1028.7638	3015.1966	1576.85	697.7
1028.8752	3016.2487	1576.15	697.3
1028.9865	3017.3002	1571.65	688.6
1029.0978	3018.3511	1572.05	693.8
1029.209	3019.4013	1565.25	687.15
1029.3202	3020.4509	1571.8	692.95
1029.4314	3021.4998	1555.35	673.6
1029.5425	3022.5481	1558.75	679.7
1029.6535	3023.5958	1557	676.45
1029.7645	3024.6428	1558.3	678
1029.8755	3025.6892	1545	665.55
1029.9864	3026.735	1542.5	662.75
1030.0973	3027.7802	1549.7	668.75
1030.2082	3028.8247	1537.65	656.6
1030.319	3029.8685	1544.1	663.4
1030.4297	3030.9118	1535.25	652.8
1030.5404	3031.9544	1534.9	655.7
1030.6511	3032.9963	1528.2	650.9
1030.7617	3034.0376	1530.35	650.2
1030.8723	3035.0783	1522.35	639.75
1030.9829	3036.1184	1522.15	642.85
1031.0934	3037.1578	1521.75	643.85
1031.2038	3038.1966	1518.5	637.45
1031.3142	3039.2348	1514.4	634.9
1031.4246	3040.2723	1514.25	625.75
1031.5349	3041.3092	1512.5	636.55
1031.6452	3042.3455	1510.15	628.75
1031.7554	3043.3811	1510.85	630.65
1031.8656	3044.4161	1504.9	624.9
1031.9758	3045.4505	1507.6	628.75
1032.0859	3046.4842	1503	620.6
1032.1959	3047.5173	1495.35	616.9
1032.3059	3048.5498	1495.25	614.35
1032.4159	3049.5816	1489.85	611.6
1032.5258	3050.6128	1491.1	612.15
1032.6357	3051.6434	1486	603.75
1032.7455	3052.6734	1480	598.85
1032.8553	3053.7027	1477.7	597.5
1032.9651	3054.7314	1476.75	596.4
1033.0748	3055.7594	1476.65	599.05
1033.1845	3056.7868	1476.35	594.9
1033.2941	3057.8136	1470.5	591.15
1033.4037	3058.8398	1474.45	595.9
1033.5132	3059.8653	1458.4	581.85
1033.6227	3060.8902	1453.15	575.1
1033.7321	3061.9145	1458.35	579.4
1033.8415	3062.9381	1464.3	583.9
1033.9509	3063.9612	1469.1	572.95
1034.0602	3064.9835	1459.5	580.4
1034.1694	3066.0053	1448.5	566.7
1034.2787	3067.0264	1441.35	562.15
1034.3878	3068.0469	1443.4	561.95
1034.497	3069.0668	1437.5	554.75
1034.6061	3070.086	1432.05	554.55
1034.7151	3071.1046	1437.4	557.6
1034.8241	3072.1226	1435.2	556.45
1034.9331	3073.1399	1428.7	550.8
1035.042	3074.1567	1423.4	543.9
1035.1508	3075.1727	1415.75	535.35
1035.2597	3076.1882	1420.8	541.2
1035.3684	3077.203	1414.25	534.6
1035.4772	3078.2173	1407.4	525.55
1035.5859	3079.2308	1404.45	522.8
1035.6945	3080.2438	1402.05	520.45
1035.8031	3081.2561	1397.8	518.85
1035.9117	3082.2678	1387.35	510.3
1036.0202	3083.2789	1390.4	511.95
1036.1286	3084.2893	1387	508.15
1036.2371	3085.2991	1390.75	510.1
1036.3454	3086.3083	1385.35	500.05
1036.4538	3087.3169	1378.55	498.8
1036.562	3088.3248	1376.9	495.45
1036.6703	3089.3321	1372.65	491.35
1036.7785	3090.3388	1365.8	486.7
1036.8866	3091.3449	1362.9	483.25
1036.9948	3092.3503	1359.35	477.25
1037.1028	3093.3551	1356.85	480.85
1037.2108	3094.3593	1354	475.3
1037.3188	3095.3629	1354.85	475.2
1037.4267	3096.3658	1351.4	470.2
1037.5346	3097.3681	1353.35	474.75
1037.6425	3098.3698	1356.5	475.7
1037.7503	3099.3708	1351.55	467.25
1037.858	3100.3713	1332.25	453.5
1037.9657	3101.3711	1335.75	457.4
1038.0734	3102.3702	1462.45	448.95
1038.181	3103.3688	1339.45	458.5
1038.2886	3104.3667	1328.35	449.3
1038.3961	3105.364	1328.2	447.7
1038.5036	3106.3607	1322.75	442.4
1038.611	3107.3568	1324.55	443.5
1038.7184	3108.3522	1317.5	437.7
1038.8257	3109.347	1315.2	434.5
1038.933	3110.3412	1317.85	434
1039.0403	3111.3348	1310.4	432.15
1039.1475	3112.3277	1309.1	430.35
1039.2547	3113.32	1308.3	428.95
1039.3618	3114.3117	1301.6	421.6
1039.4689	3115.3028	1299.55	419.65
1039.5759	3116.2932	1295.8	414.55
1039.6829	3117.2831	1295.35	411.45
1039.7898	3118.2723	1299.15	419.7
1039.8967	3119.2608	1292.4	411.6
1040.0035	3120.2488	1290.25	411.5
1040.1103	3121.2361	1290.3	409.95
1040.2171	3122.2229	1287.9	407.4
1040.3238	3123.209	1279.1	399.3
1040.4305	3124.1944	1279.8	402.2
1040.5371	3125.1793	1277.35	396.85
1040.6437	3126.1635	1270.8	393
1040.7502	3127.1471	1278.3	400.35
1040.8567	3128.1301	1270.3	392.4
1040.9631	3129.1125	1271.55	393.1
1041.0695	3130.0942	1267.95	390.9
1041.1759	3131.0753	1271.1	383.25
1041.2822	3132.0558	1266.3	384.2
1041.3884	3133.0357	1259.05	379.3
1041.4946	3134.015	1256.65	376.3
1041.6008	3134.9936	1261.65	381.25
1041.7069	3135.9716	1276.65	377.25
1041.813	3136.949	1255.6	376.95
1041.919	3137.9258	1258.85	373.65
1042.025	3138.902	1252.85	369.4
1042.1309	3139.8775	1253.55	374
1042.2368	3140.8524	1250.3	371.7
1042.3427	3141.8267	1250.9	370.75
1042.4485	3142.8004	1251	370.7
1042.5542	3143.7735	1248.75	362.85
1042.6599	3144.7459	1246	364.35
1042.7656	3145.7178	1240.35	360
1042.8712	3146.689	1240.95	362.3
1042.9768	3147.6596	1235.55	354.9
1043.0823	3148.6295	1236.1	356.3
1043.1878	3149.5989	1229.35	351.4
1043.2932	3150.5676	1234.75	356.25
1043.3986	3151.5357	1230.8	353.85
1043.5039	3152.5032	1229.5	349
1043.6092	3153.4701	1226.4	346.25
1043.7145	3154.4364	1229.35	347.4
1043.8197	3155.402	1218.1	340.3
1043.9248	3156.367	1226	343.5
1044.03	3157.3315	1258.9	343.15
1044.135	3158.2952	1217.1	337.75
1044.24	3159.2584	1215.45	337.35
1044.345	3160.221	1213.9	333.2
1044.4499	3161.1829	1205.85	328.6
1044.5548	3162.1442	1202.85	324.35
1044.6596	3163.105	1207.85	328.2
1044.7644	3164.065	1201.35	323.7
1044.8692	3165.0245	1206.6	325.9
1044.9739	3165.9834	1197.1	321.1
1045.0785	3166.9416	1194.3	315.85
1045.1831	3167.8993	1197.95	318.25
1045.2877	3168.8563	1198.8	319.05
1045.3922	3169.8127	1194.15	314.25
1045.4966	3170.7684	1192.15	312.15
1045.6011	3171.7236	1188.9	306.35
1045.7054	3172.6782	1186.45	307.1
1045.8098	3173.6321	1183.3	303.1
1045.914	3174.5854	1189.5	304.35
1046.0183	3175.5381	1186	307.65
1046.1224	3176.4902	1183.5	303.8
1046.2266	3177.4417	1176.7	297.95
1046.3307	3178.3926	1179.95	300.85
1046.4347	3179.3428	1174.45	295.3
1046.5387	3180.2924	1177.3	297.55
1046.6427	3181.2415	1170.2	291.8
1046.7466	3182.1899	1178.3	297.2
1046.8504	3183.1377	1172.75	293.6
1046.9542	3184.0848	1174.2	290.6
1047.058	3185.0314	1169.4	289.65
1047.1617	3185.9773	1165.95	286.1
1047.2654	3186.9227	1164.95	286.15
1047.369	3187.8674	1159.55	279.3
1047.4726	3188.8115	1164.55	282.25
1047.5761	3189.755	1157.8	280.05
1047.6796	3190.6979	1163.2	283.85
1047.783	3191.6402	1157.4	277.55
1047.8864	3192.5818	1154.35	275.25
1047.9898	3193.5229	1164.3	269.05
1048.0931	3194.4633	1156.2	277.6
1048.1963	3195.4031	1153.35	273.45
1048.2995	3196.3423	1148.95	270.4
1048.4027	3197.2809	1145.95	265.25
1048.5058	3198.2189	1146.2	266.4
1048.6089	3199.1563	1164.05	265.7
1048.7119	3200.0931	1148.85	270.2
1048.8148	3201.0292	1143.25	264.95
1048.9178	3201.9648	1142.35	262.6
1049.0206	3202.8997	1144	263
1049.1235	3203.834	1141.6	262.65
1049.2262	3204.7677	1135.35	254.75
1049.329	3205.7008	1141.95	260.35
1049.4317	3206.6333	1131.1	255.35
1049.5343	3207.5652	1133.25	251.15
1049.6369	3208.4964	1126.35	246.85
1049.7394	3209.4271	1134.9	256.75
1049.8419	3210.3571	1131.15	251
1049.9444	3211.2865	1127.15	246.3
1050.0468	3212.2154	1130.1	250.4
1050.1491	3213.1436	1121.9	239.05
1050.2514	3214.0712	1134.65	249.25
1050.3537	3214.9982	1125.3	245.6
1050.4559	3215.9246	1122.9	243.65
1050.5581	3216.8503	1121.3	243.3
1050.6602	3217.7755	1123.25	244.95
1050.7623	3218.7001	1120.35	244.55
1050.8643	3219.624	1114.15	235.8
1050.9663	3220.5473	1111.8	233.75
1051.0682	3221.4701	1116.3	234.45
1051.1701	3222.3922	1108.4	226.7
1051.2719	3223.3137	1108.35	227.45
1051.3737	3224.2346	1109.55	230.4
1051.4754	3225.1549	1111.75	231.95
1051.5771	3226.0746	1108.75	230.75
1051.6788	3226.9937	1105.65	225.4
1051.7804	3227.9121	1106.65	228.4
1051.8819	3228.83	1102.6	223.9
1051.9834	3229.7473	1099.15	221.6
1052.0849	3230.6639	1103.95	223.55
1052.1863	3231.5799	1101.4	222.7
1052.2876	3232.4954	1098.9	220.85
1052.3889	3233.4102	1101.7	222.8
1052.4902	3234.3244	1097.25	216.15
1052.5914	3235.238	1094.75	216.5
1052.6926	3236.151	1117.85	214.2
1052.7937	3237.0634	1091.55	213.85
1052.8948	3237.9752	1087.9	210.2
1052.9958	3238.8864	1091.05	211.25
1053.0968	3239.797	1092.6	214.9
1053.1977	3240.7069	1084.35	203.45
1053.2986	3241.6163	1088.85	208.5
1053.3994	3242.5251	1081.8	203.55
1053.5002	3243.4332	1080.35	201.75
1053.6009	3244.3408	1080.4	200.45
1053.7016	3245.2477	1082.2	204.35
1053.8022	3246.154	1079.65	199.45
1053.9028	3247.0598	1082.4	201.65
1054.0034	3247.9649	1078.55	199.75
1054.1039	3248.8694	1076	197.7
1054.2043	3249.7733	1076.35	198.7
1054.3047	3250.6766	1071.85	193.3
1054.4051	3251.5793	1072.55	195.55
1054.5054	3252.4814	1072.75	194.5
1054.6056	3253.3829	1071.1	192.75
1054.7058	3254.2838	1068.95	190.5
1054.806	3255.1841	1070.2	194
1054.9061	3256.0838	1064.65	185.65
1055.0061	3256.9829	1063.7	185.35
1055.1062	3257.8814	1067.2	186.95
1055.2061	3258.7792	1061.3	180.3
1055.306	3259.6765	1067.15	187.95
1055.4059	3260.5731	1055.8	179.55
1055.5057	3261.4692	1058.45	179.2
1055.6055	3262.3647	1055.95	175.9
1055.7052	3263.2595	1052.05	172.25
1055.8049	3264.1538	1047.75	167.4
1055.9045	3265.0474	1044.25	166.4
1056.0041	3265.9404	1040.1	160.85
1056.1036	3266.8329	1036.6	159.25
1056.2031	3267.7247	1043.4	154.35
1056.3025	3268.616	1029.8	151
1056.4019	3269.5066	1032.6	153.7
1056.5013	3270.3966	1031.25	149.6
1056.6005	3271.286	1020.2	142.3
