Software Version:	3.9.2.0
Unit SN:	10000200
Spectrometer SN:	6960
Date:	3/6/2024 10:13:06 AM
Data Line Index:	25
Spectral Points:	2048
Integration time (ms):	125
Averages:	20
Delay (ms):	30
Sequence Number:	1
Processing:	dark subtract
Laser Power (mW):	305
Laser Current (mA):	825
Laser Diode Temp (C):	25.1
Laser Case Temp (C):	24.9
System Temp (C):	24.8
Spectrometer Temp (C):	22.3
CCD Temp (C):	0.009
Secondary Temp (C):	20.008
Heatsink Temp (C):	18.407
CCDPCB Temp (C):	31.227
SecondaryPCB Temp (C):	26.014

Wavelength	RamanShift	Raw Counts	Dark Subtracted
787.061	30.1047	999.85	592.1
787.2016	32.3739	1029.9	623.7
787.3422	34.6426	1067.1	661.7
787.4828	36.9109	1099.95	690.4
787.6235	39.1787	1143.3	729.05
787.7642	41.4461	1192.55	777.25
787.9049	43.7131	1253.85	833.3
788.0456	45.9796	1297.95	876
788.1863	48.2456	1351.7	925.75
788.3271	50.5112	1423.65	992.95
788.4679	52.7764	1474.95	1041.7
788.6087	55.0411	1534.65	1095.55
788.7496	57.3054	1602.9	1159.95
788.8904	59.5692	1674.6	1229.4
789.0313	61.8326	1757.35	1308
789.1722	64.0955	1842	1390.95
789.3132	66.3579	1950.55	1494.35
789.4541	68.6199	2077.75	1617.2
789.5951	70.8815	2307.35	1842.85
789.7361	73.1426	2778.7	2310.85
789.8771	75.4032	3989.75	3517.65
790.0181	77.6634	7128.95	6650.65
790.1592	79.9231	15239.6	14757.55
790.3003	82.1824	46439.35	45947
790.4414	84.4412	65468	64954.05
790.5825	86.6995	65535	64996.7
790.7237	88.9574	65535	64975.95
790.8648	91.2148	65535	64962.8
791.006	93.4717	65535	64951.3
791.1472	95.7282	65535	64946.95
791.2885	97.9842	65535	64943.1
791.4297	100.2398	65535	64940.9
791.571	102.4949	65535	64936.65
791.7123	104.7495	65535	64934.8
791.8536	107.0036	65535	64935.1
791.9949	109.2573	65535	64935.35
792.1363	111.5105	65535	64931.75
792.2777	113.7632	65535	64931.4
792.4191	116.0154	65535	64918.1
792.5605	118.2672	65535	64925.1
792.7019	120.5185	65535	64923.45
792.8434	122.7693	65535	64919.25
792.9849	125.0197	65535	64912.3
793.1264	127.2696	65535	64912.75
793.2679	129.519	65535	64905.9
793.4094	131.7679	65535	64907.35
793.551	134.0163	65535	64901.6
793.6926	136.2642	65535	64901.95
793.8342	138.5117	65535	64899.95
793.9758	140.7587	65535	64895.8
794.1175	143.0052	65535	64892.95
794.2591	145.2512	65535	64893.4
794.4008	147.4967	65535	64892.7
794.5425	149.7417	65535	64887.75
794.6842	151.9863	65535	64886.4
794.826	154.2304	65535	64884.25
794.9677	156.4739	65535	64877.25
795.1095	158.717	65535	64877.4
795.2513	160.9596	65535	64870.3
795.3931	163.2017	65535	64868.7
795.535	165.4433	65535	64871.35
795.6768	167.6844	65535	64866.6
795.8187	169.925	65535	64863.2
795.9606	172.1651	65535	64859.95
796.1025	174.4047	65535	64853.35
796.2445	176.6439	65535	64854
796.3864	178.8825	65535	64849.9
796.5284	181.1206	65535	64846.35
796.6704	183.3582	65535	64843.15
796.8124	185.5954	65535	64843.45
796.9544	187.832	65535	64839.65
797.0965	190.0681	65535	64834.7
797.2386	192.3037	65535	64828.4
797.3806	194.5388	65535	64832.15
797.5228	196.7734	65535	64827.55
797.6649	199.0075	65535	64826.05
797.807	201.2411	65535	64825.75
797.9492	203.4742	65535	64821.4
798.0914	205.7068	65535	64821.55
798.2336	207.9389	65535	64818.65
798.3758	210.1704	65535	64818.95
798.518	212.4015	65535	64831.7
798.6603	214.632	65535	64840.35
798.8025	216.862	65535	64840.8
798.9448	219.0915	65535	64841.2
799.0871	221.3205	65535	64835.45
799.2294	223.549	65535	64839.95
799.3718	225.777	65535	64840.95
799.5141	228.0044	65535	64836.7
799.6565	230.2314	65535	64834.95
799.7989	232.4578	65535	64830.25
799.9413	234.6837	65535	64822.1
800.0837	236.909	65535	64818.05
800.2262	239.1339	65535	64794.9
800.3687	241.3582	65535	64807.55
800.5111	243.582	65535	64780.9
800.6536	245.8053	65535	64794.3
800.7961	248.0281	65535	64798.8
800.9387	250.2503	65535	64794.9
801.0812	252.472	65535	64787.6
801.2238	254.6932	65535	64791.15
801.3664	256.9139	65535	64785.85
801.509	259.134	65535	64785.85
801.6516	261.3536	65535	64787.8
801.7942	263.5727	65535	64785
801.9369	265.7912	65535	64788.6
802.0795	268.0092	65535	64785.3
802.2222	270.2267	65535	64782.65
802.3649	272.4436	65535	64784
802.5076	274.6601	65535	64773.05
802.6504	276.8759	65535	64778
802.7931	279.0913	65535	64780.05
802.9359	281.3061	65535	64774.5
803.0787	283.5204	65535	64772.7
803.2215	285.7341	65535	64771.35
803.3643	287.9473	65535	64756.9
803.5071	290.16	65535	64765.5
803.6499	292.3721	65535	64770.8
803.7928	294.5837	65535	64773.1
803.9357	296.7947	65535	64770.7
804.0786	299.0052	65535	64773.1
804.2215	301.2152	65535	64767.7
804.3644	303.4246	65535	64770
804.5074	305.6334	65535	64767.9
804.6503	307.8418	65535	64761.95
804.7933	310.0495	65535	64764.85
804.9363	312.2568	65535	64764.15
805.0793	314.4635	65535	64762.05
805.2223	316.6696	65535	64758.25
805.3653	318.8752	65535	64749.9
805.5084	321.0802	65535	64757.3
805.6514	323.2847	65535	64757.15
805.7945	325.4887	65535	64755.35
805.9376	327.692	65535	64749.35
806.0807	329.8949	65535	64754.55
806.2238	332.0972	65535	64751.8
806.367	334.2989	65535	64746.75
806.5101	336.5001	65535	64747.05
806.6533	338.7007	65535	64748.05
806.7965	340.9008	65535	64743
806.9397	343.1003	65535	64744.1
807.0829	345.2992	65535	64745.6
807.2261	347.4976	65535	64741.35
807.3693	349.6955	65535	64734.55
807.5126	351.8927	65535	64740.75
807.6559	354.0895	65535	64726.85
807.7991	356.2856	65535	64732.7
807.9424	358.4812	65535	64735.55
808.0857	360.6763	65535	64736.3
808.2291	362.8707	65535	64729.65
808.3724	365.0646	65535	64726.65
808.5158	367.258	65535	64726.55
808.6591	369.4508	65535	64723.15
808.8025	371.643	65535	64724.8
808.9459	373.8346	65535	64724.35
809.0893	376.0257	65535	64717.75
809.2327	378.2162	65535	64720.8
809.3762	380.4062	65535	64719.55
809.5196	382.5956	65535	64722.25
809.6631	384.7844	65535	64724.4
809.8066	386.9726	65535	64728.15
809.9501	389.1603	65535	64732.5
810.0936	391.3474	65535	64685
810.2371	393.5339	65535	64727
810.3806	395.7199	65535	64730.4
810.5241	397.9052	65535	64727
810.6677	400.09	65535	64727.7
810.8113	402.2743	65535	64724.85
810.9548	404.4579	65535	64725.55
811.0984	406.641	65535	64725.6
811.2421	408.8235	65535	64721.8
811.3857	411.0054	65535	64719.2
811.5293	413.1868	65535	64714.8
811.673	415.3675	65535	64710.1
811.8166	417.5477	65535	64711.8
811.9603	419.7273	65535	64711.6
812.104	421.9064	65535	64704.25
812.2477	424.0848	65535	64707.75
812.3914	426.2627	65535	64708.8
812.5351	428.4399	65535	64709.35
812.6788	430.6166	65535	64707.55
812.8226	432.7928	65535	64703.7
812.9663	434.9683	65535	64700.3
813.1101	437.1432	65535	64701.75
813.2539	439.3176	65535	64704.1
813.3977	441.4914	65535	64705.85
813.5415	443.6645	65535	64702.8
813.6853	445.8371	65535	64701.4
813.8291	448.0091	65535	64703.3
813.973	450.1806	65535	64702.4
814.1168	452.3514	65535	64703
814.2607	454.5216	65535	64693.3
814.4046	456.6913	65535	64702.3
814.5485	458.8603	65535	64701
814.6924	461.0288	65535	64700.65
814.8363	463.1967	65535	64699.65
814.9802	465.3639	65535	64698.2
815.1241	467.5306	65535	64697.65
815.2681	469.6967	65535	64699.05
815.412	471.8622	65535	64697.7
815.556	474.0271	65535	64702.4
815.7	476.1914	65535	64695.85
815.844	478.3551	65535	64701.4
815.988	480.5182	65535	64696.3
816.132	482.6807	65535	64699.3
816.276	484.8426	65535	64701.1
816.4201	487.0039	65535	64701.15
816.5641	489.1647	65535	64695.6
816.7082	491.3248	65535	64691.55
816.8522	493.4843	65535	64694.5
816.9963	495.6432	65535	64694.7
817.1404	497.8015	65535	64691.3
817.2845	499.9592	65535	64688.2
817.4286	502.1163	65535	64687.65
817.5727	504.2728	65535	64688.85
817.7168	506.4287	65535	64693.9
817.861	508.5839	65535	64691.4
818.0051	510.7386	65535	64691.95
818.1493	512.8927	65535	64687.85
818.2935	515.0461	65535	64690.45
818.4377	517.199	65535	64686.6
818.5818	519.3512	65535	64687.5
818.726	521.5029	65535	64681.15
818.8703	523.6539	65535	64685.9
819.0145	525.8043	65535	64681.8
819.1587	527.9541	65535	64681.8
819.303	530.1033	65535	64682.25
819.4472	532.2519	65535	64681.45
819.5915	534.3999	65535	64683.8
819.7357	536.5472	65535	64681.9
819.88	538.694	65535	64683.65
820.0243	540.8401	65535	64679.45
820.1686	542.9856	65535	64674.45
820.3129	545.1305	65535	64673.6
820.4572	547.2748	65535	64673.8
820.6016	549.4185	65535	64672.15
820.7459	551.5615	65535	64674
820.8902	553.704	65535	64674.45
821.0346	555.8458	65535	64676.2
821.1789	557.987	65535	64677.55
821.3233	560.1276	65535	64673.45
821.4677	562.2675	65535	64675.1
821.6121	564.4069	65535	64678.35
821.7565	566.5456	65535	64676.1
821.9009	568.6837	65535	64675.75
822.0453	570.8212	65535	64677.65
822.1897	572.958	65535	64677.1
822.3342	575.0942	65535	64680.05
822.4786	577.2299	65535	64680.4
822.6231	579.3648	65535	64685.15
822.7675	581.4992	65535	64683.35
822.912	583.6329	65535	64682.3
823.0565	585.766	65535	64681.6
823.201	587.8985	65535	64678.4
823.3454	590.0304	65535	64650.55
823.4899	592.1616	65535	64673
823.6345	594.2922	65535	64673.05
823.779	596.4222	65535	64668
823.9235	598.5515	65535	64668.15
824.068	600.6802	65535	64668.8
824.2126	602.8083	65535	64669.1
824.3571	604.9358	65535	64666.6
824.5017	607.0626	65535	64671.55
824.6462	609.1888	65535	64669.05
824.7908	611.3144	65535	64668.6
824.9354	613.4393	65535	64665.5
825.08	615.5636	65535	64665.45
825.2246	617.6873	65535	64663.95
825.3692	619.8103	65535	64667
825.5138	621.9327	65535	64664.2
825.6584	624.0544	65535	64666.75
825.803	626.1756	65535	64668.35
825.9477	628.2961	65535	64665.35
826.0923	630.4159	65535	64664.25
826.237	632.5351	65535	64662.85
826.3816	634.6537	65535	64664
826.5263	636.7716	65535	64660.8
826.6709	638.8889	65535	64663
826.8156	641.0056	65535	64660.7
826.9603	643.1216	65535	64660.1
827.105	645.237	65535	64659.45
827.2497	647.3518	65535	64663.05
827.3944	649.4659	65535	64666.05
827.5391	651.5793	65535	64661.6
827.6838	653.6922	65535	64664.95
827.8285	655.8043	65535	64665.1
827.9733	657.9159	65535	64663
828.118	660.0268	65535	64663.45
828.2627	662.137	65535	64659.05
828.4075	664.2466	65535	64659.15
828.5522	666.3556	65535	64659.5
828.697	668.4639	65535	64658.5
828.8418	670.5716	65535	64663.05
828.9865	672.6786	65535	64660.1
829.1313	674.785	65535	64655.25
829.2761	676.8907	65535	64660.4
829.4209	678.9958	65535	64660.95
829.5657	681.1002	65535	64660.35
829.7105	683.204	65535	64654.1
829.8553	685.3072	65535	64654.35
830.0001	687.4097	65535	64659.1
830.1449	689.5115	65535	64655.1
830.2898	691.6127	65535	64658.4
830.4346	693.7132	65535	64658.4
830.5794	695.8131	65535	64637.1
830.7243	697.9123	65535	64655.1
830.8691	700.0109	65535	64653.8
831.014	702.1089	65535	64656.3
831.1588	704.2061	65535	64655.6
831.3037	706.3028	65535	64651.85
831.4486	708.3987	65535	64654.85
831.5935	710.4941	65535	64653
831.7383	712.5887	65535	64654.6
831.8832	714.6827	65535	64651.35
832.0281	716.7761	65535	64652.75
832.173	718.8688	65535	64651.6
832.3179	720.9608	65535	64648.6
832.4628	723.0522	65535	64645.55
832.6077	725.1429	65535	64650.85
832.7527	727.233	65535	64648.8
832.8976	729.3224	65535	64652
833.0425	731.4112	65535	64652.5
833.1874	733.4993	65535	64647.9
833.3324	735.5867	65535	64651.85
833.4773	737.6735	65535	64649.25
833.6222	739.7596	65535	64650.2
833.7672	741.845	65535	64649.7
833.9122	743.9298	65535	64647.05
834.0571	746.014	65535	64650.5
834.2021	748.0974	65535	64646.35
834.347	750.1802	65535	64647.4
834.492	752.2624	65535	64650.7
834.637	754.3439	65535	64646.7
834.782	756.4247	65535	64639.25
834.9269	758.5048	65535	64646.85
835.0719	760.5843	65535	64646.1
835.2169	762.6631	65535	64648.8
835.3619	764.7413	65535	64646.2
835.5069	766.8188	65535	64643.85
835.6519	768.8956	65535	64644.6
835.7969	770.9718	65535	64645.95
835.9419	773.0473	65535	64648.35
836.0869	775.1221	65535	64646.15
836.232	777.1962	65535	64648.45
836.377	779.2697	65535	64644.55
836.522	781.3426	65535	64626.5
836.667	783.4147	65535	64644.3
836.8121	785.4862	65535	64647.65
836.9571	787.557	65535	64646.25
837.1021	789.6271	65535	64648.05
837.2472	791.6966	65535	64646.85
837.3922	793.7654	65535	64646.75
837.5373	795.8335	65535	64646.6
837.6823	797.901	65535	64647.45
837.8274	799.9678	65535	64642.2
837.9724	802.0339	65535	64645.2
838.1175	804.0993	65535	64633.2
838.2626	806.1641	65535	64643
838.4076	808.2282	65535	64646.65
838.5527	810.2916	65535	64641.55
838.6978	812.3544	65535	64648.45
838.8428	814.4164	65535	64647.05
838.9879	816.4778	65535	64643.3
839.133	818.5385	65535	64645.55
839.2781	820.5986	65535	64642.95
839.4232	822.658	65535	64640.25
839.5682	824.7166	65535	64646.1
839.7133	826.7747	65535	64646
839.8584	828.832	65535	64643.9
840.0035	830.8886	65535	64639.35
840.1486	832.9446	65535	64641.2
840.2937	834.9999	65535	64645.55
840.4388	837.0545	65535	64636.4
840.5839	839.1085	65535	64640.15
840.729	841.1618	65535	64638.2
840.8741	843.2143	65535	64644.1
841.0192	845.2662	65535	64642.95
841.1643	847.3175	65535	64641.25
841.3095	849.368	65535	64638.5
841.4546	851.4179	65535	64642.35
841.5997	853.467	65535	64641
841.7448	855.5155	65535	64641.95
841.8899	857.5633	65535	64642.1
842.0351	859.6105	65535	64641.65
842.1802	861.6569	65535	64642.6
842.3253	863.7027	65535	64638.85
842.4704	865.7478	65535	64640.35
842.6156	867.7922	65535	64643.05
842.7607	869.8359	65535	64639.45
842.9058	871.8789	65535	64641.55
843.0509	873.9212	65535	64608.3
843.1961	875.9629	65535	64643.2
843.3412	878.0039	65535	64639.7
843.4863	880.0441	65535	64641
843.6315	882.0837	65535	64640.25
843.7766	884.1226	65535	64640.15
843.9218	886.1609	65535	64642.35
844.0669	888.1984	65535	64638.3
844.212	890.2352	65535	64638.9
844.3572	892.2714	65535	64634.7
844.5023	894.3069	65535	64637.35
844.6475	896.3416	65535	64638.6
844.7926	898.3757	65535	64640.9
844.9377	900.4091	65535	64641.1
845.0829	902.4418	65535	64633.5
845.228	904.4739	65535	64637.15
845.3732	906.5052	65535	64636.6
845.5183	908.5358	65535	64639.1
845.6635	910.5658	65535	64633.75
845.8086	912.595	65535	64639
845.9538	914.6236	65535	64637.05
846.0989	916.6515	65535	64638.45
846.2441	918.6786	65535	64636.75
846.3892	920.7051	65535	64636.15
846.5344	922.7309	65535	64635.5
846.6795	924.756	65535	64638.95
846.8246	926.7804	65535	64635.6
846.9698	928.8041	65535	64634.7
847.1149	930.8272	65535	64637.25
847.2601	932.8495	65535	64636.25
847.4052	934.8711	65535	64636
847.5504	936.892	65535	64637.25
847.6955	938.9123	65535	64636.15
847.8407	940.9318	65535	64638.85
847.9858	942.9506	65535	64636.65
848.131	944.9688	65535	64637.95
848.2761	946.9862	65535	64636.05
848.4213	949.003	65535	64637.6
848.5664	951.019	65535	64637.7
848.7115	953.0344	65535	64634.5
848.8567	955.0491	65535	64636.15
849.0018	957.063	65535	64638.5
849.147	959.0763	65535	64638.3
849.2921	961.0888	65535	64635.85
849.4373	963.1007	65535	64639.75
849.5824	965.1119	65535	64638.95
849.7275	967.1223	65535	64640.2
849.8727	969.1321	65535	64643.25
850.0178	971.1412	65535	64641.25
850.1629	973.1495	65535	64638.6
850.3081	975.1572	65535	64594.2
850.4532	977.1641	65535	64637.65
850.5983	979.1704	65535	64633.5
850.7435	981.1759	65535	64632.4
850.8886	983.1808	65535	64633.35
851.0337	985.1849	65535	64623.85
851.1788	987.1884	65535	64634.15
851.324	989.1911	65535	64632.2
851.4691	991.1932	65535	64633.55
851.6142	993.1945	65535	64637.55
851.7593	995.1951	65535	64636.55
851.9045	997.1951	65535	64628.7
852.0496	999.1943	65535	64635.4
852.1947	1001.1928	65535	64633.9
852.3398	1003.1906	65535	64635.4
852.4849	1005.1877	65535	64637.2
852.63	1007.1841	65535	64633.2
852.7751	1009.1798	65535	64635.5
852.9202	1011.1748	65535	64637.15
853.0653	1013.1691	65535	64636.15
853.2104	1015.1627	65535	64634
853.3555	1017.1556	65535	64636.15
853.5006	1019.1477	65535	64636.7
853.6457	1021.1392	65535	64638.9
853.7908	1023.1299	65535	64639.65
853.9359	1025.12	65535	64640.25
854.081	1027.1093	65535	64642.15
854.2261	1029.0979	65535	64646.45
854.3712	1031.0859	65535	64645.35
854.5163	1033.0731	65535	64639.55
854.6613	1035.0596	65535	64638.75
854.8064	1037.0454	65535	64634.6
854.9515	1039.0304	65535	64635.4
855.0965	1041.0148	65535	64636.85
855.2416	1042.9985	65535	64638.05
855.3867	1044.9814	65535	64639.6
855.5317	1046.9636	65535	64636.2
855.6768	1048.9452	65535	64637.35
855.8219	1050.926	65535	64637.5
855.9669	1052.9061	65535	64635.4
856.112	1054.8855	65535	64638.1
856.257	1056.8642	65535	64638
856.4021	1058.8421	65535	64634.65
856.5471	1060.8194	65535	64636.2
856.6921	1062.7959	65535	64634.3
856.8372	1064.7717	65535	64632.4
856.9822	1066.7469	65535	64635.25
857.1272	1068.7213	65535	64635.2
857.2723	1070.695	65535	64634.1
857.4173	1072.6679	65535	64636.15
857.5623	1074.6402	65535	64634.95
857.7073	1076.6117	65535	64627.9
857.8523	1078.5826	65535	64632.9
857.9973	1080.5527	65535	64632.7
858.1423	1082.5221	65535	64635.05
858.2873	1084.4908	65535	64635.3
858.4323	1086.4587	65535	64633.6
858.5773	1088.426	65535	64634.5
858.7223	1090.3925	65535	64632.25
858.8673	1092.3584	65535	64637.3
859.0123	1094.3235	65535	64638.1
859.1573	1096.2879	65535	64637.15
859.3022	1098.2515	65535	64635.7
859.4472	1100.2145	65535	64636.1
859.5922	1102.1767	65535	64635.75
859.7371	1104.1382	65535	64634.3
859.8821	1106.099	65535	64630.95
860.027	1108.0591	65535	64635.35
860.172	1110.0185	65535	64634.9
860.3169	1111.9771	65535	64637.35
860.4619	1113.9351	65535	64633.7
860.6068	1115.8923	65535	64635.7
860.7517	1117.8488	65535	64634.8
860.8967	1119.8045	65535	64635.85
861.0416	1121.7596	65535	64634.95
861.1865	1123.7139	65535	64637.45
861.3314	1125.6675	65535	64635.8
861.4763	1127.6204	65535	64639.3
861.6212	1129.5726	65535	64635.35
861.7661	1131.524	65535	64635.85
861.911	1133.4748	65535	64636.85
862.0559	1135.4248	65535	64634.7
862.2008	1137.3741	65535	64634.05
862.3457	1139.3226	65535	64634.85
862.4905	1141.2705	65535	64635.2
862.6354	1143.2176	65535	64629
862.7803	1145.164	65535	64632.7
862.9251	1147.1097	65535	64636
863.07	1149.0546	65535	64635.65
863.2148	1150.9989	65535	64633.4
863.3597	1152.9424	65535	64635.55
863.5045	1154.8852	65535	64634.1
863.6493	1156.8272	65535	64637.05
863.7942	1158.7686	65535	64628.75
863.939	1160.7092	65535	64634.05
864.0838	1162.6491	65535	64632.45
864.2286	1164.5883	65535	64637.15
864.3734	1166.5267	65535	64632.4
864.5182	1168.4644	65535	64636.35
864.663	1170.4014	65535	64629.2
864.8078	1172.3377	65535	64635.6
864.9526	1174.2732	65535	64637.45
865.0974	1176.2081	65535	64635.55
865.2421	1178.1421	65535	64632.05
865.3869	1180.0755	65535	64637.3
865.5317	1182.0082	65535	64638
865.6764	1183.9401	65535	64635.5
865.8212	1185.8713	65535	64638.9
865.9659	1187.8017	65535	64638.2
866.1106	1189.7315	65535	64641.75
866.2554	1191.6605	65535	64616.2
866.4001	1193.5888	65535	64637.9
866.5448	1195.5163	65535	64638.45
866.6895	1197.4432	65535	64636.3
866.8342	1199.3693	65535	64636.7
866.9789	1201.2947	65535	64633.4
867.1236	1203.2193	65535	64635.7
867.2683	1205.1432	65535	64636.2
867.413	1207.0664	65535	64638.1
867.5576	1208.9889	65535	64633.95
867.7023	1210.9106	65535	64636.9
867.847	1212.8316	65535	64637.8
867.9916	1214.7519	65535	64624.9
868.1363	1216.6715	65535	64639.2
868.2809	1218.5903	65535	64637.75
868.4255	1220.5084	65535	64636.85
868.5701	1222.4257	65535	64636.35
868.7148	1224.3424	65535	64636.7
868.8594	1226.2583	65535	64631.95
869.004	1228.1735	65535	64636.55
869.1486	1230.0879	65535	64636.65
869.2932	1232.0016	65535	64637.75
869.4377	1233.9146	65535	64637.1
869.5823	1235.8269	65535	64638.75
869.7269	1237.7384	65535	64635.75
869.8715	1239.6492	65535	64636.75
870.016	1241.5592	65535	64634.8
870.1606	1243.4686	65535	64637.3
870.3051	1245.3772	65535	64635.85
870.4496	1247.285	65535	64638.05
870.5941	1249.1922	65535	64636.25
870.7387	1251.0986	65535	64639.55
870.8832	1253.0042	65535	64639.45
871.0277	1254.9092	65535	64636.2
871.1722	1256.8134	65535	64637.9
871.3167	1258.7169	65535	64635.4
871.4611	1260.6196	65535	64639.5
871.6056	1262.5216	65535	64636.85
871.7501	1264.4229	65535	64638.9
871.8945	1266.3234	65535	64636.4
872.039	1268.2232	65535	64635.35
872.1834	1270.1223	65535	64636.3
872.3278	1272.0207	65535	64636.3
872.4723	1273.9183	65535	64631.75
872.6167	1275.8151	65535	64638.35
872.7611	1277.7113	65535	64637.95
872.9055	1279.6067	65535	64636.9
873.0499	1281.5014	65535	64634.1
873.1943	1283.3953	65535	64635.45
873.3386	1285.2885	65535	64637.4
873.483	1287.181	65535	64635.3
873.6274	1289.0727	65535	64639.1
873.7717	1290.9637	65535	64639.15
873.9161	1292.854	65535	64639.1
874.0604	1294.7435	65535	64639
874.2047	1296.6323	65535	64637.35
874.349	1298.5204	65535	64634.7
874.4933	1300.4077	65535	64635.85
874.6376	1302.2943	65535	64638.55
874.7819	1304.1802	65535	64639.6
874.9262	1306.0653	65535	64637.05
875.0705	1307.9497	65535	64637.1
875.2147	1309.8333	65535	64636
875.359	1311.7162	65535	64637.65
875.5032	1313.5984	65535	64635.4
875.6475	1315.4798	65535	64619.9
875.7917	1317.3605	65535	64619.5
875.9359	1319.2405	65535	64636.2
876.0801	1321.1197	65535	64636.5
876.2243	1322.9982	65535	64633
876.3685	1324.876	65535	64638
876.5127	1326.753	65535	64635.9
876.6569	1328.6293	65535	64635.5
876.801	1330.5048	65535	64633.5
876.9452	1332.3796	65535	64639.95
877.0893	1334.2537	65535	64613.55
877.2335	1336.127	65535	64633.85
877.3776	1337.9996	65535	64638.6
877.5217	1339.8714	65535	64635.85
877.6658	1341.7426	65535	64593.85
877.8099	1343.6129	65535	64638.35
877.954	1345.4826	65535	64637.15
878.0981	1347.3515	65535	64632.15
878.2422	1349.2196	65535	64635.25
878.3862	1351.087	65535	64635.5
878.5303	1352.9537	65535	64636.8
878.6743	1354.8197	65535	64636.5
878.8184	1356.6849	65535	64636.8
878.9624	1358.5493	65535	64635.35
879.1064	1360.4131	65535	64636.2
879.2504	1362.276	65535	64638.1
879.3944	1364.1383	65535	64636.05
879.5384	1365.9998	65535	64630
879.6823	1367.8606	65535	64636.1
879.8263	1369.7206	65535	64637
879.9702	1371.5799	65535	64634.45
880.1142	1373.4384	65535	64635.6
880.2581	1375.2962	65535	64637.3
880.402	1377.1533	65535	64636.8
880.5459	1379.0096	65535	64638.6
880.6898	1380.8652	65535	64640.9
880.8337	1382.7201	65535	64637.1
880.9776	1384.5742	65535	64635.7
881.1215	1386.4275	65535	64633.35
881.2653	1388.2802	65535	64636.9
881.4092	1390.132	65535	64638.65
881.553	1391.9832	65535	64635.85
881.6968	1393.8336	65535	64637.25
881.8406	1395.6832	65535	64636.7
881.9844	1397.5322	65535	64635.8
882.1282	1399.3803	65535	64632.15
882.272	1401.2278	65535	64636.65
882.4158	1403.0745	65535	64636.45
882.5595	1404.9204	65535	64637.9
882.7033	1406.7656	65535	64638.35
882.847	1408.6101	65535	64637.6
882.9908	1410.4538	65535	64634.2
883.1345	1412.2968	65535	64637.8
883.2782	1414.139	65535	64639.95
883.4219	1415.9805	65535	64638.75
883.5656	1417.8213	65535	64634.05
883.7092	1419.6613	65535	64639.1
883.8529	1421.5006	65535	64635.75
883.9965	1423.3391	65535	64637.75
884.1402	1425.1769	65535	64636.55
884.2838	1427.0139	65535	64636.85
884.4274	1428.8502	65535	64637.1
884.571	1430.6858	65535	64637.5
884.7146	1432.5206	65535	64637.7
884.8582	1434.3547	65535	64635.65
885.0018	1436.188	65535	64637.55
885.1453	1438.0206	65535	64636.25
885.2889	1439.8524	65535	64636.45
885.4324	1441.6835	65535	64638.55
885.5759	1443.5139	65535	64635.55
885.7194	1445.3435	65535	64638.35
885.8629	1447.1724	65535	64639.75
886.0064	1449.0005	65535	64639.55
886.1499	1450.8279	65535	64637.35
886.2933	1452.6545	65535	64637.75
886.4368	1454.4804	65535	64640.8
886.5802	1456.3056	65535	64633.15
886.7237	1458.13	65535	64637.3
886.8671	1459.9536	65535	64639.9
887.0105	1461.7766	65533.4	64638.65
887.1539	1463.5987	65524.85	64627.15
887.2972	1465.4202	65531.85	64633.65
887.4406	1467.2409	65529.15	64633.25
887.584	1469.0608	65498.1	64604.25
887.7273	1470.88	65519.05	64620.15
887.8706	1472.6984	65521.7	64625.45
888.0139	1474.5161	65468.45	64568.6
888.1572	1476.3331	65496	64599.75
888.3005	1478.1493	65464.65	64567
888.4438	1479.9648	65448.8	64552.25
888.5871	1481.7795	65485.7	64588.5
888.7303	1483.5935	65491.25	64593.85
888.8736	1485.4067	65430.75	64535.4
889.0168	1487.2192	65448.65	64551.25
889.16	1489.031	65409.5	64511.25
889.3032	1490.842	65443.25	64547.55
889.4464	1492.6522	65444.1	64549.5
889.5896	1494.4618	65405.55	64509.35
889.7327	1496.2705	65431.5	64535.3
889.8759	1498.0785	65305.25	64407.65
890.019	1499.8858	65406.25	64509.5
890.1622	1501.6924	65456.05	64559.8
890.3053	1503.4981	65348.2	64452.35
890.4484	1505.3032	65377.7	64482.2
890.5914	1507.1075	65323.25	64427.55
890.7345	1508.911	65336.5	64441.25
890.8776	1510.7138	65322.25	64426.2
891.0206	1512.5159	65349.6	64454
891.1637	1514.3172	65160.85	64264.35
891.3067	1516.1178	65234.7	64338.25
891.4497	1517.9176	65303.55	64406.55
891.5927	1519.7166	65236.55	64341.7
891.7357	1521.515	65202.8	64302.1
891.8786	1523.3126	65118.1	64220.55
892.0216	1525.1094	65221	64325.4
892.1645	1526.9055	65159.95	64265.4
892.3074	1528.7008	65159.2	64263.9
892.4503	1530.4954	65075.05	64178.95
892.5932	1532.2893	65188	64294.4
892.7361	1534.0824	65070.65	64172.5
892.879	1535.8747	65002.2	64108.15
893.0218	1537.6663	65177.55	64284.5
893.1647	1539.4572	64915.9	64021.35
893.3075	1541.2473	65013.75	64118.75
893.4503	1543.0367	64962.5	64069.25
893.5931	1544.8253	64964.75	64068.85
893.7359	1546.6132	64992.55	64095.45
893.8787	1548.4003	64938.55	64036.5
894.0214	1550.1867	64904.55	64002.8
894.1642	1551.9723	64906.2	64009.1
894.3069	1553.7572	64904.85	64011.6
894.4496	1555.5414	64945.15	64051.55
894.5923	1557.3247	64749.5	63857.15
894.735	1559.1074	64905.95	64012
894.8777	1560.8893	64853.4	63959.65
895.0204	1562.6705	64881.45	63991.35
895.163	1564.4509	64779.25	63889.35
895.3056	1566.2305	64830.7	63941.9
895.4482	1568.0094	64884.05	63992.9
895.5908	1569.7876	64818.25	63926.95
895.7334	1571.565	64741.1	63847.85
895.876	1573.3417	64801.7	63910.15
896.0186	1575.1176	64759.85	63869.2
896.1611	1576.8928	64727.55	63837.35
896.3036	1578.6672	64656.65	63767.2
896.4461	1580.4409	64704.2	63818.9
896.5886	1582.2138	64606.35	63715.8
896.7311	1583.986	64650.95	63760.55
896.8736	1585.7575	64583.35	63694.2
897.0161	1587.5282	64577.3	63689.3
897.1585	1589.2981	64602.4	63714.3
897.3009	1591.0673	64517.9	63629.5
897.4433	1592.8358	64485.9	63598.75
897.5857	1594.6035	64556.2	63664.4
897.7281	1596.3704	64558.2	63665.65
897.8705	1598.1366	64450.4	63561.15
898.0128	1599.9021	64389.7	63496.25
898.1551	1601.6668	64474.6	63581.9
898.2975	1603.4308	64442.6	63552.4
898.4398	1605.194	64470.25	63574.7
898.5821	1606.9564	64319.65	63432.7
898.7243	1608.7182	64387.05	63496.2
898.8666	1610.4791	64318.6	63432.8
899.0088	1612.2394	64380.2	63495.95
899.1511	1613.9988	64320.85	63434.55
899.2933	1615.7576	64408.75	63521.7
899.4355	1617.5156	64404.2	63508.1
899.5776	1619.2728	64477.05	63585.65
899.7198	1621.0293	64294.65	63406.25
899.862	1622.785	64293.85	63400.75
900.0041	1624.54	64338.75	63449.2
900.1462	1626.2942	64266.5	63378.2
900.2883	1628.0477	64135.85	63245.9
900.4304	1629.8005	64056.5	63165.25
900.5725	1631.5525	64138.7	63251.8
900.7145	1633.3037	64024.45	63138.35
900.8566	1635.0542	64000	63112.8
900.9986	1636.804	64032.9	63143.85
901.1406	1638.553	63956.05	62983.8
901.2826	1640.3013	63964.4	63077.35
901.4245	1642.0488	63879.75	62992
901.5665	1643.7955	63930.8	63044.4
901.7085	1645.5416	63884	62997.9
901.8504	1647.2868	63824.95	62937.85
901.9923	1649.0313	63903.1	63015.25
902.1342	1650.7751	63864.8	62974.4
902.2761	1652.5181	63816.65	62930.4
902.4179	1654.2604	63810.95	62922.2
902.5598	1656.0019	63866.95	62981.95
902.7016	1657.7427	63793.75	62905.5
902.8434	1659.4828	63854.55	62968.5
902.9852	1661.222	63785.7	62898.95
903.127	1662.9606	63832.8	62945.85
903.2687	1664.6984	63753	62864.45
903.4105	1666.4354	63746.7	62857.25
903.5522	1668.1717	63578.5	62690.4
903.6939	1669.9072	63392.9	62504.75
903.8356	1671.642	63385.15	62494.55
903.9773	1673.3761	63329.05	62441.15
904.119	1675.1094	63270.15	62382.5
904.2606	1676.8419	63018.35	62130
904.4022	1678.5737	63116.3	62230.1
904.5439	1680.3048	62988.4	62101.25
904.6855	1682.0351	62864.8	61977.65
904.827	1683.7646	62745.65	61856.05
904.9686	1685.4934	62852.55	61966.35
905.1101	1687.2215	62356.4	61468.1
905.2517	1688.9488	62721.85	61833.95
905.3932	1690.6754	61904.7	61017.6
905.5347	1692.4012	62333.15	61446.55
905.6761	1694.1263	62414.85	61527.35
905.8176	1695.8506	61979.5	61093.3
905.9591	1697.5742	62056.95	61171.1
906.1005	1699.297	61945.05	61061.55
906.2419	1701.0191	62025.3	61141.15
906.3833	1702.7404	61507.7	60623.25
906.5246	1704.461	61347.5	60460.7
906.666	1706.1808	61678.15	60790.95
906.8073	1707.8999	61466.15	60582.5
906.9487	1709.6182	61311.45	60427.1
907.09	1711.3358	61252.8	60367.4
907.2313	1713.0527	61149.55	60267.45
907.3725	1714.7688	61174.05	60282.25
907.5138	1716.4841	60606.55	59718.75
907.655	1718.1987	60794.3	59905.15
907.7962	1719.9126	60661.65	59778.05
907.9374	1721.6257	60756	59867.4
908.0786	1723.338	60768.75	59882.45
908.2198	1725.0496	60084.45	59198.55
908.3609	1726.7605	60165.95	59280.4
908.502	1728.4706	59912.8	59025.25
908.6431	1730.18	60178.2	59293.15
908.7842	1731.8886	59831.05	58947.75
908.9253	1733.5964	59628.8	58737.35
909.0664	1735.3036	59992.05	59106.65
909.2074	1737.0099	59704.9	58821.3
909.3484	1738.7156	59392.6	58509.45
909.4894	1740.4204	59262.2	58374.45
909.6304	1742.1246	59371.15	58485.5
909.7714	1743.8279	59470.3	58588.45
909.9123	1745.5306	59400.35	58512.7
910.0532	1747.2325	58552.25	57669.55
910.1941	1748.9336	58528.9	57643.4
910.335	1750.634	58712.8	57827.55
910.4759	1752.3336	58942.5	58060.95
910.6168	1754.0325	58297	57415.25
910.7576	1755.7307	58839.55	57954.6
910.8984	1757.4281	58074.3	57192.1
911.0392	1759.1247	58641.15	57749.9
911.18	1760.8206	57849.1	56957.35
911.3208	1762.5158	57942.25	57052.55
911.4615	1764.2102	58044.8	57160.5
911.6022	1765.9039	57814.65	56931.4
911.7429	1767.5968	57639.15	56755.6
911.8836	1769.289	57531.6	56646.15
912.0243	1770.9804	57599.8	56712.9
912.1649	1772.6711	57437.6	56551.4
912.3056	1774.361	57343.7	56458.65
912.4462	1776.0502	57312.65	56426.2
912.5868	1777.7386	56748.15	55859.9
912.7274	1779.4263	56978.85	56092.2
912.8679	1781.1132	56997.75	56114.7
913.0084	1782.7994	56788.9	55903.35
913.149	1784.4849	56885.85	56004.25
913.2895	1786.1696	56188.75	55296
913.4299	1787.8535	56550.35	55667.85
913.5704	1789.5367	56559.6	55674.9
913.7108	1791.2192	56110.2	55228.5
913.8513	1792.9009	55824.05	54907.75
913.9917	1794.5818	56029.25	55143.1
914.132	1796.2621	55736.05	54853.95
914.2724	1797.9415	55714.05	54827
914.4128	1799.6202	55627.15	54742.75
914.5531	1801.2982	55622.95	54735.95
914.6934	1802.9755	55221.75	54337.95
914.8337	1804.6519	55082.05	54195.65
914.9739	1806.3277	55525.25	54641.1
915.1142	1808.0027	54646.4	53764.25
915.2544	1809.6769	54916	54033.7
915.3946	1811.3504	55029.8	54145.5
915.5348	1813.0231	54329.9	53447.4
915.675	1814.6951	54723.4	53840
915.8151	1816.3664	54470.05	53581.95
915.9553	1818.0369	54420.75	53538.05
916.0954	1819.7067	54226.7	53340.7
916.2355	1821.3757	54577.15	53690.35
916.3755	1823.044	53921.1	53036.15
916.5156	1824.7115	53693.7	52809.3
916.6556	1826.3783	53795.05	52912.7
916.7956	1828.0443	53749.55	52869.05
916.9356	1829.7096	53529.4	52645.45
917.0756	1831.3741	53197.35	52310.2
917.2155	1833.0379	53354.8	52469.95
917.3555	1834.701	53271.05	52386.35
917.4954	1836.3633	52959.2	52075.3
917.6353	1838.0248	53088.05	52202.4
917.7751	1839.6856	52989.85	52106.45
917.915	1841.3457	52652.5	51767.1
918.0548	1843.005	52861.3	51977.75
918.1946	1844.6636	52631.9	51750.15
918.3344	1846.3214	52210.2	51326.75
918.4742	1847.9785	52340.3	51459.4
918.6139	1849.6349	52238.65	51354.6
918.7537	1851.2904	52403.5	51509.05
918.8934	1852.9453	51905.65	51019.8
919.0331	1854.5994	52043.2	51156.2
919.1727	1856.2528	52055.9	51165.25
919.3124	1857.9054	51693.25	50807.85
919.452	1859.5572	51548.95	50665.5
919.5916	1861.2083	51591.8	50707.7
919.7312	1862.8587	51935.55	51051.1
919.8708	1864.5084	51041.1	50155.2
920.0103	1866.1572	51386.7	50501.05
920.1498	1867.8054	50833.75	49947.85
920.2893	1869.4528	51109.25	50224
920.4288	1871.0994	50666.85	49782.25
920.5683	1872.7453	50626.55	49742.2
920.7077	1874.3905	50720.3	49829.35
920.8471	1876.0349	50341.15	49456.15
920.9865	1877.6786	50553.9	49668.55
921.1259	1879.3215	50254.85	49370.4
921.2653	1880.9637	50418.05	49532.65
921.4046	1882.6051	50078.9	49196.8
921.5439	1884.2458	49891.4	49004.55
921.6832	1885.8858	49675.8	48793.05
921.8225	1887.525	49764.05	48878.75
921.9617	1889.1634	49605.25	48720.7
922.101	1890.8011	49344.6	48459.5
922.2402	1892.4381	49067.5	48182.75
922.3794	1894.0743	49335.25	48451.1
922.5185	1895.7098	49040.45	48157
922.6577	1897.3446	48818.3	47932.6
922.7968	1898.9786	48822.55	47935.9
922.9359	1900.6118	48582.75	47697.15
923.075	1902.2443	48334.7	47449.5
923.214	1903.8761	48428.85	47545.7
923.3531	1905.5071	48103	47215.9
923.4921	1907.1374	47759.55	46876.7
923.6311	1908.7669	47931.35	47046
923.77	1910.3957	47991.4	47108.45
923.909	1912.0237	47477.95	46596.4
924.0479	1913.651	47364.9	46481
924.1868	1915.2776	47190.4	46306.3
924.3257	1916.9034	47102.1	46218.75
924.4646	1918.5285	46879.1	45996.6
924.6034	1920.1528	46770.05	45887.45
924.7422	1921.7764	46678.15	45794.35
924.881	1923.3992	46522.6	45637.6
925.0198	1925.0213	46222.2	45337.7
925.1586	1926.6427	45928.9	45046.95
925.2973	1928.2633	46158.9	45064.7
925.436	1929.8832	45820.6	44931.7
925.5747	1931.5023	45637.3	44753.95
925.7134	1933.1207	45440.15	44556.8
925.852	1934.7383	45446.8	44564.15
925.9906	1936.3552	45190.75	44308.7
926.1292	1937.9714	45086.3	44202.15
926.2678	1939.5868	45013.25	44128.4
926.4064	1941.2015	44676.9	43792.35
926.5449	1942.8154	44475.45	43592.6
926.6834	1944.4286	44414.15	43528.55
926.8219	1946.041	44253.55	43344.8
926.9604	1947.6528	43998.55	43112.3
927.0988	1949.2637	43928.1	43044.25
927.2372	1950.8739	43673.95	42790.6
927.3756	1952.4834	43681.15	42797.85
927.514	1954.0921	43573.75	42689.7
927.6523	1955.7001	43345.55	42458.45
927.7907	1957.3074	43309.6	42430.15
927.929	1958.9139	43027.25	42145.15
928.0673	1960.5197	42996.1	42111.65
928.2055	1962.1247	42799.65	41918.2
928.3438	1963.729	42588.7	41705.2
928.482	1965.3325	42423.2	41519.15
928.6202	1966.9353	42390.35	41507.9
928.7584	1968.5374	42150.95	41269.5
928.8965	1970.1387	42031	41148.75
929.0346	1971.7393	41918.2	41035.6
929.1727	1973.3392	41753.45	40871.85
929.3108	1974.9383	41612.7	40732
929.4489	1976.5366	41355.3	40473.5
929.5869	1978.1342	41351.65	40469.55
929.7249	1979.7311	41244.45	40360.95
929.8629	1981.3273	41101.2	40217.15
930.0009	1982.9227	41005.8	40123
930.1388	1984.5173	40866.95	39984.65
930.2767	1986.1112	40665.2	39784.5
930.4146	1987.7044	40620.5	39737.7
930.5525	1989.2968	40401.95	39519.95
930.6904	1990.8885	40399.75	39514.25
930.8282	1992.4795	40278.15	39394.55
930.966	1994.0697	40096.35	39215.7
931.1038	1995.6592	40003.5	39123
931.2415	1997.2479	39820.6	38939.15
931.3793	1998.8359	39726.2	38845.2
931.517	2000.4232	39531.8	38652
931.6547	2002.0097	39470.1	38590.75
931.7923	2003.5955	39227.85	38346.25
931.93	2005.1805	39248.65	38364.45
932.0676	2006.7648	39120.1	38238.95
932.2052	2008.3484	39012.95	38131.6
932.3427	2009.9312	39057.1	38176.75
932.4803	2011.5133	38806.3	37925.05
932.6178	2013.0946	38664.65	37783.15
932.7553	2014.6752	38553.3	37673.85
932.8928	2016.2551	38533.6	37652.4
933.0302	2017.8342	38384.3	37504.25
933.1676	2019.4126	38217.65	37338.85
933.305	2020.9902	38057.3	37177.3
933.4424	2022.5672	37994.9	37114.55
933.5798	2024.1433	37910.75	37026.35
933.7171	2025.7188	37742.5	36863.25
933.8544	2027.2935	37658.1	36776.9
933.9917	2028.8674	37440.7	36560.55
934.129	2030.4406	37386.9	36508.25
934.2662	2032.0131	37246.5	36366.75
934.4034	2033.5849	37064.9	36180.75
934.5406	2035.1559	36994.05	36114.3
934.6778	2036.7261	37008.7	36130.5
934.8149	2038.2957	36856	35976
934.952	2039.8645	36764.8	35884.05
935.0891	2041.4325	36768.6	35883.7
935.2262	2042.9998	36585.95	35704.2
935.3632	2044.5664	36501.85	35619.1
935.5002	2046.1323	36358.1	35477.15
935.6372	2047.6974	36229.55	35350.55
935.7742	2049.2617	36132.2	35253.3
935.9111	2050.8254	36132.1	35247.65
936.048	2052.3883	36001.65	35123.05
936.1849	2053.9504	35911	35030
936.3218	2055.5118	35741.95	34860.95
936.4586	2057.0725	35599.1	34713.45
936.5955	2058.6325	35568.05	34687.15
936.7323	2060.1917	35400.8	34521.05
936.869	2061.7502	35334.15	34451.8
937.0058	2063.3079	35210.65	34331.55
937.1425	2064.8649	35112.95	34230.65
937.2792	2066.4212	35040.25	34159.8
937.4159	2067.9767	34919.45	34040.35
937.5525	2069.5315	34744.2	33863.8
937.6891	2071.0856	34625.15	33743.5
937.8257	2072.6389	34445.15	33564.25
937.9623	2074.1915	34287.7	33409.4
938.0989	2075.7433	34182.6	33302.3
938.2354	2077.2945	34088.05	33208.3
938.3719	2078.8448	33944.75	33062.1
938.5084	2080.3945	33893.15	33012.65
938.6448	2081.9434	33797.3	32916.75
938.7812	2083.4916	33681.75	32800.4
938.9176	2085.039	33554	32672.4
939.054	2086.5857	33500.6	32616.65
939.1903	2088.1317	33428.25	32544.9
939.3267	2089.677	33310.7	32426.95
939.463	2091.2215	33249.5	32366.7
939.5992	2092.7652	33123.1	32240.65
939.7355	2094.3083	33043.55	32160.25
939.8717	2095.8506	32986.55	32107.7
940.0079	2097.3921	32955.25	32074.85
940.1441	2098.933	32783.55	31902.95
940.2802	2100.4731	32746.75	31865.6
940.4163	2102.0124	32707.6	31808.35
940.5524	2103.5511	32646.2	31764.3
940.6885	2105.089	32572.8	31690.85
940.8245	2106.6261	32520.65	31638.35
940.9606	2108.1626	32374.1	31493.65
941.0965	2109.6983	32339.85	31429
941.2325	2111.2332	32188.15	31305.9
941.3684	2112.7675	32074.05	31190.4
941.5044	2114.301	32002.6	31119.3
941.6403	2115.8337	31984.95	31102.7
941.7761	2117.3657	31900.95	31019.3
941.912	2118.897	31826.5	30944.6
942.0478	2120.4276	31702.2	30814.55
942.1835	2121.9575	31477.35	30596.05
942.3193	2123.4866	31509.35	30612.9
942.455	2125.0149	31386.15	30502.3
942.5907	2126.5426	31245	30364.55
942.7264	2128.0695	31166.9	30281.75
942.8621	2129.5956	31107.5	30228.5
942.9977	2131.1211	31069.75	30185.8
943.1333	2132.6458	30942	30061.25
943.2689	2134.1698	30897.45	30014.75
943.4044	2135.693	30802.4	29917.65
943.54	2137.2155	30765.5	29882.4
943.6755	2138.7373	30704.85	29825.2
943.8109	2140.2584	30525.8	29643.95
943.9464	2141.7787	30424.9	29538.05
944.0818	2143.2983	30313.1	29434.4
944.2172	2144.8171	30106.15	29228.05
944.3526	2146.3353	30093.55	29210.15
944.4879	2147.8527	29937.75	29057.15
944.6232	2149.3693	29952.6	29070.95
944.7585	2150.8853	29841.1	28958.55
944.8938	2152.4005	29668.9	28786.2
945.029	2153.9149	29656	28774
945.1642	2155.4287	29547.95	28666.1
945.2994	2156.9417	29528.5	28646.1
945.4346	2158.454	29364.65	28482.1
945.5697	2159.9655	29325.95	28444.85
945.7048	2161.4764	29278.95	28400.45
945.8399	2162.9865	29169.5	28287.5
945.9749	2164.4958	29082.05	28200.15
946.1099	2166.0045	28932.45	28049.1
946.2449	2167.5124	28932.25	28051.65
946.3799	2169.0195	28860.4	27978.65
946.5148	2170.526	28798.35	27915.35
946.6498	2172.0317	28680.7	27800.2
946.7846	2173.5367	28609.4	27729.45
946.9195	2175.0409	28496.9	27613.95
947.0543	2176.5445	28497.3	27617.35
947.1891	2178.0473	28405.6	27524.25
947.3239	2179.5494	28244.45	27358.95
947.4587	2181.0507	28126.1	27245.85
947.5934	2182.5513	28018.65	27137.05
947.7281	2184.0512	28015.25	27131.5
947.8628	2185.5504	27874.9	26993.55
947.9974	2187.0488	27754.05	26874
948.132	2188.5465	27699.15	26818.1
948.2666	2190.0435	27536.45	26655.35
948.4012	2191.5397	27455.1	26574.35
948.5357	2193.0353	27381.5	26501.6
948.6702	2194.5301	27262.15	26379.65
948.8047	2196.0241	27188.35	26306.7
948.9392	2197.5175	27114.7	26233.65
949.0736	2199.0101	26966.05	26079.8
949.208	2200.502	26878.9	25998.95
949.3424	2201.9931	26770.55	25889.65
949.4767	2203.4835	26668.4	25787.65
949.611	2204.9733	26623.2	25736.9
949.7453	2206.4622	26539.4	25660
949.8796	2207.9505	26447.75	25562.75
950.0138	2209.438	26326	25446.85
950.148	2210.9248	26241	25357.9
950.2822	2212.4109	26158.45	25278.5
950.4164	2213.8962	26053.95	25171.15
950.5505	2215.3809	25994.85	25111.4
950.6846	2216.8648	25936.5	25054.3
950.8186	2218.3479	25882	24994.45
950.9527	2219.8304	25728.8	24843.9
951.0867	2221.3121	25625.55	24739.1
951.2207	2222.7931	25556.2	24672.5
951.3546	2224.2733	25458.55	24574.35
951.4886	2225.7529	25351.8	24467.9
951.6225	2227.2317	25314.85	24430.8
951.7563	2228.7098	25283.8	24403.65
951.8902	2230.1872	25086.85	24207.35
952.024	2231.6638	25097.7	24215.5
952.1578	2233.1397	24994.3	24108.6
952.2916	2234.6149	24899.15	24019.65
952.4253	2236.0894	24818.1	23936.25
952.559	2237.5632	24745.05	23863.3
952.6927	2239.0362	24632.85	23752.75
952.8263	2240.5085	24555.6	23675.7
952.9599	2241.9801	24480.65	23598.85
953.0935	2243.4509	24383.55	23502.9
953.2271	2244.921	24333.4	23451.8
953.3606	2246.3904	24218.75	23333.85
953.4941	2247.8591	24123	23241.95
953.6276	2249.3271	24092.9	23210.65
953.7611	2250.7943	24022.5	23139.7
953.8945	2252.2608	23933.2	23051.2
954.0279	2253.7266	23860.7	22978.65
954.1612	2255.1917	23767.7	22889.2
954.2946	2256.656	23683.15	22799.8
954.4279	2258.1197	23591.65	22711.65
954.5612	2259.5826	23545.45	22662.05
954.6944	2261.0447	23522.45	22639.15
954.8276	2262.5062	23418.65	22535.55
954.9608	2263.9669	23398	22513.45
955.094	2265.4269	23280.3	22396.65
955.2271	2266.8862	23228.05	22344.05
955.3602	2268.3448	23223.3	22344.1
955.4933	2269.8026	23142.85	22262.1
955.6264	2271.2598	23029.15	22147.4
955.7594	2272.7162	22955.4	22074.1
955.8924	2274.1719	22896.75	22013.45
956.0253	2275.6268	22816.95	21934.4
956.1583	2277.0811	22778.7	21896.65
956.2912	2278.5346	22732.95	21851.5
956.4241	2279.9874	22652.3	21772.15
956.5569	2281.4395	22596.35	21716.7
956.6897	2282.8908	22497.85	21612.45
956.8225	2284.3414	22471.95	21588.7
956.9553	2285.7914	22379.3	21499.5
957.088	2287.2406	22290.4	21405.7
957.2207	2288.689	22235.8	21351.8
957.3534	2290.1368	22144.3	21257.2
957.486	2291.5838	22097.15	21212.85
957.6186	2293.0302	22058.65	21173.45
957.7512	2294.4758	21923.95	21041.35
957.8838	2295.9206	21865.2	20980.6
958.0163	2297.3648	21782	20903
958.1488	2298.8082	21782.8	20900.25
958.2813	2300.251	21723.4	20842.5
958.4137	2301.693	21638.2	20754.65
958.5461	2303.1343	21625.7	20743.4
958.6785	2304.5748	21498.8	20618.25
958.8108	2306.0147	21444.1	20563.9
958.9432	2307.4538	21379.35	20494.85
959.0754	2308.8922	21319.95	20441.35
959.2077	2310.3299	21226.2	20344.75
959.3399	2311.7669	21164.45	20284.75
959.4721	2313.2031	21134.45	20250.8
959.6043	2314.6387	21029.4	20147.05
959.7365	2316.0735	20953.45	20069.65
959.8686	2317.5076	20930.05	20047.3
960.0006	2318.941	20880.9	19999.2
960.1327	2320.3737	20774.85	19890.3
960.2647	2321.8056	20701.05	19817.45
960.3967	2323.2369	20661.2	19779
960.5287	2324.6674	20581.75	19696.45
960.6606	2326.0972	20490.55	19608
960.7925	2327.5263	20433.75	19551.6
960.9244	2328.9547	20341.1	19458.1
961.0562	2330.3823	20293.25	19411.4
961.1881	2331.8092	20253	19367.5
961.3198	2333.2355	20162.85	19280.95
961.4516	2334.661	20161.1	19276.45
961.5833	2336.0858	20094.25	19207.75
961.715	2337.5098	20066.85	19185.1
961.8467	2338.9332	20006.65	19122.9
961.9783	2340.3558	19940.4	19055.25
962.1099	2341.7778	19856.55	18973.6
962.2415	2343.199	19795.7	18912.65
962.373	2344.6195	19726.2	18845.15
962.5045	2346.0393	19678.55	18798
962.636	2347.4583	19621.55	18738.2
962.7675	2348.8767	19546.3	18662
962.8989	2350.2943	19471.55	18588.8
963.0303	2351.7113	19444	18559.65
963.1617	2353.1275	19385.7	18502.8
963.293	2354.543	19320.75	18428.55
963.4243	2355.9578	19267.95	18387.2
963.5556	2357.3718	19113.95	18233.45
963.6868	2358.7852	19053.45	18171.65
963.818	2360.1978	19016.1	18135.55
963.9492	2361.6098	18981.75	18100.35
964.0803	2363.021	18911.8	18025.45
964.2114	2364.4315	18846.9	17965.8
964.3425	2365.8413	18824.45	17935.85
964.4736	2367.2504	18719.45	17839.1
964.6046	2368.6587	18622.85	17742
964.7356	2370.0664	18576.95	17696.45
964.8666	2371.4733	18500.85	17620.6
964.9975	2372.8795	18469	17589.3
965.1284	2374.285	18385.8	17502.7
965.2593	2375.6899	18308	17428.25
965.3901	2377.0939	18226.85	17345.05
965.5209	2378.4973	18179.1	17298.7
965.6517	2379.9	18117.35	17236.75
965.7825	2381.3019	18069.05	17189.8
965.9132	2382.7032	17988.15	17110.3
966.0439	2384.1037	17972.35	17091.2
966.1745	2385.5035	17861.95	16981.25
966.3051	2386.9027	17816.2	16936.15
966.4357	2388.3011	17794	16908.05
966.5663	2389.6987	17715.8	16835.6
966.6968	2391.0957	17628.95	16747.5
966.8273	2392.492	17587	16706.45
966.9578	2393.8876	17482	16599.7
967.0882	2395.2824	17416.7	16536.95
967.2186	2396.6765	17356.9	16476
967.349	2398.07	17258.1	16378.15
967.4793	2399.4627	17252	16369.7
967.6097	2400.8547	17192.9	16309.5
967.7399	2402.246	17128.15	16241.65
967.8702	2403.6366	17031.25	16148.25
968.0004	2405.0265	16944.3	16062.5
968.1306	2406.4156	16918.85	16032.8
968.2607	2407.8041	16838.9	15954.45
968.3909	2409.1918	16752.05	15868.9
968.521	2410.5789	16699.8	15817.3
968.651	2411.9652	16626.65	15742.8
968.781	2413.3508	16598.45	15716.2
968.911	2414.7358	16487.8	15605.2
969.041	2416.12	16444.6	15564.3
969.1709	2417.5035	16411.55	15531.2
969.3008	2418.8863	16328.7	15447.5
969.4307	2420.2684	16295.65	15414.95
969.5606	2421.6497	16226.2	15343.25
969.6904	2423.0304	16116.65	15236.4
969.8201	2424.4104	16099.95	15217.8
969.9499	2425.7896	16059.9	15176.15
970.0796	2427.1682	16015.1	15133.9
970.2093	2428.546	15948.35	15066.7
970.3389	2429.9232	15936.5	15053.1
970.4685	2431.2996	15866.35	14984.2
970.5981	2432.6753	15838.55	14955.45
970.7277	2434.0503	15777.6	14895.7
970.8572	2435.4246	15683.2	14801.7
970.9867	2436.7982	15627.65	14743.7
971.1161	2438.1711	15563.35	14681.9
971.2456	2439.5433	15529.6	14646.05
971.375	2440.9148	15433	14551.4
971.5043	2442.2856	15368.3	14487.85
971.6336	2443.6557	15336.5	14454.6
971.7629	2445.025	15268.5	14386.1
971.8922	2446.3937	15281.1	14397.4
972.0214	2447.7617	15221.8	14339.25
972.1506	2449.1289	15210.95	14327.65
972.2798	2450.4955	15152.35	14265.85
972.4089	2451.8613	15095.25	14215.2
972.538	2453.2265	15044.7	14161.65
972.6671	2454.5909	15024.1	14140.5
972.7961	2455.9546	14976.35	14095.2
972.9251	2457.3177	14911.85	14029.95
973.0541	2458.68	14841.65	13959.5
973.1831	2460.0416	14862.7	13980.5
973.312	2461.4025	14841.2	13957.35
973.4408	2462.7627	14789.8	13897.85
973.5697	2464.1222	14715.95	13835.5
973.6985	2465.4811	14647.45	13766.4
973.8273	2466.8392	14567.5	13686.85
973.956	2468.1966	14534.05	13650.6
974.0847	2469.5533	14540.85	13658.65
974.2134	2470.9093	14497.1	13616.4
974.3421	2472.2645	14434.35	13549
974.4707	2473.6191	14410.95	13530.35
974.5993	2474.973	14326	13443.5
974.7278	2476.3262	14266.55	13382.75
974.8563	2477.6787	14226.3	13344.25
974.9848	2479.0305	14162	13279.95
975.1132	2480.3816	14124	13239.7
975.2417	2481.7319	14083	13201.6
975.37	2483.0816	14016.3	13132.2
975.4984	2484.4306	13965.05	13082.95
975.6267	2485.7789	13904.15	13023.2
975.755	2487.1264	13878.2	12995.55
975.8833	2488.4733	13763.3	12880.6
976.0115	2489.8195	13758.95	12870.4
976.1397	2491.165	13683.75	12801.3
976.2678	2492.5097	13646.65	12765.25
976.3959	2493.8538	13573.25	12691
976.524	2495.1972	13520.3	12638
976.6521	2496.5398	13478.7	12595.2
976.7801	2497.8818	13445.2	12562.05
976.9081	2499.2231	13414.9	12533.8
977.036	2500.5637	13361.5	12478.7
977.164	2501.9035	13308.3	12424.45
977.2918	2503.2427	13288.25	12405.3
977.4197	2504.5812	13208.25	12326.8
977.5475	2505.919	13175.05	12290.4
977.6753	2507.256	13156.25	12274.75
977.8031	2508.5924	13102.15	12219.4
977.9308	2509.9281	13045.2	12159.45
978.0585	2511.2631	12984.85	12101.1
978.1861	2512.5974	12962.3	12081.05
978.3137	2513.9309	12914.45	12032.6
978.4413	2515.2638	12872.5	11964.6
978.5689	2516.596	12811.4	11929.85
978.6964	2517.9275	12742.85	11862.2
978.8239	2519.2583	12736.1	11853.5
978.9513	2520.5884	12688.85	11805.65
979.0788	2521.9178	12637.75	11756.7
979.2062	2523.2465	12586.05	11705.65
979.3335	2524.5745	12513.4	11632
979.4608	2525.9018	12508.8	11626.6
979.5881	2527.2284	12455.95	11575.25
979.7154	2528.5543	12422.15	11542.85
979.8426	2529.8796	12368.55	11487
979.9698	2531.2041	12352.85	11473.05
980.0969	2532.5279	12339.8	11458.15
980.224	2533.851	12277.4	11393.65
980.3511	2535.1735	12275.75	11395.85
980.4781	2536.4952	12232.9	11349.1
980.6052	2537.8163	12212.15	11328.8
980.7321	2539.1366	12149.15	11270.55
980.8591	2540.4562	12102.6	11218.9
980.986	2541.7752	12089.45	11207.9
981.1129	2543.0935	12083.1	11198.5
981.2397	2544.411	12050.4	11167.55
981.3665	2545.7279	12000.3	11119.95
981.4933	2547.0441	11975.4	11092.1
981.62	2548.3596	11954.1	11070.1
981.7467	2549.6744	11930.85	11049.75
981.8734	2550.9885	11936.7	11048.9
982.0001	2552.3019	11870.95	10991
982.1267	2553.6146	11824.5	10942.1
982.2532	2554.9266	11785.85	10903.8
982.3798	2556.2379	11771.95	10889.65
982.5063	2557.5485	11728.15	10848.35
982.6327	2558.8585	11710.15	10821.35
982.7592	2560.1677	11659.85	10771.45
982.8856	2561.4762	11661.55	10778.45
983.0119	2562.7841	11635	10748.75
983.1383	2564.0913	11600.35	10719.75
983.2646	2565.3977	11573.25	10690.4
983.3908	2566.7035	11535.75	10653.3
983.517	2568.0086	11554.1	10671.7
983.6432	2569.313	11466.85	10583.05
983.7694	2570.6167	11436.5	10552.4
983.8955	2571.9197	11438.05	10558.15
984.0216	2573.222	11432.5	10546.75
984.1476	2574.5236	11391.4	10508.2
984.2737	2575.8246	11352.8	10466.45
984.3996	2577.1248	11340.45	10454.5
984.5256	2578.4244	11311.35	10430.75
984.6515	2579.7232	11289.6	10408.2
984.7774	2581.0214	11293.6	10389.85
984.9032	2582.3189	11245.3	10365.7
985.029	2583.6157	11221.75	10335.8
985.1548	2584.9118	11185.05	10304.95
985.2806	2586.2072	11137.5	10255.2
985.4063	2587.5019	11092.05	10211.1
985.5319	2588.7959	11079.95	10198.7
985.6576	2590.0893	11084.5	10202.65
985.7832	2591.3819	11030.9	10150.05
985.9087	2592.6739	10957.4	10075.95
986.0343	2593.9652	10950.2	10067.55
986.1597	2595.2557	10914.85	10034
986.2852	2596.5456	10865.65	9981.55
986.4106	2597.8348	10814.9	9936.4
986.536	2599.1234	10769.2	9888.35
986.6614	2600.4112	10757.25	9875.85
986.7867	2601.6983	10694.5	9808.3
986.912	2602.9848	10644.5	9763.55
987.0372	2604.2705	10603.65	9714.5
987.1624	2605.5556	10602.75	9722.4
987.2876	2606.84	10561	9678.45
987.4128	2608.1237	10506.8	9624.7
987.5379	2609.4067	10476.65	9595.35
987.6629	2610.689	10447.55	9558.2
987.788	2611.9707	10410.35	9526.2
987.913	2613.2516	10357.15	9472.1
988.0379	2614.5319	10312.4	9432.65
988.1629	2615.8115	10292.25	9410.3
988.2878	2617.0903	10237.2	9354.9
988.4126	2618.3685	10188.65	9307.6
988.5375	2619.6461	10141.95	9261.1
988.6622	2620.9229	10120.25	9237.45
988.787	2622.199	10078.8	9197.2
988.9117	2623.4745	10075.6	9193.7
989.0364	2624.7493	10050	9170.9
989.161	2626.0234	10005.85	9127.3
989.2857	2627.2968	9954.2	9074.2
989.4102	2628.5695	9904.8	9023.65
989.5348	2629.8415	9847.6	8967.5
989.6593	2631.1128	9821.4	8938.05
989.7837	2632.3835	9781.95	8900.25
989.9082	2633.6535	9739.95	8860.15
990.0326	2634.9228	9703.9	8823.1
990.1569	2636.1914	9675.3	8792.9
990.2812	2637.4593	9663.9	8775.15
990.4055	2638.7265	9598.05	8717.65
990.5298	2639.9931	9592.65	8713.2
990.654	2641.259	9573.2	8690.25
990.7782	2642.5242	9521.55	8639.95
990.9023	2643.7887	9512.85	8634.05
991.0264	2645.0525	9474.4	8593.55
991.1505	2646.3156	9417.05	8534.4
991.2745	2647.5781	9395.85	8513.45
991.3985	2648.8398	9369.5	8487.1
991.5225	2650.1009	9366.05	8445.1
991.6464	2651.3613	9322.3	8442.1
991.7703	2652.6211	9285.25	8402.5
991.8942	2653.8801	9257.2	8377.55
992.018	2655.1385	9241.7	8357.6
992.1418	2656.3961	9211.95	8331.5
992.2655	2657.6531	9174.45	8293.1
992.3892	2658.9094	9177.3	8296.6
992.5129	2660.1651	9123.2	8242.6
992.6366	2661.42	9141.9	8261.5
992.7602	2662.6743	9114.35	8232.8
992.8837	2663.9279	9089.55	8209.7
993.0073	2665.1808	9071.4	8191.45
993.1307	2666.433	9010.2	8129
993.2542	2667.6846	8970.95	8090.75
993.3776	2668.9354	8984.3	8099.05
993.501	2670.1856	8932.95	8052.5
993.6244	2671.4351	8917.9	8038.15
993.7477	2672.6839	8885.35	8003.1
993.8709	2673.9321	8851.5	7970
993.9942	2675.1795	8834.9	7952.6
994.1174	2676.4263	8812.05	7931.8
994.2405	2677.6724	8762.3	7879.65
994.3637	2678.9179	8759.6	7878.65
994.4868	2680.1626	8726.1	7844.3
994.6098	2681.4067	8698.9	7818.25
994.7328	2682.6501	8662.5	7781.85
994.8558	2683.8928	8651.75	7770.9
994.9788	2685.1348	8594.45	7715.2
995.1017	2686.3761	8555.3	7673.45
995.2245	2687.6168	8556.9	7677.3
995.3474	2688.8568	8514.65	7634.25
995.4702	2690.0961	8486.85	7607.4
995.5929	2691.3348	8467.85	7588.15
995.7156	2692.5727	8439.2	7559.1
995.8383	2693.81	8413.95	7532.35
995.961	2695.0466	8392.55	7513.45
996.0836	2696.2826	8350.3	7467.2
996.2062	2697.5178	8351.35	7468.05
996.3287	2698.7524	8305	7422.5
996.4512	2699.9863	8297.65	7414.5
996.5737	2701.2195	8232.9	7350.55
996.6961	2702.452	8241.95	7359.55
996.8185	2703.6839	8210.8	7328.45
996.9408	2704.9151	8197.6	7318.1
997.0631	2706.1456	8157.75	7276.05
997.1854	2707.3755	8119.95	7239.95
997.3077	2708.6046	8098.15	7214.2
997.4299	2709.8331	8091.05	7209.75
997.552	2711.0609	8065.8	7182.95
997.6742	2712.2881	8045.15	7165.5
997.7963	2713.5145	8023.2	7141
997.9183	2714.7403	7994.5	7113.4
998.0403	2715.9654	7953.25	7073.15
998.1623	2717.1899	7955.05	7071.85
998.2842	2718.4136	7913.4	7032.95
998.4062	2719.6367	7913.95	7032.7
998.528	2720.8591	7885.55	6996.65
998.6498	2722.0809	7861.25	6979.4
998.7716	2723.3019	7825.55	6943.3
998.8934	2724.5223	7806.15	6923.25
999.0151	2725.7421	7809.55	6926.85
999.1368	2726.9611	7772.75	6889.65
999.2584	2728.1795	7739.6	6855.5
999.38	2729.3972	7684.5	6804.05
999.5016	2730.6142	7677.5	6788.25
999.6231	2731.8306	7633.05	6754.45
999.7446	2733.0462	7581.15	6698.3
999.8661	2734.2612	7549.25	6663.5
999.9875	2735.4756	7507.7	6625.9
1000.1089	2736.6892	7480.95	6598.6
1000.2302	2737.9022	7447.5	6567.1
1000.3515	2739.1145	7402.65	6521.65
1000.4728	2740.3262	7383.75	6494
1000.594	2741.5372	7343.4	6464.9
1000.7152	2742.7475	7296.3	6415.65
1000.8363	2743.9571	7288.4	6407
1000.9575	2745.1661	7259.1	6373.25
1001.0785	2746.3744	7232.65	6351.5
1001.1996	2747.582	7185.55	6305.6
1001.3206	2748.7889	7157.5	6272.25
1001.4415	2749.9952	7161.65	6283.15
1001.5625	2751.2008	7106.4	6225.7
1001.6833	2752.4057	7096.15	6212.2
1001.8042	2753.61	7049.85	6168.8
1001.925	2754.8136	7049.65	6166.2
1002.0458	2756.0165	7021	6140.25
1002.1665	2757.2188	7005.8	6125.85
1002.2872	2758.4204	6975.7	6095.55
1002.4078	2759.6213	6951.45	6067.6
1002.5285	2760.8215	6915.65	6030.2
1002.649	2762.0211	6887.1	6004.95
1002.7696	2763.22	6872.35	5989.95
1002.8901	2764.4182	6868.9	5985
1003.0106	2765.6158	6843.5	5962.15
1003.131	2766.8127	6802.9	5922.7
1003.2514	2768.009	6771.8	5891.9
1003.3717	2769.2045	6747	5866.1
1003.492	2770.3994	6735.15	5852.75
1003.6123	2771.5936	6702.5	5822
1003.7325	2772.7872	6669.45	5788.5
1003.8527	2773.9801	6650.1	5766
1003.9729	2775.1723	6651.25	5752.7
1004.093	2776.3639	6595.85	5716.15
1004.2131	2777.5548	6594.6	5711.7
1004.3331	2778.745	6581.5	5700.05
1004.4531	2779.9346	6541.35	5661.05
1004.5731	2781.1235	6529.4	5647.55
1004.693	2782.3117	6519.45	5638.9
1004.8129	2783.4992	6508.6	5627.1
1004.9328	2784.6861	6472.05	5591.95
1005.0526	2785.8723	6454.5	5570.95
1005.1723	2787.0579	6445.35	5562.8
1005.2921	2788.2428	6413.45	5531.85
1005.4118	2789.427	6401.65	5520.25
1005.5314	2790.6106	6365.05	5484.8
1005.651	2791.7935	6356.9	5476.85
1005.7706	2792.9757	6346.65	5465
1005.8902	2794.1573	6310.05	5426.8
1006.0097	2795.3382	6294.65	5415.6
1006.1291	2796.5184	6303.2	5423.1
1006.2485	2797.698	6280.55	5400.45
1006.3679	2798.8769	6284.95	5404.95
1006.4873	2800.0551	6247.7	5365.6
1006.6066	2801.2327	6217.85	5334.45
1006.7258	2802.4096	6203.2	5324.55
1006.8451	2803.5859	6198.25	5317.85
1006.9642	2804.7615	6188.85	5306.65
1007.0834	2805.9364	6189.2	5309.15
1007.2025	2807.1106	6179.5	5301.55
1007.3216	2808.2842	6180.75	5299.35
1007.4406	2809.4572	6187.1	5308.9
1007.5596	2810.6294	6198.6	5316.5
1007.6785	2811.801	6207.7	5330.85
1007.7975	2812.972	6216.75	5338.4
1007.9163	2814.1423	6235.15	5355.3
1008.0352	2815.3119	6252.8	5371.05
1008.154	2816.4808	6264.25	5384.95
1008.2727	2817.6491	6274.15	5391.8
1008.3914	2818.8167	6304.45	5423.9
1008.5101	2819.9837	6319.75	5434.65
1008.6288	2821.15	6348.45	5469.6
1008.7474	2822.3157	6373.5	5495.7
1008.8659	2823.4807	6380.8	5500.3
1008.9844	2824.645	6426.8	5545.9
1009.1029	2825.8086	6463.2	5583.85
1009.2214	2826.9716	6471.95	5593.85
1009.3398	2828.134	6498.05	5618.5
1009.4581	2829.2957	6529.3	5648.6
1009.5764	2830.4567	6518.8	5639.95
1009.6947	2831.617	6546.3	5665.05
1009.813	2832.7767	6512.05	5632.05
1009.9312	2833.9358	6525.5	5646.85
1010.0493	2835.0941	6508	5624.6
1010.1675	2836.2519	6466.6	5587.7
1010.2855	2837.4089	6453.1	5571.35
1010.4036	2838.5653	6446.55	5566.9
1010.5216	2839.7211	6394.15	5515.45
1010.6396	2840.8761	6399.5	5519.8
1010.7575	2842.0306	6380.2	5503.45
1010.8754	2843.1843	6381.2	5501.8
1010.9932	2844.3374	6416.9	5537.7
1011.111	2845.4899	6409.25	5528.4
1011.2288	2846.6417	6480.1	5599.2
1011.3465	2847.7928	6509.4	5628.8
1011.4642	2848.9433	6533.75	5653.45
1011.5818	2850.0931	6575.45	5695.3
1011.6995	2851.2422	6621.35	5739.8
1011.817	2852.3907	6643.55	5762.7
1011.9345	2853.5385	6661.8	5780.45
1012.052	2854.6857	6696	5805.75
1012.1695	2855.8323	6719.95	5840.5
1012.2869	2856.9781	6732.85	5853.4
1012.4042	2858.1233	6755.25	5874.45
1012.5216	2859.2679	6759.05	5878.4
1012.6389	2860.4118	6789.5	5910.5
1012.7561	2861.555	6808.4	5924.2
1012.8733	2862.6976	6815.65	5935.7
1012.9905	2863.8395	6819.6	5940.8
1013.1076	2864.9808	6826	5947.75
1013.2247	2866.1214	6827.15	5947.45
1013.3417	2867.2614	6825.8	5942.8
1013.4587	2868.4007	6831.55	5950.1
1013.5757	2869.5393	6817.35	5935
1013.6926	2870.6773	6805.4	5923.3
1013.8095	2871.8146	6802.6	5919.4
1013.9263	2872.9513	6791.25	5909.85
1014.0431	2874.0874	6756.05	5876.75
1014.1599	2875.2227	6713.55	5834.6
1014.2766	2876.3574	6683.35	5803.55
1014.3933	2877.4915	6655.6	5774.75
1014.51	2878.6249	6583.3	5704.45
1014.6266	2879.7577	6573.95	5694.55
1014.7431	2880.8898	6546.9	5657.8
1014.8596	2882.0212	6515.55	5636.9
1014.9761	2883.152	6505.6	5626.65
1015.0925	2884.2821	6466.25	5584.2
1015.2089	2885.4116	6439.1	5557.65
1015.3253	2886.5405	6420.6	5539.6
1015.4416	2887.6686	6430.4	5549.75
1015.5579	2888.7962	6373.6	5497.75
1015.6741	2889.923	6384.9	5504.8
1015.7903	2891.0493	6385.5	5507.25
1015.9065	2892.1748	6360.8	5481.15
1016.0226	2893.2997	6359.35	5479.2
1016.1387	2894.424	6352.9	5475.6
1016.2547	2895.5476	6341.1	5463.65
1016.3707	2896.6706	6336.75	5457.55
1016.4866	2897.7929	6343.6	5464.65
1016.6025	2898.9145	6341.65	5460.5
1016.7184	2900.0355	6348.45	5469.15
1016.8342	2901.1559	6340.6	5459.9
1016.95	2902.2756	6376.4	5498.55
1017.0658	2903.3946	6369.9	5489.2
1017.1815	2904.513	6369.85	5487.85
1017.2971	2905.6308	6383.8	5503.7
1017.4127	2906.7479	6381.1	5500.2
1017.5283	2907.8643	6385.55	5507.6
1017.6439	2908.9801	6364	5484.4
1017.7594	2910.0953	6366.85	5487.35
1017.8748	2911.2098	6350.2	5467.5
1017.9902	2912.3236	6319.5	5431.35
1018.1056	2913.4368	6320.05	5436.65
1018.2209	2914.5494	6275.1	5394.9
1018.3362	2915.6613	6238.7	5353.25
1018.4515	2916.7725	6191.5	5309.5
1018.5667	2917.8831	6173.8	5292.3
1018.6819	2918.9931	6138.9	5257.1
1018.797	2920.1024	6095.4	5215.6
1018.9121	2921.211	6073.15	5192.9
1019.0271	2922.319	6057.7	5179.8
1019.1421	2923.4264	6015.45	5136.25
1019.2571	2924.5331	5988	5109.65
1019.372	2925.6391	5958.15	5079.5
1019.4869	2926.7445	5972.7	5092.9
1019.6017	2927.8493	5944.4	5063.3
1019.7165	2928.9534	5941.15	5061.5
1019.8313	2930.0569	5912.9	5031.3
1019.946	2931.1597	5919.7	5036.75
1020.0606	2932.2619	5903.2	5023.2
1020.1753	2933.3634	5888.5	5008.8
1020.2899	2934.4643	5887.35	5000.9
1020.4044	2935.5645	5858.55	4973
1020.5189	2936.6641	5834.45	4949.85
1020.6334	2937.763	5797.55	4918.65
1020.7478	2938.8613	5752.65	4872.05
1020.8622	2939.959	5718.5	4834.4
1020.9765	2941.056	5634.5	4754.75
1021.0908	2942.1523	5580.05	4699.9
1021.2051	2943.248	5510.6	4631.35
1021.3193	2944.3431	5434.15	4554.55
1021.4334	2945.4375	5319.4	4441.75
1021.5476	2946.5313	5248.6	4371.25
1021.6617	2947.6244	5151.45	4271.65
1021.7757	2948.7169	5066.7	4186.6
1021.8897	2949.8087	4989	4109.35
1022.0037	2950.8999	4901.25	4019.9
1022.1176	2951.9904	4832.35	3954.45
1022.2315	2953.0803	4762.25	3882.5
1022.3453	2954.1696	4680.7	3802.3
1022.4591	2955.2582	4652.15	3772.95
1022.5728	2956.3462	4606.1	3725.8
1022.6865	2957.4335	4560.45	3680.1
1022.8002	2958.5202	4507.85	3626.75
1022.9138	2959.6062	4478.35	3602.25
1023.0274	2960.6916	4452.15	3573.55
1023.141	2961.7764	4436.45	3554.9
1023.2545	2962.8605	4385.9	3505.85
1023.3679	2963.9439	4369.1	3490.2
1023.4813	2965.0267	4351.3	3471.85
1023.5947	2966.1089	4358.8	3456.75
1023.708	2967.1905	4300.65	3421.05
1023.8213	2968.2714	4294.25	3415.05
1023.9346	2969.3516	4283.3	3403.95
1024.0478	2970.4312	4278.6	3391.1
1024.1609	2971.5102	4263.25	3384.4
1024.274	2972.5885	4257.2	3379.35
1024.3871	2973.6662	4242.6	3359.3
1024.5002	2974.7432	4231.6	3352.65
1024.6132	2975.8196	4221.5	3343.35
1024.7261	2976.8954	4200.7	3321.6
1024.839	2977.9705	4175.1	3297.25
1024.9519	2979.045	4161.15	3282.35
1025.0647	2980.1188	4136.35	3255.95
1025.1775	2981.192	4108.8	3230.7
1025.2902	2982.2645	4084	3203.5
1025.4029	2983.3364	4042.35	3163.05
1025.5156	2984.4077	4016.15	3137.65
1025.6282	2985.4783	3991.75	3106.4
1025.7407	2986.5483	3966.65	3088.45
1025.8532	2987.6177	3932.15	3053.05
1025.9657	2988.6864	3901.9	3023.75
1026.0782	2989.7545	3871.3	2990.7
1026.1906	2990.8219	3820.2	2941
1026.3029	2991.8887	3794.6	2912.95
1026.4152	2992.9548	3770.2	2892.05
1026.5275	2994.0204	3731.9	2853.8
1026.6397	2995.0852	3695.55	2816.3
1026.7519	2996.1495	3676.2	2794.55
1026.864	2997.2131	3634.65	2754.75
1026.9761	2998.276	3622.2	2744.5
1027.0882	2999.3383	3583.75	2702.5
1027.2002	3000.4	3560.6	2679.55
1027.3122	3001.4611	3536.4	2655.5
1027.4241	3002.5215	3508.85	2629.75
1027.536	3003.5812	3488.7	2611.25
1027.6478	3004.6404	3479	2602
1027.7596	3005.6989	3466.8	2585.8
1027.8714	3006.7567	3432.55	2551.75
1027.9831	3007.8139	3443.7	2534.45
1028.0947	3008.8705	3399.9	2520.3
1028.2064	3009.9264	3399.6	2516.75
1028.3179	3010.9818	3394.4	2516.05
1028.4295	3012.0364	3372.2	2491.6
1028.541	3013.0905	3346.9	2467.4
1028.6524	3014.1439	3333.65	2455.7
1028.7638	3015.1966	3320.6	2442.6
1028.8752	3016.2487	3311	2431.75
1028.9865	3017.3002	3308.3	2424.8
1029.0978	3018.3511	3290.1	2411.3
1029.209	3019.4013	3286.65	2408.1
1029.3202	3020.4509	3283.15	2405.85
1029.4314	3021.4998	3267.65	2388.25
1029.5425	3022.5481	3262.85	2382.2
1029.6535	3023.5958	3241.6	2362.9
1029.7645	3024.6428	3240.5	2362.65
1029.8755	3025.6892	3217.55	2338.55
1029.9864	3026.735	3224.3	2344.6
1030.0973	3027.7802	3223.05	2343.45
1030.2082	3028.8247	3198.2	2320.95
1030.319	3029.8685	3181.4	2302.85
1030.4297	3030.9118	3184.2	2304.05
1030.5404	3031.9544	3160.35	2281.05
1030.6511	3032.9963	3155.6	2277.15
1030.7617	3034.0376	3146.8	2268.8
1030.8723	3035.0783	3142.85	2262.85
1030.9829	3036.1184	3137.4	2255.15
1031.0934	3037.1578	3132.65	2255.25
1031.2038	3038.1966	3124	2244.55
1031.3142	3039.2348	3119.8	2241.95
1031.4246	3040.2723	3112.7	2224.55
1031.5349	3041.3092	3109.35	2232.5
1031.6452	3042.3455	3088.35	2209.8
1031.7554	3043.3811	3070.75	2191.5
1031.8656	3044.4161	3067.85	2189.15
1031.9758	3045.4505	3080.3	2200.1
1032.0859	3046.4842	3052.65	2171
1032.1959	3047.5173	3034.25	2157.15
1032.3059	3048.5498	3033	2153.9
1032.4159	3049.5816	3025.5	2145.8
1032.5258	3050.6128	3030.15	2151.45
1032.6357	3051.6434	3020	2139.85
1032.7455	3052.6734	3003.7	2125.05
1032.8553	3053.7027	3001.5	2122.95
1032.9651	3054.7314	2987	2108.5
1033.0748	3055.7594	2964.4	2086
1033.1845	3056.7868	2955.05	2075.5
1033.2941	3057.8136	2952.3	2073.9
1033.4037	3058.8398	2924.8	2046.05
1033.5132	3059.8653	2922.75	2043.5
1033.6227	3060.8902	2912.95	2033.45
1033.7321	3061.9145	2892.55	2014.55
1033.8415	3062.9381	2882.5	2004.15
1033.9509	3063.9612	2899.9	2003.7
1034.0602	3064.9835	2870.65	1992.45
1034.1694	3066.0053	2868.6	1988.95
1034.2787	3067.0264	2846.1	1967.5
1034.3878	3068.0469	2854.05	1973.6
1034.497	3069.0668	2834.4	1951.5
1034.6061	3070.086	2823.5	1945.4
1034.7151	3071.1046	2795.25	1915.55
1034.8241	3072.1226	2800.25	1921.9
1034.9331	3073.1399	2796.55	1919.35
1035.042	3074.1567	2769.25	1890.5
1035.1508	3075.1727	2757.4	1876.65
1035.2597	3076.1882	2733.9	1856.4
1035.3684	3077.203	2743.95	1865.2
1035.4772	3078.2173	2728.6	1848.95
1035.5859	3079.2308	2710.1	1829
1035.6945	3080.2438	2711.2	1830.05
1035.8031	3081.2561	2679.15	1800.7
1035.9117	3082.2678	2666.3	1787.95
1036.0202	3083.2789	2663.05	1782.3
1036.1286	3084.2893	2660	1782.2
1036.2371	3085.2991	2652.5	1773.3
1036.3454	3086.3083	2635.2	1751.7
1036.4538	3087.3169	2635.2	1754.75
1036.562	3088.3248	2618.1	1737.95
1036.6703	3089.3321	2608.15	1727.45
1036.7785	3090.3388	2590.75	1712.6
1036.8866	3091.3449	2589.65	1711.35
1036.9948	3092.3503	2578.9	1698.45
1037.1028	3093.3551	2572.85	1696.35
1037.2108	3094.3593	2561.3	1685
1037.3188	3095.3629	2531.8	1653.9
1037.4267	3096.3658	2530.55	1651.3
1037.5346	3097.3681	2518	1640.05
1037.6425	3098.3698	2507.2	1627.2
1037.7503	3099.3708	2523.4	1640.65
1037.858	3100.3713	2503.05	1624.2
1037.9657	3101.3711	2472.05	1593.15
1038.0734	3102.3702	2605	1590.15
1038.181	3103.3688	2477.9	1598.7
1038.2886	3104.3667	2460.95	1582.6
1038.3961	3105.364	2450.5	1571.45
1038.5036	3106.3607	2452.55	1571.85
1038.611	3107.3568	2432.55	1554.35
1038.7184	3108.3522	2419.65	1542.7
1038.8257	3109.347	2410.1	1530.5
1038.933	3110.3412	2406.4	1524.6
1039.0403	3111.3348	2395.8	1516.5
1039.1475	3112.3277	2382.2	1503.6
1039.2547	3113.32	2369.45	1492.45
1039.3618	3114.3117	2369.65	1493
1039.4689	3115.3028	2356.15	1476.25
1039.5759	3116.2932	2347.35	1466.8
1039.6829	3117.2831	2339.95	1455.95
1039.7898	3118.2723	2334.75	1454.75
1039.8967	3119.2608	2322.25	1442.25
1040.0035	3120.2488	2314.7	1436.35
1040.1103	3121.2361	2308.05	1427.1
1040.2171	3122.2229	2297.3	1418.1
1040.3238	3123.209	2283.3	1404.55
1040.4305	3124.1944	2287	1408.75
1040.5371	3125.1793	2277.25	1396
1040.6437	3126.1635	2284.75	1406.8
1040.7502	3127.1471	2264.25	1386.85
1040.8567	3128.1301	2245.3	1366.4
1040.9631	3129.1125	2252.3	1375.95
1041.0695	3130.0942	2250.05	1372.3
1041.1759	3131.0753	2243	1355.75
1041.2822	3132.0558	2230.9	1349.7
1041.3884	3133.0357	2219.3	1338.05
1041.4946	3134.015	2212.2	1331.4
1041.6008	3134.9936	2209	1328.85
1041.7069	3135.9716	2221.95	1322.8
1041.813	3136.949	2194.95	1318
1041.919	3137.9258	2189.55	1307.65
1042.025	3138.902	2198.15	1315.2
1042.1309	3139.8775	2180.9	1303.7
1042.2368	3140.8524	2175.7	1295.8
1042.3427	3141.8267	2172.2	1291.3
1042.4485	3142.8004	2165	1287.65
1042.5542	3143.7735	2169.05	1285.4
1042.6599	3144.7459	2161.7	1280.4
1042.7656	3145.7178	2159.5	1281.3
1042.8712	3146.689	2146.6	1269.15
1042.9768	3147.6596	2142.4	1261.15
1043.0823	3148.6295	2124	1244.65
1043.1878	3149.5989	2119	1240.3
1043.2932	3150.5676	2098.75	1221.8
1043.3986	3151.5357	2100.3	1223.85
1043.5039	3152.5032	2100.05	1223.5
1043.6092	3153.4701	2098.2	1219.3
1043.7145	3154.4364	2087.25	1207.55
1043.8197	3155.402	2077.9	1200.65
1043.9248	3156.367	2073.75	1194.05
1044.03	3157.3315	2104.6	1188.4
1044.135	3158.2952	2069.6	1191.75
1044.24	3159.2584	2049.8	1170.7
1044.345	3160.221	2037	1157.45
1044.4499	3161.1829	2036	1155.65
1044.5548	3162.1442	2032.15	1153.4
1044.6596	3163.105	2022.85	1143.6
1044.7644	3164.065	2013.8	1136.05
1044.8692	3165.0245	2010.8	1130.45
1044.9739	3165.9834	2007.25	1130.75
1045.0785	3166.9416	1998.2	1120.55
1045.1831	3167.8993	1992.85	1115.9
1045.2877	3168.8563	1990	1109.7
1045.3922	3169.8127	1974.2	1095.35
1045.4966	3170.7684	1971.15	1093.6
1045.6011	3171.7236	1977.55	1096.05
1045.7054	3172.6782	1958.45	1081.65
1045.8098	3173.6321	1959	1077.75
1045.914	3174.5854	1953.1	1070.65
1046.0183	3175.5381	1943.2	1064.4
1046.1224	3176.4902	1935	1056.85
1046.2266	3177.4417	1930.25	1052.9
1046.3307	3178.3926	1929.85	1052.95
1046.4347	3179.3428	1919.6	1041
1046.5387	3180.2924	1910.15	1031.05
1046.6427	3181.2415	1906.3	1026.2
1046.7466	3182.1899	1904.7	1023.65
1046.8504	3183.1377	1898.4	1022.4
1046.9542	3184.0848	1892.45	1010.5
1047.058	3185.0314	1883.8	1006.1
1047.1617	3185.9773	1883.9	1004
1047.2654	3186.9227	1871.9	992.2
1047.369	3187.8674	1874.6	995.25
1047.4726	3188.8115	1868.55	988.65
1047.5761	3189.755	1866.25	987.55
1047.6796	3190.6979	1846.3	967.75
1047.783	3191.6402	1858.85	981.5
1047.8864	3192.5818	1840.7	962.8
1047.9898	3193.5229	1852.05	956.4
1048.0931	3194.4633	1833.75	955.65
1048.1963	3195.4031	1834.75	955.2
1048.2995	3196.3423	1838.05	959.3
1048.4027	3197.2809	1821.9	942.9
1048.5058	3198.2189	1821.25	941.45
1048.6089	3199.1563	1826.95	931.55
1048.7119	3200.0931	1799.85	923.1
1048.8148	3201.0292	1792.8	915.3
1048.9178	3201.9648	1789.5	911.5
1049.0206	3202.8997	1791.7	909.3
1049.1235	3203.834	1788.2	909.85
1049.2262	3204.7677	1780.45	903.4
1049.329	3205.7008	1779.8	899.15
1049.4317	3206.6333	1770.5	894.85
1049.5343	3207.5652	1775.7	895.25
1049.6369	3208.4964	1760.25	882.45
1049.7394	3209.4271	1767.1	888.85
1049.8419	3210.3571	1756.65	876.85
1049.9444	3211.2865	1753.2	875.7
1050.0468	3212.2154	1746.5	866.9
1050.1491	3213.1436	1735.6	855.2
1050.2514	3214.0712	1744.85	859.1
1050.3537	3214.9982	1740.8	863.5
1050.4559	3215.9246	1728.45	848.9
1050.5581	3216.8503	1729.75	853.05
1050.6602	3217.7755	1720.75	842.85
1050.7623	3218.7001	1716.4	838.35
1050.8643	3219.624	1724.1	845.65
1050.9663	3220.5473	1709.55	831.2
1051.0682	3221.4701	1698.45	819.45
1051.1701	3222.3922	1699.95	818.15
1051.2719	3223.3137	1700.5	823.25
1051.3737	3224.2346	1689.05	810.15
1051.4754	3225.1549	1682.9	804.8
1051.5771	3226.0746	1680.3	803.8
1051.6788	3226.9937	1674.75	795.15
1051.7804	3227.9121	1670	792.4
1051.8819	3228.83	1673.55	796.8
1051.9834	3229.7473	1674.15	794.8
1052.0849	3230.6639	1654.55	776.35
1052.1863	3231.5799	1651.1	772.9
1052.2876	3232.4954	1653.55	773.9
1052.3889	3233.4102	1651.25	774.5
1052.4902	3234.3244	1641.45	763.05
1052.5914	3235.238	1641.1	764.8
1052.6926	3236.151	1658.5	758.1
1052.7937	3237.0634	1622.45	747.25
1052.8948	3237.9752	1623.75	746.8
1052.9958	3238.8864	1623.25	743.8
1053.0968	3239.797	1616.1	739.7
1053.1977	3240.7069	1613.15	733.25
1053.2986	3241.6163	1609.65	729.6
1053.3994	3242.5251	1606	729.05
1053.5002	3243.4332	1597.4	720.5
1053.6009	3244.3408	1588.7	710.5
1053.7016	3245.2477	1589.3	712.25
1053.8022	3246.154	1582.55	704.2
1053.9028	3247.0598	1573.85	694.1
1054.0034	3247.9649	1575.1	695.3
1054.1039	3248.8694	1571.95	693.65
1054.2043	3249.7733	1571.85	694.7
1054.3047	3250.6766	1556.8	679.45
1054.4051	3251.5793	1562	684.8
1054.5054	3252.4814	1552.35	673.55
1054.6056	3253.3829	1544.85	666.9
1054.7058	3254.2838	1544.1	665.7
1054.806	3255.1841	1544.95	668.15
1054.9061	3256.0838	1535.4	656.9
1055.0061	3256.9829	1530.15	653.35
1055.1062	3257.8814	1530.35	649.8
1055.2061	3258.7792	1518.8	638.4
1055.306	3259.6765	1511.55	632.2
1055.4059	3260.5731	1508.3	628.25
1055.5057	3261.4692	1498.4	619.9
1055.6055	3262.3647	1495.25	617.4
1055.7052	3263.2595	1486.15	607.15
1055.8049	3264.1538	1472.3	594.65
1055.9045	3265.0474	1462.1	583.85
1056.0041	3265.9404	1455.4	576
1056.1036	3266.8329	1444.5	567.45
1056.2031	3267.7247	1447.8	559.15
1056.3025	3268.616	1427.95	550.8
1056.4019	3269.5066	1415.15	536.85
1056.5013	3270.3966	1396.35	516.65
1056.6005	3271.286	1373.55	495.95
