Software Version:	3.9.2.0
Unit SN:	10000200
Spectrometer SN:	6960
Date:	3/6/2024 9:44:29 AM
Data Line Index:	25
Spectral Points:	2048
Integration time (ms):	125
Averages:	20
Delay (ms):	30
Sequence Number:	1
Processing:	dark subtract
Laser Power (mW):	305
Laser Current (mA):	823
Laser Diode Temp (C):	25
Laser Case Temp (C):	24
System Temp (C):	23.9
Spectrometer Temp (C):	21.5
CCD Temp (C):	-0.023
Secondary Temp (C):	20.008
Heatsink Temp (C):	17.834
CCDPCB Temp (C):	30.66
SecondaryPCB Temp (C):	25.591

Wavelength	RamanShift	Raw Counts	Dark Subtracted
787.061	30.1047	457.4	50.95
787.2016	32.3739	456.95	52.3
787.3422	34.6426	463.65	56.6
787.4828	36.9109	470.5	62.65
787.6235	39.1787	475.35	61.15
787.7642	41.4461	482.9	66
787.9049	43.7131	489	69.15
788.0456	45.9796	494.75	72.6
788.1863	48.2456	502.5	77.25
788.3271	50.5112	509.55	78.45
788.4679	52.7764	521.05	88.75
788.6087	55.0411	530.2	92.35
788.7496	57.3054	540.25	97.3
788.8904	59.5692	549.05	105.35
789.0313	61.8326	557.25	111.5
789.1722	64.0955	568.55	119.1
789.3132	66.3579	587.15	133.1
789.4541	68.6199	599.6	143.8
789.5951	70.8815	625.6	164.05
789.7361	73.1426	684.95	219.35
789.8771	75.4032	821.65	350.55
790.0181	77.6634	1165.15	692.55
790.1592	79.9231	1995.4	1519.85
790.3003	82.1824	3714.35	3232.15
790.4414	84.4412	6761.55	6269.8
790.5825	86.6995	10870.1	10368.55
790.7237	88.9574	14883.45	14374.15
790.8648	91.2148	17842.55	17328.75
791.006	93.4717	19458.15	18938.15
791.1472	95.7282	20171.4	19647.85
791.2885	97.9842	20536.9	20013.15
791.4297	100.2398	20650.4	20125.6
791.571	102.4949	20718.3	20187.8
791.7123	104.7495	20710.25	20178.7
791.8536	107.0036	20698.7	20161.95
791.9949	109.2573	20728.45	20194
792.1363	111.5105	20739.4	20203.05
792.2777	113.7632	20720.8	20181.05
792.4191	116.0154	20762.25	20211.3
792.5605	118.2672	20801.85	20261.25
792.7019	120.5185	20836.6	20292.85
792.8434	122.7693	20871.65	20322.95
792.9849	125.0197	20912.3	20359.85
793.1264	127.2696	20918.65	20362.95
793.2679	129.519	20985	20425.55
793.4094	131.7679	21044.1	20481.5
793.551	134.0163	21093.3	20529
793.6926	136.2642	21111.4	20541.85
793.8342	138.5117	21137.3	20566.2
793.9758	140.7587	21131.95	20560.95
794.1175	143.0052	21190.2	20617.25
794.2591	145.2512	21138.2	20563.1
794.4008	147.4967	21122.45	20547.05
794.5425	149.7417	21141.35	20559.35
794.6842	151.9863	21127.6	20544.1
794.826	154.2304	21160.85	20572.35
794.9677	156.4739	21107.1	20510.3
795.1095	158.717	21151.7	20558.9
795.2513	160.9596	21190.15	20591.6
795.3931	163.2017	21188.5	20589.4
795.535	165.4433	21221.85	20619
795.6768	167.6844	21218.2	20613.6
795.8187	169.925	21229.2	20620.65
795.9606	172.1651	21174.75	20563.15
796.1025	174.4047	21207.5	20592.5
796.2445	176.6439	21192.55	20576.45
796.3864	178.8825	21185.45	20568.7
796.5284	181.1206	21237.6	20614.55
796.6704	183.3582	21256.6	20629.75
796.8124	185.5954	21283.65	20653.6
796.9544	187.832	21296.6	20664.85
797.0965	190.0681	21352	20715.95
797.2386	192.3037	21398.8	20759.95
797.3806	194.5388	21382.9	20741.55
797.5228	196.7734	21462.5	20819.85
797.6649	199.0075	21528.75	20884.6
797.807	201.2411	21638.85	20994.05
797.9492	203.4742	21690.8	21045.2
798.0914	205.7068	21749.25	21096.25
798.2336	207.9389	21773.1	21120.05
798.3758	210.1704	21851.05	21202.15
798.518	212.4015	21799.9	21164.35
798.6603	214.632	21866.8	21237.6
798.8025	216.862	21925.05	21296.1
798.9448	219.0915	21876.4	21245.1
799.0871	221.3205	21951.4	21317.45
799.2294	223.549	22017	21388.2
799.3718	225.777	22038.45	21408.5
799.5141	228.0044	22070.1	21430.9
799.6565	230.2314	22110.55	21471.1
799.7989	232.4578	22108.4	21462.9
799.9413	234.6837	22134.8	21481.55
800.0837	236.909	22169.3	21515.5
800.2262	239.1339	22209.3	21529.65
800.3687	241.3582	22221.85	21556.6
800.5111	243.582	22250.85	21555.8
800.6536	245.8053	22288.25	21603.65
800.7961	248.0281	22282.3	21603.65
800.9387	250.2503	22272.8	21590.4
801.0812	252.472	22294.95	21608.85
801.2238	254.6932	22321.15	21641.9
801.3664	256.9139	22315.1	21629.15
801.509	259.134	22354.95	21665.9
801.6516	261.3536	22374.4	21688.55
801.7942	263.5727	22426.1	21737.6
801.9369	265.7912	22387.45	21697.9
802.0795	268.0092	22490.75	21803.85
802.2222	270.2267	22479.35	21789.8
802.3649	272.4436	22541.3	21851.5
802.5076	274.6601	22545	21845
802.6504	276.8759	22544	21846.8
802.7931	279.0913	22528.85	21831
802.9359	281.3061	22537.65	21841.45
803.0787	283.5204	22652.7	21950.1
803.2215	285.7341	22666.25	21965.4
803.3643	287.9473	22704.8	21990.15
803.5071	290.16	22682.85	21974.9
803.6499	292.3721	22682.95	21979.65
803.7928	294.5837	22703.65	21998.15
803.9357	296.7947	22653.5	21949.25
804.0786	299.0052	22661.4	21954.95
804.2215	301.2152	22574.3	21863.75
804.3644	303.4246	22630.6	21923.85
804.5074	305.6334	22546.15	21839.55
804.6503	307.8418	22541.6	21829.3
804.7933	310.0495	22527.2	21816.1
804.9363	312.2568	22547.9	21837.7
805.0793	314.4635	22466.55	21753.95
805.2223	316.6696	22410.35	21691.95
805.3653	318.8752	22313.9	21588.65
805.5084	321.0802	22312.45	21596.7
805.6514	323.2847	22333.25	21613.05
805.7945	325.4887	22267.55	21547.9
805.9376	327.692	22250.85	21528.1
806.0807	329.8949	22329.5	21604.85
806.2238	332.0972	22365.7	21640.65
806.367	334.2989	22401.2	21669.9
806.5101	336.5001	22379.9	21650.4
806.6533	338.7007	22364.25	21634.35
806.7965	340.9008	22386.75	21654.85
806.9397	343.1003	22340.65	21604.95
807.0829	345.2992	22328.95	21595.6
807.2261	347.4976	22262	21525
807.3693	349.6955	22247.35	21506.5
807.5126	351.8927	22270.8	21529.6
807.6559	354.0895	22239	21487.9
807.7991	356.2856	22255.4	21513.7
807.9424	358.4812	22215.4	21473.8
808.0857	360.6763	22250.65	21505.1
808.2291	362.8707	22210.15	21461.9
808.3724	365.0646	22230.45	21479.25
808.5158	367.258	22195.35	21444.45
808.6591	369.4508	22168.2	21414.75
808.8025	371.643	22211.35	21460.05
808.9459	373.8346	22135.6	21378.2
809.0893	376.0257	22167.65	21408.45
809.2327	378.2162	22080.9	21321.7
809.3762	380.4062	22113.3	21355.15
809.5196	382.5956	22059.95	21303.7
809.6631	384.7844	22076.85	21324.65
809.8066	386.9726	21991.3	21237.45
809.9501	389.1603	21927.35	21175.5
810.0936	391.3474	21945.9	21152.55
810.2371	393.5339	21925.6	21169.5
810.3806	395.7199	21882.45	21131.95
810.5241	397.9052	21862.9	21112.5
810.6677	400.09	21844.1	21092.7
810.8113	402.2743	21886.65	21131.95
810.9548	404.4579	21860.75	21104.65
811.0984	406.641	21943.95	21183.6
811.2421	408.8235	21927.5	21169.05
811.3857	411.0054	21996.75	21236
811.5293	413.1868	22042.8	21278.75
811.673	415.3675	22064.5	21296.95
811.8166	417.5477	22110.55	21341.8
811.9603	419.7273	22008.35	21237.2
812.104	421.9064	21906.75	21129.5
812.2477	424.0848	21812.55	21040.3
812.3914	426.2627	21740.45	20966.75
812.5351	428.4399	21677.75	20903.65
812.6788	430.6166	21584.8	20804
812.8226	432.7928	21526.4	20746.1
812.9663	434.9683	21468.6	20688.4
813.1101	437.1432	21405.75	20622.6
813.2539	439.3176	21328.35	20549.65
813.3977	441.4914	21271.7	20491.95
813.5415	443.6645	21298.45	20517.5
813.6853	445.8371	21159.15	20377.25
813.8291	448.0091	21115.15	20335.4
813.973	450.1806	21041.15	20257.2
814.1168	452.3514	20965.7	20182
814.2607	454.5216	21001.75	20211.55
814.4046	456.6913	20874.7	20088.4
814.5485	458.8603	20884.05	20097.9
814.6924	461.0288	20889.75	20104.55
814.8363	463.1967	20854.15	20073.65
814.9802	465.3639	20928.6	20143.4
815.1241	467.5306	20803.05	20015.3
815.2681	469.6967	20792.05	20004.35
815.412	471.8622	20716.75	19928.6
815.556	474.0271	20714.7	19927.95
815.7	476.1914	20709	19917.35
815.844	478.3551	20662.5	19871.25
815.988	480.5182	20686.35	19896.2
816.132	482.6807	20702.5	19912.95
816.276	484.8426	20717.75	19927.85
816.4201	487.0039	20800	20010.6
816.5641	489.1647	20776	19982.75
816.7082	491.3248	20841.6	20048.35
816.8522	493.4843	20833.7	20040.95
816.9963	495.6432	20799.6	20004.05
817.1404	497.8015	20725.4	19924.95
817.2845	499.9592	20748.3	19949.8
817.4286	502.1163	20703.3	19904.1
817.5727	504.2728	20601.4	19802.25
817.7168	506.4287	20668.85	19869.55
817.861	508.5839	20573.05	19774.8
818.0051	510.7386	20530.6	19730.85
818.1493	512.8927	20536.35	19734
818.2935	515.0461	20577.6	19777.9
818.4377	517.199	20524.25	19722.15
818.5818	519.3512	20526.35	19723.55
818.726	521.5029	20583	19773.65
818.8703	523.6539	20583.65	19780.15
819.0145	525.8043	20573.3	19768.8
819.1587	527.9541	20517.1	19708.25
819.303	530.1033	20438.9	19631.5
819.4472	532.2519	20403	19593.85
819.5915	534.3999	20413	19603.35
819.7357	536.5472	20362.2	19551.95
819.88	538.694	20327.55	19519.95
820.0243	540.8401	20353.7	19543.6
820.1686	542.9856	20376	19565.25
820.3129	545.1305	20334.55	19520.55
820.4572	547.2748	20397.7	19584.95
820.6016	549.4185	20330.95	19515.45
820.7459	551.5615	20279.3	19468.05
820.8902	553.704	20300.75	19490.4
821.0346	555.8458	20290.35	19476.6
821.1789	557.987	20278.3	19466.1
821.3233	560.1276	20280.15	19466.95
821.4677	562.2675	20308.75	19495.7
821.6121	564.4069	20302.2	19487.15
821.7565	566.5456	20269.75	19458.2
821.9009	568.6837	20262	19449.9
822.0453	570.8212	20172.7	19360.25
822.1897	572.958	20115.9	19298.95
822.3342	575.0942	20095.7	19283.15
822.4786	577.2299	19983.35	19167.4
822.6231	579.3648	19882.9	19071.5
822.7675	581.4992	19796.2	18984.95
822.912	583.6329	19742.3	18927.45
823.0565	585.766	19751.45	18937.25
823.201	587.8985	19718	18902.4
823.3454	590.0304	19688.95	18857.05
823.4899	592.1616	19664.3	18843.2
823.6345	594.2922	19655.2	18833.2
823.779	596.4222	19576.25	18754.35
823.9235	598.5515	19507.6	18683.45
824.068	600.6802	19445.95	18623.25
824.2126	602.8083	19332.85	18509.2
824.3571	604.9358	19321.45	18496.7
824.5017	607.0626	19257.55	18435.15
824.6462	609.1888	19271.3	18445.4
824.7908	611.3144	19215.3	18388.05
824.9354	613.4393	19221.4	18394.95
825.08	615.5636	19239.65	18412.55
825.2246	617.6873	19223.6	18398.3
825.3692	619.8103	19295.65	18467.4
825.5138	621.9327	19207.15	18377.85
825.6584	624.0544	19199.8	18373.65
825.803	626.1756	19164.25	18341.4
825.9477	628.2961	19096.9	18266.2
826.0923	630.4159	19035.15	18205.7
826.237	632.5351	19035.6	18205.15
826.3816	634.6537	18997.15	18167.9
826.5263	636.7716	19003.4	18169.5
826.6709	638.8889	19006	18174.8
826.8156	641.0056	19018.55	18187.25
826.9603	643.1216	18965.6	18131.95
827.105	645.237	18972.3	18138.15
827.2497	647.3518	18897.8	18067.8
827.3944	649.4659	18928.3	18097.55
827.5391	651.5793	18873.6	18041.65
827.6838	653.6922	18821.05	17987.95
827.8285	655.8043	18831.9	18002.9
827.9733	657.9159	18772.15	17936.75
828.118	660.0268	18734.1	17896.85
828.2627	662.137	18726.8	17892.7
828.4075	664.2466	18661.35	17825.55
828.5522	666.3556	18683.35	17847.55
828.697	668.4639	18627.15	17788.6
828.8418	670.5716	18620.1	17784.55
828.9865	672.6786	18571.7	17732.55
829.1313	674.785	18529.1	17688.3
829.2761	676.8907	18485.1	17647.9
829.4209	678.9958	18497	17661.5
829.5657	681.1002	18450.4	17610.95
829.7105	683.204	18449.2	17609.05
829.8553	685.3072	18431.75	17590.25
830.0001	687.4097	18410.65	17571.2
830.1449	689.5115	18369.85	17525.5
830.2898	691.6127	18388.05	17547.65
830.4346	693.7132	18303.65	17463.95
830.5794	695.8131	18346.35	17485
830.7243	697.9123	18324.6	17482
830.8691	700.0109	18257.65	17415.45
831.014	702.1089	18222.35	17378.15
831.1588	704.2061	18238.1	17395.85
831.3037	706.3028	18258.9	17414.9
831.4486	708.3987	18225.7	17381.4
831.5935	710.4941	18224	17379.55
831.7383	712.5887	18204.95	17359.45
831.8832	714.6827	18202.6	17353.45
832.0281	716.7761	18177.7	17333.25
832.173	718.8688	18167.3	17322.2
832.3179	720.9608	18111.7	17263.25
832.4628	723.0522	18126.2	17276.4
832.6077	725.1429	18088.15	17242.45
832.7527	727.233	18103.2	17255.9
832.8976	729.3224	18129.1	17282.05
833.0425	731.4112	18102.75	17254.2
833.1874	733.4993	18057.8	17208.25
833.3324	735.5867	17985.2	17137.6
833.4773	737.6735	17933.25	17084.8
833.6222	739.7596	17909.05	17059.3
833.7672	741.845	17882.5	17031.45
833.9122	743.9298	17822.6	16970.9
834.0571	746.014	17816.6	16965.8
834.2021	748.0974	17775.45	16924.6
834.347	750.1802	17752.2	16901.55
834.492	752.2624	17681.65	16829.95
834.637	754.3439	17609.75	16757.95
834.782	756.4247	17577.3	16717.85
834.9269	758.5048	17491.2	16641.85
835.0719	760.5843	17450.55	16597.5
835.2169	762.6631	17426.85	16573.35
835.3619	764.7413	17435.6	16584.25
835.5069	766.8188	17482.95	16626.45
835.6519	768.8956	17434.45	16579.6
835.7969	770.9718	17459.55	16607.75
835.9419	773.0473	17408.2	16554.3
836.0869	775.1221	17385.95	16532.5
836.232	777.1962	17311.85	16459.25
836.377	779.2697	17270.6	16412.8
836.522	781.3426	17303.65	16431.3
836.667	783.4147	17309.4	16453.7
836.8121	785.4862	17294.65	16442
836.9571	787.557	17223.95	16370.2
837.1021	789.6271	17122.2	16267.65
837.2472	791.6966	17023	16168.35
837.3922	793.7654	16925.6	16066.65
837.5373	795.8335	16940.75	16084.55
837.6823	797.901	16854.95	15998.35
837.8274	799.9678	16825.05	15966.4
837.9724	802.0339	16813.85	15958.4
838.1175	804.0993	16794.8	15929.3
838.2626	806.1641	16775.95	15919.9
838.4076	808.2282	16697.65	15840.4
838.5527	810.2916	16672.15	15811.3
838.6978	812.3544	16690.4	15836.25
838.8428	814.4164	16623.6	15768.3
838.9879	816.4778	16649.55	15793.2
839.133	818.5385	16575.55	15719.05
839.2781	820.5986	16586.65	15727
839.4232	822.658	16629.3	15767.15
839.5682	824.7166	16598.4	15738.5
839.7133	826.7747	16654.15	15795.1
839.8584	828.832	16663.1	15802.4
840.0035	830.8886	16600.75	15739.8
840.1486	832.9446	16613.35	15753.95
840.2937	834.9999	16559.5	15701.3
840.4388	837.0545	16523.85	15658.35
840.5839	839.1085	16492.5	15630.05
840.729	841.1618	16411.8	15547.75
840.8741	843.2143	16337.1	15476.6
841.0192	845.2662	16264.3	15403.15
841.1643	847.3175	16256.65	15396.5
841.3095	849.368	16193.55	15331.6
841.4546	851.4179	16199.9	15338.55
841.5997	853.467	16139.6	15277.8
841.7448	855.5155	16137.6	15273.95
841.8899	857.5633	16089.85	15227.8
842.0351	859.6105	16025.75	15163.65
842.1802	861.6569	16005.95	15145.85
842.3253	863.7027	15986.25	15122.25
842.4704	865.7478	15967.35	15105.35
842.6156	867.7922	15953.6	15089.4
842.7607	869.8359	15892.9	15028.45
842.9058	871.8789	15896.2	15032.2
843.0509	873.9212	15892.6	14997.2
843.1961	875.9629	15820.8	14957.2
843.3412	878.0039	15853.05	14986.6
843.4863	880.0441	15822.2	14960.45
843.6315	882.0837	15847.45	14982.8
843.7766	884.1226	15816.4	14950.85
843.9218	886.1609	15809.15	14948.3
844.0669	888.1984	15850.55	14987.4
844.212	890.2352	15877.1	15013.95
844.3572	892.2714	15861.65	14992.45
844.5023	894.3069	15867.75	15002.8
844.6475	896.3416	15746.85	14881.1
844.7926	898.3757	15727.1	14860.35
844.9377	900.4091	15703.7	14834.6
845.0829	902.4418	15658.65	14789.55
845.228	904.4739	15602.7	14733.6
845.3732	906.5052	15608.45	14743.25
845.5183	908.5358	15589.4	14722.1
845.6635	910.5658	15544.2	14675.8
845.8086	912.595	15508.9	14642.7
845.9538	914.6236	15469.65	14602.75
846.0989	916.6515	15438.3	14571.65
846.2441	918.6786	15371.1	14505
846.3892	920.7051	15365.15	14497.2
846.5344	922.7309	15377.8	14510.2
846.6795	924.756	15297.2	14427.55
846.8246	926.7804	15310.4	14440.85
846.9698	928.8041	15203.35	14333.4
847.1149	930.8272	15230.25	14362.1
847.2601	932.8495	15144.3	14273
847.4052	934.8711	15169.6	14300.1
847.5504	936.892	15071.55	14203.9
847.6955	938.9123	15072.4	14200.2
847.8407	940.9318	15078.75	14208.9
847.9858	942.9506	15002.35	14130.4
848.131	944.9688	14928.1	14058.2
848.2761	946.9862	14917.8	14049.25
848.4213	949.003	14842.75	13971.3
848.5664	951.019	14785.95	13916.05
848.7115	953.0344	14781.4	13909.45
848.8567	955.0491	14710.35	13839.8
849.0018	957.063	14713.65	13843.85
849.147	959.0763	14732.9	13861.45
849.2921	961.0888	14667.8	13796
849.4373	963.1007	14669.1	13798.7
849.5824	965.1119	14654.05	13785.65
849.7275	967.1223	14601.5	13733.1
849.8727	969.1321	14607	13738.25
850.0178	971.1412	14570.65	13700.9
850.1629	973.1495	14530.5	13660.95
850.3081	975.1572	14508.9	13589.25
850.4532	977.1641	14533.2	13660.95
850.5983	979.1704	14450.5	13577.75
850.7435	981.1759	14396.8	13524.5
850.8886	983.1808	14384.05	13511.1
851.0337	985.1849	14390.95	13507
851.1788	987.1884	14325.15	13451.8
851.324	989.1911	14310.5	13432.9
851.4691	991.1932	14286	13410.7
851.6142	993.1945	14227.8	13355.95
851.7593	995.1951	14161	13288.4
851.9045	997.1951	14130.9	13253.3
852.0496	999.1943	14063.9	13191.05
852.1947	1001.1928	14033.05	13159
852.3398	1003.1906	14012.2	13138.75
852.4849	1005.1877	13976.3	13099.5
852.63	1007.1841	13948.25	13074.6
852.7751	1009.1798	13898.25	13025.8
852.9202	1011.1748	13834.9	12960.55
853.0653	1013.1691	13819.85	12944.7
853.2104	1015.1627	13770.45	12897.8
853.3555	1017.1556	13641.5	12768.85
853.5006	1019.1477	13611.1	12737.85
853.6457	1021.1392	13523.15	12649.1
853.7908	1023.1299	13498.55	12624.7
853.9359	1025.12	13442	12568.35
854.081	1027.1093	13377.6	12510.15
854.2261	1029.0979	13371.7	12503.95
854.3712	1031.0859	13292	12421.55
854.5163	1033.0731	13296.7	12421.35
854.6613	1035.0596	13265.45	12392
854.8064	1037.0454	13189.8	12315.55
854.9515	1039.0304	13166.7	12290.85
855.0965	1041.0148	13131	12257.3
855.2416	1042.9985	13067	12191.75
855.3867	1044.9814	13087.95	12214.3
855.5317	1046.9636	12990.75	12112.9
855.6768	1048.9452	12949.75	12074.25
855.8219	1050.926	12948.05	12075.45
855.9669	1052.9061	12924.4	12049.9
856.112	1054.8855	12890.75	12015.55
856.257	1056.8642	12884.1	12008.55
856.4021	1058.8421	12879	12001.65
856.5471	1060.8194	12826.75	11951.1
856.6921	1062.7959	12781.8	11908.8
856.8372	1064.7717	12757.1	11881
856.9822	1066.7469	12734.3	11857.4
857.1272	1068.7213	12690	11812.4
857.2723	1070.695	12702.5	11826.45
857.4173	1072.6679	12636.55	11759.2
857.5623	1074.6402	12655.6	11778.3
857.7073	1076.6117	12671.95	11791.15
857.8523	1078.5826	12644.4	11767.8
857.9973	1080.5527	12575.25	11695.25
858.1423	1082.5221	12517.6	11638.3
858.2873	1084.4908	12482.45	11604.95
858.4323	1086.4587	12469.6	11592.3
858.5773	1088.426	12421.15	11541.85
858.7223	1090.3925	12395	11511.5
858.8673	1092.3584	12379.9	11505
859.0123	1094.3235	12320.4	11443.6
859.1573	1096.2879	12307.5	11428.45
859.3022	1098.2515	12264.15	11385.4
859.4472	1100.2145	12285.55	11407.85
859.5922	1102.1767	12280.7	11400.85
859.7371	1104.1382	12274.7	11397.4
859.8821	1106.099	12282.3	11402.25
860.027	1108.0591	12258.6	11381.2
860.172	1110.0185	12270.8	11389.95
860.3169	1111.9771	12260.25	11383.55
860.4619	1113.9351	12228.1	11350.65
860.6068	1115.8923	12240.7	11362.05
860.7517	1117.8488	12208.55	11327.75
860.8967	1119.8045	12151.4	11273.4
861.0416	1121.7596	12097.55	11218.95
861.1865	1123.7139	12017.45	11139.65
861.3314	1125.6675	11962.4	11086.85
861.4763	1127.6204	11971.95	11092.7
861.6212	1129.5726	11922.05	11043.05
861.7661	1131.524	11921.4	11043.4
861.911	1133.4748	11897.4	11018.3
862.0559	1135.4248	11806.1	10926.8
862.2008	1137.3741	11757.25	10877.8
862.3457	1139.3226	11696.4	10817.7
862.4905	1141.2705	11714.3	10836.4
862.6354	1143.2176	11640.95	10758
862.7803	1145.164	11633	10753.2
862.9251	1147.1097	11617.05	10738.4
863.07	1149.0546	11588.75	10705.35
863.2148	1150.9989	11582.55	10705.85
863.3597	1152.9424	11576.6	10694.8
863.5045	1154.8852	11518.9	10638.9
863.6493	1156.8272	11519	10640.65
863.7942	1158.7686	11525.45	10638.55
863.939	1160.7092	11479.05	10601.35
864.0838	1162.6491	11434.1	10551.95
864.2286	1164.5883	11451.45	10570.9
864.3734	1166.5267	11424.15	10540.7
864.5182	1168.4644	11416.3	10538.15
864.663	1170.4014	11447.45	10564.65
864.8078	1172.3377	11438.15	10560.5
864.9526	1174.2732	11429.5	10549.7
865.0974	1176.2081	11500.3	10619.3
865.2421	1178.1421	11509.05	10626.6
865.3869	1180.0755	11599.8	10723.5
865.5317	1182.0082	11561.1	10683.45
865.6764	1183.9401	11555.3	10675.25
865.8212	1185.8713	11462	10582.25
865.9659	1187.8017	11386.5	10508.05
866.1106	1189.7315	11329.4	10452.9
866.2554	1191.6605	11204.65	10326.4
866.4001	1193.5888	11130.8	10252.15
866.5448	1195.5163	11101.8	10221.9
866.6895	1197.4432	11035.95	10155.3
866.8342	1199.3693	11010.75	10132.85
866.9789	1201.2947	10955.95	10069.9
867.1236	1203.2193	10918	10036.55
867.2683	1205.1432	10894.45	10017.3
867.413	1207.0664	10844.8	9963.5
867.5576	1208.9889	10832.85	9950.3
867.7023	1210.9106	10780.25	9899.3
867.847	1212.8316	10757.8	9878.15
867.9916	1214.7519	10755	9866.85
868.1363	1216.6715	10726.25	9847.45
868.2809	1218.5903	10695.55	9816.15
868.4255	1220.5084	10696.7	9816.25
868.5701	1222.4257	10695.35	9816
868.7148	1224.3424	10669.7	9787.6
868.8594	1226.2583	10676.85	9791.3
869.004	1228.1735	10660.05	9781
869.1486	1230.0879	10605.5	9721.55
869.2932	1232.0016	10595.05	9714.85
869.4377	1233.9146	10588.95	9706.1
869.5823	1235.8269	10586.8	9705.35
869.7269	1237.7384	10609.5	9728.8
869.8715	1239.6492	10555.7	9675.65
870.016	1241.5592	10553.05	9671.6
870.1606	1243.4686	10546.1	9666.1
870.3051	1245.3772	10562.7	9683.2
870.4496	1247.285	10577.1	9695.6
870.5941	1249.1922	10606.3	9727.25
870.7387	1251.0986	10628.95	9747.95
870.8832	1253.0042	10639.95	9758.25
871.0277	1254.9092	10680.8	9798.15
871.1722	1256.8134	10720.95	9838.9
871.3167	1258.7169	10766.8	9885.55
871.4611	1260.6196	10756.1	9876.8
871.6056	1262.5216	10765.45	9881.55
871.7501	1264.4229	10719.75	9838
871.8945	1266.3234	10684.35	9804.4
872.039	1268.2232	10671.85	9787.25
872.1834	1270.1223	10596.15	9713.35
872.3278	1272.0207	10585.65	9703.95
872.4723	1273.9183	10535.3	9647.25
872.6167	1275.8151	10503.15	9620.55
872.7611	1277.7113	10534.25	9649.6
872.9055	1279.6067	10560.9	9681.55
873.0499	1281.5014	10622.35	9737.25
873.1943	1283.3953	10707.45	9823.2
873.3386	1285.2885	10797.3	9917.4
873.483	1287.181	10874.2	9991.3
873.6274	1289.0727	10922.85	10041.95
873.7717	1290.9637	10881.8	9996.55
873.9161	1292.854	10851	9968.65
874.0604	1294.7435	10736.2	9853.4
874.2047	1296.6323	10654.45	9772.65
874.349	1298.5204	10622.35	9737.1
874.4933	1300.4077	10547.75	9665.9
874.6376	1302.2943	10477.3	9595.6
874.7819	1304.1802	10478.35	9596
874.9262	1306.0653	10436.9	9553
875.0705	1307.9497	10388.65	9504.45
875.2147	1309.8333	10354.35	9470.9
875.359	1311.7162	10342.6	9459.65
875.5032	1313.5984	10304.15	9420.3
875.6475	1315.4798	10298.8	9408.55
875.7917	1317.3605	10264.2	9368.35
875.9359	1319.2405	10250.4	9366.65
876.0801	1321.1197	10219.5	9333.15
876.2243	1322.9982	10178.45	9291.35
876.3685	1324.876	10132.85	9250.4
876.5127	1326.753	10045.75	9161.8
876.6569	1328.6293	10011.25	9126.25
876.801	1330.5048	9946.9	9060.55
876.9452	1332.3796	9874.15	8990
877.0893	1334.2537	9865.8	8957.55
877.2335	1336.127	9806.9	8922.75
877.3776	1337.9996	9787.8	8905.3
877.5217	1339.8714	9741.9	8859.85
877.6658	1341.7426	9719.65	8793.1
877.8099	1343.6129	9691.6	8809.4
877.954	1345.4826	9685.8	8803.1
878.0981	1347.3515	9671.2	8784.8
878.2422	1349.2196	9607.6	8723.35
878.3862	1351.087	9604	8720.45
878.5303	1352.9537	9579.35	8697.3
878.6743	1354.8197	9598.05	8716.75
878.8184	1356.6849	9590.7	8704.05
878.9624	1358.5493	9582.2	8698.35
879.1064	1360.4131	9570.45	8688.6
879.2504	1362.276	9564.6	8680.05
879.3944	1364.1383	9549.45	8666.95
879.5384	1365.9998	9570.15	8680.65
879.6823	1367.8606	9539.6	8655.55
879.8263	1369.7206	9499.25	8616.5
879.9702	1371.5799	9489.7	8601.15
880.1142	1373.4384	9469.2	8587.5
880.2581	1375.2962	9439	8552.75
880.402	1377.1533	9366	8483.3
880.5459	1379.0096	9312.35	8427.7
880.6898	1380.8652	9271.9	8388.75
880.8337	1382.7201	9230.65	8349.05
880.9776	1384.5742	9161.1	8278.2
881.1215	1386.4275	9111.85	8227.6
881.2653	1388.2802	9094.95	8210.6
881.4092	1390.132	9057.85	8174.4
881.553	1391.9832	9065.7	8180.3
881.6968	1393.8336	8977.3	8093.5
881.8406	1395.6832	8952.4	8067.65
881.9844	1397.5322	8949.85	8064.65
882.1282	1399.3803	8921.15	8031.6
882.272	1401.2278	8855.85	7969.95
882.4158	1403.0745	8835.15	7950.8
882.5595	1404.9204	8808.2	7924.6
882.7033	1406.7656	8795.15	7911.9
882.847	1408.6101	8751.15	7867.3
882.9908	1410.4538	8719.25	7835.65
883.1345	1412.2968	8676.85	7790.55
883.2782	1414.139	8660.35	7774.55
883.4219	1415.9805	8663.85	7779.65
883.5656	1417.8213	8646.25	7739.5
883.7092	1419.6613	8593.5	7710.2
883.8529	1421.5006	8604.75	7720.1
883.9965	1423.3391	8623.75	7738.65
884.1402	1425.1769	8637.9	7753.7
884.2838	1427.0139	8634.4	7749.75
884.4274	1428.8502	8679.55	7793.95
884.571	1430.6858	8715.25	7830.35
884.7146	1432.5206	8678.1	7794.35
884.8582	1434.3547	8684.35	7799.6
885.0018	1436.188	8670.7	7784.9
885.1453	1438.0206	8639.4	7755.85
885.2889	1439.8524	8598.5	7713.65
885.4324	1441.6835	8568.85	7682.95
885.5759	1443.5139	8582.15	7697.15
885.7194	1445.3435	8538.25	7653
885.8629	1447.1724	8560.4	7677.9
886.0064	1449.0005	8534	7651.7
886.1499	1450.8279	8532.45	7644.7
886.2933	1452.6545	8516.75	7632.25
886.4368	1454.4804	8493.35	7609.2
886.5802	1456.3056	8495.9	7606.5
886.7237	1458.13	8436.8	7555.1
886.8671	1459.9536	8413.15	7528.9
887.0105	1461.7766	8387.25	7505.1
887.1539	1463.5987	8350.65	7464.8
887.2972	1465.4202	8306.8	7423.35
887.4406	1467.2409	8247.05	7361.7
887.584	1469.0608	8246.15	7362.5
887.7273	1470.88	8219.3	7333.75
887.8706	1472.6984	8197.2	7312.8
888.0139	1474.5161	8148.85	7261.25
888.1572	1476.3331	8109.2	7224.05
888.3005	1478.1493	8080.55	7196.35
888.4438	1479.9648	8079.5	7194.55
888.5871	1481.7795	8069.6	7184.2
888.7303	1483.5935	8053.1	7169.8
888.8736	1485.4067	8031.1	7145.5
889.0168	1487.2192	8027.9	7141.2
889.16	1489.031	8028.45	7140.6
889.3032	1490.842	8008.85	7125.45
889.4464	1492.6522	7978.35	7094.35
889.5896	1494.4618	7978.05	7093.45
889.7327	1496.2705	7967.25	7080.95
889.8759	1498.0785	7936.05	7053
890.019	1499.8858	7921.45	7036.4
890.1622	1501.6924	7887.6	7003.55
890.3053	1503.4981	7852.45	6969.7
890.4484	1505.3032	7829.9	6943.65
890.5914	1507.1075	7813.95	6927.95
890.7345	1508.911	7806.55	6922.1
890.8776	1510.7138	7785.55	6901.05
891.0206	1512.5159	7744.7	6861.85
891.1637	1514.3172	7715.3	6832.25
891.3067	1516.1178	7695.15	6813.1
891.4497	1517.9176	7676.65	6788.8
891.5927	1519.7166	7647.25	6764.45
891.7357	1521.515	7659.45	6769.4
891.8786	1523.3126	7598.35	6712.3
892.0216	1525.1094	7588.15	6702.2
892.1645	1526.9055	7535.8	6652.25
892.3074	1528.7008	7523.55	6639.65
892.4503	1530.4954	7480.7	6596.9
892.5932	1532.2893	7461.1	6577.45
892.7361	1534.0824	7406.1	6519.5
892.879	1535.8747	7416.1	6534.7
893.0218	1537.6663	7379	6495.4
893.1647	1539.4572	7344.25	6458.1
893.3075	1541.2473	7333.15	6447.9
893.4503	1543.0367	7332.3	6449.8
893.5931	1544.8253	7287.35	6398.8
893.7359	1546.6132	7298.2	6411.25
893.8787	1548.4003	7253.65	6360.35
894.0214	1550.1867	7262.85	6369.7
894.1642	1551.9723	7230.2	6343.1
894.3069	1553.7572	7209.15	6323.6
894.4496	1555.5414	7192.4	6308
894.5923	1557.3247	7195.25	6311.35
894.735	1559.1074	7201.1	6319.1
894.8777	1560.8893	7196.6	6316.75
895.0204	1562.6705	7179.6	6297
895.163	1564.4509	7186.6	6305
895.3056	1566.2305	7161.35	6279.75
895.4482	1568.0094	7155.4	6272.8
895.5908	1569.7876	7135.45	6251.55
895.7334	1571.565	7122.2	6242.5
895.876	1573.3417	7106.5	6223.5
896.0186	1575.1176	7084.25	6203.45
896.1611	1576.8928	7086.05	6203.65
896.3036	1578.6672	7056.65	6175.25
896.4461	1580.4409	7045.2	6166
896.5886	1582.2138	7054.5	6172.15
896.7311	1583.986	7063.5	6181.7
896.8736	1585.7575	7053.55	6170.8
897.0161	1587.5282	7059.55	6178.9
897.1585	1589.2981	7068.8	6189
897.3009	1591.0673	7044.65	6163.65
897.4433	1592.8358	7044.8	6164.75
897.5857	1594.6035	7034.75	6150.95
897.7281	1596.3704	7010.6	6128.45
897.8705	1598.1366	6937.9	6056.5
898.0128	1599.9021	6914.45	6033.45
898.1551	1601.6668	6863.5	5980.6
898.2975	1603.4308	6843.8	5960.85
898.4398	1605.194	6842.95	5953.65
898.5821	1606.9564	6814.9	5933.3
898.7243	1608.7182	6828.5	5944.5
898.8666	1610.4791	6855.9	5977.3
899.0088	1612.2394	6899.5	6019.35
899.1511	1613.9988	6957.75	6077.7
899.2933	1615.7576	6980.5	6102.25
899.4355	1617.5156	6978.25	6090.6
899.5776	1619.2728	6956.3	6074.15
899.7198	1621.0293	6894.15	6012.2
899.862	1622.785	6811.35	5925.25
900.0041	1624.54	6701.05	5817.6
900.1462	1626.2942	6608	5725.95
900.2883	1628.0477	6502.1	5618.35
900.4304	1629.8005	6452.4	5564.05
900.5725	1631.5525	6367.65	5485.6
900.7145	1633.3037	6333.65	5453.4
900.8566	1635.0542	6282.7	5401.75
900.9986	1636.804	6244.85	5365.1
901.1406	1638.553	6266.9	5292.9
901.2826	1640.3013	6199.6	5316.6
901.4245	1642.0488	6147.8	5265.6
901.5665	1643.7955	6122.05	5241.7
901.7085	1645.5416	6077.05	5196.25
901.8504	1647.2868	6064.35	5184.55
901.9923	1649.0313	6050.35	5169.9
902.1342	1650.7751	6008.05	5124.25
902.2761	1652.5181	5983.75	5102.85
902.4179	1654.2604	5983.2	5101.6
902.5598	1656.0019	5969.05	5086.95
902.7016	1657.7427	5970.75	5088.45
902.8434	1659.4828	5958.3	5076.5
902.9852	1661.222	5960.9	5077.1
903.127	1662.9606	5951.8	5072.6
903.2687	1664.6984	5964.3	5081.8
903.4105	1666.4354	5954.7	5070.85
903.5522	1668.1717	5918.45	5035.35
903.6939	1669.9072	5863.4	4980.25
903.8356	1671.642	5826.3	4942.5
903.9773	1673.3761	5788.75	4908.3
904.119	1675.1094	5759.65	4879.05
904.2606	1676.8419	5710.3	4832.35
904.4022	1678.5737	5680.6	4799.4
904.5439	1680.3048	5674.05	4791.85
904.6855	1682.0351	5619.6	4740.35
904.827	1683.7646	5583.25	4697.8
904.9686	1685.4934	5582.4	4701.35
905.1101	1687.2215	5542.2	4659.75
905.2517	1688.9488	5512.85	4631.3
905.3932	1690.6754	5483.1	4604.05
905.5347	1692.4012	5482	4600.8
905.6761	1694.1263	5465.95	4585.45
905.8176	1695.8506	5453.55	4572.65
905.9591	1697.5742	5431.75	4550.5
906.1005	1699.297	5403.25	4522.1
906.2419	1701.0191	5367.8	4487.15
906.3833	1702.7404	5363.55	4482.05
906.5246	1704.461	5327.4	4444.9
906.666	1706.1808	5304.1	4422.3
906.8073	1707.8999	5282.15	4400
906.9487	1709.6182	5278.8	4398.6
907.09	1711.3358	5280.15	4399.05
907.2313	1713.0527	5230.9	4352.85
907.3725	1714.7688	5211.15	4323.65
907.5138	1716.4841	5210.05	4327.75
907.655	1718.1987	5225.8	4338.4
907.7962	1719.9126	5206.75	4327.55
907.9374	1721.6257	5176.4	4292.55
908.0786	1723.338	5182.4	4300.75
908.2198	1725.0496	5161.2	4279.3
908.3609	1726.7605	5145.45	4264.65
908.502	1728.4706	5144.15	4262
908.6431	1730.18	5137.85	4256.05
908.7842	1731.8886	5113.7	4232.9
908.9253	1733.5964	5097.6	4211
909.0664	1735.3036	5093.75	4212.45
909.2074	1737.0099	5080.9	4201.05
909.3484	1738.7156	5088.65	4210.4
909.4894	1740.4204	5061.1	4176.7
909.6304	1742.1246	5044.15	4161.75
909.7714	1743.8279	5061.5	4181.7
909.9123	1745.5306	5041.55	4159.65
910.0532	1747.2325	5047.85	4167.6
910.1941	1748.9336	5031.25	4148.9
910.335	1750.634	5024.8	4140.65
910.4759	1752.3336	4999.5	4119.15
910.6168	1754.0325	4995.15	4115.75
910.7576	1755.7307	4991.45	4111.55
910.8984	1757.4281	4987.25	4105.9
911.0392	1759.1247	4984.7	4095.65
911.18	1760.8206	4967.85	4081.75
911.3208	1762.5158	4972.1	4086.4
911.4615	1764.2102	4925.1	4043.2
911.6022	1765.9039	4934.2	4052.6
911.7429	1767.5968	4931.4	4051.85
911.8836	1769.289	4921.75	4041.65
912.0243	1770.9804	4921.3	4039.75
912.1649	1772.6711	4916.5	4035.7
912.3056	1774.361	4894.15	4010.85
912.4462	1776.0502	4874.1	3992.65
912.5868	1777.7386	4879.4	3992.85
912.7274	1779.4263	4861.95	3982.3
912.8679	1781.1132	4855.25	3974.45
913.0084	1782.7994	4832.9	3950.25
913.149	1784.4849	4833.2	3952.3
913.2895	1786.1696	4827.25	3927.2
913.4299	1787.8535	4819.75	3940.4
913.5704	1789.5367	4796.75	3915.9
913.7108	1791.2192	4791.1	3907.55
913.8513	1792.9009	4803.65	3893.1
913.9917	1794.5818	4771.6	3889.7
914.132	1796.2621	4763.85	3884.4
914.2724	1797.9415	4754	3873.35
914.4128	1799.6202	4745.8	3863.7
914.5531	1801.2982	4724.55	3844
914.6934	1802.9755	4737.2	3855.3
914.8337	1804.6519	4724.35	3844.2
914.9739	1806.3277	4696.45	3816.8
915.1142	1808.0027	4679.05	3798.55
915.2544	1809.6769	4679.1	3798.4
915.3946	1811.3504	4669.4	3789.05
915.5348	1813.0231	4666.1	3785.05
915.675	1814.6951	4658.5	3779.15
915.8151	1816.3664	4672.35	3789.7
915.9553	1818.0369	4640.85	3759.95
916.0954	1819.7067	4617.95	3739.2
916.2355	1821.3757	4620.65	3736.7
916.3755	1823.044	4600.4	3720.75
916.5156	1824.7115	4598.7	3715.45
916.6556	1826.3783	4571.25	3690.15
916.7956	1828.0443	4573.15	3691.85
916.9356	1829.7096	4558.75	3674.75
917.0756	1831.3741	4555.85	3673.2
917.2155	1833.0379	4544.55	3665.5
917.3555	1834.701	4535.25	3655.2
917.4954	1836.3633	4551.05	3669.15
917.6353	1838.0248	4531.2	3648.3
917.7751	1839.6856	4520.45	3639
917.915	1841.3457	4504.75	3625.4
918.0548	1843.005	4475.2	3594.05
918.1946	1844.6636	4505.85	3626.9
918.3344	1846.3214	4487	3604.5
918.4742	1847.9785	4460.1	3582.05
918.6139	1849.6349	4468.15	3586.9
918.7537	1851.2904	4471	3579.75
918.8934	1852.9453	4462.6	3581.05
919.0331	1854.5994	4444.6	3559.7
919.1727	1856.2528	4413.9	3529.6
919.3124	1857.9054	4430.3	3546.4
919.452	1859.5572	4403.85	3523.85
919.5916	1861.2083	4421.2	3541.8
919.7312	1862.8587	4411.8	3529.6
919.8708	1864.5084	4409.6	3526.2
920.0103	1866.1572	4391.2	3509.95
920.1498	1867.8054	4379.85	3498.55
920.2893	1869.4528	4371.1	3488.5
920.4288	1871.0994	4354.35	3473.5
920.5683	1872.7453	4361.15	3479.25
920.7077	1874.3905	4336.8	3449.95
920.8471	1876.0349	4324.85	3444.3
920.9865	1877.6786	4336.9	3455.7
921.1259	1879.3215	4323.55	3443.15
921.2653	1880.9637	4307.95	3425.95
921.4046	1882.6051	4308.6	3429.55
921.5439	1884.2458	4288.9	3407.2
921.6832	1885.8858	4280.95	3400.9
921.8225	1887.525	4277.65	3394.35
921.9617	1889.1634	4274.55	3394.25
922.101	1890.8011	4249.6	3368.1
922.2402	1892.4381	4244.25	3361.35
922.3794	1894.0743	4254.5	3373.2
922.5185	1895.7098	4239.7	3358.3
922.6577	1897.3446	4224.3	3343.1
922.7968	1898.9786	4228.55	3344.2
922.9359	1900.6118	4207.9	3326.3
923.075	1902.2443	4191.5	3308.4
923.214	1903.8761	4187.9	3307.1
923.3531	1905.5071	4171.6	3289.2
923.4921	1907.1374	4164.7	3284.5
923.6311	1908.7669	4150.4	3268.75
923.77	1910.3957	4154.25	3273.4
923.909	1912.0237	4131.65	3251.4
924.0479	1913.651	4125.5	3243.5
924.1868	1915.2776	4135.8	3257
924.3257	1916.9034	4105.15	3224.55
924.4646	1918.5285	4092.15	3212.15
924.6034	1920.1528	4090.15	3207.15
924.7422	1921.7764	4085.8	3204.6
924.881	1923.3992	4078.8	3199.3
925.0198	1925.0213	4043.65	3162.4
925.1586	1926.6427	4022.5	3140.9
925.2973	1928.2633	4193.8	3099.55
925.436	1929.8832	4045.15	3161.35
925.5747	1931.5023	4015.05	3135.25
925.7134	1933.1207	3998.6	3116.05
925.852	1934.7383	4003	3123.7
925.9906	1936.3552	3982.25	3103.35
926.1292	1937.9714	3980.55	3099.8
926.2678	1939.5868	3958.3	3074.4
926.4064	1941.2015	3951.7	3068.45
926.5449	1942.8154	3943	3061.35
926.6834	1944.4286	3940.45	3059.7
926.8219	1946.041	3922.5	3018.4
926.9604	1947.6528	3910.2	3024.3
927.0988	1949.2637	3895.05	3012.75
927.2372	1950.8739	3889.7	3007.3
927.3756	1952.4834	3880.8	3000.55
927.514	1954.0921	3889.05	3006.65
927.6523	1955.7001	3875.3	2989.2
927.7907	1957.3074	3857.4	2977.2
927.929	1958.9139	3857.85	2978.75
928.0673	1960.5197	3847.45	2966
928.2055	1962.1247	3831.85	2951.35
928.3438	1963.729	3824.35	2944.75
928.482	1965.3325	3824.8	2920.55
928.6202	1966.9353	3807.15	2927.3
928.7584	1968.5374	3796.8	2916.3
928.8965	1970.1387	3798.45	2917.65
929.0346	1971.7393	3780.95	2899.45
929.1727	1973.3392	3765.55	2884.3
929.3108	1974.9383	3745.2	2865.45
929.4489	1976.5366	3739.8	2860.6
929.5869	1978.1342	3748.25	2868.45
929.7249	1979.7311	3759.25	2879.45
929.8629	1981.3273	3734.4	2855.2
930.0009	1982.9227	3731.45	2850.3
930.1388	1984.5173	3718.45	2839.65
930.2767	1986.1112	3708.25	2827.8
930.4146	1987.7044	3712.5	2833.75
930.5525	1989.2968	3712.05	2830.3
930.6904	1990.8885	3716.95	2834.05
930.8282	1992.4795	3682.25	2803.6
930.966	1994.0697	3682.45	2805.3
931.1038	1995.6592	3676.8	2797.3
931.2415	1997.2479	3670.35	2790.7
931.3793	1998.8359	3648.7	2768.75
931.517	2000.4232	3637.6	2759.8
931.6547	2002.0097	3646.55	2768.9
931.7923	2003.5955	3639.45	2758.6
931.93	2005.1805	3627.6	2747.9
932.0676	2006.7648	3624.65	2745.35
932.2052	2008.3484	3608.1	2727.8
932.3427	2009.9312	3610.45	2729.05
932.4803	2011.5133	3604	2726.45
932.6178	2013.0946	3609.6	2731.15
932.7553	2014.6752	3591.9	2715.2
932.8928	2016.2551	3593.05	2715.65
933.0302	2017.8342	3564.55	2688.2
933.1676	2019.4126	3575.85	2699.35
933.305	2020.9902	3563.5	2686.25
933.4424	2022.5672	3559.05	2679.8
933.5798	2024.1433	3556.8	2671.6
933.7171	2025.7188	3527	2650.2
933.8544	2027.2935	3538.8	2661.55
933.9917	2028.8674	3524.05	2646.2
934.129	2030.4406	3521.6	2645
934.2662	2032.0131	3511.1	2633.8
934.4034	2033.5849	3506.3	2622.7
934.5406	2035.1559	3506.75	2629.35
934.6778	2036.7261	3493.65	2616.3
934.8149	2038.2957	3492.25	2612.05
934.952	2039.8645	3480.6	2602.7
935.0891	2041.4325	3487.6	2604.8
935.2262	2042.9998	3493.9	2614.7
935.3632	2044.5664	3484.9	2605.5
935.5002	2046.1323	3485.95	2608
935.6372	2047.6974	3469	2589.6
935.7742	2049.2617	3476.3	2598.5
935.9111	2050.8254	3473.55	2590.25
936.048	2052.3883	3469.3	2589.5
936.1849	2053.9504	3465	2587.05
936.3218	2055.5118	3453.7	2574.4
936.4586	2057.0725	3455.25	2572.55
936.5955	2058.6325	3442.9	2564.95
936.7323	2060.1917	3434.05	2556.55
936.869	2061.7502	3440.65	2560.5
937.0058	2063.3079	3416.25	2539.8
937.1425	2064.8649	3408.55	2528.55
937.2792	2066.4212	3420.65	2541.2
937.4159	2067.9767	3417.8	2539.8
937.5525	2069.5315	3404.45	2525.8
937.6891	2071.0856	3394	2516.4
937.8257	2072.6389	3392.15	2511.4
937.9623	2074.1915	3377.1	2502.95
938.0989	2075.7433	3374.4	2494.5
938.2354	2077.2945	3365.2	2488.4
938.3719	2078.8448	3364.65	2484.95
938.5084	2080.3945	3349.75	2470.4
938.6448	2081.9434	3349.25	2471.6
938.7812	2083.4916	3338.6	2458.5
938.9176	2085.039	3329.2	2450
939.054	2086.5857	3327.95	2447.35
939.1903	2088.1317	3326.9	2446.95
939.3267	2089.677	3325.05	2445.35
939.463	2091.2215	3327.25	2447.6
939.5992	2092.7652	3323.75	2443
939.7355	2094.3083	3311.5	2432.85
939.8717	2095.8506	3295.4	2417.35
940.0079	2097.3921	3300.2	2421.2
940.1441	2098.933	3304.15	2425.2
940.2802	2100.4731	3296.8	2417.95
940.4163	2102.0124	3305.55	2408.9
940.5524	2103.5511	3293.85	2416.15
940.6885	2105.089	3293.1	2415.4
940.8245	2106.6261	3293.8	2415.4
940.9606	2108.1626	3294.8	2416.85
941.0965	2109.6983	3311.1	2401.9
941.2325	2111.2332	3277.1	2398.45
941.3684	2112.7675	3268	2389.9
941.5044	2114.301	3269.55	2388.45
941.6403	2115.8337	3273	2393.5
941.7761	2117.3657	3257.6	2379.6
941.912	2118.897	3264.35	2384.1
942.0478	2120.4276	3252.45	2367.2
942.1835	2121.9575	3231.1	2353.15
942.3193	2123.4866	3242.95	2360.7
942.455	2125.0149	3231.2	2348.45
942.5907	2126.5426	3234.05	2355.75
942.7264	2128.0695	3224.4	2341.55
942.8621	2129.5956	3213.75	2336.4
942.9977	2131.1211	3216.15	2333.65
943.1333	2132.6458	3202.65	2324.65
943.2689	2134.1698	3211.8	2332.95
943.4044	2135.693	3201.55	2319.2
943.54	2137.2155	3183.25	2300.9
943.6755	2138.7373	3182.85	2303.45
943.8109	2140.2584	3179.65	2301.85
943.9464	2141.7787	3182.35	2298.2
944.0818	2143.2983	3178.05	2302.45
944.2172	2144.8171	3161.85	2284.4
944.3526	2146.3353	3158.45	2280.3
944.4879	2147.8527	3148.35	2270.3
944.6232	2149.3693	3152.45	2272.2
944.7585	2150.8853	3144.2	2265.1
944.8938	2152.4005	3139.7	2261.15
945.029	2153.9149	3139.1	2260.7
945.1642	2155.4287	3131.25	2252.35
945.2994	2156.9417	3118.25	2238.6
945.4346	2158.454	3121.5	2239.8
945.5697	2159.9655	3112.15	2236.8
945.7048	2161.4764	3124.95	2247.75
945.8399	2162.9865	3094	2213.95
945.9749	2164.4958	3101.05	2222.85
946.1099	2166.0045	3090.4	2209.05
946.2449	2167.5124	3088.65	2210.2
946.3799	2169.0195	3087.45	2208.65
946.5148	2170.526	3079.55	2201.3
946.6498	2172.0317	3070.9	2191.65
946.7846	2173.5367	3065.45	2187.25
946.9195	2175.0409	3072.6	2195.4
947.0543	2176.5445	3059.15	2181.15
947.1891	2178.0473	3054.95	2175.65
947.3239	2179.5494	3044.55	2160.1
947.4587	2181.0507	3022.7	2142.6
947.5934	2182.5513	3031.9	2154
947.7281	2184.0512	3029.65	2150.45
947.8628	2185.5504	3029.6	2150.9
947.9974	2187.0488	3006.95	2128.65
948.132	2188.5465	2999.8	2122.8
948.2666	2190.0435	3002.9	2124.05
948.4012	2191.5397	3000.6	2121.7
948.5357	2193.0353	2993.55	2116.95
948.6702	2194.5301	2979.1	2099.45
948.8047	2196.0241	2968.6	2088.15
948.9392	2197.5175	2972.2	2092.55
949.0736	2199.0101	2955.2	2070.7
949.208	2200.502	2963.45	2084.6
949.3424	2201.9931	2945.15	2067.9
949.4767	2203.4835	2942.65	2063.6
949.611	2204.9733	2948.75	2063.6
949.7453	2206.4622	2937.65	2059.9
949.8796	2207.9505	2928.2	2047.9
950.0138	2209.438	2915.3	2037.25
950.148	2210.9248	2912.7	2032.35
950.2822	2212.4109	2905.55	2027.1
950.4164	2213.8962	2889.05	2007.95
950.5505	2215.3809	2895.5	2016.5
950.6846	2216.8648	2881.45	2003.2
950.8186	2218.3479	2888.25	2002.35
950.9527	2219.8304	2886.05	2002.7
951.0867	2221.3121	2857.2	1977
951.2207	2222.7931	2858.15	1979.25
951.3546	2224.2733	2841.3	1960.45
951.4886	2225.7529	2842.05	1963.95
951.6225	2227.2317	2835.15	1954.45
951.7563	2228.7098	2821.7	1946.85
951.8902	2230.1872	2823.2	1943.65
952.024	2231.6638	2819	1941.8
952.1578	2233.1397	2814.5	1929.45
952.2916	2234.6149	2809.95	1931.25
952.4253	2236.0894	2805.9	1926.1
952.559	2237.5632	2805.75	1916.95
952.6927	2239.0362	2805.6	1927.4
952.8263	2240.5085	2779.95	1899.9
952.9599	2241.9801	2776.05	1894.9
953.0935	2243.4509	2774.7	1896.8
953.2271	2244.921	2767.5	1886.3
953.3606	2246.3904	2769.5	1890.75
953.4941	2247.8591	2763.55	1885.4
953.6276	2249.3271	2759.65	1880.6
953.7611	2250.7943	2747.25	1867.7
953.8945	2252.2608	2740.35	1860.5
954.0279	2253.7266	2729	1850.3
954.1612	2255.1917	2725.7	1846.1
954.2946	2256.656	2710.4	1830.85
954.4279	2258.1197	2715.75	1837.5
954.5612	2259.5826	2718.55	1837.8
954.6944	2261.0447	2710.65	1831.25
954.8276	2262.5062	2710.1	1830.25
954.9608	2263.9669	2708.75	1824.85
955.094	2265.4269	2695.65	1818.95
955.2271	2266.8862	2681.5	1803.25
955.3602	2268.3448	2687.2	1806.35
955.4933	2269.8026	2679.2	1800.95
955.6264	2271.2598	2676.5	1797.45
955.7594	2272.7162	2662.55	1787
955.8924	2274.1719	2650.5	1769.7
956.0253	2275.6268	2645	1766.75
956.1583	2277.0811	2660.2	1779.35
956.2912	2278.5346	2646.1	1769.35
956.4241	2279.9874	2652.65	1774.25
956.5569	2281.4395	2642.9	1765.25
956.6897	2282.8908	2636.7	1751.65
956.8225	2284.3414	2627.3	1747.4
956.9553	2285.7914	2635.95	1757.8
957.088	2287.2406	2624.5	1745
957.2207	2288.689	2626.35	1747.4
957.3534	2290.1368	2607.4	1726
957.486	2291.5838	2608.15	1726.7
957.6186	2293.0302	2607.45	1727.75
957.7512	2294.4758	2580.55	1699.9
957.8838	2295.9206	2585	1702.15
958.0163	2297.3648	2587.8	1709.75
958.1488	2298.8082	2577.8	1697.8
958.2813	2300.251	2573.45	1694.4
958.4137	2301.693	2574.75	1692.3
958.5461	2303.1343	2571.9	1691.45
958.6785	2304.5748	2557.95	1678.6
958.8108	2306.0147	2555.95	1677.1
958.9432	2307.4538	2549.5	1668.7
959.0754	2308.8922	2551.9	1675.45
959.2077	2310.3299	2538.35	1660.15
959.3399	2311.7669	2528.95	1648.6
959.4721	2313.2031	2535.5	1657
959.6043	2314.6387	2521.85	1641.4
959.7365	2316.0735	2508.5	1630.1
959.8686	2317.5076	2516.55	1635.4
960.0006	2318.941	2505.25	1627.4
960.1327	2320.3737	2511.5	1631.15
960.2647	2321.8056	2504.1	1622.55
960.3967	2323.2369	2501.75	1622.4
960.5287	2324.6674	2499.3	1617.45
960.6606	2326.0972	2500.05	1619.35
960.7925	2327.5263	2485.1	1606
960.9244	2328.9547	2468.35	1587.75
961.0562	2330.3823	2477.95	1596.6
961.1881	2331.8092	2477.9	1595.8
961.3198	2333.2355	2451.4	1573.35
961.4516	2334.661	2468.1	1589.5
961.5833	2336.0858	2449.15	1568.75
961.715	2337.5098	2442.8	1564.55
961.8467	2338.9332	2448.3	1568
961.9783	2340.3558	2442.05	1558.95
962.1099	2341.7778	2438.3	1559.6
962.2415	2343.199	2431.35	1550.7
962.373	2344.6195	2411.25	1532.05
962.5045	2346.0393	2416.15	1538.5
962.636	2347.4583	2414.55	1534.7
962.7675	2348.8767	2404.95	1525.1
962.8989	2350.2943	2403.15	1522.3
963.0303	2351.7113	2404.1	1523.5
963.1617	2353.1275	2389.5	1507.75
963.293	2354.543	2397.05	1506.75
963.4243	2355.9578	2380.35	1499.75
963.5556	2357.3718	2368.25	1487.7
963.6868	2358.7852	2382.1	1499.35
963.818	2360.1978	2361.95	1480.95
963.9492	2361.6098	2361.85	1483.95
964.0803	2363.021	2352.8	1467.65
964.2114	2364.4315	2361.8	1481.5
964.3425	2365.8413	2345	1465.55
964.4736	2367.2504	2336.1	1457.7
964.6046	2368.6587	2326.25	1444.4
964.7356	2370.0664	2324.15	1443.75
964.8666	2371.4733	2317.4	1438
964.9975	2372.8795	2318.2	1438.35
965.1284	2374.285	2301.5	1420.65
965.2593	2375.6899	2300.95	1420.05
965.3901	2377.0939	2288.2	1408.95
965.5209	2378.4973	2288.25	1410.7
965.6517	2379.9	2285.4	1403.4
965.7825	2381.3019	2278.75	1396.85
965.9132	2382.7032	2274.7	1396.45
966.0439	2384.1037	2265.35	1386.95
966.1745	2385.5035	2261.8	1380.95
966.3051	2386.9027	2247.2	1369.05
966.4357	2388.3011	2252.95	1370.5
966.5663	2389.6987	2245	1363.75
966.6968	2391.0957	2240.9	1361.6
966.8273	2392.492	2226.5	1347.9
966.9578	2393.8876	2224	1344
967.0882	2395.2824	2217.55	1339.45
967.2186	2396.6765	2219.95	1341
967.349	2398.07	2207.1	1328
967.4793	2399.4627	2217.1	1336.05
967.6097	2400.8547	2211.8	1330.2
967.7399	2402.246	2205.2	1320.15
967.8702	2403.6366	2190.35	1311
968.0004	2405.0265	2179.8	1298.25
968.1306	2406.4156	2188.6	1303.1
968.2607	2407.8041	2172.25	1289.8
968.3909	2409.1918	2174.3	1290.7
968.521	2410.5789	2165.3	1283.2
968.651	2411.9652	2148.75	1265.6
968.781	2413.3508	2146.05	1263.65
968.911	2414.7358	2142.4	1260.45
969.041	2416.12	2132.95	1252.5
969.1709	2417.5035	2134.15	1255
969.3008	2418.8863	2141.15	1260.1
969.4307	2420.2684	2126.75	1246.95
969.5606	2421.6497	2118.4	1235.8
969.6904	2423.0304	2118.35	1238.45
969.8201	2424.4104	2107.9	1227.15
969.9499	2425.7896	2105.3	1222.45
970.0796	2427.1682	2095.8	1213.1
970.2093	2428.546	2097.65	1214.85
970.3389	2429.9232	2090.3	1207.8
970.4685	2431.2996	2095.65	1214
970.5981	2432.6753	2095.65	1213.35
970.7277	2434.0503	2087.55	1206.15
970.8572	2435.4246	2075.3	1197
970.9867	2436.7982	2073.1	1190.85
971.1161	2438.1711	2063.3	1183.35
971.2456	2439.5433	2070	1191.25
971.375	2440.9148	2067.6	1181.25
971.5043	2442.2856	2059.85	1181.5
971.6336	2443.6557	2052.1	1170.35
971.7629	2445.025	2043.85	1163.75
971.8922	2446.3937	2046.35	1165.45
972.0214	2447.7617	2037.2	1154.75
972.1506	2449.1289	2041.55	1161.15
972.2798	2450.4955	2039.2	1156.6
972.4089	2451.8613	2028.2	1149.35
972.538	2453.2265	2031.7	1150
972.6671	2454.5909	2028.65	1147.8
972.7961	2455.9546	2018.35	1137.05
972.9251	2457.3177	2011.15	1131.8
973.0541	2458.68	2020.85	1138.75
973.1831	2460.0416	2018.6	1137.75
973.312	2461.4025	2007.9	1126.8
973.4408	2462.7627	2016.7	1125.4
973.5697	2464.1222	1994.75	1118.95
973.6985	2465.4811	1999.5	1120.95
973.8273	2466.8392	1993.95	1113.55
973.956	2468.1966	1998.5	1116.05
974.0847	2469.5533	1985.45	1102.95
974.2134	2470.9093	1988.75	1107.05
974.3421	2472.2645	1992.8	1109.75
974.4707	2473.6191	1980.8	1100.85
974.5993	2474.973	1975.05	1094.4
974.7278	2476.3262	1965.5	1084.1
974.8563	2477.6787	1969.05	1089.3
974.9848	2479.0305	1946.35	1066.75
975.1132	2480.3816	1955.2	1072.05
975.2417	2481.7319	1948.1	1070.05
975.37	2483.0816	1958.25	1074.65
975.4984	2484.4306	1950.85	1068
975.6267	2485.7789	1936.75	1056.9
975.755	2487.1264	1936.75	1054.2
975.8833	2488.4733	1931	1052.1
976.0115	2489.8195	1923.55	1035.1
976.1397	2491.165	1925.3	1044.95
976.2678	2492.5097	1923.95	1042.85
976.3959	2493.8538	1904.8	1024.75
976.524	2495.1972	1901.4	1024.25
976.6521	2496.5398	1903.55	1020.6
976.7801	2497.8818	1909.7	1028.75
976.9081	2499.2231	1903.95	1023.85
977.036	2500.5637	1895.8	1011.9
977.164	2501.9035	1894.9	1015.15
977.2918	2503.2427	1892.45	1008.1
977.4197	2504.5812	1880.9	996.8
977.5475	2505.919	1891.7	1009.1
977.6753	2507.256	1884.4	1005
977.8031	2508.5924	1872.4	989.85
977.9308	2509.9281	1875.7	990.7
978.0585	2511.2631	1865.25	985.2
978.1861	2512.5974	1869.95	991.65
978.3137	2513.9309	1862.05	980.25
978.4413	2515.2638	1882.2	972.8
978.5689	2516.596	1862.85	983.05
978.6964	2517.9275	1844.95	962.85
978.8239	2519.2583	1847.6	967.05
978.9513	2520.5884	1845	963.8
979.0788	2521.9178	1836.05	955.65
979.2062	2523.2465	1839.9	959.9
979.3335	2524.5745	1825.6	944.6
979.4608	2525.9018	1825.15	944.55
979.5881	2527.2284	1827.85	947.95
979.7154	2528.5543	1811.55	932.9
979.8426	2529.8796	1808.5	928.9
979.9698	2531.2041	1812.6	931.65
980.0969	2532.5279	1803.7	925.15
980.224	2533.851	1814.25	933.6
980.3511	2535.1735	1811.75	931.1
980.4781	2536.4952	1800.6	920.1
980.6052	2537.8163	1812	931
980.7321	2539.1366	1799.1	919.25
980.8591	2540.4562	1792.8	910.95
980.986	2541.7752	1789.55	909.5
981.1129	2543.0935	1789.8	909.3
981.2397	2544.411	1794.05	912.4
981.3665	2545.7279	1785.45	903.85
981.4933	2547.0441	1782.55	901.3
981.62	2548.3596	1783.3	898.75
981.7467	2549.6744	1781.55	902
981.8734	2550.9885	1788.9	901.05
982.0001	2552.3019	1770.05	892.1
982.1267	2553.6146	1768.15	886.6
982.2532	2554.9266	1761.5	879.7
982.3798	2556.2379	1767.65	887.7
982.5063	2557.5485	1770	891.75
982.6327	2558.8585	1769.1	882.75
982.7592	2560.1677	1761.25	878
982.8856	2561.4762	1751.3	870.9
983.0119	2562.7841	1753	870.1
983.1383	2564.0913	1754.75	875.1
983.2646	2565.3977	1741	861.35
983.3908	2566.7035	1734.35	854.9
983.517	2568.0086	1738.15	855.5
983.6432	2569.313	1745	863.85
983.7694	2570.6167	1737.9	854.35
983.8955	2571.9197	1722.95	842.25
984.0216	2573.222	1731.15	846.35
984.1476	2574.5236	1729.75	848.75
984.2737	2575.8246	1719.15	836.95
984.3996	2577.1248	1727.15	842.3
984.5256	2578.4244	1721.9	841.15
984.6515	2579.7232	1712	831.85
984.7774	2581.0214	1749.7	840.85
984.9032	2582.3189	1709.95	832.5
985.029	2583.6157	1712.55	827.85
985.1548	2584.9118	1707.75	828.8
985.2806	2586.2072	1708.9	829.65
985.4063	2587.5019	1704.45	824.55
985.5319	2588.7959	1709.5	830.45
985.6576	2590.0893	1700.75	816
985.7832	2591.3819	1692.35	812.25
985.9087	2592.6739	1695.25	815.25
986.0343	2593.9652	1688.4	805.85
986.1597	2595.2557	1686.25	806.8
986.2852	2596.5456	1687.8	805
986.4106	2597.8348	1664.35	785.55
986.536	2599.1234	1670.2	791.3
986.6614	2600.4112	1673.65	791.65
986.7867	2601.6983	1670.3	787.4
986.912	2602.9848	1668	787.6
987.0372	2604.2705	1669.55	782.1
987.1624	2605.5556	1665.15	785
987.2876	2606.84	1654.2	773.4
987.4128	2608.1237	1653.45	772.9
987.5379	2609.4067	1641.1	761.3
987.6629	2610.689	1649.45	759.65
987.788	2611.9707	1640.9	756.85
987.913	2613.2516	1643.45	757.7
988.0379	2614.5319	1632.4	751.8
988.1629	2615.8115	1633.35	753.85
988.2878	2617.0903	1627.55	744.75
988.4126	2618.3685	1614.9	735.05
988.5375	2619.6461	1623.95	743
988.6622	2620.9229	1615.4	734.95
988.787	2622.199	1618.95	737.4
988.9117	2623.4745	1610.8	729.05
989.0364	2624.7493	1609.85	731.6
989.161	2626.0234	1602.2	725.55
989.2857	2627.2968	1601.45	722.8
989.4102	2628.5695	1598.15	716.15
989.5348	2629.8415	1597.85	716.9
989.6593	2631.1128	1590.7	708.45
989.7837	2632.3835	1587.4	705.85
989.9082	2633.6535	1580.45	700.3
990.0326	2634.9228	1582	702.3
990.1569	2636.1914	1574.5	694.2
990.2812	2637.4593	1582.65	697.1
990.4055	2638.7265	1571.05	690.6
990.5298	2639.9931	1567.75	687.8
990.654	2641.259	1580.7	698.1
990.7782	2642.5242	1568.4	687.6
990.9023	2643.7887	1569.35	689.85
991.0264	2645.0525	1560.3	679.7
991.1505	2646.3156	1553.8	674.5
991.2745	2647.5781	1554.75	676
991.3985	2648.8398	1551.35	672.35
991.5225	2650.1009	1558.45	670.4
991.6464	2651.3613	1542.35	664.4
991.7703	2652.6211	1548.4	669
991.8942	2653.8801	1546.3	668.8
992.018	2655.1385	1544.1	660.75
992.1418	2656.3961	1533.6	652.55
992.2655	2657.6531	1540.6	661.3
992.3892	2658.9094	1537.6	657.3
992.5129	2660.1651	1529.95	651.9
992.6366	2661.42	1528.25	647.85
992.7602	2662.6743	1522.4	642.8
992.8837	2663.9279	1526.35	649
993.0073	2665.1808	1525.3	644.85
993.1307	2666.433	1518.25	637.7
993.2542	2667.6846	1518	638.7
993.3776	2668.9354	1519.25	635.45
993.501	2670.1856	1517.15	637.4
993.6244	2671.4351	1506.8	627.9
993.7477	2672.6839	1512.15	630.8
993.8709	2673.9321	1506.7	625.85
993.9942	2675.1795	1504.85	624.9
994.1174	2676.4263	1511.1	631.4
994.2405	2677.6724	1496.65	616.95
994.3637	2678.9179	1504.75	625.45
994.4868	2680.1626	1489.85	611.35
994.6098	2681.4067	1492.95	613.95
994.7328	2682.6501	1492.2	612.45
994.8558	2683.8928	1484.2	605.8
994.9788	2685.1348	1481.8	602.9
995.1017	2686.3761	1484	605.15
995.2245	2687.6168	1483.1	605.75
995.3474	2688.8568	1480.9	601.35
995.4702	2690.0961	1469.4	590.1
995.5929	2691.3348	1476.85	596.5
995.7156	2692.5727	1475.65	594.3
995.8383	2693.81	1461.95	584.15
995.961	2695.0466	1460.85	584.15
996.0836	2696.2826	1474.05	595.5
996.2062	2697.5178	1488.05	589.2
996.3287	2698.7524	1469.1	589.55
996.4512	2699.9863	1465.5	583.85
996.5737	2701.2195	1457.15	577.9
996.6961	2702.452	1459.9	577.55
996.8185	2703.6839	1451.9	570.7
996.9408	2704.9151	1449.05	571.25
997.0631	2706.1456	1440.25	562.3
997.1854	2707.3755	1440.85	560.5
997.3077	2708.6046	1445.7	563.75
997.4299	2709.8331	1449.15	567.8
997.552	2711.0609	1435.55	555.9
997.6742	2712.2881	1439.2	559.1
997.7963	2713.5145	1440.7	558.1
997.9183	2714.7403	1442.05	561.7
998.0403	2715.9654	1438.1	557.15
998.1623	2717.1899	1443.15	548.95
998.2842	2718.4136	1427.05	548.4
998.4062	2719.6367	1429.15	550.45
998.528	2720.8591	1436.45	548.9
998.6498	2722.0809	1418.4	538.65
998.7716	2723.3019	1424.3	541.25
998.8934	2724.5223	1420.95	538.9
999.0151	2725.7421	1418.55	538.1
999.1368	2726.9611	1417.05	535.2
999.2584	2728.1795	1414.4	529.5
999.38	2729.3972	1406.15	527.25
999.5016	2730.6142	1419.35	527.2
999.6231	2731.8306	1400.65	520.35
999.7446	2733.0462	1398	515.8
999.8661	2734.2612	1400.15	515.35
999.9875	2735.4756	1392.55	511.25
1000.1089	2736.6892	1392.55	511.95
1000.2302	2737.9022	1382.75	505.45
1000.3515	2739.1145	1382.9	504.1
1000.4728	2740.3262	1387.95	501.65
1000.594	2741.5372	1381.5	501.9
1000.7152	2742.7475	1371.45	491.7
1000.8363	2743.9571	1377.6	495
1000.9575	2745.1661	1380.9	496.7
1001.0785	2746.3744	1369.2	488.9
1001.1996	2747.582	1369.3	490.6
1001.3206	2748.7889	1366.3	484.8
1001.4415	2749.9952	1364.15	486.5
1001.5625	2751.2008	1369.55	489.45
1001.6833	2752.4057	1360.65	479.6
1001.8042	2753.61	1358.7	477.3
1001.925	2754.8136	1353.15	471.75
1002.0458	2756.0165	1356.75	477.5
1002.1665	2757.2188	1346.25	466.5
1002.2872	2758.4204	1348.1	469.75
1002.4078	2759.6213	1350	469.5
1002.5285	2760.8215	1351.75	468
1002.649	2762.0211	1344.95	465.5
1002.7696	2763.22	1354.1	471.75
1002.8901	2764.4182	1340.45	460.2
1003.0106	2765.6158	1336.15	456.3
1003.131	2766.8127	1332.35	451.25
1003.2514	2768.009	1332.95	452.8
1003.3717	2769.2045	1328.55	446.6
1003.492	2770.3994	1339.85	460.8
1003.6123	2771.5936	1329.5	450.5
1003.7325	2772.7872	1328.95	450.5
1003.8527	2773.9801	1324.8	443.8
1003.9729	2775.1723	1339.85	442.2
1004.093	2776.3639	1325.85	448.8
1004.2131	2777.5548	1324.6	442.75
1004.3331	2778.745	1318.05	437.15
1004.4531	2779.9346	1319.75	440.2
1004.5731	2781.1235	1314.95	435.4
1004.693	2782.3117	1312.65	431.95
1004.8129	2783.4992	1312.25	432.7
1004.9328	2784.6861	1308.4	427.8
1005.0526	2785.8723	1306.2	427.05
1005.1723	2787.0579	1301.6	422.75
1005.2921	2788.2428	1298.45	417.6
1005.4118	2789.427	1297.55	420.45
1005.5314	2790.6106	1294.5	415.2
1005.651	2791.7935	1298.5	418
1005.7706	2792.9757	1300.6	423.7
1005.8902	2794.1573	1293.95	411
1006.0097	2795.3382	1292.85	415.45
1006.1291	2796.5184	1286.2	406.85
1006.2485	2797.698	1289.2	406.7
1006.3679	2798.8769	1287.1	410.3
1006.4873	2800.0551	1285.45	404.85
1006.6066	2801.2327	1279.5	399.45
1006.7258	2802.4096	1277	399.25
1006.8451	2803.5859	1276.75	396.7
1006.9642	2804.7615	1283.9	405.7
1007.0834	2805.9364	1275.85	397.95
1007.2025	2807.1106	1279.05	399.95
1007.3216	2808.2842	1269.55	389.25
1007.4406	2809.4572	1272.4	393.15
1007.5596	2810.6294	1274.3	393.85
1007.6785	2811.801	1273.35	394.35
1007.7975	2812.972	1273.15	396.25
1007.9163	2814.1423	1267.9	388.35
1008.0352	2815.3119	1275.3	395.95
1008.154	2816.4808	1273.25	396.8
1008.2727	2817.6491	1274.65	394.75
1008.3914	2818.8167	1273.35	397.55
1008.5101	2819.9837	1275.5	391.95
1008.6288	2821.15	1272.65	393.1
1008.7474	2822.3157	1281.45	404.45
1008.8659	2823.4807	1283.5	402.75
1008.9844	2824.645	1289.4	409.05
1009.1029	2825.8086	1287.4	410.25
1009.2214	2826.9716	1295.2	418
1009.3398	2828.134	1300.5	421.8
1009.4581	2829.2957	1306.05	425.75
1009.5764	2830.4567	1303.2	425.3
1009.6947	2831.617	1311.7	431.2
1009.813	2832.7767	1305.8	429.05
1009.9312	2833.9358	1304.45	425.45
1010.0493	2835.0941	1313.1	434.05
1010.1675	2836.2519	1302.05	424.05
1010.2855	2837.4089	1303	424
1010.4036	2838.5653	1299.1	420.9
1010.5216	2839.7211	1294.1	415.4
1010.6396	2840.8761	1291.8	411.4
1010.7575	2842.0306	1283.1	404.45
1010.8754	2843.1843	1283.7	405.25
1010.9932	2844.3374	1288.05	409.05
1011.111	2845.4899	1283.65	404
1011.2288	2846.6417	1286.2	407.3
1011.3465	2847.7928	1286.55	409.85
1011.4642	2848.9433	1286.25	408.4
1011.5818	2850.0931	1287.65	408.2
1011.6995	2851.2422	1282.95	404.3
1011.817	2852.3907	1285.7	405.7
1011.9345	2853.5385	1287.5	406.75
1012.052	2854.6857	1292.45	403.45
1012.1695	2855.8323	1287.2	409.8
1012.2869	2856.9781	1289.05	411.1
1012.4042	2858.1233	1286.65	407.95
1012.5216	2859.2679	1288.05	410.4
1012.6389	2860.4118	1290.45	415.55
1012.7561	2861.555	1302	419.35
1012.8733	2862.6976	1291.1	411.7
1012.9905	2863.8395	1291.35	411.65
1013.1076	2864.9808	1290.35	411.65
1013.2247	2866.1214	1293.95	418.15
1013.3417	2867.2614	1296.4	415.65
1013.4587	2868.4007	1295.75	415.35
1013.5757	2869.5393	1300.45	419.55
1013.6926	2870.6773	1299.15	414.45
1013.8095	2871.8146	1295.05	415.05
1013.9263	2872.9513	1292.15	408.85
1014.0431	2874.0874	1289.7	411.4
1014.1599	2875.2227	1293.15	414.6
1014.2766	2876.3574	1288.75	409.45
1014.3933	2877.4915	1293.1	416.7
1014.51	2878.6249	1292.3	414.4
1014.6266	2879.7577	1288.4	408.5
1014.7431	2880.8898	1298.5	408.5
1014.8596	2882.0212	1290	412.95
1014.9761	2883.152	1291.85	414.4
1015.0925	2884.2821	1284.3	405.5
1015.2089	2885.4116	1288.7	412.7
1015.3253	2886.5405	1286.2	409
1015.4416	2887.6686	1290.95	408.45
1015.5579	2888.7962	1289.65	414.9
1015.6741	2889.923	1287.25	408.6
1015.7903	2891.0493	1286.15	409.2
1015.9065	2892.1748	1284.05	405.4
1016.0226	2893.2997	1289.85	411.5
1016.1387	2894.424	1285.75	408.45
1016.2547	2895.5476	1280	403.35
1016.3707	2896.6706	1282.05	403.35
1016.4866	2897.7929	1274.5	397.1
1016.6025	2898.9145	1272.25	392.6
1016.7184	2900.0355	1272.2	393.15
1016.8342	2901.1559	1275.45	395.25
1016.95	2902.2756	1272.35	392.85
1017.0658	2903.3946	1270.15	392
1017.1815	2904.513	1272.65	389.2
1017.2971	2905.6308	1265.8	389.85
1017.4127	2906.7479	1265.75	386.5
1017.5283	2907.8643	1270.55	390.75
1017.6439	2908.9801	1263.95	385.45
1017.7594	2910.0953	1259.8	382.9
1017.8748	2911.2098	1265	383.15
1017.9902	2912.3236	1266.2	381.05
1018.1056	2913.4368	1262.3	379.9
1018.2209	2914.5494	1250.15	371.95
1018.3362	2915.6613	1258	372.9
1018.4515	2916.7725	1249.15	369.7
1018.5667	2917.8831	1252	372.1
1018.6819	2918.9931	1248.45	367.1
1018.797	2920.1024	1244.5	365.65
1018.9121	2921.211	1234.95	355.15
1019.0271	2922.319	1239.5	360.65
1019.1421	2923.4264	1235.55	358.25
1019.2571	2924.5331	1232.3	354.35
1019.372	2925.6391	1232.4	353.75
1019.4869	2926.7445	1234.6	356.95
1019.6017	2927.8493	1236.4	358.55
1019.7165	2928.9534	1229.25	351.7
1019.8313	2930.0569	1233.3	351.45
1019.946	2931.1597	1231.5	349.6
1020.0606	2932.2619	1234.3	356.35
1020.1753	2933.3634	1234.8	356.35
1020.2899	2934.4643	1236.3	352.45
1020.4044	2935.5645	1235.35	352.35
1020.5189	2936.6641	1233.55	351.5
1020.6334	2937.763	1227.45	351.1
1020.7478	2938.8613	1225.25	344.85
1020.8622	2939.959	1232.2	348.75
1020.9765	2941.056	1220.1	342.15
1021.0908	2942.1523	1209.5	330.2
1021.2051	2943.248	1213.95	334.8
1021.3193	2944.3431	1204.65	328.05
1021.4334	2945.4375	1199.6	322.3
1021.5476	2946.5313	1189.25	313.35
1021.6617	2947.6244	1185.85	309.1
1021.7757	2948.7169	1175.8	293.5
1021.8897	2949.8087	1169.65	292.95
1022.0037	2950.8999	1169	292.15
1022.1176	2951.9904	1164.55	288.6
1022.2315	2953.0803	1161.5	281.25
1022.3453	2954.1696	1152.2	275.45
1022.4591	2955.2582	1146.4	269.45
1022.5728	2956.3462	1146.7	266.7
1022.6865	2957.4335	1149.1	269.4
1022.8002	2958.5202	1142.4	260.85
1022.9138	2959.6062	1139.45	262.55
1023.0274	2960.6916	1141.9	264.55
1023.141	2961.7764	1138.15	258.25
1023.2545	2962.8605	1144.1	264.75
1023.3679	2963.9439	1140.45	264
1023.4813	2965.0267	1139.7	260.2
1023.5947	2966.1089	1158.8	257.1
1023.708	2967.1905	1131.35	253.7
1023.8213	2968.2714	1131.55	253.15
1023.9346	2969.3516	1129.6	251.35
1024.0478	2970.4312	1143.05	256.45
1024.1609	2971.5102	1129.05	251.35
1024.274	2972.5885	1125.1	246.65
1024.3871	2973.6662	1128.7	245.95
1024.5002	2974.7432	1126.75	247.25
1024.6132	2975.8196	1126	248
1024.7261	2976.8954	1128.55	250.35
1024.839	2977.9705	1119.85	241.85
1024.9519	2979.045	1125.3	246.45
1025.0647	2980.1188	1120.6	242.85
1025.1775	2981.192	1122.8	245.75
1025.2902	2982.2645	1120.75	242.3
1025.4029	2983.3364	1119.8	240.9
1025.5156	2984.4077	1116.95	238.25
1025.6282	2985.4783	1117.3	232.4
1025.7407	2986.5483	1110.45	234.05
1025.8532	2987.6177	1103.05	227.8
1025.9657	2988.6864	1106.85	228.95
1026.0782	2989.7545	1102.55	223.25
1026.1906	2990.8219	1102.6	225.8
1026.3029	2991.8887	1102.55	222.3
1026.4152	2992.9548	1095.85	216.9
1026.5275	2994.0204	1092.4	215.1
1026.6397	2995.0852	1089.25	212.2
1026.7519	2996.1495	1091.15	211.4
1026.864	2997.2131	1086.9	208.4
1026.9761	2998.276	1082.15	203.3
1027.0882	2999.3383	1079.8	201.2
1027.2002	3000.4	1081.65	201.15
1027.3122	3001.4611	1077.2	197.35
1027.4241	3002.5215	1074.05	195.3
1027.536	3003.5812	1070.6	192.3
1027.6478	3004.6404	1070	191.6
1027.7596	3005.6989	1071.05	192
1027.8714	3006.7567	1068.75	190.45
1027.9831	3007.8139	1094.05	193.05
1028.0947	3008.8705	1066.6	190.5
1028.2064	3009.9264	1071.2	190.6
1028.3179	3010.9818	1066.5	186.75
1028.4295	3012.0364	1061.65	182.4
1028.541	3013.0905	1054.35	176
1028.6524	3014.1439	1057.2	177.5
1028.7638	3015.1966	1060.7	182.85
1028.8752	3016.2487	1056.25	179.45
1028.9865	3017.3002	1065.6	182.8
1029.0978	3018.3511	1060.4	187.3
1029.209	3019.4013	1054.4	175.05
1029.3202	3020.4509	1052.15	175
1029.4314	3021.4998	1052.25	172.45
1029.5425	3022.5481	1057.85	179
1029.6535	3023.5958	1054.1	175.95
1029.7645	3024.6428	1056.35	177.85
1029.8755	3025.6892	1050.9	173.75
1029.9864	3026.735	1049.85	172.1
1030.0973	3027.7802	1053.4	173.55
1030.2082	3028.8247	1044.15	163.85
1030.319	3029.8685	1047.6	168.85
1030.4297	3030.9118	1048.6	170.9
1030.5404	3031.9544	1048.75	170.35
1030.6511	3032.9963	1044.85	166.35
1030.7617	3034.0376	1045.8	167.05
1030.8723	3035.0783	1048.55	167.4
1030.9829	3036.1184	1043.85	164.6
1031.0934	3037.1578	1043.2	165.6
1031.2038	3038.1966	1042.2	164.5
1031.3142	3039.2348	1045.65	170
1031.4246	3040.2723	1044.75	159.45
1031.5349	3041.3092	1040.05	164.6
1031.6452	3042.3455	1039.9	161.4
1031.7554	3043.3811	1042.35	164.7
1031.8656	3044.4161	1037.9	160.95
1031.9758	3045.4505	1035.75	159.3
1032.0859	3046.4842	1042.7	163.2
1032.1959	3047.5173	1033	155.5
1032.3059	3048.5498	1033.7	155.05
1032.4159	3049.5816	1036.7	157.15
1032.5258	3050.6128	1036.75	157.45
1032.6357	3051.6434	1035.2	155.65
1032.7455	3052.6734	1037.75	159.2
1032.8553	3053.7027	1033.05	155.5
1032.9651	3054.7314	1032	155.75
1033.0748	3055.7594	1031.2	154.4
1033.1845	3056.7868	1038.1	159.9
1033.2941	3057.8136	1028.45	150.55
1033.4037	3058.8398	1031.7	152.95
1033.5132	3059.8653	1027.7	149.7
1033.6227	3060.8902	1030.7	151.95
1033.7321	3061.9145	1033.25	155.1
1033.8415	3062.9381	1025.65	149.5
1033.9509	3063.9612	1045.95	152.85
1034.0602	3064.9835	1029.35	151.25
1034.1694	3066.0053	1031.2	151.55
1034.2787	3067.0264	1025.65	148.65
1034.3878	3068.0469	1025.25	147.4
1034.497	3069.0668	1030.3	148.85
1034.6061	3070.086	1027.2	150.75
1034.7151	3071.1046	1027.85	149.3
1034.8241	3072.1226	1024.2	143.8
1034.9331	3073.1399	1024.75	146.95
1035.042	3074.1567	1022.5	145
1035.1508	3075.1727	1023.95	143.3
1035.2597	3076.1882	1021.35	143.65
1035.3684	3077.203	1020	141.05
1035.4772	3078.2173	1020.25	141
1035.5859	3079.2308	1023.75	140
1035.6945	3080.2438	1017.05	137
1035.8031	3081.2561	1015.5	138.75
1035.9117	3082.2678	1014.45	135.6
1036.0202	3083.2789	1018.7	139.75
1036.1286	3084.2893	1010.6	133.45
1036.2371	3085.2991	1014	136.7
1036.3454	3086.3083	1016.75	133.3
1036.4538	3087.3169	1016.95	138.1
1036.562	3088.3248	1013.8	133.8
1036.6703	3089.3321	1011.8	132.95
1036.7785	3090.3388	1005.9	128.05
1036.8866	3091.3449	1013.8	135.15
1036.9948	3092.3503	1010.6	130
1037.1028	3093.3551	1007	130.1
1037.2108	3094.3593	1007.85	132.3
1037.3188	3095.3629	1004.75	127.15
1037.4267	3096.3658	1004.3	126.8
1037.5346	3097.3681	1004.7	126.75
1037.6425	3098.3698	1003.9	125
1037.7503	3099.3708	1012.95	127.65
1037.858	3100.3713	1005.15	128.55
1037.9657	3101.3711	1001.5	121.95
1038.0734	3102.3702	1132	119.65
1038.181	3103.3688	1002.9	125
1038.2886	3104.3667	998.7	121.35
1038.3961	3105.364	1000.6	120.95
1038.5036	3106.3607	999.95	121
1038.611	3107.3568	998.45	118.7
1038.7184	3108.3522	993.75	116.6
1038.8257	3109.347	1000.45	123.4
1038.933	3110.3412	998.2	116.65
1039.0403	3111.3348	993.2	116.55
1039.1475	3112.3277	994.35	114.6
1039.2547	3113.32	989.75	113.1
1039.3618	3114.3117	991.85	113.7
1039.4689	3115.3028	991.9	112.5
1039.5759	3116.2932	992.55	112.25
1039.6829	3117.2831	997.1	113.45
1039.7898	3118.2723	988.4	111.3
1039.8967	3119.2608	987.7	111.1
1040.0035	3120.2488	987.65	108.5
1040.1103	3121.2361	990.4	112.2
1040.2171	3122.2229	989.7	112.85
1040.3238	3123.209	987.25	107.15
1040.4305	3124.1944	984.55	109.65
1040.5371	3125.1793	988.6	109.15
1040.6437	3126.1635	987.1	111
1040.7502	3127.1471	983.65	105.75
1040.8567	3128.1301	980.65	103.05
1040.9631	3129.1125	980.3	103.6
1041.0695	3130.0942	985.6	106.05
1041.1759	3131.0753	990.65	103.9
1041.2822	3132.0558	984.7	105.55
1041.3884	3133.0357	981.45	104.25
1041.4946	3134.015	982.9	103.2
1041.6008	3134.9936	980.85	102.2
1041.7069	3135.9716	998.75	99.1
1041.813	3136.949	979.5	102.6
1041.919	3137.9258	985.7	103.95
1042.025	3138.902	982.65	100.6
1042.1309	3139.8775	977.3	100.45
1042.2368	3140.8524	977.05	100.35
1042.3427	3141.8267	978.6	99.75
1042.4485	3142.8004	972.45	93
1042.5542	3143.7735	981.4	97.6
1042.6599	3144.7459	980.85	101.3
1042.7656	3145.7178	975	95.35
1042.8712	3146.689	974.3	98.35
1042.9768	3147.6596	975.6	96.4
1043.0823	3148.6295	972.5	96.3
1043.1878	3149.5989	973.3	96.65
1043.2932	3150.5676	971.55	94.8
1043.3986	3151.5357	971.85	95.05
1043.5039	3152.5032	967.8	92.5
1043.6092	3153.4701	970.7	94.05
1043.7145	3154.4364	971.75	91.9
1043.8197	3155.402	970.05	93.2
1043.9248	3156.367	967.85	88
1044.03	3157.3315	1004.6	89.25
1044.135	3158.2952	968.25	92.25
1044.24	3159.2584	964.5	88.65
1044.345	3160.221	969.3	89.7
1044.4499	3161.1829	966.6	91.65
1044.5548	3162.1442	965.85	88.6
1044.6596	3163.105	966.25	88.05
1044.7644	3164.065	968.05	90.25
1044.8692	3165.0245	963	80.85
1044.9739	3165.9834	962.35	86.85
1045.0785	3166.9416	960.15	84.75
1045.1831	3167.8993	965.95	87.9
1045.2877	3168.8563	963.9	85.25
1045.3922	3169.8127	962.95	85.3
1045.4966	3170.7684	962.35	84.9
1045.6011	3171.7236	962.6	83.7
1045.7054	3172.6782	960.9	81.4
1045.8098	3173.6321	961.6	83.3
1045.914	3174.5854	963.8	80.2
1046.0183	3175.5381	960.25	83.25
1046.1224	3176.4902	959.8	80.35
1046.2266	3177.4417	957.7	82.75
1046.3307	3178.3926	957.05	77.65
1046.4347	3179.3428	955.35	79
1046.5387	3180.2924	957.5	80.1
1046.6427	3181.2415	958.9	81.45
1046.7466	3182.1899	957.55	79.05
1046.8504	3183.1377	954	78.2
1046.9542	3184.0848	960.85	79.65
1047.058	3185.0314	957.35	79.15
1047.1617	3185.9773	954.75	77.55
1047.2654	3186.9227	955.15	76.3
1047.369	3187.8674	951.75	75.35
1047.4726	3188.8115	958.85	77.35
1047.5761	3189.755	954.5	77.4
1047.6796	3190.6979	950.45	75.25
1047.783	3191.6402	949.2	71.25
1047.8864	3192.5818	953.75	76.8
1047.9898	3193.5229	955.9	72.55
1048.0931	3194.4633	955	78.05
1048.1963	3195.4031	949.65	71.55
1048.2995	3196.3423	947.8	68.5
1048.4027	3197.2809	954.25	76.65
1048.5058	3198.2189	950.45	73.2
1048.6089	3199.1563	968.8	73.35
1048.7119	3200.0931	947.9	71.8
1048.8148	3201.0292	946.7	69.75
1048.9178	3201.9648	948.75	72.15
1049.0206	3202.8997	951.7	71.45
1049.1235	3203.834	946.25	68.6
1049.2262	3204.7677	947.4	71.65
1049.329	3205.7008	947.4	67.3
1049.4317	3206.6333	947.45	71.4
1049.5343	3207.5652	947.75	67
1049.6369	3208.4964	948.55	72.55
1049.7394	3209.4271	943.95	65.6
1049.8419	3210.3571	945.95	68.55
1049.9444	3211.2865	944.25	64.5
1050.0468	3212.2154	944.8	65.55
1050.1491	3213.1436	948.15	67.65
1050.2514	3214.0712	951.5	67.75
1050.3537	3214.9982	943.9	66.8
1050.4559	3215.9246	942.3	63.15
1050.5581	3216.8503	940.9	65.1
1050.6602	3217.7755	945.6	67.05
1050.7623	3218.7001	940	63.35
1050.8643	3219.624	941.25	62.7
1050.9663	3220.5473	941.25	64.45
1051.0682	3221.4701	942.4	64.65
1051.1701	3222.3922	941.65	64.5
1051.2719	3223.3137	940.5	62.25
1051.3737	3224.2346	938.65	58.85
1051.4754	3225.1549	940.55	62.85
1051.5771	3226.0746	940.05	62.55
1051.6788	3226.9937	938.5	59.55
1051.7804	3227.9121	935.4	57
1051.8819	3228.83	941.55	64.85
1051.9834	3229.7473	940.05	62.25
1052.0849	3230.6639	938.3	60.9
1052.1863	3231.5799	939	62
1052.2876	3232.4954	941.95	64
1052.3889	3233.4102	938.4	62.85
1052.4902	3234.3244	939.65	62.45
1052.5914	3235.238	934.9	57.8
1052.6926	3236.151	959.5	57.7
1052.7937	3237.0634	935.15	58.2
1052.8948	3237.9752	932.9	55.35
1052.9958	3238.8864	936.45	57.55
1053.0968	3239.797	936.1	57.4
1053.1977	3240.7069	934.05	54.95
1053.2986	3241.6163	936.6	57.5
1053.3994	3242.5251	933.05	56.3
1053.5002	3243.4332	933.4	56.35
1053.6009	3244.3408	932.1	54.9
1053.7016	3245.2477	930.5	51.05
1053.8022	3246.154	932.45	53.55
1053.9028	3247.0598	930.15	52.85
1054.0034	3247.9649	930.45	52.9
1054.1039	3248.8694	933	53.7
1054.2043	3249.7733	931.35	53
1054.3047	3250.6766	931.4	54.5
1054.4051	3251.5793	931.8	54.45
1054.5054	3252.4814	928.15	51.15
1054.6056	3253.3829	927.25	49.2
1054.7058	3254.2838	926.7	49.1
1054.806	3255.1841	929.65	52.8
1054.9061	3256.0838	928.75	51.5
1055.0061	3256.9829	927	49.9
1055.1062	3257.8814	929.15	47.95
1055.2061	3258.7792	927.1	48.3
1055.306	3259.6765	928.1	50.15
1055.4059	3260.5731	925.05	48.6
1055.5057	3261.4692	928.65	50.05
1055.6055	3262.3647	927.6	49.4
1055.7052	3263.2595	923.6	47.75
1055.8049	3264.1538	924.15	46
1055.9045	3265.0474	923.75	45.8
1056.0041	3265.9404	923	46.4
1056.1036	3266.8329	921	44.8
1056.2031	3267.7247	930.2	41.55
1056.3025	3268.616	919.75	44.05
1056.4019	3269.5066	918.4	40.3
1056.5013	3270.3966	918.8	39.1
1056.6005	3271.286	915.4	40.25
