Software Version:	3.9.2.0
Unit SN:	10000200
Spectrometer SN:	6960
Date:	3/6/2024 9:39:12 AM
Data Line Index:	25
Spectral Points:	2048
Integration time (ms):	125
Averages:	20
Delay (ms):	30
Sequence Number:	1
Processing:	dark subtract
Laser Power (mW):	305
Laser Current (mA):	824
Laser Diode Temp (C):	25
Laser Case Temp (C):	23.9
System Temp (C):	23.8
Spectrometer Temp (C):	21.3
CCD Temp (C):	-0.029
Secondary Temp (C):	20.007
Heatsink Temp (C):	17.153
CCDPCB Temp (C):	30.504
SecondaryPCB Temp (C):	25.736

Wavelength	RamanShift	Raw Counts	Dark Subtracted
787.061	30.1047	483.5	75
787.2016	32.3739	488.35	83.1
787.3422	34.6426	490.55	82.8
787.4828	36.9109	494.55	86.3
787.6235	39.1787	504.8	94.2
787.7642	41.4461	512	94.95
787.9049	43.7131	524.55	104.1
788.0456	45.9796	532.9	111.65
788.1863	48.2456	548	122.9
788.3271	50.5112	554.35	123.95
788.4679	52.7764	564.65	132.05
788.6087	55.0411	575.05	137.4
788.7496	57.3054	585.75	143.65
788.8904	59.5692	600.65	157.95
789.0313	61.8326	612.4	166.6
789.1722	64.0955	628.35	181.1
789.3132	66.3579	646.1	192.15
789.4541	68.6199	667.3	210.2
789.5951	70.8815	703.7	241.4
789.7361	73.1426	786.5	319.4
789.8771	75.4032	985.15	515.3
790.0181	77.6634	1479.4	1005.65
790.1592	79.9231	2643.45	2166.7
790.3003	82.1824	5187.05	4708.1
790.4414	84.4412	9650.65	9164.6
790.5825	86.6995	15710.3	15218.4
790.7237	88.9574	21584.2	21083.9
790.8648	91.2148	25860.85	25356.55
791.006	93.4717	28118.2	27611.05
791.1472	95.7282	29127	28615.6
791.2885	97.9842	29653.25	29141.25
791.4297	100.2398	29834.75	29318.5
791.571	102.4949	29914.45	29395.8
791.7123	104.7495	29989.35	29467.35
791.8536	107.0036	29928.4	29405.7
791.9949	109.2573	30005.55	29484.2
792.1363	111.5105	30036.95	29511.25
792.2777	113.7632	30033.45	29506.5
792.4191	116.0154	30035.9	29498.75
792.5605	118.2672	30162.5	29630.6
792.7019	120.5185	30178.15	29645.95
792.8434	122.7693	30252.65	29715.9
792.9849	125.0197	30316.4	29775.05
793.1264	127.2696	30310.35	29766.8
793.2679	129.519	30436.2	29888.65
793.4094	131.7679	30528.55	29980.05
793.551	134.0163	30588.55	30035.95
793.6926	136.2642	30645.15	30089.6
793.8342	138.5117	30667.8	30111
793.9758	140.7587	30708.35	30149.65
794.1175	143.0052	30773.9	30212.9
794.2591	145.2512	30747.5	30184.25
794.4008	147.4967	30752.7	30188.4
794.5425	149.7417	30739.3	30170.95
794.6842	151.9863	30756.15	30184.3
794.826	154.2304	30823.4	30248.15
794.9677	156.4739	30747.7	30165.2
795.1095	158.717	30818.3	30237.05
795.2513	160.9596	30865.4	30280.5
795.3931	163.2017	30869.6	30281.55
795.535	165.4433	30906.2	30317.75
795.6768	167.6844	30943.85	30352.55
795.8187	169.925	30984.5	30389.45
795.9606	172.1651	30932.7	30332.5
796.1025	174.4047	30959.15	30356.1
796.2445	176.6439	30960.85	30356.25
796.3864	178.8825	30963.5	30355.15
796.5284	181.1206	31028.6	30418.1
796.6704	183.3582	31072.75	30454.6
796.8124	185.5954	31082.15	30463.4
796.9544	187.832	31133.65	30512.3
797.0965	190.0681	31188.05	30564.1
797.2386	192.3037	31342.35	30713.3
797.3806	194.5388	31379.4	30749.05
797.5228	196.7734	31406.2	30775.75
797.6649	199.0075	31518.1	30886.1
797.807	201.2411	31715.65	31083.2
797.9492	203.4742	31758.3	31121.9
798.0914	205.7068	31924.95	31282.8
798.2336	207.9389	31948.15	31308.6
798.3758	210.1704	32017.6	31386.55
798.518	212.4015	32023.9	31403.45
798.6603	214.632	32095.65	31478.9
798.8025	216.862	32169.3	31551.2
798.9448	219.0915	32193.8	31575.05
799.0871	221.3205	32295.45	31674.55
799.2294	223.549	32394.85	31779.85
799.3718	225.777	32409.1	31789.3
799.5141	228.0044	32452.15	31822.7
799.6565	230.2314	32619.45	31990.1
799.7989	232.4578	32592.85	31960.85
799.9413	234.6837	32575.65	31934.2
800.0837	236.909	32652.5	32009.6
800.2262	239.1339	32690.55	32021.95
800.3687	241.3582	32747.1	32094.55
800.5111	243.582	32737.9	32053.1
800.6536	245.8053	32791.85	32121.25
800.7961	248.0281	32822.2	32155.7
800.9387	250.2503	32928.8	32260.4
801.0812	252.472	32887.55	32218.2
801.2238	254.6932	32982.9	32312.15
801.3664	256.9139	32904.2	32232
801.509	259.134	32998.2	32323.2
801.6516	261.3536	33019.25	32347.35
801.7942	263.5727	33166.6	32492.1
801.9369	265.7912	33137.85	32462.3
802.0795	268.0092	33223.7	32550.5
802.2222	270.2267	33264.9	32587.8
802.3649	272.4436	33352.55	32671.6
802.5076	274.6601	33342.4	32653.1
802.6504	276.8759	33346.05	32660.9
802.7931	279.0913	33419.25	32736.55
802.9359	281.3061	33425.1	32737.3
803.0787	283.5204	33517.45	32827.2
803.2215	285.7341	33552.6	32861.5
803.3643	287.9473	33658.45	32957.05
803.5071	290.16	33691.8	32995.8
803.6499	292.3721	33663.8	32973.95
803.7928	294.5837	33599.2	32908.5
803.9357	296.7947	33543.85	32854.25
804.0786	299.0052	33536.4	32846.05
804.2215	301.2152	33532.5	32835.35
804.3644	303.4246	33598.2	32903.1
804.5074	305.6334	33533.05	32839.7
804.6503	307.8418	33527.2	32827.15
804.7933	310.0495	33510.3	32810.7
804.9363	312.2568	33500.5	32801.15
805.0793	314.4635	33355.9	32654.25
805.2223	316.6696	33322.85	32618.1
805.3653	318.8752	33183	32469.55
805.5084	321.0802	33146.65	32439.05
805.6514	323.2847	33191.55	32482.5
805.7945	325.4887	33158.35	32448.25
805.9376	327.692	33118.8	32408.5
806.0807	329.8949	33246.45	32534.9
806.2238	332.0972	33271.65	32555.95
806.367	334.2989	33360.1	32641.6
806.5101	336.5001	33373.2	32655.65
806.6533	338.7007	33350.1	32632.25
806.7965	340.9008	33332.95	32615.85
806.9397	343.1003	33265.8	32544.9
807.0829	345.2992	33273.85	32551.75
807.2261	347.4976	33236.05	32513
807.3693	349.6955	33217	32488.25
807.5126	351.8927	33299.65	32573
807.6559	354.0895	33205.25	32464.75
807.7991	356.2856	33173.9	32441.4
807.9424	358.4812	33120.65	32391.05
808.0857	360.6763	33229.2	32493.6
808.2291	362.8707	33176.2	32440.65
808.3724	365.0646	33195.1	32454.7
808.5158	367.258	33136.2	32394.2
808.6591	369.4508	33098.75	32355.35
808.8025	371.643	33182.6	32438.85
808.9459	373.8346	33061.35	32316.35
809.0893	376.0257	33080.3	32334.2
809.2327	378.2162	33026.95	32281.25
809.3762	380.4062	33108.3	32363.25
809.5196	382.5956	32996.65	32254
809.6631	384.7844	33006.6	32269.2
809.8066	386.9726	32867.85	32126.6
809.9501	389.1603	32853.4	32117.05
810.0936	391.3474	32840.1	32056.15
810.2371	393.5339	32766.6	32025.15
810.3806	395.7199	32684	31946.2
810.5241	397.9052	32724.25	31983.95
810.6677	400.09	32685.8	31943.1
810.8113	402.2743	32772	32027.95
810.9548	404.4579	32748.9	32005.45
811.0984	406.641	32780.7	32033.8
811.2421	408.8235	32839.1	32089.2
811.3857	411.0054	32915.2	32163.4
811.5293	413.1868	33001.9	32248.95
811.673	415.3675	32969.9	32212.1
811.8166	417.5477	32962.35	32202.3
811.9603	419.7273	32927.7	32167
812.104	421.9064	32709.2	31940.3
812.2477	424.0848	32641.55	31878.55
812.3914	426.2627	32559.3	31797.2
812.5351	428.4399	32508.7	31745.6
812.6788	430.6166	32380.95	31612.4
812.8226	432.7928	32287.2	31516.5
812.9663	434.9683	32210.75	31443
813.1101	437.1432	32105.95	31335.95
813.2539	439.3176	32021.75	31254.1
813.3977	441.4914	31888.2	31120.05
813.5415	443.6645	31956.4	31186.5
813.6853	445.8371	31767.55	30995.75
813.8291	448.0091	31653.35	30882.85
813.973	450.1806	31580.95	30808.3
814.1168	452.3514	31522.15	30747.2
814.2607	454.5216	31526.15	30744.45
814.4046	456.6913	31374.65	30599.8
814.5485	458.8603	31384.25	30608.15
814.6924	461.0288	31427.9	30652.8
814.8363	463.1967	31366.55	30590.15
814.9802	465.3639	31387.45	30609.45
815.1241	467.5306	31323.85	30547.9
815.2681	469.6967	31222.35	30444.4
815.412	471.8622	31154.1	30376.25
815.556	474.0271	31139.45	30363.95
815.7	476.1914	31121.3	30340.45
815.844	478.3551	31063.6	30282.95
815.988	480.5182	31118.9	30336.7
816.132	482.6807	31124.35	30343.05
816.276	484.8426	31187.5	30407.05
816.4201	487.0039	31175.6	30394.15
816.5641	489.1647	31274	30489.95
816.7082	491.3248	31325.25	30542.9
816.8522	493.4843	31276.45	30494.05
816.9963	495.6432	31290.8	30505.65
817.1404	497.8015	31179.45	30390.85
817.2845	499.9592	31170.4	30384.35
817.4286	502.1163	31094.45	30303.85
817.5727	504.2728	30996.5	30205.15
817.7168	506.4287	31026.35	30239.7
817.861	508.5839	30892.8	30103.7
818.0051	510.7386	30899.6	30110.35
818.1493	512.8927	30903.05	30101.35
818.2935	515.0461	30937.1	30145.05
818.4377	517.199	30895.05	30102.2
818.5818	519.3512	30893.45	30101.1
818.726	521.5029	30897.05	30097
818.8703	523.6539	30908.5	30113.55
819.0145	525.8043	30937.1	30141.15
819.1587	527.9541	30848.8	30049.4
819.303	530.1033	30743.25	29943.9
819.4472	532.2519	30682.65	29887.7
819.5915	534.3999	30634.9	29834.75
819.7357	536.5472	30614.25	29812.1
819.88	538.694	30581.1	29780.05
820.0243	540.8401	30616.25	29814.9
820.1686	542.9856	30642.7	29840.8
820.3129	545.1305	30602.3	29800.15
820.4572	547.2748	30620.45	29818.25
820.6016	549.4185	30593.25	29789.9
820.7459	551.5615	30548.15	29745.55
820.8902	553.704	30546.2	29743.55
821.0346	555.8458	30482.8	29682.45
821.1789	557.987	30524.1	29724.25
821.3233	560.1276	30496	29694.9
821.4677	562.2675	30517.1	29718.05
821.6121	564.4069	30535.95	29734.9
821.7565	566.5456	30551.45	29751.3
821.9009	568.6837	30508.15	29705.2
822.0453	570.8212	30352.25	29549.65
822.1897	572.958	30230.4	29422.55
822.3342	575.0942	30114.9	29311.75
822.4786	577.2299	30050.85	29246.55
822.6231	579.3648	29941.9	29134.7
822.7675	581.4992	29803	28998.6
822.912	583.6329	29723.35	28917.05
823.0565	585.766	29717.7	28909.5
823.201	587.8985	29662	28855.1
823.3454	590.0304	29648.9	28827
823.4899	592.1616	29609.6	28796.15
823.6345	594.2922	29554.15	28741.75
823.779	596.4222	29486.85	28673
823.9235	598.5515	29368.25	28555.2
824.068	600.6802	29304.8	28491.65
824.2126	602.8083	29133.9	28321.65
824.3571	604.9358	29085.1	28270.55
824.5017	607.0626	29009.2	28197.4
824.6462	609.1888	28966.2	28151.55
824.7908	611.3144	28958.1	28140.9
824.9354	613.4393	28969.2	28156
825.08	615.5636	28941.25	28127.1
825.2246	617.6873	28946.15	28131.1
825.3692	619.8103	28990.3	28171.6
825.5138	621.9327	28910.65	28090.75
825.6584	624.0544	28924.45	28109.1
825.803	626.1756	28847.75	28031.75
825.9477	628.2961	28806.4	27988.45
826.0923	630.4159	28664.5	27845.65
826.237	632.5351	28708.95	27889.45
826.3816	634.6537	28595.45	27775.65
826.5263	636.7716	28531.55	27707.25
826.6709	638.8889	28544.15	27723.95
826.8156	641.0056	28588.05	27769.65
826.9603	643.1216	28515	27694.2
827.105	645.237	28548.3	27723.85
827.2497	647.3518	28512.5	27689.2
827.3944	649.4659	28437.8	27617.1
827.5391	651.5793	28411.25	27589.9
827.6838	653.6922	28350.85	27527.85
827.8285	655.8043	28286.85	27465.7
827.9733	657.9159	28289.85	27466.55
828.118	660.0268	28217.4	27389.75
828.2627	662.137	28144.45	27318.1
828.4075	664.2466	28165.3	27336.35
828.5522	666.3556	28146.35	27320.55
828.697	668.4639	28011	27182.55
828.8418	670.5716	28033.15	27206.2
828.9865	672.6786	28044.65	27216.7
829.1313	674.785	27891.85	27063.2
829.2761	676.8907	27805.3	26977.2
829.4209	678.9958	27825.7	27000.95
829.5657	681.1002	27703.85	26872.65
829.7105	683.204	27682.95	26849.5
829.8553	685.3072	27671.35	26842.7
830.0001	687.4097	27600.2	26772
830.1449	689.5115	27568.05	26736.2
830.2898	691.6127	27604.1	26774
830.4346	693.7132	27541.65	26710.95
830.5794	695.8131	27511.7	26669.35
830.7243	697.9123	27562.15	26730.75
830.8691	700.0109	27470.65	26639.65
831.014	702.1089	27446	26615.9
831.1588	704.2061	27405.45	26574.8
831.3037	706.3028	27432.75	26596.7
831.4486	708.3987	27395.25	26559.9
831.5935	710.4941	27364.2	26529
831.7383	712.5887	27359.8	26525.25
831.8832	714.6827	27330.5	26491.4
832.0281	716.7761	27315.95	26484.15
832.173	718.8688	27318.05	26482.95
832.3179	720.9608	27196.8	26358.95
832.4628	723.0522	27239.2	26398.8
832.6077	725.1429	27176.9	26340.5
832.7527	727.233	27168	26329.2
832.8976	729.3224	27235.2	26398.85
833.0425	731.4112	27206.45	26369.2
833.1874	733.4993	27153.75	26314.05
833.3324	735.5867	27022	26181.9
833.4773	737.6735	26978.75	26138.4
833.6222	739.7596	26885.05	26043.4
833.7672	741.845	26818.8	25978.5
833.9122	743.9298	26753.7	25913.75
834.0571	746.014	26724.2	25883.35
834.2021	748.0974	26661.2	25819.75
834.347	750.1802	26590.7	25748.2
834.492	752.2624	26491.05	25652.7
834.637	754.3439	26438.35	25596.8
834.782	756.4247	26330.95	25479.95
834.9269	758.5048	26251.85	25410.8
835.0719	760.5843	26236.75	25395.45
835.2169	762.6631	26185.2	25342.15
835.3619	764.7413	26157.45	25316.25
835.5069	766.8188	26218.6	25373.95
835.6519	768.8956	26156.55	25314.6
835.7969	770.9718	26264.4	25421.15
835.9419	773.0473	26127.2	25285.15
836.0869	775.1221	26071.35	25229.55
836.232	777.1962	25962	25119.45
836.377	779.2697	25972.5	25126.95
836.522	781.3426	25980.95	25117.45
836.667	783.4147	25980.7	25134.65
836.8121	785.4862	25988.1	25146.45
836.9571	787.557	25874.7	25032.05
837.1021	789.6271	25715.55	24869.1
837.2472	791.6966	25556.9	24711.6
837.3922	793.7654	25473	24628.2
837.5373	795.8335	25436.35	24593.35
837.6823	797.901	25308.25	24463.95
837.8274	799.9678	25251.2	24404.55
837.9724	802.0339	25198.85	24352.95
838.1175	804.0993	25222.4	24364.05
838.2626	806.1641	25062.75	24214.75
838.4076	808.2282	25039.4	24192.35
838.5527	810.2916	25010.65	24160.25
838.6978	812.3544	25016.15	24170.55
838.8428	814.4164	24953.8	24107.6
838.9879	816.4778	24982.7	24135.55
839.133	818.5385	24906.05	24059.55
839.2781	820.5986	24911.1	24063.05
839.4232	822.658	24938.3	24089.9
839.5682	824.7166	24886.95	24039.8
839.7133	826.7747	24986.25	24139.55
839.8584	828.832	24992.75	24144.45
840.0035	830.8886	24895.2	24046.05
840.1486	832.9446	24958.7	24110.65
840.2937	834.9999	24833.55	23986.15
840.4388	837.0545	24781.2	23929.05
840.5839	839.1085	24689.6	23839.8
840.729	841.1618	24593.6	23739.15
840.8741	843.2143	24528.75	23678.55
841.0192	845.2662	24413.75	23563.75
841.1643	847.3175	24424.6	23575.8
841.3095	849.368	24317.3	23466.35
841.4546	851.4179	24278.9	23427.65
841.5997	853.467	24167.05	23316.15
841.7448	855.5155	24193.55	23341.35
841.8899	857.5633	24107.65	23255.3
842.0351	859.6105	24075.45	23222.2
842.1802	861.6569	24059	23209.95
842.3253	863.7027	24011.45	23160.5
842.4704	865.7478	23999.15	23147.3
842.6156	867.7922	23952.3	23099.75
842.7607	869.8359	23900.45	23047.3
842.9058	871.8789	23846.2	22992.5
843.0509	873.9212	23843.75	22957.7
843.1961	875.9629	23776.8	22923.9
843.3412	878.0039	23755	22900.5
843.4863	880.0441	23714.9	22861.65
843.6315	882.0837	23757.05	22901.95
843.7766	884.1226	23754.7	22898.65
843.9218	886.1609	23743.85	22890
844.0669	888.1984	23815	22961.2
844.212	890.2352	23841.25	22988.8
844.3572	892.2714	23821.5	22961.85
844.5023	894.3069	23779.15	22924
844.6475	896.3416	23642.95	22787.2
844.7926	898.3757	23622.75	22767.55
844.9377	900.4091	23575.3	22721.45
845.0829	902.4418	23539.3	22679.7
845.228	904.4739	23430.9	22574
845.3732	906.5052	23439.45	22582.05
845.5183	908.5358	23402.75	22546.7
845.6635	910.5658	23345.1	22488.85
845.8086	912.595	23330.4	22473.9
845.9538	914.6236	23176.9	22321.5
846.0989	916.6515	23143.5	22287.5
846.2441	918.6786	23138.6	22279.65
846.3892	920.7051	23072.1	22211.75
846.5344	922.7309	23052.6	22194.1
846.6795	924.756	22956.3	22098.4
846.8246	926.7804	22988.55	22128.35
846.9698	928.8041	22826.55	21967.25
847.1149	930.8272	22885.6	22027.2
847.2601	932.8495	22769	21909.95
847.4052	934.8711	22786.35	21927.15
847.5504	936.892	22646.9	21789.5
847.6955	938.9123	22657.55	21796.5
847.8407	940.9318	22618.9	21759.35
847.9858	942.9506	22574.8	21712.8
848.131	944.9688	22475.85	21616.4
848.2761	946.9862	22432.45	21572.2
848.4213	949.003	22305.05	21445.95
848.5664	951.019	22227.2	21369.7
848.7115	953.0344	22169.7	21310.75
848.8567	955.0491	22115.3	21255.4
849.0018	957.063	22105.45	21247.3
849.147	959.0763	22152.4	21293.1
849.2921	961.0888	22040.5	21178.55
849.4373	963.1007	22045.95	21186.15
849.5824	965.1119	22069.9	21209.05
849.7275	967.1223	22016.75	21156.95
849.8727	969.1321	21966.55	21107.15
850.0178	971.1412	21916.6	21056.55
850.1629	973.1495	21863.8	21004.4
850.3081	975.1572	21851.05	20944
850.4532	977.1641	21811.95	20950.55
850.5983	979.1704	21776.6	20914
850.7435	981.1759	21714.15	20850.9
850.8886	983.1808	21666.85	20803.2
851.0337	985.1849	21644.85	20774.3
851.1788	987.1884	21544.55	20680.75
851.324	989.1911	21560.9	20696.7
851.4691	991.1932	21476	20611.8
851.6142	993.1945	21391.15	20527.7
851.7593	995.1951	21333.05	20468.55
851.9045	997.1951	21280.3	20413.2
852.0496	999.1943	21213.6	20354.65
852.1947	1001.1928	21113.85	20249.4
852.3398	1003.1906	21070.95	20209.15
852.4849	1005.1877	21030.6	20166.35
852.63	1007.1841	21007	20142.8
852.7751	1009.1798	20932.1	20070.7
852.9202	1011.1748	20863.55	20000.25
853.0653	1013.1691	20804	19940.65
853.2104	1015.1627	20729.45	19865.35
853.3555	1017.1556	20568.7	19703.45
853.5006	1019.1477	20538.85	19674.5
853.6457	1021.1392	20396.85	19534.15
853.7908	1023.1299	20358	19494.85
853.9359	1025.12	20279	19415.35
854.081	1027.1093	20176.8	19314.65
854.2261	1029.0979	20124.05	19265.55
854.3712	1031.0859	20072.9	19209.7
854.5163	1033.0731	20035.9	19171.2
854.6613	1035.0596	19996.05	19133.2
854.8064	1037.0454	19902.35	19036.65
854.9515	1039.0304	19892.9	19027.75
855.0965	1041.0148	19746.1	18881.65
855.2416	1042.9985	19726.25	18858.5
855.3867	1044.9814	19677.5	18812.7
855.5317	1046.9636	19626.35	18759.4
855.6768	1048.9452	19546.45	18681.1
855.8219	1050.926	19553.7	18690.3
855.9669	1052.9061	19505.95	18641
856.112	1054.8855	19456.3	18590.85
856.257	1056.8642	19425.9	18560.5
856.4021	1058.8421	19420.45	18549.6
856.5471	1060.8194	19345.35	18477.85
856.6921	1062.7959	19277.5	18413.65
856.8372	1064.7717	19272.9	18405.25
856.9822	1066.7469	19215.5	18347.7
857.1272	1068.7213	19173.85	18305.75
857.2723	1070.695	19169.45	18304.95
857.4173	1072.6679	19119.55	18252.05
857.5623	1074.6402	19133.45	18266.9
857.7073	1076.6117	19120.45	18249.45
857.8523	1078.5826	19099.5	18233.35
857.9973	1080.5527	19020.9	18152.15
858.1423	1082.5221	18934.05	18065.2
858.2873	1084.4908	18918.45	18051.5
858.4323	1086.4587	18809.15	17942.45
858.5773	1088.426	18800.65	17933.05
858.7223	1090.3925	18751.35	17878.05
858.8673	1092.3584	18712.1	17844.05
859.0123	1094.3235	18652.4	17786.1
859.1573	1096.2879	18600.45	17733
859.3022	1098.2515	18617.7	17749.1
859.4472	1100.2145	18616.1	17746.75
859.5922	1102.1767	18608.1	17736.25
859.7371	1104.1382	18576.45	17709.5
859.8821	1106.099	18596.05	17727.25
860.027	1108.0591	18583.4	17714.95
860.172	1110.0185	18572.2	17703.4
860.3169	1111.9771	18640.75	17774.95
860.4619	1113.9351	18562.9	17692.2
860.6068	1115.8923	18568.4	17701.55
860.7517	1117.8488	18556.5	17685.15
860.8967	1119.8045	18437.05	17569.35
861.0416	1121.7596	18374.45	17506.6
861.1865	1123.7139	18246.85	17379.15
861.3314	1125.6675	18157.1	17288.65
861.4763	1127.6204	18179.7	17311
861.6212	1129.5726	18102.15	17232.85
861.7661	1131.524	18090.6	17223
861.911	1133.4748	18054.15	17182.8
862.0559	1135.4248	17922.2	17053
862.2008	1137.3741	17861	16993.55
862.3457	1139.3226	17764.05	16892.45
862.4905	1141.2705	17829.9	16961.3
862.6354	1143.2176	17717.1	16842.55
862.7803	1145.164	17712.85	16840.1
862.9251	1147.1097	17677.3	16806.65
863.07	1149.0546	17645.25	16774.25
863.2148	1150.9989	17626.1	16756.4
863.3597	1152.9424	17604.5	16734.3
863.5045	1154.8852	17569.35	16699.55
863.6493	1156.8272	17545.95	16675.3
863.7942	1158.7686	17541.75	16664.9
863.939	1160.7092	17470.05	16599.5
864.0838	1162.6491	17381.3	16507.8
864.2286	1164.5883	17399.25	16527
864.3734	1166.5267	17405.6	16533.75
864.5182	1168.4644	17391.5	16523.3
864.663	1170.4014	17417.9	16543.25
864.8078	1172.3377	17418.8	16550.15
864.9526	1174.2732	17442.9	16573.2
865.0974	1176.2081	17517.2	16647.5
865.2421	1178.1421	17552.65	16678.5
865.3869	1180.0755	17668.75	16797.85
865.5317	1182.0082	17658.9	16787.55
865.6764	1183.9401	17627.9	16754.45
865.8212	1185.8713	17490	16618.55
865.9659	1187.8017	17385.7	16513.25
866.1106	1189.7315	17264.55	16392.95
866.2554	1191.6605	17101	16232
866.4001	1193.5888	17001.75	16132.05
866.5448	1195.5163	16931.1	16062.05
866.6895	1197.4432	16865.65	15992.35
866.8342	1199.3693	16776.65	15904.6
866.9789	1201.2947	16749.15	15873.9
867.1236	1203.2193	16655.95	15784.7
867.2683	1205.1432	16663.3	15791.6
867.413	1207.0664	16622.7	15751.1
867.5576	1208.9889	16579.25	15705.1
867.7023	1210.9106	16487.5	15617
867.847	1212.8316	16447.2	15576.25
867.9916	1214.7519	16456.35	15575.85
868.1363	1216.6715	16404.35	15533.7
868.2809	1218.5903	16422.55	15550.9
868.4255	1220.5084	16384.1	15511.2
868.5701	1222.4257	16386.2	15513.4
868.7148	1224.3424	16338.05	15465.4
868.8594	1226.2583	16291.1	15415.65
869.004	1228.1735	16285.75	15412.6
869.1486	1230.0879	16246.85	15374.4
869.2932	1232.0016	16258	15385.25
869.4377	1233.9146	16250.15	15377.1
869.5823	1235.8269	16232.6	15361.6
869.7269	1237.7384	16245.75	15374.3
869.8715	1239.6492	16162.15	15291.6
870.016	1241.5592	16183.8	15312.95
870.1606	1243.4686	16137.35	15263.95
870.3051	1245.3772	16177.7	15304.9
870.4496	1247.285	16227.2	15354
870.5941	1249.1922	16289.8	15419.75
870.7387	1251.0986	16303.7	15431.2
870.8832	1253.0042	16339.2	15467.1
871.0277	1254.9092	16369.5	15497.5
871.1722	1256.8134	16430	15558.15
871.3167	1258.7169	16488.9	15614.85
871.4611	1260.6196	16494.3	15621.95
871.6056	1262.5216	16522.3	15649.15
871.7501	1264.4229	16479.4	15606.2
871.8945	1266.3234	16463.45	15591.5
872.039	1268.2232	16337.35	15464.7
872.1834	1270.1223	16284.75	15409.15
872.3278	1272.0207	16217.75	15344.4
872.4723	1273.9183	16204.35	15323.7
872.6167	1275.8151	16153.2	15280.45
872.7611	1277.7113	16198.55	15323.75
872.9055	1279.6067	16188.85	15317.2
873.0499	1281.5014	16307.3	15431.25
873.1943	1283.3953	16429.4	15554.2
873.3386	1285.2885	16620.15	15747.05
873.483	1287.181	16749.5	15874.5
873.6274	1289.0727	16800.25	15928.05
873.7717	1290.9637	16722.85	15849.6
873.9161	1292.854	16670.05	15798.35
874.0604	1294.7435	16505.4	15631.9
874.2047	1296.6323	16366.25	15490.4
874.349	1298.5204	16285.95	15407.7
874.4933	1300.4077	16189.05	15314.3
874.6376	1302.2943	16142.75	15271.1
874.7819	1304.1802	16091.35	15217.9
874.9262	1306.0653	16037.15	15162.65
875.0705	1307.9497	15960.75	15084.65
875.2147	1309.8333	15939.4	15063.55
875.359	1311.7162	15904.75	15030.5
875.5032	1313.5984	15871.3	14995.05
875.6475	1315.4798	15809.65	14937.3
875.7917	1317.3605	15744.9	14865.65
875.9359	1319.2405	15734	14858.05
876.0801	1321.1197	15681.5	14803.7
876.2243	1322.9982	15644.45	14766.45
876.3685	1324.876	15579.2	14706.3
876.5127	1326.753	15452.7	14578.45
876.6569	1328.6293	15396	14519.5
876.801	1330.5048	15326.35	14450.4
876.9452	1332.3796	15220.85	14348.75
877.0893	1334.2537	15173.45	14274.25
877.2335	1336.127	15088.15	14212.1
877.3776	1337.9996	15051.6	14175.85
877.5217	1339.8714	14992.4	14117
877.6658	1341.7426	14963.35	14046.3
877.8099	1343.6129	14902.95	14027.6
877.954	1345.4826	14829.4	13953.25
878.0981	1347.3515	14852.55	13975.85
878.2422	1349.2196	14806.55	13929.25
878.3862	1351.087	14789.7	13915.35
878.5303	1352.9537	14760.05	13884.6
878.6743	1354.8197	14767.45	13894.65
878.8184	1356.6849	14770.35	13894.3
878.9624	1358.5493	14738.85	13863.65
879.1064	1360.4131	14739.85	13863
879.2504	1362.276	14750.5	13877.3
879.3944	1364.1383	14750.4	13876.9
879.5384	1365.9998	14710.9	13831.25
879.6823	1367.8606	14710.5	13834.45
879.8263	1369.7206	14642.15	13767.7
879.9702	1371.5799	14627.25	13750.55
880.1142	1373.4384	14587.45	13712.4
880.2581	1375.2962	14562.5	13685.2
880.402	1377.1533	14447.1	13570.85
880.5459	1379.0096	14359.1	13482.4
880.6898	1380.8652	14297.05	13421.25
880.8337	1382.7201	14236.2	13360.35
880.9776	1384.5742	14144.85	13270.4
881.1215	1386.4275	14082.85	13205.15
881.2653	1388.2802	14018.55	13144.45
881.4092	1390.132	13975.35	13099.1
881.553	1391.9832	13942.5	13065.05
881.6968	1393.8336	13872.9	12996.55
881.8406	1395.6832	13828.05	12951.2
881.9844	1397.5322	13782.6	12906.8
882.1282	1399.3803	13730.5	12849.6
882.272	1401.2278	13660.3	12784.4
882.4158	1403.0745	13630.75	12754.7
882.5595	1404.9204	13570	12696
882.7033	1406.7656	13560.15	12683.5
882.847	1408.6101	13515.25	12640.1
882.9908	1410.4538	13446.5	12571.45
883.1345	1412.2968	13409.75	12534.25
883.2782	1414.139	13358	12481.4
883.4219	1415.9805	13346.15	12468.5
883.5656	1417.8213	13326.1	12428
883.7092	1419.6613	13301.5	12426.25
883.8529	1421.5006	13303.75	12426.85
883.9965	1423.3391	13321.75	12445.15
884.1402	1425.1769	13294.15	12417.7
884.2838	1427.0139	13358.25	12481.3
884.4274	1428.8502	13401.4	12526.4
884.571	1430.6858	13419.7	12543.9
884.7146	1432.5206	13397.15	12522.1
884.8582	1434.3547	13393.3	12517.75
885.0018	1436.188	13354.8	12479.75
885.1453	1438.0206	13337.75	12461.7
885.2889	1439.8524	13301.55	12426.2
885.4324	1441.6835	13274.95	12398.95
885.5759	1443.5139	13278.6	12399.7
885.7194	1445.3435	13229.85	12353.25
885.8629	1447.1724	13232.75	12359.3
886.0064	1449.0005	13180.1	12305.75
886.1499	1450.8279	13172.5	12295.35
886.2933	1452.6545	13169.6	12293.7
886.4368	1454.4804	13146.9	12271.65
886.5802	1456.3056	13120.55	12238.5
886.7237	1458.13	13082.55	12206.95
886.8671	1459.9536	13061.2	12185.5
887.0105	1461.7766	13010.9	12134.2
887.1539	1463.5987	12914.45	12036.25
887.2972	1465.4202	12850.4	11975.7
887.4406	1467.2409	12814.95	11939.4
887.584	1469.0608	12777.95	11899.75
887.7273	1470.88	12711.7	11834.9
887.8706	1472.6984	12644.1	11765.4
888.0139	1474.5161	12604.8	11725.95
888.1572	1476.3331	12557.4	11682.25
888.3005	1478.1493	12551.5	11673.6
888.4438	1479.9648	12542.5	11665.05
888.5871	1481.7795	12514.75	11637.2
888.7303	1483.5935	12486.05	11611.1
888.8736	1485.4067	12463.7	11587.1
889.0168	1487.2192	12449.55	11571.05
889.16	1489.031	12443.6	11564.4
889.3032	1490.842	12416.8	11540.3
889.4464	1492.6522	12396.85	11522.45
889.5896	1494.4618	12359.85	11481.25
889.7327	1496.2705	12353.9	11476.65
889.8759	1498.0785	12300.95	11423.15
890.019	1499.8858	12283.85	11406.7
890.1622	1501.6924	12256.25	11382.4
890.3053	1503.4981	12247.8	11372.5
890.4484	1505.3032	12211.2	11333.55
890.5914	1507.1075	12141.65	11266.25
890.7345	1508.911	12139	11262.35
890.8776	1510.7138	12118.65	11240.8
891.0206	1512.5159	12071.6	11195.2
891.1637	1514.3172	12024.75	11147.5
891.3067	1516.1178	11986.2	11109.65
891.4497	1517.9176	11975.05	11095.35
891.5927	1519.7166	11931.8	11056.65
891.7357	1521.515	11903.1	11019.4
891.8786	1523.3126	11846.6	10970.05
892.0216	1525.1094	11829.2	10951.4
892.1645	1526.9055	11766.9	10891
892.3074	1528.7008	11730	10853.85
892.4503	1530.4954	11670.75	10791.3
892.5932	1532.2893	11648.35	10773.05
892.7361	1534.0824	11607.8	10727.35
892.879	1535.8747	11617.8	10740.6
893.0218	1537.6663	11525.5	10646.95
893.1647	1539.4572	11497.35	10619.35
893.3075	1541.2473	11474.95	10597.1
893.4503	1543.0367	11434.15	10559.65
893.5931	1544.8253	11397.35	10516.4
893.7359	1546.6132	11404.55	10525.45
893.8787	1548.4003	11348.6	10461.2
894.0214	1550.1867	11356.35	10470.15
894.1642	1551.9723	11318.95	10438.15
894.3069	1553.7572	11274.95	10397.3
894.4496	1555.5414	11282.35	10404.5
894.5923	1557.3247	11271.85	10395.85
894.735	1559.1074	11245.75	10370.3
894.8777	1560.8893	11286.6	10410.05
895.0204	1562.6705	11276.4	10399.15
895.163	1564.4509	11277.5	10400.45
895.3056	1566.2305	11256.45	10379.5
895.4482	1568.0094	11262.4	10387
895.5908	1569.7876	11211.9	10337.6
895.7334	1571.565	11178.3	10301.2
895.876	1573.3417	11202.15	10325.75
896.0186	1575.1176	11169.1	10294.8
896.1611	1576.8928	11157.85	10281
896.3036	1578.6672	11095.55	10219.05
896.4461	1580.4409	11108.5	10234.2
896.5886	1582.2138	11092.9	10214.9
896.7311	1583.986	11113.75	10236.65
896.8736	1585.7575	11125.95	10249.05
897.0161	1587.5282	11146.45	10271.85
897.1585	1589.2981	11170.2	10293.2
897.3009	1591.0673	11116.3	10237.9
897.4433	1592.8358	11105.95	10231.15
897.5857	1594.6035	11101.45	10222.85
897.7281	1596.3704	11040.7	10164.9
897.8705	1598.1366	10990.1	10113.45
898.0128	1599.9021	10928.5	10051.15
898.1551	1601.6668	10857.45	9978.95
898.2975	1603.4308	10812.35	9934.25
898.4398	1605.194	10796.7	9917.75
898.5821	1606.9564	10780.15	9903.55
898.7243	1608.7182	10800.2	9919.65
898.8666	1610.4791	10843.55	9968.4
899.0088	1612.2394	10901.35	10025.25
899.1511	1613.9988	10985.3	10110.5
899.2933	1615.7576	11025.95	10148.75
899.4355	1617.5156	11060.05	10177.3
899.5776	1619.2728	11010.75	10137.45
899.7198	1621.0293	10925.05	10050.3
899.862	1622.785	10767.75	9888.5
900.0041	1624.54	10620.9	9740.2
900.1462	1626.2942	10492.05	9615
900.2883	1628.0477	10319.45	9439.2
900.4304	1629.8005	10222.1	9341.1
900.5725	1631.5525	10143.45	9265.6
900.7145	1633.3037	10034.7	9157.85
900.8566	1635.0542	9988.65	9111.5
900.9986	1636.804	9915.65	9040.1
901.1406	1638.553	9917.75	8959.35
901.2826	1640.3013	9805.75	8930.75
901.4245	1642.0488	9748.45	8870.2
901.5665	1643.7955	9717.8	8842.4
901.7085	1645.5416	9684.15	8804.95
901.8504	1647.2868	9641	8765.7
901.9923	1649.0313	9598.5	8722.05
902.1342	1650.7751	9578.45	8699.8
902.2761	1652.5181	9553.65	8677.85
902.4179	1654.2604	9529.2	8649.75
902.5598	1656.0019	9510.55	8634.35
902.7016	1657.7427	9516.9	8641.3
902.8434	1659.4828	9476.65	8600.35
902.9852	1661.222	9469.45	8590.85
903.127	1662.9606	9471.6	8594.7
903.2687	1664.6984	9509.65	8633.15
903.4105	1666.4354	9513	8637.75
903.5522	1668.1717	9462.05	8583.8
903.6939	1669.9072	9363.4	8488.15
903.8356	1671.642	9320.3	8440.9
903.9773	1673.3761	9233.75	8357.15
904.119	1675.1094	9189.55	8312.75
904.2606	1676.8419	9154.35	8278.35
904.4022	1678.5737	9075.3	8197.75
904.5439	1680.3048	9030.25	8153.8
904.6855	1682.0351	8996.7	8119.2
904.827	1683.7646	8977.15	8099.35
904.9686	1685.4934	8942.6	8069.25
905.1101	1687.2215	8884.85	8008.1
905.2517	1688.9488	8832.3	7955.95
905.3932	1690.6754	8781.8	7905.45
905.5347	1692.4012	8762.7	7883.75
905.6761	1694.1263	8721.45	7843.8
905.8176	1695.8506	8706.35	7827.8
905.9591	1697.5742	8671.2	7794.25
906.1005	1699.297	8659.35	7783.05
906.2419	1701.0191	8606.75	7730.75
906.3833	1702.7404	8590.45	7713
906.5246	1704.461	8544.85	7667.4
906.666	1706.1808	8522	7644.5
906.8073	1707.8999	8484.95	7607.65
906.9487	1709.6182	8449.9	7573.15
907.09	1711.3358	8420.05	7544.5
907.2313	1713.0527	8404.5	7529.1
907.3725	1714.7688	8379.55	7498.7
907.5138	1716.4841	8332.6	7454.25
907.655	1718.1987	8371.65	7489.5
907.7962	1719.9126	8302.4	7428.35
907.9374	1721.6257	8283.75	7403.9
908.0786	1723.338	8263.55	7387.25
908.2198	1725.0496	8234.45	7357.3
908.3609	1726.7605	8246.35	7369
908.502	1728.4706	8222.5	7344.7
908.6431	1730.18	8155.35	7277.25
908.7842	1731.8886	8163.55	7287.2
908.9253	1733.5964	8157.95	7260.3
909.0664	1735.3036	8133.35	7254.5
909.2074	1737.0099	8133.55	7259.25
909.3484	1738.7156	8127.25	7251.85
909.4894	1740.4204	8099.55	7219.85
909.6304	1742.1246	8082.55	7205.95
909.7714	1743.8279	8055.65	7178.75
909.9123	1745.5306	8065.5	7188.05
910.0532	1747.2325	8028.65	7152.6
910.1941	1748.9336	8003.75	7128
910.335	1750.634	7965.65	7087.85
910.4759	1752.3336	7990	7113.75
910.6168	1754.0325	7961.75	7086.65
910.7576	1755.7307	7945.7	7068
910.8984	1757.4281	7960.45	7083.5
911.0392	1759.1247	7930.95	7042.65
911.18	1760.8206	7933.35	7053.25
911.3208	1762.5158	7927.9	7046.8
911.4615	1764.2102	7870.8	6995.4
911.6022	1765.9039	7858.3	6981.1
911.7429	1767.5968	7858.15	6983.05
911.8836	1769.289	7843.15	6966.95
912.0243	1770.9804	7816.35	6938.15
912.1649	1772.6711	7807.65	6931.05
912.3056	1774.361	7777.85	6900.75
912.4462	1776.0502	7768.3	6890.75
912.5868	1777.7386	7765.95	6887.35
912.7274	1779.4263	7719.95	6842.55
912.8679	1781.1132	7732.65	6854.3
913.0084	1782.7994	7693.35	6815.5
913.149	1784.4849	7684.2	6807.1
913.2895	1786.1696	7672.35	6777.1
913.4299	1787.8535	7675.4	6800.25
913.5704	1789.5367	7655.9	6780
913.7108	1791.2192	7638.35	6761.95
913.8513	1792.9009	7601.95	6706.4
913.9917	1794.5818	7583.5	6707.05
914.132	1796.2621	7548.75	6673.7
914.2724	1797.9415	7529.5	6653.25
914.4128	1799.6202	7540.65	6663.9
914.5531	1801.2982	7528.1	6651.25
914.6934	1802.9755	7497.6	6619.55
914.8337	1804.6519	7481.6	6606.45
914.9739	1806.3277	7463.65	6587.1
915.1142	1808.0027	7423.8	6546.2
915.2544	1809.6769	7440.55	6565.8
915.3946	1811.3504	7423.55	6545.9
915.5348	1813.0231	7397.25	6520.1
915.675	1814.6951	7399.5	6524.55
915.8151	1816.3664	7376.7	6497.65
915.9553	1818.0369	7369.15	6490.05
916.0954	1819.7067	7329.95	6452.85
916.2355	1821.3757	7333.1	6454.25
916.3755	1823.044	7324.55	6448.05
916.5156	1824.7115	7305.85	6428.4
916.6556	1826.3783	7298.75	6423.75
916.7956	1828.0443	7262.8	6387.4
916.9356	1829.7096	7257.55	6381.05
917.0756	1831.3741	7248.35	6369.9
917.2155	1833.0379	7214.65	6337.55
917.3555	1834.701	7199.85	6322.1
917.4954	1836.3633	7186.6	6311.05
917.6353	1838.0248	7172.75	6293.6
917.7751	1839.6856	7160.7	6284.6
917.915	1841.3457	7153	6280.6
918.0548	1843.005	7145.3	6267.55
918.1946	1844.6636	7123.7	6248
918.3344	1846.3214	7112.6	6233.6
918.4742	1847.9785	7103.95	6228.25
918.6139	1849.6349	7094.35	6216.55
918.7537	1851.2904	7095.9	6209.85
918.8934	1852.9453	7060.6	6182.6
919.0331	1854.5994	7025.5	6145.3
919.1727	1856.2528	7044.45	6163
919.3124	1857.9054	7022.95	6145.75
919.452	1859.5572	7025.6	6147.85
919.5916	1861.2083	6998.85	6122.5
919.7312	1862.8587	6998.8	6122.5
919.8708	1864.5084	6972.8	6094.35
920.0103	1866.1572	6957.4	6081.15
920.1498	1867.8054	6930.05	6053.8
920.2893	1869.4528	6910.25	6035.5
920.4288	1871.0994	6908.35	6031.6
920.5683	1872.7453	6904	6027.2
920.7077	1874.3905	6882.85	5996.15
920.8471	1876.0349	6844.95	5967.4
920.9865	1877.6786	6859.3	5981.15
921.1259	1879.3215	6848.85	5973.15
921.2653	1880.9637	6819.9	5942.7
921.4046	1882.6051	6818.3	5942.15
921.5439	1884.2458	6804.9	5926
921.6832	1885.8858	6778.3	5899.9
921.8225	1887.525	6788.35	5912.15
921.9617	1889.1634	6740.4	5864.45
922.101	1890.8011	6724.3	5848
922.2402	1892.4381	6725.95	5848.45
922.3794	1894.0743	6729.2	5855.25
922.5185	1895.7098	6700.65	5824.9
922.6577	1897.3446	6681.2	5802
922.7968	1898.9786	6676.6	5797.8
922.9359	1900.6118	6662	5784.15
923.075	1902.2443	6639.45	5759
923.214	1903.8761	6609.75	5732.3
923.3531	1905.5071	6597.4	5721
923.4921	1907.1374	6590.7	5714.3
923.6311	1908.7669	6568.85	5692.1
923.77	1910.3957	6549.95	5673.2
923.909	1912.0237	6514.45	5637
924.0479	1913.651	6504.95	5626.5
924.1868	1915.2776	6504.85	5629.1
924.3257	1916.9034	6474.85	5599.9
924.4646	1918.5285	6433.35	5558.25
924.6034	1920.1528	6422.65	5545.9
924.7422	1921.7764	6427.95	5552.8
924.881	1923.3992	6404.05	5527.8
925.0198	1925.0213	6368.2	5489.6
925.1586	1926.6427	6356.55	5482.05
925.2973	1928.2633	6512.6	5430.65
925.436	1929.8832	6363.4	5486.15
925.5747	1931.5023	6303.25	5426.3
925.7134	1933.1207	6286.1	5408.35
925.852	1934.7383	6300.85	5423.45
925.9906	1936.3552	6284.2	5408.9
926.1292	1937.9714	6237.95	5360.15
926.2678	1939.5868	6219.35	5341.95
926.4064	1941.2015	6208.3	5330.95
926.5449	1942.8154	6194.85	5318.3
926.6834	1944.4286	6175.65	5298.25
926.8219	1946.041	6165.9	5266.45
926.9604	1947.6528	6127.6	5246.3
927.0988	1949.2637	6124.7	5247
927.2372	1950.8739	6110.75	5232
927.3756	1952.4834	6091.5	5214.5
927.514	1954.0921	6088.6	5212.25
927.6523	1955.7001	6066.7	5186.1
927.7907	1957.3074	6047.75	5173.25
927.929	1958.9139	6015.45	5137.8
928.0673	1960.5197	6016.1	5138.95
928.2055	1962.1247	6000.4	5122.65
928.3438	1963.729	5979	5103.35
928.482	1965.3325	5951.8	5050.9
928.6202	1966.9353	5938.55	5061.25
928.7584	1968.5374	5932	5053.65
928.8965	1970.1387	5908.15	5030.4
929.0346	1971.7393	5895.45	5017.6
929.1727	1973.3392	5885.7	5007.85
929.3108	1974.9383	5851.95	4974.3
929.4489	1976.5366	5825.3	4949.95
929.5869	1978.1342	5815.55	4939.3
929.7249	1979.7311	5818.9	4940.3
929.8629	1981.3273	5828.9	4952.3
930.0009	1982.9227	5797.3	4917.1
930.1388	1984.5173	5777.9	4903.55
930.2767	1986.1112	5784.15	4908
930.4146	1987.7044	5758.05	4882.35
930.5525	1989.2968	5726.2	4849.8
930.6904	1990.8885	5739.15	4859.1
930.8282	1992.4795	5715.2	4835.8
930.966	1994.0697	5710	4833.4
931.1038	1995.6592	5695.7	4819.55
931.2415	1997.2479	5674.65	4796.8
931.3793	1998.8359	5664.35	4789.4
931.517	2000.4232	5648.05	4773.35
931.6547	2002.0097	5639.65	4764.45
931.7923	2003.5955	5618.6	4742.05
931.93	2005.1805	5626.35	4750
932.0676	2006.7648	5605.15	4729.2
932.2052	2008.3484	5600.95	4725.85
932.3427	2009.9312	5605.75	4727.05
932.4803	2011.5133	5568	4693.75
932.6178	2013.0946	5550.65	4675.45
932.7553	2014.6752	5545.05	4669.7
932.8928	2016.2551	5552.15	4677.4
933.0302	2017.8342	5519.2	4640.95
933.1676	2019.4126	5501.25	4624.9
933.305	2020.9902	5490.45	4615.4
933.4424	2022.5672	5498.2	4622.2
933.5798	2024.1433	5479.85	4598.15
933.7171	2025.7188	5458.35	4583.75
933.8544	2027.2935	5447.25	4570.95
933.9917	2028.8674	5421.75	4547.5
934.129	2030.4406	5409.6	4534.55
934.2662	2032.0131	5387.7	4512.1
934.4034	2033.5849	5395.85	4514.55
934.5406	2035.1559	5396.4	4519.55
934.6778	2036.7261	5373.35	4498.45
934.8149	2038.2957	5366.5	4489.4
934.952	2039.8645	5367.9	4490.9
935.0891	2041.4325	5360.05	4480.25
935.2262	2042.9998	5326.75	4452.4
935.3632	2044.5664	5336.95	4459.9
935.5002	2046.1323	5330	4455.95
935.6372	2047.6974	5321.05	4444.6
935.7742	2049.2617	5310.8	4436.65
935.9111	2050.8254	5322.1	4424.25
936.048	2052.3883	5306.15	4427.9
936.1849	2053.9504	5291.6	4415.1
936.3218	2055.5118	5259.55	4381.55
936.4586	2057.0725	5240.8	4360.4
936.5955	2058.6325	5244.2	4367.05
936.7323	2060.1917	5233.15	4358.6
936.869	2061.7502	5216.4	4337.55
937.0058	2063.3079	5216.65	4341.25
937.1425	2064.8649	5211.65	4333.9
937.2792	2066.4212	5191.45	4316.5
937.4159	2067.9767	5187.3	4313.2
937.5525	2069.5315	5168.45	4293.6
937.6891	2071.0856	5147.9	4272.1
937.8257	2072.6389	5150.35	4273.9
937.9623	2074.1915	5118.15	4243.85
938.0989	2075.7433	5118.55	4240.5
938.2354	2077.2945	5091.5	4218.15
938.3719	2078.8448	5093.55	4217.3
938.5084	2080.3945	5085	4209.15
938.6448	2081.9434	5072.35	4196
938.7812	2083.4916	5064.85	4188.45
938.9176	2085.039	5057.3	4179.55
939.054	2086.5857	5060.6	4185.25
939.1903	2088.1317	5046.25	4168.55
939.3267	2089.677	5025.85	4146.45
939.463	2091.2215	5019.1	4143.95
939.5992	2092.7652	5008.3	4131.85
939.7355	2094.3083	5013.9	4137.75
939.8717	2095.8506	4991.1	4116.7
940.0079	2097.3921	4994.25	4120.5
940.1441	2098.933	4989.35	4113
940.2802	2100.4731	4965	4088.2
940.4163	2102.0124	4982.9	4088.4
940.5524	2103.5511	4978.55	4102.2
940.6885	2105.089	4945.95	4068.7
940.8245	2106.6261	4953.6	4075.7
940.9606	2108.1626	4934.55	4057.65
941.0965	2109.6983	4946	4041.75
941.2325	2111.2332	4919.5	4041.4
941.3684	2112.7675	4938.3	4059.5
941.5044	2114.301	4897.65	4019.25
941.6403	2115.8337	4908.5	4032.75
941.7761	2117.3657	4890.4	4013.85
941.912	2118.897	4897.95	4020.2
942.0478	2120.4276	4881.15	3997.85
942.1835	2121.9575	4855	3980
942.3193	2123.4866	4850.9	3972.4
942.455	2125.0149	4850.25	3970.45
942.5907	2126.5426	4835.3	3959.85
942.7264	2128.0695	4815.15	3934.5
942.8621	2129.5956	4811.1	3935.8
942.9977	2131.1211	4819.75	3937.6
943.1333	2132.6458	4794.3	3919.1
943.2689	2134.1698	4791.4	3913.05
943.4044	2135.693	4781.75	3902.9
943.54	2137.2155	4768.2	3891.25
943.6755	2138.7373	4764.6	3887.45
943.8109	2140.2584	4757.35	3883.05
943.9464	2141.7787	4756.3	3875.55
944.0818	2143.2983	4746.75	3871.1
944.2172	2144.8171	4712.25	3836.25
944.3526	2146.3353	4723.2	3846.7
944.4879	2147.8527	4683.15	3809.45
944.6232	2149.3693	4676.2	3800.1
944.7585	2150.8853	4667.05	3789.65
944.8938	2152.4005	4654.3	3777.35
945.029	2153.9149	4636.85	3759.3
945.1642	2155.4287	4636.75	3761.25
945.2994	2156.9417	4647.1	3770
945.4346	2158.454	4625.45	3747.85
945.5697	2159.9655	4615.15	3740.4
945.7048	2161.4764	4609.4	3734.1
945.8399	2162.9865	4606.85	3730.25
945.9749	2164.4958	4578.5	3698.45
946.1099	2166.0045	4568.95	3688.2
946.2449	2167.5124	4574.05	3699.55
946.3799	2169.0195	4569.85	3692.35
946.5148	2170.526	4565.2	3688.55
946.6498	2172.0317	4545.1	3669.95
946.7846	2173.5367	4543.05	3665.85
946.9195	2175.0409	4523.75	3649.7
947.0543	2176.5445	4534.05	3658.05
947.1891	2178.0473	4507.7	3630.5
947.3239	2179.5494	4485.65	3608.1
947.4587	2181.0507	4489.95	3613.25
947.5934	2182.5513	4465.95	3590.25
947.7281	2184.0512	4454.2	3579.1
947.8628	2185.5504	4439.9	3563.05
947.9974	2187.0488	4429.7	3553.65
948.132	2188.5465	4418.45	3542.5
948.2666	2190.0435	4402.8	3525.65
948.4012	2191.5397	4406.05	3531.6
948.5357	2193.0353	4391.95	3515
948.6702	2194.5301	4388.65	3512.2
948.8047	2196.0241	4382.25	3505.3
948.9392	2197.5175	4345.75	3470.35
949.0736	2199.0101	4344.35	3464.5
949.208	2200.502	4317.65	3441.8
949.3424	2201.9931	4321.5	3445.2
949.4767	2203.4835	4313.2	3436.1
949.611	2204.9733	4315.95	3434.7
949.7453	2206.4622	4296.85	3422
949.8796	2207.9505	4281.55	3402.65
950.0138	2209.438	4271.9	3396.5
950.148	2210.9248	4270.95	3393.5
950.2822	2212.4109	4260.35	3382.75
950.4164	2213.8962	4230.6	3350.35
950.5505	2215.3809	4229.05	3352.15
950.6846	2216.8648	4214.95	3339.15
950.8186	2218.3479	4211.4	3329.65
950.9527	2219.8304	4212	3332.7
951.0867	2221.3121	4180	3300.9
951.2207	2222.7931	4173.6	3298.45
951.3546	2224.2733	4152.2	3274.8
951.4886	2225.7529	4161.15	3285.1
951.6225	2227.2317	4133.35	3254.3
951.7563	2228.7098	4147	3271.7
951.8902	2230.1872	4118.35	3243.85
952.024	2231.6638	4126.15	3249.8
952.1578	2233.1397	4088.75	3206.55
952.2916	2234.6149	4082.8	3205.4
952.4253	2236.0894	4086.95	3209
952.559	2237.5632	4082.4	3197.6
952.6927	2239.0362	4058.8	3181.65
952.8263	2240.5085	4046.4	3171.2
952.9599	2241.9801	4057.25	3181.75
953.0935	2243.4509	4032.45	3158.3
953.2271	2244.921	4003.15	3127.4
953.3606	2246.3904	4018.4	3139.85
953.4941	2247.8591	4006.05	3132.2
953.6276	2249.3271	3991.75	3114.7
953.7611	2250.7943	3991.9	3116
953.8945	2252.2608	3969.35	3093.2
954.0279	2253.7266	3952.65	3076.8
954.1612	2255.1917	3952.2	3076.45
954.2946	2256.656	3950.5	3075.15
954.4279	2258.1197	3930.05	3054.15
954.5612	2259.5826	3921.5	3043.6
954.6944	2261.0447	3908.75	3031.35
954.8276	2262.5062	3894	3014.75
954.9608	2263.9669	3901.75	3024.6
955.094	2265.4269	3897.75	3021.2
955.2271	2266.8862	3874.7	3000.55
955.3602	2268.3448	3875.5	2998.6
955.4933	2269.8026	3866.2	2990.3
955.6264	2271.2598	3862.2	2985.95
955.7594	2272.7162	3842.4	2966.25
955.8924	2274.1719	3842.5	2967.3
956.0253	2275.6268	3844.45	2967.85
956.1583	2277.0811	3827.85	2952.5
956.2912	2278.5346	3816.75	2940.65
956.4241	2279.9874	3808.05	2932.25
956.5569	2281.4395	3797.9	2923.2
956.6897	2282.8908	3792.6	2911.5
956.8225	2284.3414	3789.9	2912.65
956.9553	2285.7914	3766.75	2891.8
957.088	2287.2406	3760.25	2882.1
957.2207	2288.689	3773.7	2900.45
957.3534	2290.1368	3741.6	2862.9
957.486	2291.5838	3740.85	2862.45
957.6186	2293.0302	3737.05	2859.2
957.7512	2294.4758	3725.9	2848.2
957.8838	2295.9206	3723.85	2846.05
958.0163	2297.3648	3707.85	2830.1
958.1488	2298.8082	3691.4	2812.9
958.2813	2300.251	3685.4	2811.05
958.4137	2301.693	3669.1	2792.65
958.5461	2303.1343	3663.2	2786.5
958.6785	2304.5748	3657.9	2780.7
958.8108	2306.0147	3646.65	2767.7
958.9432	2307.4538	3648.8	2771.75
959.0754	2308.8922	3637.9	2762
959.2077	2310.3299	3628.1	2751.6
959.3399	2311.7669	3625.3	2750.45
959.4721	2313.2031	3614.05	2738.8
959.6043	2314.6387	3600.15	2724.6
959.7365	2316.0735	3588.1	2712.45
959.8686	2317.5076	3584.3	2707.2
960.0006	2318.941	3570.7	2693.8
960.1327	2320.3737	3569.7	2692.15
960.2647	2321.8056	3580.15	2701.7
960.3967	2323.2369	3552.1	2675.65
960.5287	2324.6674	3537.85	2660.75
960.6606	2326.0972	3538.7	2661.85
960.7925	2327.5263	3525.45	2649.75
960.9244	2328.9547	3521.25	2644
961.0562	2330.3823	3512.7	2636.3
961.1881	2331.8092	3513.55	2634.8
961.3198	2333.2355	3482.6	2606.9
961.4516	2334.661	3483.2	2604.35
961.5833	2336.0858	3485.3	2606.05
961.715	2337.5098	3476.5	2598.65
961.8467	2338.9332	3469.35	2591.85
961.9783	2340.3558	3458.6	2578.15
962.1099	2341.7778	3444.7	2566.9
962.2415	2343.199	3442.9	2565.45
962.373	2344.6195	3424.15	2548.85
962.5045	2346.0393	3431.8	2555.55
962.636	2347.4583	3431.1	2553
962.7675	2348.8767	3413.2	2534.95
962.8989	2350.2943	3411.85	2535.35
963.0303	2351.7113	3396.8	2518.1
963.1617	2353.1275	3369.75	2494.05
963.293	2354.543	3390.1	2506.4
963.4243	2355.9578	3368.3	2494.35
963.5556	2357.3718	3341.3	2463.9
963.6868	2358.7852	3345.05	2465.25
963.818	2360.1978	3340.65	2463.3
963.9492	2361.6098	3328.5	2454.2
964.0803	2363.021	3328.25	2449.05
964.2114	2364.4315	3316	2439.95
964.3425	2365.8413	3314.25	2430.45
964.4736	2367.2504	3300.1	2422.9
964.6046	2368.6587	3292.1	2415.35
964.7356	2370.0664	3278.6	2403.15
964.8666	2371.4733	3260.35	2384
964.9975	2372.8795	3255.7	2379.55
965.1284	2374.285	3250.6	2371.75
965.2593	2375.6899	3235.7	2361.7
965.3901	2377.0939	3220.4	2343.65
965.5209	2378.4973	3213.2	2335.35
965.6517	2379.9	3206.6	2329.45
965.7825	2381.3019	3189.95	2312.6
965.9132	2382.7032	3202.25	2323.8
966.0439	2384.1037	3195.55	2320.15
966.1745	2385.5035	3174.5	2297.25
966.3051	2386.9027	3166.9	2291.05
966.4357	2388.3011	3162.5	2282.2
966.5663	2389.6987	3166.55	2291.75
966.6968	2391.0957	3154	2277.55
966.8273	2392.492	3131.75	2255.2
966.9578	2393.8876	3122.15	2245.15
967.0882	2395.2824	3113.75	2237.05
967.2186	2396.6765	3102.65	2226.75
967.349	2398.07	3085.45	2206.55
967.4793	2399.4627	3094.15	2216.25
967.6097	2400.8547	3082.85	2204.4
967.7399	2402.246	3076.65	2195.4
967.8702	2403.6366	3053.4	2176.35
968.0004	2405.0265	3045.35	2169
968.1306	2406.4156	3047.95	2167.05
968.2607	2407.8041	3032.85	2151.9
968.3909	2409.1918	3037.5	2157.2
968.521	2410.5789	3024.05	2146.4
968.651	2411.9652	3003.7	2122.5
968.781	2413.3508	3009	2133.6
968.911	2414.7358	2982.65	2104
969.041	2416.12	2985.15	2109.35
969.1709	2417.5035	2982.65	2105.85
969.3008	2418.8863	2957.95	2079.2
969.4307	2420.2684	2972	2093.9
969.5606	2421.6497	2952.95	2074.65
969.6904	2423.0304	2936.7	2060.9
969.8201	2424.4104	2924.75	2046.4
969.9499	2425.7896	2920.75	2043.55
970.0796	2427.1682	2917.1	2042.15
970.2093	2428.546	2915.75	2037.6
970.3389	2429.9232	2912.15	2035.95
970.4685	2431.2996	2908.15	2031.1
970.5981	2432.6753	2897.35	2020.7
970.7277	2434.0503	2880.3	2002
970.8572	2435.4246	2885.75	2008.3
970.9867	2436.7982	2881.9	2001.05
971.1161	2438.1711	2870.7	1995.15
971.2456	2439.5433	2868.75	1990.75
971.375	2440.9148	2855.9	1973.45
971.5043	2442.2856	2838	1962.9
971.6336	2443.6557	2832.95	1956.95
971.7629	2445.025	2839.2	1964.2
971.8922	2446.3937	2820.55	1942.7
972.0214	2447.7617	2815.75	1936.9
972.1506	2449.1289	2825.8	1950.25
972.2798	2450.4955	2819.15	1937.4
972.4089	2451.8613	2791.8	1915.8
972.538	2453.2265	2803.85	1925.55
972.6671	2454.5909	2778.55	1901.4
972.7961	2455.9546	2792.05	1916.05
972.9251	2457.3177	2770.35	1894.75
973.0541	2458.68	2772.85	1894.2
973.1831	2460.0416	2789.35	1912.65
973.312	2461.4025	2771.45	1893.65
973.4408	2462.7627	2773.25	1885.5
973.5697	2464.1222	2747.9	1872.75
973.6985	2465.4811	2739.5	1861.65
973.8273	2466.8392	2731.9	1855.15
973.956	2468.1966	2736.5	1857.6
974.0847	2469.5533	2734.5	1855.15
974.2134	2470.9093	2734.15	1855.05
974.3421	2472.2645	2722.4	1843.95
974.4707	2473.6191	2717.8	1840.6
974.5993	2474.973	2706.85	1830.95
974.7278	2476.3262	2697.35	1818.1
974.8563	2477.6787	2694.5	1818.65
974.9848	2479.0305	2682.45	1805.4
975.1132	2480.3816	2675.55	1797.65
975.2417	2481.7319	2673.05	1797.05
975.37	2483.0816	2660.05	1780.2
975.4984	2484.4306	2659.65	1781.85
975.6267	2485.7789	2649.85	1774.15
975.755	2487.1264	2636.3	1757.2
975.8833	2488.4733	2625.55	1748.95
976.0115	2489.8195	2629.65	1747.35
976.1397	2491.165	2617.15	1737.1
976.2678	2492.5097	2616.3	1738.8
976.3959	2493.8538	2613.1	1736.65
976.524	2495.1972	2602.1	1724.35
976.6521	2496.5398	2598.65	1722.1
976.7801	2497.8818	2591.4	1712.75
976.9081	2499.2231	2577.5	1700.5
977.036	2500.5637	2580.75	1702.25
977.164	2501.9035	2564.15	1685.4
977.2918	2503.2427	2565.05	1684.1
977.4197	2504.5812	2551.6	1673.4
977.5475	2505.919	2556.1	1675.8
977.6753	2507.256	2548.35	1670.15
977.8031	2508.5924	2538.95	1661
977.9308	2509.9281	2530.1	1647.6
978.0585	2511.2631	2520.45	1646.35
978.1861	2512.5974	2517.9	1640.7
978.3137	2513.9309	2515.2	1638.05
978.4413	2515.2638	2523.15	1620.05
978.5689	2516.596	2497.9	1623.95
978.6964	2517.9275	2487.65	1610.45
978.8239	2519.2583	2499.35	1621.1
978.9513	2520.5884	2486.8	1607.15
979.0788	2521.9178	2482.8	1605.8
979.2062	2523.2465	2467.3	1591.75
979.3335	2524.5745	2460.1	1582.25
979.4608	2525.9018	2461.6	1585.65
979.5881	2527.2284	2445.2	1570.6
979.7154	2528.5543	2448.8	1573.6
979.8426	2529.8796	2440.75	1562.95
979.9698	2531.2041	2438.35	1562.15
980.0969	2532.5279	2442.45	1566.35
980.224	2533.851	2420.2	1541.8
980.3511	2535.1735	2422.3	1545.5
980.4781	2536.4952	2429.7	1551.45
980.6052	2537.8163	2416.6	1537.6
980.7321	2539.1366	2403.6	1525.15
980.8591	2540.4562	2408.55	1530
980.986	2541.7752	2397.75	1518.75
981.1129	2543.0935	2398.45	1521
981.2397	2544.411	2388.15	1510.3
981.3665	2545.7279	2393.9	1516.4
981.4933	2547.0441	2375.4	1498.45
981.62	2548.3596	2389.25	1509.35
981.7467	2549.6744	2373.05	1496
981.8734	2550.9885	2373.05	1488.1
982.0001	2552.3019	2365.7	1488.85
982.1267	2553.6146	2366.75	1490.05
982.2532	2554.9266	2357.8	1482.1
982.3798	2556.2379	2356.15	1476.8
982.5063	2557.5485	2349.55	1474.6
982.6327	2558.8585	2345.95	1461.55
982.7592	2560.1677	2347.75	1467.75
982.8856	2561.4762	2338.05	1459.75
983.0119	2562.7841	2340.25	1459.95
983.1383	2564.0913	2329.05	1454.75
983.2646	2565.3977	2332.1	1455.35
983.3908	2566.7035	2320.9	1441.85
983.517	2568.0086	2318.75	1440.7
983.6432	2569.313	2319.6	1443.4
983.7694	2570.6167	2321.95	1442.2
983.8955	2571.9197	2316.85	1440.3
984.0216	2573.222	2310.35	1431.6
984.1476	2574.5236	2312.15	1435.65
984.2737	2575.8246	2301.25	1421.7
984.3996	2577.1248	2287.8	1409.45
984.5256	2578.4244	2285.35	1408.3
984.6515	2579.7232	2279.45	1402.05
984.7774	2581.0214	2309.6	1409.75
984.9032	2582.3189	2278.9	1402.25
985.029	2583.6157	2284.2	1401.85
985.1548	2584.9118	2278.25	1401.1
985.2806	2586.2072	2271.2	1394.3
985.4063	2587.5019	2259.8	1383.85
985.5319	2588.7959	2261.85	1384.55
985.6576	2590.0893	2263.95	1388.2
985.7832	2591.3819	2239	1363.45
985.9087	2592.6739	2240.45	1364.5
986.0343	2593.9652	2245.35	1368.45
986.1597	2595.2557	2226.6	1350.75
986.2852	2596.5456	2240	1360.85
986.4106	2597.8348	2227.05	1351.85
986.536	2599.1234	2226.15	1348.55
986.6614	2600.4112	2215.85	1340.75
986.7867	2601.6983	2210.95	1329.55
986.912	2602.9848	2204.9	1327.9
987.0372	2604.2705	2195.45	1313.5
987.1624	2605.5556	2194.1	1317.05
987.2876	2606.84	2182.4	1306.25
987.4128	2608.1237	2173.35	1295.25
987.5379	2609.4067	2165.55	1289.2
987.6629	2610.689	2178.4	1292.05
987.788	2611.9707	2161.55	1282.55
987.913	2613.2516	2158.7	1278.4
988.0379	2614.5319	2147.85	1270.05
988.1629	2615.8115	2147.7	1269.1
988.2878	2617.0903	2137.15	1258.35
988.4126	2618.3685	2134.4	1256.8
988.5375	2619.6461	2124.85	1246.65
988.6622	2620.9229	2122.1	1247.4
988.787	2622.199	2117.55	1240.85
988.9117	2623.4745	2121.05	1245.65
989.0364	2624.7493	2104	1227.6
989.161	2626.0234	2100.25	1226.65
989.2857	2627.2968	2101.55	1225.25
989.4102	2628.5695	2102	1223.85
989.5348	2629.8415	2090.05	1213.3
989.6593	2631.1128	2084.9	1206.65
989.7837	2632.3835	2085.15	1207.35
989.9082	2633.6535	2064.1	1188.1
990.0326	2634.9228	2060.75	1184.8
990.1569	2636.1914	2070.35	1193.95
990.2812	2637.4593	2069.4	1186.1
990.4055	2638.7265	2050.55	1175.95
990.5298	2639.9931	2043.4	1165.8
990.654	2641.259	2049.35	1170.15
990.7782	2642.5242	2038.25	1161.6
990.9023	2643.7887	2033.65	1153.95
991.0264	2645.0525	2035.85	1158.75
991.1505	2646.3156	2034.7	1157.5
991.2745	2647.5781	2016.45	1138.35
991.3985	2648.8398	2015.65	1140.05
991.5225	2650.1009	2027.25	1141.25
991.6464	2651.3613	2012.85	1136.25
991.7703	2652.6211	2010.9	1134.3
991.8942	2653.8801	1998.1	1121.6
992.018	2655.1385	2009.45	1130.85
992.1418	2656.3961	1995.75	1119.3
992.2655	2657.6531	1996.95	1120.65
992.3892	2658.9094	1982.15	1105.35
992.5129	2660.1651	1979.3	1106
992.6366	2661.42	1977.6	1101.8
992.7602	2662.6743	1981.05	1102.5
992.8837	2663.9279	1980.8	1104.8
993.0073	2665.1808	1972.2	1094.3
993.1307	2666.433	1969.6	1092
993.2542	2667.6846	1956.35	1079.85
993.3776	2668.9354	1957.2	1076.5
993.501	2670.1856	1957.6	1080.05
993.6244	2671.4351	1947.45	1071.25
993.7477	2672.6839	1954.75	1078.1
993.8709	2673.9321	1939.25	1062
993.9942	2675.1795	1943.7	1065.75
994.1174	2676.4263	1943.55	1067.2
994.2405	2677.6724	1940.2	1065.15
994.3637	2678.9179	1926.8	1049.85
994.4868	2680.1626	1929.15	1053.65
994.6098	2681.4067	1922.55	1045
994.7328	2682.6501	1914	1037.1
994.8558	2683.8928	1909.4	1032.95
994.9788	2685.1348	1900.8	1025.65
995.1017	2686.3761	1904	1026.75
995.2245	2687.6168	1895.95	1020.75
995.3474	2688.8568	1899.95	1023.7
995.4702	2690.0961	1896.35	1020.6
995.5929	2691.3348	1885.4	1009.3
995.7156	2692.5727	1882.1	1004.8
995.8383	2693.81	1892.75	1016.6
995.961	2695.0466	1880.9	1004.7
996.0836	2696.2826	1879.6	1002.7
996.2062	2697.5178	1891.85	994.35
996.3287	2698.7524	1872.3	997.55
996.4512	2699.9863	1865.7	987.5
996.5737	2701.2195	1851.25	975.35
996.6961	2702.452	1854.45	976.6
996.8185	2703.6839	1850.55	973.3
996.9408	2704.9151	1851.85	976.95
997.0631	2706.1456	1852.65	974.6
997.1854	2707.3755	1847	970.05
997.3077	2708.6046	1841.25	963.5
997.4299	2709.8331	1834.25	958.2
997.552	2711.0609	1826.45	948.35
997.6742	2712.2881	1826.9	951.7
997.7963	2713.5145	1815.3	936.45
997.9183	2714.7403	1823.35	948.95
998.0403	2715.9654	1814.7	937.2
998.1623	2717.1899	1837.55	945
998.2842	2718.4136	1810.1	935.7
998.4062	2719.6367	1804.65	927.55
998.528	2720.8591	1804.25	922.65
998.6498	2722.0809	1793.3	916.55
998.7716	2723.3019	1797.7	917.75
998.8934	2724.5223	1802.65	923.95
999.0151	2725.7421	1799.9	922.15
999.1368	2726.9611	1793.8	914.95
999.2584	2728.1795	1778.05	897.95
999.38	2729.3972	1774.7	897.45
999.5016	2730.6142	1781.3	891.2
999.6231	2731.8306	1770.45	894.25
999.7446	2733.0462	1765.3	885.8
999.8661	2734.2612	1771.15	890.3
999.9875	2735.4756	1746.45	867.35
1000.1089	2736.6892	1745.7	868.8
1000.2302	2737.9022	1734.5	858.15
1000.3515	2739.1145	1737.65	859.6
1000.4728	2740.3262	1742.65	859.55
1000.594	2741.5372	1723	848.4
1000.7152	2742.7475	1726.2	848.4
1000.8363	2743.9571	1729.1	853.5
1000.9575	2745.1661	1723.95	841.75
1001.0785	2746.3744	1714.65	838.95
1001.1996	2747.582	1710.75	833.9
1001.3206	2748.7889	1713.1	836.4
1001.4415	2749.9952	1711.15	835.15
1001.5625	2751.2008	1711.45	834.5
1001.6833	2752.4057	1706.75	828.25
1001.8042	2753.61	1700.6	824.85
1001.925	2754.8136	1693.3	815.2
1002.0458	2756.0165	1691.1	814.4
1002.1665	2757.2188	1690.8	818
1002.2872	2758.4204	1680.65	804.3
1002.4078	2759.6213	1679.85	800.35
1002.5285	2760.8215	1678.95	799.6
1002.649	2762.0211	1675.5	796.65
1002.7696	2763.22	1670.35	788.4
1002.8901	2764.4182	1672.65	794.95
1003.0106	2765.6158	1663.25	786.2
1003.131	2766.8127	1661.8	784.35
1003.2514	2768.009	1661.35	785
1003.3717	2769.2045	1654.05	776.25
1003.492	2770.3994	1651.05	773.15
1003.6123	2771.5936	1643.45	767.05
1003.7325	2772.7872	1646.05	771
1003.8527	2773.9801	1642.7	765.65
1003.9729	2775.1723	1646.25	753.2
1004.093	2776.3639	1632.45	757.5
1004.2131	2777.5548	1633.55	756.25
1004.3331	2778.745	1635.1	758.55
1004.4531	2779.9346	1633.95	758.7
1004.5731	2781.1235	1630.05	752.45
1004.693	2782.3117	1622	747.25
1004.8129	2783.4992	1613.25	736.55
1004.9328	2784.6861	1618.5	741.5
1005.0526	2785.8723	1610.5	733.15
1005.1723	2787.0579	1606.85	727.05
1005.2921	2788.2428	1606.65	729.55
1005.4118	2789.427	1597.55	722
1005.5314	2790.6106	1600.75	724.5
1005.651	2791.7935	1595.6	719.55
1005.7706	2792.9757	1596.1	719.25
1005.8902	2794.1573	1591.5	714.2
1006.0097	2795.3382	1580.9	701.85
1006.1291	2796.5184	1584.5	708.25
1006.2485	2797.698	1593.45	715.3
1006.3679	2798.8769	1574.7	699.55
1006.4873	2800.0551	1578.8	700.75
1006.6066	2801.2327	1573.35	693.6
1006.7258	2802.4096	1560.55	685.75
1006.8451	2803.5859	1565.4	687.9
1006.9642	2804.7615	1566	687.75
1007.0834	2805.9364	1565	689.45
1007.2025	2807.1106	1559.55	681.7
1007.3216	2808.2842	1553.55	677.55
1007.4406	2809.4572	1554.1	678.85
1007.5596	2810.6294	1555.2	677.55
1007.6785	2811.801	1554.7	680.7
1007.7975	2812.972	1552.7	676.75
1007.9163	2814.1423	1558.25	682.25
1008.0352	2815.3119	1551.5	674.25
1008.154	2816.4808	1554.25	677.45
1008.2727	2817.6491	1553.6	677.25
1008.3914	2818.8167	1548.75	673.2
1008.5101	2819.9837	1563.85	683.2
1008.6288	2821.15	1559.3	683.65
1008.7474	2822.3157	1560.2	684.5
1008.8659	2823.4807	1574.2	698.1
1008.9844	2824.645	1576.1	699.4
1009.1029	2825.8086	1581	705.7
1009.2214	2826.9716	1584.85	708.85
1009.3398	2828.134	1596.45	719.5
1009.4581	2829.2957	1602.35	726.1
1009.5764	2830.4567	1595.5	721.1
1009.6947	2831.617	1609.65	733.25
1009.813	2832.7767	1606.05	731.4
1009.9312	2833.9358	1606.9	730.05
1010.0493	2835.0941	1605.25	727.2
1010.1675	2836.2519	1602.85	727.75
1010.2855	2837.4089	1596.45	719.95
1010.4036	2838.5653	1591.25	714.3
1010.5216	2839.7211	1580	705.35
1010.6396	2840.8761	1575.5	700
1010.7575	2842.0306	1572.45	697.85
1010.8754	2843.1843	1567.65	691.3
1010.9932	2844.3374	1572.75	697.95
1011.111	2845.4899	1573.35	694.55
1011.2288	2846.6417	1575.9	700.05
1011.3465	2847.7928	1572.3	697.75
1011.4642	2848.9433	1569.65	693.2
1011.5818	2850.0931	1567.75	691.2
1011.6995	2851.2422	1574.6	696.5
1011.817	2852.3907	1573.6	696.95
1011.9345	2853.5385	1573.75	697.6
1012.052	2854.6857	1583.4	698.7
1012.1695	2855.8323	1575.55	703.7
1012.2869	2856.9781	1569.95	694
1012.4042	2858.1233	1572.15	695.3
1012.5216	2859.2679	1572.9	694.7
1012.6389	2860.4118	1576.2	699.1
1012.7561	2861.555	1585.4	704.8
1012.8733	2862.6976	1583.05	706.7
1012.9905	2863.8395	1577.4	702.55
1013.1076	2864.9808	1576.45	700.2
1013.2247	2866.1214	1574	700
1013.3417	2867.2614	1579.3	702.6
1013.4587	2868.4007	1576.25	698.45
1013.5757	2869.5393	1571.3	693.4
1013.6926	2870.6773	1578.55	700.75
1013.8095	2871.8146	1578.45	699.4
1013.9263	2872.9513	1570.85	692.35
1014.0431	2874.0874	1574.35	697.15
1014.1599	2875.2227	1577.45	700.4
1014.2766	2876.3574	1567.85	693.3
1014.3933	2877.4915	1573.2	698.15
1014.51	2878.6249	1572.55	698.35
1014.6266	2879.7577	1574.05	696.8
1014.7431	2880.8898	1582.2	695.9
1014.8596	2882.0212	1571.4	696.05
1014.9761	2883.152	1580.2	705.3
1015.0925	2884.2821	1577.8	702.4
1015.2089	2885.4116	1570.15	694.65
1015.3253	2886.5405	1568.95	691.55
1015.4416	2887.6686	1579.35	701.75
1015.5579	2888.7962	1562.35	688.15
1015.6741	2889.923	1563.05	688.25
1015.7903	2891.0493	1566.85	691.2
1015.9065	2892.1748	1566.05	691.4
1016.0226	2893.2997	1562.45	685.8
1016.1387	2894.424	1553.75	678.05
1016.2547	2895.5476	1552.95	676.55
1016.3707	2896.6706	1550.95	675.5
1016.4866	2897.7929	1553.4	677.15
1016.6025	2898.9145	1544.6	669.5
1016.7184	2900.0355	1542.05	665.95
1016.8342	2901.1559	1538.55	662.8
1016.95	2902.2756	1532.45	655.95
1017.0658	2903.3946	1532.2	657.15
1017.1815	2904.513	1537.75	658.7
1017.2971	2905.6308	1531.5	657.65
1017.4127	2906.7479	1521.8	645.75
1017.5283	2907.8643	1524.75	648
1017.6439	2908.9801	1520.55	643.2
1017.7594	2910.0953	1525.2	648.65
1017.8748	2911.2098	1520.25	641.05
1017.9902	2912.3236	1529.5	645.6
1018.1056	2913.4368	1523.25	645.25
1018.2209	2914.5494	1508.1	631.1
1018.3362	2915.6613	1521.8	638.85
1018.4515	2916.7725	1504.7	626.45
1018.5667	2917.8831	1499.45	621.7
1018.6819	2918.9931	1501.65	623.05
1018.797	2920.1024	1483.4	604.95
1018.9121	2921.211	1481.85	605.85
1019.0271	2922.319	1486.1	613.15
1019.1421	2923.4264	1474.25	597.8
1019.2571	2924.5331	1476.45	603.1
1019.372	2925.6391	1471.75	597.25
1019.4869	2926.7445	1475.35	599.85
1019.6017	2927.8493	1475.8	597.9
1019.7165	2928.9534	1475.3	598.75
1019.8313	2930.0569	1476.1	596.45
1019.946	2931.1597	1473.85	597.85
1020.0606	2932.2619	1471.95	596.5
1020.1753	2933.3634	1473.55	597.1
1020.2899	2934.4643	1475.55	594.8
1020.4044	2935.5645	1481.25	598.95
1020.5189	2936.6641	1472.45	591.85
1020.6334	2937.763	1460.9	585.75
1020.7478	2938.8613	1470.7	594.1
1020.8622	2939.959	1461	579.4
1020.9765	2941.056	1458.65	584.3
1021.0908	2942.1523	1445.35	567.7
1021.2051	2943.248	1439.8	561.15
1021.3193	2944.3431	1426.6	551.35
1021.4334	2945.4375	1415.3	539.6
1021.5476	2946.5313	1399.15	523.65
1021.6617	2947.6244	1388.55	512.9
1021.7757	2948.7169	1386.15	508.55
1021.8897	2949.8087	1373.9	497.6
1022.0037	2950.8999	1363.55	486.75
1022.1176	2951.9904	1365.05	490
1022.2315	2953.0803	1353.3	476.45
1022.3453	2954.1696	1345.5	468.5
1022.4591	2955.2582	1340.1	464.15
1022.5728	2956.3462	1340	465.4
1022.6865	2957.4335	1333.8	456.55
1022.8002	2958.5202	1333.85	455.7
1022.9138	2959.6062	1330.85	455.5
1023.0274	2960.6916	1326.7	451.35
1023.141	2961.7764	1327.05	450.45
1023.2545	2962.8605	1327.65	451.45
1023.3679	2963.9439	1316.35	439.5
1023.4813	2965.0267	1316.3	437.8
1023.5947	2966.1089	1342.6	440.85
1023.708	2967.1905	1314.35	439.6
1023.8213	2968.2714	1311.7	435
1023.9346	2969.3516	1304.8	428.35
1024.0478	2970.4312	1313.1	430.35
1024.1609	2971.5102	1305.45	428.85
1024.274	2972.5885	1303.5	426.75
1024.3871	2973.6662	1308.4	427.4
1024.5002	2974.7432	1298	421.35
1024.6132	2975.8196	1299.95	423.7
1024.7261	2976.8954	1301.6	426.35
1024.839	2977.9705	1294.65	419.5
1024.9519	2979.045	1290.8	414.55
1025.0647	2980.1188	1291.85	415.95
1025.1775	2981.192	1287.75	414.3
1025.2902	2982.2645	1289.5	414.1
1025.4029	2983.3364	1287.1	411.95
1025.5156	2984.4077	1281.45	405.1
1025.6282	2985.4783	1281.05	398.3
1025.7407	2986.5483	1271.15	396.2
1025.8532	2987.6177	1268.5	394.15
1025.9657	2988.6864	1269.3	392.15
1026.0782	2989.7545	1261.05	383.05
1026.1906	2990.8219	1258.8	382.25
1026.3029	2991.8887	1260.95	383.8
1026.4152	2992.9548	1245.5	369.9
1026.5275	2994.0204	1242.5	367.4
1026.6397	2995.0852	1241.2	368.2
1026.7519	2996.1495	1230.6	353.3
1026.864	2997.2131	1229.6	353.8
1026.9761	2998.276	1228.25	353.45
1027.0882	2999.3383	1225.6	348
1027.2002	3000.4	1213.2	336.3
1027.3122	3001.4611	1218.2	342.3
1027.4241	3002.5215	1217.85	340.8
1027.536	3003.5812	1213	337.1
1027.6478	3004.6404	1214.45	338.2
1027.7596	3005.6989	1204.7	325.65
1027.8714	3006.7567	1206.85	331.45
1027.9831	3007.8139	1219.85	323.1
1028.0947	3008.8705	1198.25	323.8
1028.2064	3009.9264	1202.7	322.55
1028.3179	3010.9818	1197.8	321.65
1028.4295	3012.0364	1198.8	322.9
1028.541	3013.0905	1198.6	322.9
1028.6524	3014.1439	1189.8	313.7
1028.7638	3015.1966	1186.25	310.15
1028.8752	3016.2487	1187.95	311.3
1028.9865	3017.3002	1195.2	312.8
1029.0978	3018.3511	1181.5	308.25
1029.209	3019.4013	1186.25	311.45
1029.3202	3020.4509	1181	305.65
1029.4314	3021.4998	1180.85	304.2
1029.5425	3022.5481	1181.1	306.25
1029.6535	3023.5958	1178.85	303.55
1029.7645	3024.6428	1183.55	307
1029.8755	3025.6892	1174.55	298.5
1029.9864	3026.735	1173.35	297.4
1030.0973	3027.7802	1173.95	298.75
1030.2082	3028.8247	1163.7	287.7
1030.319	3029.8685	1170.9	296.05
1030.4297	3030.9118	1166.7	290
1030.5404	3031.9544	1166.4	291.7
1030.6511	3032.9963	1166.85	291.45
1030.7617	3034.0376	1162.15	287.75
1030.8723	3035.0783	1162	284.6
1030.9829	3036.1184	1164.7	287.6
1031.0934	3037.1578	1161.55	288
1031.2038	3038.1966	1158.3	281.05
1031.3142	3039.2348	1152.75	277.75
1031.4246	3040.2723	1166.95	282.2
1031.5349	3041.3092	1159.15	285.65
1031.6452	3042.3455	1159.15	282.9
1031.7554	3043.3811	1155.4	279.45
1031.8656	3044.4161	1151.65	273.5
1031.9758	3045.4505	1154.15	279.85
1032.0859	3046.4842	1151.4	274.65
1032.1959	3047.5173	1149.35	274.45
1032.3059	3048.5498	1148.05	271.5
1032.4159	3049.5816	1150.55	275.9
1032.5258	3050.6128	1151.1	275.6
1032.6357	3051.6434	1149.15	271
1032.7455	3052.6734	1144.95	268.6
1032.8553	3053.7027	1142.95	266.55
1032.9651	3054.7314	1141.6	265.8
1033.0748	3055.7594	1140.25	264.6
1033.1845	3056.7868	1146.15	268.5
1033.2941	3057.8136	1142	266.25
1033.4037	3058.8398	1141.6	266.8
1033.5132	3059.8653	1139.35	262.3
1033.6227	3060.8902	1136.85	262
1033.7321	3061.9145	1137.9	262.6
1033.8415	3062.9381	1136.1	262.05
1033.9509	3063.9612	1153.3	262.75
1034.0602	3064.9835	1140.75	265
1034.1694	3066.0053	1141.5	262.45
1034.2787	3067.0264	1135.3	260
1034.3878	3068.0469	1136.2	258.25
1034.497	3069.0668	1134.55	256.2
1034.6061	3070.086	1132.45	258.05
1034.7151	3071.1046	1134.45	259.25
1034.8241	3072.1226	1132.95	257.8
1034.9331	3073.1399	1126.05	251.35
1035.042	3074.1567	1131.1	253.4
1035.1508	3075.1727	1129.8	251.75
1035.2597	3076.1882	1120.8	245
1035.3684	3077.203	1120.35	244.05
1035.4772	3078.2173	1121.85	246
1035.5859	3079.2308	1125.45	246.45
1035.6945	3080.2438	1119.15	244.1
1035.8031	3081.2561	1115.9	238.4
1035.9117	3082.2678	1112.5	238.15
1036.0202	3083.2789	1113.25	238.15
1036.1286	3084.2893	1113.4	237.45
1036.2371	3085.2991	1107.25	230.65
1036.3454	3086.3083	1117.75	236.35
1036.4538	3087.3169	1109.25	234.4
1036.562	3088.3248	1107.15	231.05
1036.6703	3089.3321	1108.8	232.7
1036.7785	3090.3388	1100.9	224.6
1036.8866	3091.3449	1103	228.6
1036.9948	3092.3503	1103.7	223.6
1037.1028	3093.3551	1103.85	230.7
1037.2108	3094.3593	1098.25	224.1
1037.3188	3095.3629	1095.55	219.35
1037.4267	3096.3658	1093.75	218.45
1037.5346	3097.3681	1095.65	218.85
1037.6425	3098.3698	1097.35	219.4
1037.7503	3099.3708	1100.3	219.35
1037.858	3100.3713	1088.95	212.5
1037.9657	3101.3711	1088.95	211.55
1038.0734	3102.3702	1220.3	208.55
1038.181	3103.3688	1087.4	210.05
1038.2886	3104.3667	1086.95	210.75
1038.3961	3105.364	1082.95	208.05
1038.5036	3106.3607	1085	207.8
1038.611	3107.3568	1081.65	205.5
1038.7184	3108.3522	1078.6	203.9
1038.8257	3109.347	1079.65	201.4
1038.933	3110.3412	1083.8	203.25
1039.0403	3111.3348	1077.25	202.15
1039.1475	3112.3277	1074.1	199.15
1039.2547	3113.32	1074.05	198.45
1039.3618	3114.3117	1078.95	201.95
1039.4689	3115.3028	1077.55	202.4
1039.5759	3116.2932	1073.65	196.65
1039.6829	3117.2831	1077.1	195.85
1039.7898	3118.2723	1067.1	191.05
1039.8967	3119.2608	1067.9	192.45
1040.0035	3120.2488	1067.35	190.45
1040.1103	3121.2361	1066.15	190.75
1040.2171	3122.2229	1061.65	187.65
1040.3238	3123.209	1064.9	189.65
1040.4305	3124.1944	1056.5	181.5
1040.5371	3125.1793	1065.1	189.5
1040.6437	3126.1635	1057.7	182.6
1040.7502	3127.1471	1054.95	179.85
1040.8567	3128.1301	1057.45	180.75
1040.9631	3129.1125	1055.8	179.4
1041.0695	3130.0942	1052.7	178.3
1041.1759	3131.0753	1065.55	180.85
1041.2822	3132.0558	1058.85	181.15
1041.3884	3133.0357	1054.7	178.8
1041.4946	3134.015	1055.85	179.45
1041.6008	3134.9936	1057.05	180.25
1041.7069	3135.9716	1069.25	170.3
1041.813	3136.949	1051.7	175.05
1041.919	3137.9258	1059.2	178.4
1042.025	3138.902	1053.85	171.7
1042.1309	3139.8775	1052.55	175.3
1042.2368	3140.8524	1050.95	176.4
1042.3427	3141.8267	1049.3	171.65
1042.4485	3142.8004	1048.65	173.15
1042.5542	3143.7735	1056.35	173.6
1042.6599	3144.7459	1050.55	174.15
1042.7656	3145.7178	1043.4	165.75
1042.8712	3146.689	1040.95	166.65
1042.9768	3147.6596	1045.55	168.8
1043.0823	3148.6295	1046.15	169.5
1043.1878	3149.5989	1040.6	166.4
1043.2932	3150.5676	1036.95	162.9
1043.3986	3151.5357	1033.1	159.55
1043.5039	3152.5032	1035.5	158.8
1043.6092	3153.4701	1034.45	159.75
1043.7145	3154.4364	1035.7	157.5
1043.8197	3155.402	1033.45	157.4
1043.9248	3156.367	1037.6	159.55
1044.03	3157.3315	1071.5	156.85
1044.135	3158.2952	1031.85	154.6
1044.24	3159.2584	1033	156.3
1044.345	3160.221	1035.2	158.9
1044.4499	3161.1829	1032.1	155.35
1044.5548	3162.1442	1028.85	153.35
1044.6596	3163.105	1026.15	151.8
1044.7644	3164.065	1025.3	150.25
1044.8692	3165.0245	1029.8	152.1
1044.9739	3165.9834	1023.65	149.85
1045.0785	3166.9416	1025	149.05
1045.1831	3167.8993	1028.15	150.6
1045.2877	3168.8563	1021.1	143.15
1045.3922	3169.8127	1019.35	144.9
1045.4966	3170.7684	1025.3	150.2
1045.6011	3171.7236	1022.9	145.9
1045.7054	3172.6782	1019.45	144.7
1045.8098	3173.6321	1020	143.05
1045.914	3174.5854	1021.95	143.4
1046.0183	3175.5381	1016.95	139.05
1046.1224	3176.4902	1018.65	142.35
1046.2266	3177.4417	1016.55	143.15
1046.3307	3178.3926	1015	141.15
1046.4347	3179.3428	1011.35	138.55
1046.5387	3180.2924	1012.45	136.8
1046.6427	3181.2415	1012.75	136.55
1046.7466	3182.1899	1015.9	137.85
1046.8504	3183.1377	1011.35	136.1
1046.9542	3184.0848	1013.95	134.5
1047.058	3185.0314	1007.45	131.05
1047.1617	3185.9773	1009.25	132.1
1047.2654	3186.9227	1010.6	132.95
1047.369	3187.8674	1005.95	129.7
1047.4726	3188.8115	1014.5	134.9
1047.5761	3189.755	1005.9	130.5
1047.6796	3190.6979	1004.1	130.4
1047.783	3191.6402	1004.65	128.2
1047.8864	3192.5818	1004.45	127.75
1047.9898	3193.5229	1012.05	129.1
1048.0931	3194.4633	1005.35	129.9
1048.1963	3195.4031	999.85	121.9
1048.2995	3196.3423	1004.7	127.45
1048.4027	3197.2809	1000.9	124.7
1048.5058	3198.2189	1001.7	126.7
1048.6089	3199.1563	1005.95	126.3
1048.7119	3200.0931	997.85	123.45
1048.8148	3201.0292	994.85	120.6
1048.9178	3201.9648	1000.85	124.75
1049.0206	3202.8997	1001.3	122.65
1049.1235	3203.834	996.45	122
1049.2262	3204.7677	994.55	118.6
1049.329	3205.7008	996.45	120.9
1049.4317	3206.6333	991.5	118.45
1049.5343	3207.5652	994.6	117.7
1049.6369	3208.4964	993.6	117.5
1049.7394	3209.4271	989.2	112.4
1049.8419	3210.3571	993.9	117.75
1049.9444	3211.2865	992.4	116.45
1050.0468	3212.2154	993.1	117.75
1050.1491	3213.1436	994.85	117
1050.2514	3214.0712	998.35	117.7
1050.3537	3214.9982	990.35	116.1
1050.4559	3215.9246	988.5	112.8
1050.5581	3216.8503	989.9	115.2
1050.6602	3217.7755	986.5	110.4
1050.7623	3218.7001	986.2	111.75
1050.8643	3219.624	989.8	114.2
1050.9663	3220.5473	989.5	113.45
1051.0682	3221.4701	984.15	107.35
1051.1701	3222.3922	988.6	111.15
1051.2719	3223.3137	985.05	107.9
1051.3737	3224.2346	983.3	108.2
1051.4754	3225.1549	982.3	107.8
1051.5771	3226.0746	980.4	105.55
1051.6788	3226.9937	983.1	105.7
1051.7804	3227.9121	984	108.8
1051.8819	3228.83	981.5	105.4
1051.9834	3229.7473	981.15	105.65
1052.0849	3230.6639	979.75	102.6
1052.1863	3231.5799	975.6	99.3
1052.2876	3232.4954	978.1	101.85
1052.3889	3233.4102	976.25	101.6
1052.4902	3234.3244	977.9	101
1052.5914	3235.238	976	100.8
1052.6926	3236.151	998.95	97.85
1052.7937	3237.0634	973.75	98.8
1052.8948	3237.9752	972.45	98.5
1052.9958	3238.8864	973.35	96.15
1053.0968	3239.797	977.3	101.85
1053.1977	3240.7069	973.85	98.55
1053.2986	3241.6163	973.9	95.35
1053.3994	3242.5251	971.25	96.6
1053.5002	3243.4332	970.85	97.25
1053.6009	3244.3408	969.6	93.35
1053.7016	3245.2477	969.1	92.55
1053.8022	3246.154	970.8	95.1
1053.9028	3247.0598	968.9	91.4
1054.0034	3247.9649	968.9	93.8
1054.1039	3248.8694	964.7	88.4
1054.2043	3249.7733	966.1	91.75
1054.3047	3250.6766	971.2	95.25
1054.4051	3251.5793	967	90.05
1054.5054	3252.4814	966.85	91.45
1054.6056	3253.3829	964.4	88.05
1054.7058	3254.2838	964.55	88.8
1054.806	3255.1841	963.45	87.8
1054.9061	3256.0838	965.8	91.95
1055.0061	3256.9829	965.1	89.9
1055.1062	3257.8814	965.95	89
1055.2061	3258.7792	963.45	86.2
1055.306	3259.6765	958.65	79
1055.4059	3260.5731	958.5	81
1055.5057	3261.4692	959.8	84
1055.6055	3262.3647	957.7	82.95
1055.7052	3263.2595	958.1	81.7
1055.8049	3264.1538	950.4	73.7
1055.9045	3265.0474	953.15	76.3
1056.0041	3265.9404	952.45	77.95
1056.1036	3266.8329	947.55	71.6
1056.2031	3267.7247	961.6	75.35
1056.3025	3268.616	948.55	73
1056.4019	3269.5066	946.55	70.35
1056.5013	3270.3966	942.5	64.85
1056.6005	3271.286	943.75	68.55
