Software Version:	3.9.2.0
Unit SN:	10000200
Spectrometer SN:	6960
Date:	3/6/2024 10:10:47 AM
Data Line Index:	25
Spectral Points:	2048
Integration time (ms):	125
Averages:	20
Delay (ms):	30
Sequence Number:	1
Processing:	dark subtract
Laser Power (mW):	305
Laser Current (mA):	826
Laser Diode Temp (C):	25.1
Laser Case Temp (C):	24.9
System Temp (C):	24.7
Spectrometer Temp (C):	22.3
CCD Temp (C):	0
Secondary Temp (C):	20.006
Heatsink Temp (C):	18.61
CCDPCB Temp (C):	31.271
SecondaryPCB Temp (C):	25.636

Wavelength	RamanShift	Raw Counts	Dark Subtracted
787.061	30.1047	935.4	525.15
787.2016	32.3739	961.95	554.55
787.3422	34.6426	993.9	586.5
787.4828	36.9109	1023	612.5
787.6235	39.1787	1066.85	652.75
787.7642	41.4461	1120.3	702.8
787.9049	43.7131	1167.15	745.3
788.0456	45.9796	1202.35	778.85
788.1863	48.2456	1260.25	833.4
788.3271	50.5112	1312.35	881.4
788.4679	52.7764	1370.35	937.15
788.6087	55.0411	1418.6	980.85
788.7496	57.3054	1488.3	1043.85
788.8904	59.5692	1558.85	1112.8
789.0313	61.8326	1627.9	1178.85
789.1722	64.0955	1703.2	1253.05
789.3132	66.3579	1800.1	1343
789.4541	68.6199	1918.5	1459.45
789.5951	70.8815	2120.45	1655.2
789.7361	73.1426	2543.55	2074.05
789.8771	75.4032	3652	3179.95
790.0181	77.6634	6513.65	6036.3
790.1592	79.9231	13809.35	13326.3
790.3003	82.1824	40591.45	40096.75
790.4414	84.4412	63092.2	62573.3
790.5825	86.6995	64565.9	64019
790.7237	88.9574	65231	64662.85
790.8648	91.2148	65535	64947.5
791.006	93.4717	65535	64944.05
791.1472	95.7282	65535	64934.25
791.2885	97.9842	65535	64928.95
791.4297	100.2398	65535	64925.6
791.571	102.4949	65535	64924.25
791.7123	104.7495	65535	64920.95
791.8536	107.0036	65535	64917.65
791.9949	109.2573	65535	64923.15
792.1363	111.5105	65535	64919.65
792.2777	113.7632	65535	64915.9
792.4191	116.0154	65535	64906.4
792.5605	118.2672	65535	64910
792.7019	120.5185	65535	64910.35
792.8434	122.7693	65535	64905.4
792.9849	125.0197	65535	64900.8
793.1264	127.2696	65535	64894.4
793.2679	129.519	65535	64896.2
793.4094	131.7679	65535	64891.55
793.551	134.0163	65535	64888
793.6926	136.2642	65535	64884.9
793.8342	138.5117	65535	64882.25
793.9758	140.7587	65535	64882.2
794.1175	143.0052	65535	64875.8
794.2591	145.2512	65535	64878.95
794.4008	147.4967	65535	64879.3
794.5425	149.7417	65535	64874.8
794.6842	151.9863	65535	64869.05
794.826	154.2304	65535	64864.05
794.9677	156.4739	65535	64857.55
795.1095	158.717	65535	64859.6
795.2513	160.9596	65535	64856.3
795.3931	163.2017	65535	64856.35
795.535	165.4433	65535	64854.45
795.6768	167.6844	65535	64849.4
795.8187	169.925	65535	64847.25
795.9606	172.1651	65535	64848.6
796.1025	174.4047	65535	64841.45
796.2445	176.6439	65535	64840.25
796.3864	178.8825	65535	64839.25
796.5284	181.1206	65535	64833.2
796.6704	183.3582	65535	64828.15
796.8124	185.5954	65535	64827.55
796.9544	187.832	65535	64822.3
797.0965	190.0681	65535	64822.15
797.2386	192.3037	65535	64813.9
797.3806	194.5388	65535	64816.95
797.5228	196.7734	65535	64812.35
797.6649	199.0075	65535	64811.55
797.807	201.2411	65535	64810.6
797.9492	203.4742	65535	64809.8
798.0914	205.7068	65535	64805.3
798.2336	207.9389	65535	64803
798.3758	210.1704	65535	64807.7
798.518	212.4015	65535	64815.75
798.6603	214.632	65535	64823.4
798.8025	216.862	65535	64825
798.9448	219.0915	65535	64820.6
799.0871	221.3205	65535	64821.7
799.2294	223.549	65535	64826.75
799.3718	225.777	65535	64825.2
799.5141	228.0044	65535	64818.7
799.6565	230.2314	65535	64815.7
799.7989	232.4578	65535	64811.55
799.9413	234.6837	65535	64803.3
800.0837	236.909	65535	64803.85
800.2262	239.1339	65535	64779.3
800.3687	241.3582	65535	64785.6
800.5111	243.582	65535	64756.2
800.6536	245.8053	65535	64777.5
800.7961	248.0281	65535	64777.95
800.9387	250.2503	65535	64778
801.0812	252.472	65535	64773.45
801.2238	254.6932	65535	64774.9
801.3664	256.9139	65535	64775.8
801.509	259.134	65535	64767
801.6516	261.3536	65535	64770.45
801.7942	263.5727	65535	64767.9
801.9369	265.7912	65535	64768.7
802.0795	268.0092	65535	64768.85
802.2222	270.2267	65535	64770.75
802.3649	272.4436	65535	64763.7
802.5076	274.6601	65535	64756.3
802.6504	276.8759	65535	64760.25
802.7931	279.0913	65535	64758.15
802.9359	281.3061	65535	64756.65
803.0787	283.5204	65535	64753.8
803.2215	285.7341	65535	64753.4
803.3643	287.9473	65535	64741.5
803.5071	290.16	65535	64751.05
803.6499	292.3721	65535	64755.45
803.7928	294.5837	65535	64753.75
803.9357	296.7947	65535	64754.2
804.0786	299.0052	65535	64750.75
804.2215	301.2152	65535	64753.25
804.3644	303.4246	65535	64757
804.5074	305.6334	65535	64751.25
804.6503	307.8418	65535	64750.2
804.7933	310.0495	65535	64746.1
804.9363	312.2568	65535	64746.55
805.0793	314.4635	65535	64746.4
805.2223	316.6696	65535	64740.5
805.3653	318.8752	65535	64734.45
805.5084	321.0802	65535	64736.35
805.6514	323.2847	65535	64737.85
805.7945	325.4887	65535	64738.3
805.9376	327.692	65535	64734.6
806.0807	329.8949	65535	64732.3
806.2238	332.0972	65535	64733.05
806.367	334.2989	65535	64729.25
806.5101	336.5001	65535	64731.55
806.6533	338.7007	65535	64727.65
806.7965	340.9008	65535	64729.25
806.9397	343.1003	65535	64726.05
807.0829	345.2992	65535	64730.2
807.2261	347.4976	65535	64724
807.3693	349.6955	65535	64720.15
807.5126	351.8927	65535	64721.35
807.6559	354.0895	65535	64708.05
807.7991	356.2856	65535	64716.95
807.9424	358.4812	65535	64716.95
808.0857	360.6763	65535	64715.85
808.2291	362.8707	65535	64713.7
808.3724	365.0646	65535	64709.95
808.5158	367.258	65535	64710.8
808.6591	369.4508	65535	64707.75
808.8025	371.643	65535	64708.35
808.9459	373.8346	65535	64705
809.0893	376.0257	65535	64703.35
809.2327	378.2162	65535	64702.1
809.3762	380.4062	65535	64703.6
809.5196	382.5956	65535	64703.45
809.6631	384.7844	65535	64712.3
809.8066	386.9726	65535	64712.65
809.9501	389.1603	65535	64712
810.0936	391.3474	65535	64672.3
810.2371	393.5339	65535	64710.2
810.3806	395.7199	65535	64708.8
810.5241	397.9052	65535	64712.75
810.6677	400.09	65535	64708.85
810.8113	402.2743	65535	64711.85
810.9548	404.4579	65535	64712.5
811.0984	406.641	65535	64700.8
811.2421	408.8235	65535	64705.5
811.3857	411.0054	65535	64704.1
811.5293	413.1868	65535	64697.35
811.673	415.3675	65535	64693.5
811.8166	417.5477	65535	64695.25
811.9603	419.7273	65535	64692.25
812.104	421.9064	65535	64684.65
812.2477	424.0848	65535	64693.75
812.3914	426.2627	65535	64694.4
812.5351	428.4399	65535	64690.35
812.6788	430.6166	65535	64685.05
812.8226	432.7928	65535	64684.3
812.9663	434.9683	65535	64689.05
813.1101	437.1432	65535	64686.85
813.2539	439.3176	65535	64688.65
813.3977	441.4914	65535	64692.4
813.5415	443.6645	65535	64687.3
813.6853	445.8371	65535	64687.55
813.8291	448.0091	65535	64687.95
813.973	450.1806	65535	64685.8
814.1168	452.3514	65535	64689.35
814.2607	454.5216	65535	64678.5
814.4046	456.6913	65535	64686.25
814.5485	458.8603	65535	64686.7
814.6924	461.0288	65535	64690.35
814.8363	463.1967	65535	64689.75
814.9802	465.3639	65535	64685.45
815.1241	467.5306	65535	64687.2
815.2681	469.6967	65535	64688.1
815.412	471.8622	65535	64687.15
815.556	474.0271	65535	64683.95
815.7	476.1914	65535	64679.65
815.844	478.3551	65535	64681.05
815.988	480.5182	65535	64683.9
816.132	482.6807	65535	64686.2
816.276	484.8426	65535	64691.15
816.4201	487.0039	65535	64686
816.5641	489.1647	65535	64681.5
816.7082	491.3248	65535	64682.85
816.8522	493.4843	65535	64681.4
816.9963	495.6432	65535	64680.95
817.1404	497.8015	65535	64677.85
817.2845	499.9592	65535	64674.4
817.4286	502.1163	65535	64670.35
817.5727	504.2728	65535	64678.05
817.7168	506.4287	65535	64682.65
817.861	508.5839	65535	64681.45
818.0051	510.7386	65535	64679.7
818.1493	512.8927	65535	64672.75
818.2935	515.0461	65535	64673.7
818.4377	517.199	65535	64670.5
818.5818	519.3512	65535	64671.25
818.726	521.5029	65535	64668
818.8703	523.6539	65535	64668.8
819.0145	525.8043	65535	64668.05
819.1587	527.9541	65535	64667.2
819.303	530.1033	65535	64666.45
819.4472	532.2519	65535	64671.85
819.5915	534.3999	65535	64666.6
819.7357	536.5472	65535	64664.55
819.88	538.694	65535	64669.1
820.0243	540.8401	65535	64665.35
820.1686	542.9856	65535	64662.65
820.3129	545.1305	65535	64658.25
820.4572	547.2748	65535	64654.35
820.6016	549.4185	65535	64655.95
820.7459	551.5615	65535	64652.8
820.8902	553.704	65535	64657
821.0346	555.8458	65535	64660.35
821.1789	557.987	65535	64661.75
821.3233	560.1276	65535	64658.7
821.4677	562.2675	65535	64660.15
821.6121	564.4069	65535	64659.05
821.7565	566.5456	65535	64664.4
821.9009	568.6837	65535	64662.6
822.0453	570.8212	65535	64660.15
822.1897	572.958	65535	64657.4
822.3342	575.0942	65535	64664.4
822.4786	577.2299	65535	64664.75
822.6231	579.3648	65535	64670.9
822.7675	581.4992	65535	64673.3
822.912	583.6329	65535	64675
823.0565	585.766	65535	64669.9
823.201	587.8985	65535	64667.65
823.3454	590.0304	65535	64641.6
823.4899	592.1616	65535	64657.05
823.6345	594.2922	65535	64654.35
823.779	596.4222	65535	64649
823.9235	598.5515	65535	64651.05
824.068	600.6802	65535	64650.9
824.2126	602.8083	65535	64654.7
824.3571	604.9358	65535	64650.95
824.5017	607.0626	65535	64651.55
824.6462	609.1888	65535	64646.7
824.7908	611.3144	65535	64650.5
824.9354	613.4393	65535	64649.05
825.08	615.5636	65535	64650.2
825.2246	617.6873	65535	64646.8
825.3692	619.8103	65535	64645.5
825.5138	621.9327	65535	64647.3
825.6584	624.0544	65535	64656.75
825.803	626.1756	65535	64653.95
825.9477	628.2961	65535	64648.65
826.0923	630.4159	65535	64648.9
826.237	632.5351	65535	64646.95
826.3816	634.6537	65535	64643.25
826.5263	636.7716	65535	64642.15
826.6709	638.8889	65535	64641.75
826.8156	641.0056	65535	64642.5
826.9603	643.1216	65535	64640.45
827.105	645.237	65535	64644.65
827.2497	647.3518	65535	64646.15
827.3944	649.4659	65535	64652.75
827.5391	651.5793	65535	64651.65
827.6838	653.6922	65535	64654.55
827.8285	655.8043	65535	64650.8
827.9733	657.9159	65535	64647.45
828.118	660.0268	65535	64645.3
828.2627	662.137	65535	64644
828.4075	664.2466	65535	64639.8
828.5522	666.3556	65535	64640.9
828.697	668.4639	65535	64642.9
828.8418	670.5716	65535	64646.3
828.9865	672.6786	65535	64643.85
829.1313	674.785	65535	64639.2
829.2761	676.8907	65535	64641.75
829.4209	678.9958	65535	64646.2
829.5657	681.1002	65535	64642.4
829.7105	683.204	65535	64636.1
829.8553	685.3072	65535	64637.35
830.0001	687.4097	65535	64640.15
830.1449	689.5115	65535	64638.55
830.2898	691.6127	65535	64639.8
830.4346	693.7132	65535	64641.1
830.5794	695.8131	65535	64621.35
830.7243	697.9123	65535	64638.3
830.8691	700.0109	65535	64632
831.014	702.1089	65535	64638.25
831.1588	704.2061	65535	64638.8
831.3037	706.3028	65535	64635.6
831.4486	708.3987	65535	64636.5
831.5935	710.4941	65535	64637.45
831.7383	712.5887	65535	64639.9
831.8832	714.6827	65535	64629.55
832.0281	716.7761	65535	64640.8
832.173	718.8688	65535	64633.2
832.3179	720.9608	65535	64631.4
832.4628	723.0522	65535	64627.85
832.6077	725.1429	65535	64633.85
832.7527	727.233	65535	64634.15
832.8976	729.3224	65535	64637.1
833.0425	731.4112	65535	64634.85
833.1874	733.4993	65535	64631.9
833.3324	735.5867	65535	64631.8
833.4773	737.6735	65535	64633.85
833.6222	739.7596	65535	64630.05
833.7672	741.845	65535	64630.8
833.9122	743.9298	65535	64629.2
834.0571	746.014	65535	64630.5
834.2021	748.0974	65535	64629.2
834.347	750.1802	65535	64625.45
834.492	752.2624	65535	64625.8
834.637	754.3439	65535	64629.25
834.782	756.4247	65535	64619.75
834.9269	758.5048	65535	64631.35
835.0719	760.5843	65535	64628.75
835.2169	762.6631	65535	64626.55
835.3619	764.7413	65535	64630
835.5069	766.8188	65535	64625.35
835.6519	768.8956	65535	64626.75
835.7969	770.9718	65535	64627.8
835.9419	773.0473	65535	64630.6
836.0869	775.1221	65535	64628.9
836.232	777.1962	65535	64627.7
836.377	779.2697	65535	64627.55
836.522	781.3426	65535	64607.6
836.667	783.4147	65535	64624.85
836.8121	785.4862	65535	64628.4
836.9571	787.557	65535	64623.45
837.1021	789.6271	65535	64624.55
837.2472	791.6966	65535	64623.2
837.3922	793.7654	65534.35	64623.15
837.5373	795.8335	65535	64626.8
837.6823	797.901	65535	64625.55
837.8274	799.9678	65535	64621.35
837.9724	802.0339	65535	64627.4
838.1175	804.0993	65535	64613.25
838.2626	806.1641	65532.2	64624.8
838.4076	808.2282	65531.8	64622
838.5527	810.2916	65526.85	64614.9
838.6978	812.3544	65535	64627.15
838.8428	814.4164	65524	64615.85
838.9879	816.4778	65519.65	64607
839.133	818.5385	65524.45	64612.3
839.2781	820.5986	65525.9	64614.2
839.4232	822.658	65527.4	64617.35
839.5682	824.7166	65529.45	64617.95
839.7133	826.7747	65515.25	64605.15
839.8584	828.832	65518.45	64603.45
840.0035	830.8886	65524.85	64609.55
840.1486	832.9446	65525.3	64610.6
840.2937	834.9999	65465.15	64555.3
840.4388	837.0545	65506.4	64589.05
840.5839	839.1085	65523.85	64611.2
840.729	841.1618	65511	64593.35
840.8741	843.2143	65458	64544.45
841.0192	845.2662	65458.05	64543.85
841.1643	847.3175	65489.05	64576.1
841.3095	849.368	65421.65	64508.25
841.4546	851.4179	65494.7	64581.05
841.5997	853.467	65443.85	64531.6
841.7448	855.5155	65467.9	64555.05
841.8899	857.5633	65418.95	64506.15
842.0351	859.6105	65406.4	64490.3
842.1802	861.6569	65434.35	64523.45
842.3253	863.7027	65385.3	64467.6
842.4704	865.7478	65407.4	64491.4
842.6156	867.7922	65390.5	64476.9
842.7607	869.8359	65418	64502.45
842.9058	871.8789	65370.25	64454.1
843.0509	873.9212	65394.85	64450.45
843.1961	875.9629	65394.85	64480.6
843.3412	878.0039	65383	64469.45
843.4863	880.0441	65370.25	64454.7
843.6315	882.0837	65361.1	64444.65
843.7766	884.1226	65372.05	64457.85
843.9218	886.1609	65365.25	64451.4
844.0669	888.1984	65351.7	64436.1
844.212	890.2352	65378.95	64464.6
844.3572	892.2714	65343.75	64425.7
844.5023	894.3069	65367.45	64450.35
844.6475	896.3416	65336.65	64422.5
844.7926	898.3757	65333.85	64420.6
844.9377	900.4091	65290.2	64372.1
845.0829	902.4418	65360.25	64437.45
845.228	904.4739	65316.5	64395.25
845.3732	906.5052	65322.7	64404.65
845.5183	908.5358	65299	64385.65
845.6635	910.5658	65286	64365.3
845.8086	912.595	65289.5	64369.9
845.9538	914.6236	65246	64326.25
846.0989	916.6515	65315.65	64394.8
846.2441	918.6786	65233.2	64315.5
846.3892	920.7051	65245.9	64323.5
846.5344	922.7309	65237.15	64317.55
846.6795	924.756	65255.4	64338.35
846.8246	926.7804	65220.9	64300.85
846.9698	928.8041	65178.9	64257.75
847.1149	930.8272	65204.6	64286.2
847.2601	932.8495	65211.9	64293.15
847.4052	934.8711	65189.5	64267.1
847.5504	936.892	65170.45	64248.7
847.6955	938.9123	65176.9	64255.85
847.8407	940.9318	65152.65	64233.7
847.9858	942.9506	65162.7	64242.6
848.131	944.9688	65166.45	64249.8
848.2761	946.9862	65106.85	64188.15
848.4213	949.003	65126.1	64205.2
848.5664	951.019	65087.05	64168.9
848.7115	953.0344	65099.4	64178.7
848.8567	955.0491	65089.65	64172.3
849.0018	957.063	65093.35	64173.8
849.147	959.0763	65098.4	64180.15
849.2921	961.0888	65067.7	64147
849.4373	963.1007	65088.5	64172.3
849.5824	965.1119	65086	64176.65
849.7275	967.1223	65073.3	64164.3
849.8727	969.1321	65080.85	64168.45
850.0178	971.1412	65050.6	64135.7
850.1629	973.1495	65044.2	64126.95
850.3081	975.1572	65043.6	64084.05
850.4532	977.1641	65032.55	64110.05
850.5983	979.1704	65028.95	64107.95
850.7435	981.1759	65036.1	64113.25
850.8886	983.1808	65012.4	64090.75
851.0337	985.1849	65013.9	64084.6
851.1788	987.1884	65015	64094.95
851.324	989.1911	65025.2	64104.3
851.4691	991.1932	64978.3	64059.55
851.6142	993.1945	64977.75	64060.75
851.7593	995.1951	64965.75	64047.65
851.9045	997.1951	64959.9	64034.85
852.0496	999.1943	64951.3	64031.65
852.1947	1001.1928	64946.45	64025.35
852.3398	1003.1906	64936.3	64017.4
852.4849	1005.1877	64906.9	63983.85
852.63	1007.1841	64905.75	63987.05
852.7751	1009.1798	64897.8	63977.4
852.9202	1011.1748	64894.5	63975
853.0653	1013.1691	64881.2	63960.3
853.2104	1015.1627	64860.7	63941.05
853.3555	1017.1556	64842.15	63923.65
853.5006	1019.1477	64842.5	63923.1
853.6457	1021.1392	64829.9	63916.65
853.7908	1023.1299	64816.4	63902.2
853.9359	1025.12	64819.35	63910.85
854.081	1027.1093	64805	63900.3
854.2261	1029.0979	64786.85	63886.35
854.3712	1031.0859	64798.9	63892.4
854.5163	1033.0731	64768.3	63854.9
854.6613	1035.0596	64755.8	63841.55
854.8064	1037.0454	64739.1	63821.3
854.9515	1039.0304	64742.5	63824.15
855.0965	1041.0148	64725.6	63807.75
855.2416	1042.9985	64728.05	63806.55
855.3867	1044.9814	64712.8	63794.05
855.5317	1046.9636	64695.7	63782
855.6768	1048.9452	64690.05	63772.65
855.8219	1050.926	64699.55	63781.75
855.9669	1052.9061	64687.45	63769.25
856.112	1054.8855	64679.4	63761.4
856.257	1056.8642	64679.45	63763.5
856.4021	1058.8421	64667.05	63744.8
856.5471	1060.8194	64656.45	63735.1
856.6921	1062.7959	64662.5	63742.9
856.8372	1064.7717	64647.9	63728.3
856.9822	1066.7469	64647.75	63726.65
857.1272	1068.7213	64637.9	63718.55
857.2723	1070.695	64627.5	63709.55
857.4173	1072.6679	64615.4	63696.85
857.5623	1074.6402	64607.45	63691.15
857.7073	1076.6117	64616.85	63692.3
857.8523	1078.5826	64596.5	63677.3
857.9973	1080.5527	64590.2	63669.8
858.1423	1082.5221	64584.3	63664.8
858.2873	1084.4908	64582.25	63663.55
858.4323	1086.4587	64575.5	63659.45
858.5773	1088.426	64574.7	63656.55
858.7223	1090.3925	64561.85	63639.45
858.8673	1092.3584	64557.65	63638.35
859.0123	1094.3235	64549.15	63632.05
859.1573	1096.2879	64543.65	63626.8
859.3022	1098.2515	64534.25	63616.65
859.4472	1100.2145	64524.3	63606.5
859.5922	1102.1767	64526.8	63606
859.7371	1104.1382	64520.8	63605.1
859.8821	1106.099	64517.75	63597.8
860.027	1108.0591	64504.1	63584.85
860.172	1110.0185	64490.35	63569.45
860.3169	1111.9771	64493.25	63576.45
860.4619	1113.9351	64492.5	63572.55
860.6068	1115.8923	64480	63563.15
860.7517	1117.8488	64465.8	63548.1
860.8967	1119.8045	64456.85	63537.1
861.0416	1121.7596	64456.05	63537.85
861.1865	1123.7139	64443.3	63524.55
861.3314	1125.6675	64441.15	63523.1
861.4763	1127.6204	64447.95	63531.6
861.6212	1129.5726	64434.2	63515.05
861.7661	1131.524	64421.45	63503.05
861.911	1133.4748	64425.95	63507.05
862.0559	1135.4248	64424.7	63506
862.2008	1137.3741	64413.7	63496.7
862.3457	1139.3226	64393.7	63474.35
862.4905	1141.2705	64397.05	63477.5
862.6354	1143.2176	64384.4	63460.7
862.7803	1145.164	64379.75	63458.85
862.9251	1147.1097	64379.65	63461.6
863.07	1149.0546	64370.75	63453.7
863.2148	1150.9989	64366.4	63447.7
863.3597	1152.9424	64356.05	63442
863.5045	1154.8852	64360.75	63440.25
863.6493	1156.8272	64356.05	63435.6
863.7942	1158.7686	64359	63433.45
863.939	1160.7092	64346.6	63429.25
864.0838	1162.6491	64340.4	63420.55
864.2286	1164.5883	64332.25	63415.7
864.3734	1166.5267	64329.45	63411.65
864.5182	1168.4644	64325.05	63408.5
864.663	1170.4014	64328.75	63406.85
864.8078	1172.3377	64323.9	63407.45
864.9526	1174.2732	64319.65	63401.15
865.0974	1176.2081	64327.8	63412.65
865.2421	1178.1421	64324.6	63400.85
865.3869	1180.0755	64316.05	63399.35
865.5317	1182.0082	64311.9	63396.6
865.6764	1183.9401	64316.45	63401.05
865.8212	1185.8713	64309.9	63395.4
865.9659	1187.8017	64302.45	63394.7
866.1106	1189.7315	64302.6	63395.25
866.2554	1191.6605	64278.65	63345.3
866.4001	1193.5888	64267.4	63358.35
866.5448	1195.5163	64268.3	63356.7
866.6895	1197.4432	64258.75	63341.1
866.8342	1199.3693	64234.1	63317.55
866.9789	1201.2947	64239.95	63320.35
867.1236	1203.2193	64242.95	63323.45
867.2683	1205.1432	64227.85	63309.9
867.413	1207.0664	64215.95	63301.35
867.5576	1208.9889	64209.6	63289.75
867.7023	1210.9106	64203.05	63289.05
867.847	1212.8316	64197.4	63281.55
867.9916	1214.7519	64192.9	63271.85
868.1363	1216.6715	64182.4	63266.2
868.2809	1218.5903	64172.45	63257.5
868.4255	1220.5084	64175.75	63260.15
868.5701	1222.4257	64178.3	63262.2
868.7148	1224.3424	64161.05	63249.35
868.8594	1226.2583	64167.45	63249.65
869.004	1228.1735	64154.1	63237.2
869.1486	1230.0879	64146.15	63228.45
869.2932	1232.0016	64147.4	63231.3
869.4377	1233.9146	64129.15	63211.9
869.5823	1235.8269	64132.45	63215.5
869.7269	1237.7384	64124.3	63209.75
869.8715	1239.6492	64113.95	63203.05
870.016	1241.5592	64117.3	63200.55
870.1606	1243.4686	64104.3	63191.2
870.3051	1245.3772	64109.9	63192.9
870.4496	1247.285	64100.2	63181.5
870.5941	1249.1922	64088.85	63171.05
870.7387	1251.0986	64095.25	63180.9
870.8832	1253.0042	64087.6	63172.5
871.0277	1254.9092	64083.65	63167.25
871.1722	1256.8134	64066.1	63152.15
871.3167	1258.7169	64068.8	63153.75
871.4611	1260.6196	64055.75	63142.05
871.6056	1262.5216	64063.2	63145.75
871.7501	1264.4229	64059.45	63147.05
871.8945	1266.3234	64066.95	63152.4
872.039	1268.2232	64055.05	63138.5
872.1834	1270.1223	64049.4	63129.3
872.3278	1272.0207	64055.45	63139.25
872.4723	1273.9183	64044.65	63122.95
872.6167	1275.8151	64045.35	63131.3
872.7611	1277.7113	64032.35	63119.6
872.9055	1279.6067	64034.6	63119.25
873.0499	1281.5014	64027.95	63109.95
873.1943	1283.3953	64027.35	63111.55
873.3386	1285.2885	64023.05	63111.05
873.483	1287.181	64018.25	63103.75
873.6274	1289.0727	64033.7	63121.5
873.7717	1290.9637	64021.9	63107.75
873.9161	1292.854	64016.4	63103.95
874.0604	1294.7435	64014.95	63101.5
874.2047	1296.6323	64008.3	63096.55
874.349	1298.5204	64004.8	63089.8
874.4933	1300.4077	64004.85	63090.55
874.6376	1302.2943	63989.6	63075.6
874.7819	1304.1802	63995.05	63082.2
874.9262	1306.0653	63987.25	63073.4
875.0705	1307.9497	63984.65	63070.8
875.2147	1309.8333	63984.2	63071.65
875.359	1311.7162	63968.85	63054.85
875.5032	1313.5984	63965.55	63049.2
875.6475	1315.4798	63967.15	63042.8
875.7917	1317.3605	63953.35	63023.1
875.9359	1319.2405	63960	63041.95
876.0801	1321.1197	63951.35	63031.65
876.2243	1322.9982	63941.35	63023.1
876.3685	1324.876	63931.8	63019.4
876.5127	1326.753	63931.1	63017.95
876.6569	1328.6293	63923.75	63007
876.801	1330.5048	63926.6	63010.4
876.9452	1332.3796	63930.3	63015.5
877.0893	1334.2537	63931.2	62989.65
877.2335	1336.127	63924.1	63009.65
877.3776	1337.9996	63916.55	63000.35
877.5217	1339.8714	63901.8	62985.55
877.6658	1341.7426	63917.35	62960.05
877.8099	1343.6129	63902.2	62986.6
877.954	1345.4826	63904.15	62987.55
878.0981	1347.3515	63891.1	62973.1
878.2422	1349.2196	63892.85	62978.55
878.3862	1351.087	63900	62985
878.5303	1352.9537	63889.5	62973.65
878.6743	1354.8197	63882	62968.6
878.8184	1356.6849	63894.85	62978.6
878.9624	1358.5493	63880.85	62966.2
879.1064	1360.4131	63883.95	62969.8
879.2504	1362.276	63886.85	62974.75
879.3944	1364.1383	63868.65	62952.8
879.5384	1365.9998	63869.95	62950.85
879.6823	1367.8606	63858	62943
879.8263	1369.7206	63845.4	62931.25
879.9702	1371.5799	63848.45	62932.3
880.1142	1373.4384	63832.95	62916.4
880.2581	1375.2962	63843.1	62929.5
880.402	1377.1533	63824.95	62913.9
880.5459	1379.0096	63812.35	62897.7
880.6898	1380.8652	63802.9	62892.1
880.8337	1382.7201	63798.95	62886.45
880.9776	1384.5742	63794.2	62880.2
881.1215	1386.4275	63773.55	62856.4
881.2653	1388.2802	63775.95	62863.15
881.4092	1390.132	63775.9	62864.7
881.553	1391.9832	63757.85	62844.5
881.6968	1393.8336	63732.45	62818.5
881.8406	1395.6832	63732.4	62818.35
881.9844	1397.5322	63731.45	62816.15
882.1282	1399.3803	63699.7	62778.85
882.272	1401.2278	63704.5	62793
882.4158	1403.0745	63667.35	62754.95
882.5595	1404.9204	63673.45	62762.35
882.7033	1406.7656	63682.45	62770.1
882.847	1408.6101	63608.9	62696.7
882.9908	1410.4538	63633.7	62722.45
883.1345	1412.2968	63620.05	62708.3
883.2782	1414.139	63568.75	62654.95
883.4219	1415.9805	63573	62657.55
883.5656	1417.8213	63545.8	62624.35
883.7092	1419.6613	63583.05	62671.1
883.8529	1421.5006	63552	62638.4
883.9965	1423.3391	63530.1	62616.45
884.1402	1425.1769	63546	62633.8
884.2838	1427.0139	63580.35	62666.95
884.4274	1428.8502	63546.2	62636.15
884.571	1430.6858	63545.15	62633.7
884.7146	1432.5206	63608.65	62696.4
884.8582	1434.3547	63530.1	62617.7
885.0018	1436.188	63508.45	62596.6
885.1453	1438.0206	63542.65	62629.75
885.2889	1439.8524	63518.1	62605.1
885.4324	1441.6835	63477.7	62564.45
885.5759	1443.5139	63515.55	62598.95
885.7194	1445.3435	63477.35	62566.6
885.8629	1447.1724	63495.45	62585.05
886.0064	1449.0005	63434.1	62522.4
886.1499	1450.8279	63460.9	62549.5
886.2933	1452.6545	63445.45	62535.5
886.4368	1454.4804	63438.3	62528.3
886.5802	1456.3056	63411.05	62493.6
886.7237	1458.13	63429.7	62520.8
886.8671	1459.9536	63465.85	62555.85
887.0105	1461.7766	63411.65	62500.6
887.1539	1463.5987	63358.6	62446.55
887.2972	1465.4202	63363.6	62450.15
887.4406	1467.2409	63346.6	62435.7
887.584	1469.0608	63305.35	62394.15
887.7273	1470.88	63303.25	62389.7
887.8706	1472.6984	63311.5	62403.2
888.0139	1474.5161	63266.15	62352.75
888.1572	1476.3331	63272.7	62363.05
888.3005	1478.1493	63227.9	62315.05
888.4438	1479.9648	63229.25	62318.25
888.5871	1481.7795	63263.5	62351.5
888.7303	1483.5935	63248.35	62337.7
888.8736	1485.4067	63198.25	62286.8
889.0168	1487.2192	63214.25	62302
889.16	1489.031	63184.6	62273.9
889.3032	1490.842	63194.15	62282.05
889.4464	1492.6522	63202.7	62294
889.5896	1494.4618	63158.4	62245.9
889.7327	1496.2705	63172.85	62262.5
889.8759	1498.0785	63116.45	62206.15
890.019	1499.8858	63135.9	62226.65
890.1622	1501.6924	63157.4	62248.75
890.3053	1503.4981	63121.75	62212.15
890.4484	1505.3032	63129.85	62218.7
890.5914	1507.1075	63093.3	62183.8
890.7345	1508.911	63094.4	62183.25
890.8776	1510.7138	63080.6	62169
891.0206	1512.5159	63089.4	62181.5
891.1637	1514.3172	63016.85	62107.05
891.3067	1516.1178	63040.15	62130.2
891.4497	1517.9176	63060.3	62147.15
891.5927	1519.7166	63031.2	62124.2
891.7357	1521.515	63012	62097.75
891.8786	1523.3126	62974.65	62067.3
892.0216	1525.1094	62988.7	62077.95
892.1645	1526.9055	62973.25	62065.9
892.3074	1528.7008	62963.6	62055.2
892.4503	1530.4954	62922.15	62012.6
892.5932	1532.2893	62953.05	62049.3
892.7361	1534.0824	62890.9	61980.45
892.879	1535.8747	62852.35	61945.4
893.0218	1537.6663	62935.1	62028.15
893.1647	1539.4572	62708.8	61802.55
893.3075	1541.2473	62832.5	61926.9
893.4503	1543.0367	62815.2	61912.4
893.5931	1544.8253	62776.85	61869.45
893.7359	1546.6132	62818.95	61910
893.8787	1548.4003	62740.15	61826.1
894.0214	1550.1867	62698.8	61783.95
894.1642	1551.9723	62674.05	61763.3
894.3069	1553.7572	62679.85	61770.55
894.4496	1555.5414	62757.55	61852.5
894.5923	1557.3247	62490.15	61585.6
894.735	1559.1074	62686.6	61787.35
894.8777	1560.8893	62577.25	61678.3
895.0204	1562.6705	62624.5	61722.75
895.163	1564.4509	62486.1	61583.8
895.3056	1566.2305	62536.85	61637.35
895.4482	1568.0094	62626.1	61728.45
895.5908	1569.7876	62553.75	61652.55
895.7334	1571.565	62425.9	61521.7
895.876	1573.3417	62495.25	61592.05
896.0186	1575.1176	62474.45	61573.95
896.1611	1576.8928	62433	61534.6
896.3036	1578.6672	62329	61433.9
896.4461	1580.4409	62401.3	61506.2
896.5886	1582.2138	62260.55	61360.95
896.7311	1583.986	62335.4	61435.5
896.8736	1585.7575	62234.15	61333.7
897.0161	1587.5282	62278.55	61380.45
897.1585	1589.2981	62277.25	61377.95
897.3009	1591.0673	62158.4	61261.55
897.4433	1592.8358	62098.55	61202.85
897.5857	1594.6035	62214.05	61312
897.7281	1596.3704	62203.4	61302.7
897.8705	1598.1366	61993.2	61093.4
898.0128	1599.9021	61928.25	61029.65
898.1551	1601.6668	62098.35	61198.3
898.2975	1603.4308	61999.8	61100.85
898.4398	1605.194	62028.9	61124.55
898.5821	1606.9564	61758.25	60861.1
898.7243	1608.7182	61923.65	61026.95
898.8666	1610.4791	61806	60914.9
899.0088	1612.2394	61968.05	61078.5
899.1511	1613.9988	61780.3	60886.35
899.2933	1615.7576	61948.8	61053.35
899.4355	1617.5156	61957.75	61050.45
899.5776	1619.2728	62100.9	61200.05
899.7198	1621.0293	61765.7	60868.1
899.862	1622.785	61732.05	60832.9
900.0041	1624.54	61816.25	60920.45
900.1462	1626.2942	61637.25	60740.8
900.2883	1628.0477	61358	60460.5
900.4304	1629.8005	61180.85	60284.35
900.5725	1631.5525	61373.65	60479.55
900.7145	1633.3037	61083.95	60191.7
900.8566	1635.0542	61044.25	60151.45
900.9986	1636.804	61157.05	60261.7
901.1406	1638.553	60838.7	59898.85
901.2826	1640.3013	60942.7	60046.35
901.4245	1642.0488	60775.95	59880.55
901.5665	1643.7955	60903.25	60008.55
901.7085	1645.5416	60808.1	59914.45
901.8504	1647.2868	60691.05	59795.7
901.9923	1649.0313	60853.05	59958.2
902.1342	1650.7751	60735.3	59837.1
902.2761	1652.5181	60630.8	59736.8
902.4179	1654.2604	60651.3	59757.3
902.5598	1656.0019	60713.9	59821.05
902.7016	1657.7427	60631.05	59735.35
902.8434	1659.4828	60723.3	59829.15
902.9852	1661.222	60588.25	59690.55
903.127	1662.9606	60720.95	59826.2
903.2687	1664.6984	60477.65	59581.6
903.4105	1666.4354	60537.3	59639
903.5522	1668.1717	60215.15	59317.1
903.6939	1669.9072	59907.35	59011
903.8356	1671.642	59831	58927.5
903.9773	1673.3761	59718.7	58823.9
904.119	1675.1094	59648.35	58752.15
904.2606	1676.8419	59385.95	58492.2
904.4022	1678.5737	59409.65	58515.05
904.5439	1680.3048	59270.35	58374
904.6855	1682.0351	59116.5	58220.25
904.827	1683.7646	59002.15	58102.45
904.9686	1685.4934	59104.3	58209.15
905.1101	1687.2215	58555.3	57659.5
905.2517	1688.9488	58882.7	57989.8
905.3932	1690.6754	58120.9	57226
905.5347	1692.4012	58469.85	57572.6
905.6761	1694.1263	58495.3	57597.45
905.8176	1695.8506	58207	57309.45
905.9591	1697.5742	58204.05	57311.25
906.1005	1699.297	58086.65	57194.3
906.2419	1701.0191	58139.75	57246.75
906.3833	1702.7404	57712.8	56821.9
906.5246	1704.461	57547.35	56651.75
906.666	1706.1808	57766.4	56872.05
906.8073	1707.8999	57583.65	56689.9
906.9487	1709.6182	57492.15	56600.3
907.09	1711.3358	57409.75	56520.65
907.2313	1713.0527	57326.1	56438.55
907.3725	1714.7688	57303.35	56405.8
907.5138	1716.4841	56795.15	55901.45
907.655	1718.1987	56992.3	56095.65
907.7962	1719.9126	56825.3	55933.35
907.9374	1721.6257	56897.4	56006
908.0786	1723.338	56905.5	56015.25
908.2198	1725.0496	56276.7	55385.1
908.3609	1726.7605	56346.25	55452.95
908.502	1728.4706	56085.9	55195.55
908.6431	1730.18	56228.6	55338
908.7842	1731.8886	55973.2	55084.95
908.9253	1733.5964	55795.4	54901.4
909.0664	1735.3036	56058.95	55165.25
909.2074	1737.0099	55841.45	54949.15
909.3484	1738.7156	55565.85	54677.2
909.4894	1740.4204	55396.05	54502.2
909.6304	1742.1246	55478.8	54587.45
909.7714	1743.8279	55515.9	54627
909.9123	1745.5306	55467.5	54579.45
910.0532	1747.2325	54822.6	53933.4
910.1941	1748.9336	54805.9	53917.8
910.335	1750.634	54883.85	53992.95
910.4759	1752.3336	55016	54124.3
910.6168	1754.0325	54612.8	53724.5
910.7576	1755.7307	54979.6	54090.15
910.8984	1757.4281	54386.7	53499.6
911.0392	1759.1247	54767.75	53865.2
911.18	1760.8206	54119.7	53224.5
911.3208	1762.5158	54204.15	53307.8
911.4615	1764.2102	54256.15	53366.65
911.6022	1765.9039	54113.35	53224.2
911.7429	1767.5968	53912	53020.05
911.8836	1769.289	53793.8	52904.1
912.0243	1770.9804	53821.45	52929.75
912.1649	1772.6711	53724.6	52830.25
912.3056	1774.361	53596.05	52703.95
912.4462	1776.0502	53634	52742.05
912.5868	1777.7386	53131	52238.8
912.7274	1779.4263	53333.5	52442.3
912.8679	1781.1132	53315.75	52425.95
913.0084	1782.7994	53146.4	52257.8
913.149	1784.4849	53167.25	52279.4
913.2895	1786.1696	52587.75	51693.4
913.4299	1787.8535	52789.65	51902.25
913.5704	1789.5367	52838.3	51951.85
913.7108	1791.2192	52503.55	51614.65
913.8513	1792.9009	52275.2	51356.35
913.9917	1794.5818	52423.1	51532.75
914.132	1796.2621	52100.2	51211.25
914.2724	1797.9415	52139.3	51247.05
914.4128	1799.6202	52035.25	51144
914.5531	1801.2982	52009.95	51120
914.6934	1802.9755	51686.9	50794.35
914.8337	1804.6519	51561.4	50671.2
914.9739	1806.3277	51895.3	51004.8
915.1142	1808.0027	51179.1	50292.9
915.2544	1809.6769	51434.45	50545.6
915.3946	1811.3504	51421.8	50532.55
915.5348	1813.0231	50859.15	49972.05
915.675	1814.6951	51206.65	50318.75
915.8151	1816.3664	50971.2	50080.05
915.9553	1818.0369	50915.7	50024.55
916.0954	1819.7067	50687.45	49798.85
916.2355	1821.3757	50982.8	50090.35
916.3755	1823.044	50442.15	49551.3
916.5156	1824.7115	50221.75	49332.15
916.6556	1826.3783	50281.9	49392.2
916.7956	1828.0443	50309.8	49423.25
916.9356	1829.7096	49982	49093.65
917.0756	1831.3741	49653.65	48762.4
917.2155	1833.0379	49803.75	48914.85
917.3555	1834.701	49757.15	48869.05
917.4954	1836.3633	49446.3	48558.15
917.6353	1838.0248	49585	48697.65
917.7751	1839.6856	49441.2	48551.3
917.915	1841.3457	49157.2	48269.1
918.0548	1843.005	49411.3	48521.6
918.1946	1844.6636	49098.65	48210.6
918.3344	1846.3214	48710.65	47821.4
918.4742	1847.9785	48833.85	47945.9
918.6139	1849.6349	48733.35	47842
918.7537	1851.2904	48914.55	48012.85
918.8934	1852.9453	48420.7	47527.3
919.0331	1854.5994	48496.8	47605
919.1727	1856.2528	48542.75	47648.7
919.3124	1857.9054	48170.65	47282.6
919.452	1859.5572	48047	47158.2
919.5916	1861.2083	48172.2	47282.65
919.7312	1862.8587	48437.3	47549
919.8708	1864.5084	47655.9	46764.35
920.0103	1866.1572	47838.65	46947.55
920.1498	1867.8054	47442.9	46550.15
920.2893	1869.4528	47635.75	46744.65
920.4288	1871.0994	47272.7	46381.05
920.5683	1872.7453	47244.4	46353.3
920.7077	1874.3905	47233.05	46338.05
920.8471	1876.0349	46972.1	46082.05
920.9865	1877.6786	47101.1	46210.45
921.1259	1879.3215	46846.65	45958.9
921.2653	1880.9637	47056.75	46166.2
921.4046	1882.6051	46778.6	45888.4
921.5439	1884.2458	46582.35	45692.4
921.6832	1885.8858	46364	45475.75
921.8225	1887.525	46396	45505.1
921.9617	1889.1634	46232.15	45343.4
922.101	1890.8011	46026.4	45134.55
922.2402	1892.4381	45731.7	44842.15
922.3794	1894.0743	46012.75	45123
922.5185	1895.7098	45826.2	44937.15
922.6577	1897.3446	45581.4	44692.5
922.7968	1898.9786	45604.55	44709.25
922.9359	1900.6118	45399.6	44510.9
923.075	1902.2443	45108.7	44218.25
923.214	1903.8761	45216.25	44327.9
923.3531	1905.5071	44983.1	44093.2
923.4921	1907.1374	44616.7	43727.65
923.6311	1908.7669	44721.55	43834.3
923.77	1910.3957	44721.2	43831.85
923.909	1912.0237	44327	43438.55
924.0479	1913.651	44228.2	43337.75
924.1868	1915.2776	44049.65	43161.3
924.3257	1916.9034	43934.55	43048.4
924.4646	1918.5285	43803.45	42915.45
924.6034	1920.1528	43675.3	42787.55
924.7422	1921.7764	43593.95	42704.25
924.881	1923.3992	43427.45	42537.7
925.0198	1925.0213	43193.35	42302.9
925.1586	1926.6427	42938.65	42051.1
925.2973	1928.2633	43070.25	41971.15
925.436	1929.8832	42768.8	41875.9
925.5747	1931.5023	42570.35	41680.2
925.7134	1933.1207	42394	41505.5
925.852	1934.7383	42510.55	41618.25
925.9906	1936.3552	42228.4	41340.45
926.1292	1937.9714	42148.15	41258.75
926.2678	1939.5868	42029.5	41138.45
926.4064	1941.2015	41752.75	40863.5
926.5449	1942.8154	41620.15	40731.25
926.6834	1944.4286	41460.7	40572.2
926.8219	1946.041	41351.35	40437.8
926.9604	1947.6528	41132	40235.25
927.0988	1949.2637	41059	40170.75
927.2372	1950.8739	40861.6	39971.8
927.3756	1952.4834	40818.45	39928.45
927.514	1954.0921	40796.15	39904.8
927.6523	1955.7001	40531.1	39640.65
927.7907	1957.3074	40496.7	39611.15
927.929	1958.9139	40269	39383.6
928.0673	1960.5197	40148.5	39261.85
928.2055	1962.1247	40009.65	39121.75
928.3438	1963.729	39791.5	38903.75
928.482	1965.3325	39699.9	38790.45
928.6202	1966.9353	39634.45	38747.9
928.7584	1968.5374	39384.65	38498.15
928.8965	1970.1387	39319.7	38435.3
929.0346	1971.7393	39174.9	38287.55
929.1727	1973.3392	39044.1	38155.75
929.3108	1974.9383	38860	37975.35
929.4489	1976.5366	38709.15	37821.75
929.5869	1978.1342	38698.8	37812.05
929.7249	1979.7311	38576.15	37688.95
929.8629	1981.3273	38463.25	37578.65
930.0009	1982.9227	38312.2	37424.8
930.1388	1984.5173	38222	37338.1
930.2767	1986.1112	38036.5	37151.95
930.4146	1987.7044	38003.25	37119.3
930.5525	1989.2968	37844.85	36958.05
930.6904	1990.8885	37761.3	36874.9
930.8282	1992.4795	37661.25	36775.15
930.966	1994.0697	37541.4	36656.45
931.1038	1995.6592	37431.3	36545.8
931.2415	1997.2479	37298.25	36413.7
931.3793	1998.8359	37188.1	36305.95
931.517	2000.4232	36996.2	36113.95
931.6547	2002.0097	36915	36034.95
931.7923	2003.5955	36743.6	35860.65
931.93	2005.1805	36709.35	35823.8
932.0676	2006.7648	36594	35712.05
932.2052	2008.3484	36508	35625.45
932.3427	2009.9312	36480.6	35597.6
932.4803	2011.5133	36342.35	35459.95
932.6178	2013.0946	36233.4	35354.6
932.7553	2014.6752	36152	35270.45
932.8928	2016.2551	36057.45	35175.15
933.0302	2017.8342	35892.75	35010.65
933.1676	2019.4126	35779.75	34897.75
933.305	2020.9902	35584.15	34705.1
933.4424	2022.5672	35569.15	34685.75
933.5798	2024.1433	35505.3	34618.05
933.7171	2025.7188	35390.5	34509.35
933.8544	2027.2935	35238.9	34356
933.9917	2028.8674	35135.4	34252.3
934.129	2030.4406	35004.8	34124.35
934.2662	2032.0131	34826.6	33945.1
934.4034	2033.5849	34748.9	33860.95
934.5406	2035.1559	34668.8	33788.1
934.6778	2036.7261	34628.25	33747.4
934.8149	2038.2957	34534.2	33652.25
934.952	2039.8645	34436.15	33548.9
935.0891	2041.4325	34450.1	33564.35
935.2262	2042.9998	34247.25	33364.75
935.3632	2044.5664	34198.2	33316.8
935.5002	2046.1323	34106.3	33224.4
935.6372	2047.6974	33992.15	33110.3
935.7742	2049.2617	33890.15	33009.05
935.9111	2050.8254	33855.65	32967.5
936.048	2052.3883	33820.3	32937
936.1849	2053.9504	33685.6	32803.35
936.3218	2055.5118	33533.9	32649.65
936.4586	2057.0725	33385.1	32497.6
936.5955	2058.6325	33291.95	32409.6
936.7323	2060.1917	33175.5	32293.3
936.869	2061.7502	33123.85	32239.85
937.0058	2063.3079	33001.7	32119.7
937.1425	2064.8649	32862.25	31977.6
937.2792	2066.4212	32786.4	31905.55
937.4159	2067.9767	32685.55	31802.75
937.5525	2069.5315	32548.2	31665.7
937.6891	2071.0856	32406.65	31524
937.8257	2072.6389	32305.75	31423.7
937.9623	2074.1915	32158.45	31275.25
938.0989	2075.7433	31969.95	31085.85
938.2354	2077.2945	31988.25	31107.05
938.3719	2078.8448	31851.3	30968.95
938.5084	2080.3945	31743.1	30859.85
938.6448	2081.9434	31740.25	30857.75
938.7812	2083.4916	31631.75	30746.5
938.9176	2085.039	31475.85	30589.35
939.054	2086.5857	31391.2	30504.4
939.1903	2088.1317	31361.55	30473.55
939.3267	2089.677	31296.8	30409.4
939.463	2091.2215	31169.85	30283.2
939.5992	2092.7652	31079.9	30192
939.7355	2094.3083	31044.15	30157.2
939.8717	2095.8506	30944.65	30060.65
940.0079	2097.3921	30937.45	30052.95
940.1441	2098.933	30782.7	29896.95
940.2802	2100.4731	30752	29868.25
940.4163	2102.0124	30694.6	29792.25
940.5524	2103.5511	30604.1	29719.1
940.6885	2105.089	30579.4	29694.45
940.8245	2106.6261	30494.7	29610.25
940.9606	2108.1626	30398.15	29514.75
941.0965	2109.6983	30326.7	29415.05
941.2325	2111.2332	30212.6	29327.6
941.3684	2112.7675	30162.6	29276.65
941.5044	2114.301	30081.25	29192.6
941.6403	2115.8337	30050.95	29165.65
941.7761	2117.3657	29946.9	29061.75
941.912	2118.897	29853.3	28968.15
942.0478	2120.4276	29744.25	28851.1
942.1835	2121.9575	29596.2	28710.15
942.3193	2123.4866	29613.4	28715.8
942.455	2125.0149	29518.3	28630.1
942.5907	2126.5426	29337.9	28455.8
942.7264	2128.0695	29313.1	28424.4
942.8621	2129.5956	29225.9	28343.6
942.9977	2131.1211	29144.75	28256.85
943.1333	2132.6458	29076.8	28191.25
943.2689	2134.1698	29055	28169.8
943.4044	2135.693	28933.3	28043.45
943.54	2137.2155	28843.6	27955.15
943.6755	2138.7373	28779.5	27894.45
943.8109	2140.2584	28679.6	27797.35
943.9464	2141.7787	28585.6	27699.95
944.0818	2143.2983	28427.9	27549.2
944.2172	2144.8171	28307.8	27427.25
944.3526	2146.3353	28259.7	27373.25
944.4879	2147.8527	28111.4	27228.9
944.6232	2149.3693	28141.75	27256.25
944.7585	2150.8853	28045.15	27158.5
944.8938	2152.4005	27897.05	27011.65
945.029	2153.9149	27800.25	26913.95
945.1642	2155.4287	27768.1	26878.65
945.2994	2156.9417	27706.55	26820.6
945.4346	2158.454	27616.6	26729.7
945.5697	2159.9655	27557.35	26675.75
945.7048	2161.4764	27536.6	26653.3
945.8399	2162.9865	27407.15	26524.4
945.9749	2164.4958	27351.55	26467.7
946.1099	2166.0045	27210.7	26324.15
946.2449	2167.5124	27180.8	26297.9
946.3799	2169.0195	27086	26199.85
946.5148	2170.526	27064.85	26180.2
946.6498	2172.0317	26938.8	26052.5
946.7846	2173.5367	26921.35	26035.5
946.9195	2175.0409	26832.9	25949.25
947.0543	2176.5445	26800.05	25914.9
947.1891	2178.0473	26691.1	25805.2
947.3239	2179.5494	26545.65	25655.55
947.4587	2181.0507	26475.3	25590.8
947.5934	2182.5513	26400.15	25514.45
947.7281	2184.0512	26328.8	25443.05
947.8628	2185.5504	26259.8	25374.45
947.9974	2187.0488	26110.5	25226.85
948.132	2188.5465	26037	25155.2
948.2666	2190.0435	25928.4	25043.75
948.4012	2191.5397	25849.1	24965.25
948.5357	2193.0353	25770.9	24886.6
948.6702	2194.5301	25649.3	24762.6
948.8047	2196.0241	25512.95	24627.3
948.9392	2197.5175	25489.25	24600.65
949.0736	2199.0101	25328.95	24439
949.208	2200.502	25261.6	24378.2
949.3424	2201.9931	25178.1	24293.95
949.4767	2203.4835	25133.8	24248.9
949.611	2204.9733	25056.05	24169.05
949.7453	2206.4622	25000.25	24119.1
949.8796	2207.9505	24871.75	23985.3
950.0138	2209.438	24785.05	23902.7
950.148	2210.9248	24703.65	23817.65
950.2822	2212.4109	24601.3	23719.8
950.4164	2213.8962	24515.75	23628
950.5505	2215.3809	24507.05	23621.15
950.6846	2216.8648	24395.8	23506.65
950.8186	2218.3479	24291.5	23399.15
950.9527	2219.8304	24251.3	23359.9
951.0867	2221.3121	24172.35	23281.6
951.2207	2222.7931	24081.2	23195.6
951.3546	2224.2733	23938	23050.8
951.4886	2225.7529	23880.3	22996.8
951.6225	2227.2317	23793.6	22907.85
951.7563	2228.7098	23797	22914.1
951.8902	2230.1872	23630.7	22747.4
952.024	2231.6638	23639.2	22758.95
952.1578	2233.1397	23526.1	22636.05
952.2916	2234.6149	23441.05	22557.85
952.4253	2236.0894	23382.55	22496.65
952.559	2237.5632	23333.15	22447.35
952.6927	2239.0362	23205.65	22319.2
952.8263	2240.5085	23133.2	22248.95
952.9599	2241.9801	23058.55	22173.45
953.0935	2243.4509	23006.4	22120.05
953.2271	2244.921	22928.7	22040.3
953.3606	2246.3904	22818.65	21928.5
953.4941	2247.8591	22749.6	21861.1
953.6276	2249.3271	22685.1	21800.45
953.7611	2250.7943	22647.35	21758.35
953.8945	2252.2608	22530.4	21644.3
954.0279	2253.7266	22499.55	21614.85
954.1612	2255.1917	22400.15	21513.45
954.2946	2256.656	22335.3	21449.55
954.4279	2258.1197	22254.85	21371.55
954.5612	2259.5826	22184.95	21297.7
954.6944	2261.0447	22157.25	21272.1
954.8276	2262.5062	22062.5	21173.85
954.9608	2263.9669	22011.55	21124.55
955.094	2265.4269	21983.65	21099.25
955.2271	2266.8862	21867.65	20983
955.3602	2268.3448	21852.75	20969.05
955.4933	2269.8026	21796.55	20911.6
955.6264	2271.2598	21741.6	20857.5
955.7594	2272.7162	21633.3	20749.45
955.8924	2274.1719	21615.35	20727.35
956.0253	2275.6268	21539.75	20653.35
956.1583	2277.0811	21490.65	20603.65
956.2912	2278.5346	21438.3	20553.2
956.4241	2279.9874	21383.5	20499.8
956.5569	2281.4395	21360.45	20478
956.6897	2282.8908	21231.8	20342.65
956.8225	2284.3414	21190.35	20302.65
956.9553	2285.7914	21100.15	20216.15
957.088	2287.2406	21029	20142.1
957.2207	2288.689	20991.9	20104.6
957.3534	2290.1368	20920.2	20031.5
957.486	2291.5838	20857.85	19965.7
957.6186	2293.0302	20780.8	19889.85
957.7512	2294.4758	20681	19793.45
957.8838	2295.9206	20593.4	19703.85
958.0163	2297.3648	20560.7	19676.95
958.1488	2298.8082	20498.6	19611.05
958.2813	2300.251	20469.7	19583.9
958.4137	2301.693	20398.8	19510.05
958.5461	2303.1343	20350.7	19463.65
958.6785	2304.5748	20291.05	19406.6
958.8108	2306.0147	20197.2	19312.3
958.9432	2307.4538	20134.65	19248.05
959.0754	2308.8922	20111.05	19227.7
959.2077	2310.3299	19990	19106.8
959.3399	2311.7669	19962.1	19079.05
959.4721	2313.2031	19875.5	18988.8
959.6043	2314.6387	19850.85	18965.2
959.7365	2316.0735	19770	18884.7
959.8686	2317.5076	19747.1	18862.2
960.0006	2318.941	19669.85	18783
960.1327	2320.3737	19614.9	18724.9
960.2647	2321.8056	19545.45	18658.3
960.3967	2323.2369	19482.6	18594.6
960.5287	2324.6674	19426	18538.05
960.6606	2326.0972	19337.95	18449.8
960.7925	2327.5263	19288.3	18400.35
960.9244	2328.9547	19219.75	18333.55
961.0562	2330.3823	19165	18276.55
961.1881	2331.8092	19178.05	18286.75
961.3198	2333.2355	19044.65	18159.3
961.4516	2334.661	19045.35	18160.3
961.5833	2336.0858	19029.3	18142.6
961.715	2337.5098	18918.9	18034.3
961.8467	2338.9332	18907.95	18019.05
961.9783	2340.3558	18808.15	17919
962.1099	2341.7778	18733.45	17847.95
962.2415	2343.199	18680.75	17792.15
962.373	2344.6195	18610.65	17725.65
962.5045	2346.0393	18579.85	17694.9
962.636	2347.4583	18540.3	17654.55
962.7675	2348.8767	18455.6	17569.3
962.8989	2350.2943	18439.15	17552.15
963.0303	2351.7113	18430.1	17540.15
963.1617	2353.1275	18280.9	17391.65
963.293	2354.543	18260.8	17365.9
963.4243	2355.9578	18210.35	17320.85
963.5556	2357.3718	18088	17202.55
963.6868	2358.7852	18001.4	17112.3
963.818	2360.1978	17974.45	17088.3
963.9492	2361.6098	17909.55	17023.35
964.0803	2363.021	17864.25	16973.45
964.2114	2364.4315	17805.85	16920.5
964.3425	2365.8413	17751.95	16862.25
964.4736	2367.2504	17664.95	16778.2
964.6046	2368.6587	17589.65	16706.3
964.7356	2370.0664	17530.8	16645.45
964.8666	2371.4733	17472.5	16586.2
964.9975	2372.8795	17466.75	16582.1
965.1284	2374.285	17385.5	16496.9
965.2593	2375.6899	17282.6	16398.45
965.3901	2377.0939	17226.95	16340.6
965.5209	2378.4973	17156.55	16270.4
965.6517	2379.9	17106.8	16222.5
965.7825	2381.3019	17033.2	16146.1
965.9132	2382.7032	16974.4	16090.55
966.0439	2384.1037	16950.7	16067.55
966.1745	2385.5035	16905.75	16021.5
966.3051	2386.9027	16840	15958.15
966.4357	2388.3011	16831.25	15944.4
966.5663	2389.6987	16766.65	15881.3
966.6968	2391.0957	16695.7	15811
966.8273	2392.492	16597.85	15715.3
966.9578	2393.8876	16508.1	15623.05
967.0882	2395.2824	16473.65	15587.55
967.2186	2396.6765	16423.9	15536.75
967.349	2398.07	16345.5	15460.55
967.4793	2399.4627	16314.15	15428.05
967.6097	2400.8547	16285.15	15399.5
967.7399	2402.246	16196.8	15304.3
967.8702	2403.6366	16119.5	15234.1
968.0004	2405.0265	16028.85	15145
968.1306	2406.4156	15952	15061.35
968.2607	2407.8041	15924.35	15035.3
968.3909	2409.1918	15862.45	14973.65
968.521	2410.5789	15777.95	14893.2
968.651	2411.9652	15730.5	14841.7
968.781	2413.3508	15684.55	14796.75
968.911	2414.7358	15622.45	14737.5
969.041	2416.12	15564.35	14677
969.1709	2417.5035	15552.6	14666.6
969.3008	2418.8863	15467.1	14579.65
969.4307	2420.2684	15456.55	14569.35
969.5606	2421.6497	15320	14435.15
969.6904	2423.0304	15223.45	14338.55
969.8201	2424.4104	15229.1	14343.05
969.9499	2425.7896	15182.4	14295.7
970.0796	2427.1682	15159.95	14275.5
970.2093	2428.546	15104	14218.25
970.3389	2429.9232	15069.7	14181.9
970.4685	2431.2996	15048.4	14162.95
970.5981	2432.6753	14977.3	14091.05
970.7277	2434.0503	14907.85	14021.1
970.8572	2435.4246	14845.55	13960.2
970.9867	2436.7982	14809.2	13920.7
971.1161	2438.1711	14748.05	13861.6
971.2456	2439.5433	14712.35	13826.05
971.375	2440.9148	14647.35	13758.2
971.5043	2442.2856	14586.6	13702.25
971.6336	2443.6557	14551.45	13662.5
971.7629	2445.025	14464.75	13578.75
971.8922	2446.3937	14481.8	13595.6
972.0214	2447.7617	14415.4	13528.2
972.1506	2449.1289	14403.8	13517.4
972.2798	2450.4955	14369.3	13480.9
972.4089	2451.8613	14292.65	13407.75
972.538	2453.2265	14261.8	13375.9
972.6671	2454.5909	14231.6	13346.65
972.7961	2455.9546	14187.65	13301.5
972.9251	2457.3177	14137.7	13252.4
973.0541	2458.68	14073.9	13187.4
973.1831	2460.0416	14085.55	13201.7
973.312	2461.4025	14049.05	13161
973.4408	2462.7627	13952.55	13055.2
973.5697	2464.1222	13917.5	13033.35
973.6985	2465.4811	13902.65	13017.55
973.8273	2466.8392	13827.1	12942.1
973.956	2468.1966	13814.65	12926.5
974.0847	2469.5533	13802.85	12914.5
974.2134	2470.9093	13762.45	12877.15
974.3421	2472.2645	13707.75	12821.95
974.4707	2473.6191	13649.85	12763.4
974.5993	2474.973	13607.1	12722.8
974.7278	2476.3262	13558.75	12671.8
974.8563	2477.6787	13473.85	12591.15
974.9848	2479.0305	13408.1	12522.25
975.1132	2480.3816	13368.15	12482.05
975.2417	2481.7319	13362.7	12477.3
975.37	2483.0816	13293.2	12406.75
975.4984	2484.4306	13241.05	12355.2
975.6267	2485.7789	13177.75	12293.45
975.755	2487.1264	13135.75	12250.45
975.8833	2488.4733	13107.25	12223.35
976.0115	2489.8195	13034.7	12141.05
976.1397	2491.165	12985.95	12097.4
976.2678	2492.5097	12953.6	12066.5
976.3959	2493.8538	12901.1	12017.85
976.524	2495.1972	12823.8	11938.15
976.6521	2496.5398	12767.9	11879.15
976.7801	2497.8818	12779.6	11890.9
976.9081	2499.2231	12714.7	11827.35
977.036	2500.5637	12665.85	11779.45
977.164	2501.9035	12606.95	11720.65
977.2918	2503.2427	12582.05	11693.05
977.4197	2504.5812	12527.5	11643.05
977.5475	2505.919	12490.45	11602.05
977.6753	2507.256	12499.35	11612.65
977.8031	2508.5924	12467.05	11581.8
977.9308	2509.9281	12403.8	11510.9
978.0585	2511.2631	12359.95	11474.75
978.1861	2512.5974	12333.05	11449.15
978.3137	2513.9309	12244.15	11359.3
978.4413	2515.2638	12244.85	11328.9
978.5689	2516.596	12180.9	11295.6
978.6964	2517.9275	12112.2	11228.7
978.8239	2519.2583	12087.6	11200.6
978.9513	2520.5884	12045.5	11159.3
979.0788	2521.9178	11999.45	11115.65
979.2062	2523.2465	11957.75	11074
979.3335	2524.5745	11909.7	11027.05
979.4608	2525.9018	11882	10996.25
979.5881	2527.2284	11842.8	10956.75
979.7154	2528.5543	11821	10934.85
979.8426	2529.8796	11766.55	10881.3
979.9698	2531.2041	11749.6	10863.9
980.0969	2532.5279	11714.3	10830.85
980.224	2533.851	11690.05	10803.9
980.3511	2535.1735	11655.8	10772.05
980.4781	2536.4952	11637.75	10751.6
980.6052	2537.8163	11603.35	10715.7
980.7321	2539.1366	11547.7	10661.15
980.8591	2540.4562	11527.35	10639.8
980.986	2541.7752	11493.6	10609.4
981.1129	2543.0935	11468.4	10582.4
981.2397	2544.411	11451.5	10564.85
981.3665	2545.7279	11407.4	10521.65
981.4933	2547.0441	11411.2	10525.95
981.62	2548.3596	11415.65	10528.15
981.7467	2549.6744	11366.9	10480.7
981.8734	2550.9885	11313.6	10419.65
982.0001	2552.3019	11278.75	10391.9
982.1267	2553.6146	11238.85	10351.8
982.2532	2554.9266	11217.75	10334.15
982.3798	2556.2379	11177.25	10292.15
982.5063	2557.5485	11146.75	10262.5
982.6327	2558.8585	11130.2	10237.6
982.7592	2560.1677	11117.1	10225.75
982.8856	2561.4762	11066.65	10179.5
983.0119	2562.7841	11062.8	10172.4
983.1383	2564.0913	11033.5	10149.35
983.2646	2565.3977	11002.75	10116.5
983.3908	2566.7035	10979.15	10093.75
983.517	2568.0086	10947.35	10060.3
983.6432	2569.313	10930.45	10046.55
983.7694	2570.6167	10884.25	9995.8
983.8955	2571.9197	10875.25	9989.3
984.0216	2573.222	10869.35	9978.95
984.1476	2574.5236	10847.9	9961.7
984.2737	2575.8246	10788.7	9899.5
984.3996	2577.1248	10800.65	9913.3
984.5256	2578.4244	10757.1	9871.95
984.6515	2579.7232	10729.4	9842.25
984.7774	2581.0214	10722.9	9812.7
984.9032	2582.3189	10670.05	9784.5
985.029	2583.6157	10655.95	9767.05
985.1548	2584.9118	10633	9748.7
985.2806	2586.2072	10616.45	9732.05
985.4063	2587.5019	10568.55	9681.4
985.5319	2588.7959	10545.7	9658.05
985.6576	2590.0893	10497.7	9608.7
985.7832	2591.3819	10458.1	9572.7
985.9087	2592.6739	10394.9	9508.15
986.0343	2593.9652	10419.65	9533.7
986.1597	2595.2557	10382.35	9498.85
986.2852	2596.5456	10330.6	9441.9
986.4106	2597.8348	10273.6	9390.2
986.536	2599.1234	10250.6	9365.65
986.6614	2600.4112	10220.05	9333.35
986.7867	2601.6983	10174.6	9284.6
986.912	2602.9848	10118.45	9231.8
987.0372	2604.2705	10104.75	9210.05
987.1624	2605.5556	10074	9189.6
987.2876	2606.84	10042	9155.55
987.4128	2608.1237	10003.15	9118.35
987.5379	2609.4067	9943.4	9058.2
987.6629	2610.689	9923.05	9031.4
987.788	2611.9707	9899.85	9009.95
987.913	2613.2516	9873.25	8983.5
988.0379	2614.5319	9810.3	8925.25
988.1629	2615.8115	9772.85	8886.3
988.2878	2617.0903	9754.05	8867.95
988.4126	2618.3685	9725.5	8839.4
988.5375	2619.6461	9691.3	8806.7
988.6622	2620.9229	9637.85	8752.55
988.787	2622.199	9629	8743.35
988.9117	2623.4745	9597.8	8710.5
989.0364	2624.7493	9572.55	8686.35
989.161	2626.0234	9512.6	8626.6
989.2857	2627.2968	9463.7	8580.25
989.4102	2628.5695	9421.45	8534.3
989.5348	2629.8415	9386.6	8504.1
989.6593	2631.1128	9368.3	8480.55
989.7837	2632.3835	9311.6	8426.4
989.9082	2633.6535	9272.35	8388.4
990.0326	2634.9228	9261.55	8378
990.1569	2636.1914	9243.65	8359.15
990.2812	2637.4593	9201.25	8309.65
990.4055	2638.7265	9153.55	8266.65
990.5298	2639.9931	9132.9	8249.6
990.654	2641.259	9098	8212.05
990.7782	2642.5242	9079.15	8193.3
990.9023	2643.7887	9045.9	8158.6
991.0264	2645.0525	9025.9	8140.85
991.1505	2646.3156	8999.6	8110.8
991.2745	2647.5781	8948.95	8065.5
991.3985	2648.8398	8933.25	8051.45
991.5225	2650.1009	8925.4	8006.15
991.6464	2651.3613	8888.55	8004.95
991.7703	2652.6211	8856.9	7971
991.8942	2653.8801	8817.75	7932.25
992.018	2655.1385	8798	7911.25
992.1418	2656.3961	8767.35	7882.75
992.2655	2657.6531	8762.45	7878.5
992.3892	2658.9094	8759.55	7871.75
992.5129	2660.1651	8700.1	7818.7
992.6366	2661.42	8712.85	7830.35
992.7602	2662.6743	8679.95	7793.35
992.8837	2663.9279	8643.75	7760.55
993.0073	2665.1808	8620.65	7735.85
993.1307	2666.433	8588.7	7702.35
993.2542	2667.6846	8572.5	7688.75
993.3776	2668.9354	8556.9	7668.85
993.501	2670.1856	8527.45	7640.45
993.6244	2671.4351	8509.85	7625.55
993.7477	2672.6839	8505.45	7620.75
993.8709	2673.9321	8476.4	7591.35
993.9942	2675.1795	8440.5	7553.95
994.1174	2676.4263	8419.4	7536.35
994.2405	2677.6724	8374.85	7490.65
994.3637	2678.9179	8354	7469.05
994.4868	2680.1626	8339.4	7455.6
994.6098	2681.4067	8299.8	7414.5
994.7328	2682.6501	8289.55	7405.1
994.8558	2683.8928	8257.7	7374.3
994.9788	2685.1348	8242.15	7356.25
995.1017	2686.3761	8183.5	7300.65
995.2245	2687.6168	8162.2	7278.55
995.3474	2688.8568	8123.35	7239.15
995.4702	2690.0961	8097.65	7214.55
995.5929	2691.3348	8064.8	7180.05
995.7156	2692.5727	8034.35	7149.95
995.8383	2693.81	8030.5	7146.05
995.961	2695.0466	7985.1	7101.25
996.0836	2696.2826	7971.1	7085.15
996.2062	2697.5178	7975.4	7084.65
996.3287	2698.7524	7941.85	7058.9
996.4512	2699.9863	7940.1	7054.5
996.5737	2701.2195	7857.95	6973.35
996.6961	2702.452	7851.7	6966.1
996.8185	2703.6839	7842.15	6956.8
996.9408	2704.9151	7817.45	6934.5
997.0631	2706.1456	7792.2	6907.85
997.1854	2707.3755	7752.95	6867.85
997.3077	2708.6046	7751.95	6865
997.4299	2709.8331	7731.25	6845.85
997.552	2711.0609	7705.05	6819.1
997.6742	2712.2881	7684.6	6801.45
997.7963	2713.5145	7653.6	6768.65
997.9183	2714.7403	7631.85	6749.55
998.0403	2715.9654	7616	6729.25
998.1623	2717.1899	7593.8	6709.35
998.2842	2718.4136	7577.4	6693.75
998.4062	2719.6367	7560.4	6675.7
998.528	2720.8591	7529.75	6638.95
998.6498	2722.0809	7496.55	6611.15
998.7716	2723.3019	7484.1	6597.65
998.8934	2724.5223	7468.95	6582.25
999.0151	2725.7421	7445.8	6558.6
999.1368	2726.9611	7437.25	6552.55
999.2584	2728.1795	7409.4	6520.65
999.38	2729.3972	7381.8	6499.15
999.5016	2730.6142	7330.15	6442.65
999.6231	2731.8306	7281.95	6395.9
999.7446	2733.0462	7261.2	6376.6
999.8661	2734.2612	7232.05	6341.8
999.9875	2735.4756	7155.05	6269.7
1000.1089	2736.6892	7123.1	6239.45
1000.2302	2737.9022	7102.5	6219.45
1000.3515	2739.1145	7075.5	6192.45
1000.4728	2740.3262	7056.05	6164.6
1000.594	2741.5372	7006.4	6121.4
1000.7152	2742.7475	6982.7	6095.8
1000.8363	2743.9571	6976.8	6091.4
1000.9575	2745.1661	6931.55	6041
1001.0785	2746.3744	6920.25	6036.15
1001.1996	2747.582	6907.25	6023.3
1001.3206	2748.7889	6862.9	5978.85
1001.4415	2749.9952	6834.75	5951.7
1001.5625	2751.2008	6797.1	5914.1
1001.6833	2752.4057	6787.2	5900.35
1001.8042	2753.61	6744.8	5859.7
1001.925	2754.8136	6739.3	5854.05
1002.0458	2756.0165	6711.2	5828.15
1002.1665	2757.2188	6709.95	5828.55
1002.2872	2758.4204	6678.85	5796.65
1002.4078	2759.6213	6628.55	5742.35
1002.5285	2760.8215	6634.05	5746.35
1002.649	2762.0211	6597.55	5713.8
1002.7696	2763.22	6576.45	5688.15
1002.8901	2764.4182	6571.7	5686.85
1003.0106	2765.6158	6566.4	5681.7
1003.131	2766.8127	6515.65	5631.55
1003.2514	2768.009	6493.45	5610.55
1003.3717	2769.2045	6474.15	5590.35
1003.492	2770.3994	6469.05	5584.95
1003.6123	2771.5936	6438.6	5553.9
1003.7325	2772.7872	6411.15	5529.6
1003.8527	2773.9801	6372.15	5486.9
1003.9729	2775.1723	6363.7	5463.25
1004.093	2776.3639	6316.95	5435.6
1004.2131	2777.5548	6301.75	5414.35
1004.3331	2778.745	6290.55	5405.85
1004.4531	2779.9346	6273.65	5389.4
1004.5731	2781.1235	6251.45	5365.85
1004.693	2782.3117	6244.75	5363.15
1004.8129	2783.4992	6224.6	5339.15
1004.9328	2784.6861	6186.1	5301.75
1005.0526	2785.8723	6187.05	5303.35
1005.1723	2787.0579	6169.65	5285.5
1005.2921	2788.2428	6132.8	5249.2
1005.4118	2789.427	6136.75	5254.85
1005.5314	2790.6106	6117.1	5233.7
1005.651	2791.7935	6103.65	5223
1005.7706	2792.9757	6067.7	5185.1
1005.8902	2794.1573	6049.65	5164.7
1006.0097	2795.3382	6018.4	5134.9
1006.1291	2796.5184	6025.1	5143.65
1006.2485	2797.698	6044.45	5160.75
1006.3679	2798.8769	6011.45	5128.95
1006.4873	2800.0551	5975.15	5092.85
1006.6066	2801.2327	5977.95	5092.05
1006.7258	2802.4096	5956.9	5073.1
1006.8451	2803.5859	5944.75	5061.85
1006.9642	2804.7615	5942.2	5057.25
1007.0834	2805.9364	5926.05	5043.85
1007.2025	2807.1106	5931.65	5048.7
1007.3216	2808.2842	5931.75	5046.9
1007.4406	2809.4572	5929	5046.4
1007.5596	2810.6294	5954.85	5068.35
1007.6785	2811.801	5970.45	5088.6
1007.7975	2812.972	5984.4	5101.8
1007.9163	2814.1423	5981.9	5100.35
1008.0352	2815.3119	6007.95	5124.85
1008.154	2816.4808	6015.6	5132.15
1008.2727	2817.6491	6046.2	5163.55
1008.3914	2818.8167	6066.25	5184.95
1008.5101	2819.9837	6077.05	5191.5
1008.6288	2821.15	6112.3	5229.2
1008.7474	2822.3157	6141.75	5259.75
1008.8659	2823.4807	6147.6	5264.9
1008.9844	2824.645	6206.7	5321.2
1009.1029	2825.8086	6226.05	5342.95
1009.2214	2826.9716	6241.9	5359.2
1009.3398	2828.134	6283.05	5401
1009.4581	2829.2957	6293.5	5411.45
1009.5764	2830.4567	6297.25	5414.75
1009.6947	2831.617	6301.7	5418.85
1009.813	2832.7767	6307.55	5424
1009.9312	2833.9358	6292.55	5410.7
1010.0493	2835.0941	6267.6	5383.35
1010.1675	2836.2519	6248.05	5366.15
1010.2855	2837.4089	6227.15	5342.35
1010.4036	2838.5653	6204.5	5322.5
1010.5216	2839.7211	6182.9	5304.3
1010.6396	2840.8761	6166.05	5282.15
1010.7575	2842.0306	6162.4	5281.9
1010.8754	2843.1843	6168.9	5286.35
1010.9932	2844.3374	6178.5	5296.15
1011.111	2845.4899	6208.8	5327.35
1011.2288	2846.6417	6223.8	5342.55
1011.3465	2847.7928	6283.25	5400.65
1011.4642	2848.9433	6296.7	5413.25
1011.5818	2850.0931	6332.35	5451.25
1011.6995	2851.2422	6380	5494.6
1011.817	2852.3907	6390.3	5505.05
1011.9345	2853.5385	6455.95	5573.35
1012.052	2854.6857	6468.1	5576.5
1012.1695	2855.8323	6481.4	5601.5
1012.2869	2856.9781	6487.7	5605.5
1012.4042	2858.1233	6511.9	5628.5
1012.5216	2859.2679	6538.85	5658.4
1012.6389	2860.4118	6566.3	5682.5
1012.7561	2861.555	6581.05	5691.75
1012.8733	2862.6976	6594.25	5710.25
1012.9905	2863.8395	6609.1	5727.95
1013.1076	2864.9808	6618.95	5736.75
1013.2247	2866.1214	6615.9	5735.1
1013.3417	2867.2614	6630.9	5749.6
1013.4587	2868.4007	6617.05	5733.4
1013.5757	2869.5393	6597.05	5712.3
1013.6926	2870.6773	6629.9	5744.25
1013.8095	2871.8146	6593.85	5708.2
1013.9263	2872.9513	6572.2	5686.7
1014.0431	2874.0874	6550.5	5669.75
1014.1599	2875.2227	6497.1	5613.35
1014.2766	2876.3574	6477.6	5596.45
1014.3933	2877.4915	6458.45	5576.65
1014.51	2878.6249	6408.2	5526.3
1014.6266	2879.7577	6391.4	5507.2
1014.7431	2880.8898	6358.3	5464.9
1014.8596	2882.0212	6337.05	5457.3
1014.9761	2883.152	6302.2	5420.15
1015.0925	2884.2821	6270.25	5389.25
1015.2089	2885.4116	6240.8	5358.35
1015.3253	2886.5405	6209.5	5326.8
1015.4416	2887.6686	6223.75	5338.5
1015.5579	2888.7962	6204.75	5324.15
1015.6741	2889.923	6188.5	5308.65
1015.7903	2891.0493	6192.65	5310.35
1015.9065	2892.1748	6201.05	5318.4
1016.0226	2893.2997	6178.8	5295.15
1016.1387	2894.424	6162.75	5282.3
1016.2547	2895.5476	6152.15	5269.1
1016.3707	2896.6706	6176.8	5296.2
1016.4866	2897.7929	6166.3	5285.8
1016.6025	2898.9145	6165.75	5282.5
1016.7184	2900.0355	6154.45	5271.2
1016.8342	2901.1559	6179.7	5297
1016.95	2902.2756	6182.85	5301.3
1017.0658	2903.3946	6186.9	5303.55
1017.1815	2904.513	6191.35	5306.3
1017.2971	2905.6308	6202.65	5321
1017.4127	2906.7479	6195.3	5313.3
1017.5283	2907.8643	6196.6	5314.35
1017.6439	2908.9801	6201.25	5318.35
1017.7594	2910.0953	6187.25	5305.8
1017.8748	2911.2098	6166.95	5283.1
1017.9902	2912.3236	6162	5271.35
1018.1056	2913.4368	6136.55	5251.9
1018.2209	2914.5494	6111.4	5228.25
1018.3362	2915.6613	6080.4	5191.6
1018.4515	2916.7725	6040.25	5155.1
1018.5667	2917.8831	5995.4	5112.7
1018.6819	2918.9931	5962	5077.75
1018.797	2920.1024	5926.15	5043.4
1018.9121	2921.211	5904.25	5024.5
1019.0271	2922.319	5858.35	4975.05
1019.1421	2923.4264	5861.95	4982
1019.2571	2924.5331	5847.05	4966.3
1019.372	2925.6391	5824.65	4944.55
1019.4869	2926.7445	5807.85	4927.3
1019.6017	2927.8493	5792.9	4911.35
1019.7165	2928.9534	5786.75	4904.55
1019.8313	2930.0569	5755.35	4870.4
1019.946	2931.1597	5745	4863.05
1020.0606	2932.2619	5748.8	4866
1020.1753	2933.3634	5724.85	4842.35
1020.2899	2934.4643	5730.85	4840.45
1020.4044	2935.5645	5704.55	4817.45
1020.5189	2936.6641	5675.65	4790.3
1020.6334	2937.763	5630.5	4749.75
1020.7478	2938.8613	5606.6	4724.4
1020.8622	2939.959	5572.4	4684.75
1020.9765	2941.056	5489.75	4607.75
1021.0908	2942.1523	5427.95	4546.65
1021.2051	2943.248	5342.5	4459.8
1021.3193	2944.3431	5272	4391.95
1021.4334	2945.4375	5188.35	4307
1021.5476	2946.5313	5085.45	4205.35
1021.6617	2947.6244	5014.15	4134.65
1021.7757	2948.7169	4930.5	4048.95
1021.8897	2949.8087	4848.6	3966.6
1022.0037	2950.8999	4760.7	3878.8
1022.1176	2951.9904	4685.2	3803.85
1022.2315	2953.0803	4633.7	3749.25
1022.3453	2954.1696	4557	3675.95
1022.4591	2955.2582	4507.65	3628
1022.5728	2956.3462	4468.7	3587.95
1022.6865	2957.4335	4413.35	3529.35
1022.8002	2958.5202	4379.45	3494.2
1022.9138	2959.6062	4338.15	3457
1023.0274	2960.6916	4321.75	3441.75
1023.141	2961.7764	4291.1	3408.9
1023.2545	2962.8605	4246.3	3363.75
1023.3679	2963.9439	4249.55	3370.3
1023.4813	2965.0267	4226.1	3344.1
1023.5947	2966.1089	4214.85	3311.25
1023.708	2967.1905	4189.05	3308.4
1023.8213	2968.2714	4189.3	3308.4
1023.9346	2969.3516	4147	3264.55
1024.0478	2970.4312	4141.3	3252.55
1024.1609	2971.5102	4114.8	3233.75
1024.274	2972.5885	4143.75	3264.4
1024.3871	2973.6662	4110.65	3224.7
1024.5002	2974.7432	4117.45	3235.35
1024.6132	2975.8196	4086.6	3204.45
1024.7261	2976.8954	4066.35	3186.95
1024.839	2977.9705	4058.4	3176.95
1024.9519	2979.045	4026.6	3145.85
1025.0647	2980.1188	4004.1	3124.35
1025.1775	2981.192	3983.6	3104.75
1025.2902	2982.2645	3959.4	3078.1
1025.4029	2983.3364	3942.45	3060.15
1025.5156	2984.4077	3897.95	3017.45
1025.6282	2985.4783	3889.4	3002
1025.7407	2986.5483	3849.35	2970.75
1025.8532	2987.6177	3821.45	2940.35
1025.9657	2988.6864	3780.45	2898.6
1026.0782	2989.7545	3745.65	2865.25
1026.1906	2990.8219	3711.9	2831.45
1026.3029	2991.8887	3676.25	2794.2
1026.4152	2992.9548	3647.15	2764.9
1026.5275	2994.0204	3606.3	2726.45
1026.6397	2995.0852	3580.1	2700.4
1026.7519	2996.1495	3559.95	2677.15
1026.864	2997.2131	3526.8	2644.45
1026.9761	2998.276	3488.85	2608.6
1027.0882	2999.3383	3479.95	2598.65
1027.2002	3000.4	3454.35	2574.1
1027.3122	3001.4611	3429.85	2549.45
1027.4241	3002.5215	3413.2	2532.8
1027.536	3003.5812	3398.15	2517.15
1027.6478	3004.6404	3375.35	2494.8
1027.7596	3005.6989	3358.7	2474.95
1027.8714	3006.7567	3343.95	2462.95
1027.9831	3007.8139	3340.6	2428.85
1028.0947	3008.8705	3296.15	2416.2
1028.2064	3009.9264	3294.85	2409.9
1028.3179	3010.9818	3269.45	2390.3
1028.4295	3012.0364	3274.7	2393.25
1028.541	3013.0905	3252.4	2372.05
1028.6524	3014.1439	3241.1	2359.75
1028.7638	3015.1966	3222.8	2341.15
1028.8752	3016.2487	3212.65	2330.45
1028.9865	3017.3002	3205.7	2320.7
1029.0978	3018.3511	3193.35	2314.5
1029.209	3019.4013	3173.9	2294.25
1029.3202	3020.4509	3170.25	2289.15
1029.4314	3021.4998	3164.5	2284.35
1029.5425	3022.5481	3162.9	2281.75
1029.6535	3023.5958	3149.35	2268
1029.7645	3024.6428	3133.9	2251.4
1029.8755	3025.6892	3127.4	2250.65
1029.9864	3026.735	3124.6	2243.8
1030.0973	3027.7802	3103.45	2223.05
1030.2082	3028.8247	3088.9	2207.3
1030.319	3029.8685	3083.9	2201.2
1030.4297	3030.9118	3085.5	2204.45
1030.5404	3031.9544	3069.2	2188.6
1030.6511	3032.9963	3068.25	2189.4
1030.7617	3034.0376	3055.1	2174
1030.8723	3035.0783	3050.2	2168.35
1030.9829	3036.1184	3039.7	2159.1
1031.0934	3037.1578	3036.5	2156.8
1031.2038	3038.1966	3048.25	2167.8
1031.3142	3039.2348	3029	2149.2
1031.4246	3040.2723	3015.6	2126.45
1031.5349	3041.3092	3022.1	2142.75
1031.6452	3042.3455	3004.95	2123.55
1031.7554	3043.3811	2989.95	2107.85
1031.8656	3044.4161	2986.5	2105.7
1031.9758	3045.4505	2987.3	2107.55
1032.0859	3046.4842	2970.05	2087.15
1032.1959	3047.5173	2956.2	2076.1
1032.3059	3048.5498	2954.3	2073.25
1032.4159	3049.5816	2939.5	2058.45
1032.5258	3050.6128	2935.6	2053.05
1032.6357	3051.6434	2924	2041.95
1032.7455	3052.6734	2914.3	2032.55
1032.8553	3053.7027	2905.15	2025
1032.9651	3054.7314	2900.45	2020.7
1033.0748	3055.7594	2879.9	2000
1033.1845	3056.7868	2876.85	1995.9
1033.2941	3057.8136	2852.8	1971.5
1033.4037	3058.8398	2847.9	1967.4
1033.5132	3059.8653	2834.5	1953.45
1033.6227	3060.8902	2816.05	1934.55
1033.7321	3061.9145	2818.65	1938.15
1033.8415	3062.9381	2801.4	1921.25
1033.9509	3063.9612	2815.75	1920.8
1034.0602	3064.9835	2785.9	1903.3
1034.1694	3066.0053	2782.7	1899.6
1034.2787	3067.0264	2772.2	1891.35
1034.3878	3068.0469	2770.85	1890.8
1034.497	3069.0668	2753.25	1871.05
1034.6061	3070.086	2736.45	1859.35
1034.7151	3071.1046	2726.6	1846.25
1034.8241	3072.1226	2715.7	1834.95
1034.9331	3073.1399	2698.3	1817.05
1035.042	3074.1567	2685.3	1804.75
1035.1508	3075.1727	2694.6	1812.1
1035.2597	3076.1882	2674.4	1793.4
1035.3684	3077.203	2657.7	1776.95
1035.4772	3078.2173	2650.3	1768.45
1035.5859	3079.2308	2638.55	1756.6
1035.6945	3080.2438	2628.75	1747.55
1035.8031	3081.2561	2613.5	1732.2
1035.9117	3082.2678	2603.15	1722.25
1036.0202	3083.2789	2596.35	1716
1036.1286	3084.2893	2574.6	1694
1036.2371	3085.2991	2579.8	1700.4
1036.3454	3086.3083	2563.7	1678.55
1036.4538	3087.3169	2548.05	1667.7
1036.562	3088.3248	2541.4	1662.25
1036.6703	3089.3321	2530.2	1648.2
1036.7785	3090.3388	2518.1	1637.8
1036.8866	3091.3449	2507.3	1626.95
1036.9948	3092.3503	2500	1618.35
1037.1028	3093.3551	2497.3	1617.95
1037.2108	3094.3593	2486.15	1606
1037.3188	3095.3629	2471.8	1593.55
1037.4267	3096.3658	2475	1595.2
1037.5346	3097.3681	2460.85	1580.7
1037.6425	3098.3698	2444.9	1563.45
1037.7503	3099.3708	2440.75	1556.8
1037.858	3100.3713	2424.3	1546.45
1037.9657	3101.3711	2427.45	1545.9
1038.0734	3102.3702	2536.25	1520.5
1038.181	3103.3688	2412.3	1532
1038.2886	3104.3667	2387.6	1507.2
1038.3961	3105.364	2382.15	1503.25
1038.5036	3106.3607	2374.55	1491.75
1038.611	3107.3568	2359.35	1478.45
1038.7184	3108.3522	2356.75	1478.8
1038.8257	3109.347	2342.4	1460.85
1038.933	3110.3412	2345.9	1462
1039.0403	3111.3348	2320.25	1441.55
1039.1475	3112.3277	2308.35	1428.6
1039.2547	3113.32	2308.65	1429.8
1039.3618	3114.3117	2308	1427.05
1039.4689	3115.3028	2292.15	1412.4
1039.5759	3116.2932	2292.15	1410.4
1039.6829	3117.2831	2269.6	1385.65
1039.7898	3118.2723	2266.9	1388.35
1039.8967	3119.2608	2253.35	1372.6
1040.0035	3120.2488	2250.35	1369.8
1040.1103	3121.2361	2253.35	1373.65
1040.2171	3122.2229	2231.35	1350.5
1040.3238	3123.209	2224.05	1343.35
1040.4305	3124.1944	2226.3	1347.7
1040.5371	3125.1793	2211	1329.6
1040.6437	3126.1635	2202.35	1324.95
1040.7502	3127.1471	2203.45	1323.25
1040.8567	3128.1301	2193.9	1313.5
1040.9631	3129.1125	2175.05	1295.75
1041.0695	3130.0942	2180.9	1301.6
1041.1759	3131.0753	2181.35	1291.3
1041.2822	3132.0558	2171.3	1287.7
1041.3884	3133.0357	2160.65	1278.25
1041.4946	3134.015	2157.9	1276.85
1041.6008	3134.9936	2152.15	1270.7
1041.7069	3135.9716	2158.6	1256.1
1041.813	3136.949	2138.5	1260.35
1041.919	3137.9258	2141.25	1257.2
1042.025	3138.902	2137.5	1253.1
1042.1309	3139.8775	2124.8	1246.45
1042.2368	3140.8524	2118.65	1238.05
1042.3427	3141.8267	2110.2	1227.3
1042.4485	3142.8004	2097.75	1216.85
1042.5542	3143.7735	2115.35	1229.65
1042.6599	3144.7459	2093.55	1211.3
1042.7656	3145.7178	2092.4	1211.65
1042.8712	3146.689	2084.65	1206.1
1042.9768	3147.6596	2081.65	1199.1
1043.0823	3148.6295	2074.7	1193.3
1043.1878	3149.5989	2061.3	1181.15
1043.2932	3150.5676	2059.95	1181.2
1043.3986	3151.5357	2044.6	1165.55
1043.5039	3152.5032	2040.6	1162.9
1043.6092	3153.4701	2042.95	1162.5
1043.7145	3154.4364	2037.8	1155.4
1043.8197	3155.402	2026.55	1147.65
1043.9248	3156.367	2020.85	1139.65
1044.03	3157.3315	2039	1121.85
1044.135	3158.2952	2004.95	1125.65
1044.24	3159.2584	2001.45	1121
1044.345	3160.221	1988	1108.1
1044.4499	3161.1829	1985	1103.45
1044.5548	3162.1442	1976.55	1100.35
1044.6596	3163.105	1971.3	1091.25
1044.7644	3164.065	1967.05	1085.6
1044.8692	3165.0245	1969.45	1084.95
1044.9739	3165.9834	1957.15	1078.55
1045.0785	3166.9416	1955.4	1075.6
1045.1831	3167.8993	1941.15	1061.85
1045.2877	3168.8563	1937.35	1057.25
1045.3922	3169.8127	1932.7	1055.8
1045.4966	3170.7684	1924.3	1045.4
1045.6011	3171.7236	1922.6	1043.55
1045.7054	3172.6782	1916.15	1038.25
1045.8098	3173.6321	1916.85	1035.15
1045.914	3174.5854	1906.55	1024.4
1046.0183	3175.5381	1890.75	1009.7
1046.1224	3176.4902	1887.4	1008.35
1046.2266	3177.4417	1879.45	1001.1
1046.3307	3178.3926	1883.9	1004.3
1046.4347	3179.3428	1868.6	988.85
1046.5387	3180.2924	1863.05	984.1
1046.6427	3181.2415	1864.15	985.2
1046.7466	3182.1899	1851.05	970.3
1046.8504	3183.1377	1847.65	967.85
1046.9542	3184.0848	1856.35	972.3
1047.058	3185.0314	1842.1	961.1
1047.1617	3185.9773	1841.95	960.95
1047.2654	3186.9227	1835.3	955.7
1047.369	3187.8674	1827.8	948.45
1047.4726	3188.8115	1825.1	939.25
1047.5761	3189.755	1834.85	953.9
1047.6796	3190.6979	1809.1	930.15
1047.783	3191.6402	1794.7	916.1
1047.8864	3192.5818	1810.9	928.25
1047.9898	3193.5229	1808.3	910.65
1048.0931	3194.4633	1797.85	919.4
1048.1963	3195.4031	1796.3	916.2
1048.2995	3196.3423	1779.4	899.05
1048.4027	3197.2809	1776.95	897.75
1048.5058	3198.2189	1775.05	898
1048.6089	3199.1563	1784.25	887.95
1048.7119	3200.0931	1771.9	893.15
1048.8148	3201.0292	1765.75	888.1
1048.9178	3201.9648	1746.8	867.45
1049.0206	3202.8997	1751.2	870.2
1049.1235	3203.834	1750.75	872.85
1049.2262	3204.7677	1748.2	868.4
1049.329	3205.7008	1737.65	857.1
1049.4317	3206.6333	1728.3	850.2
1049.5343	3207.5652	1733.6	850.45
1049.6369	3208.4964	1727.95	849.45
1049.7394	3209.4271	1717.4	836.55
1049.8419	3210.3571	1714.25	834.35
1049.9444	3211.2865	1720.95	839.2
1050.0468	3212.2154	1709	830.15
1050.1491	3213.1436	1707.5	825.1
1050.2514	3214.0712	1705.2	818.5
1050.3537	3214.9982	1696.6	818
1050.4559	3215.9246	1685.45	805.05
1050.5581	3216.8503	1689.2	812.65
1050.6602	3217.7755	1683.95	806.05
1050.7623	3218.7001	1682	803.5
1050.8643	3219.624	1678.3	798.8
1050.9663	3220.5473	1677.1	799.95
1051.0682	3221.4701	1669.95	788.9
1051.1701	3222.3922	1664.1	784.25
1051.2719	3223.3137	1656.5	777.75
1051.3737	3224.2346	1656.85	778
1051.4754	3225.1549	1649.9	770.2
1051.5771	3226.0746	1651.7	773.3
1051.6788	3226.9937	1644	764.45
1051.7804	3227.9121	1636.85	756.05
1051.8819	3228.83	1631.45	752.05
1051.9834	3229.7473	1636.7	757.45
1052.0849	3230.6639	1626	745.45
1052.1863	3231.5799	1628.55	747.95
1052.2876	3232.4954	1614.5	734.05
1052.3889	3233.4102	1614.8	736.3
1052.4902	3234.3244	1617.9	738.1
1052.5914	3235.238	1603.5	726.25
1052.6926	3236.151	1627.3	725.75
1052.7937	3237.0634	1593.35	716.75
1052.8948	3237.9752	1598.25	719.6
1052.9958	3238.8864	1586.05	705.45
1053.0968	3239.797	1582.6	702.95
1053.1977	3240.7069	1580.2	698.7
1053.2986	3241.6163	1573.9	692.2
1053.3994	3242.5251	1566.3	688.2
1053.5002	3243.4332	1567.5	688.35
1053.6009	3244.3408	1558.05	677.2
1053.7016	3245.2477	1553.1	675
1053.8022	3246.154	1548.25	669.65
1053.9028	3247.0598	1549.65	669.6
1054.0034	3247.9649	1547.95	669.15
1054.1039	3248.8694	1546.65	667.35
1054.2043	3249.7733	1533.85	655.6
1054.3047	3250.6766	1535.55	653.95
1054.4051	3251.5793	1529.3	648.5
1054.5054	3252.4814	1517.05	638.65
1054.6056	3253.3829	1521.8	643.45
1054.7058	3254.2838	1512.05	633
1054.806	3255.1841	1516.85	637.15
1054.9061	3256.0838	1505.15	625.2
1055.0061	3256.9829	1502.1	622.6
1055.1062	3257.8814	1490.15	609.4
1055.2061	3258.7792	1493.05	610.6
1055.306	3259.6765	1489.4	608.95
1055.4059	3260.5731	1479.15	600.9
1055.5057	3261.4692	1472.35	591.7
1055.6055	3262.3647	1466.95	588.05
1055.7052	3263.2595	1456.7	578.05
1055.8049	3264.1538	1449.6	571.35
1055.9045	3265.0474	1438.15	557.75
1056.0041	3265.9404	1429.45	549.75
1056.1036	3266.8329	1415.5	538.7
1056.2031	3267.7247	1418.1	528.45
1056.3025	3268.616	1398.35	521.05
1056.4019	3269.5066	1381.85	501.3
1056.5013	3270.3966	1373.9	493.5
1056.6005	3271.286	1363.75	486.55
