Software Version:	3.9.2.0
Unit SN:	10000200
Spectrometer SN:	6960
Date:	3/6/2024 10:52:12 AM
Data Line Index:	25
Spectral Points:	2048
Integration time (ms):	125
Averages:	20
Delay (ms):	30
Sequence Number:	1
Processing:	dark subtract
Laser Power (mW):	300
Laser Current (mA):	822
Laser Diode Temp (C):	25
Laser Case Temp (C):	27.7
System Temp (C):	27.5
Spectrometer Temp (C):	24.9
CCD Temp (C):	0.005
Secondary Temp (C):	20.007
Heatsink Temp (C):	23.241
CCDPCB Temp (C):	36.963
SecondaryPCB Temp (C):	34.506

Wavelength	RamanShift	Raw Counts	Dark Subtracted
787.061	30.1047	1111.3	698.1
787.2016	32.3739	1142.9	732.4
787.3422	34.6426	1181.85	767.4
787.4828	36.9109	1227.95	813.05
787.6235	39.1787	1286.15	868.8
787.7642	41.4461	1344.15	922.15
787.9049	43.7131	1410.8	983.95
788.0456	45.9796	1476.15	1046.15
788.1863	48.2456	1537.15	1102.55
788.3271	50.5112	1602.95	1164.7
788.4679	52.7764	1676.4	1237.05
788.6087	55.0411	1744.2	1300.6
788.7496	57.3054	1846.2	1395.6
788.8904	59.5692	1924.55	1473.4
789.0313	61.8326	2025.35	1570.1
789.1722	64.0955	2123.6	1664.4
789.3132	66.3579	2254.65	1791.25
789.4541	68.6199	2405.15	1937.05
789.5951	70.8815	2645.35	2175.15
789.7361	73.1426	3140.35	2664.85
789.8771	75.4032	4405	3926.9
790.0181	77.6634	7634.15	7150.05
790.1592	79.9231	15964.85	15477.3
790.3003	82.1824	52056.7	51557.6
790.4414	84.4412	65535	65020.15
790.5825	86.6995	65535	64993.4
790.7237	88.9574	65535	64969.55
790.8648	91.2148	65535	64955.8
791.006	93.4717	65535	64950.45
791.1472	95.7282	65535	64939.75
791.2885	97.9842	65535	64937.35
791.4297	100.2398	65535	64934.6
791.571	102.4949	65535	64932.15
791.7123	104.7495	65535	64930.25
791.8536	107.0036	65535	64926.55
791.9949	109.2573	65535	64927.8
792.1363	111.5105	65535	64923.55
792.2777	113.7632	65535	64923.6
792.4191	116.0154	65535	64912.25
792.5605	118.2672	65535	64918.25
792.7019	120.5185	65535	64922.75
792.8434	122.7693	65535	64919.45
792.9849	125.0197	65535	64910.05
793.1264	127.2696	65535	64909.95
793.2679	129.519	65535	64906.65
793.4094	131.7679	65535	64902.35
793.551	134.0163	65535	64901.05
793.6926	136.2642	65535	64896.3
793.8342	138.5117	65535	64888.45
793.9758	140.7587	65535	64891.6
794.1175	143.0052	65535	64892.25
794.2591	145.2512	65535	64891.75
794.4008	147.4967	65535	64891.3
794.5425	149.7417	65535	64890.2
794.6842	151.9863	65535	64886.5
794.826	154.2304	65535	64877.75
794.9677	156.4739	65535	64874.65
795.1095	158.717	65535	64874.1
795.2513	160.9596	65535	64869.95
795.3931	163.2017	65535	64866.25
795.535	165.4433	65535	64863.15
795.6768	167.6844	65535	64864
795.8187	169.925	65535	64857.35
795.9606	172.1651	65535	64856.5
796.1025	174.4047	65535	64852.75
796.2445	176.6439	65535	64854.55
796.3864	178.8825	65535	64848.85
796.5284	181.1206	65535	64846.5
796.6704	183.3582	65535	64843.1
796.8124	185.5954	65535	64839
796.9544	187.832	65535	64838.65
797.0965	190.0681	65535	64836.15
797.2386	192.3037	65535	64832.15
797.3806	194.5388	65535	64830.95
797.5228	196.7734	65535	64826.85
797.6649	199.0075	65535	64820.95
797.807	201.2411	65535	64820.55
797.9492	203.4742	65535	64823.15
798.0914	205.7068	65535	64821.25
798.2336	207.9389	65535	64817.15
798.3758	210.1704	65535	64812.1
798.518	212.4015	65535	64814.9
798.6603	214.632	65535	64821.9
798.8025	216.862	65535	64834.3
798.9448	219.0915	65535	64836.8
799.0871	221.3205	65535	64831.5
799.2294	223.549	65535	64833.35
799.3718	225.777	65535	64836.15
799.5141	228.0044	65535	64834.75
799.6565	230.2314	65535	64835.8
799.7989	232.4578	65535	64830.55
799.9413	234.6837	65535	64823.3
800.0837	236.909	65535	64819.45
800.2262	239.1339	65535	64797.4
800.3687	241.3582	65535	64811.85
800.5111	243.582	65535	64777.55
800.6536	245.8053	65535	64791.8
800.7961	248.0281	65535	64797.35
800.9387	250.2503	65535	64792.9
801.0812	252.472	65535	64786.35
801.2238	254.6932	65535	64789.3
801.3664	256.9139	65535	64789.4
801.509	259.134	65535	64785.6
801.6516	261.3536	65535	64786.05
801.7942	263.5727	65535	64782.3
801.9369	265.7912	65535	64784.65
802.0795	268.0092	65535	64784.1
802.2222	270.2267	65535	64782.15
802.3649	272.4436	65535	64782.3
802.5076	274.6601	65535	64778.8
802.6504	276.8759	65535	64774.75
802.7931	279.0913	65535	64775.5
802.9359	281.3061	65535	64773.25
803.0787	283.5204	65535	64769.95
803.2215	285.7341	65535	64766.45
803.3643	287.9473	65535	64754.1
803.5071	290.16	65535	64758.7
803.6499	292.3721	65535	64768.4
803.7928	294.5837	65535	64768.55
803.9357	296.7947	65535	64769.25
804.0786	299.0052	65535	64768.1
804.2215	301.2152	65535	64764.45
804.3644	303.4246	65535	64766.1
804.5074	305.6334	65535	64764.8
804.6503	307.8418	65535	64761.5
804.7933	310.0495	65535	64760.25
804.9363	312.2568	65535	64760.05
805.0793	314.4635	65535	64762.7
805.2223	316.6696	65535	64759.15
805.3653	318.8752	65535	64750.65
805.5084	321.0802	65535	64757.7
805.6514	323.2847	65535	64754.45
805.7945	325.4887	65535	64755.85
805.9376	327.692	65535	64756.8
806.0807	329.8949	65535	64753.4
806.2238	332.0972	65535	64753.1
806.367	334.2989	65535	64744.35
806.5101	336.5001	65535	64746.6
806.6533	338.7007	65535	64748.25
806.7965	340.9008	65535	64745.3
806.9397	343.1003	65535	64741.95
807.0829	345.2992	65535	64741.9
807.2261	347.4976	65535	64742.15
807.3693	349.6955	65535	64736.9
807.5126	351.8927	65535	64736.45
807.6559	354.0895	65535	64725.45
807.7991	356.2856	65535	64735.5
807.9424	358.4812	65535	64737.05
808.0857	360.6763	65535	64733.4
808.2291	362.8707	65535	64731.7
808.3724	365.0646	65535	64730.4
808.5158	367.258	65535	64728.6
808.6591	369.4508	65535	64724.05
808.8025	371.643	65535	64727
808.9459	373.8346	65535	64719.85
809.0893	376.0257	65535	64719.05
809.2327	378.2162	65535	64718.75
809.3762	380.4062	65535	64716.2
809.5196	382.5956	65535	64718.15
809.6631	384.7844	65535	64721
809.8066	386.9726	65535	64721.85
809.9501	389.1603	65535	64721.3
810.0936	391.3474	65535	64678.9
810.2371	393.5339	65535	64723.5
810.3806	395.7199	65535	64727.5
810.5241	397.9052	65535	64728
810.6677	400.09	65535	64723.55
810.8113	402.2743	65535	64725.4
810.9548	404.4579	65535	64725
811.0984	406.641	65535	64724.8
811.2421	408.8235	65535	64722.1
811.3857	411.0054	65535	64721.85
811.5293	413.1868	65535	64720.6
811.673	415.3675	65535	64718.5
811.8166	417.5477	65535	64714.25
811.9603	419.7273	65535	64710.1
812.104	421.9064	65535	64704.9
812.2477	424.0848	65535	64706.8
812.3914	426.2627	65535	64706.25
812.5351	428.4399	65535	64709.75
812.6788	430.6166	65535	64705.8
812.8226	432.7928	65535	64703.1
812.9663	434.9683	65535	64700.5
813.1101	437.1432	65535	64700.4
813.2539	439.3176	65535	64698.15
813.3977	441.4914	65535	64699.35
813.5415	443.6645	65535	64700.4
813.6853	445.8371	65535	64701.85
813.8291	448.0091	65535	64701.9
813.973	450.1806	65535	64701.1
814.1168	452.3514	65535	64700.7
814.2607	454.5216	65535	64686.85
814.4046	456.6913	65535	64697.85
814.5485	458.8603	65535	64696.25
814.6924	461.0288	65535	64697.55
814.8363	463.1967	65535	64699
814.9802	465.3639	65535	64695.55
815.1241	467.5306	65535	64697.8
815.2681	469.6967	65535	64696.35
815.412	471.8622	65535	64695.35
815.556	474.0271	65535	64700.65
815.7	476.1914	65535	64690.2
815.844	478.3551	65535	64695.6
815.988	480.5182	65535	64693.6
816.132	482.6807	65535	64694.75
816.276	484.8426	65535	64694.85
816.4201	487.0039	65535	64694.9
816.5641	489.1647	65535	64691.65
816.7082	491.3248	65535	64693.1
816.8522	493.4843	65535	64688.9
816.9963	495.6432	65535	64691.5
817.1404	497.8015	65535	64686.8
817.2845	499.9592	65535	64686
817.4286	502.1163	65535	64689.85
817.5727	504.2728	65535	64684.2
817.7168	506.4287	65535	64688.7
817.861	508.5839	65535	64690.6
818.0051	510.7386	65535	64689
818.1493	512.8927	65535	64682.05
818.2935	515.0461	65535	64683.65
818.4377	517.199	65535	64685.85
818.5818	519.3512	65535	64682.2
818.726	521.5029	65535	64677.3
818.8703	523.6539	65535	64683.4
819.0145	525.8043	65535	64682.3
819.1587	527.9541	65535	64678.45
819.303	530.1033	65535	64680.7
819.4472	532.2519	65535	64679.6
819.5915	534.3999	65535	64677.15
819.7357	536.5472	65535	64678.3
819.88	538.694	65535	64679.65
820.0243	540.8401	65535	64677.05
820.1686	542.9856	65535	64674.5
820.3129	545.1305	65535	64675
820.4572	547.2748	65535	64672.3
820.6016	549.4185	65535	64669.8
820.7459	551.5615	65535	64674.55
820.8902	553.704	65535	64671.45
821.0346	555.8458	65535	64672.55
821.1789	557.987	65535	64673.2
821.3233	560.1276	65535	64673.7
821.4677	562.2675	65535	64673.2
821.6121	564.4069	65535	64673.4
821.7565	566.5456	65535	64677.2
821.9009	568.6837	65535	64675.75
822.0453	570.8212	65535	64677.1
822.1897	572.958	65535	64676.05
822.3342	575.0942	65535	64676.95
822.4786	577.2299	65535	64674.8
822.6231	579.3648	65535	64677
822.7675	581.4992	65535	64677.6
822.912	583.6329	65535	64676.95
823.0565	585.766	65535	64676.5
823.201	587.8985	65535	64675.65
823.3454	590.0304	65535	64649.2
823.4899	592.1616	65535	64669.25
823.6345	594.2922	65535	64672.35
823.779	596.4222	65535	64670.4
823.9235	598.5515	65535	64670.3
824.068	600.6802	65535	64668.4
824.2126	602.8083	65535	64670.45
824.3571	604.9358	65535	64668.25
824.5017	607.0626	65535	64669.55
824.6462	609.1888	65535	64663.35
824.7908	611.3144	65535	64665.5
824.9354	613.4393	65535	64667.15
825.08	615.5636	65535	64665.4
825.2246	617.6873	65535	64665.95
825.3692	619.8103	65535	64665.3
825.5138	621.9327	65535	64665.4
825.6584	624.0544	65535	64668.6
825.803	626.1756	65535	64667.65
825.9477	628.2961	65535	64665.4
826.0923	630.4159	65535	64662.3
826.237	632.5351	65535	64664.45
826.3816	634.6537	65535	64664.3
826.5263	636.7716	65535	64660.2
826.6709	638.8889	65535	64663.1
826.8156	641.0056	65535	64659.3
826.9603	643.1216	65535	64658.9
827.105	645.237	65535	64657.8
827.2497	647.3518	65535	64662.15
827.3944	649.4659	65535	64662.55
827.5391	651.5793	65535	64661.6
827.6838	653.6922	65535	64660.6
827.8285	655.8043	65535	64659.75
827.9733	657.9159	65535	64660.3
828.118	660.0268	65535	64660.55
828.2627	662.137	65535	64660.25
828.4075	664.2466	65535	64657.55
828.5522	666.3556	65535	64658
828.697	668.4639	65535	64656.5
828.8418	670.5716	65535	64659.5
828.9865	672.6786	65535	64656.6
829.1313	674.785	65535	64653.25
829.2761	676.8907	65535	64657.9
829.4209	678.9958	65535	64659.8
829.5657	681.1002	65535	64659.1
829.7105	683.204	65535	64653.3
829.8553	685.3072	65535	64653.75
830.0001	687.4097	65535	64656
830.1449	689.5115	65535	64653.75
830.2898	691.6127	65535	64657.8
830.4346	693.7132	65535	64653.05
830.5794	695.8131	65535	64647.4
830.7243	697.9123	65535	64651.6
830.8691	700.0109	65535	64650.3
831.014	702.1089	65535	64655.45
831.1588	704.2061	65535	64654.3
831.3037	706.3028	65535	64654.1
831.4486	708.3987	65535	64654.6
831.5935	710.4941	65535	64655.1
831.7383	712.5887	65535	64652.15
831.8832	714.6827	65535	64648.95
832.0281	716.7761	65535	64654.6
832.173	718.8688	65535	64653.15
832.3179	720.9608	65535	64648.7
832.4628	723.0522	65535	64648.4
832.6077	725.1429	65535	64649.95
832.7527	727.233	65535	64649.6
832.8976	729.3224	65535	64651.75
833.0425	731.4112	65535	64648.15
833.1874	733.4993	65535	64648.35
833.3324	735.5867	65535	64647.05
833.4773	737.6735	65535	64647.9
833.6222	739.7596	65535	64647.8
833.7672	741.845	65535	64651.3
833.9122	743.9298	65535	64649.5
834.0571	746.014	65535	64647.85
834.2021	748.0974	65535	64645.8
834.347	750.1802	65535	64650.25
834.492	752.2624	65535	64649.3
834.637	754.3439	65535	64648.45
834.782	756.4247	65535	64638.65
834.9269	758.5048	65535	64647.15
835.0719	760.5843	65535	64646.9
835.2169	762.6631	65535	64647.65
835.3619	764.7413	65535	64648.9
835.5069	766.8188	65535	64646.4
835.6519	768.8956	65535	64646.05
835.7969	770.9718	65535	64648.9
835.9419	773.0473	65535	64648.7
836.0869	775.1221	65535	64647.4
836.232	777.1962	65535	64648.55
836.377	779.2697	65535	64644.4
836.522	781.3426	65535	64627.55
836.667	783.4147	65535	64645.05
836.8121	785.4862	65535	64646.95
836.9571	787.557	65535	64646.75
837.1021	789.6271	65535	64644.5
837.2472	791.6966	65535	64646.65
837.3922	793.7654	65535	64646.95
837.5373	795.8335	65535	64645.55
837.6823	797.901	65535	64648.15
837.8274	799.9678	65535	64641.45
837.9724	802.0339	65535	64646.65
838.1175	804.0993	65535	64633.45
838.2626	806.1641	65535	64644.35
838.4076	808.2282	65535	64643.85
838.5527	810.2916	65535	64644.2
838.6978	812.3544	65535	64647.8
838.8428	814.4164	65535	64644.95
838.9879	816.4778	65535	64643.6
839.133	818.5385	65535	64642.1
839.2781	820.5986	65535	64644.4
839.4232	822.658	65535	64643.5
839.5682	824.7166	65535	64644.4
839.7133	826.7747	65535	64645.85
839.8584	828.832	65535	64644.75
840.0035	830.8886	65535	64642.35
840.1486	832.9446	65535	64643.45
840.2937	834.9999	65535	64644.8
840.4388	837.0545	65535	64639.15
840.5839	839.1085	65535	64641.45
840.729	841.1618	65535	64640.3
840.8741	843.2143	65535	64643.2
841.0192	845.2662	65535	64645.8
841.1643	847.3175	65535	64644.8
841.3095	849.368	65535	64639.5
841.4546	851.4179	65535	64644.2
841.5997	853.467	65535	64642.3
841.7448	855.5155	65535	64640
841.8899	857.5633	65535	64643.1
842.0351	859.6105	65535	64642.55
842.1802	861.6569	65535	64643.45
842.3253	863.7027	65535	64642.1
842.4704	865.7478	65535	64642.4
842.6156	867.7922	65535	64643.8
842.7607	869.8359	65535	64640.95
842.9058	871.8789	65535	64642.15
843.0509	873.9212	65535	64606.9
843.1961	875.9629	65535	64640.25
843.3412	878.0039	65535	64639.1
843.4863	880.0441	65535	64640.35
843.6315	882.0837	65535	64640.45
843.7766	884.1226	65535	64642.5
843.9218	886.1609	65535	64640.8
844.0669	888.1984	65535	64644.2
844.212	890.2352	65535	64642.85
844.3572	892.2714	65535	64637.75
844.5023	894.3069	65535	64639.25
844.6475	896.3416	65535	64640.2
844.7926	898.3757	65535	64641.4
844.9377	900.4091	65535	64639.6
845.0829	902.4418	65535	64635.8
845.228	904.4739	65535	64639.8
845.3732	906.5052	65535	64638.65
845.5183	908.5358	65535	64640.85
845.6635	910.5658	65535	64636.5
845.8086	912.595	65535	64639.95
845.9538	914.6236	65535	64637.95
846.0989	916.6515	65535	64638.85
846.2441	918.6786	65535	64638.55
846.3892	920.7051	65535	64636.2
846.5344	922.7309	65535	64638.15
846.6795	924.756	65535	64639.7
846.8246	926.7804	65535	64637.2
846.9698	928.8041	65535	64633.95
847.1149	930.8272	65535	64636
847.2601	932.8495	65535	64637.4
847.4052	934.8711	65535	64636.8
847.5504	936.892	65535	64636.95
847.6955	938.9123	65535	64635.35
847.8407	940.9318	65535	64638.55
847.9858	942.9506	65535	64635.7
848.131	944.9688	65535	64637.85
848.2761	946.9862	65535	64639.2
848.4213	949.003	65535	64638.05
848.5664	951.019	65535	64639.3
848.7115	953.0344	65535	64636.8
848.8567	955.0491	65535	64636.75
849.0018	957.063	65535	64639.45
849.147	959.0763	65535	64636.65
849.2921	961.0888	65535	64635.05
849.4373	963.1007	65535	64636.7
849.5824	965.1119	65535	64638.7
849.7275	967.1223	65535	64638.55
849.8727	969.1321	65535	64640.4
850.0178	971.1412	65535	64640.8
850.1629	973.1495	65535	64638.6
850.3081	975.1572	65535	64604.2
850.4532	977.1641	65535	64640.15
850.5983	979.1704	65535	64634.95
850.7435	981.1759	65535	64635.45
850.8886	983.1808	65535	64637.65
851.0337	985.1849	65535	64623.9
851.1788	987.1884	65535	64635.9
851.324	989.1911	65535	64632.7
851.4691	991.1932	65535	64635.85
851.6142	993.1945	65535	64637.4
851.7593	995.1951	65535	64636.1
851.9045	997.1951	65535	64633.45
852.0496	999.1943	65535	64636.7
852.1947	1001.1928	65535	64634.85
852.3398	1003.1906	65535	64635.6
852.4849	1005.1877	65535	64635.05
852.63	1007.1841	65535	64636.25
852.7751	1009.1798	65535	64636.9
852.9202	1011.1748	65535	64637.3
853.0653	1013.1691	65535	64635.6
853.2104	1015.1627	65535	64636.25
853.3555	1017.1556	65535	64639.05
853.5006	1019.1477	65535	64635.2
853.6457	1021.1392	65535	64641.25
853.7908	1023.1299	65535	64638.5
853.9359	1025.12	65535	64634.7
854.081	1027.1093	65535	64641.1
854.2261	1029.0979	65535	64641.05
854.3712	1031.0859	65535	64640.05
854.5163	1033.0731	65535	64637.7
854.6613	1035.0596	65535	64638.85
854.8064	1037.0454	65535	64636.1
854.9515	1039.0304	65535	64638.4
855.0965	1041.0148	65535	64637.05
855.2416	1042.9985	65535	64635.2
855.3867	1044.9814	65535	64638.65
855.5317	1046.9636	65535	64636.05
855.6768	1048.9452	65535	64639.3
855.8219	1050.926	65535	64637.15
855.9669	1052.9061	65535	64636.3
856.112	1054.8855	65535	64637.75
856.257	1056.8642	65535	64635.35
856.4021	1058.8421	65535	64631.65
856.5471	1060.8194	65535	64635.4
856.6921	1062.7959	65535	64635.2
856.8372	1064.7717	65535	64635.75
856.9822	1066.7469	65535	64635.8
857.1272	1068.7213	65535	64633.75
857.2723	1070.695	65535	64635.05
857.4173	1072.6679	65535	64635.9
857.5623	1074.6402	65535	64634.75
857.7073	1076.6117	65535	64631.7
857.8523	1078.5826	65535	64634.75
857.9973	1080.5527	65535	64632.8
858.1423	1082.5221	65535	64634.45
858.2873	1084.4908	65535	64636.8
858.4323	1086.4587	65535	64637.2
858.5773	1088.426	65535	64635.55
858.7223	1090.3925	65535	64631.6
858.8673	1092.3584	65535	64637.7
859.0123	1094.3235	65535	64637.6
859.1573	1096.2879	65535	64637.45
859.3022	1098.2515	65535	64635.85
859.4472	1100.2145	65535	64634.05
859.5922	1102.1767	65535	64634.25
859.7371	1104.1382	65535	64635.05
859.8821	1106.099	65535	64634.75
860.027	1108.0591	65535	64636.2
860.172	1110.0185	65535	64632.6
860.3169	1111.9771	65535	64635.85
860.4619	1113.9351	65535	64634.8
860.6068	1115.8923	65535	64634.45
860.7517	1117.8488	65535	64633.65
860.8967	1119.8045	65535	64636.05
861.0416	1121.7596	65535	64636.15
861.1865	1123.7139	65535	64639.55
861.3314	1125.6675	65535	64636.95
861.4763	1127.6204	65535	64637.55
861.6212	1129.5726	65535	64632.65
861.7661	1131.524	65535	64635.65
861.911	1133.4748	65535	64635.65
862.0559	1135.4248	65535	64633.75
862.2008	1137.3741	65535	64635.9
862.3457	1139.3226	65535	64634.2
862.4905	1141.2705	65535	64638.2
862.6354	1143.2176	65535	64629.75
862.7803	1145.164	65535	64632.8
862.9251	1147.1097	65535	64636
863.07	1149.0546	65535	64634.85
863.2148	1150.9989	65535	64637.65
863.3597	1152.9424	65535	64633
863.5045	1154.8852	65535	64637.05
863.6493	1156.8272	65535	64637.7
863.7942	1158.7686	65535	64630.15
863.939	1160.7092	65535	64635.8
864.0838	1162.6491	65535	64629.75
864.2286	1164.5883	65535	64635.65
864.3734	1166.5267	65535	64634.6
864.5182	1168.4644	65535	64635.2
864.663	1170.4014	65535	64631.25
864.8078	1172.3377	65535	64636.05
864.9526	1174.2732	65535	64638.1
865.0974	1176.2081	65535	64635.8
865.2421	1178.1421	65535	64631.25
865.3869	1180.0755	65535	64635.3
865.5317	1182.0082	65535	64635.25
865.6764	1183.9401	65535	64634.55
865.8212	1185.8713	65535	64635.5
865.9659	1187.8017	65535	64636.75
866.1106	1189.7315	65535	64639.2
866.2554	1191.6605	65535	64609.35
866.4001	1193.5888	65535	64634.1
866.5448	1195.5163	65535	64635.55
866.6895	1197.4432	65535	64634.05
866.8342	1199.3693	65535	64636.55
866.9789	1201.2947	65535	64636.65
867.1236	1203.2193	65535	64635.25
867.2683	1205.1432	65535	64635.05
867.413	1207.0664	65535	64636.3
867.5576	1208.9889	65535	64633.85
867.7023	1210.9106	65535	64635.5
867.847	1212.8316	65535	64636.2
867.9916	1214.7519	65535	64626.85
868.1363	1216.6715	65535	64635.45
868.2809	1218.5903	65535	64636
868.4255	1220.5084	65535	64635.8
868.5701	1222.4257	65535	64636.75
868.7148	1224.3424	65535	64637.4
868.8594	1226.2583	65535	64631.25
869.004	1228.1735	65535	64633.95
869.1486	1230.0879	65535	64633.7
869.2932	1232.0016	65535	64637.8
869.4377	1233.9146	65535	64632.75
869.5823	1235.8269	65535	64637.1
869.7269	1237.7384	65535	64637.2
869.8715	1239.6492	65535	64637.45
870.016	1241.5592	65535	64633.85
870.1606	1243.4686	65535	64636.5
870.3051	1245.3772	65535	64636.55
870.4496	1247.285	65535	64633.6
870.5941	1249.1922	65535	64635.25
870.7387	1251.0986	65535	64636.35
870.8832	1253.0042	65535	64636.8
871.0277	1254.9092	65535	64637.55
871.1722	1256.8134	65535	64636.7
871.3167	1258.7169	65535	64633.75
871.4611	1260.6196	65535	64638.3
871.6056	1262.5216	65535	64635.35
871.7501	1264.4229	65535	64637.35
871.8945	1266.3234	65535	64635.6
872.039	1268.2232	65535	64633.65
872.1834	1270.1223	65535	64633.35
872.3278	1272.0207	65535	64635.4
872.4723	1273.9183	65535	64629
872.6167	1275.8151	65535	64635.45
872.7611	1277.7113	65535	64634.1
872.9055	1279.6067	65535	64635.55
873.0499	1281.5014	65535	64632.55
873.1943	1283.3953	65535	64633.2
873.3386	1285.2885	65535	64635.65
873.483	1287.181	65535	64635.7
873.6274	1289.0727	65535	64638.45
873.7717	1290.9637	65535	64637.15
873.9161	1292.854	65535	64636.15
874.0604	1294.7435	65535	64637.3
874.2047	1296.6323	65535	64635.55
874.349	1298.5204	65535	64631.35
874.4933	1300.4077	65535	64635.8
874.6376	1302.2943	65535	64635.5
874.7819	1304.1802	65535	64637.4
874.9262	1306.0653	65535	64632.3
875.0705	1307.9497	65535	64635
875.2147	1309.8333	65535	64637.7
875.359	1311.7162	65535	64636.6
875.5032	1313.5984	65535	64633.55
875.6475	1315.4798	65535	64620.15
875.7917	1317.3605	65535	64617.5
875.9359	1319.2405	65535	64634.4
876.0801	1321.1197	65535	64634.9
876.2243	1322.9982	65535	64631.1
876.3685	1324.876	65535	64635.65
876.5127	1326.753	65535	64636.05
876.6569	1328.6293	65535	64634.7
876.801	1330.5048	65535	64635
876.9452	1332.3796	65535	64636.7
877.0893	1334.2537	65535	64610.75
877.2335	1336.127	65535	64635.4
877.3776	1337.9996	65535	64636.75
877.5217	1339.8714	65535	64636.1
877.6658	1341.7426	65535	64587.85
877.8099	1343.6129	65535	64633.15
877.954	1345.4826	65535	64633.9
878.0981	1347.3515	65535	64634.2
878.2422	1349.2196	65535	64636
878.3862	1351.087	65535	64637
878.5303	1352.9537	65535	64635.35
878.6743	1354.8197	65535	64634.35
878.8184	1356.6849	65535	64634.25
878.9624	1358.5493	65535	64634.4
879.1064	1360.4131	65535	64633.1
879.2504	1362.276	65535	64635.65
879.3944	1364.1383	65535	64635.4
879.5384	1365.9998	65535	64628.5
879.6823	1367.8606	65535	64633.7
879.8263	1369.7206	65535	64634.9
879.9702	1371.5799	65535	64631.35
880.1142	1373.4384	65535	64634.75
880.2581	1375.2962	65535	64634.2
880.402	1377.1533	65535	64635.6
880.5459	1379.0096	65535	64637.25
880.6898	1380.8652	65535	64637.1
880.8337	1382.7201	65535	64634.8
880.9776	1384.5742	65535	64634.5
881.1215	1386.4275	65535	64633.95
881.2653	1388.2802	65535	64637.3
881.4092	1390.132	65535	64636.4
881.553	1391.9832	65535	64634.6
881.6968	1393.8336	65535	64634.2
881.8406	1395.6832	65535	64633.1
881.9844	1397.5322	65535	64635.65
882.1282	1399.3803	65535	64630.15
882.272	1401.2278	65535	64635.4
882.4158	1403.0745	65535	64636.4
882.5595	1404.9204	65535	64637.8
882.7033	1406.7656	65535	64634.95
882.847	1408.6101	65535	64634.4
882.9908	1410.4538	65535	64636.45
883.1345	1412.2968	65535	64635.4
883.2782	1414.139	65535	64637.5
883.4219	1415.9805	65535	64637.05
883.5656	1417.8213	65535	64631.4
883.7092	1419.6613	65535	64636.15
883.8529	1421.5006	65535	64635.2
883.9965	1423.3391	65535	64634.9
884.1402	1425.1769	65535	64634.4
884.2838	1427.0139	65535	64635.6
884.4274	1428.8502	65535	64633.9
884.571	1430.6858	65535	64635.35
884.7146	1432.5206	65535	64637.4
884.8582	1434.3547	65535	64635.5
885.0018	1436.188	65535	64634.75
885.1453	1438.0206	65535	64637.35
885.2889	1439.8524	65535	64632.75
885.4324	1441.6835	65535	64635.65
885.5759	1443.5139	65535	64632.4
885.7194	1445.3435	65535	64635.55
885.8629	1447.1724	65535	64638.05
886.0064	1449.0005	65535	64637.6
886.1499	1450.8279	65535	64634.4
886.2933	1452.6545	65535	64637.05
886.4368	1454.4804	65535	64637.75
886.5802	1456.3056	65535	64630.35
886.7237	1458.13	65535	64635.9
886.8671	1459.9536	65535	64637.6
887.0105	1461.7766	65535	64637.3
887.1539	1463.5987	65535	64634.2
887.2972	1465.4202	65535	64634.45
887.4406	1467.2409	65535	64633.45
887.584	1469.0608	65535	64637.45
887.7273	1470.88	65535	64635.95
887.8706	1472.6984	65535	64634.9
888.0139	1474.5161	65535	64634.2
888.1572	1476.3331	65535	64638.3
888.3005	1478.1493	65535	64634.8
888.4438	1479.9648	65535	64637.2
888.5871	1481.7795	65535	64637.05
888.7303	1483.5935	65535	64635.3
888.8736	1485.4067	65535	64634.25
889.0168	1487.2192	65535	64635.6
889.16	1489.031	65535	64632.75
889.3032	1490.842	65535	64634.85
889.4464	1492.6522	65535	64637.05
889.5896	1494.4618	65535	64636.2
889.7327	1496.2705	65535	64633.85
889.8759	1498.0785	65535	64636
890.019	1499.8858	65535	64635.3
890.1622	1501.6924	65535	64637.3
890.3053	1503.4981	65535	64636.25
890.4484	1505.3032	65535	64633.9
890.5914	1507.1075	65535	64635.9
890.7345	1508.911	65535	64637.7
890.8776	1510.7138	65535	64635.8
891.0206	1512.5159	65535	64636.15
891.1637	1514.3172	65535	64636.45
891.3067	1516.1178	65535	64640.45
891.4497	1517.9176	65535	64633.95
891.5927	1519.7166	65535	64637.9
891.7357	1521.515	65535	64631.3
891.8786	1523.3126	65535	64635.4
892.0216	1525.1094	65535	64636.45
892.1645	1526.9055	65535	64637.1
892.3074	1528.7008	65535	64637.3
892.4503	1530.4954	65535	64629.55
892.5932	1532.2893	65535	64638.6
892.7361	1534.0824	65535	64632.6
892.879	1535.8747	65535	64637.9
893.0218	1537.6663	65535	64637.15
893.1647	1539.4572	65533.35	64634.45
893.3075	1541.2473	65535	64636.15
893.4503	1543.0367	65535	64636.55
893.5931	1544.8253	65535	64632.55
893.7359	1546.6132	65535	64632.75
893.8787	1548.4003	65532.6	64626.05
894.0214	1550.1867	65530	64622.55
894.1642	1551.9723	65524.65	64620.4
894.3069	1553.7572	65525.85	64626.95
894.4496	1555.5414	65531.85	64635.3
894.5923	1557.3247	65378.6	64481.3
894.735	1559.1074	65531.5	64635.1
894.8777	1560.8893	65506.5	64610.7
895.0204	1562.6705	65517.7	64621.55
895.163	1564.4509	65413.95	64514.95
895.3056	1566.2305	65490.8	64593.95
895.4482	1568.0094	65523.45	64625.6
895.5908	1569.7876	65498.6	64602.35
895.7334	1571.565	65401.6	64502.2
895.876	1573.3417	65447.55	64550.9
896.0186	1575.1176	65428.95	64532.9
896.1611	1576.8928	65381.95	64486.15
896.3036	1578.6672	65155.75	64261.05
896.4461	1580.4409	65313.45	64417.65
896.5886	1582.2138	64923.7	64027.1
896.7311	1583.986	65061.3	64164.5
896.8736	1585.7575	64571.85	63676.15
897.0161	1587.5282	64740.6	63845.45
897.1585	1589.2981	64740.9	63847.65
897.3009	1591.0673	64208.4	63311.9
897.4433	1592.8358	63767.9	62873.25
897.5857	1594.6035	64247	63349.4
897.7281	1596.3704	64288.8	63391.1
897.8705	1598.1366	63328.65	62432.25
898.0128	1599.9021	62929.55	62034
898.1551	1601.6668	63704.2	62807.75
898.2975	1603.4308	63223.05	62325.2
898.4398	1605.194	63347.2	62447.65
898.5821	1606.9564	62288.15	61395.15
898.7243	1608.7182	62837.1	61939.75
898.8666	1610.4791	62330.25	61437.5
899.0088	1612.2394	62835.75	61941.3
899.1511	1613.9988	62187.45	61292.05
899.2933	1615.7576	62874.45	61978.55
899.4355	1617.5156	62879.85	61977.65
899.5776	1619.2728	63669.7	62773.75
899.7198	1621.0293	62435.45	61540.25
899.862	1622.785	62458.3	61560.75
900.0041	1624.54	62856.75	61959.8
900.1462	1626.2942	62215.65	61320.45
900.2883	1628.0477	61173.45	60276.25
900.4304	1629.8005	60524.25	59625.35
900.5725	1631.5525	61230.65	60335.5
900.7145	1633.3037	59972.05	59076.1
900.8566	1635.0542	59913.25	59018.6
900.9986	1636.804	60281.05	59384.6
901.1406	1638.553	59264.7	58259.35
901.2826	1640.3013	59525.55	58627.65
901.4245	1642.0488	58793.5	57897.8
901.5665	1643.7955	59200.6	58307.3
901.7085	1645.5416	58740.55	57846.45
901.8504	1647.2868	58322.1	57428.6
901.9923	1649.0313	59025.55	58131.3
902.1342	1650.7751	58589.2	57691.95
902.2761	1652.5181	58197.65	57304.1
902.4179	1654.2604	58328.2	57434.15
902.5598	1656.0019	58812.95	57918.65
902.7016	1657.7427	58598.2	57702.9
902.8434	1659.4828	59131.8	58238.15
902.9852	1661.222	58778.55	57883.15
903.127	1662.9606	59123.55	58229.55
903.2687	1664.6984	58423.1	57529.5
903.4105	1666.4354	58460.2	57563.75
903.5522	1668.1717	57360.35	56465.75
903.6939	1669.9072	56644.35	55748.5
903.8356	1671.642	56335.45	55439.65
903.9773	1673.3761	56011.55	55117.5
904.119	1675.1094	55676.2	54781.45
904.2606	1676.8419	55175	54279.5
904.4022	1678.5737	54983.25	54089.55
904.5439	1680.3048	54635	53741.55
904.6855	1682.0351	54311.1	53415.75
904.827	1683.7646	54016.9	53119.45
904.9686	1685.4934	53987.8	53092.9
905.1101	1687.2215	53163.1	52265.3
905.2517	1688.9488	53520.85	52627.5
905.3932	1690.6754	52500.55	51607.15
905.5347	1692.4012	52837.8	51943.25
905.6761	1694.1263	52667.75	51774.1
905.8176	1695.8506	52378.1	51484.55
905.9591	1697.5742	52180.8	51289.1
906.1005	1699.297	51947.55	51052.9
906.2419	1701.0191	51779.65	50886.5
906.3833	1702.7404	51476.9	50582.7
906.5246	1704.461	51144.05	50250.05
906.666	1706.1808	51005.7	50109.75
906.8073	1707.8999	50931.1	50038.2
906.9487	1709.6182	50723.6	49828
907.09	1711.3358	50550.45	49656.65
907.2313	1713.0527	50351.7	49459.45
907.3725	1714.7688	50180.2	49282.15
907.5138	1716.4841	49843.55	48949.1
907.655	1718.1987	49865.6	48967.05
907.7962	1719.9126	49595	48702.9
907.9374	1721.6257	49445.6	48550.25
908.0786	1723.338	49385.15	48490.3
908.2198	1725.0496	48920.4	48025.9
908.3609	1726.7605	48838	47942.9
908.502	1728.4706	48728.7	47834
908.6431	1730.18	48450.1	47553.5
908.7842	1731.8886	48287.1	47395
908.9253	1733.5964	48152.3	47238.9
909.0664	1735.3036	48034.1	47139.8
909.2074	1737.0099	47922.9	47031.5
909.3484	1738.7156	47755.2	46862.25
909.4894	1740.4204	47501.45	46605.7
909.6304	1742.1246	47393.25	46498.8
909.7714	1743.8279	47297.8	46404.2
909.9123	1745.5306	47198.95	46305.4
910.0532	1747.2325	46959.8	46065.3
910.1941	1748.9336	46784.7	45891.9
910.335	1750.634	46603.4	45709.75
910.4759	1752.3336	46504.85	45611.05
910.6168	1754.0325	46385.65	45495.6
910.7576	1755.7307	46224.75	45333.45
910.8984	1757.4281	46153.6	45261.65
911.0392	1759.1247	46086	45184.4
911.18	1760.8206	45895.8	44997.95
911.3208	1762.5158	45853.2	44956.3
911.4615	1764.2102	45634.15	44741.5
911.6022	1765.9039	45440.45	44546.1
911.7429	1767.5968	45392.05	44500.1
911.8836	1769.289	45166.65	44273.2
912.0243	1770.9804	45127.4	44235.25
912.1649	1772.6711	44991.95	44098.5
912.3056	1774.361	44834.65	43942.3
912.4462	1776.0502	44681.35	43786.75
912.5868	1777.7386	44536.4	43638.55
912.7274	1779.4263	44502.3	43607
912.8679	1781.1132	44379.5	43485.75
913.0084	1782.7994	44183.65	43290.65
913.149	1784.4849	44086.6	43194.6
913.2895	1786.1696	43946.3	43046.75
913.4299	1787.8535	43840.5	42949.5
913.5704	1789.5367	43659.8	42768.25
913.7108	1791.2192	43603.25	42710.75
913.8513	1792.9009	43377.45	42455.35
913.9917	1794.5818	43307	42412.25
914.132	1796.2621	43192.3	42300.45
914.2724	1797.9415	43104.65	42212.45
914.4128	1799.6202	42916.65	42023.3
914.5531	1801.2982	42797.55	41905.3
914.6934	1802.9755	42741.95	41848.05
914.8337	1804.6519	42577.35	41683.35
914.9739	1806.3277	42349.65	41459.55
915.1142	1808.0027	42188.85	41298.35
915.2544	1809.6769	42120.75	41229.95
915.3946	1811.3504	41970.5	41075.3
915.5348	1813.0231	41939.75	41045.6
915.675	1814.6951	41813.4	40919.95
915.8151	1816.3664	41762.85	40869.15
915.9553	1818.0369	41596.9	40705.2
916.0954	1819.7067	41478.55	40587.5
916.2355	1821.3757	41413.95	40519.3
916.3755	1823.044	41289.7	40397.1
916.5156	1824.7115	41198.45	40307.5
916.6556	1826.3783	40950.3	40057.55
916.7956	1828.0443	40774.75	39883.3
916.9356	1829.7096	40706.55	39812.85
917.0756	1831.3741	40648.35	39751.5
917.2155	1833.0379	40513.5	39622.4
917.3555	1834.701	40371.9	39478.5
917.4954	1836.3633	40320.45	39427.4
917.6353	1838.0248	40190.95	39298.8
917.7751	1839.6856	40056.75	39165.45
917.915	1841.3457	40058.6	39167.75
918.0548	1843.005	39940.45	39051.85
918.1946	1844.6636	39856.75	38964.65
918.3344	1846.3214	39706.15	38811.65
918.4742	1847.9785	39625.5	38733.85
918.6139	1849.6349	39455.7	38560.95
918.7537	1851.2904	39434.75	38534
918.8934	1852.9453	39212.25	38319.7
919.0331	1854.5994	39127.95	38232.6
919.1727	1856.2528	39108.55	38211.65
919.3124	1857.9054	38971.55	38079
919.452	1859.5572	38929.05	38038.8
919.5916	1861.2083	38806	37915.35
919.7312	1862.8587	38792.5	37900.6
919.8708	1864.5084	38600.6	37706.7
920.0103	1866.1572	38517.85	37625.25
920.1498	1867.8054	38301.95	37408.15
920.2893	1869.4528	38213.2	37320.8
920.4288	1871.0994	38093.45	37199.6
920.5683	1872.7453	38028.65	37136.75
920.7077	1874.3905	37926.1	37028.2
920.8471	1876.0349	37799.75	36906.55
920.9865	1877.6786	37789.75	36896.3
921.1259	1879.3215	37706.1	36815.2
921.2653	1880.9637	37584.55	36692.35
921.4046	1882.6051	37510.15	36618.05
921.5439	1884.2458	37423.8	36528.85
921.6832	1885.8858	37215.7	36323.85
921.8225	1887.525	37160.3	36266.3
921.9617	1889.1634	36976.95	36084.9
922.101	1890.8011	36814.05	35921.4
922.2402	1892.4381	36746.8	35854.1
922.3794	1894.0743	36674.95	35783.45
922.5185	1895.7098	36527.2	35635.45
922.6577	1897.3446	36435.95	35542.9
922.7968	1898.9786	36333.55	35435.4
922.9359	1900.6118	36231.3	35338.85
923.075	1902.2443	36084	35190.25
923.214	1903.8761	35956.6	35064
923.3531	1905.5071	35730.9	34835.6
923.4921	1907.1374	35660.45	34767.85
923.6311	1908.7669	35621.65	34729.8
923.77	1910.3957	35584.75	34694.1
923.909	1912.0237	35290.1	34397.5
924.0479	1913.651	35194.25	34299.85
924.1868	1915.2776	35137.4	34246.6
924.3257	1916.9034	34967.15	34074.45
924.4646	1918.5285	34790.75	33898.25
924.6034	1920.1528	34637.15	33744.7
924.7422	1921.7764	34557.65	33664.65
924.881	1923.3992	34423.4	33533.7
925.0198	1925.0213	34180.9	33288
925.1586	1926.6427	34076.6	33185.2
925.2973	1928.2633	34072	33072.25
925.436	1929.8832	33859.75	32966.45
925.5747	1931.5023	33681.85	32791.25
925.7134	1933.1207	33645.3	32753.15
925.852	1934.7383	33537.85	32645.75
925.9906	1936.3552	33386.4	32493.5
926.1292	1937.9714	33283.2	32389.65
926.2678	1939.5868	33155.4	32260.75
926.4064	1941.2015	32969.55	32075.45
926.5449	1942.8154	32800.75	31908.2
926.6834	1944.4286	32724.8	31833.05
926.8219	1946.041	32547.5	31635.45
926.9604	1947.6528	32395.1	31497.35
927.0988	1949.2637	32301.3	31411.15
927.2372	1950.8739	32127.45	31234.85
927.3756	1952.4834	32058.35	31167.05
927.514	1954.0921	32033.2	31141.1
927.6523	1955.7001	31876.7	30980.15
927.7907	1957.3074	31746.1	30854.35
927.929	1958.9139	31598.45	30708.2
928.0673	1960.5197	31516.4	30622.4
928.2055	1962.1247	31344.25	30452.25
928.3438	1963.729	31242.75	30351.2
928.482	1965.3325	31066.35	30150.5
928.6202	1966.9353	30976.15	30083.9
928.7584	1968.5374	30888.1	29995.55
928.8965	1970.1387	30738.9	29846.3
929.0346	1971.7393	30646.25	29755.5
929.1727	1973.3392	30547	29654.6
929.3108	1974.9383	30459.9	29570.3
929.4489	1976.5366	30262.7	29369.6
929.5869	1978.1342	30219.9	29327
929.7249	1979.7311	30172.15	29279.6
929.8629	1981.3273	30046.8	29153.15
930.0009	1982.9227	29948.25	29056.8
930.1388	1984.5173	29815.05	28925.1
930.2767	1986.1112	29662.65	28771.7
930.4146	1987.7044	29622.5	28735.1
930.5525	1989.2968	29483	28590.3
930.6904	1990.8885	29457.35	28562.35
930.8282	1992.4795	29371.5	28478.15
930.966	1994.0697	29201.25	28310.35
931.1038	1995.6592	29127.25	28234.95
931.2415	1997.2479	29005.95	28114.9
931.3793	1998.8359	28938.8	28047.65
931.517	2000.4232	28798.9	27906.5
931.6547	2002.0097	28679.25	27788.6
931.7923	2003.5955	28559.2	27668.35
931.93	2005.1805	28556.9	27663.85
932.0676	2006.7648	28408.25	27517.2
932.2052	2008.3484	28353.45	27461.8
932.3427	2009.9312	28355.25	27461.45
932.4803	2011.5133	28176.05	27285.8
932.6178	2013.0946	28085.6	27194.35
932.7553	2014.6752	27997.75	27107.3
932.8928	2016.2551	27931.25	27039.4
933.0302	2017.8342	27803.65	26911.35
933.1676	2019.4126	27658.8	26767.85
933.305	2020.9902	27539.5	26649.15
933.4424	2022.5672	27479.55	26585.85
933.5798	2024.1433	27456.35	26562.05
933.7171	2025.7188	27308.75	26419.8
933.8544	2027.2935	27194.1	26302.75
933.9917	2028.8674	27114	26223.75
934.129	2030.4406	26999.35	26108.05
934.2662	2032.0131	26901.5	26008.65
934.4034	2033.5849	26761.35	25864.8
934.5406	2035.1559	26717.2	25825.9
934.6778	2036.7261	26698.15	25806.85
934.8149	2038.2957	26619.65	25729.95
934.952	2039.8645	26495.6	25605.25
935.0891	2041.4325	26527.9	25632.75
935.2262	2042.9998	26355.15	25465.15
935.3632	2044.5664	26271.1	25378.55
935.5002	2046.1323	26219.6	25327.7
935.6372	2047.6974	26101.25	25210.95
935.7742	2049.2617	26047.1	25154.7
935.9111	2050.8254	25986.45	25070.95
936.048	2052.3883	25937	25043.9
936.1849	2053.9504	25819.95	24928.75
936.3218	2055.5118	25722.1	24830.35
936.4586	2057.0725	25595.95	24699.05
936.5955	2058.6325	25538.75	24647.15
936.7323	2060.1917	25459	24568.45
936.869	2061.7502	25381.25	24487.6
937.0058	2063.3079	25269.3	24380.5
937.1425	2064.8649	25246.65	24351.75
937.2792	2066.4212	25153	24260
937.4159	2067.9767	25037.5	24147.2
937.5525	2069.5315	24946.75	24056.15
937.6891	2071.0856	24801.65	23910.75
937.8257	2072.6389	24720.95	23828.1
937.9623	2074.1915	24615.75	23723.9
938.0989	2075.7433	24502.55	23611.15
938.2354	2077.2945	24439.1	23547.7
938.3719	2078.8448	24372.9	23482.5
938.5084	2080.3945	24241.1	23350.55
938.6448	2081.9434	24249.35	23357.85
938.7812	2083.4916	24154.5	23262.3
938.9176	2085.039	24022.5	23128.95
939.054	2086.5857	23950.6	23058.15
939.1903	2088.1317	23898.35	23008.35
939.3267	2089.677	23842.5	22949.45
939.463	2091.2215	23757.85	22867
939.5992	2092.7652	23650.65	22758.05
939.7355	2094.3083	23593.25	22702.85
939.8717	2095.8506	23572.3	22681.7
940.0079	2097.3921	23550.55	22659.8
940.1441	2098.933	23442.1	22551
940.2802	2100.4731	23380.1	22487.95
940.4163	2102.0124	23316.7	22416.75
940.5524	2103.5511	23245.25	22352.9
940.6885	2105.089	23180.75	22287.45
940.8245	2106.6261	23139.65	22247.6
940.9606	2108.1626	23065.6	22174.75
941.0965	2109.6983	22977.95	22056.95
941.2325	2111.2332	22947.3	22055.75
941.3684	2112.7675	22835.4	21945
941.5044	2114.301	22768.7	21875.25
941.6403	2115.8337	22729.2	21835.3
941.7761	2117.3657	22679.25	21786.7
941.912	2118.897	22627.6	21735.3
942.0478	2120.4276	22506.5	21610.45
942.1835	2121.9575	22411.35	21519.75
942.3193	2123.4866	22427.55	21522.95
942.455	2125.0149	22311.1	21416.2
942.5907	2126.5426	22215.05	21323.25
942.7264	2128.0695	22153.35	21257
942.8621	2129.5956	22069.4	21179.95
942.9977	2131.1211	21985.75	21088
943.1333	2132.6458	21944.35	21052.2
943.2689	2134.1698	21877.25	20986.4
943.4044	2135.693	21822.9	20928.7
943.54	2137.2155	21781.3	20887.15
943.6755	2138.7373	21714.3	20822.5
943.8109	2140.2584	21605.7	20713.85
943.9464	2141.7787	21562.1	20667.5
944.0818	2143.2983	21453.1	20561
944.2172	2144.8171	21327	20436.8
944.3526	2146.3353	21287.1	20395.2
944.4879	2147.8527	21178.6	20287.9
944.6232	2149.3693	21173.55	20282.05
944.7585	2150.8853	21088.1	20194.75
944.8938	2152.4005	20981.45	20087.7
945.029	2153.9149	20952.1	20059.8
945.1642	2155.4287	20864.45	19973.6
945.2994	2156.9417	20816.9	19923.6
945.4346	2158.454	20757.95	19863.65
945.5697	2159.9655	20685.7	19795.25
945.7048	2161.4764	20664.3	19772.95
945.8399	2162.9865	20590.55	19698.8
945.9749	2164.4958	20518.25	19624.85
946.1099	2166.0045	20433.8	19539.6
946.2449	2167.5124	20430.85	19539.5
946.3799	2169.0195	20342.1	19449.85
946.5148	2170.526	20306.85	19413.95
946.6498	2172.0317	20189.65	19297
946.7846	2173.5367	20149.9	19257.75
946.9195	2175.0409	20119.7	19228.1
947.0543	2176.5445	20069.15	19179
947.1891	2178.0473	19971.6	19079.8
947.3239	2179.5494	19893.6	18998.7
947.4587	2181.0507	19785.05	18892.55
947.5934	2182.5513	19758.35	18866.35
947.7281	2184.0512	19704.3	18812.2
947.8628	2185.5504	19627	18735.3
947.9974	2187.0488	19522.6	18630.95
948.132	2188.5465	19472.95	18580.6
948.2666	2190.0435	19412.55	18520.35
948.4012	2191.5397	19353.15	18461
948.5357	2193.0353	19297.45	18405.5
948.6702	2194.5301	19143.45	18251.7
948.8047	2196.0241	19088.1	18194.65
948.9392	2197.5175	19032.85	18139.4
949.0736	2199.0101	18952.8	18057.75
949.208	2200.502	18862.35	17973.1
949.3424	2201.9931	18782	17892.9
949.4767	2203.4835	18738.5	17843.05
949.611	2204.9733	18675.95	17777.85
949.7453	2206.4622	18637.25	17745
949.8796	2207.9505	18525.25	17630.15
950.0138	2209.438	18425.45	17534.25
950.148	2210.9248	18354.85	17466
950.2822	2212.4109	18305.15	17416.05
950.4164	2213.8962	18260.55	17367.35
950.5505	2215.3809	18228.4	17334.2
950.6846	2216.8648	18191.95	17299.65
950.8186	2218.3479	18094.9	17197.5
950.9527	2219.8304	18030.3	17136.05
951.0867	2221.3121	17952.7	17058.5
951.2207	2222.7931	17892.9	17001.55
951.3546	2224.2733	17816.75	16924.2
951.4886	2225.7529	17750.7	16859.15
951.6225	2227.2317	17663.3	16769.25
951.7563	2228.7098	17666.35	16774.65
951.8902	2230.1872	17564.5	16673.4
952.024	2231.6638	17540.1	16648.45
952.1578	2233.1397	17462.75	16566.85
952.2916	2234.6149	17422.95	16530.2
952.4253	2236.0894	17342.75	16451.7
952.559	2237.5632	17308.95	16407.75
952.6927	2239.0362	17199.9	16307.9
952.8263	2240.5085	17170.85	16277.85
952.9599	2241.9801	17087.85	16194.55
953.0935	2243.4509	17064.1	16173.6
953.2271	2244.921	16983	16092.95
953.3606	2246.3904	16890.15	15996.25
953.4941	2247.8591	16868.1	15977.25
953.6276	2249.3271	16794.9	15904.4
953.7611	2250.7943	16729.7	15836.4
953.8945	2252.2608	16655.85	15763.8
954.0279	2253.7266	16634	15740.9
954.1612	2255.1917	16581.45	15688.75
954.2946	2256.656	16496.8	15601.55
954.4279	2258.1197	16433	15543.55
954.5612	2259.5826	16381.35	15486.7
954.6944	2261.0447	16389.1	15494.3
954.8276	2262.5062	16276.25	15381.85
954.9608	2263.9669	16246.85	15352.8
955.094	2265.4269	16214.85	15322.8
955.2271	2266.8862	16150.95	15259.15
955.3602	2268.3448	16117.3	15225.8
955.4933	2269.8026	16080.25	15186.95
955.6264	2271.2598	16055.55	15162.8
955.7594	2272.7162	15956.45	15065.85
955.8924	2274.1719	15898.35	15006.65
956.0253	2275.6268	15872.4	14980.45
956.1583	2277.0811	15837.15	14943.1
956.2912	2278.5346	15780.25	14890.4
956.4241	2279.9874	15734.3	14843.2
956.5569	2281.4395	15685.5	14797.35
956.6897	2282.8908	15620.75	14723.85
956.8225	2284.3414	15600.6	14706.9
956.9553	2285.7914	15522.6	14630.7
957.088	2287.2406	15467.7	14576.35
957.2207	2288.689	15458.75	14567.95
957.3534	2290.1368	15362.3	14468.45
957.486	2291.5838	15298.85	14403.45
957.6186	2293.0302	15261.15	14365.9
957.7512	2294.4758	15190.9	14298.05
957.8838	2295.9206	15119.55	14226.1
958.0163	2297.3648	15117.55	14225.35
958.1488	2298.8082	15083.35	14191.75
958.2813	2300.251	15031.95	14139.05
958.4137	2301.693	14954.65	14060.55
958.5461	2303.1343	14972.4	14079.45
958.6785	2304.5748	14887.45	13995.35
958.8108	2306.0147	14812.4	13921.15
958.9432	2307.4538	14807.25	13913.4
959.0754	2308.8922	14746.45	13857.15
959.2077	2310.3299	14715.05	13823.25
959.3399	2311.7669	14626.25	13735.2
959.4721	2313.2031	14559.85	13667.1
959.6043	2314.6387	14491.4	13597.7
959.7365	2316.0735	14454.6	13564.2
959.8686	2317.5076	14449.05	13557.25
960.0006	2318.941	14392.1	13501.4
960.1327	2320.3737	14359	13465.25
960.2647	2321.8056	14311.8	13416.2
960.3967	2323.2369	14271.55	13379.5
960.5287	2324.6674	14209.5	13315
960.6606	2326.0972	14177.65	13282.9
960.7925	2327.5263	14103.75	13210.65
960.9244	2328.9547	14035.4	13141.7
961.0562	2330.3823	13987.95	13095.55
961.1881	2331.8092	13976.15	13082.05
961.3198	2333.2355	13953.35	13060.4
961.4516	2334.661	13902.95	13009.6
961.5833	2336.0858	13885.8	12992.3
961.715	2337.5098	13849.6	12957.4
961.8467	2338.9332	13788.1	12894
961.9783	2340.3558	13703.75	12808.8
962.1099	2341.7778	13671.1	12777.75
962.2415	2343.199	13613.7	12720.9
962.373	2344.6195	13568.6	12677.25
962.5045	2346.0393	13564.75	12673.2
962.636	2347.4583	13543.2	12651.1
962.7675	2348.8767	13459.9	12566.1
962.8989	2350.2943	13418.1	12526.85
963.0303	2351.7113	13404.4	12512.1
963.1617	2353.1275	13319.35	12429.1
963.293	2354.543	13312.25	12396.45
963.4243	2355.9578	13256.1	12361.55
963.5556	2357.3718	13207.8	12318.4
963.6868	2358.7852	13108.3	12213.3
963.818	2360.1978	13025.65	12133.8
963.9492	2361.6098	12992.65	12103.3
964.0803	2363.021	12973.5	12077.35
964.2114	2364.4315	12936.95	12044.8
964.3425	2365.8413	12897.5	12003
964.4736	2367.2504	12841.2	11950.1
964.6046	2368.6587	12767	11874.4
964.7356	2370.0664	12717.9	11825
964.8666	2371.4733	12656.55	11766.25
964.9975	2372.8795	12633.35	11741.8
965.1284	2374.285	12587.25	11695.65
965.2593	2375.6899	12505.1	11614.5
965.3901	2377.0939	12480.7	11589.7
965.5209	2378.4973	12445.75	11554.3
965.6517	2379.9	12399.35	11505.6
965.7825	2381.3019	12353.65	11462.1
965.9132	2382.7032	12290.65	11399.2
966.0439	2384.1037	12263.85	11373.55
966.1745	2385.5035	12196.5	11306
966.3051	2386.9027	12166.15	11274.45
966.4357	2388.3011	12148	11255.35
966.5663	2389.6987	12092.7	11201.05
966.6968	2391.0957	12069	11177.45
966.8273	2392.492	11966.3	11076.1
966.9578	2393.8876	11941.3	11049.95
967.0882	2395.2824	11873.2	10980.35
967.2186	2396.6765	11817.5	10927.55
967.349	2398.07	11759.1	10868.5
967.4793	2399.4627	11764.85	10872.35
967.6097	2400.8547	11707.75	10817.95
967.7399	2402.246	11661.55	10763.3
967.8702	2403.6366	11617.5	10726.3
968.0004	2405.0265	11535.6	10643.35
968.1306	2406.4156	11517.85	10623.3
968.2607	2407.8041	11448.8	10554.1
968.3909	2409.1918	11393.6	10497.75
968.521	2410.5789	11365.85	10474.3
968.651	2411.9652	11330.65	10435.8
968.781	2413.3508	11295.2	10403.1
968.911	2414.7358	11240.2	10348.1
969.041	2416.12	11201.5	10311.6
969.1709	2417.5035	11175.1	10285.15
969.3008	2418.8863	11110	10218.15
969.4307	2420.2684	11077.6	10187.4
969.5606	2421.6497	11028.9	10136.8
969.6904	2423.0304	10963.1	10071.9
969.8201	2424.4104	10959.95	10068.2
969.9499	2425.7896	10923.1	10023.6
970.0796	2427.1682	10886.55	9995.35
970.2093	2428.546	10837.45	9944.7
970.3389	2429.9232	10815.95	9921.05
970.4685	2431.2996	10791.8	9900
970.5981	2432.6753	10759.15	9867.05
970.7277	2434.0503	10706.4	9814.95
970.8572	2435.4246	10667.65	9776.5
970.9867	2436.7982	10625.65	9733.05
971.1161	2438.1711	10597.8	9706.9
971.2456	2439.5433	10578.95	9687.65
971.375	2440.9148	10522.65	9630.2
971.5043	2442.2856	10484.95	9592.5
971.6336	2443.6557	10456.7	9562.2
971.7629	2445.025	10400.25	9509.1
971.8922	2446.3937	10375.85	9481.25
972.0214	2447.7617	10338.9	9446.15
972.1506	2449.1289	10326.75	9437.3
972.2798	2450.4955	10289.4	9393.15
972.4089	2451.8613	10265.85	9375.5
972.538	2453.2265	10214.55	9321
972.6671	2454.5909	10182.6	9290.25
972.7961	2455.9546	10176.55	9286.55
972.9251	2457.3177	10119.9	9230.35
973.0541	2458.68	10080	9187.7
973.1831	2460.0416	10094.4	9203.2
973.312	2461.4025	10057.35	9164.45
973.4408	2462.7627	10024.6	9120.6
973.5697	2464.1222	9994.2	9105.2
973.6985	2465.4811	9971.75	9081
973.8273	2466.8392	9935.1	9043.5
973.956	2468.1966	9929.6	9035.45
974.0847	2469.5533	9904.25	9009.05
974.2134	2470.9093	9848.2	8956.6
974.3421	2472.2645	9794.1	8900.25
974.4707	2473.6191	9775.2	8884.05
974.5993	2474.973	9748.3	8854.65
974.7278	2476.3262	9710.7	8816.8
974.8563	2477.6787	9674.15	8781.95
974.9848	2479.0305	9637.85	8746.55
975.1132	2480.3816	9599.85	8707.85
975.2417	2481.7319	9584.85	8694.5
975.37	2483.0816	9530.1	8638.95
975.4984	2484.4306	9461.05	8568.6
975.6267	2485.7789	9466.25	8575.7
975.755	2487.1264	9403.3	8509.65
975.8833	2488.4733	9364.2	8471.15
976.0115	2489.8195	9350.8	8452.7
976.1397	2491.165	9304.95	8410.4
976.2678	2492.5097	9282	8388.7
976.3959	2493.8538	9199.75	8309.7
976.524	2495.1972	9185.15	8293.35
976.6521	2496.5398	9146.8	8254.15
976.7801	2497.8818	9137.3	8242
976.9081	2499.2231	9079.55	8186.65
977.036	2500.5637	9075.9	8183.75
977.164	2501.9035	9031.05	8137.95
977.2918	2503.2427	9005.55	8110
977.4197	2504.5812	8976.65	8084.15
977.5475	2505.919	8947.95	8053.95
977.6753	2507.256	8932.5	8040.1
977.8031	2508.5924	8902.25	8010.9
977.9308	2509.9281	8875.3	7977.55
978.0585	2511.2631	8801.1	7909.9
978.1861	2512.5974	8771.85	7879.05
978.3137	2513.9309	8733.4	7842.85
978.4413	2515.2638	8754.55	7828.7
978.5689	2516.596	8714.3	7820.65
978.6964	2517.9275	8665.7	7771.85
978.8239	2519.2583	8647.95	7755.75
978.9513	2520.5884	8582.4	7689.65
979.0788	2521.9178	8555.3	7661.5
979.2062	2523.2465	8526.85	7637.05
979.3335	2524.5745	8500.65	7611.1
979.4608	2525.9018	8462.85	7571.15
979.5881	2527.2284	8453.6	7561.65
979.7154	2528.5543	8444.05	7553.5
979.8426	2529.8796	8405.65	7512.35
979.9698	2531.2041	8367.2	7473.75
980.0969	2532.5279	8355.35	7463.6
980.224	2533.851	8355.05	7463.5
980.3511	2535.1735	8311.4	7421.05
980.4781	2536.4952	8292.95	7401.95
980.6052	2537.8163	8285.2	7394.1
980.7321	2539.1366	8238.3	7346.9
980.8591	2540.4562	8214.25	7320.35
980.986	2541.7752	8199.65	7311
981.1129	2543.0935	8163.55	7272
981.2397	2544.411	8170	7277.55
981.3665	2545.7279	8140.1	7248.95
981.4933	2547.0441	8129.8	7239.25
981.62	2548.3596	8137.05	7241.45
981.7467	2549.6744	8102.8	7211.25
981.8734	2550.9885	8056.4	7161.8
982.0001	2552.3019	8026.75	7135.95
982.1267	2553.6146	8006.85	7116
982.2532	2554.9266	7975.75	7084.25
982.3798	2556.2379	7939.3	7046.5
982.5063	2557.5485	7940.45	7050.15
982.6327	2558.8585	7906.5	7006.1
982.7592	2560.1677	7903.85	7008.25
982.8856	2561.4762	7870.35	6979.75
983.0119	2562.7841	7882.8	6988.95
983.1383	2564.0913	7857.5	6967.6
983.2646	2565.3977	7834.4	6943.85
983.3908	2566.7035	7773.55	6882.45
983.517	2568.0086	7777.9	6884.25
983.6432	2569.313	7766.1	6873.5
983.7694	2570.6167	7754.15	6858.5
983.8955	2571.9197	7720.9	6830.35
984.0216	2573.222	7707.35	6811.15
984.1476	2574.5236	7701.35	6809.9
984.2737	2575.8246	7658.35	6764.2
984.3996	2577.1248	7666.65	6770.9
984.5256	2578.4244	7631.1	6740.5
984.6515	2579.7232	7642.55	6751.8
984.7774	2581.0214	7632.4	6717.3
984.9032	2582.3189	7604.65	6713.45
985.029	2583.6157	7575.75	6679.05
985.1548	2584.9118	7568.65	6675.2
985.2806	2586.2072	7544.2	6652.8
985.4063	2587.5019	7512.55	6620.9
985.5319	2588.7959	7481.6	6588.7
985.6576	2590.0893	7468	6575.15
985.7832	2591.3819	7439.05	6547.35
985.9087	2592.6739	7416.25	6525.9
986.0343	2593.9652	7409.45	6516.35
986.1597	2595.2557	7398.55	6507.45
986.2852	2596.5456	7378.45	6484.3
986.4106	2597.8348	7346	6454.9
986.536	2599.1234	7302.85	6412
986.6614	2600.4112	7281.25	6390.4
986.7867	2601.6983	7247.1	6352.75
986.912	2602.9848	7225.15	6334.2
987.0372	2604.2705	7203	6306.05
987.1624	2605.5556	7199.85	6309
987.2876	2606.84	7159.95	6267.05
987.4128	2608.1237	7140.25	6247.5
987.5379	2609.4067	7099.65	6208.7
987.6629	2610.689	7090.7	6189.35
987.788	2611.9707	7086.2	6190.1
987.913	2613.2516	7063.55	6165.35
988.0379	2614.5319	6998.35	6105.45
988.1629	2615.8115	6974.6	6081.2
988.2878	2617.0903	6943.25	6051.2
988.4126	2618.3685	6921.5	6030.35
988.5375	2619.6461	6898.15	6006.65
988.6622	2620.9229	6869.05	5976.65
988.787	2622.199	6864.3	5970.4
988.9117	2623.4745	6840.75	5947.2
989.0364	2624.7493	6816.8	5925.7
989.161	2626.0234	6790.95	5900.25
989.2857	2627.2968	6766.6	5873.75
989.4102	2628.5695	6715.25	5824.05
989.5348	2629.8415	6725.05	5834.5
989.6593	2631.1128	6685.9	5791.5
989.7837	2632.3835	6651.85	5760.45
989.9082	2633.6535	6644.3	5752.55
990.0326	2634.9228	6630.65	5739.05
990.1569	2636.1914	6594.55	5703.25
990.2812	2637.4593	6568.25	5669.9
990.4055	2638.7265	6548.1	5653.95
990.5298	2639.9931	6538.1	5647.45
990.654	2641.259	6508.75	5614.7
990.7782	2642.5242	6488.25	5595.9
990.9023	2643.7887	6468.45	5577.5
991.0264	2645.0525	6460.45	5567.25
991.1505	2646.3156	6431.55	5541.15
991.2745	2647.5781	6406.05	5515.15
991.3985	2648.8398	6373.5	5481.95
991.5225	2650.1009	6367.25	5468.9
991.6464	2651.3613	6353.4	5461.55
991.7703	2652.6211	6342.4	5448.95
991.8942	2653.8801	6311.5	5419.55
992.018	2655.1385	6288	5391.5
992.1418	2656.3961	6289.65	5397.3
992.2655	2657.6531	6259.6	5368.25
992.3892	2658.9094	6247.15	5355.4
992.5129	2660.1651	6234.7	5344.75
992.6366	2661.42	6219.95	5327.95
992.7602	2662.6743	6208.25	5315.55
992.8837	2663.9279	6206.95	5315.35
993.0073	2665.1808	6172.7	5279.95
993.1307	2666.433	6146.7	5254.8
993.2542	2667.6846	6143	5251.45
993.3776	2668.9354	6097.1	5203.4
993.501	2670.1856	6096.25	5203.3
993.6244	2671.4351	6082.75	5191.75
993.7477	2672.6839	6083.2	5189.05
993.8709	2673.9321	6046.25	5156.25
993.9942	2675.1795	6032.05	5139.85
994.1174	2676.4263	6015.15	5125.45
994.2405	2677.6724	6009.6	5117.6
994.3637	2678.9179	5984.05	5091.5
994.4868	2680.1626	5970	5077.6
994.6098	2681.4067	5971.2	5079.4
994.7328	2682.6501	5954.1	5062.55
994.8558	2683.8928	5926.25	5033.5
994.9788	2685.1348	5880.25	4988.15
995.1017	2686.3761	5852.8	4961.8
995.2245	2687.6168	5864	4972.6
995.3474	2688.8568	5830.3	4938.7
995.4702	2690.0961	5806	4915.7
995.5929	2691.3348	5797.75	4905.5
995.7156	2692.5727	5774.75	4882.1
995.8383	2693.81	5761.75	4869.7
995.961	2695.0466	5734.45	4844.25
996.0836	2696.2826	5710.45	4818.8
996.2062	2697.5178	5712.05	4817.4
996.3287	2698.7524	5687.15	4794.05
996.4512	2699.9863	5686.25	4792.7
996.5737	2701.2195	5645.15	4754.65
996.6961	2702.452	5639.55	4745
996.8185	2703.6839	5635.1	4741.6
996.9408	2704.9151	5608.25	4717.45
997.0631	2706.1456	5600.95	4709.25
997.1854	2707.3755	5580.1	4688.8
997.3077	2708.6046	5587.5	4694.4
997.4299	2709.8331	5572.05	4679.5
997.552	2711.0609	5548.6	4657.5
997.6742	2712.2881	5552.15	4660.35
997.7963	2713.5145	5547.85	4653.6
997.9183	2714.7403	5535.6	4645.85
998.0403	2715.9654	5514.6	4622.25
998.1623	2717.1899	5505.75	4600.85
998.2842	2718.4136	5510.75	4618.45
998.4062	2719.6367	5497.75	4605.65
998.528	2720.8591	5478.7	4579.85
998.6498	2722.0809	5472.9	4581.4
998.7716	2723.3019	5464.4	4570
998.8934	2724.5223	5447.75	4556.3
999.0151	2725.7421	5429.7	4537.3
999.1368	2726.9611	5438.7	4543.15
999.2584	2728.1795	5406.1	4509.55
999.38	2729.3972	5373.35	4481.05
999.5016	2730.6142	5368.2	4468.9
999.6231	2731.8306	5312.7	4420.45
999.7446	2733.0462	5292.85	4400.05
999.8661	2734.2612	5253.05	4357.9
999.9875	2735.4756	5226.95	4334
1000.1089	2736.6892	5188.9	4296.8
1000.2302	2737.9022	5157.7	4266.35
1000.3515	2739.1145	5139.3	4246.2
1000.4728	2740.3262	5119.15	4219.75
1000.594	2741.5372	5068.6	4178.15
1000.7152	2742.7475	5046.3	4154.1
1000.8363	2743.9571	5042.95	4148.3
1000.9575	2745.1661	5007.35	4110.95
1001.0785	2746.3744	4993.9	4100.75
1001.1996	2747.582	4968.75	4075.55
1001.3206	2748.7889	4950.65	4055.9
1001.4415	2749.9952	4932.85	4041.3
1001.5625	2751.2008	4902.3	4010.6
1001.6833	2752.4057	4872.35	3980
1001.8042	2753.61	4867.4	3976
1001.925	2754.8136	4847.95	3953.5
1002.0458	2756.0165	4834.75	3942.6
1002.1665	2757.2188	4815	3924.45
1002.2872	2758.4204	4816.5	3925.25
1002.4078	2759.6213	4794.5	3900.55
1002.5285	2760.8215	4788.25	3892.75
1002.649	2762.0211	4765.05	3871.85
1002.7696	2763.22	4755.1	3860.9
1002.8901	2764.4182	4731.65	3836.6
1003.0106	2765.6158	4717.7	3825.6
1003.131	2766.8127	4702.85	3812.2
1003.2514	2768.009	4693.65	3802.3
1003.3717	2769.2045	4672.75	3779.65
1003.492	2770.3994	4658.45	3762.8
1003.6123	2771.5936	4637.65	3743.65
1003.7325	2772.7872	4623.55	3733.6
1003.8527	2773.9801	4596.3	3703.35
1003.9729	2775.1723	4607.2	3698.4
1004.093	2776.3639	4573.25	3681.7
1004.2131	2777.5548	4575.05	3682
1004.3331	2778.745	4551.6	3657.25
1004.4531	2779.9346	4539.5	3648.5
1004.5731	2781.1235	4530.05	3637.35
1004.693	2782.3117	4528.35	3637.95
1004.8129	2783.4992	4508.8	3617.45
1004.9328	2784.6861	4497.7	3608.4
1005.0526	2785.8723	4487.4	3593.85
1005.1723	2787.0579	4465.6	3574
1005.2921	2788.2428	4474.2	3581.75
1005.4118	2789.427	4485.45	3594.7
1005.5314	2790.6106	4473.8	3581.7
1005.651	2791.7935	4467.75	3576.45
1005.7706	2792.9757	4455.9	3565.55
1005.8902	2794.1573	4451.35	3557.9
1006.0097	2795.3382	4434.5	3542.55
1006.1291	2796.5184	4451.7	3560.75
1006.2485	2797.698	4460.4	3569.75
1006.3679	2798.8769	4459.35	3565.25
1006.4873	2800.0551	4455.8	3564.7
1006.6066	2801.2327	4449.35	3555.05
1006.7258	2802.4096	4469.6	3577.25
1006.8451	2803.5859	4482	3589.55
1006.9642	2804.7615	4484.1	3591.8
1007.0834	2805.9364	4517.9	3629
1007.2025	2807.1106	4503	3610.65
1007.3216	2808.2842	4521.35	3629.4
1007.4406	2809.4572	4536.95	3645.95
1007.5596	2810.6294	4572.05	3679.6
1007.6785	2811.801	4601.65	3711.75
1007.7975	2812.972	4649.2	3758.15
1007.9163	2814.1423	4654.15	3764.3
1008.0352	2815.3119	4693.8	3801.05
1008.154	2816.4808	4738.85	3848.35
1008.2727	2817.6491	4777.35	3884.7
1008.3914	2818.8167	4815.9	3925.4
1008.5101	2819.9837	4850.3	3955.25
1008.6288	2821.15	4875.55	3983.95
1008.7474	2822.3157	4903.95	4011.95
1008.8659	2823.4807	4963	4072.3
1008.9844	2824.645	5005.15	4112.65
1009.1029	2825.8086	5015.5	4125.1
1009.2214	2826.9716	5059.15	4168.6
1009.3398	2828.134	5080.95	4190.6
1009.4581	2829.2957	5112.05	4219.7
1009.5764	2830.4567	5124.7	4234
1009.6947	2831.617	5135.6	4242.1
1009.813	2832.7767	5144.25	4253
1009.9312	2833.9358	5146.75	4255.8
1010.0493	2835.0941	5107.4	4213.85
1010.1675	2836.2519	5097.8	4207.2
1010.2855	2837.4089	5066.75	4174.1
1010.4036	2838.5653	5072.4	4180.8
1010.5216	2839.7211	5074.2	4184.35
1010.6396	2840.8761	5064.4	4171.9
1010.7575	2842.0306	5088.75	4196.85
1010.8754	2843.1843	5107	4215.8
1010.9932	2844.3374	5163.45	4270.7
1011.111	2845.4899	5197.4	4306.1
1011.2288	2846.6417	5245.3	4352.85
1011.3465	2847.7928	5331.65	4441.65
1011.4642	2848.9433	5414.05	4523.8
1011.5818	2850.0931	5477.85	4588.4
1011.6995	2851.2422	5558.2	4665.45
1011.817	2852.3907	5619	4727.85
1011.9345	2853.5385	5689.35	4796.95
1012.052	2854.6857	5746.3	4828.55
1012.1695	2855.8323	5770.75	4878.05
1012.2869	2856.9781	5809.4	4919.55
1012.4042	2858.1233	5837.9	4946.25
1012.5216	2859.2679	5873.95	4983.5
1012.6389	2860.4118	5908.1	5016.6
1012.7561	2861.555	5937.95	5041.5
1012.8733	2862.6976	5959.25	5066.55
1012.9905	2863.8395	5982.55	5091.15
1013.1076	2864.9808	5991.8	5100.95
1013.2247	2866.1214	5999.4	5109.85
1013.3417	2867.2614	6017.95	5126.6
1013.4587	2868.4007	6004.7	5111.35
1013.5757	2869.5393	5995.1	5102.6
1013.6926	2870.6773	6009	5114.15
1013.8095	2871.8146	6013.7	5119.55
1013.9263	2872.9513	5984.75	5090.15
1014.0431	2874.0874	5970.6	5078.55
1014.1599	2875.2227	5971.3	5079
1014.2766	2876.3574	5935.6	5043.95
1014.3933	2877.4915	5902.95	5013.25
1014.51	2878.6249	5867	4977.8
1014.6266	2879.7577	5849.7	4959.5
1014.7431	2880.8898	5818.3	4916.65
1014.8596	2882.0212	5790.1	4898.75
1014.9761	2883.152	5751.1	4858.45
1015.0925	2884.2821	5732.4	4842.65
1015.2089	2885.4116	5729.1	4837.25
1015.3253	2886.5405	5702.05	4812.5
1015.4416	2887.6686	5715	4819.7
1015.5579	2888.7962	5697	4807
1015.6741	2889.923	5708.9	4819.75
1015.7903	2891.0493	5686.35	4797.3
1015.9065	2892.1748	5705.05	4814.35
1016.0226	2893.2997	5703.15	4810.4
1016.1387	2894.424	5700.45	4809.85
1016.2547	2895.5476	5705.05	4813.25
1016.3707	2896.6706	5743.7	4853.25
1016.4866	2897.7929	5755.25	4861.05
1016.6025	2898.9145	5777.6	4886.5
1016.7184	2900.0355	5783.8	4891.85
1016.8342	2901.1559	5809.55	4916.3
1016.95	2902.2756	5830.5	4941.65
1017.0658	2903.3946	5865.4	4974.7
1017.1815	2904.513	5879.2	4985.5
1017.2971	2905.6308	5891.5	5001.4
1017.4127	2906.7479	5910.5	5018.15
1017.5283	2907.8643	5916	5024.4
1017.6439	2908.9801	5916.15	5023.8
1017.7594	2910.0953	5928.1	5038.5
1017.8748	2911.2098	5917.6	5023.85
1017.9902	2912.3236	5900.85	5001.8
1018.1056	2913.4368	5869.15	4975.95
1018.2209	2914.5494	5824.6	4932.5
1018.3362	2915.6613	5799.35	4902.55
1018.4515	2916.7725	5769.75	4874.7
1018.5667	2917.8831	5735.8	4844.85
1018.6819	2918.9931	5704.85	4811.9
1018.797	2920.1024	5669.05	4777.15
1018.9121	2921.211	5633.45	4742.25
1019.0271	2922.319	5625.15	4734.1
1019.1421	2923.4264	5585.2	4692.25
1019.2571	2924.5331	5556.05	4666.25
1019.372	2925.6391	5551.3	4661.2
1019.4869	2926.7445	5535.85	4644.7
1019.6017	2927.8493	5514	4622.95
1019.7165	2928.9534	5504.05	4610.4
1019.8313	2930.0569	5489.15	4596.4
1019.946	2931.1597	5475.2	4584.55
1020.0606	2932.2619	5461.75	4572
1020.1753	2933.3634	5429.3	4538.65
1020.2899	2934.4643	5437.7	4540.4
1020.4044	2935.5645	5407.45	4508.3
1020.5189	2936.6641	5366.8	4471.65
1020.6334	2937.763	5288.9	4396.75
1020.7478	2938.8613	5220.85	4330.3
1020.8622	2939.959	5193.95	4300.25
1020.9765	2941.056	5105.9	4217.4
1021.0908	2942.1523	5011.3	4120.8
1021.2051	2943.248	4899.2	4006.25
1021.3193	2944.3431	4798.7	3909.95
1021.4334	2945.4375	4692.65	3801.5
1021.5476	2946.5313	4573.9	3684.9
1021.6617	2947.6244	4462.75	3574.35
1021.7757	2948.7169	4368	3476.25
1021.8897	2949.8087	4260.85	3371.25
1022.0037	2950.8999	4154.85	3265.4
1022.1176	2951.9904	4069.7	3178.85
1022.2315	2953.0803	3993.15	3104.35
1022.3453	2954.1696	3905.9	3013.5
1022.4591	2955.2582	3850.2	2959.6
1022.5728	2956.3462	3795.05	2903
1022.6865	2957.4335	3752.45	2861.55
1022.8002	2958.5202	3707	2813.25
1022.9138	2959.6062	3683.35	2792.55
1023.0274	2960.6916	3641.35	2750.35
1023.141	2961.7764	3607.25	2715.4
1023.2545	2962.8605	3577.05	2683.55
1023.3679	2963.9439	3556.1	2664.35
1023.4813	2965.0267	3536.25	2642.95
1023.5947	2966.1089	3545.8	2629.95
1023.708	2967.1905	3514.65	2626.05
1023.8213	2968.2714	3502.8	2613.4
1023.9346	2969.3516	3494	2604.75
1024.0478	2970.4312	3499.15	2599.75
1024.1609	2971.5102	3483.85	2592.75
1024.274	2972.5885	3472.8	2581.95
1024.3871	2973.6662	3481.5	2585.5
1024.5002	2974.7432	3455.45	2566.15
1024.6132	2975.8196	3452.1	2563.15
1024.7261	2976.8954	3424.25	2535.3
1024.839	2977.9705	3397.8	2509.35
1024.9519	2979.045	3386.7	2496.55
1025.0647	2980.1188	3363.5	2472.4
1025.1775	2981.192	3337.5	2446.05
1025.2902	2982.2645	3316.05	2424.05
1025.4029	2983.3364	3272.65	2380.55
1025.5156	2984.4077	3237.95	2348.25
1025.6282	2985.4783	3220.75	2324.45
1025.7407	2986.5483	3162.05	2270.95
1025.8532	2987.6177	3130.5	2241.15
1025.9657	2988.6864	3086.5	2195.8
1026.0782	2989.7545	3074.5	2182
1026.1906	2990.8219	3014	2122.65
1026.3029	2991.8887	2981.4	2089.9
1026.4152	2992.9548	2954.85	2063
1026.5275	2994.0204	2908	2017.85
1026.6397	2995.0852	2879.3	1989.25
1026.7519	2996.1495	2847.6	1954.9
1026.864	2997.2131	2806.95	1917.9
1026.9761	2998.276	2795.45	1905.15
1027.0882	2999.3383	2756.9	1866.9
1027.2002	3000.4	2736	1843.1
1027.3122	3001.4611	2717.7	1826.8
1027.4241	3002.5215	2702.2	1812.3
1027.536	3003.5812	2679.8	1788.35
1027.6478	3004.6404	2672.05	1782.15
1027.7596	3005.6989	2655.95	1762.75
1027.8714	3006.7567	2640.1	1748.35
1027.9831	3007.8139	2642.6	1727.2
1028.0947	3008.8705	2608.35	1718.45
1028.2064	3009.9264	2598.4	1704.25
1028.3179	3010.9818	2598.75	1708.6
1028.4295	3012.0364	2587.55	1697.25
1028.541	3013.0905	2577.85	1688.65
1028.6524	3014.1439	2573.85	1682.55
1028.7638	3015.1966	2556.05	1665.75
1028.8752	3016.2487	2560.85	1669.25
1028.9865	3017.3002	2555.55	1657.25
1029.0978	3018.3511	2556.05	1664.9
1029.209	3019.4013	2544.5	1652.75
1029.3202	3020.4509	2540.45	1650.65
1029.4314	3021.4998	2546.4	1656.6
1029.5425	3022.5481	2530.35	1639.3
1029.6535	3023.5958	2522.75	1633.3
1029.7645	3024.6428	2521.35	1628.6
1029.8755	3025.6892	2515.85	1626.55
1029.9864	3026.735	2511.6	1621.45
1030.0973	3027.7802	2520	1630.2
1030.2082	3028.8247	2502.55	1613.2
1030.319	3029.8685	2499.3	1607.95
1030.4297	3030.9118	2491.3	1599.3
1030.5404	3031.9544	2496	1604.55
1030.6511	3032.9963	2501	1611.35
1030.7617	3034.0376	2489.85	1599.8
1030.8723	3035.0783	2488.7	1594.8
1030.9829	3036.1184	2496.8	1606.5
1031.0934	3037.1578	2501.45	1613.05
1031.2038	3038.1966	2499.2	1607.45
1031.3142	3039.2348	2482.8	1593.85
1031.4246	3040.2723	2485.8	1586.95
1031.5349	3041.3092	2469.35	1578.4
1031.6452	3042.3455	2472.25	1581.25
1031.7554	3043.3811	2452.75	1560.35
1031.8656	3044.4161	2457.25	1565.7
1031.9758	3045.4505	2433.7	1544.1
1032.0859	3046.4842	2438.5	1546.2
1032.1959	3047.5173	2427.75	1540.15
1032.3059	3048.5498	2422.5	1533.1
1032.4159	3049.5816	2403.45	1512.75
1032.5258	3050.6128	2393.75	1500.7
1032.6357	3051.6434	2386.4	1492.3
1032.7455	3052.6734	2370.15	1479.65
1032.8553	3053.7027	2368.1	1477.25
1032.9651	3054.7314	2362.95	1473.65
1033.0748	3055.7594	2341.8	1450.85
1033.1845	3056.7868	2334.9	1444.55
1033.2941	3057.8136	2317.6	1429.1
1033.4037	3058.8398	2304.4	1414.3
1033.5132	3059.8653	2292	1402.8
1033.6227	3060.8902	2293.25	1404.1
1033.7321	3061.9145	2279.3	1389.9
1033.8415	3062.9381	2270.85	1380.35
1033.9509	3063.9612	2269.2	1362.7
1034.0602	3064.9835	2253.15	1362.15
1034.1694	3066.0053	2241.75	1349.4
1034.2787	3067.0264	2229.95	1340.3
1034.3878	3068.0469	2220.45	1328.7
1034.497	3069.0668	2210.55	1314.6
1034.6061	3070.086	2190.2	1301.75
1034.7151	3071.1046	2182.85	1290.4
1034.8241	3072.1226	2172.15	1281.05
1034.9331	3073.1399	2143.05	1253.45
1035.042	3074.1567	2140.05	1248.6
1035.1508	3075.1727	2125.75	1232.75
1035.2597	3076.1882	2111.75	1221.1
1035.3684	3077.203	2114.5	1223.25
1035.4772	3078.2173	2097.5	1204.95
1035.5859	3079.2308	2084.45	1191.05
1035.6945	3080.2438	2080.9	1187.9
1035.8031	3081.2561	2058.05	1167.95
1035.9117	3082.2678	2047.6	1157.25
1036.0202	3083.2789	2038.1	1148.1
1036.1286	3084.2893	2026.2	1137.2
1036.2371	3085.2991	2015.3	1124.15
1036.3454	3086.3083	2017	1121.8
1036.4538	3087.3169	1996.75	1104.9
1036.562	3088.3248	1986.7	1095.05
1036.6703	3089.3321	1984	1092.7
1036.7785	3090.3388	1972.25	1084.2
1036.8866	3091.3449	1958.1	1068.55
1036.9948	3092.3503	1965.5	1074.3
1037.1028	3093.3551	1946.6	1057.15
1037.2108	3094.3593	1941.9	1052.7
1037.3188	3095.3629	1941.35	1050.15
1037.4267	3096.3658	1931.85	1039.8
1037.5346	3097.3681	1922.25	1031.3
1037.6425	3098.3698	1919.5	1027.1
1037.7503	3099.3708	1913.55	1016.3
1037.858	3100.3713	1898.45	1009.2
1037.9657	3101.3711	1897.65	1007.85
1038.0734	3102.3702	1992.3	987.8
1038.181	3103.3688	1899.8	1006.35
1038.2886	3104.3667	1879.1	990.2
1038.3961	3105.364	1865.05	975.75
1038.5036	3106.3607	1867.7	975.8
1038.611	3107.3568	1850.1	959.05
1038.7184	3108.3522	1846.85	957.65
1038.8257	3109.347	1847.65	957.5
1038.933	3110.3412	1845.45	950.15
1039.0403	3111.3348	1842.1	951.95
1039.1475	3112.3277	1831.25	940.4
1039.2547	3113.32	1817.6	928.4
1039.3618	3114.3117	1820.55	931.2
1039.4689	3115.3028	1806.05	916.35
1039.5759	3116.2932	1805.1	913.75
1039.6829	3117.2831	1806.5	909.9
1039.7898	3118.2723	1795.45	906.35
1039.8967	3119.2608	1787.25	897.05
1040.0035	3120.2488	1781.1	890
1040.1103	3121.2361	1785.75	894.1
1040.2171	3122.2229	1766.1	877.2
1040.3238	3123.209	1773.35	881.95
1040.4305	3124.1944	1764.5	874.4
1040.5371	3125.1793	1757.4	864.8
1040.6437	3126.1635	1758.65	868.4
1040.7502	3127.1471	1746.2	855.5
1040.8567	3128.1301	1743.3	852.25
1040.9631	3129.1125	1740.05	849.3
1041.0695	3130.0942	1745.25	856.3
1041.1759	3131.0753	1738.7	840
1041.2822	3132.0558	1735.15	841.35
1041.3884	3133.0357	1722.2	832.45
1041.4946	3134.015	1726.55	835.4
1041.6008	3134.9936	1711.8	819.8
1041.7069	3135.9716	1731.9	821.85
1041.813	3136.949	1701.45	811.05
1041.919	3137.9258	1704.65	808.55
1042.025	3138.902	1703.3	808.9
1042.1309	3139.8775	1694.75	804.5
1042.2368	3140.8524	1689	799.5
1042.3427	3141.8267	1692.5	800.95
1042.4485	3142.8004	1687.9	796.9
1042.5542	3143.7735	1692.3	794.3
1042.6599	3144.7459	1679.2	785.9
1042.7656	3145.7178	1671.75	780.5
1042.8712	3146.689	1663	773.35
1042.9768	3147.6596	1671.55	782.65
1043.0823	3148.6295	1653.3	765.3
1043.1878	3149.5989	1658.7	768.2
1043.2932	3150.5676	1654.5	766.6
1043.3986	3151.5357	1644.85	753.5
1043.5039	3152.5032	1639.15	749.3
1043.6092	3153.4701	1640.8	751.2
1043.7145	3154.4364	1639.55	747.55
1043.8197	3155.402	1633.65	744.5
1043.9248	3156.367	1625.15	732.95
1044.03	3157.3315	1665.5	730.75
1044.135	3158.2952	1619.5	729.4
1044.24	3159.2584	1612.55	721.95
1044.345	3160.221	1599.6	709.05
1044.4499	3161.1829	1603.7	710.55
1044.5548	3162.1442	1603.55	712.5
1044.6596	3163.105	1595.1	704.8
1044.7644	3164.065	1586.25	695.5
1044.8692	3165.0245	1585.85	692.7
1044.9739	3165.9834	1586.15	697.3
1045.0785	3166.9416	1578.75	690.05
1045.1831	3167.8993	1568.35	679.15
1045.2877	3168.8563	1571.85	681
1045.3922	3169.8127	1567.15	677.05
1045.4966	3170.7684	1563.25	673.6
1045.6011	3171.7236	1559.7	668.25
1045.7054	3172.6782	1562.4	673.15
1045.8098	3173.6321	1555.05	665.55
1045.914	3174.5854	1546.4	652.2
1046.0183	3175.5381	1552.3	661.8
1046.1224	3176.4902	1544.85	655.05
1046.2266	3177.4417	1539.45	651.8
1046.3307	3178.3926	1529.8	639.85
1046.4347	3179.3428	1525.95	637.45
1046.5387	3180.2924	1523.9	634.35
1046.6427	3181.2415	1522.75	630.35
1046.7466	3182.1899	1523.15	631.9
1046.8504	3183.1377	1524.6	635.7
1046.9542	3184.0848	1513.5	621.45
1047.058	3185.0314	1512	621.7
1047.1617	3185.9773	1506.4	614.75
1047.2654	3186.9227	1509.3	619.95
1047.369	3187.8674	1492.75	604.1
1047.4726	3188.8115	1501.55	606.3
1047.5761	3189.755	1495.65	605.45
1047.6796	3190.6979	1488.45	598.25
1047.783	3191.6402	1488.95	599.9
1047.8864	3192.5818	1486.5	597.7
1047.9898	3193.5229	1500	584.85
1048.0931	3194.4633	1474.7	586.1
1048.1963	3195.4031	1472.3	581.75
1048.2995	3196.3423	1472	582.45
1048.4027	3197.2809	1469.4	580.55
1048.5058	3198.2189	1467.05	576.35
1048.6089	3199.1563	1472.8	576.95
1048.7119	3200.0931	1466.5	575.95
1048.8148	3201.0292	1457.1	568.9
1048.9178	3201.9648	1452.65	562.3
1049.0206	3202.8997	1454.8	561.8
1049.1235	3203.834	1446.9	557.2
1049.2262	3204.7677	1445.15	554.85
1049.329	3205.7008	1441.6	548.55
1049.4317	3206.6333	1439	551.6
1049.5343	3207.5652	1437	544.45
1049.6369	3208.4964	1431.45	539.95
1049.7394	3209.4271	1437.35	548.65
1049.8419	3210.3571	1432.3	542.55
1049.9444	3211.2865	1425.15	535.45
1050.0468	3212.2154	1420.9	531.55
1050.1491	3213.1436	1427.7	536.15
1050.2514	3214.0712	1427.2	530.2
1050.3537	3214.9982	1415.2	525.5
1050.4559	3215.9246	1413.85	522.75
1050.5581	3216.8503	1405.9	517
1050.6602	3217.7755	1406.25	516.75
1050.7623	3218.7001	1409	518.95
1050.8643	3219.624	1401.45	509.95
1050.9663	3220.5473	1396.35	506.85
1051.0682	3221.4701	1400.25	507.6
1051.1701	3222.3922	1394.6	503.25
1051.2719	3223.3137	1393	503.6
1051.3737	3224.2346	1385	494.65
1051.4754	3225.1549	1386.55	499.75
1051.5771	3226.0746	1385.35	497.55
1051.6788	3226.9937	1377.35	485.95
1051.7804	3227.9121	1377.75	487.6
1051.8819	3228.83	1380.9	490.55
1051.9834	3229.7473	1374.05	483.3
1052.0849	3230.6639	1373.65	482.3
1052.1863	3231.5799	1365.9	476.95
1052.2876	3232.4954	1369.05	477
1052.3889	3233.4102	1362.8	474.55
1052.4902	3234.3244	1364.85	474.15
1052.5914	3235.238	1354.65	463.25
1052.6926	3236.151	1371.45	458.2
1052.7937	3237.0634	1348.6	460.45
1052.8948	3237.9752	1348.15	460.3
1052.9958	3238.8864	1348.6	460
1053.0968	3239.797	1342.35	451.5
1053.1977	3240.7069	1339.9	452.3
1053.2986	3241.6163	1337.2	446.85
1053.3994	3242.5251	1339.2	451.45
1053.5002	3243.4332	1331.45	442.4
1053.6009	3244.3408	1330.75	439.1
1053.7016	3245.2477	1330.55	441.6
1053.8022	3246.154	1324.1	433
1053.9028	3247.0598	1320.95	429.35
1054.0034	3247.9649	1316	425.3
1054.1039	3248.8694	1313.75	423.85
1054.2043	3249.7733	1313.25	425.25
1054.3047	3250.6766	1314.65	427.95
1054.4051	3251.5793	1313.3	421.8
1054.5054	3252.4814	1301.8	411.95
1054.6056	3253.3829	1299.25	410.5
1054.7058	3254.2838	1301.2	409.3
1054.806	3255.1841	1296.05	408.25
1054.9061	3256.0838	1285.75	394.85
1055.0061	3256.9829	1290.9	401.55
1055.1062	3257.8814	1285.75	396
1055.2061	3258.7792	1282.8	391.55
1055.306	3259.6765	1277	386.05
1055.4059	3260.5731	1280.5	392.7
1055.5057	3261.4692	1272	384.15
1055.6055	3262.3647	1266.7	377.15
1055.7052	3263.2595	1260.75	371.15
1055.8049	3264.1538	1255	367.8
1055.9045	3265.0474	1247.35	357.7
1056.0041	3265.9404	1247.45	357.85
1056.1036	3266.8329	1239.55	351.4
1056.2031	3267.7247	1242.45	344.4
1056.3025	3268.616	1228.65	341.25
1056.4019	3269.5066	1215.35	325.6
1056.5013	3270.3966	1208.75	316.25
1056.6005	3271.286	1199.25	312.55
