Software Version:	3.9.2.0
Unit SN:	10000200
Spectrometer SN:	6960
Date:	3/6/2024 9:37:29 AM
Data Line Index:	25
Spectral Points:	2048
Integration time (ms):	125
Averages:	20
Delay (ms):	30
Sequence Number:	1
Processing:	dark subtract
Laser Power (mW):	300
Laser Current (mA):	824
Laser Diode Temp (C):	25.1
Laser Case Temp (C):	23.9
System Temp (C):	23.7
Spectrometer Temp (C):	21.4
CCD Temp (C):	-0.037
Secondary Temp (C):	19.991
Heatsink Temp (C):	17.141
CCDPCB Temp (C):	30.293
SecondaryPCB Temp (C):	25.869

Wavelength	RamanShift	Raw Counts	Dark Subtracted
787.061	30.1047	490.25	83.25
787.2016	32.3739	492.6	86.45
787.3422	34.6426	498.9	93.9
787.4828	36.9109	507.2	98.1
787.6235	39.1787	514.95	103.45
787.7642	41.4461	521.5	104.1
787.9049	43.7131	532.8	114.35
788.0456	45.9796	540.6	117.15
788.1863	48.2456	554.55	130.05
788.3271	50.5112	563.35	132.75
788.4679	52.7764	574.55	141.65
788.6087	55.0411	588.35	151.1
788.7496	57.3054	600.1	157.5
788.8904	59.5692	611.15	168.15
789.0313	61.8326	624.7	178.45
789.1722	64.0955	638.85	189.25
789.3132	66.3579	660.9	207.1
789.4541	68.6199	685.5	228.6
789.5951	70.8815	725.35	263.95
789.7361	73.1426	808.3	343.6
789.8771	75.4032	1016.3	548.35
790.0181	77.6634	1546.55	1074.5
790.1592	79.9231	2816.7	2341.4
790.3003	82.1824	5520.15	5042.95
790.4414	84.4412	10315.6	9831
790.5825	86.6995	16821.85	16330.3
790.7237	88.9574	23161.1	22666.5
790.8648	91.2148	27734.65	27233.85
791.006	93.4717	30157.1	29655.1
791.1472	95.7282	31223.7	30720.45
791.2885	97.9842	31817.5	31310.2
791.4297	100.2398	32013.25	31502.9
791.571	102.4949	32149.6	31637.85
791.7123	104.7495	32184.05	31667.4
791.8536	107.0036	32169.15	31651.25
791.9949	109.2573	32234.4	31716.3
792.1363	111.5105	32237.45	31717.95
792.2777	113.7632	32243.35	31722.25
792.4191	116.0154	32350.2	31816.65
792.5605	118.2672	32456.35	31929.05
792.7019	120.5185	32478.05	31950.2
792.8434	122.7693	32519	31986.8
792.9849	125.0197	32611	32073.95
793.1264	127.2696	32681.35	32140.85
793.2679	129.519	32830.2	32288.65
793.4094	131.7679	32921.3	32376.4
793.551	134.0163	32941.55	32394.4
793.6926	136.2642	33040.45	32489.95
793.8342	138.5117	33090.5	32536.8
793.9758	140.7587	33131.3	32577.25
794.1175	143.0052	33179.55	32621.95
794.2591	145.2512	33155.95	32598.8
794.4008	147.4967	33171.8	32611.1
794.5425	149.7417	33192.25	32629.4
794.6842	151.9863	33171.6	32605.1
794.826	154.2304	33258.15	32688.95
794.9677	156.4739	33175.15	32598.75
795.1095	158.717	33240.45	32663.75
795.2513	160.9596	33318.65	32736.15
795.3931	163.2017	33322.4	32739.1
795.535	165.4433	33356.95	32770.75
795.6768	167.6844	33343.2	32756.85
795.8187	169.925	33419.85	32828.85
795.9606	172.1651	33332.1	32738.2
796.1025	174.4047	33381.75	32782.45
796.2445	176.6439	33393.85	32795.9
796.3864	178.8825	33412.7	32811.15
796.5284	181.1206	33509.9	32903.5
796.6704	183.3582	33542.15	32930.9
796.8124	185.5954	33563.4	32951.6
796.9544	187.832	33588.85	32971.2
797.0965	190.0681	33717.6	33098.5
797.2386	192.3037	33790.9	33166.85
797.3806	194.5388	33860.85	33235.5
797.5228	196.7734	33924.35	33297.45
797.6649	199.0075	34075.1	33448.8
797.807	201.2411	34230.4	33605.85
797.9492	203.4742	34302.8	33672
798.0914	205.7068	34409.35	33772.45
798.2336	207.9389	34446.85	33808.95
798.3758	210.1704	34568.7	33938.95
798.518	212.4015	34553.6	33933.85
798.6603	214.632	34646.8	34032.2
798.8025	216.862	34669.9	34055
798.9448	219.0915	34696.55	34080.15
799.0871	221.3205	34798.1	34179.95
799.2294	223.549	34882.1	34270.25
799.3718	225.777	34992.55	34377.25
799.5141	228.0044	35055.55	34433.2
799.6565	230.2314	35165.5	34540.6
799.7989	232.4578	35133.75	34505.5
799.9413	234.6837	35180.9	34544.45
800.0837	236.909	35294.5	34655.6
800.2262	239.1339	35234.9	34573.15
800.3687	241.3582	35305.85	34657.5
800.5111	243.582	35361.6	34681.15
800.6536	245.8053	35411.6	34747.15
800.7961	248.0281	35384.4	34723.2
800.9387	250.2503	35419.3	34753.3
801.0812	252.472	35484.65	34818.4
801.2238	254.6932	35574.1	34907.4
801.3664	256.9139	35518.2	34851.7
801.509	259.134	35651.3	34978.8
801.6516	261.3536	35624.8	34956.2
801.7942	263.5727	35754.9	35082.8
801.9369	265.7912	35710.05	35039.4
802.0795	268.0092	35774.45	35103.55
802.2222	270.2267	35869.95	35196.2
802.3649	272.4436	35901.5	35227.9
802.5076	274.6601	35942.3	35257.05
802.6504	276.8759	35949.15	35266.75
802.7931	279.0913	35965.35	35283.8
802.9359	281.3061	35989.8	35306.4
803.0787	283.5204	36085.85	35401.25
803.2215	285.7341	36131.25	35442.1
803.3643	287.9473	36278.9	35580.35
803.5071	290.16	36228.2	35534.85
803.6499	292.3721	36227.55	35541.6
803.7928	294.5837	36151.4	35463.1
803.9357	296.7947	36078.4	35391.75
804.0786	299.0052	36129.2	35439.75
804.2215	301.2152	36070.95	35380.75
804.3644	303.4246	36148.15	35458.5
804.5074	305.6334	36080	35390.85
804.6503	307.8418	36083.4	35388.75
804.7933	310.0495	36147.9	35451.75
804.9363	312.2568	36134.9	35440.65
805.0793	314.4635	35962.3	35263.1
805.2223	316.6696	35894	35194.05
805.3653	318.8752	35809.8	35099.85
805.5084	321.0802	35733.1	35029.95
805.6514	323.2847	35799.2	35096.75
805.7945	325.4887	35756.15	35050.1
805.9376	327.692	35727.6	35022.15
806.0807	329.8949	35874.95	35168.35
806.2238	332.0972	35840.5	35132.15
806.367	334.2989	35942.4	35229.35
806.5101	336.5001	35934.9	35219.7
806.6533	338.7007	35891.35	35177.45
806.7965	340.9008	35987.3	35274
806.9397	343.1003	35876.85	35159.7
807.0829	345.2992	35866.35	35147.3
807.2261	347.4976	35828	35107.4
807.3693	349.6955	35814.1	35089.85
807.5126	351.8927	35906.75	35181.3
807.6559	354.0895	35808.4	35071.55
807.7991	356.2856	35824.1	35097.9
807.9424	358.4812	35738.05	35011.85
808.0857	360.6763	35804	35074.4
808.2291	362.8707	35707.7	34977.2
808.3724	365.0646	35774.6	35039.15
808.5158	367.258	35691.35	34954.55
808.6591	369.4508	35624.1	34884.6
808.8025	371.643	35718.75	34978.55
808.9459	373.8346	35623.45	34881.85
809.0893	376.0257	35609.7	34863.75
809.2327	378.2162	35548.1	34803.65
809.3762	380.4062	35616.2	34873.55
809.5196	382.5956	35559.5	34816.2
809.6631	384.7844	35539.75	34804.7
809.8066	386.9726	35421.75	34686.65
809.9501	389.1603	35369.9	34636.55
810.0936	391.3474	35415.4	34630.1
810.2371	393.5339	35393.2	34654.2
810.3806	395.7199	35301.2	34566.75
810.5241	397.9052	35275.6	34540.85
810.6677	400.09	35241.15	34503.1
810.8113	402.2743	35288.9	34550.3
810.9548	404.4579	35257.15	34516.8
811.0984	406.641	35337.55	34596.85
811.2421	408.8235	35392.45	34647.55
811.3857	411.0054	35452.35	34704.35
811.5293	413.1868	35525.7	34772.75
811.673	415.3675	35493.85	34740.6
811.8166	417.5477	35445.45	34688.95
811.9603	419.7273	35457.15	34698.4
812.104	421.9064	35292.1	34527.55
812.2477	424.0848	35170.35	34412.75
812.3914	426.2627	35076.6	34317.35
812.5351	428.4399	34979.05	34221.4
812.6788	430.6166	34865.6	34101.05
812.8226	432.7928	34781.3	34013.4
812.9663	434.9683	34660.8	33894.95
813.1101	437.1432	34650.65	33884.95
813.2539	439.3176	34530.95	33766.75
813.3977	441.4914	34399.35	33633.75
813.5415	443.6645	34422.7	33655.05
813.6853	445.8371	34225.05	33457.3
813.8291	448.0091	34087.9	33318.85
813.973	450.1806	34066.35	33295.4
814.1168	452.3514	33963.55	33192.3
814.2607	454.5216	34033.1	33252.35
814.4046	456.6913	33811.8	33038.9
814.5485	458.8603	33843.5	33072.8
814.6924	461.0288	33859.8	33090.45
814.8363	463.1967	33800.65	33027.55
814.9802	465.3639	33832.4	33058.15
815.1241	467.5306	33740.95	32966.55
815.2681	469.6967	33638.9	32863.25
815.412	471.8622	33563	32788.1
815.556	474.0271	33553.6	32778.3
815.7	476.1914	33552.3	32773.95
815.844	478.3551	33507.85	32731.65
815.988	480.5182	33538.35	32760.8
816.132	482.6807	33543.8	32764.55
816.276	484.8426	33553.15	32776.75
816.4201	487.0039	33648.25	32868.05
816.5641	489.1647	33651.9	32871.95
816.7082	491.3248	33737.75	32958.35
816.8522	493.4843	33660.45	32879.85
816.9963	495.6432	33611.8	32830
817.1404	497.8015	33545.1	32760.05
817.2845	499.9592	33544.3	32760.6
817.4286	502.1163	33451.95	32667.2
817.5727	504.2728	33375.75	32587.7
817.7168	506.4287	33423.1	32637.4
817.861	508.5839	33266.45	32479.85
818.0051	510.7386	33279.65	32494.55
818.1493	512.8927	33280.65	32484.7
818.2935	515.0461	33289.65	32501.55
818.4377	517.199	33261.8	32471.1
818.5818	519.3512	33210.4	32421.8
818.726	521.5029	33281	32484.5
818.8703	523.6539	33331.1	32539.15
819.0145	525.8043	33290.6	32497.75
819.1587	527.9541	33217.15	32423.8
819.303	530.1033	33096.45	32304.35
819.4472	532.2519	33033.9	32241.4
819.5915	534.3999	33014.75	32215.35
819.7357	536.5472	32956.1	32160.2
819.88	538.694	32915.55	32121.4
820.0243	540.8401	32979.25	32185.6
820.1686	542.9856	32983.85	32186
820.3129	545.1305	32900.85	32103.5
820.4572	547.2748	32964.15	32166.2
820.6016	549.4185	32993.9	32192.25
820.7459	551.5615	32900.35	32101.7
820.8902	553.704	32882.75	32084.15
821.0346	555.8458	32827.55	32029.55
821.1789	557.987	32825.6	32026.7
821.3233	560.1276	32796.05	31995.35
821.4677	562.2675	32904.05	32106.45
821.6121	564.4069	32870.45	32071.1
821.7565	566.5456	32810.35	32011.95
821.9009	568.6837	32812.85	32011.6
822.0453	570.8212	32614.95	31813.4
822.1897	572.958	32527.7	31721.1
822.3342	575.0942	32425.55	31624.45
822.4786	577.2299	32334.95	31531
822.6231	579.3648	32255	31450.55
822.7675	581.4992	32067.6	31264.1
822.912	583.6329	32006	31203.5
823.0565	585.766	31981.85	31177.8
823.201	587.8985	31984.05	31179.15
823.3454	590.0304	31918.25	31100.4
823.4899	592.1616	31829.1	31018.75
823.6345	594.2922	31800.25	30991.95
823.779	596.4222	31695.55	30886.2
823.9235	598.5515	31549.65	30741.35
824.068	600.6802	31453.5	30644.85
824.2126	602.8083	31333.8	30523.3
824.3571	604.9358	31294.1	30483.15
824.5017	607.0626	31190.9	30380.9
824.6462	609.1888	31174.3	30360
824.7908	611.3144	31228.3	30416
824.9354	613.4393	31093.55	30283.9
825.08	615.5636	31130.75	30317.7
825.2246	617.6873	31174.35	30362.7
825.3692	619.8103	31193.25	30379.15
825.5138	621.9327	31091.1	30273.1
825.6584	624.0544	31100.8	30287.8
825.803	626.1756	30982	30167.4
825.9477	628.2961	30901.05	30085.45
826.0923	630.4159	30817.55	30002.55
826.237	632.5351	30850.65	30034.35
826.3816	634.6537	30759.6	29943.65
826.5263	636.7716	30713.95	29894.45
826.6709	638.8889	30692.5	29874.25
826.8156	641.0056	30751.35	29932.45
826.9603	643.1216	30701.1	29881.5
827.105	645.237	30697.75	29875.95
827.2497	647.3518	30602.05	29781.85
827.3944	649.4659	30614.95	29794.7
827.5391	651.5793	30529	29709.1
827.6838	653.6922	30433	29613.7
827.8285	655.8043	30410.95	29591.35
827.9733	657.9159	30405.25	29582.55
828.118	660.0268	30304.9	29480.5
828.2627	662.137	30245.45	29422.4
828.4075	664.2466	30232.35	29407.45
828.5522	666.3556	30201.2	29376.45
828.697	668.4639	30148.55	29321.45
828.8418	670.5716	30151.2	29326.75
828.9865	672.6786	30097.5	29271.55
829.1313	674.785	30002.8	29175.5
829.2761	676.8907	29899.7	29073.2
829.4209	678.9958	29896.55	29071.7
829.5657	681.1002	29842.3	29013.1
829.7105	683.204	29798.55	28967.25
829.8553	685.3072	29709.45	28881.05
830.0001	687.4097	29681.7	28855.3
830.1449	689.5115	29658.6	28828
830.2898	691.6127	29705.35	28879.15
830.4346	693.7132	29598.2	28768.7
830.5794	695.8131	29618.5	28783.45
830.7243	697.9123	29556.2	28724.95
830.8691	700.0109	29545.65	28715.5
831.014	702.1089	29494.1	28664.15
831.1588	704.2061	29457.8	28628.25
831.3037	706.3028	29453.6	28622.35
831.4486	708.3987	29430.95	28599.65
831.5935	710.4941	29404.2	28574.5
831.7383	712.5887	29389.05	28557.8
831.8832	714.6827	29393.05	28556.85
832.0281	716.7761	29369.5	28536.9
832.173	718.8688	29337.65	28502.75
832.3179	720.9608	29204	28366.65
832.4628	723.0522	29267.6	28428.55
832.6077	725.1429	29151.6	28318.05
832.7527	727.233	29160.8	28326.65
832.8976	729.3224	29217.7	28382.45
833.0425	731.4112	29182.45	28345.85
833.1874	733.4993	29143.35	28305.75
833.3324	735.5867	29022.55	28185.65
833.4773	737.6735	28980.5	28142.45
833.6222	739.7596	28854.2	28016
833.7672	741.845	28775.5	27937.8
833.9122	743.9298	28709.75	27872.05
834.0571	746.014	28650.45	27812.9
834.2021	748.0974	28655.8	27816.05
834.347	750.1802	28562.45	27725.5
834.492	752.2624	28457.2	27620.2
834.637	754.3439	28383.55	27542.9
834.782	756.4247	28314.4	27466.2
834.9269	758.5048	28170.3	27330.5
835.0719	760.5843	28201.05	27360.4
835.2169	762.6631	28077.9	27236.65
835.3619	764.7413	28095.9	27258.15
835.5069	766.8188	28126.4	27284.8
835.6519	768.8956	28048.9	27204.9
835.7969	770.9718	28132.35	27293.55
835.9419	773.0473	28019.9	27178.65
836.0869	775.1221	27966.2	27127.15
836.232	777.1962	27825.4	26983.45
836.377	779.2697	27795.5	26952.75
836.522	781.3426	27850.85	26989.5
836.667	783.4147	27828.5	26983.5
836.8121	785.4862	27784.05	26943.15
836.9571	787.557	27686.8	26843.1
837.1021	789.6271	27579.55	26735.7
837.2472	791.6966	27421.5	26579.8
837.3922	793.7654	27259.25	26417.35
837.5373	795.8335	27236.9	26393.75
837.6823	797.901	27097.05	26253.5
837.8274	799.9678	27125.65	26279.35
837.9724	802.0339	27055.4	26212.1
838.1175	804.0993	27012.75	26160
838.2626	806.1641	26934.1	26084.85
838.4076	808.2282	26842.85	25999
838.5527	810.2916	26815.7	25968.2
838.6978	812.3544	26791.65	25948.45
838.8428	814.4164	26761.55	25915.55
838.9879	816.4778	26778.7	25932.85
839.133	818.5385	26634.6	25788.55
839.2781	820.5986	26716.95	25871.35
839.4232	822.658	26745.25	25893.65
839.5682	824.7166	26671.05	25826.45
839.7133	826.7747	26749.75	25903.15
839.8584	828.832	26753.85	25907
840.0035	830.8886	26694.15	25843.6
840.1486	832.9446	26684.25	25836.1
840.2937	834.9999	26563.75	25716.9
840.4388	837.0545	26539.75	25687
840.5839	839.1085	26440.35	25591.3
840.729	841.1618	26306.35	25455
840.8741	843.2143	26225.45	25376.9
841.0192	845.2662	26147.2	25297.55
841.1643	847.3175	26133.45	25287.35
841.3095	849.368	26043.1	25192.7
841.4546	851.4179	26032.25	25184.05
841.5997	853.467	25924.2	25074.4
841.7448	855.5155	25909.8	25059.45
841.8899	857.5633	25849.3	24999.1
842.0351	859.6105	25763.75	24913.55
842.1802	861.6569	25731.35	24879.2
842.3253	863.7027	25693	24840.2
842.4704	865.7478	25695.95	24845.6
842.6156	867.7922	25645.3	24794.5
842.7607	869.8359	25553.75	24700.45
842.9058	871.8789	25565.4	24713.8
843.0509	873.9212	25538.1	24655.55
843.1961	875.9629	25469.35	24619.85
843.3412	878.0039	25441.7	24589.85
843.4863	880.0441	25427.1	24573.3
843.6315	882.0837	25395.65	24542.6
843.7766	884.1226	25378.65	24524.65
843.9218	886.1609	25412.65	24562
844.0669	888.1984	25423.15	24571.95
844.212	890.2352	25486.7	24634.5
844.3572	892.2714	25468.2	24609.85
844.5023	894.3069	25405.65	24551.8
844.6475	896.3416	25253.35	24398.8
844.7926	898.3757	25261.2	24408.25
844.9377	900.4091	25204.8	24348.25
845.0829	902.4418	25142.2	24283.85
845.228	904.4739	25067.5	24210.65
845.3732	906.5052	25058.75	24202.55
845.5183	908.5358	25020.5	24164.5
845.6635	910.5658	24963.7	24106.65
845.8086	912.595	24902.55	24047.6
845.9538	914.6236	24810.85	23955.7
846.0989	916.6515	24775.45	23920.75
846.2441	918.6786	24706.2	23849.35
846.3892	920.7051	24691.4	23833.75
846.5344	922.7309	24704.25	23847.65
846.6795	924.756	24533.6	23676.5
846.8246	926.7804	24563.2	23705
846.9698	928.8041	24394.55	23536
847.1149	930.8272	24445.4	23589.1
847.2601	932.8495	24330.05	23473.1
847.4052	934.8711	24347.3	23491.45
847.5504	936.892	24205.7	23347.4
847.6955	938.9123	24167.35	23307.15
847.8407	940.9318	24168.25	23312.55
847.9858	942.9506	24106.15	23245.65
848.131	944.9688	24014.9	23158.05
848.2761	946.9862	23948.35	23089.75
848.4213	949.003	23800.55	22940.4
848.5664	951.019	23747.15	22890.2
848.7115	953.0344	23679.6	22821.9
848.8567	955.0491	23624.65	22766.8
849.0018	957.063	23651.85	22795.1
849.147	959.0763	23671.4	22811.85
849.2921	961.0888	23554.95	22694.35
849.4373	963.1007	23548.65	22691.1
849.5824	965.1119	23528.1	22670.2
849.7275	967.1223	23440.7	22582.65
849.8727	969.1321	23436.2	22578.55
850.0178	971.1412	23415.5	22557.85
850.1629	973.1495	23327	22467.8
850.3081	975.1572	23348.65	22443.55
850.4532	977.1641	23280.6	22421.4
850.5983	979.1704	23190	22328.7
850.7435	981.1759	23120.1	22257.8
850.8886	983.1808	23138.35	22276.05
851.0337	985.1849	23100.05	22233.05
851.1788	987.1884	23015.85	22153.4
851.324	989.1911	22982.05	22119.75
851.4691	991.1932	22953.4	22091
851.6142	993.1945	22889.45	22027.1
851.7593	995.1951	22773.65	21911.2
851.9045	997.1951	22783.05	21915.15
852.0496	999.1943	22652.4	21792.7
852.1947	1001.1928	22535.35	21674.25
852.3398	1003.1906	22449.5	21589.8
852.4849	1005.1877	22480.5	21617.35
852.63	1007.1841	22400.6	21537.35
852.7751	1009.1798	22300.75	21439.25
852.9202	1011.1748	22236.3	21371.15
853.0653	1013.1691	22191	21328
853.2104	1015.1627	22093.1	21230
853.3555	1017.1556	21962.5	21100.2
853.5006	1019.1477	21874.95	21014.6
853.6457	1021.1392	21761.9	20899.9
853.7908	1023.1299	21681.6	20819.6
853.9359	1025.12	21605.2	20739.65
854.081	1027.1093	21525.75	20664.3
854.2261	1029.0979	21503.45	20643.25
854.3712	1031.0859	21428	20566.55
854.5163	1033.0731	21419.7	20556.85
854.6613	1035.0596	21347.2	20484.15
854.8064	1037.0454	21229.7	20365.7
854.9515	1039.0304	21213.65	20352.1
855.0965	1041.0148	21108.85	20245.2
855.2416	1042.9985	21021.7	20156.95
855.3867	1044.9814	21005.55	20143.5
855.5317	1046.9636	20926.05	20059.9
855.6768	1048.9452	20819.1	19955.3
855.8219	1050.926	20821.25	19959.55
855.9669	1052.9061	20785.85	19923.8
856.112	1054.8855	20717.75	19854.6
856.257	1056.8642	20745.75	19881.6
856.4021	1058.8421	20717	19846.9
856.5471	1060.8194	20615.5	19751.1
856.6921	1062.7959	20598.7	19733.7
856.8372	1064.7717	20547.25	19681.85
856.9822	1066.7469	20521.2	19655.6
857.1272	1068.7213	20426.85	19557.95
857.2723	1070.695	20430.6	19563.35
857.4173	1072.6679	20327.2	19461
857.5623	1074.6402	20378.25	19512.45
857.7073	1076.6117	20374	19505.7
857.8523	1078.5826	20369.5	19503.1
857.9973	1080.5527	20231.15	19364.45
858.1423	1082.5221	20146.1	19280.2
858.2873	1084.4908	20110.55	19244.75
858.4323	1086.4587	20077.1	19210.4
858.5773	1088.426	20007.8	19139.65
858.7223	1090.3925	19962.55	19091.1
858.8673	1092.3584	19950.55	19084
859.0123	1094.3235	19825.85	18960.6
859.1573	1096.2879	19825.2	18957.1
859.3022	1098.2515	19779.55	18912.55
859.4472	1100.2145	19801.3	18933.75
859.5922	1102.1767	19803.9	18934
859.7371	1104.1382	19795.15	18930.05
859.8821	1106.099	19763.55	18895.15
860.027	1108.0591	19745.75	18878.35
860.172	1110.0185	19749.25	18879.95
860.3169	1111.9771	19754.5	18887.85
860.4619	1113.9351	19694.5	18826.6
860.6068	1115.8923	19676.8	18809.9
860.7517	1117.8488	19706.35	18837.7
860.8967	1119.8045	19573.05	18705.05
861.0416	1121.7596	19524.9	18657.35
861.1865	1123.7139	19332.3	18465.15
861.3314	1125.6675	19247.15	18380.55
861.4763	1127.6204	19270.95	18402.3
861.6212	1129.5726	19213.25	18342.45
861.7661	1131.524	19217	18350.05
861.911	1133.4748	19154.05	18287.1
862.0559	1135.4248	19100.1	18232.95
862.2008	1137.3741	18989.95	18122.9
862.3457	1139.3226	18920.45	18053.15
862.4905	1141.2705	18964.75	18096.6
862.6354	1143.2176	18859.05	17985.7
862.7803	1145.164	18862.85	17992.5
862.9251	1147.1097	18832	17961.55
863.07	1149.0546	18779.4	17908.55
863.2148	1150.9989	18763.6	17894.7
863.3597	1152.9424	18706.4	17837.15
863.5045	1154.8852	18643.25	17773.25
863.6493	1156.8272	18612.1	17745.05
863.7942	1158.7686	18650.1	17775.25
863.939	1160.7092	18557.8	17686.75
864.0838	1162.6491	18477.3	17605.7
864.2286	1164.5883	18501.85	17632.6
864.3734	1166.5267	18465.15	17594.55
864.5182	1168.4644	18498.7	17628.95
864.663	1170.4014	18494.15	17619.65
864.8078	1172.3377	18530	17662.7
864.9526	1174.2732	18496.45	17628.1
865.0974	1176.2081	18582.4	17714.35
865.2421	1178.1421	18595.5	17722.45
865.3869	1180.0755	18698.95	17830.1
865.5317	1182.0082	18690.45	17820.95
865.6764	1183.9401	18683.6	17813.15
865.8212	1185.8713	18568.95	17700.8
865.9659	1187.8017	18455.45	17584.95
866.1106	1189.7315	18321.75	17453
866.2554	1191.6605	18156.8	17286.55
866.4001	1193.5888	18050.4	17178.9
866.5448	1195.5163	17971.9	17102.9
866.6895	1197.4432	17928.3	17058.55
866.8342	1199.3693	17870.65	17001.2
866.9789	1201.2947	17782	16908.3
867.1236	1203.2193	17700.9	16830.2
867.2683	1205.1432	17669.45	16798.3
867.413	1207.0664	17634.85	16764.6
867.5576	1208.9889	17586.7	16713.2
867.7023	1210.9106	17576.1	16705.8
867.847	1212.8316	17478.55	16608.55
867.9916	1214.7519	17472.55	16592.45
868.1363	1216.6715	17394.8	16524.65
868.2809	1218.5903	17405.2	16536.45
868.4255	1220.5084	17371.9	16501.2
868.5701	1222.4257	17395.9	16524.25
868.7148	1224.3424	17296.8	16425.4
868.8594	1226.2583	17310.55	16435.95
869.004	1228.1735	17264.75	16391.5
869.1486	1230.0879	17215.65	16343.8
869.2932	1232.0016	17200.4	16330.2
869.4377	1233.9146	17211.4	16336.35
869.5823	1235.8269	17172.8	16300.85
869.7269	1237.7384	17196.35	16323.8
869.8715	1239.6492	17112.85	16240.8
870.016	1241.5592	17106.55	16234.1
870.1606	1243.4686	17055.5	16182.2
870.3051	1245.3772	17124.45	16250.95
870.4496	1247.285	17183.35	16312.25
870.5941	1249.1922	17212.55	16341.55
870.7387	1251.0986	17227.65	16358.25
870.8832	1253.0042	17210.75	16337.45
871.0277	1254.9092	17269.2	16396.1
871.1722	1256.8134	17297.5	16426.65
871.3167	1258.7169	17393.4	16519.1
871.4611	1260.6196	17414.1	16542.4
871.6056	1262.5216	17445.75	16570.85
871.7501	1264.4229	17390.15	16516.7
871.8945	1266.3234	17338.65	16467.85
872.039	1268.2232	17272.25	16398.9
872.1834	1270.1223	17171.2	16299.65
872.3278	1272.0207	17152.6	16279.65
872.4723	1273.9183	17090.95	16210.15
872.6167	1275.8151	17042.5	16171.3
872.7611	1277.7113	17059.2	16184.4
872.9055	1279.6067	17068.6	16196.6
873.0499	1281.5014	17191.55	16313.65
873.1943	1283.3953	17311.9	16434.25
873.3386	1285.2885	17463.6	16589.35
873.483	1287.181	17541.75	16669.05
873.6274	1289.0727	17641.15	16768.7
873.7717	1290.9637	17557.6	16685
873.9161	1292.854	17478.75	16605.75
874.0604	1294.7435	17346.85	16472.35
874.2047	1296.6323	17226.2	16353.7
874.349	1298.5204	17126.85	16250.4
874.4933	1300.4077	17051.55	16176.95
874.6376	1302.2943	16986.5	16112.9
874.7819	1304.1802	16961.4	16088.95
874.9262	1306.0653	16876.2	16004
875.0705	1307.9497	16822.35	15950.6
875.2147	1309.8333	16771.85	15898.9
875.359	1311.7162	16770.5	15896.65
875.5032	1313.5984	16686.55	15812.25
875.6475	1315.4798	16630.15	15755.95
875.7917	1317.3605	16598.15	15718.5
875.9359	1319.2405	16635.3	15758.8
876.0801	1321.1197	16582.15	15706.9
876.2243	1322.9982	16491.7	15616
876.3685	1324.876	16429.6	15555.05
876.5127	1326.753	16329.9	15453.25
876.6569	1328.6293	16255.95	15380.9
876.801	1330.5048	16194.1	15317.9
876.9452	1332.3796	16087.8	15213.05
877.0893	1334.2537	16005.25	15105.95
877.2335	1336.127	15913.1	15040.5
877.3776	1337.9996	15881.35	15007.7
877.5217	1339.8714	15851.45	14975.4
877.6658	1341.7426	15820.05	14899.3
877.8099	1343.6129	15775.1	14902.05
877.954	1345.4826	15738.05	14862.75
878.0981	1347.3515	15734.1	14855.1
878.2422	1349.2196	15662.1	14784.75
878.3862	1351.087	15631.7	14757.85
878.5303	1352.9537	15625.75	14753.7
878.6743	1354.8197	15630.4	14757.75
878.8184	1356.6849	15623.75	14749.8
878.9624	1358.5493	15625.2	14749.5
879.1064	1360.4131	15601.85	14728.8
879.2504	1362.276	15561.4	14687.15
879.3944	1364.1383	15555.25	14680.4
879.5384	1365.9998	15546.8	14665.3
879.6823	1367.8606	15543.15	14666.1
879.8263	1369.7206	15490.25	14615.1
879.9702	1371.5799	15452.1	14574.4
880.1142	1373.4384	15412.65	14538.05
880.2581	1375.2962	15404.35	14530.85
880.402	1377.1533	15260.55	14387
880.5459	1379.0096	15162.35	14286.9
880.6898	1380.8652	15139.25	14264.2
880.8337	1382.7201	15058.95	14184.35
880.9776	1384.5742	14942.8	14067.6
881.1215	1386.4275	14893.6	14018.1
881.2653	1388.2802	14844.3	13968.5
881.4092	1390.132	14786.75	13911.45
881.553	1391.9832	14750.25	13874.05
881.6968	1393.8336	14687.75	13811.9
881.8406	1395.6832	14673.95	13797.55
881.9844	1397.5322	14573.1	13697.9
882.1282	1399.3803	14542.75	13662.25
882.272	1401.2278	14469.45	13594.85
882.4158	1403.0745	14431.75	13557.1
882.5595	1404.9204	14381.9	13507.3
882.7033	1406.7656	14340.25	13463.25
882.847	1408.6101	14311.2	13433.75
882.9908	1410.4538	14239.7	13364.25
883.1345	1412.2968	14210.5	13335.1
883.2782	1414.139	14150.6	13274.8
883.4219	1415.9805	14155.25	13280.7
883.5656	1417.8213	14122.3	13225.5
883.7092	1419.6613	14072.25	13197.6
883.8529	1421.5006	14081.35	13205.2
883.9965	1423.3391	14061.1	13182.35
884.1402	1425.1769	14091.3	13215
884.2838	1427.0139	14123.5	13246.75
884.4274	1428.8502	14159.45	13282.35
884.571	1430.6858	14168.4	13291.4
884.7146	1432.5206	14125.3	13249.4
884.8582	1434.3547	14140.45	13262.75
885.0018	1436.188	14113.7	13238
885.1453	1438.0206	14074.8	13198.65
885.2889	1439.8524	14024.7	13149
885.4324	1441.6835	14015	13139.4
885.5759	1443.5139	13968.25	13090.8
885.7194	1445.3435	13940.5	13065.4
885.8629	1447.1724	13959.55	13084.9
886.0064	1449.0005	13926.55	13051.2
886.1499	1450.8279	13891.95	13012.55
886.2933	1452.6545	13890.65	13015.1
886.4368	1454.4804	13905.6	13030.3
886.5802	1456.3056	13852.7	12970.15
886.7237	1458.13	13791.75	12917.1
886.8671	1459.9536	13809.35	12934.1
887.0105	1461.7766	13751.85	12875.75
887.1539	1463.5987	13681.9	12804.5
887.2972	1465.4202	13617.95	12741.45
887.4406	1467.2409	13525.55	12648.65
887.584	1469.0608	13505.3	12628.25
887.7273	1470.88	13457.9	12580.1
887.8706	1472.6984	13404.05	12526.85
888.0139	1474.5161	13344.75	12465.65
888.1572	1476.3331	13302.35	12427.6
888.3005	1478.1493	13277.05	12400.55
888.4438	1479.9648	13261.85	12385.05
888.5871	1481.7795	13235.65	12359
888.7303	1483.5935	13201.1	12324
888.8736	1485.4067	13185.25	12308.9
889.0168	1487.2192	13177.75	12301.5
889.16	1489.031	13178.2	12299.7
889.3032	1490.842	13119.75	12243.25
889.4464	1492.6522	13094.75	12217.75
889.5896	1494.4618	13076.35	12198.1
889.7327	1496.2705	13068.75	12193.75
889.8759	1498.0785	13021.1	12145.15
890.019	1499.8858	12986.75	12109.3
890.1622	1501.6924	12964.15	12087.4
890.3053	1503.4981	12907.9	12032.7
890.4484	1505.3032	12893	12016.6
890.5914	1507.1075	12865	11989.1
890.7345	1508.911	12859.8	11981.5
890.8776	1510.7138	12799.5	11923.9
891.0206	1512.5159	12751.95	11875.45
891.1637	1514.3172	12708.65	11833.45
891.3067	1516.1178	12684.95	11808.6
891.4497	1517.9176	12655.6	11774.75
891.5927	1519.7166	12607.05	11730.8
891.7357	1521.515	12548.85	11664.5
891.8786	1523.3126	12558.5	11681.75
892.0216	1525.1094	12535.7	11653.95
892.1645	1526.9055	12476.05	11600.6
892.3074	1528.7008	12434.5	11557.8
892.4503	1530.4954	12354.15	11475.95
892.5932	1532.2893	12335.55	11459.55
892.7361	1534.0824	12276.05	11397.25
892.879	1535.8747	12244.05	11367.4
893.0218	1537.6663	12204.7	11328.6
893.1647	1539.4572	12176.05	11297.25
893.3075	1541.2473	12137.55	11259.95
893.4503	1543.0367	12098.85	11223.3
893.5931	1544.8253	12047.65	11166.65
893.7359	1546.6132	12029.7	11150.85
893.8787	1548.4003	11991.55	11104.6
894.0214	1550.1867	11978.8	11095.55
894.1642	1551.9723	11922	11039.95
894.3069	1553.7572	11924.9	11047.5
894.4496	1555.5414	11904.3	11027.4
894.5923	1557.3247	11898.4	11021.25
894.735	1559.1074	11884.45	11009.9
894.8777	1560.8893	11903.6	11029.05
895.0204	1562.6705	11883	11006
895.163	1564.4509	11873.55	10997.7
895.3056	1566.2305	11852.1	10976.9
895.4482	1568.0094	11880.4	11003
895.5908	1569.7876	11829.15	10953.15
895.7334	1571.565	11809.95	10932.45
895.876	1573.3417	11775.6	10899.6
896.0186	1575.1176	11740	10863.65
896.1611	1576.8928	11732.8	10854.35
896.3036	1578.6672	11708.15	10832.6
896.4461	1580.4409	11709.8	10834.45
896.5886	1582.2138	11687.55	10807.55
896.7311	1583.986	11661.45	10784.45
896.8736	1585.7575	11684.2	10809.15
897.0161	1587.5282	11685.05	10810.7
897.1585	1589.2981	11699.25	10823.8
897.3009	1591.0673	11676.45	10800.95
897.4433	1592.8358	11698	10822.95
897.5857	1594.6035	11642.3	10763.4
897.7281	1596.3704	11571.45	10694
897.8705	1598.1366	11524.65	10646.8
898.0128	1599.9021	11462.1	10585.35
898.1551	1601.6668	11417.5	10537.5
898.2975	1603.4308	11346.3	10467
898.4398	1605.194	11326.8	10444.9
898.5821	1606.9564	11308.45	10433
898.7243	1608.7182	11336.2	10455.55
898.8666	1610.4791	11379.15	10503.4
899.0088	1612.2394	11418.3	10541.7
899.1511	1613.9988	11483	10604.35
899.2933	1615.7576	11557	10680.6
899.4355	1617.5156	11582.7	10701
899.5776	1619.2728	11524.1	10646.95
899.7198	1621.0293	11439.6	10564.45
899.862	1622.785	11295.7	10415.95
900.0041	1624.54	11149.2	10270.1
900.1462	1626.2942	11024	10145.6
900.2883	1628.0477	10873.5	9994.25
900.4304	1629.8005	10766.8	9887.65
900.5725	1631.5525	10655.75	9780.05
900.7145	1633.3037	10573	9696.2
900.8566	1635.0542	10505.65	9628.8
900.9986	1636.804	10467.55	9591.2
901.1406	1638.553	10467.3	9501.7
901.2826	1640.3013	10367.95	9491.7
901.4245	1642.0488	10276.55	9399.25
901.5665	1643.7955	10235.15	9359.95
901.7085	1645.5416	10215.35	9338.5
901.8504	1647.2868	10170.75	9295.95
901.9923	1649.0313	10129	9252.65
902.1342	1650.7751	10125.75	9246.05
902.2761	1652.5181	10088.85	9213.55
902.4179	1654.2604	10048.8	9171.45
902.5598	1656.0019	10025.15	9148.65
902.7016	1657.7427	10000.45	9122.7
902.8434	1659.4828	9996.95	9120.85
902.9852	1661.222	10016.05	9137.1
903.127	1662.9606	9991.1	9113.95
903.2687	1664.6984	10008.75	9130.85
903.4105	1666.4354	10020.2	9143.35
903.5522	1668.1717	9958.9	9082.1
903.6939	1669.9072	9891.4	9013.15
903.8356	1671.642	9823.1	8943.2
903.9773	1673.3761	9751.55	8876.05
904.119	1675.1094	9684.75	8807.9
904.2606	1676.8419	9640.4	8761.5
904.4022	1678.5737	9588.7	8711.05
904.5439	1680.3048	9521.65	8646.25
904.6855	1682.0351	9476.6	8599.85
904.827	1683.7646	9435.5	8555.75
904.9686	1685.4934	9403.05	8528.15
905.1101	1687.2215	9378.35	8501.4
905.2517	1688.9488	9305.65	8429.55
905.3932	1690.6754	9262.65	8386.55
905.5347	1692.4012	9250.4	8373.35
905.6761	1694.1263	9218.25	8341.8
905.8176	1695.8506	9208.1	8330.3
905.9591	1697.5742	9142.95	8266.05
906.1005	1699.297	9099.05	8221.6
906.2419	1701.0191	9069.55	8191.65
906.3833	1702.7404	9049.05	8171.25
906.5246	1704.461	8979.85	8100.75
906.666	1706.1808	8941.9	8062.95
906.8073	1707.8999	8954.2	8076.55
906.9487	1709.6182	8925	8048.25
907.09	1711.3358	8893.65	8016.45
907.2313	1713.0527	8865.55	7991.5
907.3725	1714.7688	8830.1	7946.85
907.5138	1716.4841	8789.95	7913.25
907.655	1718.1987	8802.8	7919.8
907.7962	1719.9126	8749.8	7873.2
907.9374	1721.6257	8735.55	7855.65
908.0786	1723.338	8719.5	7843.1
908.2198	1725.0496	8678.6	7799.35
908.3609	1726.7605	8681.8	7803.05
908.502	1728.4706	8631.6	7755.3
908.6431	1730.18	8609.2	7729.15
908.7842	1731.8886	8618.85	7741.8
908.9253	1733.5964	8594.4	7697
909.0664	1735.3036	8558	7679.75
909.2074	1737.0099	8580.4	7703.45
909.3484	1738.7156	8535.2	7659.25
909.4894	1740.4204	8511.45	7630.65
909.6304	1742.1246	8500.55	7623.75
909.7714	1743.8279	8485.5	7609
909.9123	1745.5306	8497.8	7619.9
910.0532	1747.2325	8482.2	7604.9
910.1941	1748.9336	8452.85	7576.25
910.335	1750.634	8423.35	7545.1
910.4759	1752.3336	8410.5	7532.95
910.6168	1754.0325	8396.4	7520.25
910.7576	1755.7307	8379.1	7502.4
910.8984	1757.4281	8373.85	7496.55
911.0392	1759.1247	8370.9	7485.5
911.18	1760.8206	8346.6	7468.75
911.3208	1762.5158	8354.85	7473.35
911.4615	1764.2102	8297.85	7420.75
911.6022	1765.9039	8277	7399.45
911.7429	1767.5968	8250.85	7372.1
911.8836	1769.289	8247.25	7369.45
912.0243	1770.9804	8213.1	7335.1
912.1649	1772.6711	8221.3	7341.95
912.3056	1774.361	8181.35	7303.75
912.4462	1776.0502	8188.05	7310.25
912.5868	1777.7386	8164.7	7284.9
912.7274	1779.4263	8146.95	7268.5
912.8679	1781.1132	8144.6	7267.95
913.0084	1782.7994	8122.2	7244.1
913.149	1784.4849	8100.85	7222.25
913.2895	1786.1696	8096.85	7199.7
913.4299	1787.8535	8067.9	7193.85
913.5704	1789.5367	8046.85	7169.8
913.7108	1791.2192	8061.6	7185.6
913.8513	1792.9009	8030.45	7135.75
913.9917	1794.5818	7996.8	7119.9
914.132	1796.2621	7981.9	7107.15
914.2724	1797.9415	7948.05	7071.55
914.4128	1799.6202	7918.9	7041.15
914.5531	1801.2982	7925.25	7047.95
914.6934	1802.9755	7901.1	7023.65
914.8337	1804.6519	7897.8	7020.85
914.9739	1806.3277	7867.9	6990.85
915.1142	1808.0027	7848	6971.55
915.2544	1809.6769	7819.85	6942.25
915.3946	1811.3504	7794	6916.95
915.5348	1813.0231	7775.5	6896.75
915.675	1814.6951	7781.95	6903.65
915.8151	1816.3664	7776.35	6895.2
915.9553	1818.0369	7744.55	6867.75
916.0954	1819.7067	7726.5	6850.35
916.2355	1821.3757	7725.8	6847.35
916.3755	1823.044	7712.55	6836
916.5156	1824.7115	7703.6	6824.05
916.6556	1826.3783	7651.9	6776.5
916.7956	1828.0443	7631.85	6755.95
916.9356	1829.7096	7632.6	6753.95
917.0756	1831.3741	7633.5	6752.2
917.2155	1833.0379	7596.6	6717.75
917.3555	1834.701	7579.9	6700.35
917.4954	1836.3633	7556.4	6680.35
917.6353	1838.0248	7545.75	6667.65
917.7751	1839.6856	7534.7	6657.7
917.915	1841.3457	7522.05	6644.6
918.0548	1843.005	7516.05	6639.4
918.1946	1844.6636	7504.15	6627.05
918.3344	1846.3214	7463.4	6586
918.4742	1847.9785	7462.35	6585.55
918.6139	1849.6349	7442.8	6565.7
918.7537	1851.2904	7443.4	6555
918.8934	1852.9453	7423.15	6544.7
919.0331	1854.5994	7391.05	6510.8
919.1727	1856.2528	7401.6	6519.15
919.3124	1857.9054	7395.7	6517.5
919.452	1859.5572	7392.25	6516.85
919.5916	1861.2083	7351.8	6472.6
919.7312	1862.8587	7352.95	6474.9
919.8708	1864.5084	7335.9	6456.45
920.0103	1866.1572	7307.55	6430.3
920.1498	1867.8054	7282.05	6403.25
920.2893	1869.4528	7259.7	6383.85
920.4288	1871.0994	7255.75	6377
920.5683	1872.7453	7233.05	6356.1
920.7077	1874.3905	7220.75	6337.5
920.8471	1876.0349	7202.85	6324.25
920.9865	1877.6786	7213.25	6334.75
921.1259	1879.3215	7198.65	6322.6
921.2653	1880.9637	7183	6304.95
921.4046	1882.6051	7158.55	6281.05
921.5439	1884.2458	7177.55	6298.2
921.6832	1885.8858	7144.65	6268.15
921.8225	1887.525	7116.85	6239.1
921.9617	1889.1634	7093.2	6215.65
922.101	1890.8011	7061.75	6184.1
922.2402	1892.4381	7061.75	6183.55
922.3794	1894.0743	7049.15	6170.65
922.5185	1895.7098	7039.2	6160.6
922.6577	1897.3446	7071.25	6194
922.7968	1898.9786	7021.25	6139.95
922.9359	1900.6118	6979.4	6101.3
923.075	1902.2443	6993.3	6113.1
923.214	1903.8761	6975.9	6098.15
923.3531	1905.5071	6921.05	6041.9
923.4921	1907.1374	6912.4	6033.3
923.6311	1908.7669	6889.45	6010.9
923.77	1910.3957	6864.5	5987.7
923.909	1912.0237	6875.95	5999.6
924.0479	1913.651	6844.85	5965.8
924.1868	1915.2776	6826.85	5950.85
924.3257	1916.9034	6790.7	5915.6
924.4646	1918.5285	6787.2	5912.15
924.6034	1920.1528	6754.15	5875.1
924.7422	1921.7764	6754.6	5876.8
924.881	1923.3992	6728	5853.45
925.0198	1925.0213	6712.1	5832.1
925.1586	1926.6427	6668.25	5793.1
925.2973	1928.2633	6809.1	5720.2
925.436	1929.8832	6698.35	5819.2
925.5747	1931.5023	6605.95	5728.7
925.7134	1933.1207	6604.15	5726.65
925.852	1934.7383	6598	5718.75
925.9906	1936.3552	6573.45	5696.8
926.1292	1937.9714	6577.3	5701.45
926.2678	1939.5868	6540.95	5662.35
926.4064	1941.2015	6518.8	5641.5
926.5449	1942.8154	6501.9	5622.65
926.6834	1944.4286	6474.4	5595
926.8219	1946.041	6467.1	5566.2
926.9604	1947.6528	6431.2	5547.55
927.0988	1949.2637	6418.6	5539.75
927.2372	1950.8739	6387.55	5508.9
927.3756	1952.4834	6369.3	5491.4
927.514	1954.0921	6385.6	5506.85
927.6523	1955.7001	6350.9	5470
927.7907	1957.3074	6348.35	5473
927.929	1958.9139	6309.8	5433.45
928.0673	1960.5197	6302.35	5422.6
928.2055	1962.1247	6304.15	5426.95
928.3438	1963.729	6263.3	5386
928.482	1965.3325	6243.2	5341
928.6202	1966.9353	6235	5358.85
928.7584	1968.5374	6215.5	5335.8
928.8965	1970.1387	6206.35	5328.4
929.0346	1971.7393	6184.65	5305.55
929.1727	1973.3392	6161.35	5285.8
929.3108	1974.9383	6142.3	5265.85
929.4489	1976.5366	6125.2	5249.5
929.5869	1978.1342	6112.5	5234
929.7249	1979.7311	6137.95	5258.55
929.8629	1981.3273	6107.1	5228.15
930.0009	1982.9227	6086.9	5207.1
930.1388	1984.5173	6068.65	5192.4
930.2767	1986.1112	6051.35	5171.3
930.4146	1987.7044	6040.8	5164.95
930.5525	1989.2968	6023.9	5145.15
930.6904	1990.8885	6011.75	5131.95
930.8282	1992.4795	5994.75	5116.3
930.966	1994.0697	5959.15	5083.2
931.1038	1995.6592	5958.3	5083.05
931.2415	1997.2479	5952.4	5076.7
931.3793	1998.8359	5936.8	5058.4
931.517	2000.4232	5922.65	5046.75
931.6547	2002.0097	5901.75	5026.25
931.7923	2003.5955	5876.85	5001.3
931.93	2005.1805	5872.6	4994.55
932.0676	2006.7648	5871.1	4994.3
932.2052	2008.3484	5847.3	4970.5
932.3427	2009.9312	5857.2	4978.6
932.4803	2011.5133	5822.85	4947.4
932.6178	2013.0946	5824	4946.5
932.7553	2014.6752	5794.3	4916.7
932.8928	2016.2551	5795.65	4917.7
933.0302	2017.8342	5781.8	4904.7
933.1676	2019.4126	5757.4	4880.2
933.305	2020.9902	5742.45	4865.45
933.4424	2022.5672	5722.2	4846.05
933.5798	2024.1433	5727.1	4842.65
933.7171	2025.7188	5707.35	4830.9
933.8544	2027.2935	5688.25	4812.15
933.9917	2028.8674	5686.95	4809.3
934.129	2030.4406	5669.95	4793.9
934.2662	2032.0131	5640.25	4763.85
934.4034	2033.5849	5654.45	4772.25
934.5406	2035.1559	5637.5	4761.05
934.6778	2036.7261	5624.7	4746.85
934.8149	2038.2957	5609.9	4734.45
934.952	2039.8645	5609.3	4730.9
935.0891	2041.4325	5608.1	4728
935.2262	2042.9998	5594.05	4718.5
935.3632	2044.5664	5580	4702.2
935.5002	2046.1323	5559.7	4684.95
935.6372	2047.6974	5560.1	4683.7
935.7742	2049.2617	5560	4681.15
935.9111	2050.8254	5557.6	4658.3
936.048	2052.3883	5543.75	4665.15
936.1849	2053.9504	5527.1	4650.4
936.3218	2055.5118	5500.6	4621.65
936.4586	2057.0725	5496.1	4615
936.5955	2058.6325	5476.7	4600.15
936.7323	2060.1917	5459.15	4583.9
936.869	2061.7502	5461.8	4581.85
937.0058	2063.3079	5447.15	4570.7
937.1425	2064.8649	5444.45	4564.4
937.2792	2066.4212	5430.95	4553.35
937.4159	2067.9767	5430.35	4554.6
937.5525	2069.5315	5402.4	4525.85
937.6891	2071.0856	5376.65	4499.05
937.8257	2072.6389	5371.9	4492.05
937.9623	2074.1915	5341.75	4467.35
938.0989	2075.7433	5323	4445.95
938.2354	2077.2945	5329.2	4453.5
938.3719	2078.8448	5294.35	4417.95
938.5084	2080.3945	5301.8	4423.6
938.6448	2081.9434	5297.1	4419.35
938.7812	2083.4916	5280.5	4403.8
938.9176	2085.039	5248.5	4368.45
939.054	2086.5857	5261.8	4381.75
939.1903	2088.1317	5277.9	4399.05
939.3267	2089.677	5261.7	4383.45
939.463	2091.2215	5238.05	4361.4
939.5992	2092.7652	5214.85	4335.9
939.7355	2094.3083	5219.75	4341.95
939.8717	2095.8506	5211.45	4334.75
940.0079	2097.3921	5210	4333.7
940.1441	2098.933	5195.2	4317.85
940.2802	2100.4731	5202.6	4325.15
940.4163	2102.0124	5213.55	4317.9
940.5524	2103.5511	5192.55	4318.35
940.6885	2105.089	5181.55	4305.95
940.8245	2106.6261	5149.4	4272.15
940.9606	2108.1626	5147.65	4269.05
941.0965	2109.6983	5164.95	4257.95
941.2325	2111.2332	5144.55	4266.8
941.3684	2112.7675	5120.5	4240.85
941.5044	2114.301	5111.45	4233.35
941.6403	2115.8337	5103.95	4227.85
941.7761	2117.3657	5107.5	4232.2
941.912	2118.897	5084.15	4206.5
942.0478	2120.4276	5081.25	4196.7
942.1835	2121.9575	5078.55	4200.6
942.3193	2123.4866	5079.75	4200.2
942.455	2125.0149	5044.6	4164.65
942.5907	2126.5426	5037.05	4158.7
942.7264	2128.0695	5022.05	4140.3
942.8621	2129.5956	5012.4	4136.4
942.9977	2131.1211	5016.1	4135.7
943.1333	2132.6458	5005.5	4128.65
943.2689	2134.1698	4989.35	4115.05
943.4044	2135.693	4986.3	4106.15
943.54	2137.2155	4975.45	4096.05
943.6755	2138.7373	4980.3	4099.9
943.8109	2140.2584	4961.45	4083.9
943.9464	2141.7787	4952.45	4070.05
944.0818	2143.2983	4935.1	4060.35
944.2172	2144.8171	4918.55	4044.45
944.3526	2146.3353	4905.05	4026.3
944.4879	2147.8527	4872.4	3997.2
944.6232	2149.3693	4883.45	4006.3
944.7585	2150.8853	4865.8	3987.65
944.8938	2152.4005	4851.65	3973.05
945.029	2153.9149	4851.4	3973.95
945.1642	2155.4287	4836.2	3960.25
945.2994	2156.9417	4829.7	3952.65
945.4346	2158.454	4811.65	3932.8
945.5697	2159.9655	4798.7	3921.8
945.7048	2161.4764	4801.8	3925.8
945.8399	2162.9865	4803.95	3928.75
945.9749	2164.4958	4786.35	3907.85
946.1099	2166.0045	4757.55	3876.1
946.2449	2167.5124	4763.75	3885.4
946.3799	2169.0195	4749.8	3872.6
946.5148	2170.526	4747.65	3870.65
946.6498	2172.0317	4734.4	3856.75
946.7846	2173.5367	4728.15	3850.75
946.9195	2175.0409	4719.3	3843.35
947.0543	2176.5445	4718.8	3840.95
947.1891	2178.0473	4699.25	3822.45
947.3239	2179.5494	4681.65	3800.75
947.4587	2181.0507	4666.8	3791.1
947.5934	2182.5513	4653.95	3777.4
947.7281	2184.0512	4649.1	3772
947.8628	2185.5504	4644.6	3766.5
947.9974	2187.0488	4614.45	3737.9
948.132	2188.5465	4609.85	3732.95
948.2666	2190.0435	4593.2	3716.1
948.4012	2191.5397	4575.1	3698.3
948.5357	2193.0353	4565.15	3688.45
948.6702	2194.5301	4559.65	3681.4
948.8047	2196.0241	4537.65	3659.85
948.9392	2197.5175	4528.55	3650.8
949.0736	2199.0101	4528.2	3649.2
949.208	2200.502	4495.8	3618.4
949.3424	2201.9931	4487.05	3611.3
949.4767	2203.4835	4488.05	3608.25
949.611	2204.9733	4480.1	3598.2
949.7453	2206.4622	4470.4	3593.15
949.8796	2207.9505	4453.7	3572.3
950.0138	2209.438	4455.5	3578.1
950.148	2210.9248	4430.25	3551.85
950.2822	2212.4109	4421.9	3545.65
950.4164	2213.8962	4398.1	3519.4
950.5505	2215.3809	4389.25	3510.35
950.6846	2216.8648	4378.4	3504.05
950.8186	2218.3479	4369.25	3490.1
950.9527	2219.8304	4360.35	3480.75
951.0867	2221.3121	4352.3	3473.4
951.2207	2222.7931	4343.75	3465.75
951.3546	2224.2733	4323.2	3445.9
951.4886	2225.7529	4311.45	3431.6
951.6225	2227.2317	4311.85	3432.35
951.7563	2228.7098	4305.5	3429.7
951.8902	2230.1872	4274.25	3397.85
952.024	2231.6638	4282.75	3409.25
952.1578	2233.1397	4263.1	3380.9
952.2916	2234.6149	4248.45	3372.8
952.4253	2236.0894	4249.1	3371.5
952.559	2237.5632	4249.5	3367.25
952.6927	2239.0362	4229.5	3352.95
952.8263	2240.5085	4215.8	3337.4
952.9599	2241.9801	4215.45	3338
953.0935	2243.4509	4186.9	3308.85
953.2271	2244.921	4167.4	3289.7
953.3606	2246.3904	4150.3	3272.7
953.4941	2247.8591	4146.95	3272.55
953.6276	2249.3271	4153.45	3276.1
953.7611	2250.7943	4133.8	3258.25
953.8945	2252.2608	4118.1	3239.45
954.0279	2253.7266	4117.55	3240.55
954.1612	2255.1917	4093.9	3216.85
954.2946	2256.656	4088.8	3210.75
954.4279	2258.1197	4067.95	3191.9
954.5612	2259.5826	4086.15	3205.35
954.6944	2261.0447	4060.5	3183.6
954.8276	2262.5062	4060.3	3179.8
954.9608	2263.9669	4057.45	3178.05
955.094	2265.4269	4038.95	3164.25
955.2271	2266.8862	4028.15	3151.9
955.3602	2268.3448	4013.7	3137.6
955.4933	2269.8026	4005.25	3126.7
955.6264	2271.2598	3985.25	3108.65
955.7594	2272.7162	3989.75	3111.9
955.8924	2274.1719	3978.9	3102.35
956.0253	2275.6268	3974.95	3098.8
956.1583	2277.0811	3958.55	3083.2
956.2912	2278.5346	3957.1	3079.65
956.4241	2279.9874	3948.35	3072.65
956.5569	2281.4395	3941.6	3062.95
956.6897	2282.8908	3926.9	3046.25
956.8225	2284.3414	3939.5	3060.1
956.9553	2285.7914	3909.05	3033.2
957.088	2287.2406	3913.2	3035.9
957.2207	2288.689	3911.95	3035.35
957.3534	2290.1368	3905.1	3027.8
957.486	2291.5838	3889.5	3013.25
957.6186	2293.0302	3877.7	2999.35
957.7512	2294.4758	3871.1	2994.4
957.8838	2295.9206	3851.15	2971.35
958.0163	2297.3648	3839	2961.95
958.1488	2298.8082	3836.1	2958.5
958.2813	2300.251	3813.4	2937.45
958.4137	2301.693	3819.9	2941.1
958.5461	2303.1343	3810.85	2931.75
958.6785	2304.5748	3800.65	2925.35
958.8108	2306.0147	3784.2	2906.9
958.9432	2307.4538	3771.95	2892.65
959.0754	2308.8922	3766.4	2891.85
959.2077	2310.3299	3750.55	2873.85
959.3399	2311.7669	3747.3	2870.3
959.4721	2313.2031	3734.85	2858.3
959.6043	2314.6387	3723.45	2844.95
959.7365	2316.0735	3713.9	2837.8
959.8686	2317.5076	3715.85	2839.8
960.0006	2318.941	3705.05	2828.05
960.1327	2320.3737	3714.45	2837.65
960.2647	2321.8056	3706.55	2826.45
960.3967	2323.2369	3685.9	2806.05
960.5287	2324.6674	3676.45	2798.65
960.6606	2326.0972	3667.95	2790.45
960.7925	2327.5263	3668.15	2791.45
960.9244	2328.9547	3656.25	2776.65
961.0562	2330.3823	3638.3	2759.4
961.1881	2331.8092	3633	2751.85
961.3198	2333.2355	3621.2	2744.35
961.4516	2334.661	3618	2740.15
961.5833	2336.0858	3612.05	2733.7
961.715	2337.5098	3594	2716.4
961.8467	2338.9332	3584.1	2706.05
961.9783	2340.3558	3570.55	2689.55
962.1099	2341.7778	3563.55	2687.35
962.2415	2343.199	3559.4	2680.3
962.373	2344.6195	3549.85	2674.7
962.5045	2346.0393	3543.5	2669.65
962.636	2347.4583	3548.4	2668.25
962.7675	2348.8767	3522.55	2644.35
962.8989	2350.2943	3539.3	2660.5
963.0303	2351.7113	3520.9	2643.4
963.1617	2353.1275	3515.05	2636.65
963.293	2354.543	3506.45	2618.25
963.4243	2355.9578	3489.9	2613
963.5556	2357.3718	3474.45	2596.45
963.6868	2358.7852	3473.8	2592.5
963.818	2360.1978	3468.8	2588.8
963.9492	2361.6098	3444.1	2567.1
964.0803	2363.021	3433.7	2552.1
964.2114	2364.4315	3442.75	2563.75
964.3425	2365.8413	3422.75	2539.35
964.4736	2367.2504	3407.3	2530.1
964.6046	2368.6587	3390.65	2510.2
964.7356	2370.0664	3392.8	2515.55
964.8666	2371.4733	3373.75	2494.85
964.9975	2372.8795	3376.4	2498.95
965.1284	2374.285	3355.75	2481.05
965.2593	2375.6899	3353.4	2475.3
965.3901	2377.0939	3342.2	2466.45
965.5209	2378.4973	3327.25	2450
965.6517	2379.9	3330.15	2452.8
965.7825	2381.3019	3307.3	2430.6
965.9132	2382.7032	3303.5	2426.6
966.0439	2384.1037	3301	2426.1
966.1745	2385.5035	3287.9	2411.45
966.3051	2386.9027	3277.65	2400.55
966.4357	2388.3011	3278.05	2397.2
966.5663	2389.6987	3276.3	2399.15
966.6968	2391.0957	3263.45	2386.8
966.8273	2392.492	3248.35	2370.4
966.9578	2393.8876	3220.55	2342.65
967.0882	2395.2824	3224.5	2345.9
967.2186	2396.6765	3212.3	2335.5
967.349	2398.07	3206.8	2328.8
967.4793	2399.4627	3199.55	2320.75
967.6097	2400.8547	3197.5	2318.2
967.7399	2402.246	3195.4	2313.6
967.8702	2403.6366	3167.15	2289.2
968.0004	2405.0265	3169.4	2290.8
968.1306	2406.4156	3159.7	2278.45
968.2607	2407.8041	3139.15	2257
968.3909	2409.1918	3134.65	2255.75
968.521	2410.5789	3114.9	2237.9
968.651	2411.9652	3118.4	2236.35
968.781	2413.3508	3102.15	2225.55
968.911	2414.7358	3097	2216.4
969.041	2416.12	3091.1	2212.65
969.1709	2417.5035	3073.6	2195.5
969.3008	2418.8863	3069.95	2193.55
969.4307	2420.2684	3064.5	2187.8
969.5606	2421.6497	3047.3	2168
969.6904	2423.0304	3037.6	2157.45
969.8201	2424.4104	3034.75	2157.4
969.9499	2425.7896	3032.6	2151.85
970.0796	2427.1682	3022.85	2146.45
970.2093	2428.546	3030.6	2152.8
970.3389	2429.9232	2996.05	2116.1
970.4685	2431.2996	2988.35	2109.3
970.5981	2432.6753	2996.15	2118
970.7277	2434.0503	2993.45	2115.85
970.8572	2435.4246	2974.4	2096.75
970.9867	2436.7982	2970.15	2090.1
971.1161	2438.1711	2958.85	2083.45
971.2456	2439.5433	2953.2	2074.15
971.375	2440.9148	2940.35	2056.75
971.5043	2442.2856	2935.9	2059.2
971.6336	2443.6557	2930.95	2051.2
971.7629	2445.025	2919.6	2042.65
971.8922	2446.3937	2924.5	2044.65
972.0214	2447.7617	2914	2036.1
972.1506	2449.1289	2914.8	2037.5
972.2798	2450.4955	2908.9	2027.85
972.4089	2451.8613	2894.85	2019.05
972.538	2453.2265	2887.2	2008.3
972.6671	2454.5909	2894	2014.05
972.7961	2455.9546	2877	1999.65
972.9251	2457.3177	2862.5	1984.2
973.0541	2458.68	2864.25	1986.2
973.1831	2460.0416	2860.45	1983.25
973.312	2461.4025	2856.3	1979.05
973.4408	2462.7627	2861.75	1972.45
973.5697	2464.1222	2845.25	1968.5
973.6985	2465.4811	2830.55	1951.6
973.8273	2466.8392	2828.5	1947.75
973.956	2468.1966	2821.25	1940.45
974.0847	2469.5533	2828.85	1949.75
974.2134	2470.9093	2818.15	1938.75
974.3421	2472.2645	2807.75	1928.55
974.4707	2473.6191	2787.85	1909.8
974.5993	2474.973	2795.05	1917.8
974.7278	2476.3262	2792.2	1912.4
974.8563	2477.6787	2777.25	1901.15
974.9848	2479.0305	2774.7	1895.55
975.1132	2480.3816	2765.05	1884.7
975.2417	2481.7319	2751.25	1873.95
975.37	2483.0816	2743.95	1865
975.4984	2484.4306	2726.6	1847.3
975.6267	2485.7789	2730.45	1853.35
975.755	2487.1264	2721.55	1841.65
975.8833	2488.4733	2703.5	1827.65
976.0115	2489.8195	2710.8	1826.75
976.1397	2491.165	2706.8	1826.6
976.2678	2492.5097	2690.7	1809.95
976.3959	2493.8538	2693.7	1814.95
976.524	2495.1972	2671.75	1792.65
976.6521	2496.5398	2664.15	1782.45
976.7801	2497.8818	2665.1	1785.1
976.9081	2499.2231	2652	1773.3
977.036	2500.5637	2650.15	1771.3
977.164	2501.9035	2653.3	1773.8
977.2918	2503.2427	2637.7	1754.9
977.4197	2504.5812	2632.25	1754.6
977.5475	2505.919	2623.1	1742.6
977.6753	2507.256	2628.35	1751.65
977.8031	2508.5924	2613.75	1735.7
977.9308	2509.9281	2607.6	1723.8
978.0585	2511.2631	2599.05	1720.35
978.1861	2512.5974	2586.8	1708.8
978.3137	2513.9309	2588.75	1709.25
978.4413	2515.2638	2604	1697.4
978.5689	2516.596	2579.65	1703.1
978.6964	2517.9275	2567.8	1690.3
978.8239	2519.2583	2559.35	1680.3
978.9513	2520.5884	2557.65	1677.6
979.0788	2521.9178	2547.45	1671.3
979.2062	2523.2465	2539.25	1663.5
979.3335	2524.5745	2531	1655.85
979.4608	2525.9018	2527.85	1647.95
979.5881	2527.2284	2518.15	1640.95
979.7154	2528.5543	2517.05	1640.3
979.8426	2529.8796	2512.85	1635
979.9698	2531.2041	2506.2	1627.85
980.0969	2532.5279	2511.55	1634.75
980.224	2533.851	2487.1	1608.7
980.3511	2535.1735	2491.1	1613.5
980.4781	2536.4952	2499.1	1621.5
980.6052	2537.8163	2488.2	1610.1
980.7321	2539.1366	2481.7	1605.65
980.8591	2540.4562	2464.65	1586.1
980.986	2541.7752	2470.4	1593.1
981.1129	2543.0935	2466.5	1589.75
981.2397	2544.411	2460	1579.35
981.3665	2545.7279	2466	1588.75
981.4933	2547.0441	2465.05	1586.4
981.62	2548.3596	2451.2	1568.6
981.7467	2549.6744	2445.35	1568.9
981.8734	2550.9885	2442.95	1557.25
982.0001	2552.3019	2424.35	1547.9
982.1267	2553.6146	2432.15	1553.25
982.2532	2554.9266	2419.85	1541.05
982.3798	2556.2379	2428.35	1548.55
982.5063	2557.5485	2411.5	1534.7
982.6327	2558.8585	2407.5	1523.25
982.7592	2560.1677	2411.5	1528.9
982.8856	2561.4762	2395.8	1517.65
983.0119	2562.7841	2406.85	1527.05
983.1383	2564.0913	2394.95	1518
983.2646	2565.3977	2392.45	1514.6
983.3908	2566.7035	2388.35	1511.7
983.517	2568.0086	2386.55	1508.45
983.6432	2569.313	2382.2	1504.3
983.7694	2570.6167	2376.95	1495.2
983.8955	2571.9197	2381	1504.65
984.0216	2573.222	2376.15	1494.85
984.1476	2574.5236	2370.25	1490.85
984.2737	2575.8246	2362.55	1482
984.3996	2577.1248	2359.2	1478.85
984.5256	2578.4244	2342.9	1465.1
984.6515	2579.7232	2352.6	1475.4
984.7774	2581.0214	2375.2	1473.45
984.9032	2582.3189	2348.95	1473.35
985.029	2583.6157	2341.5	1460.25
985.1548	2584.9118	2337.05	1458.6
985.2806	2586.2072	2320	1441.7
985.4063	2587.5019	2325.45	1449.05
985.5319	2588.7959	2319.85	1441.8
985.6576	2590.0893	2319.85	1440.7
985.7832	2591.3819	2314.65	1438.4
985.9087	2592.6739	2303.8	1428.65
986.0343	2593.9652	2301.55	1421.95
986.1597	2595.2557	2297.5	1419.75
986.2852	2596.5456	2296.9	1418.8
986.4106	2597.8348	2272.55	1394.8
986.536	2599.1234	2275.3	1396.35
986.6614	2600.4112	2269.95	1390.25
986.7867	2601.6983	2267.05	1387.35
986.912	2602.9848	2255.6	1378.5
987.0372	2604.2705	2257.75	1370.95
987.1624	2605.5556	2258.8	1381.9
987.2876	2606.84	2238.3	1361.05
987.4128	2608.1237	2242.65	1363.25
987.5379	2609.4067	2242.1	1364.45
987.6629	2610.689	2227.5	1341.55
987.788	2611.9707	2221.65	1343.5
987.913	2613.2516	2227.3	1344.55
988.0379	2614.5319	2211.65	1334.95
988.1629	2615.8115	2198.7	1320.15
988.2878	2617.0903	2200.95	1323.65
988.4126	2618.3685	2200.5	1321.55
988.5375	2619.6461	2180.55	1303.7
988.6622	2620.9229	2176.45	1298.1
988.787	2622.199	2180.1	1301.35
988.9117	2623.4745	2173.15	1293.55
989.0364	2624.7493	2165.2	1288.9
989.161	2626.0234	2162.45	1287.55
989.2857	2627.2968	2144.5	1268.7
989.4102	2628.5695	2151.35	1272.9
989.5348	2629.8415	2138.2	1260.2
989.6593	2631.1128	2133	1253.9
989.7837	2632.3835	2131.9	1255.75
989.9082	2633.6535	2126.6	1249.7
990.0326	2634.9228	2129.45	1251.05
990.1569	2636.1914	2107.1	1227.85
990.2812	2637.4593	2104.1	1222.35
990.4055	2638.7265	2105.2	1227.3
990.5298	2639.9931	2094.55	1215.6
990.654	2641.259	2093.7	1216.5
990.7782	2642.5242	2090.25	1211.35
990.9023	2643.7887	2080.85	1202.65
991.0264	2645.0525	2084.2	1207.55
991.1505	2646.3156	2076.15	1198.3
991.2745	2647.5781	2068.05	1190.55
991.3985	2648.8398	2080.6	1201.45
991.5225	2650.1009	2070.2	1185.05
991.6464	2651.3613	2057	1179.65
991.7703	2652.6211	2045.75	1167.3
991.8942	2653.8801	2050.05	1175.25
992.018	2655.1385	2045.8	1165.35
992.1418	2656.3961	2039.7	1164.3
992.2655	2657.6531	2045.85	1168.75
992.3892	2658.9094	2034.5	1155.65
992.5129	2660.1651	2034.45	1159.3
992.6366	2661.42	2031.25	1153.1
992.7602	2662.6743	2022.8	1144.1
992.8837	2663.9279	2025.2	1149.35
993.0073	2665.1808	2023.7	1146
993.1307	2666.433	2014	1136.35
993.2542	2667.6846	2009.1	1132.15
993.3776	2668.9354	2004	1124.05
993.501	2670.1856	2000.8	1123.6
993.6244	2671.4351	1996.2	1119.8
993.7477	2672.6839	1992.6	1113.3
993.8709	2673.9321	1998.5	1121.75
993.9942	2675.1795	1990.4	1112.9
994.1174	2676.4263	1990.3	1113.45
994.2405	2677.6724	1991.95	1114.95
994.3637	2678.9179	1975.35	1097.7
994.4868	2680.1626	1975.6	1097.6
994.6098	2681.4067	1975.5	1096.1
994.7328	2682.6501	1960.85	1082.95
994.8558	2683.8928	1953	1075.2
994.9788	2685.1348	1941.9	1065.65
995.1017	2686.3761	1949.6	1073.1
995.2245	2687.6168	1944.05	1066.8
995.3474	2688.8568	1931.85	1054.5
995.4702	2690.0961	1930.65	1052.3
995.5929	2691.3348	1936.3	1058.95
995.7156	2692.5727	1934.45	1056
995.8383	2693.81	1924.5	1047.5
995.961	2695.0466	1915	1041.8
996.0836	2696.2826	1915.15	1037.65
996.2062	2697.5178	1916.45	1036.25
996.3287	2698.7524	1914.2	1035.3
996.4512	2699.9863	1908.7	1027.6
996.5737	2701.2195	1906.2	1030.15
996.6961	2702.452	1907.7	1027.25
996.8185	2703.6839	1895.8	1015.95
996.9408	2704.9151	1890.35	1014.9
997.0631	2706.1456	1892.75	1013.45
997.1854	2707.3755	1875.1	998.15
997.3077	2708.6046	1884.9	1005.15
997.4299	2709.8331	1868.15	990.25
997.552	2711.0609	1870.1	992.05
997.6742	2712.2881	1861.9	984.4
997.7963	2713.5145	1871.25	992.85
997.9183	2714.7403	1855.9	979.45
998.0403	2715.9654	1852.5	974.6
998.1623	2717.1899	1865.95	973.9
998.2842	2718.4136	1854.7	978.4
998.4062	2719.6367	1848.9	972.05
998.528	2720.8591	1850.95	965.35
998.6498	2722.0809	1842.55	964.7
998.7716	2723.3019	1840.2	959.05
998.8934	2724.5223	1832.15	952.25
999.0151	2725.7421	1837.45	959.4
999.1368	2726.9611	1823.8	945.75
999.2584	2728.1795	1818.95	935.05
999.38	2729.3972	1807.2	931.85
999.5016	2730.6142	1814.3	924.2
999.6231	2731.8306	1810	931.55
999.7446	2733.0462	1802.85	923.95
999.8661	2734.2612	1802.4	918.8
999.9875	2735.4756	1789	910.5
1000.1089	2736.6892	1786.7	908.3
1000.2302	2737.9022	1784.3	906.65
1000.3515	2739.1145	1771.2	893.65
1000.4728	2740.3262	1780.9	895.3
1000.594	2741.5372	1767.6	892.5
1000.7152	2742.7475	1767.7	890.2
1000.8363	2743.9571	1752.75	873.7
1000.9575	2745.1661	1761.55	877.9
1001.0785	2746.3744	1760.75	882.35
1001.1996	2747.582	1747.25	871.55
1001.3206	2748.7889	1746.1	865.65
1001.4415	2749.9952	1743.8	865.3
1001.5625	2751.2008	1739.4	862
1001.6833	2752.4057	1737.35	857.8
1001.8042	2753.61	1728.65	851.75
1001.925	2754.8136	1723.9	844.05
1002.0458	2756.0165	1720.3	843.75
1002.1665	2757.2188	1715.5	840.05
1002.2872	2758.4204	1709.7	831.3
1002.4078	2759.6213	1706.2	827
1002.5285	2760.8215	1717.45	834.15
1002.649	2762.0211	1702.3	824.3
1002.7696	2763.22	1710.45	831.5
1002.8901	2764.4182	1706.65	827.95
1003.0106	2765.6158	1696.2	817.75
1003.131	2766.8127	1692.05	813.65
1003.2514	2768.009	1685.85	808.85
1003.3717	2769.2045	1697.85	819.1
1003.492	2770.3994	1688.85	808.2
1003.6123	2771.5936	1677.7	800.45
1003.7325	2772.7872	1680.75	804.1
1003.8527	2773.9801	1668	789.4
1003.9729	2775.1723	1681.4	786.4
1004.093	2776.3639	1658.25	782.95
1004.2131	2777.5548	1668.5	787.2
1004.3331	2778.745	1658.8	780.65
1004.4531	2779.9346	1652.9	774.35
1004.5731	2781.1235	1656.55	778
1004.693	2782.3117	1649.25	770.45
1004.8129	2783.4992	1640.7	763.9
1004.9328	2784.6861	1648.45	771.1
1005.0526	2785.8723	1642.1	762.1
1005.1723	2787.0579	1642.1	761.85
1005.2921	2788.2428	1640.25	762.15
1005.4118	2789.427	1635.2	758.6
1005.5314	2790.6106	1628.7	751.65
1005.651	2791.7935	1624.8	747.95
1005.7706	2792.9757	1618.35	741.45
1005.8902	2794.1573	1617	737.95
1006.0097	2795.3382	1613.4	735.35
1006.1291	2796.5184	1610.15	735
1006.2485	2797.698	1609.45	729.55
1006.3679	2798.8769	1596.5	719.7
1006.4873	2800.0551	1607.95	731.25
1006.6066	2801.2327	1603.25	724.75
1006.7258	2802.4096	1597.2	721.65
1006.8451	2803.5859	1591.3	712.3
1006.9642	2804.7615	1587.35	708
1007.0834	2805.9364	1586.3	710.8
1007.2025	2807.1106	1588.45	710.6
1007.3216	2808.2842	1586.6	707.6
1007.4406	2809.4572	1585.85	708.35
1007.5596	2810.6294	1576.8	697.2
1007.6785	2811.801	1577.95	702.1
1007.7975	2812.972	1581.9	703.7
1007.9163	2814.1423	1577.65	700.05
1008.0352	2815.3119	1582	703.85
1008.154	2816.4808	1579.95	703.25
1008.2727	2817.6491	1578.65	700.25
1008.3914	2818.8167	1583.45	708.3
1008.5101	2819.9837	1588.65	706.65
1008.6288	2821.15	1586.4	708.35
1008.7474	2822.3157	1590.3	713
1008.8659	2823.4807	1595	716.95
1008.9844	2824.645	1602	722.6
1009.1029	2825.8086	1611.35	735.15
1009.2214	2826.9716	1609.25	732.7
1009.3398	2828.134	1614.4	738.6
1009.4581	2829.2957	1624.05	747.05
1009.5764	2830.4567	1619.1	742.25
1009.6947	2831.617	1631.05	752.95
1009.813	2832.7767	1629.45	752.5
1009.9312	2833.9358	1634.85	758.8
1010.0493	2835.0941	1627	746.8
1010.1675	2836.2519	1616.3	740.25
1010.2855	2837.4089	1603.5	725.4
1010.4036	2838.5653	1607.8	730.05
1010.5216	2839.7211	1604.6	729.2
1010.6396	2840.8761	1596.55	717.7
1010.7575	2842.0306	1589.65	714.05
1010.8754	2843.1843	1589.75	712.05
1010.9932	2844.3374	1595.1	717.6
1011.111	2845.4899	1592.75	714.25
1011.2288	2846.6417	1598	720.65
1011.3465	2847.7928	1591.15	716.65
1011.4642	2848.9433	1596.95	720
1011.5818	2850.0931	1586.55	709.4
1011.6995	2851.2422	1592.25	712.75
1011.817	2852.3907	1589.85	712.9
1011.9345	2853.5385	1589.35	711
1012.052	2854.6857	1594.75	707.2
1012.1695	2855.8323	1590.85	715.45
1012.2869	2856.9781	1581.4	704.45
1012.4042	2858.1233	1583.05	704.6
1012.5216	2859.2679	1592.9	717.75
1012.6389	2860.4118	1598.65	722.4
1012.7561	2861.555	1596	715.55
1012.8733	2862.6976	1592.6	714.75
1012.9905	2863.8395	1593.35	716
1013.1076	2864.9808	1590.1	711.8
1013.2247	2866.1214	1587.85	710.6
1013.3417	2867.2614	1589.65	710.05
1013.4587	2868.4007	1591.9	712.45
1013.5757	2869.5393	1584.5	706.25
1013.6926	2870.6773	1593.2	713.75
1013.8095	2871.8146	1585.1	705.5
1013.9263	2872.9513	1583.25	703.95
1014.0431	2874.0874	1585.35	708.1
1014.1599	2875.2227	1588.7	712.1
1014.2766	2876.3574	1591.55	713.75
1014.3933	2877.4915	1589.8	713.65
1014.51	2878.6249	1582.4	706.8
1014.6266	2879.7577	1589.65	710.4
1014.7431	2880.8898	1597.65	711
1014.8596	2882.0212	1584.25	709.5
1014.9761	2883.152	1578.45	699.65
1015.0925	2884.2821	1575.25	699.2
1015.2089	2885.4116	1578.25	702.35
1015.3253	2886.5405	1573.8	696.75
1015.4416	2887.6686	1579.05	699.5
1015.5579	2888.7962	1568.65	692.6
1015.6741	2889.923	1572.2	697.05
1015.7903	2891.0493	1567.25	693.45
1015.9065	2892.1748	1563.15	685.3
1016.0226	2893.2997	1571.55	691.9
1016.1387	2894.424	1567.05	690.45
1016.2547	2895.5476	1562.95	685.75
1016.3707	2896.6706	1560.7	683.9
1016.4866	2897.7929	1555.65	678.05
1016.6025	2898.9145	1561.1	682.5
1016.7184	2900.0355	1556.15	677.55
1016.8342	2901.1559	1552.25	675.45
1016.95	2902.2756	1548	670.35
1017.0658	2903.3946	1552	675.35
1017.1815	2904.513	1542.05	661.75
1017.2971	2905.6308	1545.5	669.95
1017.4127	2906.7479	1536.55	658.6
1017.5283	2907.8643	1541.5	662.6
1017.6439	2908.9801	1535.4	659.05
1017.7594	2910.0953	1532.8	655.2
1017.8748	2911.2098	1530.1	649.95
1017.9902	2912.3236	1536.05	651.3
1018.1056	2913.4368	1522.85	640.45
1018.2209	2914.5494	1529.2	651.9
1018.3362	2915.6613	1527.8	644.1
1018.4515	2916.7725	1514.2	634.9
1018.5667	2917.8831	1504.45	626.2
1018.6819	2918.9931	1506.15	626.8
1018.797	2920.1024	1498	619.35
1018.9121	2921.211	1493.75	616.4
1019.0271	2922.319	1487.1	610.25
1019.1421	2923.4264	1491.65	615.05
1019.2571	2924.5331	1484.85	607.7
1019.372	2925.6391	1478.6	601.95
1019.4869	2926.7445	1483.45	607.7
1019.6017	2927.8493	1474.6	596.95
1019.7165	2928.9534	1483.85	606.05
1019.8313	2930.0569	1482.9	602.7
1019.946	2931.1597	1480.9	602.4
1020.0606	2932.2619	1477.85	601.35
1020.1753	2933.3634	1482.6	606.05
1020.2899	2934.4643	1489.95	606.7
1020.4044	2935.5645	1487.65	605.05
1020.5189	2936.6641	1482.2	600.25
1020.6334	2937.763	1472.1	596.15
1020.7478	2938.8613	1475.4	596.55
1020.8622	2939.959	1470	588.8
1020.9765	2941.056	1460.5	583.75
1021.0908	2942.1523	1458.5	580.8
1021.2051	2943.248	1439.15	560.05
1021.3193	2944.3431	1435.4	559.65
1021.4334	2945.4375	1425.35	547.2
1021.5476	2946.5313	1414.1	538.1
1021.6617	2947.6244	1402.6	524.4
1021.7757	2948.7169	1394.15	517.25
1021.8897	2949.8087	1385.5	507.5
1022.0037	2950.8999	1373.45	497.5
1022.1176	2951.9904	1363.4	485.85
1022.2315	2953.0803	1368.9	491
1022.3453	2954.1696	1358.4	480.8
1022.4591	2955.2582	1362.7	486.7
1022.5728	2956.3462	1349.55	474.4
1022.6865	2957.4335	1350.85	472.15
1022.8002	2958.5202	1348.95	470.1
1022.9138	2959.6062	1340.9	464.45
1023.0274	2960.6916	1341	464.85
1023.141	2961.7764	1340.9	463.1
1023.2545	2962.8605	1337.7	458.85
1023.3679	2963.9439	1331.7	454.85
1023.4813	2965.0267	1331.15	453
1023.5947	2966.1089	1346.15	445.6
1023.708	2967.1905	1324.5	448.85
1023.8213	2968.2714	1323.4	444.95
1023.9346	2969.3516	1317.75	440.1
1024.0478	2970.4312	1322.15	437.6
1024.1609	2971.5102	1312.75	436.5
1024.274	2972.5885	1314.05	438.45
1024.3871	2973.6662	1311.75	430
1024.5002	2974.7432	1310.7	434.9
1024.6132	2975.8196	1308.1	430.45
1024.7261	2976.8954	1309.75	430.95
1024.839	2977.9705	1303.95	427.3
1024.9519	2979.045	1302.6	426.5
1025.0647	2980.1188	1299.7	421.95
1025.1775	2981.192	1292.65	417.45
1025.2902	2982.2645	1303.5	425.15
1025.4029	2983.3364	1295.2	418.4
1025.5156	2984.4077	1291.35	414.9
1025.6282	2985.4783	1295.15	412.25
1025.7407	2986.5483	1283.4	407.9
1025.8532	2987.6177	1279.5	401.85
1025.9657	2988.6864	1272.7	395.2
1026.0782	2989.7545	1272.65	395.25
1026.1906	2990.8219	1264.85	388.35
1026.3029	2991.8887	1261.9	383.45
1026.4152	2992.9548	1263.2	385.5
1026.5275	2994.0204	1252.55	375.35
1026.6397	2995.0852	1250.5	374.05
1026.7519	2996.1495	1251.65	371.6
1026.864	2997.2131	1241.3	363.25
1026.9761	2998.276	1240.8	365.1
1027.0882	2999.3383	1235.9	359.2
1027.2002	3000.4	1233.1	353.5
1027.3122	3001.4611	1228.25	351.6
1027.4241	3002.5215	1224	347.7
1027.536	3003.5812	1221.3	342.9
1027.6478	3004.6404	1222.75	344.35
1027.7596	3005.6989	1222.9	344.6
1027.8714	3006.7567	1217.15	341.05
1027.9831	3007.8139	1240.3	342.45
1028.0947	3008.8705	1217.75	341.15
1028.2064	3009.9264	1212.6	332.35
1028.3179	3010.9818	1210.1	331.35
1028.4295	3012.0364	1204.1	325.45
1028.541	3013.0905	1204.7	326.65
1028.6524	3014.1439	1204.55	327.85
1028.7638	3015.1966	1199.8	325
1028.8752	3016.2487	1202.5	324.9
1028.9865	3017.3002	1204.35	324.1
1029.0978	3018.3511	1200.7	323.3
1029.209	3019.4013	1198.05	322.65
1029.3202	3020.4509	1194.15	317.8
1029.4314	3021.4998	1192.65	315.1
1029.5425	3022.5481	1190.3	312
1029.6535	3023.5958	1188.75	314.85
1029.7645	3024.6428	1192	315.1
1029.8755	3025.6892	1185.8	311.35
1029.9864	3026.735	1185.8	309.6
1030.0973	3027.7802	1182.1	303.65
1030.2082	3028.8247	1180.5	303.85
1030.319	3029.8685	1176.85	299.2
1030.4297	3030.9118	1181.35	301.7
1030.5404	3031.9544	1177.95	303.2
1030.6511	3032.9963	1176.6	301.55
1030.7617	3034.0376	1175.25	298.4
1030.8723	3035.0783	1172	294.3
1030.9829	3036.1184	1174.7	296.1
1031.0934	3037.1578	1169.25	294.85
1031.2038	3038.1966	1171.85	295.4
1031.3142	3039.2348	1170.6	295.1
1031.4246	3040.2723	1175.65	290.7
1031.5349	3041.3092	1172.6	296.8
1031.6452	3042.3455	1161.5	283.8
1031.7554	3043.3811	1165.35	287.05
1031.8656	3044.4161	1164.7	285.7
1031.9758	3045.4505	1162.05	287.65
1032.0859	3046.4842	1162.9	285.15
1032.1959	3047.5173	1156.15	281.2
1032.3059	3048.5498	1165.3	288
1032.4159	3049.5816	1160.35	282.55
1032.5258	3050.6128	1157.85	278.95
1032.6357	3051.6434	1160.75	281.95
1032.7455	3052.6734	1159.55	282.05
1032.8553	3053.7027	1152.3	274.65
1032.9651	3054.7314	1149.65	273.3
1033.0748	3055.7594	1149.2	272.4
1033.1845	3056.7868	1153.05	276.6
1033.2941	3057.8136	1150.75	274.4
1033.4037	3058.8398	1151.3	275.4
1033.5132	3059.8653	1148.9	272.05
1033.6227	3060.8902	1146.35	269.6
1033.7321	3061.9145	1146.85	268.45
1033.8415	3062.9381	1145.2	268.05
1033.9509	3063.9612	1161.55	267.15
1034.0602	3064.9835	1146.05	270.35
1034.1694	3066.0053	1149.55	269.85
1034.2787	3067.0264	1144.65	266.95
1034.3878	3068.0469	1141.65	262.9
1034.497	3069.0668	1145.55	267.6
1034.6061	3070.086	1143.95	265.95
1034.7151	3071.1046	1139.7	262.85
1034.8241	3072.1226	1137.15	259.05
1034.9331	3073.1399	1135.7	258.75
1035.042	3074.1567	1138.2	262.25
1035.1508	3075.1727	1136.9	258.8
1035.2597	3076.1882	1133.9	256.5
1035.3684	3077.203	1130.6	252.2
1035.4772	3078.2173	1130.5	251.75
1035.5859	3079.2308	1134	255.3
1035.6945	3080.2438	1131	251.1
1035.8031	3081.2561	1118.95	242.4
1035.9117	3082.2678	1122.55	245.7
1036.0202	3083.2789	1125.95	249.5
1036.1286	3084.2893	1119.85	242.6
1036.2371	3085.2991	1122.05	244.4
1036.3454	3086.3083	1118.3	237.3
1036.4538	3087.3169	1118.5	239.45
1036.562	3088.3248	1118.8	240.1
1036.6703	3089.3321	1114.1	236.1
1036.7785	3090.3388	1110.6	232.9
1036.8866	3091.3449	1109.7	234.45
1036.9948	3092.3503	1111.35	234
1037.1028	3093.3551	1109.85	232.45
1037.2108	3094.3593	1104.8	229.55
1037.3188	3095.3629	1104.8	229.5
1037.4267	3096.3658	1109.3	230.45
1037.5346	3097.3681	1104.75	227.85
1037.6425	3098.3698	1108.7	230.2
1037.7503	3099.3708	1110.1	226.7
1037.858	3100.3713	1100.3	224.3
1037.9657	3101.3711	1098.1	220.4
1038.0734	3102.3702	1235.4	223.5
1038.181	3103.3688	1102.85	221.8
1038.2886	3104.3667	1097.2	220.5
1038.3961	3105.364	1091.6	213.95
1038.5036	3106.3607	1098.55	221.85
1038.611	3107.3568	1093.3	214.6
1038.7184	3108.3522	1089.3	211.95
1038.8257	3109.347	1091.9	215.35
1038.933	3110.3412	1090.55	208.75
1039.0403	3111.3348	1083.75	205.45
1039.1475	3112.3277	1083.9	208.85
1039.2547	3113.32	1081.7	205
1039.3618	3114.3117	1084	207.3
1039.4689	3115.3028	1080.6	205.4
1039.5759	3116.2932	1080.25	203.2
1039.6829	3117.2831	1085.15	203.75
1039.7898	3118.2723	1075.65	197.95
1039.8967	3119.2608	1077.1	200.05
1040.0035	3120.2488	1077.45	201.55
1040.1103	3121.2361	1076.15	200.4
1040.2171	3122.2229	1074.85	199.5
1040.3238	3123.209	1070.7	193.45
1040.4305	3124.1944	1069.65	192.25
1040.5371	3125.1793	1067.4	188.35
1040.6437	3126.1635	1069.1	191.45
1040.7502	3127.1471	1066.65	191.05
1040.8567	3128.1301	1064.6	188.3
1040.9631	3129.1125	1064.15	189.45
1041.0695	3130.0942	1064.25	186.6
1041.1759	3131.0753	1073.8	189.35
1041.2822	3132.0558	1065.45	188.95
1041.3884	3133.0357	1064.1	185.15
1041.4946	3134.015	1061.65	186.3
1041.6008	3134.9936	1062.45	184.45
1041.7069	3135.9716	1076.25	179.15
1041.813	3136.949	1056.7	181.3
1041.919	3137.9258	1063.05	179.95
1042.025	3138.902	1063.45	181
1042.1309	3139.8775	1056.6	180.65
1042.2368	3140.8524	1056.3	178.3
1042.3427	3141.8267	1054.3	174.95
1042.4485	3142.8004	1055.85	180.3
1042.5542	3143.7735	1061.6	178.25
1042.6599	3144.7459	1053.75	174.1
1042.7656	3145.7178	1053.2	176
1042.8712	3146.689	1050.65	174.6
1042.9768	3147.6596	1051	173.05
1043.0823	3148.6295	1051.85	174.85
1043.1878	3149.5989	1047	168.9
1043.2932	3150.5676	1046.45	171.25
1043.3986	3151.5357	1043.55	167.55
1043.5039	3152.5032	1043.75	168.15
1043.6092	3153.4701	1042.45	164.3
1043.7145	3154.4364	1043.2	162.6
1043.8197	3155.402	1045.45	168.75
1043.9248	3156.367	1046.85	169.6
1044.03	3157.3315	1075.55	162.25
1044.135	3158.2952	1036.55	160.7
1044.24	3159.2584	1042.45	166.1
1044.345	3160.221	1039.4	160.35
1044.4499	3161.1829	1036.75	158.95
1044.5548	3162.1442	1035.25	157.4
1044.6596	3163.105	1037.25	159.4
1044.7644	3164.065	1035	158.85
1044.8692	3165.0245	1034.9	155
1044.9739	3165.9834	1028.5	154.55
1045.0785	3166.9416	1030.7	153.8
1045.1831	3167.8993	1032.5	153.75
1045.2877	3168.8563	1031.1	153
1045.3922	3169.8127	1029.3	153.7
1045.4966	3170.7684	1026.65	151.6
1045.6011	3171.7236	1027.3	149.95
1045.7054	3172.6782	1028.25	150.85
1045.8098	3173.6321	1024.4	146.35
1045.914	3174.5854	1030.4	147.85
1046.0183	3175.5381	1022.3	145.55
1046.1224	3176.4902	1022.5	146.55
1046.2266	3177.4417	1024.9	149.3
1046.3307	3178.3926	1019.5	142.2
1046.4347	3179.3428	1022.95	148.3
1046.5387	3180.2924	1022.3	147.45
1046.6427	3181.2415	1019.6	142
1046.7466	3182.1899	1022.85	143.95
1046.8504	3183.1377	1016.4	140.1
1046.9542	3184.0848	1019.4	140.45
1047.058	3185.0314	1020.4	142.85
1047.1617	3185.9773	1018.1	139.95
1047.2654	3186.9227	1016.25	137.2
1047.369	3187.8674	1016.9	140.5
1047.4726	3188.8115	1017.7	136.45
1047.5761	3189.755	1014	138.3
1047.6796	3190.6979	1010.25	132.95
1047.783	3191.6402	1010.6	133.7
1047.8864	3192.5818	1014.2	136.85
1047.9898	3193.5229	1019.65	137.8
1048.0931	3194.4633	1007.4	129.45
1048.1963	3195.4031	1008.9	130.95
1048.2995	3196.3423	1008.35	128.95
1048.4027	3197.2809	1006.7	128.6
1048.5058	3198.2189	1008.65	131.3
1048.6089	3199.1563	1014.7	130.2
1048.7119	3200.0931	1002.4	128.25
1048.8148	3201.0292	1000.2	122.55
1048.9178	3201.9648	1004.85	127.45
1049.0206	3202.8997	1005.85	126.05
1049.1235	3203.834	1005.9	129.2
1049.2262	3204.7677	998.65	121
1049.329	3205.7008	1003.85	124.75
1049.4317	3206.6333	996.85	123.35
1049.5343	3207.5652	1004.1	125.4
1049.6369	3208.4964	1002.1	124.2
1049.7394	3209.4271	1001.95	125.8
1049.8419	3210.3571	997.25	121.15
1049.9444	3211.2865	997.45	119.6
1050.0468	3212.2154	999	122.45
1050.1491	3213.1436	999.9	120.3
1050.2514	3214.0712	1004.7	120.8
1050.3537	3214.9982	997.5	120.35
1050.4559	3215.9246	994.15	115.7
1050.5581	3216.8503	990.9	115.75
1050.6602	3217.7755	996.1	117.8
1050.7623	3218.7001	992.65	116
1050.8643	3219.624	996.55	117.35
1050.9663	3220.5473	994.7	119.55
1051.0682	3221.4701	991	113.05
1051.1701	3222.3922	992.9	115.7
1051.2719	3223.3137	991.2	114.45
1051.3737	3224.2346	987.4	109.55
1051.4754	3225.1549	985.9	111
1051.5771	3226.0746	983.95	107.35
1051.6788	3226.9937	988.05	110.35
1051.7804	3227.9121	984.15	106.35
1051.8819	3228.83	983.05	106.4
1051.9834	3229.7473	985.55	107.35
1052.0849	3230.6639	987.3	111.75
1052.1863	3231.5799	983.1	107.2
1052.2876	3232.4954	983.6	106.85
1052.3889	3233.4102	984.6	109.1
1052.4902	3234.3244	980.5	102.1
1052.5914	3235.238	980	104.7
1052.6926	3236.151	1004.3	102.4
1052.7937	3237.0634	978.35	102.65
1052.8948	3237.9752	978	99.5
1052.9958	3238.8864	980.55	103.6
1053.0968	3239.797	978.4	103.05
1053.1977	3240.7069	979.2	101.45
1053.2986	3241.6163	979.2	103.25
1053.3994	3242.5251	977.6	101.4
1053.5002	3243.4332	973	98.7
1053.6009	3244.3408	977.75	103.45
1053.7016	3245.2477	972.8	96.5
1053.8022	3246.154	977.85	100.4
1053.9028	3247.0598	976.7	97.95
1054.0034	3247.9649	971.95	94.5
1054.1039	3248.8694	973.65	95.95
1054.2043	3249.7733	971.5	95.85
1054.3047	3250.6766	973.15	97.3
1054.4051	3251.5793	973.45	95.35
1054.5054	3252.4814	969.1	92.25
1054.6056	3253.3829	966.2	89.4
1054.7058	3254.2838	973.45	96.65
1054.806	3255.1841	968.8	91.65
1054.9061	3256.0838	966.85	91.95
1055.0061	3256.9829	964	85.4
1055.1062	3257.8814	963.05	85.1
1055.2061	3258.7792	965.45	84.45
1055.306	3259.6765	965.7	88.15
1055.4059	3260.5731	962.05	83.85
1055.5057	3261.4692	961.85	83.55
1055.6055	3262.3647	962.85	85.9
1055.7052	3263.2595	963.3	85.3
1055.8049	3264.1538	960.45	83.2
1055.9045	3265.0474	956.7	80.05
1056.0041	3265.9404	956.8	79.1
1056.1036	3266.8329	953.5	77.85
1056.2031	3267.7247	963.75	75.9
1056.3025	3268.616	951.15	75.95
1056.4019	3269.5066	952.5	76.15
1056.5013	3270.3966	950.2	70.5
1056.6005	3271.286	943.25	66.9
