Software Version:	3.9.2.0
Unit SN:	10000200
Spectrometer SN:	6960
Date:	3/6/2024 11:05:46 AM
Data Line Index:	25
Spectral Points:	2048
Integration time (ms):	125
Averages:	20
Delay (ms):	30
Sequence Number:	1
Processing:	dark subtract
Laser Power (mW):	300
Laser Current (mA):	821
Laser Diode Temp (C):	25.1
Laser Case Temp (C):	28.4
System Temp (C):	28.3
Spectrometer Temp (C):	25.7
CCD Temp (C):	-0.005
Secondary Temp (C):	20.011
Heatsink Temp (C):	23.928
CCDPCB Temp (C):	37.43
SecondaryPCB Temp (C):	35.029

Wavelength	RamanShift	Raw Counts	Dark Subtracted
787.061	30.1047	1089.55	675.35
787.2016	32.3739	1121.45	707.2
787.3422	34.6426	1162.95	748.25
787.4828	36.9109	1205.8	790.15
787.6235	39.1787	1257.05	838
787.7642	41.4461	1320.3	896.95
787.9049	43.7131	1373.8	946.2
788.0456	45.9796	1449.5	1019.2
788.1863	48.2456	1495.1	1059.5
788.3271	50.5112	1562.6	1124.6
788.4679	52.7764	1637.95	1198.25
788.6087	55.0411	1711.1	1267.5
788.7496	57.3054	1788.45	1340.2
788.8904	59.5692	1871.6	1418.05
789.0313	61.8326	1976.55	1521.9
789.1722	64.0955	2067	1607.4
789.3132	66.3579	2198.5	1732.9
789.4541	68.6199	2339.8	1872.2
789.5951	70.8815	2577.2	2106.85
789.7361	73.1426	3055.55	2579.95
789.8771	75.4032	4245	3764.35
790.0181	77.6634	7319.65	6833.7
790.1592	79.9231	15177.4	14687.7
790.3003	82.1824	49071.95	48572.6
790.4414	84.4412	65535	65014.1
790.5825	86.6995	65535	64998.05
790.7237	88.9574	65535	64973.45
790.8648	91.2148	65535	64961.25
791.006	93.4717	65535	64949
791.1472	95.7282	65535	64946.75
791.2885	97.9842	65535	64937.5
791.4297	100.2398	65535	64939.1
791.571	102.4949	65535	64934.5
791.7123	104.7495	65535	64930.5
791.8536	107.0036	65535	64929
791.9949	109.2573	65535	64932.15
792.1363	111.5105	65535	64929.2
792.2777	113.7632	65535	64927.05
792.4191	116.0154	65535	64918.5
792.5605	118.2672	65535	64923.25
792.7019	120.5185	65535	64923.85
792.8434	122.7693	65535	64921
792.9849	125.0197	65535	64915.85
793.1264	127.2696	65535	64911.3
793.2679	129.519	65535	64908.7
793.4094	131.7679	65535	64908.15
793.551	134.0163	65535	64899.8
793.6926	136.2642	65535	64900
793.8342	138.5117	65535	64890.7
793.9758	140.7587	65535	64895.45
794.1175	143.0052	65535	64892.2
794.2591	145.2512	65535	64895.45
794.4008	147.4967	65535	64889.35
794.5425	149.7417	65535	64887.3
794.6842	151.9863	65535	64883.9
794.826	154.2304	65535	64881.7
794.9677	156.4739	65535	64875.65
795.1095	158.717	65535	64876.9
795.2513	160.9596	65535	64874.9
795.3931	163.2017	65535	64870.6
795.535	165.4433	65535	64866.3
795.6768	167.6844	65535	64868.2
795.8187	169.925	65535	64862.5
795.9606	172.1651	65535	64861.95
796.1025	174.4047	65535	64857.05
796.2445	176.6439	65535	64855.05
796.3864	178.8825	65535	64853.45
796.5284	181.1206	65535	64849.9
796.6704	183.3582	65535	64844.4
796.8124	185.5954	65535	64843.25
796.9544	187.832	65535	64840.15
797.0965	190.0681	65535	64837.85
797.2386	192.3037	65535	64834.5
797.3806	194.5388	65535	64828.85
797.5228	196.7734	65535	64825.95
797.6649	199.0075	65535	64824.7
797.807	201.2411	65535	64822.1
797.9492	203.4742	65535	64823.4
798.0914	205.7068	65535	64820.6
798.2336	207.9389	65535	64820.1
798.3758	210.1704	65535	64817.85
798.518	212.4015	65535	64815.15
798.6603	214.632	65535	64819.2
798.8025	216.862	65535	64829.95
798.9448	219.0915	65535	64831.4
799.0871	221.3205	65535	64837.6
799.2294	223.549	65535	64838.55
799.3718	225.777	65535	64837.85
799.5141	228.0044	65535	64832.85
799.6565	230.2314	65535	64834.9
799.7989	232.4578	65535	64834.45
799.9413	234.6837	65535	64824
800.0837	236.909	65535	64827
800.2262	239.1339	65535	64801.05
800.3687	241.3582	65535	64813
800.5111	243.582	65535	64778.15
800.6536	245.8053	65535	64793.85
800.7961	248.0281	65535	64799.85
800.9387	250.2503	65535	64798
801.0812	252.472	65535	64787.75
801.2238	254.6932	65535	64788.7
801.3664	256.9139	65535	64788.75
801.509	259.134	65535	64786.1
801.6516	261.3536	65535	64788.2
801.7942	263.5727	65535	64780.75
801.9369	265.7912	65535	64787
802.0795	268.0092	65535	64786.3
802.2222	270.2267	65535	64781.3
802.3649	272.4436	65535	64781.2
802.5076	274.6601	65535	64777.75
802.6504	276.8759	65535	64780.8
802.7931	279.0913	65535	64775.5
802.9359	281.3061	65535	64779.3
803.0787	283.5204	65535	64774.45
803.2215	285.7341	65535	64768.9
803.3643	287.9473	65535	64757.1
803.5071	290.16	65535	64764.9
803.6499	292.3721	65535	64768.75
803.7928	294.5837	65535	64768.65
803.9357	296.7947	65535	64767
804.0786	299.0052	65535	64766.5
804.2215	301.2152	65535	64764.85
804.3644	303.4246	65535	64768.5
804.5074	305.6334	65535	64767.5
804.6503	307.8418	65535	64762.8
804.7933	310.0495	65535	64761.75
804.9363	312.2568	65535	64763.75
805.0793	314.4635	65535	64762.6
805.2223	316.6696	65535	64758.8
805.3653	318.8752	65535	64751.1
805.5084	321.0802	65535	64761.1
805.6514	323.2847	65535	64755.6
805.7945	325.4887	65535	64758.45
805.9376	327.692	65535	64757.9
806.0807	329.8949	65535	64754.35
806.2238	332.0972	65535	64753.2
806.367	334.2989	65535	64747.4
806.5101	336.5001	65535	64747.3
806.6533	338.7007	65535	64749.25
806.7965	340.9008	65535	64748.75
806.9397	343.1003	65535	64745.35
807.0829	345.2992	65535	64744.55
807.2261	347.4976	65535	64744.5
807.3693	349.6955	65535	64739.1
807.5126	351.8927	65535	64741
807.6559	354.0895	65535	64729.8
807.7991	356.2856	65535	64737.4
807.9424	358.4812	65535	64737
808.0857	360.6763	65535	64737.05
808.2291	362.8707	65535	64737.6
808.3724	365.0646	65535	64733.85
808.5158	367.258	65535	64734.6
808.6591	369.4508	65535	64727.6
808.8025	371.643	65535	64725.15
808.9459	373.8346	65535	64724.1
809.0893	376.0257	65535	64721.85
809.2327	378.2162	65535	64722.1
809.3762	380.4062	65535	64722.95
809.5196	382.5956	65535	64717.65
809.6631	384.7844	65535	64722.25
809.8066	386.9726	65535	64720.8
809.9501	389.1603	65535	64722.05
810.0936	391.3474	65535	64688.7
810.2371	393.5339	65535	64719.7
810.3806	395.7199	65535	64723.1
810.5241	397.9052	65535	64725.5
810.6677	400.09	65535	64732.3
810.8113	402.2743	65535	64730.2
810.9548	404.4579	65535	64730.7
811.0984	406.641	65535	64727
811.2421	408.8235	65535	64726.85
811.3857	411.0054	65535	64725.05
811.5293	413.1868	65535	64719.65
811.673	415.3675	65535	64718.25
811.8166	417.5477	65535	64718.15
811.9603	419.7273	65535	64715.7
812.104	421.9064	65535	64711.25
812.2477	424.0848	65535	64709.1
812.3914	426.2627	65535	64705.95
812.5351	428.4399	65535	64709.65
812.6788	430.6166	65535	64708.75
812.8226	432.7928	65535	64705.75
812.9663	434.9683	65535	64705.1
813.1101	437.1432	65535	64704.1
813.2539	439.3176	65535	64705.1
813.3977	441.4914	65535	64705.15
813.5415	443.6645	65535	64702.05
813.6853	445.8371	65535	64702
813.8291	448.0091	65535	64703.4
813.973	450.1806	65535	64699.9
814.1168	452.3514	65535	64698.7
814.2607	454.5216	65535	64690.25
814.4046	456.6913	65535	64700.6
814.5485	458.8603	65535	64699.35
814.6924	461.0288	65535	64699.5
814.8363	463.1967	65535	64701.2
814.9802	465.3639	65535	64696
815.1241	467.5306	65535	64698.65
815.2681	469.6967	65535	64694.5
815.412	471.8622	65535	64696.6
815.556	474.0271	65535	64698
815.7	476.1914	65535	64694.85
815.844	478.3551	65535	64695.3
815.988	480.5182	65535	64694.1
816.132	482.6807	65535	64692.45
816.276	484.8426	65535	64694.05
816.4201	487.0039	65535	64696.65
816.5641	489.1647	65535	64690.5
816.7082	491.3248	65535	64691.9
816.8522	493.4843	65535	64695.45
816.9963	495.6432	65535	64692.25
817.1404	497.8015	65535	64689.4
817.2845	499.9592	65535	64691.6
817.4286	502.1163	65535	64688.8
817.5727	504.2728	65535	64687.9
817.7168	506.4287	65535	64692.3
817.861	508.5839	65535	64689.2
818.0051	510.7386	65535	64692.95
818.1493	512.8927	65535	64687.05
818.2935	515.0461	65535	64685.25
818.4377	517.199	65535	64689.8
818.5818	519.3512	65535	64682.3
818.726	521.5029	65535	64678.8
818.8703	523.6539	65535	64685.55
819.0145	525.8043	65535	64680.6
819.1587	527.9541	65535	64679.85
819.303	530.1033	65535	64681.75
819.4472	532.2519	65535	64680.85
819.5915	534.3999	65535	64682.55
819.7357	536.5472	65535	64682.5
819.88	538.694	65535	64683.35
820.0243	540.8401	65535	64682.4
820.1686	542.9856	65535	64680.85
820.3129	545.1305	65535	64676.25
820.4572	547.2748	65535	64676.15
820.6016	549.4185	65535	64677.75
820.7459	551.5615	65535	64675.9
820.8902	553.704	65535	64678.75
821.0346	555.8458	65535	64675.65
821.1789	557.987	65535	64678.4
821.3233	560.1276	65535	64674.85
821.4677	562.2675	65535	64677.9
821.6121	564.4069	65535	64678.05
821.7565	566.5456	65535	64675.35
821.9009	568.6837	65535	64675.1
822.0453	570.8212	65535	64674.7
822.1897	572.958	65535	64671.95
822.3342	575.0942	65535	64675.95
822.4786	577.2299	65535	64674.65
822.6231	579.3648	65535	64676.55
822.7675	581.4992	65535	64677.55
822.912	583.6329	65535	64679.05
823.0565	585.766	65535	64677.25
823.201	587.8985	65535	64674.7
823.3454	590.0304	65535	64661.55
823.4899	592.1616	65535	64671.75
823.6345	594.2922	65535	64670.75
823.779	596.4222	65535	64670.5
823.9235	598.5515	65535	64667.05
824.068	600.6802	65535	64671
824.2126	602.8083	65535	64670.55
824.3571	604.9358	65535	64671.9
824.5017	607.0626	65535	64669.75
824.6462	609.1888	65535	64669.2
824.7908	611.3144	65535	64669.4
824.9354	613.4393	65535	64668.2
825.08	615.5636	65535	64666.35
825.2246	617.6873	65535	64668.6
825.3692	619.8103	65535	64665.9
825.5138	621.9327	65535	64664.5
825.6584	624.0544	65535	64668
825.803	626.1756	65535	64669
825.9477	628.2961	65535	64666.45
826.0923	630.4159	65535	64666.4
826.237	632.5351	65535	64665.25
826.3816	634.6537	65535	64664.3
826.5263	636.7716	65535	64666.45
826.6709	638.8889	65535	64660.9
826.8156	641.0056	65535	64665.15
826.9603	643.1216	65535	64660.6
827.105	645.237	65535	64659.9
827.2497	647.3518	65535	64662
827.3944	649.4659	65535	64662.45
827.5391	651.5793	65535	64662.2
827.6838	653.6922	65535	64665.6
827.8285	655.8043	65535	64662.95
827.9733	657.9159	65535	64662.5
828.118	660.0268	65535	64661.05
828.2627	662.137	65535	64660.3
828.4075	664.2466	65535	64661
828.5522	666.3556	65535	64661.25
828.697	668.4639	65535	64659.75
828.8418	670.5716	65535	64661.75
828.9865	672.6786	65535	64658.55
829.1313	674.785	65535	64657.65
829.2761	676.8907	65535	64658.9
829.4209	678.9958	65535	64658.65
829.5657	681.1002	65535	64659.2
829.7105	683.204	65535	64655.05
829.8553	685.3072	65535	64655.8
830.0001	687.4097	65535	64656.45
830.1449	689.5115	65535	64656.25
830.2898	691.6127	65535	64658.45
830.4346	693.7132	65535	64656.65
830.5794	695.8131	65535	64639.95
830.7243	697.9123	65535	64658.05
830.8691	700.0109	65535	64652.2
831.014	702.1089	65535	64655.15
831.1588	704.2061	65535	64656.5
831.3037	706.3028	65535	64653.6
831.4486	708.3987	65535	64652.25
831.5935	710.4941	65535	64655.9
831.7383	712.5887	65535	64653.85
831.8832	714.6827	65535	64648.8
832.0281	716.7761	65535	64655.45
832.173	718.8688	65535	64654.05
832.3179	720.9608	65535	64652.1
832.4628	723.0522	65535	64648.8
832.6077	725.1429	65535	64653.45
832.7527	727.233	65535	64656.8
832.8976	729.3224	65535	64650.75
833.0425	731.4112	65535	64652.25
833.1874	733.4993	65535	64651.6
833.3324	735.5867	65535	64648
833.4773	737.6735	65535	64651.9
833.6222	739.7596	65535	64648.15
833.7672	741.845	65535	64650.9
833.9122	743.9298	65535	64650.2
834.0571	746.014	65535	64650.35
834.2021	748.0974	65535	64650.5
834.347	750.1802	65535	64649.2
834.492	752.2624	65535	64649.2
834.637	754.3439	65535	64646.65
834.782	756.4247	65535	64638.85
834.9269	758.5048	65535	64649.5
835.0719	760.5843	65535	64649.35
835.2169	762.6631	65535	64647.7
835.3619	764.7413	65535	64651.5
835.5069	766.8188	65535	64647.65
835.6519	768.8956	65535	64647.2
835.7969	770.9718	65535	64649.4
835.9419	773.0473	65535	64648.45
836.0869	775.1221	65535	64649.6
836.232	777.1962	65535	64646.55
836.377	779.2697	65535	64647.95
836.522	781.3426	65535	64628.8
836.667	783.4147	65535	64645.2
836.8121	785.4862	65535	64647.9
836.9571	787.557	65535	64645.4
837.1021	789.6271	65535	64647.8
837.2472	791.6966	65535	64647.15
837.3922	793.7654	65535	64647.15
837.5373	795.8335	65535	64647.6
837.6823	797.901	65535	64647.35
837.8274	799.9678	65535	64645.15
837.9724	802.0339	65535	64645.95
838.1175	804.0993	65535	64633.65
838.2626	806.1641	65535	64644.05
838.4076	808.2282	65535	64645.55
838.5527	810.2916	65535	64641.7
838.6978	812.3544	65535	64646.45
838.8428	814.4164	65535	64648.9
838.9879	816.4778	65535	64644.2
839.133	818.5385	65535	64645.2
839.2781	820.5986	65535	64643.75
839.4232	822.658	65535	64640.2
839.5682	824.7166	65535	64644.05
839.7133	826.7747	65535	64644.4
839.8584	828.832	65535	64645.75
840.0035	830.8886	65535	64642.2
840.1486	832.9446	65535	64641.85
840.2937	834.9999	65535	64645.25
840.4388	837.0545	65535	64641.25
840.5839	839.1085	65535	64642.25
840.729	841.1618	65535	64641.3
840.8741	843.2143	65535	64642.9
841.0192	845.2662	65535	64642.25
841.1643	847.3175	65535	64644.6
841.3095	849.368	65535	64644.95
841.4546	851.4179	65535	64644.1
841.5997	853.467	65535	64641.5
841.7448	855.5155	65535	64645.05
841.8899	857.5633	65535	64645.5
842.0351	859.6105	65535	64642.3
842.1802	861.6569	65535	64646.2
842.3253	863.7027	65535	64639.85
842.4704	865.7478	65535	64642.85
842.6156	867.7922	65535	64643.35
842.7607	869.8359	65535	64640.8
842.9058	871.8789	65535	64641.35
843.0509	873.9212	65535	64607
843.1961	875.9629	65535	64641.4
843.3412	878.0039	65535	64637.85
843.4863	880.0441	65535	64643.25
843.6315	882.0837	65535	64640.75
843.7766	884.1226	65535	64638.75
843.9218	886.1609	65535	64641.55
844.0669	888.1984	65535	64640.3
844.212	890.2352	65535	64642.8
844.3572	892.2714	65535	64637.2
844.5023	894.3069	65535	64640.8
844.6475	896.3416	65535	64639.75
844.7926	898.3757	65535	64638.9
844.9377	900.4091	65535	64640.25
845.0829	902.4418	65535	64636.1
845.228	904.4739	65535	64636.8
845.3732	906.5052	65535	64636.75
845.5183	908.5358	65535	64641.45
845.6635	910.5658	65535	64639
845.8086	912.595	65535	64639.7
845.9538	914.6236	65535	64641
846.0989	916.6515	65535	64639.75
846.2441	918.6786	65535	64640.05
846.3892	920.7051	65535	64637.85
846.5344	922.7309	65535	64641.8
846.6795	924.756	65535	64635.65
846.8246	926.7804	65535	64637.5
846.9698	928.8041	65535	64632.9
847.1149	930.8272	65535	64639.85
847.2601	932.8495	65535	64634.9
847.4052	934.8711	65535	64639.3
847.5504	936.892	65535	64637.45
847.6955	938.9123	65535	64637.65
847.8407	940.9318	65535	64637.75
847.9858	942.9506	65535	64638.05
848.131	944.9688	65535	64640.45
848.2761	946.9862	65535	64637.15
848.4213	949.003	65535	64636.7
848.5664	951.019	65535	64637.35
848.7115	953.0344	65535	64640.35
848.8567	955.0491	65535	64636.65
849.0018	957.063	65535	64639.55
849.147	959.0763	65535	64641.4
849.2921	961.0888	65535	64638.55
849.4373	963.1007	65535	64635.5
849.5824	965.1119	65535	64641.6
849.7275	967.1223	65535	64639.75
849.8727	969.1321	65535	64640.85
850.0178	971.1412	65535	64638.1
850.1629	973.1495	65535	64637.75
850.3081	975.1572	65535	64604.65
850.4532	977.1641	65535	64639.9
850.5983	979.1704	65535	64638.55
850.7435	981.1759	65535	64633.75
850.8886	983.1808	65535	64637.2
851.0337	985.1849	65535	64627
851.1788	987.1884	65535	64634.15
851.324	989.1911	65535	64634.4
851.4691	991.1932	65535	64637.6
851.6142	993.1945	65535	64641.6
851.7593	995.1951	65535	64636.95
851.9045	997.1951	65535	64631.9
852.0496	999.1943	65535	64637.1
852.1947	1001.1928	65535	64638.9
852.3398	1003.1906	65535	64635.4
852.4849	1005.1877	65535	64634.75
852.63	1007.1841	65535	64635.5
852.7751	1009.1798	65535	64639
852.9202	1011.1748	65535	64636.5
853.0653	1013.1691	65535	64636.75
853.2104	1015.1627	65535	64637
853.3555	1017.1556	65535	64637.45
853.5006	1019.1477	65535	64637.55
853.6457	1021.1392	65535	64640.15
853.7908	1023.1299	65535	64638.2
853.9359	1025.12	65535	64637.5
854.081	1027.1093	65535	64640
854.2261	1029.0979	65535	64639.9
854.3712	1031.0859	65535	64642.2
854.5163	1033.0731	65535	64636.25
854.6613	1035.0596	65535	64640.95
854.8064	1037.0454	65535	64638.95
854.9515	1039.0304	65535	64635.4
855.0965	1041.0148	65535	64634.3
855.2416	1042.9985	65535	64635.2
855.3867	1044.9814	65535	64637.15
855.5317	1046.9636	65535	64635.65
855.6768	1048.9452	65535	64636.65
855.8219	1050.926	65535	64637.6
855.9669	1052.9061	65535	64636.85
856.112	1054.8855	65535	64637.45
856.257	1056.8642	65535	64638.3
856.4021	1058.8421	65535	64634.25
856.5471	1060.8194	65535	64636.65
856.6921	1062.7959	65535	64637.95
856.8372	1064.7717	65535	64635.35
856.9822	1066.7469	65535	64636.4
857.1272	1068.7213	65535	64633.9
857.2723	1070.695	65535	64636.95
857.4173	1072.6679	65535	64638.9
857.5623	1074.6402	65535	64635.9
857.7073	1076.6117	65535	64630.45
857.8523	1078.5826	65535	64635.35
857.9973	1080.5527	65535	64632.95
858.1423	1082.5221	65535	64637.95
858.2873	1084.4908	65535	64637
858.4323	1086.4587	65535	64634.5
858.5773	1088.426	65535	64635
858.7223	1090.3925	65535	64633.35
858.8673	1092.3584	65535	64635.3
859.0123	1094.3235	65535	64636.2
859.1573	1096.2879	65535	64634.3
859.3022	1098.2515	65535	64638.55
859.4472	1100.2145	65535	64636.85
859.5922	1102.1767	65535	64633.2
859.7371	1104.1382	65535	64636.25
859.8821	1106.099	65535	64635.25
860.027	1108.0591	65535	64636.7
860.172	1110.0185	65535	64633.25
860.3169	1111.9771	65535	64637.8
860.4619	1113.9351	65535	64636.6
860.6068	1115.8923	65535	64633.35
860.7517	1117.8488	65535	64634.4
860.8967	1119.8045	65535	64637.15
861.0416	1121.7596	65535	64636.85
861.1865	1123.7139	65535	64638.5
861.3314	1125.6675	65535	64636.55
861.4763	1127.6204	65535	64635.55
861.6212	1129.5726	65535	64634.85
861.7661	1131.524	65535	64636.8
861.911	1133.4748	65535	64637.6
862.0559	1135.4248	65535	64634.95
862.2008	1137.3741	65535	64638.05
862.3457	1139.3226	65535	64636.95
862.4905	1141.2705	65535	64635.45
862.6354	1143.2176	65535	64631.5
862.7803	1145.164	65535	64633.85
862.9251	1147.1097	65535	64636.65
863.07	1149.0546	65535	64633.65
863.2148	1150.9989	65535	64633.7
863.3597	1152.9424	65535	64636.15
863.5045	1154.8852	65535	64633.2
863.6493	1156.8272	65535	64636.15
863.7942	1158.7686	65535	64628.4
863.939	1160.7092	65535	64634.55
864.0838	1162.6491	65535	64631.15
864.2286	1164.5883	65535	64637.35
864.3734	1166.5267	65535	64634
864.5182	1168.4644	65535	64635.15
864.663	1170.4014	65535	64630.4
864.8078	1172.3377	65535	64635.3
864.9526	1174.2732	65535	64637.1
865.0974	1176.2081	65535	64635.85
865.2421	1178.1421	65535	64630.5
865.3869	1180.0755	65535	64635.1
865.5317	1182.0082	65535	64636.4
865.6764	1183.9401	65535	64633.4
865.8212	1185.8713	65535	64638.2
865.9659	1187.8017	65535	64635.95
866.1106	1189.7315	65535	64638.75
866.2554	1191.6605	65535	64609.7
866.4001	1193.5888	65535	64637.5
866.5448	1195.5163	65535	64638.15
866.6895	1197.4432	65535	64633.6
866.8342	1199.3693	65535	64636.25
866.9789	1201.2947	65535	64634.5
867.1236	1203.2193	65535	64635.4
867.2683	1205.1432	65535	64635.65
867.413	1207.0664	65535	64637.5
867.5576	1208.9889	65535	64631.9
867.7023	1210.9106	65535	64636.6
867.847	1212.8316	65535	64636.75
867.9916	1214.7519	65535	64625.1
868.1363	1216.6715	65535	64633.6
868.2809	1218.5903	65535	64634.75
868.4255	1220.5084	65535	64636.5
868.5701	1222.4257	65535	64635.95
868.7148	1224.3424	65535	64637.3
868.8594	1226.2583	65535	64632.2
869.004	1228.1735	65535	64633.55
869.1486	1230.0879	65535	64635.75
869.2932	1232.0016	65535	64636.25
869.4377	1233.9146	65535	64633.15
869.5823	1235.8269	65535	64635.4
869.7269	1237.7384	65535	64635.55
869.8715	1239.6492	65535	64635.5
870.016	1241.5592	65535	64635.05
870.1606	1243.4686	65535	64636.05
870.3051	1245.3772	65535	64635.85
870.4496	1247.285	65535	64635.85
870.5941	1249.1922	65535	64636
870.7387	1251.0986	65535	64638.45
870.8832	1253.0042	65535	64635.3
871.0277	1254.9092	65535	64637.65
871.1722	1256.8134	65535	64635.95
871.3167	1258.7169	65535	64634.5
871.4611	1260.6196	65535	64637.1
871.6056	1262.5216	65535	64634.25
871.7501	1264.4229	65535	64636.75
871.8945	1266.3234	65535	64636.2
872.039	1268.2232	65535	64633.75
872.1834	1270.1223	65535	64635.65
872.3278	1272.0207	65535	64635.45
872.4723	1273.9183	65535	64628.6
872.6167	1275.8151	65535	64635.6
872.7611	1277.7113	65535	64634.3
872.9055	1279.6067	65535	64635.45
873.0499	1281.5014	65535	64636.4
873.1943	1283.3953	65535	64634.75
873.3386	1285.2885	65535	64635.15
873.483	1287.181	65535	64636.15
873.6274	1289.0727	65535	64635.7
873.7717	1290.9637	65535	64635
873.9161	1292.854	65535	64635.55
874.0604	1294.7435	65535	64633.3
874.2047	1296.6323	65535	64632.95
874.349	1298.5204	65535	64631.3
874.4933	1300.4077	65535	64635.75
874.6376	1302.2943	65535	64635.8
874.7819	1304.1802	65535	64639.05
874.9262	1306.0653	65535	64633.4
875.0705	1307.9497	65535	64634.3
875.2147	1309.8333	65535	64635.65
875.359	1311.7162	65535	64636.55
875.5032	1313.5984	65535	64634.6
875.6475	1315.4798	65535	64622.15
875.7917	1317.3605	65535	64618.4
875.9359	1319.2405	65535	64631.55
876.0801	1321.1197	65535	64631.7
876.2243	1322.9982	65535	64629.55
876.3685	1324.876	65535	64633.6
876.5127	1326.753	65535	64632.55
876.6569	1328.6293	65535	64634.85
876.801	1330.5048	65535	64634.85
876.9452	1332.3796	65535	64636.85
877.0893	1334.2537	65535	64607.15
877.2335	1336.127	65535	64633.25
877.3776	1337.9996	65535	64634.9
877.5217	1339.8714	65535	64635.25
877.6658	1341.7426	65535	64591.4
877.8099	1343.6129	65535	64634.45
877.954	1345.4826	65535	64633.05
878.0981	1347.3515	65535	64634
878.2422	1349.2196	65535	64635.8
878.3862	1351.087	65535	64634.8
878.5303	1352.9537	65535	64634.25
878.6743	1354.8197	65535	64635.45
878.8184	1356.6849	65535	64635.05
878.9624	1358.5493	65535	64634.05
879.1064	1360.4131	65535	64635.05
879.2504	1362.276	65535	64637.55
879.3944	1364.1383	65535	64634.5
879.5384	1365.9998	65535	64631.55
879.6823	1367.8606	65535	64633.6
879.8263	1369.7206	65535	64634.45
879.9702	1371.5799	65535	64635.05
880.1142	1373.4384	65535	64633.2
880.2581	1375.2962	65535	64632.25
880.402	1377.1533	65535	64635.2
880.5459	1379.0096	65535	64634.5
880.6898	1380.8652	65535	64633.9
880.8337	1382.7201	65535	64632.95
880.9776	1384.5742	65535	64634.2
881.1215	1386.4275	65535	64634.15
881.2653	1388.2802	65535	64635.6
881.4092	1390.132	65535	64638.3
881.553	1391.9832	65535	64633.25
881.6968	1393.8336	65535	64636.25
881.8406	1395.6832	65535	64634.5
881.9844	1397.5322	65535	64636.3
882.1282	1399.3803	65535	64630.1
882.272	1401.2278	65535	64634.2
882.4158	1403.0745	65535	64636.25
882.5595	1404.9204	65535	64639.2
882.7033	1406.7656	65535	64636.4
882.847	1408.6101	65535	64633.55
882.9908	1410.4538	65535	64634.8
883.1345	1412.2968	65535	64635.9
883.2782	1414.139	65535	64635.75
883.4219	1415.9805	65535	64635.9
883.5656	1417.8213	65535	64630.2
883.7092	1419.6613	65535	64637.35
883.8529	1421.5006	65535	64635.3
883.9965	1423.3391	65535	64634.2
884.1402	1425.1769	65535	64635.8
884.2838	1427.0139	65535	64634
884.4274	1428.8502	65535	64634.4
884.571	1430.6858	65535	64635.9
884.7146	1432.5206	65535	64634.9
884.8582	1434.3547	65535	64635.95
885.0018	1436.188	65535	64636.65
885.1453	1438.0206	65535	64634.4
885.2889	1439.8524	65535	64633.75
885.4324	1441.6835	65535	64637.7
885.5759	1443.5139	65535	64631.95
885.7194	1445.3435	65535	64635.8
885.8629	1447.1724	65535	64637
886.0064	1449.0005	65535	64634.45
886.1499	1450.8279	65535	64635.7
886.2933	1452.6545	65535	64634.85
886.4368	1454.4804	65535	64638.95
886.5802	1456.3056	65535	64628.55
886.7237	1458.13	65535	64637.65
886.8671	1459.9536	65535	64635
887.0105	1461.7766	65535	64634.75
887.1539	1463.5987	65535	64633.85
887.2972	1465.4202	65535	64635.95
887.4406	1467.2409	65535	64636.4
887.584	1469.0608	65535	64637.4
887.7273	1470.88	65535	64635.25
887.8706	1472.6984	65535	64637.85
888.0139	1474.5161	65535	64635.5
888.1572	1476.3331	65535	64639.3
888.3005	1478.1493	65535	64636.6
888.4438	1479.9648	65535	64636.35
888.5871	1481.7795	65535	64635.4
888.7303	1483.5935	65535	64635.15
888.8736	1485.4067	65535	64635.75
889.0168	1487.2192	65535	64636.05
889.16	1489.031	65535	64635.05
889.3032	1490.842	65535	64637.2
889.4464	1492.6522	65535	64635.45
889.5896	1494.4618	65535	64634.3
889.7327	1496.2705	65535	64635.9
889.8759	1498.0785	65535	64635.75
890.019	1499.8858	65535	64635.45
890.1622	1501.6924	65535	64637.85
890.3053	1503.4981	65535	64636.95
890.4484	1505.3032	65535	64633.15
890.5914	1507.1075	65535	64636.9
890.7345	1508.911	65535	64636.05
890.8776	1510.7138	65535	64637.15
891.0206	1512.5159	65535	64634.95
891.1637	1514.3172	65535	64634.9
891.3067	1516.1178	65535	64639.4
891.4497	1517.9176	65535	64631.1
891.5927	1519.7166	65535	64635.15
891.7357	1521.515	65535	64631.1
891.8786	1523.3126	65515.55	64614.1
892.0216	1525.1094	65535	64635.7
892.1645	1526.9055	65534.9	64636.95
892.3074	1528.7008	65535	64636.75
892.4503	1530.4954	65495.95	64594.25
892.5932	1532.2893	65535	64637.9
892.7361	1534.0824	65491.85	64591.9
892.879	1535.8747	65429.85	64532.75
893.0218	1537.6663	65534.4	64637.8
893.1647	1539.4572	65179.35	64279.75
893.3075	1541.2473	65406.1	64505.4
893.4503	1543.0367	65370.6	64474.6
893.5931	1544.8253	65257.3	64355.15
893.7359	1546.6132	65352.9	64451.5
893.8787	1548.4003	65160.3	64254.55
894.0214	1550.1867	65083.45	64173.8
894.1642	1551.9723	64993.8	64090.2
894.3069	1553.7572	65050.65	64154
894.4496	1555.5414	65202.45	64305.15
894.5923	1557.3247	64095.25	63197.7
894.735	1559.1074	65057.8	64160.75
894.8777	1560.8893	64643.85	63749.5
895.0204	1562.6705	64830.35	63933.45
895.163	1564.4509	64101.35	63203.85
895.3056	1566.2305	64479.8	63583.6
895.4482	1568.0094	64895.9	63999.45
895.5908	1569.7876	64613.55	63717.85
895.7334	1571.565	64084.05	63187.5
895.876	1573.3417	64387.8	63492.2
896.0186	1575.1176	64223.2	63326.45
896.1611	1576.8928	63906.65	63008.95
896.3036	1578.6672	63274.3	62378.05
896.4461	1580.4409	63657.55	62764
896.5886	1582.2138	62826.6	61929.85
896.7311	1583.986	63101.35	62205
896.8736	1585.7575	62246.4	61352.35
897.0161	1587.5282	62403.2	61507.65
897.1585	1589.2981	62488.4	61594.3
897.3009	1591.0673	61761.5	60867.45
897.4433	1592.8358	61266.9	60371.95
897.5857	1594.6035	61733.2	60836.7
897.7281	1596.3704	61786.35	60890.5
897.8705	1598.1366	60864.95	59968.15
898.0128	1599.9021	60329.3	59434.2
898.1551	1601.6668	61003.65	60107.55
898.2975	1603.4308	60588.65	59692.05
898.4398	1605.194	60811.35	59910.8
898.5821	1606.9564	59664.65	58770.2
898.7243	1608.7182	60258.9	59361
898.8666	1610.4791	59692.35	58797.2
899.0088	1612.2394	60134.25	59238.4
899.1511	1613.9988	59609.25	58717.15
899.2933	1615.7576	60329.35	59434.7
899.4355	1617.5156	60314.25	59412.9
899.5776	1619.2728	61064.45	60169.35
899.7198	1621.0293	59832.95	58937.75
899.862	1622.785	59894.5	58996.4
900.0041	1624.54	60272.1	59373.35
900.1462	1626.2942	59637.5	58741.2
900.2883	1628.0477	58603.8	57704.3
900.4304	1629.8005	58073.3	57175.4
900.5725	1631.5525	58474.2	57579.6
900.7145	1633.3037	57446.2	56550.3
900.8566	1635.0542	57380.75	56485.3
900.9986	1636.804	57495.65	56599.7
901.1406	1638.553	56799.3	55786.85
901.2826	1640.3013	56896	56000.95
901.4245	1642.0488	56339.85	55445.05
901.5665	1643.7955	56608.45	55715.85
901.7085	1645.5416	56130.45	55235.15
901.8504	1647.2868	55906.85	55013.4
901.9923	1649.0313	56329	55436.35
902.1342	1650.7751	56007.7	55110.4
902.2761	1652.5181	55736.05	54843.95
902.4179	1654.2604	55790.35	54894.4
902.5598	1656.0019	56269.5	55373.85
902.7016	1657.7427	56064	55169.05
902.8434	1659.4828	56504.15	55610.5
902.9852	1661.222	56353.15	55458.9
903.127	1662.9606	56513.25	55620
903.2687	1664.6984	56048.25	55153.5
903.4105	1666.4354	55899.95	55005.45
903.5522	1668.1717	54969.5	54073.75
903.6939	1669.9072	54264	53369.35
903.8356	1671.642	53917.05	53020.8
903.9773	1673.3761	53574.05	52678.65
904.119	1675.1094	53228.65	52333
904.2606	1676.8419	52837.45	51945.1
904.4022	1678.5737	52471.2	51577.85
904.5439	1680.3048	52223.15	51327.65
904.6855	1682.0351	51918.05	51025
904.827	1683.7646	51565.75	50669.55
904.9686	1685.4934	51552.3	50657.55
905.1101	1687.2215	50985.3	50088.4
905.2517	1688.9488	51071.75	50176.5
905.3932	1690.6754	50372.6	49479.45
905.5347	1692.4012	50466.8	49573.5
905.6761	1694.1263	50289.55	49395.85
905.8176	1695.8506	50129.65	49235.5
905.9591	1697.5742	49931.5	49038.05
906.1005	1699.297	49654.45	48761.85
906.2419	1701.0191	49512.45	48618.2
906.3833	1702.7404	49175.85	48283.8
906.5246	1704.461	48965.5	48071.65
906.666	1706.1808	48819.75	47923.6
906.8073	1707.8999	48701.05	47807.15
906.9487	1709.6182	48467.65	47573.3
907.09	1711.3358	48323.05	47430.6
907.2313	1713.0527	48161.35	47267.55
907.3725	1714.7688	48004.7	47105.8
907.5138	1716.4841	47652.6	46756.1
907.655	1718.1987	47618.05	46720.35
907.7962	1719.9126	47457.7	46564.8
907.9374	1721.6257	47229.45	46333.3
908.0786	1723.338	47187.75	46293.25
908.2198	1725.0496	46848.1	45954.1
908.3609	1726.7605	46704.95	45812
908.502	1728.4706	46577.05	45683.2
908.6431	1730.18	46294.9	45396.9
908.7842	1731.8886	46153.25	45260.25
908.9253	1733.5964	46054.55	45143.4
909.0664	1735.3036	45938.7	45044.7
909.2074	1737.0099	45824.5	44930.9
909.3484	1738.7156	45700.65	44807.75
909.4894	1740.4204	45373.35	44479.15
909.6304	1742.1246	45337.6	44443.6
909.7714	1743.8279	45205.25	44311.9
909.9123	1745.5306	45104.6	44211.9
910.0532	1747.2325	44875	43984.05
910.1941	1748.9336	44737	43845.4
910.335	1750.634	44570.15	43673.9
910.4759	1752.3336	44428.45	43533.6
910.6168	1754.0325	44314.1	43423.5
910.7576	1755.7307	44235.9	43343.95
910.8984	1757.4281	44200.05	43308.05
911.0392	1759.1247	44071.95	43170.05
911.18	1760.8206	43908.55	43008.4
911.3208	1762.5158	43829.85	42933.2
911.4615	1764.2102	43619.85	42727.45
911.6022	1765.9039	43490.9	42598.85
911.7429	1767.5968	43353.05	42460.1
911.8836	1769.289	43168.6	42274.05
912.0243	1770.9804	43086.6	42194.35
912.1649	1772.6711	43014.05	42120.8
912.3056	1774.361	42877.15	41984.2
912.4462	1776.0502	42747.2	41854.3
912.5868	1777.7386	42705.65	41808.5
912.7274	1779.4263	42490.85	41599.35
912.8679	1781.1132	42469	41576.25
913.0084	1782.7994	42264.45	41372.2
913.149	1784.4849	42164.2	41273.05
913.2895	1786.1696	42039.35	41140.5
913.4299	1787.8535	41875.65	40982.55
913.5704	1789.5367	41754.8	40863.5
913.7108	1791.2192	41712.2	40819
913.8513	1792.9009	41506.8	40585.5
913.9917	1794.5818	41399.45	40505.55
914.132	1796.2621	41313.4	40422.4
914.2724	1797.9415	41119.3	40227.9
914.4128	1799.6202	40988.35	40093.45
914.5531	1801.2982	40897	40003.35
914.6934	1802.9755	40761.85	39867.25
914.8337	1804.6519	40711.85	39820
914.9739	1806.3277	40543.7	39652.95
915.1142	1808.0027	40323.2	39430.8
915.2544	1809.6769	40337.35	39446.45
915.3946	1811.3504	40133.35	39239.95
915.5348	1813.0231	40053.35	39158.75
915.675	1814.6951	39949.05	39054.35
915.8151	1816.3664	39929.8	39034.15
915.9553	1818.0369	39795.35	38903.4
916.0954	1819.7067	39670.85	38779.15
916.2355	1821.3757	39591	38695.8
916.3755	1823.044	39475.3	38582.8
916.5156	1824.7115	39358.75	38466.05
916.6556	1826.3783	39182.2	38293.1
916.7956	1828.0443	39049.95	38158.95
916.9356	1829.7096	38918.95	38025.35
917.0756	1831.3741	38883.8	37988
917.2155	1833.0379	38786.1	37893.65
917.3555	1834.701	38629.45	37735.25
917.4954	1836.3633	38586	37692.6
917.6353	1838.0248	38462.1	37569.05
917.7751	1839.6856	38347.5	37455.6
917.915	1841.3457	38305.75	37416.3
918.0548	1843.005	38173.45	37282.45
918.1946	1844.6636	38076.75	37186.2
918.3344	1846.3214	37921.6	37026.85
918.4742	1847.9785	37910.05	37019.55
918.6139	1849.6349	37759	36864.25
918.7537	1851.2904	37681.9	36780.4
918.8934	1852.9453	37567.4	36674.8
919.0331	1854.5994	37365	36470.15
919.1727	1856.2528	37399.8	36503.85
919.3124	1857.9054	37307.05	36415.05
919.452	1859.5572	37234.75	36343.55
919.5916	1861.2083	37109.45	36216.2
919.7312	1862.8587	37142.3	36249.3
919.8708	1864.5084	36952.35	36058.3
920.0103	1866.1572	36854.8	35962
920.1498	1867.8054	36680.05	35787
920.2893	1869.4528	36611.25	35717.15
920.4288	1871.0994	36464.05	35571.05
920.5683	1872.7453	36440.35	35546.55
920.7077	1874.3905	36284.65	35387.95
920.8471	1876.0349	36167.7	35276.15
920.9865	1877.6786	36115.1	35222.7
921.1259	1879.3215	36074.7	35183.05
921.2653	1880.9637	35987.65	35093.85
921.4046	1882.6051	35900	35008.5
921.5439	1884.2458	35799.55	34906.2
921.6832	1885.8858	35648.2	34755.75
921.8225	1887.525	35571.55	34676.1
921.9617	1889.1634	35396.7	34503.45
922.101	1890.8011	35248.35	34358.8
922.2402	1892.4381	35190.05	34297.8
922.3794	1894.0743	35160.75	34268.85
922.5185	1895.7098	35065.45	34173.3
922.6577	1897.3446	34956.2	34062.45
922.7968	1898.9786	34831.95	33935.6
922.9359	1900.6118	34735	33843.65
923.075	1902.2443	34600.35	33707.5
923.214	1903.8761	34412.8	33519.85
923.3531	1905.5071	34240.45	33346.35
923.4921	1907.1374	34119.75	33226.95
923.6311	1908.7669	34119.55	33228.9
923.77	1910.3957	34039.65	33148.05
923.909	1912.0237	33836.7	32944.4
924.0479	1913.651	33800.05	32908
924.1868	1915.2776	33647.25	32755.85
924.3257	1916.9034	33509.25	32618.25
924.4646	1918.5285	33292.75	32401.1
924.6034	1920.1528	33142.65	32251.35
924.7422	1921.7764	33125.55	32232.85
924.881	1923.3992	32959.1	32065.7
925.0198	1925.0213	32763.5	31870.15
925.1586	1926.6427	32645.55	31756.25
925.2973	1928.2633	32645.5	31644.95
925.436	1929.8832	32459.45	31566.8
925.5747	1931.5023	32290.9	31400.65
925.7134	1933.1207	32193.35	31301.4
925.852	1934.7383	32130.7	31239.15
925.9906	1936.3552	31968.45	31075.65
926.1292	1937.9714	31845.6	30952.8
926.2678	1939.5868	31728.6	30836
926.4064	1941.2015	31570.15	30677.85
926.5449	1942.8154	31475.25	30581.65
926.6834	1944.4286	31283.55	30390.1
926.8219	1946.041	31169.05	30257
926.9604	1947.6528	31012.55	30114.75
927.0988	1949.2637	30922.95	30032.35
927.2372	1950.8739	30857.15	29964.75
927.3756	1952.4834	30748.25	29856.25
927.514	1954.0921	30678.85	29786.6
927.6523	1955.7001	30580.5	29683.8
927.7907	1957.3074	30438.25	29547.3
927.929	1958.9139	30294.9	29402.9
928.0673	1960.5197	30204.1	29309.85
928.2055	1962.1247	30085	29193.65
928.3438	1963.729	29942.55	29051.15
928.482	1965.3325	29827.8	28913.4
928.6202	1966.9353	29669.15	28778.4
928.7584	1968.5374	29633.25	28741.7
928.8965	1970.1387	29488.05	28595.95
929.0346	1971.7393	29348.6	28456.65
929.1727	1973.3392	29249.05	28356.75
929.3108	1974.9383	29126.4	28234.3
929.4489	1976.5366	28980.55	28091.1
929.5869	1978.1342	28996	28103.25
929.7249	1979.7311	28901.05	28008.65
929.8629	1981.3273	28798.45	27907.2
930.0009	1982.9227	28718.15	27825.75
930.1388	1984.5173	28537.15	27645.8
930.2767	1986.1112	28377.4	27486.1
930.4146	1987.7044	28356.6	27466.8
930.5525	1989.2968	28296.45	27403.95
930.6904	1990.8885	28242	27347.45
930.8282	1992.4795	28109.35	27215.35
930.966	1994.0697	28016.75	27125.7
931.1038	1995.6592	27879.15	26988.5
931.2415	1997.2479	27773.45	26883.2
931.3793	1998.8359	27717.95	26825.95
931.517	2000.4232	27587.75	26696.55
931.6547	2002.0097	27478.35	26586.05
931.7923	2003.5955	27335.8	26447
931.93	2005.1805	27342.2	26449.3
932.0676	2006.7648	27234.1	26343.6
932.2052	2008.3484	27153.45	26261.6
932.3427	2009.9312	27149.65	26255.3
932.4803	2011.5133	26991.85	26101
932.6178	2013.0946	26888.7	25999
932.7553	2014.6752	26852.05	25964.3
932.8928	2016.2551	26777.05	25885.05
933.0302	2017.8342	26590.6	25700.25
933.1676	2019.4126	26535.5	25646.6
933.305	2020.9902	26422.85	25533.3
933.4424	2022.5672	26378.55	25485.5
933.5798	2024.1433	26341.9	25446.35
933.7171	2025.7188	26166.45	25277.55
933.8544	2027.2935	26080.85	25188.45
933.9917	2028.8674	25971.25	25081.45
934.129	2030.4406	25919.45	25028.15
934.2662	2032.0131	25833.85	24944.1
934.4034	2033.5849	25715.2	24819.65
934.5406	2035.1559	25667.25	24777.3
934.6778	2036.7261	25583.15	24691.4
934.8149	2038.2957	25496.85	24607.95
934.952	2039.8645	25443.4	24552.9
935.0891	2041.4325	25474.65	24580.2
935.2262	2042.9998	25287.65	24397.1
935.3632	2044.5664	25206.55	24315.6
935.5002	2046.1323	25158.2	24266.1
935.6372	2047.6974	25033.15	24143.85
935.7742	2049.2617	24982.95	24092.2
935.9111	2050.8254	24947.9	24034.95
936.048	2052.3883	24867.95	23974.5
936.1849	2053.9504	24771.95	23880.7
936.3218	2055.5118	24648	23756.1
936.4586	2057.0725	24571.5	23676.05
936.5955	2058.6325	24487.05	23595.9
936.7323	2060.1917	24421.15	23533.05
936.869	2061.7502	24371.55	23476.25
937.0058	2063.3079	24289.15	23399.55
937.1425	2064.8649	24168.2	23274.3
937.2792	2066.4212	24128.75	23237.15
937.4159	2067.9767	24040.45	23150.35
937.5525	2069.5315	23922.75	23031.6
937.6891	2071.0856	23808.85	22917.6
937.8257	2072.6389	23710.1	22817.65
937.9623	2074.1915	23632.7	22745.3
938.0989	2075.7433	23512.7	22619.4
938.2354	2077.2945	23466.35	22575.65
938.3719	2078.8448	23385.55	22494.9
938.5084	2080.3945	23242.95	22350.8
938.6448	2081.9434	23232.9	22341
938.7812	2083.4916	23086.25	22194.05
938.9176	2085.039	23043.95	22149.25
939.054	2086.5857	22987.65	22094.55
939.1903	2088.1317	22927.85	22038.25
939.3267	2089.677	22851.9	21960.65
939.463	2091.2215	22774.2	21883.5
939.5992	2092.7652	22712.4	21818.4
939.7355	2094.3083	22658.95	21766.95
939.8717	2095.8506	22637.9	21748.7
940.0079	2097.3921	22626.45	21735.9
940.1441	2098.933	22482.55	21590.8
940.2802	2100.4731	22427.95	21536.7
940.4163	2102.0124	22401.3	21503.95
940.5524	2103.5511	22334.45	21443.35
940.6885	2105.089	22284.1	21392.75
940.8245	2106.6261	22199.05	21305.95
940.9606	2108.1626	22148.75	21255.2
941.0965	2109.6983	22084.2	21165.3
941.2325	2111.2332	21976.15	21084.15
941.3684	2112.7675	21931.8	21039.9
941.5044	2114.301	21863.9	20970.2
941.6403	2115.8337	21832.6	20940.4
941.7761	2117.3657	21752.45	20859.25
941.912	2118.897	21702.6	20811.55
942.0478	2120.4276	21615.55	20717.5
942.1835	2121.9575	21465.8	20574.15
942.3193	2123.4866	21514.6	20610.25
942.455	2125.0149	21462.2	20568.15
942.5907	2126.5426	21327.7	20437.2
942.7264	2128.0695	21260.9	20365.45
942.8621	2129.5956	21213.85	20322.25
942.9977	2131.1211	21175.3	20279.45
943.1333	2132.6458	21064.9	20172.85
943.2689	2134.1698	21006.15	20114.6
943.4044	2135.693	20956	20060.95
943.54	2137.2155	20909.25	20015.1
943.6755	2138.7373	20856.6	19963.45
943.8109	2140.2584	20755.4	19863.6
943.9464	2141.7787	20707.9	19809.5
944.0818	2143.2983	20613.7	19723.5
944.2172	2144.8171	20446.2	19556.6
944.3526	2146.3353	20420.25	19525.75
944.4879	2147.8527	20336.75	19447.95
944.6232	2149.3693	20355.75	19463
944.7585	2150.8853	20261.05	19368.35
944.8938	2152.4005	20148.4	19257.05
945.029	2153.9149	20132.4	19239.65
945.1642	2155.4287	20051.7	19160.8
945.2994	2156.9417	19996.2	19103.35
945.4346	2158.454	19916.35	19022.3
945.5697	2159.9655	19891.3	18999.15
945.7048	2161.4764	19865.45	18973.85
945.8399	2162.9865	19754.25	18862.15
945.9749	2164.4958	19731.25	18838.15
946.1099	2166.0045	19614.35	18719.05
946.2449	2167.5124	19580.65	18689.85
946.3799	2169.0195	19558.4	18665.4
946.5148	2170.526	19505.2	18613.45
946.6498	2172.0317	19437.85	18546.45
946.7846	2173.5367	19372.4	18479.6
946.9195	2175.0409	19299.85	18408.1
947.0543	2176.5445	19304.5	18415.7
947.1891	2178.0473	19176.25	18285.6
947.3239	2179.5494	19111.1	18216.1
947.4587	2181.0507	19041.4	18149.75
947.5934	2182.5513	18989.2	18097.9
947.7281	2184.0512	18926.3	18033.75
947.8628	2185.5504	18868.4	17974.4
947.9974	2187.0488	18759.55	17867.65
948.132	2188.5465	18720.7	17829.05
948.2666	2190.0435	18646.75	17755.2
948.4012	2191.5397	18553.55	17662.5
948.5357	2193.0353	18536.4	17645.8
948.6702	2194.5301	18409.35	17516.85
948.8047	2196.0241	18357.8	17464.85
948.9392	2197.5175	18297.85	17404.85
949.0736	2199.0101	18231.95	17335.4
949.208	2200.502	18137.05	17248
949.3424	2201.9931	18053.6	17162.9
949.4767	2203.4835	18002.8	17111.8
949.611	2204.9733	17939.95	17042.6
949.7453	2206.4622	17869.1	16979
949.8796	2207.9505	17821.6	16927.75
950.0138	2209.438	17714.8	16824.8
950.148	2210.9248	17676.5	16785.4
950.2822	2212.4109	17642.7	16751.35
950.4164	2213.8962	17546.15	16652.75
950.5505	2215.3809	17520.3	16627.3
950.6846	2216.8648	17474.05	16580.8
950.8186	2218.3479	17418.4	16521.1
950.9527	2219.8304	17352	16456.75
951.0867	2221.3121	17247.05	16354.15
951.2207	2222.7931	17211.3	16318.7
951.3546	2224.2733	17130.7	16238
951.4886	2225.7529	17066.85	16174.3
951.6225	2227.2317	17005	16111.85
951.7563	2228.7098	16975.9	16085.35
951.8902	2230.1872	16895.25	16003.7
952.024	2231.6638	16865.05	15974.3
952.1578	2233.1397	16785.3	15887.3
952.2916	2234.6149	16750.7	15859.8
952.4253	2236.0894	16652.1	15760.65
952.559	2237.5632	16683.6	15782.1
952.6927	2239.0362	16579.05	15687.55
952.8263	2240.5085	16528.7	15636.05
952.9599	2241.9801	16444.5	15550.6
953.0935	2243.4509	16412.6	15520.8
953.2271	2244.921	16327.5	15437.2
953.3606	2246.3904	16293.4	15396.95
953.4941	2247.8591	16200.15	15309.4
953.6276	2249.3271	16168	15277.4
953.7611	2250.7943	16099.35	15207.4
953.8945	2252.2608	16067.5	15175.05
954.0279	2253.7266	16015.95	15125.55
954.1612	2255.1917	15956.45	15065.6
954.2946	2256.656	15887.35	14995.65
954.4279	2258.1197	15820.7	14930.1
954.5612	2259.5826	15786.55	14890.75
954.6944	2261.0447	15745.25	14853.3
954.8276	2262.5062	15690.1	14796.15
954.9608	2263.9669	15656.1	14761.3
955.094	2265.4269	15626.2	14735.95
955.2271	2266.8862	15539.85	14647.45
955.3602	2268.3448	15515.75	14624.55
955.4933	2269.8026	15461.8	14569.45
955.6264	2271.2598	15426.2	14533
955.7594	2272.7162	15374.15	14485.05
955.8924	2274.1719	15326.1	14435.35
956.0253	2275.6268	15275.75	14382.95
956.1583	2277.0811	15223.35	14330.05
956.2912	2278.5346	15151.2	14258.9
956.4241	2279.9874	15144.25	14252.65
956.5569	2281.4395	15109.6	14218
956.6897	2282.8908	15026.3	14130.25
956.8225	2284.3414	15021.85	14126.85
956.9553	2285.7914	14907.05	14016.2
957.088	2287.2406	14866.85	13973.45
957.2207	2288.689	14878.65	13987.9
957.3534	2290.1368	14793.2	13900.75
957.486	2291.5838	14758.15	13863.6
957.6186	2293.0302	14713.85	13820.55
957.7512	2294.4758	14645.8	13754.05
957.8838	2295.9206	14589.75	13694.9
958.0163	2297.3648	14551.8	13659.4
958.1488	2298.8082	14533.75	13641.45
958.2813	2300.251	14465.35	13572.8
958.4137	2301.693	14381.25	13488.65
958.5461	2303.1343	14410.05	13518.9
958.6785	2304.5748	14329.35	13436.65
958.8108	2306.0147	14269.7	13377.95
958.9432	2307.4538	14227.75	13332.45
959.0754	2308.8922	14204.1	13314.15
959.2077	2310.3299	14157.45	13266
959.3399	2311.7669	14103.5	13214.25
959.4721	2313.2031	14020.95	13128.65
959.6043	2314.6387	13958	13064
959.7365	2316.0735	13943.65	13051.65
959.8686	2317.5076	13902.6	13010.35
960.0006	2318.941	13862.4	12970.4
960.1327	2320.3737	13819.75	12927.6
960.2647	2321.8056	13793.65	12901.05
960.3967	2323.2369	13740.05	12848.1
960.5287	2324.6674	13719.05	12824.4
960.6606	2326.0972	13651.25	12757.15
960.7925	2327.5263	13593.65	12703.15
960.9244	2328.9547	13544.2	12650.7
961.0562	2330.3823	13484.6	12593.8
961.1881	2331.8092	13515.6	12621.85
961.3198	2333.2355	13428.9	12535.8
961.4516	2334.661	13393	12499.3
961.5833	2336.0858	13351.95	12457.35
961.715	2337.5098	13298.8	12407.55
961.8467	2338.9332	13260.65	12368.1
961.9783	2340.3558	13229.1	12333
962.1099	2341.7778	13186	12293.5
962.2415	2343.199	13115.55	12221.95
962.373	2344.6195	13088.15	12196.9
962.5045	2346.0393	13042.7	12152.65
962.636	2347.4583	13022.95	12132.6
962.7675	2348.8767	12965.95	12073.8
962.8989	2350.2943	12935.75	12042.05
963.0303	2351.7113	12883.8	11990.2
963.1617	2353.1275	12844.1	11952.75
963.293	2354.543	12824.9	11910.5
963.4243	2355.9578	12785.65	11892.25
963.5556	2357.3718	12677.5	11785.35
963.6868	2358.7852	12626.8	11732.95
963.818	2360.1978	12602.05	11709.15
963.9492	2361.6098	12584.25	11693.75
964.0803	2363.021	12528.85	11634.9
964.2114	2364.4315	12486.8	11594.85
964.3425	2365.8413	12441.6	11549.65
964.4736	2367.2504	12399.45	11510.2
964.6046	2368.6587	12308.95	11418.6
964.7356	2370.0664	12275.65	11384.95
964.8666	2371.4733	12212.85	11322.25
964.9975	2372.8795	12183.55	11292.6
965.1284	2374.285	12128.35	11236.35
965.2593	2375.6899	12080.65	11189.2
965.3901	2377.0939	12020.6	11130.25
965.5209	2378.4973	11967.65	11076.65
965.6517	2379.9	11945.3	11053.55
965.7825	2381.3019	11890.7	10999.2
965.9132	2382.7032	11838.3	10947.45
966.0439	2384.1037	11823.05	10932.95
966.1745	2385.5035	11774.45	10881.85
966.3051	2386.9027	11759.1	10867.05
966.4357	2388.3011	11696.9	10802.65
966.5663	2389.6987	11680.5	10787.3
966.6968	2391.0957	11619.9	10730.15
966.8273	2392.492	11553.4	10662.85
966.9578	2393.8876	11503.3	10612.7
967.0882	2395.2824	11454.9	10562.95
967.2186	2396.6765	11394.45	10503.6
967.349	2398.07	11344.65	10454.1
967.4793	2399.4627	11340.1	10446.25
967.6097	2400.8547	11276.55	10388.05
967.7399	2402.246	11242.1	10344.9
967.8702	2403.6366	11219.2	10327.5
968.0004	2405.0265	11134.85	10243.75
968.1306	2406.4156	11116.1	10219.65
968.2607	2407.8041	11069.95	10176.2
968.3909	2409.1918	11015.8	10122.5
968.521	2410.5789	10978	10088.1
968.651	2411.9652	10916.9	10023.4
968.781	2413.3508	10882.1	9990.7
968.911	2414.7358	10828.25	9937.1
969.041	2416.12	10790.75	9899.75
969.1709	2417.5035	10780.9	9891.7
969.3008	2418.8863	10724.85	9832.6
969.4307	2420.2684	10689.25	9798.6
969.5606	2421.6497	10628.25	9734.6
969.6904	2423.0304	10585.25	9694.95
969.8201	2424.4104	10578.8	9687.9
969.9499	2425.7896	10515	9622.65
970.0796	2427.1682	10472.3	9581.45
970.2093	2428.546	10451.55	9559.6
970.3389	2429.9232	10428.55	9535.85
970.4685	2431.2996	10399.05	9508.95
970.5981	2432.6753	10382.1	9490.5
970.7277	2434.0503	10370.9	9480
970.8572	2435.4246	10308.3	9417.2
970.9867	2436.7982	10263.5	9371.85
971.1161	2438.1711	10247.3	9357.15
971.2456	2439.5433	10195.55	9301.95
971.375	2440.9148	10168.7	9274.8
971.5043	2442.2856	10119.05	9225.3
971.6336	2443.6557	10116.15	9222.05
971.7629	2445.025	10071.05	9180.3
971.8922	2446.3937	10034.15	9142.2
972.0214	2447.7617	10003.3	9112.9
972.1506	2449.1289	9981.75	9091.5
972.2798	2450.4955	9940.45	9044.75
972.4089	2451.8613	9908.4	9017.75
972.538	2453.2265	9885	8993.2
972.6671	2454.5909	9836.65	8944.95
972.7961	2455.9546	9832.55	8942.25
972.9251	2457.3177	9790	8900.85
973.0541	2458.68	9763.65	8870.75
973.1831	2460.0416	9743.95	8851.65
973.312	2461.4025	9712.9	8819.55
973.4408	2462.7627	9672.8	8769.75
973.5697	2464.1222	9635.7	8744.8
973.6985	2465.4811	9613.2	8720.4
973.8273	2466.8392	9593.25	8700.8
973.956	2468.1966	9571.25	8676.95
974.0847	2469.5533	9542.3	8647.75
974.2134	2470.9093	9524.25	8632.15
974.3421	2472.2645	9472.95	8582.6
974.4707	2473.6191	9461.05	8572.35
974.5993	2474.973	9411.45	8519
974.7278	2476.3262	9413	8520.5
974.8563	2477.6787	9366.9	8476.75
974.9848	2479.0305	9302.3	8412.65
975.1132	2480.3816	9259.55	8366.75
975.2417	2481.7319	9235.45	8343
975.37	2483.0816	9193.55	8298.05
975.4984	2484.4306	9190.6	8297.8
975.6267	2485.7789	9135.9	8245.5
975.755	2487.1264	9085	8193.5
975.8833	2488.4733	9041.85	8149.7
976.0115	2489.8195	9014.15	8116.2
976.1397	2491.165	9002.35	8106.95
976.2678	2492.5097	8964.4	8070.7
976.3959	2493.8538	8911.5	8020.55
976.524	2495.1972	8863.6	7970.3
976.6521	2496.5398	8825.45	7933.2
976.7801	2497.8818	8813.2	7919.3
976.9081	2499.2231	8759.75	7867.65
977.036	2500.5637	8729.1	7836.3
977.164	2501.9035	8720.05	7828.55
977.2918	2503.2427	8709.65	7816.25
977.4197	2504.5812	8669.25	7781.15
977.5475	2505.919	8657.65	7762.35
977.6753	2507.256	8630.35	7738.45
977.8031	2508.5924	8579.4	7686.9
977.9308	2509.9281	8546.4	7647.5
978.0585	2511.2631	8492.8	7599.65
978.1861	2512.5974	8506.75	7616.3
978.3137	2513.9309	8470	7578.85
978.4413	2515.2638	8454.85	7530.7
978.5689	2516.596	8407.65	7517.75
978.6964	2517.9275	8371.05	7478.9
978.8239	2519.2583	8332.45	7441.35
978.9513	2520.5884	8319.25	7426.65
979.0788	2521.9178	8280.5	7389
979.2062	2523.2465	8246.2	7353.6
979.3335	2524.5745	8200.5	7309.05
979.4608	2525.9018	8185.85	7292.05
979.5881	2527.2284	8160.75	7269.25
979.7154	2528.5543	8146.9	7256.5
979.8426	2529.8796	8113.15	7221.05
979.9698	2531.2041	8113.75	7220.6
980.0969	2532.5279	8079.85	7190.35
980.224	2533.851	8084.85	7191.65
980.3511	2535.1735	8038.5	7147.4
980.4781	2536.4952	8007.1	7115.7
980.6052	2537.8163	7997.7	7104.7
980.7321	2539.1366	7963.75	7072.85
980.8591	2540.4562	7968.2	7075.9
980.986	2541.7752	7912.15	7019.25
981.1129	2543.0935	7896	7002.6
981.2397	2544.411	7902.2	7008.75
981.3665	2545.7279	7859.45	6969.7
981.4933	2547.0441	7865.95	6976.2
981.62	2548.3596	7835.9	6942.3
981.7467	2549.6744	7805.9	6912.3
981.8734	2550.9885	7784.4	6890.1
982.0001	2552.3019	7735.75	6845.5
982.1267	2553.6146	7758.55	6867.55
982.2532	2554.9266	7734.7	6843.35
982.3798	2556.2379	7692.1	6798.7
982.5063	2557.5485	7677.85	6788.55
982.6327	2558.8585	7656.5	6756.75
982.7592	2560.1677	7660.6	6764.85
982.8856	2561.4762	7621.3	6728.55
983.0119	2562.7841	7620.95	6725.1
983.1383	2564.0913	7576.1	6687.25
983.2646	2565.3977	7539.1	6647.95
983.3908	2566.7035	7538.1	6646.8
983.517	2568.0086	7531.7	6636.4
983.6432	2569.313	7533.25	6639.95
983.7694	2570.6167	7516.4	6620.7
983.8955	2571.9197	7480.25	6589
984.0216	2573.222	7457.65	6564.3
984.1476	2574.5236	7435.15	6540.85
984.2737	2575.8246	7407.15	6514.5
984.3996	2577.1248	7408.25	6511.9
984.5256	2578.4244	7404.95	6513.65
984.6515	2579.7232	7387.2	6494.9
984.7774	2581.0214	7369.5	6453
984.9032	2582.3189	7351.9	6460.35
985.029	2583.6157	7317	6421.1
985.1548	2584.9118	7297.2	6405.5
985.2806	2586.2072	7288.35	6398.6
985.4063	2587.5019	7274.5	6382.15
985.5319	2588.7959	7261.3	6371.25
985.6576	2590.0893	7241.15	6347.4
985.7832	2591.3819	7216.95	6325.05
985.9087	2592.6739	7195.1	6303.55
986.0343	2593.9652	7188.65	6295.6
986.1597	2595.2557	7163.75	6271.1
986.2852	2596.5456	7125.25	6232.05
986.4106	2597.8348	7076.2	6185.15
986.536	2599.1234	7046.25	6154.35
986.6614	2600.4112	7055.75	6164.8
986.7867	2601.6983	7029.6	6135
986.912	2602.9848	6999.65	6107.2
987.0372	2604.2705	6981.9	6082.35
987.1624	2605.5556	6958.7	6064.55
987.2876	2606.84	6933	6041.35
987.4128	2608.1237	6908.2	6014.25
987.5379	2609.4067	6893.75	6001.4
987.6629	2610.689	6875.85	5974.05
987.788	2611.9707	6844.2	5948.7
987.913	2613.2516	6820.35	5925.5
988.0379	2614.5319	6772.3	5880.4
988.1629	2615.8115	6741	5849.35
988.2878	2617.0903	6700.45	5806.1
988.4126	2618.3685	6695.85	5803.65
988.5375	2619.6461	6660.8	5769.05
988.6622	2620.9229	6656.05	5765.65
988.787	2622.199	6642.85	5751.15
988.9117	2623.4745	6637.35	5743.3
989.0364	2624.7493	6619.8	5727.95
989.161	2626.0234	6609.9	5718.05
989.2857	2627.2968	6555.85	5663.5
989.4102	2628.5695	6524.1	5630.7
989.5348	2629.8415	6515.15	5624.6
989.6593	2631.1128	6474.85	5581.45
989.7837	2632.3835	6447.35	5554.45
989.9082	2633.6535	6425.2	5533.75
990.0326	2634.9228	6426.6	5536
990.1569	2636.1914	6394.75	5503.5
990.2812	2637.4593	6364.85	5465.95
990.4055	2638.7265	6345.35	5451
990.5298	2639.9931	6330.2	5437.75
990.654	2641.259	6309.7	5416.7
990.7782	2642.5242	6312.45	5417.95
990.9023	2643.7887	6254.2	5361.65
991.0264	2645.0525	6269.2	5378.25
991.1505	2646.3156	6260.75	5369.3
991.2745	2647.5781	6230	5340.05
991.3985	2648.8398	6177.85	5286.8
991.5225	2650.1009	6192.85	5291.4
991.6464	2651.3613	6165.9	5275.1
991.7703	2652.6211	6140.45	5247.05
991.8942	2653.8801	6121.9	5231.9
992.018	2655.1385	6116.95	5220.95
992.1418	2656.3961	6077.15	5185.15
992.2655	2657.6531	6085.6	5192.9
992.3892	2658.9094	6086.75	5195.3
992.5129	2660.1651	6043.45	5152
992.6366	2661.42	6021.4	5128.7
992.7602	2662.6743	6021.4	5128.65
992.8837	2663.9279	6016.4	5125.3
993.0073	2665.1808	5962.85	5069.6
993.1307	2666.433	5965.8	5071.75
993.2542	2667.6846	5929.45	5037.35
993.3776	2668.9354	5937.25	5041.2
993.501	2670.1856	5920.1	5027.85
993.6244	2671.4351	5917.3	5024.05
993.7477	2672.6839	5897.45	5004.2
993.8709	2673.9321	5876.3	4985.7
993.9942	2675.1795	5856.3	4965.1
994.1174	2676.4263	5843.7	4950.7
994.2405	2677.6724	5806.9	4914.85
994.3637	2678.9179	5803.45	4913.15
994.4868	2680.1626	5781.45	4891.45
994.6098	2681.4067	5769.5	4877.75
994.7328	2682.6501	5777.15	4885.1
994.8558	2683.8928	5746	4854.7
994.9788	2685.1348	5723.8	4832.25
995.1017	2686.3761	5691.25	4800.7
995.2245	2687.6168	5677.35	4784.55
995.3474	2688.8568	5663.8	4771.25
995.4702	2690.0961	5643.75	4753.65
995.5929	2691.3348	5620.4	4728.65
995.7156	2692.5727	5600.35	4707.5
995.8383	2693.81	5577.5	4686.25
995.961	2695.0466	5557.4	4668.2
996.0836	2696.2826	5566.95	4671.8
996.2062	2697.5178	5535.15	4641.55
996.3287	2698.7524	5532.45	4640.3
996.4512	2699.9863	5519.7	4625.35
996.5737	2701.2195	5478.6	4588.7
996.6961	2702.452	5485.05	4591.3
996.8185	2703.6839	5474	4583.9
996.9408	2704.9151	5446.8	4555.6
997.0631	2706.1456	5453.5	4562.15
997.1854	2707.3755	5419.85	4528.1
997.3077	2708.6046	5420.7	4525.8
997.4299	2709.8331	5403.9	4511.1
997.552	2711.0609	5390.35	4498.65
997.6742	2712.2881	5388.6	4496.35
997.7963	2713.5145	5373.8	4478.15
997.9183	2714.7403	5363.8	4472.65
998.0403	2715.9654	5364.6	4472.65
998.1623	2717.1899	5355.45	4448.7
998.2842	2718.4136	5330.8	4436.5
998.4062	2719.6367	5335.25	4443.85
998.528	2720.8591	5333.4	4434.7
998.6498	2722.0809	5308.05	4415.45
998.7716	2723.3019	5313.4	4420.1
998.8934	2724.5223	5295.9	4403.5
999.0151	2725.7421	5272.1	4378.3
999.1368	2726.9611	5280.5	4385.05
999.2584	2728.1795	5274.9	4377.7
999.38	2729.3972	5233	4342
999.5016	2730.6142	5214.85	4314.35
999.6231	2731.8306	5177.95	4284.75
999.7446	2733.0462	5152	4258.95
999.8661	2734.2612	5126.55	4230.8
999.9875	2735.4756	5092.05	4198.4
1000.1089	2736.6892	5051.7	4160.35
1000.2302	2737.9022	5027.15	4137.2
1000.3515	2739.1145	4994.5	4104.35
1000.4728	2740.3262	4968.95	4069.45
1000.594	2741.5372	4919.1	4028.35
1000.7152	2742.7475	4917.35	4024.6
1000.8363	2743.9571	4895.5	4001.8
1000.9575	2745.1661	4860.75	3963
1001.0785	2746.3744	4853.65	3960.95
1001.1996	2747.582	4815.3	3924.25
1001.3206	2748.7889	4806.9	3912.4
1001.4415	2749.9952	4780.55	3890.2
1001.5625	2751.2008	4786.65	3895.15
1001.6833	2752.4057	4766.5	3872.85
1001.8042	2753.61	4751.6	3857.65
1001.925	2754.8136	4718.8	3826.2
1002.0458	2756.0165	4694.3	3802.8
1002.1665	2757.2188	4681	3790.75
1002.2872	2758.4204	4673.75	3782.6
1002.4078	2759.6213	4634.55	3741.65
1002.5285	2760.8215	4664.8	3767.35
1002.649	2762.0211	4639.3	3746.25
1002.7696	2763.22	4616.55	3720.7
1002.8901	2764.4182	4588.85	3695.25
1003.0106	2765.6158	4593.6	3700.3
1003.131	2766.8127	4574.3	3683.75
1003.2514	2768.009	4568.25	3675.95
1003.3717	2769.2045	4536.4	3644.25
1003.492	2770.3994	4535.65	3641.55
1003.6123	2771.5936	4520.1	3626.75
1003.7325	2772.7872	4499.7	3608.3
1003.8527	2773.9801	4479.35	3586.75
1003.9729	2775.1723	4467.4	3558.3
1004.093	2776.3639	4455.8	3564.2
1004.2131	2777.5548	4445.15	3552.1
1004.3331	2778.745	4427.35	3535.15
1004.4531	2779.9346	4419.05	3528.05
1004.5731	2781.1235	4399.75	3507.7
1004.693	2782.3117	4401.05	3509.2
1004.8129	2783.4992	4374.6	3483.3
1004.9328	2784.6861	4380.8	3489.7
1005.0526	2785.8723	4374.25	3482.45
1005.1723	2787.0579	4375.25	3483.45
1005.2921	2788.2428	4357.9	3465.45
1005.4118	2789.427	4352.35	3461.05
1005.5314	2790.6106	4346.35	3454.65
1005.651	2791.7935	4333.85	3438.6
1005.7706	2792.9757	4333.3	3441.9
1005.8902	2794.1573	4331.35	3437.9
1006.0097	2795.3382	4343.05	3448.75
1006.1291	2796.5184	4329.95	3439.95
1006.2485	2797.698	4343.9	3450.1
1006.3679	2798.8769	4347.8	3456
1006.4873	2800.0551	4356.4	3465.15
1006.6066	2801.2327	4368.3	3473.25
1006.7258	2802.4096	4362.5	3471.4
1006.8451	2803.5859	4357.4	3467.2
1006.9642	2804.7615	4362.85	3470.7
1007.0834	2805.9364	4388.15	3498.1
1007.2025	2807.1106	4403.35	3511.1
1007.3216	2808.2842	4411.25	3517.8
1007.4406	2809.4572	4433.4	3540.2
1007.5596	2810.6294	4470.5	3576.95
1007.6785	2811.801	4500.45	3609.95
1007.7975	2812.972	4535.2	3645.4
1007.9163	2814.1423	4553.9	3665.15
1008.0352	2815.3119	4603.7	3713.75
1008.154	2816.4808	4626.4	3736.3
1008.2727	2817.6491	4660.15	3767.8
1008.3914	2818.8167	4699.6	3808.65
1008.5101	2819.9837	4749.9	3854.35
1008.6288	2821.15	4770.95	3879.35
1008.7474	2822.3157	4808.55	3919.05
1008.8659	2823.4807	4844.5	3953.4
1008.9844	2824.645	4892.8	4000.8
1009.1029	2825.8086	4923.2	4031.8
1009.2214	2826.9716	4958.55	4068.95
1009.3398	2828.134	4979.9	4089.45
1009.4581	2829.2957	5004.9	4114.15
1009.5764	2830.4567	5017.8	4126.45
1009.6947	2831.617	5036.5	4144.55
1009.813	2832.7767	5049.25	4157.45
1009.9312	2833.9358	5031.85	4140.8
1010.0493	2835.0941	5019.95	4127.35
1010.1675	2836.2519	5020.15	4129.9
1010.2855	2837.4089	4979.75	4085.7
1010.4036	2838.5653	4974.75	4083.15
1010.5216	2839.7211	4959.45	4069.15
1010.6396	2840.8761	4948.25	4055.55
1010.7575	2842.0306	4983.45	4092.1
1010.8754	2843.1843	5016.85	4125.15
1010.9932	2844.3374	5056.3	4164.25
1011.111	2845.4899	5113.8	4221.75
1011.2288	2846.6417	5166.55	4274.1
1011.3465	2847.7928	5233.5	4343.15
1011.4642	2848.9433	5301.4	4409.85
1011.5818	2850.0931	5382.9	4492.3
1011.6995	2851.2422	5442.7	4549.35
1011.817	2852.3907	5527.85	4634.4
1011.9345	2853.5385	5544.9	4653.35
1012.052	2854.6857	5641.95	4725.8
1012.1695	2855.8323	5643.7	4753.45
1012.2869	2856.9781	5689.5	4799.65
1012.4042	2858.1233	5750.25	4858.2
1012.5216	2859.2679	5765.95	4876.1
1012.6389	2860.4118	5813.7	4921.15
1012.7561	2861.555	5839.55	4943.95
1012.8733	2862.6976	5870.85	4976.4
1012.9905	2863.8395	5875.55	4984.6
1013.1076	2864.9808	5882.2	4991
1013.2247	2866.1214	5872.15	4982.5
1013.3417	2867.2614	5891.4	5001.5
1013.4587	2868.4007	5906.5	5012.7
1013.5757	2869.5393	5905.55	5011.8
1013.6926	2870.6773	5916.45	5020.8
1013.8095	2871.8146	5911.35	5016.65
1013.9263	2872.9513	5926.35	5033.75
1014.0431	2874.0874	5896.3	5004.7
1014.1599	2875.2227	5874.85	4984.9
1014.2766	2876.3574	5849.3	4960.05
1014.3933	2877.4915	5799.1	4909.05
1014.51	2878.6249	5766.4	4876
1014.6266	2879.7577	5734.95	4839.8
1014.7431	2880.8898	5697.1	4794
1014.8596	2882.0212	5678.15	4787.75
1014.9761	2883.152	5665.2	4772.15
1015.0925	2884.2821	5634.1	4744.05
1015.2089	2885.4116	5605.4	4714.85
1015.3253	2886.5405	5603.55	4713.8
1015.4416	2887.6686	5602.65	4708.8
1015.5579	2888.7962	5601.45	4713.65
1015.6741	2889.923	5580.9	4689.75
1015.7903	2891.0493	5596	4704.45
1015.9065	2892.1748	5588.9	4696.3
1016.0226	2893.2997	5604.5	4712.05
1016.1387	2894.424	5620.5	4728.6
1016.2547	2895.5476	5596.3	4705.15
1016.3707	2896.6706	5633.4	4742
1016.4866	2897.7929	5641.95	4750.65
1016.6025	2898.9145	5674.3	4781.75
1016.7184	2900.0355	5703.3	4811.9
1016.8342	2901.1559	5739.85	4847.5
1016.95	2902.2756	5758.75	4868.05
1017.0658	2903.3946	5774.85	4883.55
1017.1815	2904.513	5783.6	4890.95
1017.2971	2905.6308	5790.8	4899.8
1017.4127	2906.7479	5816.05	4923.35
1017.5283	2907.8643	5838.85	4947.95
1017.6439	2908.9801	5831.65	4941.3
1017.7594	2910.0953	5831.35	4942.45
1017.8748	2911.2098	5826.9	4933.25
1017.9902	2912.3236	5815	4915.6
1018.1056	2913.4368	5792.8	4898.2
1018.2209	2914.5494	5775.4	4884.15
1018.3362	2915.6613	5746.8	4850.95
1018.4515	2916.7725	5709.1	4814.9
1018.5667	2917.8831	5682.95	4790.55
1018.6819	2918.9931	5621.95	4729.05
1018.797	2920.1024	5597.3	4705.15
1018.9121	2921.211	5569.05	4677.7
1019.0271	2922.319	5525.15	4635.45
1019.1421	2923.4264	5510.4	4618.1
1019.2571	2924.5331	5495.6	4606.8
1019.372	2925.6391	5472.8	4584.45
1019.4869	2926.7445	5447	4556.5
1019.6017	2927.8493	5442.45	4549.7
1019.7165	2928.9534	5421.2	4528.05
1019.8313	2930.0569	5411.8	4518.45
1019.946	2931.1597	5391.45	4499.4
1020.0606	2932.2619	5378.45	4488.05
1020.1753	2933.3634	5358.75	4468.15
1020.2899	2934.4643	5365.35	4467.05
1020.4044	2935.5645	5319.2	4422.2
1020.5189	2936.6641	5275.3	4379.95
1020.6334	2937.763	5218.2	4328.45
1020.7478	2938.8613	5158.9	4267.7
1020.8622	2939.959	5104.8	4208.9
1020.9765	2941.056	5000.75	4111.6
1021.0908	2942.1523	4935.5	4043.1
1021.2051	2943.248	4836.95	3943.5
1021.3193	2944.3431	4729.6	3838.1
1021.4334	2945.4375	4608.9	3715.95
1021.5476	2946.5313	4520.5	3629.6
1021.6617	2947.6244	4393.1	3501.8
1021.7757	2948.7169	4282.8	3389.3
1021.8897	2949.8087	4183.75	3291.45
1022.0037	2950.8999	4091.4	3198.9
1022.1176	2951.9904	3991.7	3102.15
1022.2315	2953.0803	3916.55	3023.9
1022.3453	2954.1696	3840.1	2949.5
1022.4591	2955.2582	3795.05	2904.65
1022.5728	2956.3462	3736.15	2844
1022.6865	2957.4335	3676.35	2784.05
1022.8002	2958.5202	3644.9	2751.3
1022.9138	2959.6062	3586.95	2697
1023.0274	2960.6916	3563.75	2673.85
1023.141	2961.7764	3546.35	2654.8
1023.2545	2962.8605	3510.3	2619.3
1023.3679	2963.9439	3504.05	2613.55
1023.4813	2965.0267	3480.35	2588.05
1023.5947	2966.1089	3489.5	2575.5
1023.708	2967.1905	3450.75	2560.45
1023.8213	2968.2714	3437.55	2549.15
1023.9346	2969.3516	3444.2	2552.45
1024.0478	2970.4312	3448.4	2549.55
1024.1609	2971.5102	3424.6	2534.5
1024.274	2972.5885	3422.6	2532.35
1024.3871	2973.6662	3425.35	2530.9
1024.5002	2974.7432	3411	2521.45
1024.6132	2975.8196	3389.55	2498.35
1024.7261	2976.8954	3371.65	2481.2
1024.839	2977.9705	3346	2455.35
1024.9519	2979.045	3335.75	2445.65
1025.0647	2980.1188	3300.5	2409.95
1025.1775	2981.192	3280.05	2390.3
1025.2902	2982.2645	3247.75	2358.2
1025.4029	2983.3364	3223.4	2333.1
1025.5156	2984.4077	3189.25	2297.2
1025.6282	2985.4783	3173.75	2277.5
1025.7407	2986.5483	3124.4	2234.15
1025.8532	2987.6177	3075.2	2185.95
1025.9657	2988.6864	3038.9	2147.85
1026.0782	2989.7545	2991.5	2100.25
1026.1906	2990.8219	2958.7	2069.25
1026.3029	2991.8887	2928.5	2034.45
1026.4152	2992.9548	2890.2	2000.2
1026.5275	2994.0204	2854.2	1962.5
1026.6397	2995.0852	2824.85	1936.4
1026.7519	2996.1495	2793.45	1901.55
1026.864	2997.2131	2769.85	1878.9
1026.9761	2998.276	2735.75	1846.15
1027.0882	2999.3383	2710	1818.85
1027.2002	3000.4	2692.55	1800.9
1027.3122	3001.4611	2670.3	1778.65
1027.4241	3002.5215	2665.1	1775
1027.536	3003.5812	2635.55	1745.2
1027.6478	3004.6404	2614.05	1724.95
1027.7596	3005.6989	2596.15	1703.55
1027.8714	3006.7567	2578.65	1686.7
1027.9831	3007.8139	2603.75	1690
1028.0947	3008.8705	2561.55	1670.7
1028.2064	3009.9264	2576.1	1669.65
1028.3179	3010.9818	2547.55	1656.1
1028.4295	3012.0364	2545.1	1655.15
1028.541	3013.0905	2531.3	1638.75
1028.6524	3014.1439	2519.1	1629.15
1028.7638	3015.1966	2514.9	1624.5
1028.8752	3016.2487	2505.5	1613
1028.9865	3017.3002	2511.65	1613.95
1029.0978	3018.3511	2492.35	1601.1
1029.209	3019.4013	2500.55	1610.35
1029.3202	3020.4509	2490.5	1600.1
1029.4314	3021.4998	2488.9	1599.65
1029.5425	3022.5481	2476.7	1585.75
1029.6535	3023.5958	2474.75	1583.35
1029.7645	3024.6428	2475.95	1584.8
1029.8755	3025.6892	2473.05	1584
1029.9864	3026.735	2475.05	1583.75
1030.0973	3027.7802	2459.9	1568.55
1030.2082	3028.8247	2459.85	1569.9
1030.319	3029.8685	2455.45	1564.95
1030.4297	3030.9118	2452.9	1562.6
1030.5404	3031.9544	2461.1	1571.8
1030.6511	3032.9963	2456.6	1566.65
1030.7617	3034.0376	2451.15	1560.1
1030.8723	3035.0783	2459.55	1566.1
1030.9829	3036.1184	2443.55	1549.8
1031.0934	3037.1578	2464.45	1575.45
1031.2038	3038.1966	2456.8	1564.75
1031.3142	3039.2348	2442.2	1551.55
1031.4246	3040.2723	2441.7	1543.15
1031.5349	3041.3092	2437.3	1547.65
1031.6452	3042.3455	2427.75	1537.2
1031.7554	3043.3811	2415.6	1525.9
1031.8656	3044.4161	2415.5	1523.7
1031.9758	3045.4505	2397.2	1508.6
1032.0859	3046.4842	2393.45	1501.7
1032.1959	3047.5173	2376.85	1486.9
1032.3059	3048.5498	2366.95	1475.8
1032.4159	3049.5816	2350.55	1459.3
1032.5258	3050.6128	2340.8	1450.65
1032.6357	3051.6434	2336.35	1444
1032.7455	3052.6734	2323.45	1432.35
1032.8553	3053.7027	2323.4	1432.8
1032.9651	3054.7314	2312.85	1423.9
1033.0748	3055.7594	2297.75	1409.05
1033.1845	3056.7868	2296.65	1405.6
1033.2941	3057.8136	2286.45	1394.65
1033.4037	3058.8398	2265.55	1376.65
1033.5132	3059.8653	2262.1	1371.5
1033.6227	3060.8902	2247.75	1359
1033.7321	3061.9145	2239.75	1349.95
1033.8415	3062.9381	2233.95	1344.2
1033.9509	3063.9612	2236.85	1331.05
1034.0602	3064.9835	2211.6	1321.35
1034.1694	3066.0053	2200.65	1308.2
1034.2787	3067.0264	2197.35	1307.7
1034.3878	3068.0469	2181.35	1288.2
1034.497	3069.0668	2172.45	1278.25
1034.6061	3070.086	2147.3	1258.7
1034.7151	3071.1046	2147.1	1257.5
1034.8241	3072.1226	2128.95	1239.8
1034.9331	3073.1399	2124.85	1234.8
1035.042	3074.1567	2093.8	1204.2
1035.1508	3075.1727	2093.95	1201.4
1035.2597	3076.1882	2081	1189.7
1035.3684	3077.203	2066.6	1175.05
1035.4772	3078.2173	2053.85	1160.15
1035.5859	3079.2308	2051.6	1156.9
1035.6945	3080.2438	2032.55	1139.7
1035.8031	3081.2561	2023.6	1134.35
1035.9117	3082.2678	2005.9	1117.75
1036.0202	3083.2789	2011.4	1121
1036.1286	3084.2893	1991.25	1102.2
1036.2371	3085.2991	1986.5	1096.3
1036.3454	3086.3083	1970.45	1074.15
1036.4538	3087.3169	1965	1073.2
1036.562	3088.3248	1960.85	1068.45
1036.6703	3089.3321	1950.75	1058.35
1036.7785	3090.3388	1936.6	1047.25
1036.8866	3091.3449	1924.85	1033.95
1036.9948	3092.3503	1925.1	1032.05
1037.1028	3093.3551	1916.15	1026.15
1037.2108	3094.3593	1911.55	1020.95
1037.3188	3095.3629	1907.8	1019.2
1037.4267	3096.3658	1910.95	1018.2
1037.5346	3097.3681	1891.85	1001.9
1037.6425	3098.3698	1879.8	988.15
1037.7503	3099.3708	1874.75	978.7
1037.858	3100.3713	1872.05	981.35
1037.9657	3101.3711	1860	970.75
1038.0734	3102.3702	1964.4	959.75
1038.181	3103.3688	1855.9	964
1038.2886	3104.3667	1836.4	946.1
1038.3961	3105.364	1838.45	949.85
1038.5036	3106.3607	1832.55	941.95
1038.611	3107.3568	1822.3	930.7
1038.7184	3108.3522	1824	934
1038.8257	3109.347	1803.2	912.3
1038.933	3110.3412	1815.25	922.1
1039.0403	3111.3348	1795.25	903.5
1039.1475	3112.3277	1794.65	904.9
1039.2547	3113.32	1789.65	901.1
1039.3618	3114.3117	1787	897.95
1039.4689	3115.3028	1776.9	886.05
1039.5759	3116.2932	1785.3	891.45
1039.6829	3117.2831	1767.25	870.9
1039.7898	3118.2723	1767.05	877.45
1039.8967	3119.2608	1754.2	863.75
1040.0035	3120.2488	1759.8	870.5
1040.1103	3121.2361	1750.5	860.65
1040.2171	3122.2229	1741.1	850.25
1040.3238	3123.209	1741.9	849.35
1040.4305	3124.1944	1743.85	852.1
1040.5371	3125.1793	1735.1	844.45
1040.6437	3126.1635	1734.4	846.5
1040.7502	3127.1471	1714.1	824.05
1040.8567	3128.1301	1713.15	822.85
1040.9631	3129.1125	1703.4	812.25
1041.0695	3130.0942	1709.8	819.15
1041.1759	3131.0753	1712.2	812
1041.2822	3132.0558	1702.8	810.7
1041.3884	3133.0357	1696.3	806.1
1041.4946	3134.015	1693.1	802.2
1041.6008	3134.9936	1683.35	793.05
1041.7069	3135.9716	1702.55	791.15
1041.813	3136.949	1676.95	785.45
1041.919	3137.9258	1684.2	788.45
1042.025	3138.902	1684.7	789.45
1042.1309	3139.8775	1667.05	776.8
1042.2368	3140.8524	1663.15	772.9
1042.3427	3141.8267	1657.25	764.7
1042.4485	3142.8004	1661.9	770.85
1042.5542	3143.7735	1656.9	761.35
1042.6599	3144.7459	1651.15	760.15
1042.7656	3145.7178	1653.95	762.8
1042.8712	3146.689	1647.45	758.85
1042.9768	3147.6596	1636.05	745.2
1043.0823	3148.6295	1632.95	743.6
1043.1878	3149.5989	1632.75	743.4
1043.2932	3150.5676	1619.8	730.85
1043.3986	3151.5357	1616.5	726.35
1043.5039	3152.5032	1622.55	730.85
1043.6092	3153.4701	1611.95	722.75
1043.7145	3154.4364	1607.9	715.9
1043.8197	3155.402	1605.6	716.1
1043.9248	3156.367	1604.7	712.55
1044.03	3157.3315	1637.35	711.5
1044.135	3158.2952	1589.15	699.35
1044.24	3159.2584	1585.45	694.75
1044.345	3160.221	1586.5	695.05
1044.4499	3161.1829	1575.9	684
1044.5548	3162.1442	1577.15	686.95
1044.6596	3163.105	1567.4	678.5
1044.7644	3164.065	1567.55	677.25
1044.8692	3165.0245	1566.95	672.8
1044.9739	3165.9834	1556.75	668.5
1045.0785	3166.9416	1556.05	667.75
1045.1831	3167.8993	1550.7	661.05
1045.2877	3168.8563	1544.3	653.4
1045.3922	3169.8127	1543.2	654.8
1045.4966	3170.7684	1538.1	645.95
1045.6011	3171.7236	1540.35	648.05
1045.7054	3172.6782	1531.8	640.6
1045.8098	3173.6321	1522.9	631.5
1045.914	3174.5854	1521.25	628.6
1046.0183	3175.5381	1525.25	635.4
1046.1224	3176.4902	1513.7	623.35
1046.2266	3177.4417	1515.3	626.05
1046.3307	3178.3926	1504.25	615.75
1046.4347	3179.3428	1509.75	621.6
1046.5387	3180.2924	1506.4	616.7
1046.6427	3181.2415	1504.55	613.95
1046.7466	3182.1899	1498.15	606.7
1046.8504	3183.1377	1495.45	606.8
1046.9542	3184.0848	1496.75	604
1047.058	3185.0314	1491.85	602.95
1047.1617	3185.9773	1478.05	586.6
1047.2654	3186.9227	1481.45	590.1
1047.369	3187.8674	1478.5	589.55
1047.4726	3188.8115	1473.3	578.2
1047.5761	3189.755	1479.45	589.45
1047.6796	3190.6979	1473.4	583.55
1047.783	3191.6402	1468	579.8
1047.8864	3192.5818	1466.95	577.1
1047.9898	3193.5229	1481.35	568.35
1048.0931	3194.4633	1467.65	577.95
1048.1963	3195.4031	1459.95	569.35
1048.2995	3196.3423	1451.75	563.7
1048.4027	3197.2809	1446.1	555.65
1048.5058	3198.2189	1453.2	561.5
1048.6089	3199.1563	1460.65	553.55
1048.7119	3200.0931	1446.6	556.65
1048.8148	3201.0292	1436.75	548.9
1048.9178	3201.9648	1432.8	542.25
1049.0206	3202.8997	1434.1	540.7
1049.1235	3203.834	1422.65	532.75
1049.2262	3204.7677	1432.15	543.3
1049.329	3205.7008	1428	537
1049.4317	3206.6333	1421.7	533
1049.5343	3207.5652	1419.5	528.8
1049.6369	3208.4964	1422	534.05
1049.7394	3209.4271	1415.85	526.25
1049.8419	3210.3571	1412.65	523.2
1049.9444	3211.2865	1404.8	514.4
1050.0468	3212.2154	1402.6	511.75
1050.1491	3213.1436	1403.2	511.3
1050.2514	3214.0712	1406	508.5
1050.3537	3214.9982	1397.85	507.4
1050.4559	3215.9246	1393.45	502.65
1050.5581	3216.8503	1395.6	506.65
1050.6602	3217.7755	1389	499.75
1050.7623	3218.7001	1385.35	496.45
1050.8643	3219.624	1385.9	496.85
1050.9663	3220.5473	1384.95	493.85
1051.0682	3221.4701	1377.3	484.95
1051.1701	3222.3922	1381.8	491.15
1051.2719	3223.3137	1372.3	483.3
1051.3737	3224.2346	1376.25	487.55
1051.4754	3225.1549	1375	486.9
1051.5771	3226.0746	1371.3	480.45
1051.6788	3226.9937	1369.2	479.15
1051.7804	3227.9121	1356.8	467.05
1051.8819	3228.83	1359.2	468.25
1051.9834	3229.7473	1357.95	469.1
1052.0849	3230.6639	1354.1	464.4
1052.1863	3231.5799	1346.55	456.95
1052.2876	3232.4954	1355.1	464.7
1052.3889	3233.4102	1351	460.5
1052.4902	3234.3244	1344.6	452.65
1052.5914	3235.238	1336	445.35
1052.6926	3236.151	1369.65	456.45
1052.7937	3237.0634	1327	436.8
1052.8948	3237.9752	1337.05	446
1052.9958	3238.8864	1328.9	438.6
1053.0968	3239.797	1323.6	433
1053.1977	3240.7069	1328.25	438.3
1053.2986	3241.6163	1321.9	430.9
1053.3994	3242.5251	1315.6	427.45
1053.5002	3243.4332	1322.05	432.7
1053.6009	3244.3408	1314.1	423.3
1053.7016	3245.2477	1311.55	420.95
1053.8022	3246.154	1306.4	416.95
1053.9028	3247.0598	1301.5	411.1
1054.0034	3247.9649	1300.8	410.7
1054.1039	3248.8694	1303.75	412.55
1054.2043	3249.7733	1300	410.75
1054.3047	3250.6766	1298.4	407.6
1054.4051	3251.5793	1294.55	405.55
1054.5054	3252.4814	1288.05	399.75
1054.6056	3253.3829	1283.65	394.1
1054.7058	3254.2838	1285.75	395.8
1054.806	3255.1841	1282.4	393.5
1054.9061	3256.0838	1275.95	384.7
1055.0061	3256.9829	1276	387.65
1055.1062	3257.8814	1279.4	387.35
1055.2061	3258.7792	1273.5	381.3
1055.306	3259.6765	1266.65	375.85
1055.4059	3260.5731	1262.7	372.65
1055.5057	3261.4692	1257.25	367
1055.6055	3262.3647	1255.2	363.6
1055.7052	3263.2595	1250.25	360.4
1055.8049	3264.1538	1247.65	358
1055.9045	3265.0474	1242.05	354.5
1056.0041	3265.9404	1226	335.75
1056.1036	3266.8329	1221.85	333.8
1056.2031	3267.7247	1231.85	332.3
1056.3025	3268.616	1213.75	325
1056.4019	3269.5066	1203.55	315.25
1056.5013	3270.3966	1198.6	306.9
1056.6005	3271.286	1189.9	303.3
