Software Version:	3.9.2.0
Unit SN:	10000200
Spectrometer SN:	6960
Date:	3/6/2024 10:38:30 AM
Data Line Index:	25
Spectral Points:	2048
Integration time (ms):	125
Averages:	20
Delay (ms):	30
Sequence Number:	1
Processing:	dark subtract
Laser Power (mW):	305
Laser Current (mA):	823
Laser Diode Temp (C):	25.1
Laser Case Temp (C):	26.8
System Temp (C):	26.6
Spectrometer Temp (C):	24
CCD Temp (C):	0.004
Secondary Temp (C):	20.007
Heatsink Temp (C):	22.191
CCDPCB Temp (C):	36.296
SecondaryPCB Temp (C):	32.138

Wavelength	RamanShift	Raw Counts	Dark Subtracted
787.061	30.1047	1161.5	747.55
787.2016	32.3739	1192.65	779.1
787.3422	34.6426	1234.45	819.4
787.4828	36.9109	1282.6	868.05
787.6235	39.1787	1349.2	930.75
787.7642	41.4461	1413.75	989.3
787.9049	43.7131	1475.45	1048
788.0456	45.9796	1542.7	1112
788.1863	48.2456	1606.7	1173.3
788.3271	50.5112	1687.75	1250.75
788.4679	52.7764	1756.3	1318.4
788.6087	55.0411	1837.1	1394.2
788.7496	57.3054	1921.05	1473.2
788.8904	59.5692	2018.7	1567.5
789.0313	61.8326	2123.25	1669.15
789.1722	64.0955	2230.8	1771.9
789.3132	66.3579	2362.7	1898.15
789.4541	68.6199	2530.75	2065.4
789.5951	70.8815	2789.2	2321.95
789.7361	73.1426	3324.45	2849.65
789.8771	75.4032	4707.35	4231.75
790.0181	77.6634	8229.95	7745.95
790.1592	79.9231	17711.25	17221.4
790.3003	82.1824	57713.55	57212.7
790.4414	84.4412	65535	65013.6
790.5825	86.6995	65535	64987.7
790.7237	88.9574	65535	64958.55
790.8648	91.2148	65535	64936.6
791.006	93.4717	65535	64925.1
791.1472	95.7282	65535	64921.65
791.2885	97.9842	65535	64915.8
791.4297	100.2398	65535	64911.5
791.571	102.4949	65535	64914.1
791.7123	104.7495	65535	64910.95
791.8536	107.0036	65535	64907.3
791.9949	109.2573	65535	64908.9
792.1363	111.5105	65535	64903.6
792.2777	113.7632	65535	64906.2
792.4191	116.0154	65535	64898.05
792.5605	118.2672	65535	64900.5
792.7019	120.5185	65535	64899.95
792.8434	122.7693	65535	64894.45
792.9849	125.0197	65535	64889.3
793.1264	127.2696	65535	64888.85
793.2679	129.519	65535	64887.6
793.4094	131.7679	65535	64882.9
793.551	134.0163	65535	64876.9
793.6926	136.2642	65535	64873.8
793.8342	138.5117	65535	64868.05
793.9758	140.7587	65535	64874.35
794.1175	143.0052	65535	64869.3
794.2591	145.2512	65535	64871.85
794.4008	147.4967	65535	64867.05
794.5425	149.7417	65535	64864.4
794.6842	151.9863	65535	64860.65
794.826	154.2304	65535	64859.5
794.9677	156.4739	65535	64851.55
795.1095	158.717	65535	64852.65
795.2513	160.9596	65535	64851.45
795.3931	163.2017	65535	64843.75
795.535	165.4433	65535	64847.1
795.6768	167.6844	65535	64844
795.8187	169.925	65535	64840.25
795.9606	172.1651	65535	64837.4
796.1025	174.4047	65535	64833.6
796.2445	176.6439	65535	64832.45
796.3864	178.8825	65535	64827.35
796.5284	181.1206	65535	64825.95
796.6704	183.3582	65535	64823.15
796.8124	185.5954	65535	64820
796.9544	187.832	65535	64820.2
797.0965	190.0681	65535	64817.75
797.2386	192.3037	65535	64812.1
797.3806	194.5388	65535	64811.35
797.5228	196.7734	65535	64805.25
797.6649	199.0075	65535	64804.15
797.807	201.2411	65535	64801.55
797.9492	203.4742	65535	64804.4
798.0914	205.7068	65535	64801.25
798.2336	207.9389	65535	64798.7
798.3758	210.1704	65535	64793.5
798.518	212.4015	65535	64793.5
798.6603	214.632	65535	64800.9
798.8025	216.862	65535	64814.4
798.9448	219.0915	65535	64810.05
799.0871	221.3205	65535	64812.35
799.2294	223.549	65535	64818.35
799.3718	225.777	65535	64818.35
799.5141	228.0044	65535	64812.2
799.6565	230.2314	65535	64815.35
799.7989	232.4578	65535	64810.9
799.9413	234.6837	65535	64803.75
800.0837	236.909	65535	64800.55
800.2262	239.1339	65535	64775.6
800.3687	241.3582	65535	64790.85
800.5111	243.582	65535	64759.2
800.6536	245.8053	65535	64773.05
800.7961	248.0281	65535	64777.5
800.9387	250.2503	65535	64775.55
801.0812	252.472	65535	64771.7
801.2238	254.6932	65535	64767.8
801.3664	256.9139	65535	64769.35
801.509	259.134	65535	64767.85
801.6516	261.3536	65535	64769.05
801.7942	263.5727	65535	64760.7
801.9369	265.7912	65535	64765.65
802.0795	268.0092	65535	64767.75
802.2222	270.2267	65535	64764.3
802.3649	272.4436	65535	64764.25
802.5076	274.6601	65535	64757.7
802.6504	276.8759	65535	64761.75
802.7931	279.0913	65535	64754.7
802.9359	281.3061	65535	64752.95
803.0787	283.5204	65535	64752.45
803.2215	285.7341	65535	64752.6
803.3643	287.9473	65535	64736.2
803.5071	290.16	65535	64745.95
803.6499	292.3721	65535	64749.15
803.7928	294.5837	65535	64749.6
803.9357	296.7947	65535	64752.65
804.0786	299.0052	65535	64749.35
804.2215	301.2152	65535	64745.6
804.3644	303.4246	65535	64751.55
804.5074	305.6334	65535	64745.6
804.6503	307.8418	65535	64745.65
804.7933	310.0495	65535	64739.4
804.9363	312.2568	65535	64743.45
805.0793	314.4635	65535	64743.4
805.2223	316.6696	65535	64741.05
805.3653	318.8752	65535	64732.15
805.5084	321.0802	65535	64740.3
805.6514	323.2847	65535	64740.95
805.7945	325.4887	65535	64735.2
805.9376	327.692	65535	64734.05
806.0807	329.8949	65535	64734.1
806.2238	332.0972	65535	64731.85
806.367	334.2989	65535	64732.4
806.5101	336.5001	65535	64728.4
806.6533	338.7007	65535	64730.5
806.7965	340.9008	65535	64731.9
806.9397	343.1003	65535	64726.3
807.0829	345.2992	65535	64722.6
807.2261	347.4976	65535	64723.95
807.3693	349.6955	65535	64721.6
807.5126	351.8927	65535	64718.45
807.6559	354.0895	65535	64709.45
807.7991	356.2856	65535	64720.2
807.9424	358.4812	65535	64723.5
808.0857	360.6763	65535	64721.05
808.2291	362.8707	65535	64714.95
808.3724	365.0646	65535	64710
808.5158	367.258	65535	64710.6
808.6591	369.4508	65535	64708.9
808.8025	371.643	65535	64709.5
808.9459	373.8346	65535	64703.65
809.0893	376.0257	65535	64703.3
809.2327	378.2162	65535	64704.35
809.3762	380.4062	65535	64705.6
809.5196	382.5956	65535	64700.9
809.6631	384.7844	65535	64706.25
809.8066	386.9726	65535	64702.4
809.9501	389.1603	65535	64707.25
810.0936	391.3474	65535	64663.4
810.2371	393.5339	65535	64708.25
810.3806	395.7199	65535	64712.5
810.5241	397.9052	65535	64707.15
810.6677	400.09	65535	64712.05
810.8113	402.2743	65535	64709.3
810.9548	404.4579	65535	64713.2
811.0984	406.641	65535	64706
811.2421	408.8235	65535	64704.85
811.3857	411.0054	65535	64705.85
811.5293	413.1868	65535	64703.3
811.673	415.3675	65535	64700.9
811.8166	417.5477	65535	64699.55
811.9603	419.7273	65535	64695.4
812.104	421.9064	65535	64690.75
812.2477	424.0848	65535	64694.75
812.3914	426.2627	65535	64694.7
812.5351	428.4399	65535	64693.6
812.6788	430.6166	65535	64685.55
812.8226	432.7928	65535	64686.5
812.9663	434.9683	65535	64686.6
813.1101	437.1432	65535	64685.05
813.2539	439.3176	65535	64681.55
813.3977	441.4914	65535	64686.7
813.5415	443.6645	65535	64689.1
813.6853	445.8371	65535	64684.55
813.8291	448.0091	65535	64684.55
813.973	450.1806	65535	64687.2
814.1168	452.3514	65535	64681.4
814.2607	454.5216	65535	64675.95
814.4046	456.6913	65535	64683.05
814.5485	458.8603	65535	64684.95
814.6924	461.0288	65535	64685.5
814.8363	463.1967	65535	64685.2
814.9802	465.3639	65535	64681.5
815.1241	467.5306	65535	64681.35
815.2681	469.6967	65535	64682.05
815.412	471.8622	65535	64684.35
815.556	474.0271	65535	64685.6
815.7	476.1914	65535	64678.9
815.844	478.3551	65535	64678.95
815.988	480.5182	65535	64682.05
816.132	482.6807	65535	64678.75
816.276	484.8426	65535	64683.75
816.4201	487.0039	65535	64681.65
816.5641	489.1647	65535	64677.95
816.7082	491.3248	65535	64678.1
816.8522	493.4843	65535	64679.9
816.9963	495.6432	65535	64676.85
817.1404	497.8015	65535	64674.65
817.2845	499.9592	65535	64676.85
817.4286	502.1163	65535	64671.6
817.5727	504.2728	65535	64672.95
817.7168	506.4287	65535	64677.05
817.861	508.5839	65535	64676.35
818.0051	510.7386	65535	64674.25
818.1493	512.8927	65535	64670.1
818.2935	515.0461	65535	64670.45
818.4377	517.199	65535	64668.65
818.5818	519.3512	65535	64672
818.726	521.5029	65535	64664.55
818.8703	523.6539	65535	64670.45
819.0145	525.8043	65535	64668.8
819.1587	527.9541	65535	64664.25
819.303	530.1033	65535	64667.4
819.4472	532.2519	65535	64666.7
819.5915	534.3999	65535	64660.35
819.7357	536.5472	65535	64664.25
819.88	538.694	65535	64669.55
820.0243	540.8401	65535	64660.2
820.1686	542.9856	65535	64658.4
820.3129	545.1305	65535	64659.05
820.4572	547.2748	65535	64658.45
820.6016	549.4185	65535	64657.2
820.7459	551.5615	65535	64660.25
820.8902	553.704	65535	64662.4
821.0346	555.8458	65535	64663.45
821.1789	557.987	65535	64662.8
821.3233	560.1276	65535	64660.6
821.4677	562.2675	65535	64662.85
821.6121	564.4069	65535	64665.05
821.7565	566.5456	65535	64663.4
821.9009	568.6837	65535	64663.75
822.0453	570.8212	65535	64664.8
822.1897	572.958	65535	64659.75
822.3342	575.0942	65535	64664.55
822.4786	577.2299	65535	64662.85
822.6231	579.3648	65535	64663.4
822.7675	581.4992	65535	64663.35
822.912	583.6329	65535	64666.5
823.0565	585.766	65535	64666.2
823.201	587.8985	65535	64660.4
823.3454	590.0304	65535	64637.4
823.4899	592.1616	65535	64656.5
823.6345	594.2922	65535	64657.85
823.779	596.4222	65535	64654.95
823.9235	598.5515	65535	64655.05
824.068	600.6802	65535	64654.35
824.2126	602.8083	65535	64656.4
824.3571	604.9358	65535	64652.95
824.5017	607.0626	65535	64656.85
824.6462	609.1888	65535	64656.4
824.7908	611.3144	65535	64656.1
824.9354	613.4393	65535	64656.5
825.08	615.5636	65535	64653.25
825.2246	617.6873	65535	64654.55
825.3692	619.8103	65535	64651.05
825.5138	621.9327	65535	64650
825.6584	624.0544	65535	64655.6
825.803	626.1756	65535	64652.8
825.9477	628.2961	65535	64652.75
826.0923	630.4159	65535	64654.1
826.237	632.5351	65535	64651.95
826.3816	634.6537	65535	64649.5
826.5263	636.7716	65535	64650.65
826.6709	638.8889	65535	64651.3
826.8156	641.0056	65535	64649.6
826.9603	643.1216	65535	64649.7
827.105	645.237	65535	64647.15
827.2497	647.3518	65535	64651.3
827.3944	649.4659	65535	64649.8
827.5391	651.5793	65535	64651.95
827.6838	653.6922	65535	64653.5
827.8285	655.8043	65535	64650.25
827.9733	657.9159	65535	64647.25
828.118	660.0268	65535	64645.4
828.2627	662.137	65535	64648.1
828.4075	664.2466	65535	64646.85
828.5522	666.3556	65535	64648.3
828.697	668.4639	65535	64645.4
828.8418	670.5716	65535	64652.5
828.9865	672.6786	65535	64649.25
829.1313	674.785	65535	64646.45
829.2761	676.8907	65535	64645.5
829.4209	678.9958	65535	64647.6
829.5657	681.1002	65535	64641.45
829.7105	683.204	65535	64642.45
829.8553	685.3072	65535	64645.55
830.0001	687.4097	65535	64648.5
830.1449	689.5115	65535	64643.8
830.2898	691.6127	65535	64646.1
830.4346	693.7132	65535	64646.9
830.5794	695.8131	65535	64637
830.7243	697.9123	65535	64640.6
830.8691	700.0109	65535	64641.65
831.014	702.1089	65535	64645
831.1588	704.2061	65535	64643.15
831.3037	706.3028	65535	64643.8
831.4486	708.3987	65535	64644.65
831.5935	710.4941	65535	64642.05
831.7383	712.5887	65535	64642.55
831.8832	714.6827	65535	64638.7
832.0281	716.7761	65535	64644.8
832.173	718.8688	65535	64640.6
832.3179	720.9608	65535	64639.45
832.4628	723.0522	65535	64637.5
832.6077	725.1429	65535	64638.95
832.7527	727.233	65535	64641.1
832.8976	729.3224	65535	64640.35
833.0425	731.4112	65535	64640.8
833.1874	733.4993	65535	64638.65
833.3324	735.5867	65535	64639.2
833.4773	737.6735	65535	64637.3
833.6222	739.7596	65535	64638.55
833.7672	741.845	65535	64640.5
833.9122	743.9298	65535	64639.9
834.0571	746.014	65535	64638.55
834.2021	748.0974	65535	64636.35
834.347	750.1802	65535	64638.95
834.492	752.2624	65535	64635.35
834.637	754.3439	65535	64638.2
834.782	756.4247	65535	64629
834.9269	758.5048	65535	64640.85
835.0719	760.5843	65535	64635
835.2169	762.6631	65535	64638.7
835.3619	764.7413	65535	64641.7
835.5069	766.8188	65535	64636.9
835.6519	768.8956	65535	64638.85
835.7969	770.9718	65535	64637.45
835.9419	773.0473	65535	64637.05
836.0869	775.1221	65535	64639.25
836.232	777.1962	65535	64638.7
836.377	779.2697	65535	64635.85
836.522	781.3426	65535	64618.1
836.667	783.4147	65535	64633
836.8121	785.4862	65535	64636.25
836.9571	787.557	65535	64635.1
837.1021	789.6271	65535	64637.85
837.2472	791.6966	65535	64634.4
837.3922	793.7654	65535	64636.55
837.5373	795.8335	65535	64637.25
837.6823	797.901	65535	64636.75
837.8274	799.9678	65535	64635.35
837.9724	802.0339	65535	64638.65
838.1175	804.0993	65535	64626.85
838.2626	806.1641	65535	64634.15
838.4076	808.2282	65535	64637
838.5527	810.2916	65535	64635
838.6978	812.3544	65535	64636.95
838.8428	814.4164	65535	64637.85
838.9879	816.4778	65535	64635.3
839.133	818.5385	65535	64634
839.2781	820.5986	65535	64633.9
839.4232	822.658	65535	64633.5
839.5682	824.7166	65535	64632.75
839.7133	826.7747	65535	64634.9
839.8584	828.832	65535	64634.6
840.0035	830.8886	65535	64634.15
840.1486	832.9446	65535	64634.95
840.2937	834.9999	65535	64636.35
840.4388	837.0545	65535	64631.9
840.5839	839.1085	65535	64634
840.729	841.1618	65535	64628.7
840.8741	843.2143	65535	64635.3
841.0192	845.2662	65535	64630.55
841.1643	847.3175	65535	64637.55
841.3095	849.368	65535	64636.8
841.4546	851.4179	65535	64632.4
841.5997	853.467	65535	64632.2
841.7448	855.5155	65535	64631.75
841.8899	857.5633	65535	64633.1
842.0351	859.6105	65535	64633.4
842.1802	861.6569	65535	64632.85
842.3253	863.7027	65535	64628.05
842.4704	865.7478	65535	64633.25
842.6156	867.7922	65535	64632.45
842.7607	869.8359	65535	64630.3
842.9058	871.8789	65535	64631.45
843.0509	873.9212	65535	64600.7
843.1961	875.9629	65535	64632.75
843.3412	878.0039	65535	64629.65
843.4863	880.0441	65535	64633.55
843.6315	882.0837	65535	64630.75
843.7766	884.1226	65535	64630.45
843.9218	886.1609	65535	64634.1
844.0669	888.1984	65535	64631.6
844.212	890.2352	65535	64635.2
844.3572	892.2714	65535	64629.15
844.5023	894.3069	65535	64631.4
844.6475	896.3416	65535	64631.05
844.7926	898.3757	65535	64628.7
844.9377	900.4091	65535	64629.35
845.0829	902.4418	65535	64624.55
845.228	904.4739	65535	64627.9
845.3732	906.5052	65535	64629.8
845.5183	908.5358	65535	64628.8
845.6635	910.5658	65535	64630.65
845.8086	912.595	65535	64631.05
845.9538	914.6236	65535	64632.15
846.0989	916.6515	65535	64633.55
846.2441	918.6786	65535	64628.2
846.3892	920.7051	65535	64627.15
846.5344	922.7309	65535	64631.65
846.6795	924.756	65535	64631.3
846.8246	926.7804	65535	64627.4
846.9698	928.8041	65535	64625.6
847.1149	930.8272	65535	64628.2
847.2601	932.8495	65535	64631.15
847.4052	934.8711	65535	64629.15
847.5504	936.892	65535	64634
847.6955	938.9123	65535	64628.55
847.8407	940.9318	65535	64631.35
847.9858	942.9506	65535	64630.65
848.131	944.9688	65535	64629.55
848.2761	946.9862	65535	64631.9
848.4213	949.003	65535	64627.35
848.5664	951.019	65535	64629.25
848.7115	953.0344	65535	64630.4
848.8567	955.0491	65535	64627.9
849.0018	957.063	65535	64630.65
849.147	959.0763	65535	64630.25
849.2921	961.0888	65535	64628.55
849.4373	963.1007	65535	64631.55
849.5824	965.1119	65535	64629.75
849.7275	967.1223	65535	64633.15
849.8727	969.1321	65535	64630.55
850.0178	971.1412	65535	64635.4
850.1629	973.1495	65535	64630.85
850.3081	975.1572	65535	64580.95
850.4532	977.1641	65535	64629
850.5983	979.1704	65535	64630.05
850.7435	981.1759	65535	64625.8
850.8886	983.1808	65535	64626.1
851.0337	985.1849	65535	64619.7
851.1788	987.1884	65535	64628.35
851.324	989.1911	65535	64627.5
851.4691	991.1932	65535	64628.25
851.6142	993.1945	65535	64632.25
851.7593	995.1951	65535	64630.1
851.9045	997.1951	65535	64623.95
852.0496	999.1943	65535	64629.55
852.1947	1001.1928	65535	64625.15
852.3398	1003.1906	65535	64628.05
852.4849	1005.1877	65535	64626.95
852.63	1007.1841	65535	64632.3
852.7751	1009.1798	65535	64629
852.9202	1011.1748	65535	64631
853.0653	1013.1691	65535	64626.85
853.2104	1015.1627	65535	64631.05
853.3555	1017.1556	65535	64632.2
853.5006	1019.1477	65535	64630.3
853.6457	1021.1392	65535	64628.25
853.7908	1023.1299	65535	64630.65
853.9359	1025.12	65535	64630.7
854.081	1027.1093	65535	64634.55
854.2261	1029.0979	65535	64635.55
854.3712	1031.0859	65535	64634.25
854.5163	1033.0731	65535	64632.1
854.6613	1035.0596	65535	64630.85
854.8064	1037.0454	65535	64628.45
854.9515	1039.0304	65535	64632.9
855.0965	1041.0148	65535	64629.75
855.2416	1042.9985	65535	64630.4
855.3867	1044.9814	65535	64631.75
855.5317	1046.9636	65535	64630.5
855.6768	1048.9452	65535	64633.05
855.8219	1050.926	65535	64631.05
855.9669	1052.9061	65535	64631.55
856.112	1054.8855	65535	64631.1
856.257	1056.8642	65535	64628.8
856.4021	1058.8421	65535	64626.55
856.5471	1060.8194	65535	64627.2
856.6921	1062.7959	65535	64631.1
856.8372	1064.7717	65535	64629.9
856.9822	1066.7469	65535	64626.25
857.1272	1068.7213	65535	64630.6
857.2723	1070.695	65535	64628.75
857.4173	1072.6679	65535	64630.25
857.5623	1074.6402	65535	64628.9
857.7073	1076.6117	65535	64623.35
857.8523	1078.5826	65535	64629.65
857.9973	1080.5527	65535	64625.35
858.1423	1082.5221	65535	64628.4
858.2873	1084.4908	65535	64628.7
858.4323	1086.4587	65535	64628.15
858.5773	1088.426	65535	64630.35
858.7223	1090.3925	65535	64624.6
858.8673	1092.3584	65535	64631.7
859.0123	1094.3235	65535	64631
859.1573	1096.2879	65535	64628.5
859.3022	1098.2515	65535	64630.55
859.4472	1100.2145	65535	64629.95
859.5922	1102.1767	65535	64624.1
859.7371	1104.1382	65535	64628.75
859.8821	1106.099	65535	64628.75
860.027	1108.0591	65535	64632.15
860.172	1110.0185	65535	64627.9
860.3169	1111.9771	65535	64631
860.4619	1113.9351	65535	64629.4
860.6068	1115.8923	65535	64630.1
860.7517	1117.8488	65535	64627.75
860.8967	1119.8045	65535	64631.3
861.0416	1121.7596	65535	64630.95
861.1865	1123.7139	65535	64630.3
861.3314	1125.6675	65535	64628.8
861.4763	1127.6204	65535	64632.3
861.6212	1129.5726	65535	64627.65
861.7661	1131.524	65535	64629.8
861.911	1133.4748	65535	64629.35
862.0559	1135.4248	65535	64627.9
862.2008	1137.3741	65535	64630.3
862.3457	1139.3226	65535	64628.65
862.4905	1141.2705	65535	64628.25
862.6354	1143.2176	65535	64622
862.7803	1145.164	65535	64627.95
862.9251	1147.1097	65535	64630.5
863.07	1149.0546	65535	64629.15
863.2148	1150.9989	65535	64630.15
863.3597	1152.9424	65535	64630.35
863.5045	1154.8852	65535	64629.7
863.6493	1156.8272	65535	64632.5
863.7942	1158.7686	65535	64623.4
863.939	1160.7092	65535	64628.2
864.0838	1162.6491	65535	64628.4
864.2286	1164.5883	65535	64627
864.3734	1166.5267	65535	64628
864.5182	1168.4644	65535	64630.3
864.663	1170.4014	65535	64624.75
864.8078	1172.3377	65535	64632
864.9526	1174.2732	65535	64633.6
865.0974	1176.2081	65535	64630.05
865.2421	1178.1421	65535	64627.85
865.3869	1180.0755	65535	64627.5
865.5317	1182.0082	65535	64631.55
865.6764	1183.9401	65535	64629.9
865.8212	1185.8713	65535	64632.6
865.9659	1187.8017	65535	64631.55
866.1106	1189.7315	65535	64634.65
866.2554	1191.6605	65535	64604.35
866.4001	1193.5888	65535	64631.95
866.5448	1195.5163	65535	64632.5
866.6895	1197.4432	65535	64626.8
866.8342	1199.3693	65535	64628.85
866.9789	1201.2947	65535	64626.65
867.1236	1203.2193	65535	64627.85
867.2683	1205.1432	65535	64631.7
867.413	1207.0664	65535	64631.5
867.5576	1208.9889	65535	64626.85
867.7023	1210.9106	65535	64629.6
867.847	1212.8316	65535	64632.7
867.9916	1214.7519	65535	64620.15
868.1363	1216.6715	65535	64631.45
868.2809	1218.5903	65535	64630.2
868.4255	1220.5084	65535	64630.65
868.5701	1222.4257	65535	64630.7
868.7148	1224.3424	65535	64631.8
868.8594	1226.2583	65535	64624.2
869.004	1228.1735	65535	64630.3
869.1486	1230.0879	65535	64633.05
869.2932	1232.0016	65535	64629.75
869.4377	1233.9146	65535	64629.5
869.5823	1235.8269	65535	64632.65
869.7269	1237.7384	65535	64631.3
869.8715	1239.6492	65535	64628.95
870.016	1241.5592	65535	64629.1
870.1606	1243.4686	65535	64630.45
870.3051	1245.3772	65535	64630.8
870.4496	1247.285	65535	64632.15
870.5941	1249.1922	65535	64633.4
870.7387	1251.0986	65535	64634.3
870.8832	1253.0042	65535	64630.5
871.0277	1254.9092	65535	64631.85
871.1722	1256.8134	65535	64631.85
871.3167	1258.7169	65535	64631.1
871.4611	1260.6196	65535	64632.4
871.6056	1262.5216	65535	64629.3
871.7501	1264.4229	65535	64631.9
871.8945	1266.3234	65535	64634.7
872.039	1268.2232	65535	64631.5
872.1834	1270.1223	65535	64628.7
872.3278	1272.0207	65535	64631
872.4723	1273.9183	65535	64627.1
872.6167	1275.8151	65535	64632.35
872.7611	1277.7113	65535	64630.9
872.9055	1279.6067	65535	64632.45
873.0499	1281.5014	65535	64630.65
873.1943	1283.3953	65535	64630
873.3386	1285.2885	65535	64632.35
873.483	1287.181	65535	64628.75
873.6274	1289.0727	65535	64632.4
873.7717	1290.9637	65535	64632.4
873.9161	1292.854	65535	64634.85
874.0604	1294.7435	65535	64633.85
874.2047	1296.6323	65535	64633.55
874.349	1298.5204	65535	64626.35
874.4933	1300.4077	65535	64627.3
874.6376	1302.2943	65535	64631.7
874.7819	1304.1802	65535	64632.8
874.9262	1306.0653	65535	64630.25
875.0705	1307.9497	65535	64632.25
875.2147	1309.8333	65535	64631.5
875.359	1311.7162	65535	64632.45
875.5032	1313.5984	65535	64630
875.6475	1315.4798	65535	64619.65
875.7917	1317.3605	65535	64616.05
875.9359	1319.2405	65535	64629.25
876.0801	1321.1197	65535	64629.8
876.2243	1322.9982	65535	64628.35
876.3685	1324.876	65535	64629.8
876.5127	1326.753	65535	64631.35
876.6569	1328.6293	65535	64630.75
876.801	1330.5048	65535	64631
876.9452	1332.3796	65535	64633.3
877.0893	1334.2537	65535	64607.9
877.2335	1336.127	65535	64631.05
877.3776	1337.9996	65535	64631.95
877.5217	1339.8714	65535	64631.1
877.6658	1341.7426	65535	64586.65
877.8099	1343.6129	65535	64630.3
877.954	1345.4826	65535	64632.55
878.0981	1347.3515	65535	64627
878.2422	1349.2196	65535	64632.5
878.3862	1351.087	65535	64632.05
878.5303	1352.9537	65535	64631.25
878.6743	1354.8197	65535	64632.95
878.8184	1356.6849	65535	64629.45
878.9624	1358.5493	65535	64633.55
879.1064	1360.4131	65535	64632.6
879.2504	1362.276	65535	64630.1
879.3944	1364.1383	65535	64632.05
879.5384	1365.9998	65535	64626.2
879.6823	1367.8606	65535	64632.45
879.8263	1369.7206	65535	64630.1
879.9702	1371.5799	65535	64630.45
880.1142	1373.4384	65535	64633.45
880.2581	1375.2962	65535	64631.1
880.402	1377.1533	65535	64632.8
880.5459	1379.0096	65535	64630.8
880.6898	1380.8652	65535	64630.5
880.8337	1382.7201	65535	64632.65
880.9776	1384.5742	65535	64630.95
881.1215	1386.4275	65535	64630.65
881.2653	1388.2802	65535	64634.15
881.4092	1390.132	65535	64633.45
881.553	1391.9832	65535	64630.55
881.6968	1393.8336	65535	64632.65
881.8406	1395.6832	65535	64629.3
881.9844	1397.5322	65535	64632.4
882.1282	1399.3803	65535	64626.1
882.272	1401.2278	65535	64630.75
882.4158	1403.0745	65535	64633.1
882.5595	1404.9204	65535	64634.4
882.7033	1406.7656	65535	64633.7
882.847	1408.6101	65535	64631.35
882.9908	1410.4538	65535	64629.75
883.1345	1412.2968	65535	64631.85
883.2782	1414.139	65535	64629.15
883.4219	1415.9805	65535	64634.9
883.5656	1417.8213	65535	64624.85
883.7092	1419.6613	65535	64632.95
883.8529	1421.5006	65535	64629.75
883.9965	1423.3391	65535	64633.95
884.1402	1425.1769	65535	64633.1
884.2838	1427.0139	65535	64632.4
884.4274	1428.8502	65535	64631.45
884.571	1430.6858	65535	64632.35
884.7146	1432.5206	65535	64631.45
884.8582	1434.3547	65535	64632.35
885.0018	1436.188	65535	64628.9
885.1453	1438.0206	65535	64632.65
885.2889	1439.8524	65535	64632.4
885.4324	1441.6835	65535	64630.55
885.5759	1443.5139	65535	64629.1
885.7194	1445.3435	65535	64633.15
885.8629	1447.1724	65535	64633.05
886.0064	1449.0005	65535	64634.05
886.1499	1450.8279	65535	64629
886.2933	1452.6545	65535	64632
886.4368	1454.4804	65535	64635.15
886.5802	1456.3056	65535	64624.2
886.7237	1458.13	65535	64633.9
886.8671	1459.9536	65535	64632.3
887.0105	1461.7766	65535	64632.9
887.1539	1463.5987	65535	64633.15
887.2972	1465.4202	65535	64631.45
887.4406	1467.2409	65535	64633.65
887.584	1469.0608	65535	64630.55
887.7273	1470.88	65535	64632.1
887.8706	1472.6984	65535	64633.25
888.0139	1474.5161	65535	64629.8
888.1572	1476.3331	65535	64632.65
888.3005	1478.1493	65535	64631.8
888.4438	1479.9648	65535	64633.95
888.5871	1481.7795	65535	64634.85
888.7303	1483.5935	65535	64630.75
888.8736	1485.4067	65535	64634.15
889.0168	1487.2192	65535	64633.35
889.16	1489.031	65535	64630
889.3032	1490.842	65535	64633.6
889.4464	1492.6522	65535	64632.85
889.5896	1494.4618	65535	64632.6
889.7327	1496.2705	65535	64634
889.8759	1498.0785	65535	64631.2
890.019	1499.8858	65535	64633
890.1622	1501.6924	65535	64634.2
890.3053	1503.4981	65535	64634
890.4484	1505.3032	65535	64633.3
890.5914	1507.1075	65535	64630.7
890.7345	1508.911	65535	64632.25
890.8776	1510.7138	65535	64635.15
891.0206	1512.5159	65535	64635.15
891.1637	1514.3172	65535	64631.8
891.3067	1516.1178	65535	64634.55
891.4497	1517.9176	65535	64631.75
891.5927	1519.7166	65535	64632.55
891.7357	1521.515	65535	64629
891.8786	1523.3126	65535	64632.55
892.0216	1525.1094	65535	64631.3
892.1645	1526.9055	65535	64637
892.3074	1528.7008	65535	64634.45
892.4503	1530.4954	65535	64627.7
892.5932	1532.2893	65535	64635.1
892.7361	1534.0824	65535	64628.45
892.879	1535.8747	65535	64636.05
893.0218	1537.6663	65535	64635.65
893.1647	1539.4572	65535	64633.35
893.3075	1541.2473	65535	64633.05
893.4503	1543.0367	65535	64635.1
893.5931	1544.8253	65535	64630.9
893.7359	1546.6132	65535	64632.1
893.8787	1548.4003	65535	64624.5
894.0214	1550.1867	65535	64625.85
894.1642	1551.9723	65535	64631.25
894.3069	1553.7572	65535	64635.15
894.4496	1555.5414	65535	64634.3
894.5923	1557.3247	65535	64633.65
894.735	1559.1074	65535	64637.05
894.8777	1560.8893	65535	64636.7
895.0204	1562.6705	65535	64634.2
895.163	1564.4509	65535	64636.4
895.3056	1566.2305	65535	64638.85
895.4482	1568.0094	65535	64634.8
895.5908	1569.7876	65535	64637.7
895.7334	1571.565	65535	64637.8
895.876	1573.3417	65535	64635.95
896.0186	1575.1176	65535	64635.2
896.1611	1576.8928	65535	64636.85
896.3036	1578.6672	65535	64637.2
896.4461	1580.4409	65535	64638.45
896.5886	1582.2138	65535	64636.45
896.7311	1583.986	65535	64635.25
896.8736	1585.7575	65535	64637.95
897.0161	1587.5282	65535	64637.4
897.1585	1589.2981	65535	64639.3
897.3009	1591.0673	65535	64636.3
897.4433	1592.8358	65535	64638.35
897.5857	1594.6035	65535	64634.95
897.7281	1596.3704	65535	64636.6
897.8705	1598.1366	65535	64639.1
898.0128	1599.9021	65535	64636.45
898.1551	1601.6668	65535	64636.8
898.2975	1603.4308	65535	64637.75
898.4398	1605.194	65535	64632.2
898.5821	1606.9564	65535	64637.15
898.7243	1608.7182	65535	64635.8
898.8666	1610.4791	65535	64639.9
899.0088	1612.2394	65535	64642
899.1511	1613.9988	65535	64639.6
899.2933	1615.7576	65535	64638.2
899.4355	1617.5156	65535	64630.4
899.5776	1619.2728	65535	64636.85
899.7198	1621.0293	65535	64639.55
899.862	1622.785	65535	64634.1
900.0041	1624.54	65535	64637.9
900.1462	1626.2942	65535	64637.4
900.2883	1628.0477	65535	64634.7
900.4304	1629.8005	65535	64633.85
900.5725	1631.5525	65535	64638
900.7145	1633.3037	65535	64638.2
900.8566	1635.0542	65535	64638.25
900.9986	1636.804	65535	64636.75
901.1406	1638.553	65533.35	64555.8
901.2826	1640.3013	65535	64639.95
901.4245	1642.0488	65526.05	64630.4
901.5665	1643.7955	65535	64641.05
901.7085	1645.5416	65530.4	64634.7
901.8504	1647.2868	65521.45	64624.8
901.9923	1649.0313	65535	64636.45
902.1342	1650.7751	65528.7	64627.85
902.2761	1652.5181	65519.95	64626.45
902.4179	1654.2604	65523.65	64625.1
902.5598	1656.0019	65525.35	64629.65
902.7016	1657.7427	65524.25	64627.75
902.8434	1659.4828	65533.75	64639.45
902.9852	1661.222	65517.25	64621.8
903.127	1662.9606	65533.7	64639.15
903.2687	1664.6984	65516.05	64617.95
903.4105	1666.4354	65529.15	64631.15
903.5522	1668.1717	65508.8	64614.25
903.6939	1669.9072	65407.45	64511
903.8356	1671.642	65415.9	64517.95
903.9773	1673.3761	65378.9	64482.15
904.119	1675.1094	65362.15	64468.1
904.2606	1676.8419	65139.4	64244.75
904.4022	1678.5737	65280	64384.3
904.5439	1680.3048	65174.05	64278.1
904.6855	1682.0351	65093.5	64196.65
904.827	1683.7646	64947.2	64049.9
904.9686	1685.4934	65101.05	64206.55
905.1101	1687.2215	64316.45	63420.6
905.2517	1688.9488	64985.7	64090.95
905.3932	1690.6754	63469.45	62576.2
905.5347	1692.4012	64386.85	63492.65
905.6761	1694.1263	64578.45	63683.8
905.8176	1695.8506	63754.7	62859.35
905.9591	1697.5742	63964.5	63069.6
906.1005	1699.297	63714	62819.45
906.2419	1701.0191	63941.85	63046
906.3833	1702.7404	62729.85	61835.7
906.5246	1704.461	62360.75	61465.25
906.666	1706.1808	63242.1	62343.95
906.8073	1707.8999	62681.85	61786.9
906.9487	1709.6182	62414.7	61520.2
907.09	1711.3358	62281.25	61387.85
907.2313	1713.0527	62103.8	61211.25
907.3725	1714.7688	62194.95	61294.5
907.5138	1716.4841	60898.45	59999.7
907.655	1718.1987	61421.85	60522.25
907.7962	1719.9126	61077.5	60184.35
907.9374	1721.6257	61372.2	60475.45
908.0786	1723.338	61401.15	60506.75
908.2198	1725.0496	60001.05	59105.95
908.3609	1726.7605	60124.5	59231.6
908.502	1728.4706	59670	58775
908.6431	1730.18	60166.6	59272.75
908.7842	1731.8886	59602.65	58709.2
908.9253	1733.5964	59152.35	58238.1
909.0664	1735.3036	59808.4	58913.65
909.2074	1737.0099	59358	58463.6
909.3484	1738.7156	58755.15	57862.25
909.4894	1740.4204	58570.75	57674.2
909.6304	1742.1246	58737.3	57840.2
909.7714	1743.8279	58822.2	57927.8
909.9123	1745.5306	58749.2	57854.15
910.0532	1747.2325	57490.85	56597.6
910.1941	1748.9336	57505.65	56612.8
910.335	1750.634	57704.1	56809
910.4759	1752.3336	57971.5	57078.15
910.6168	1754.0325	57105.35	56213
910.7576	1755.7307	57840.25	56946.5
910.8984	1757.4281	56847.55	55954.5
911.0392	1759.1247	57418.6	56514.6
911.18	1760.8206	56448.4	55549.85
911.3208	1762.5158	56542.35	55643.15
911.4615	1764.2102	56664.6	55772.15
911.6022	1765.9039	56398.5	55505
911.7429	1767.5968	56225.35	55332.1
911.8836	1769.289	55990.65	55096.95
912.0243	1770.9804	56028.15	55133.25
912.1649	1772.6711	55846.05	54950.35
912.3056	1774.361	55624.1	54729.2
912.4462	1776.0502	55623.1	54728
912.5868	1777.7386	55028.8	54134.05
912.7274	1779.4263	55170.25	54277.9
912.8679	1781.1132	55173.1	54277.9
913.0084	1782.7994	54863	53967.6
913.149	1784.4849	55001	54110.3
913.2895	1786.1696	54185	53283.55
913.4299	1787.8535	54413.9	53519.85
913.5704	1789.5367	54456.2	53564.4
913.7108	1791.2192	54005.75	53111.15
913.8513	1792.9009	53833.7	52911.55
913.9917	1794.5818	53874.05	52978.7
914.132	1796.2621	53573.85	52681.55
914.2724	1797.9415	53494.8	52600.85
914.4128	1799.6202	53397.15	52504.85
914.5531	1801.2982	53393.55	52501.65
914.6934	1802.9755	53039.65	52144.1
914.8337	1804.6519	52921.6	52029.15
914.9739	1806.3277	53014.35	52120.7
915.1142	1808.0027	52279.4	51387.6
915.2544	1809.6769	52461	51566.9
915.3946	1811.3504	52518.55	51623.65
915.5348	1813.0231	51914.65	51021.3
915.675	1814.6951	52163.75	51271.5
915.8151	1816.3664	52005.85	51111.65
915.9553	1818.0369	51877.85	50983.15
916.0954	1819.7067	51674.15	50783.15
916.2355	1821.3757	51847.65	50954.4
916.3755	1823.044	51377.3	50482.95
916.5156	1824.7115	51199.9	50305.2
916.6556	1826.3783	51097	50205.15
916.7956	1828.0443	50942.9	50052.25
916.9356	1829.7096	50815	49922.3
917.0756	1831.3741	50713.7	49816.6
917.2155	1833.0379	50539.65	49646.3
917.3555	1834.701	50396.05	49502.6
917.4954	1836.3633	50221.3	49328.5
917.6353	1838.0248	50166	49271.55
917.7751	1839.6856	50063.9	49171.5
917.915	1841.3457	49868.8	48977.1
918.0548	1843.005	49902.5	49009.4
918.1946	1844.6636	49691.85	48799.6
918.3344	1846.3214	49504	48611.1
918.4742	1847.9785	49529.15	48636.45
918.6139	1849.6349	49366.7	48473.2
918.7537	1851.2904	49261.1	48358.95
918.8934	1852.9453	49080.6	48185.4
919.0331	1854.5994	48920.6	48024.45
919.1727	1856.2528	49017	48118.85
919.3124	1857.9054	48806.15	47912.5
919.452	1859.5572	48693	47800.4
919.5916	1861.2083	48568.15	47673.35
919.7312	1862.8587	48616.8	47722.4
919.8708	1864.5084	48220.6	47325.75
920.0103	1866.1572	48192.7	47300.2
920.1498	1867.8054	47967.05	47075.55
920.2893	1869.4528	47966.1	47074.1
920.4288	1871.0994	47675.15	46781.9
920.5683	1872.7453	47606	46711
920.7077	1874.3905	47538.65	46637.2
920.8471	1876.0349	47367.75	46472.65
920.9865	1877.6786	47340.35	46447.35
921.1259	1879.3215	47263.9	46369.1
921.2653	1880.9637	47148.95	46255.1
921.4046	1882.6051	47032.85	46140.55
921.5439	1884.2458	46847.55	45952.05
921.6832	1885.8858	46659.05	45765.45
921.8225	1887.525	46658.9	45765.45
921.9617	1889.1634	46403.85	45510.45
922.101	1890.8011	46268.75	45374.95
922.2402	1892.4381	46088.15	45194.15
922.3794	1894.0743	46040.7	45148.55
922.5185	1895.7098	45900.95	45006.15
922.6577	1897.3446	45770.3	44877.3
922.7968	1898.9786	45685.6	44788.95
922.9359	1900.6118	45523.85	44632.35
923.075	1902.2443	45327.7	44431.85
923.214	1903.8761	45209.8	44316.95
923.3531	1905.5071	44927.45	44033.15
923.4921	1907.1374	44773.45	43879.95
923.6311	1908.7669	44643.3	43750.05
923.77	1910.3957	44601.5	43710.3
923.909	1912.0237	44308.7	43415.1
924.0479	1913.651	44241.3	43347.55
924.1868	1915.2776	44068.8	43176.1
924.3257	1916.9034	43922.25	43030.2
924.4646	1918.5285	43685.85	42794.2
924.6034	1920.1528	43471.85	42578.4
924.7422	1921.7764	43489	42596.9
924.881	1923.3992	43326.2	42434.6
925.0198	1925.0213	42970.85	42078.45
925.1586	1926.6427	42852.55	41959.9
925.2973	1928.2633	42789.5	41778.2
925.436	1929.8832	42600.4	41706
925.5747	1931.5023	42399.3	41507.3
925.7134	1933.1207	42317.55	41425.25
925.852	1934.7383	42223.35	41331.05
925.9906	1936.3552	42044.95	41153.95
926.1292	1937.9714	41960.15	41065.6
926.2678	1939.5868	41770.65	40877.1
926.4064	1941.2015	41466.55	40572.7
926.5449	1942.8154	41373.5	40482.35
926.6834	1944.4286	41157.05	40264.2
926.8219	1946.041	41038.7	40127
926.9604	1947.6528	40786.45	39888.75
927.0988	1949.2637	40701.1	39806.95
927.2372	1950.8739	40527.05	39635.6
927.3756	1952.4834	40465.75	39573.7
927.514	1954.0921	40397.35	39503.65
927.6523	1955.7001	40232.65	39335.15
927.7907	1957.3074	40067.15	39177.15
927.929	1958.9139	39877.3	38986.2
928.0673	1960.5197	39783.95	38892.25
928.2055	1962.1247	39601.6	38708.4
928.3438	1963.729	39443.6	38552.9
928.482	1965.3325	39318.35	38404.3
928.6202	1966.9353	39146.1	38255.4
928.7584	1968.5374	39002.85	38111.2
928.8965	1970.1387	38851.45	37958.8
929.0346	1971.7393	38690.6	37798
929.1727	1973.3392	38599.65	37707.35
929.3108	1974.9383	38476.8	37586.85
929.4489	1976.5366	38304.45	37413.2
929.5869	1978.1342	38211.05	37317.4
929.7249	1979.7311	38151.95	37260.3
929.8629	1981.3273	37985.9	37093.1
930.0009	1982.9227	37842.3	36949.5
930.1388	1984.5173	37697.75	36807.85
930.2767	1986.1112	37491.25	36599.7
930.4146	1987.7044	37449.25	36559.7
930.5525	1989.2968	37330.95	36439
930.6904	1990.8885	37262.55	36366.85
930.8282	1992.4795	37111.4	36217.7
930.966	1994.0697	36965.8	36074.45
931.1038	1995.6592	36789.45	35898
931.2415	1997.2479	36676.65	35785.25
931.3793	1998.8359	36611.85	35723.7
931.517	2000.4232	36378.65	35489.5
931.6547	2002.0097	36263.35	35375
931.7923	2003.5955	36093.5	35203.55
931.93	2005.1805	36146.05	35252.95
932.0676	2006.7648	35982.35	35090.05
932.2052	2008.3484	35846.35	34952.45
932.3427	2009.9312	35843.65	34948.35
932.4803	2011.5133	35722.05	34830.5
932.6178	2013.0946	35538.55	34648.4
932.7553	2014.6752	35459.75	34571.5
932.8928	2016.2551	35358.1	34467.15
933.0302	2017.8342	35195.95	34305.6
933.1676	2019.4126	35101.75	34212.75
933.305	2020.9902	34928.35	34037.15
933.4424	2022.5672	34819.9	33926.85
933.5798	2024.1433	34762.2	33866.1
933.7171	2025.7188	34665.3	33774.95
933.8544	2027.2935	34528.7	33637.55
933.9917	2028.8674	34428.35	33536.6
934.129	2030.4406	34300.1	33412.35
934.2662	2032.0131	34081.3	33191.2
934.4034	2033.5849	33932.75	33035.85
934.5406	2035.1559	33908.5	33018.8
934.6778	2036.7261	33857.55	32966.25
934.8149	2038.2957	33736.35	32845.7
934.952	2039.8645	33667.15	32777.5
935.0891	2041.4325	33652.6	32758.95
935.2262	2042.9998	33515.5	32626.2
935.3632	2044.5664	33395.85	32504.95
935.5002	2046.1323	33232.5	32342.35
935.6372	2047.6974	33167.4	32277.45
935.7742	2049.2617	33103.65	32213.3
935.9111	2050.8254	33050.8	32140.1
936.048	2052.3883	32982.55	32090.25
936.1849	2053.9504	32816.4	31925.7
936.3218	2055.5118	32698.15	31805.6
936.4586	2057.0725	32508.2	31612.5
936.5955	2058.6325	32466.6	31574.6
936.7323	2060.1917	32350.75	31461.1
936.869	2061.7502	32277.7	31384.25
937.0058	2063.3079	32137.05	31247.15
937.1425	2064.8649	32028.85	31135.75
937.2792	2066.4212	31941.7	31049.75
937.4159	2067.9767	31863.8	30976
937.5525	2069.5315	31723	30830.85
937.6891	2071.0856	31575.55	30685.4
937.8257	2072.6389	31412.3	30520.7
937.9623	2074.1915	31267.15	30378.65
938.0989	2075.7433	31120.9	30231.25
938.2354	2077.2945	31057.25	30168.15
938.3719	2078.8448	30989.1	30097.95
938.5084	2080.3945	30845.4	29953.65
938.6448	2081.9434	30803.95	29911.75
938.7812	2083.4916	30722.35	29832.85
938.9176	2085.039	30588.05	29695.95
939.054	2086.5857	30502.25	29610.3
939.1903	2088.1317	30467.85	29576.7
939.3267	2089.677	30383.25	29491.1
939.463	2091.2215	30288.65	29398.15
939.5992	2092.7652	30154.2	29261
939.7355	2094.3083	30101.9	29208.4
939.8717	2095.8506	30115.7	29225.05
940.0079	2097.3921	29981.15	29090.3
940.1441	2098.933	29863.45	28972.75
940.2802	2100.4731	29797.25	28907.15
940.4163	2102.0124	29713.6	28815.5
940.5524	2103.5511	29673	28780.65
940.6885	2105.089	29590.8	28700.2
940.8245	2106.6261	29475.9	28584.9
940.9606	2108.1626	29401.8	28509.35
941.0965	2109.6983	29333.4	28412.5
941.2325	2111.2332	29229.05	28337.15
941.3684	2112.7675	29157.95	28264.4
941.5044	2114.301	28998.3	28105.6
941.6403	2115.8337	28990.85	28099.25
941.7761	2117.3657	28857.65	27966.65
941.912	2118.897	28847.5	27954.3
942.0478	2120.4276	28743.05	27845.45
942.1835	2121.9575	28584.1	27692.1
942.3193	2123.4866	28594.55	27689.45
942.455	2125.0149	28446.75	27552.45
942.5907	2126.5426	28272.6	27381.95
942.7264	2128.0695	28249.25	27355.35
942.8621	2129.5956	28175.1	27286.5
942.9977	2131.1211	28101.7	27208.65
943.1333	2132.6458	28044.9	27154.65
943.2689	2134.1698	27972.3	27082.6
943.4044	2135.693	27918.75	27023
943.54	2137.2155	27800.5	26905.85
943.6755	2138.7373	27727.15	26835.35
943.8109	2140.2584	27612.9	26722.35
943.9464	2141.7787	27502.3	26605.9
944.0818	2143.2983	27404.55	26515.3
944.2172	2144.8171	27186.9	26297.15
944.3526	2146.3353	27180.65	26288.6
944.4879	2147.8527	27055.95	26164.15
944.6232	2149.3693	27035.3	26143
944.7585	2150.8853	26934.2	26043.1
944.8938	2152.4005	26780.3	25888.5
945.029	2153.9149	26781.7	25889.45
945.1642	2155.4287	26691.55	25799.1
945.2994	2156.9417	26566.5	25674.85
945.4346	2158.454	26505.05	25610.1
945.5697	2159.9655	26434.9	25543.7
945.7048	2161.4764	26442.9	25554
945.8399	2162.9865	26298.25	25406.4
945.9749	2164.4958	26212.3	25320.35
946.1099	2166.0045	26122.3	25227.6
946.2449	2167.5124	26119.75	25227.7
946.3799	2169.0195	25992.85	25102.7
946.5148	2170.526	25950	25058.95
946.6498	2172.0317	25862.8	24970.5
946.7846	2173.5367	25790.7	24898.1
946.9195	2175.0409	25757	24866.35
947.0543	2176.5445	25746.15	24855.85
947.1891	2178.0473	25571	24680.75
947.3239	2179.5494	25486.9	24591.8
947.4587	2181.0507	25345.4	24453.95
947.5934	2182.5513	25254.75	24363.4
947.7281	2184.0512	25233.4	24342.45
947.8628	2185.5504	25114.45	24223.35
947.9974	2187.0488	24970.95	24079.35
948.132	2188.5465	24879.75	23989.15
948.2666	2190.0435	24825.55	23934.3
948.4012	2191.5397	24697.85	23806.9
948.5357	2193.0353	24664.95	23775.4
948.6702	2194.5301	24504.85	23613.45
948.8047	2196.0241	24423.8	23533.1
948.9392	2197.5175	24407.6	23515.65
949.0736	2199.0101	24243.2	23349.05
949.208	2200.502	24131.6	23241.3
949.3424	2201.9931	24046.4	23155.45
949.4767	2203.4835	24012.9	23120.5
949.611	2204.9733	23926.35	23030.2
949.7453	2206.4622	23848.3	22959.85
949.8796	2207.9505	23739.3	22845.65
950.0138	2209.438	23642.5	22752.95
950.148	2210.9248	23559.05	22667.8
950.2822	2212.4109	23468.1	22577.8
950.4164	2213.8962	23426.2	22532.95
950.5505	2215.3809	23347.85	22454.85
950.6846	2216.8648	23278	22386.05
950.8186	2218.3479	23171.9	22277.05
950.9527	2219.8304	23040.1	22147.4
951.0867	2221.3121	22982.75	22090.9
951.2207	2222.7931	22965.2	22075
951.3546	2224.2733	22869	21976.75
951.4886	2225.7529	22754.5	21862.9
951.6225	2227.2317	22675	21782.4
951.7563	2228.7098	22684.55	21794.5
951.8902	2230.1872	22510.6	21619.8
952.024	2231.6638	22471.35	21580.55
952.1578	2233.1397	22393.05	21497.25
952.2916	2234.6149	22339.25	21448
952.4253	2236.0894	22251.25	21359.6
952.559	2237.5632	22180.65	21281.15
952.6927	2239.0362	22116	21225
952.8263	2240.5085	22046.65	21154.55
952.9599	2241.9801	21931.25	21040.3
953.0935	2243.4509	21862.25	20971.95
953.2271	2244.921	21796.95	20904.7
953.3606	2246.3904	21683.1	20789.5
953.4941	2247.8591	21625.9	20733.45
953.6276	2249.3271	21557.55	20665.6
953.7611	2250.7943	21501.45	20609.7
953.8945	2252.2608	21410.45	20519.9
954.0279	2253.7266	21344.1	20453.85
954.1612	2255.1917	21292.15	20403.15
954.2946	2256.656	21201.9	20308.95
954.4279	2258.1197	21097.25	20207.05
954.5612	2259.5826	21066.6	20172.6
954.6944	2261.0447	20994	20101.35
954.8276	2262.5062	20916.3	20021.45
954.9608	2263.9669	20855.1	19962.4
955.094	2265.4269	20843	19951.95
955.2271	2266.8862	20694.45	19803.2
955.3602	2268.3448	20642.6	19751.95
955.4933	2269.8026	20614.55	19724.5
955.6264	2271.2598	20555.05	19664.1
955.7594	2272.7162	20496.4	19607.65
955.8924	2274.1719	20435.1	19543
956.0253	2275.6268	20371.6	19479.85
956.1583	2277.0811	20317.2	19426.3
956.2912	2278.5346	20275.6	19385
956.4241	2279.9874	20188.75	19298.4
956.5569	2281.4395	20181.05	19292.1
956.6897	2282.8908	20060.4	19163
956.8225	2284.3414	20064.9	19172.1
956.9553	2285.7914	19955.5	19063.75
957.088	2287.2406	19903.05	19011.4
957.2207	2288.689	19817.65	18926.95
957.3534	2290.1368	19755.7	18863.1
957.486	2291.5838	19677.8	18785.85
957.6186	2293.0302	19643.35	18748.15
957.7512	2294.4758	19535.65	18644.5
957.8838	2295.9206	19461.9	18567.5
958.0163	2297.3648	19411.3	18519.85
958.1488	2298.8082	19385.35	18493.1
958.2813	2300.251	19305.1	18412.65
958.4137	2301.693	19240.45	18344.75
958.5461	2303.1343	19248.9	18357.25
958.6785	2304.5748	19141.6	18249.55
958.8108	2306.0147	19031.45	18140.3
958.9432	2307.4538	19025.45	18130
959.0754	2308.8922	18944.6	18054.55
959.2077	2310.3299	18887.85	17997.55
959.3399	2311.7669	18823.35	17933.65
959.4721	2313.2031	18766.2	17874.6
959.6043	2314.6387	18678.55	17787.5
959.7365	2316.0735	18621.35	17729.45
959.8686	2317.5076	18565.15	17673.2
960.0006	2318.941	18502.45	17609
960.1327	2320.3737	18454.45	17563.3
960.2647	2321.8056	18408.4	17513.4
960.3967	2323.2369	18316.1	17422.85
960.5287	2324.6674	18310.25	17416.45
960.6606	2326.0972	18196.55	17304.45
960.7925	2327.5263	18131.95	17242.75
960.9244	2328.9547	18086.35	17193.75
961.0562	2330.3823	18022.7	17128.5
961.1881	2331.8092	17992.15	17099.4
961.3198	2333.2355	17928.25	17035.05
961.4516	2334.661	17863.65	16971.65
961.5833	2336.0858	17854.65	16963.55
961.715	2337.5098	17803.5	16913.95
961.8467	2338.9332	17737.9	16845.3
961.9783	2340.3558	17653.1	16758.5
962.1099	2341.7778	17607.85	16716.85
962.2415	2343.199	17541.9	16648.35
962.373	2344.6195	17488.45	16598.95
962.5045	2346.0393	17439.45	16549.75
962.636	2347.4583	17405.45	16514.6
962.7675	2348.8767	17355.05	16463.8
962.8989	2350.2943	17278.2	16386.75
963.0303	2351.7113	17236.6	16345.5
963.1617	2353.1275	17155.45	16264.2
963.293	2354.543	17131.7	16230.65
963.4243	2355.9578	17083.65	16192.7
963.5556	2357.3718	16984.6	16092.3
963.6868	2358.7852	16895.75	16001.4
963.818	2360.1978	16825.05	15932.85
963.9492	2361.6098	16771.85	15883.35
964.0803	2363.021	16738.75	15844.65
964.2114	2364.4315	16676.85	15785.2
964.3425	2365.8413	16614.15	15720.55
964.4736	2367.2504	16562.3	15673.6
964.6046	2368.6587	16480.95	15590.55
964.7356	2370.0664	16419.55	15528.05
964.8666	2371.4733	16363.05	15472.2
964.9975	2372.8795	16316.25	15426
965.1284	2374.285	16225.95	15334.6
965.2593	2375.6899	16165.4	15274.9
965.3901	2377.0939	16094.7	15205.1
965.5209	2378.4973	16029.55	15140
965.6517	2379.9	15987.25	15094.7
965.7825	2381.3019	15887.75	14998
965.9132	2382.7032	15831.8	14942.8
966.0439	2384.1037	15799.4	14912.05
966.1745	2385.5035	15755.45	14865.7
966.3051	2386.9027	15693.75	14803.5
966.4357	2388.3011	15665.95	14772.65
966.5663	2389.6987	15583.45	14691.4
966.6968	2391.0957	15513.9	14625.45
966.8273	2392.492	15443	14554.3
966.9578	2393.8876	15372.4	14480.05
967.0882	2395.2824	15313.05	14422.7
967.2186	2396.6765	15218.6	14329.4
967.349	2398.07	15137.35	14249.35
967.4793	2399.4627	15139.9	14248.1
967.6097	2400.8547	15107.95	14216.85
967.7399	2402.246	15026.6	14130.3
967.8702	2403.6366	14953.65	14061.9
968.0004	2405.0265	14909.6	14019.15
968.1306	2406.4156	14850.35	13957.45
968.2607	2407.8041	14773.5	13880.15
968.3909	2409.1918	14701.55	13808.2
968.521	2410.5789	14652.8	13762.25
968.651	2411.9652	14586.85	13694
968.781	2413.3508	14576.6	13684.75
968.911	2414.7358	14490.7	13599.25
969.041	2416.12	14436.9	13546.75
969.1709	2417.5035	14382.85	13491.85
969.3008	2418.8863	14330.45	13439.4
969.4307	2420.2684	14283.35	13393.45
969.5606	2421.6497	14250.7	13358.9
969.6904	2423.0304	14122.7	13230.45
969.8201	2424.4104	14094.1	13203.15
969.9499	2425.7896	14064.85	13171.4
970.0796	2427.1682	14055.55	13165.25
970.2093	2428.546	13996.7	13104.65
970.3389	2429.9232	13954.15	13061.1
970.4685	2431.2996	13923.35	13031.3
970.5981	2432.6753	13902.05	13011.25
970.7277	2434.0503	13833.05	12943
970.8572	2435.4246	13751.1	12861
970.9867	2436.7982	13719.35	12826
971.1161	2438.1711	13688.25	12797.85
971.2456	2439.5433	13642.75	12750.4
971.375	2440.9148	13548.2	12652.3
971.5043	2442.2856	13481.1	12590.5
971.6336	2443.6557	13480.85	12589.25
971.7629	2445.025	13435.3	12545.55
971.8922	2446.3937	13385.05	12493.8
972.0214	2447.7617	13344.55	12454.55
972.1506	2449.1289	13317.95	12427.65
972.2798	2450.4955	13274.7	12378.6
972.4089	2451.8613	13228.95	12336.4
972.538	2453.2265	13174.1	12284.75
972.6671	2454.5909	13172.35	12281.2
972.7961	2455.9546	13135.95	12245.7
972.9251	2457.3177	13081.65	12191.85
973.0541	2458.68	13043.4	12152.45
973.1831	2460.0416	12991.05	12100.7
973.312	2461.4025	12970.05	12078.05
973.4408	2462.7627	12925.55	12024.3
973.5697	2464.1222	12888.45	11998.75
973.6985	2465.4811	12814.55	11924.9
973.8273	2466.8392	12802.8	11911.95
973.956	2468.1966	12768.15	11873.85
974.0847	2469.5533	12744.9	11850.75
974.2134	2470.9093	12713.05	11821.6
974.3421	2472.2645	12645.6	11753.75
974.4707	2473.6191	12602.65	11711.45
974.5993	2474.973	12567.7	11676.8
974.7278	2476.3262	12521.9	11630.05
974.8563	2477.6787	12460.85	11569.2
974.9848	2479.0305	12407.05	11515.35
975.1132	2480.3816	12367.8	11474.85
975.2417	2481.7319	12326.4	11437.05
975.37	2483.0816	12283.55	11392.55
975.4984	2484.4306	12204.25	11311.8
975.6267	2485.7789	12175.35	11285.8
975.755	2487.1264	12137.15	11245.05
975.8833	2488.4733	12055.55	11166.65
976.0115	2489.8195	12033.3	11126.7
976.1397	2491.165	11987.65	11093.95
976.2678	2492.5097	11945.15	11050.45
976.3959	2493.8538	11901.1	11008.35
976.524	2495.1972	11847.05	10957.15
976.6521	2496.5398	11786.6	10895.55
976.7801	2497.8818	11766.9	10874.2
976.9081	2499.2231	11725.75	10836.5
977.036	2500.5637	11668.3	10776.35
977.164	2501.9035	11652.55	10761.75
977.2918	2503.2427	11607.3	10712.5
977.4197	2504.5812	11553.85	10664.3
977.5475	2505.919	11538.05	10645.05
977.6753	2507.256	11484.45	10594
977.8031	2508.5924	11447.8	10558.1
977.9308	2509.9281	11435.4	10537.75
978.0585	2511.2631	11380.4	10488.3
978.1861	2512.5974	11342.2	10451.5
978.3137	2513.9309	11299.4	10407.35
978.4413	2515.2638	11260.35	10340.4
978.5689	2516.596	11214.9	10325.3
978.6964	2517.9275	11159.25	10267.9
978.8239	2519.2583	11132.25	10241.05
978.9513	2520.5884	11073.8	10182.7
979.0788	2521.9178	11023.85	10133.1
979.2062	2523.2465	10973.65	10084.05
979.3335	2524.5745	10932.15	10040.85
979.4608	2525.9018	10917.9	10027.85
979.5881	2527.2284	10883.85	9995.2
979.7154	2528.5543	10855.15	9968.35
979.8426	2529.8796	10816.65	9926.1
979.9698	2531.2041	10800.45	9908.1
980.0969	2532.5279	10765.95	9875.8
980.224	2533.851	10739.25	9848.5
980.3511	2535.1735	10700	9809.9
980.4781	2536.4952	10675	9783.75
980.6052	2537.8163	10651.3	9758.7
980.7321	2539.1366	10613.25	9725
980.8591	2540.4562	10585.85	9695.45
980.986	2541.7752	10574.6	9686.45
981.1129	2543.0935	10504	9611
981.2397	2544.411	10495.35	9602.15
981.3665	2545.7279	10488.55	9597.95
981.4933	2547.0441	10470.45	9578.05
981.62	2548.3596	10431.55	9538.95
981.7467	2549.6744	10435.6	9546.2
981.8734	2550.9885	10382.65	9488.5
982.0001	2552.3019	10332.05	9442.15
982.1267	2553.6146	10318.25	9429.85
982.2532	2554.9266	10273.9	9382.65
982.3798	2556.2379	10230.8	9338
982.5063	2557.5485	10234.9	9344.85
982.6327	2558.8585	10210.55	9311.2
982.7592	2560.1677	10168.9	9273.9
982.8856	2561.4762	10153.35	9261.6
983.0119	2562.7841	10133.65	9242.75
983.1383	2564.0913	10115.35	9225.1
983.2646	2565.3977	10088.85	9198.75
983.3908	2566.7035	10024.25	9134.2
983.517	2568.0086	10023.75	9130.15
983.6432	2569.313	10032.7	9141.75
983.7694	2570.6167	10031.75	9134.1
983.8955	2571.9197	9951.85	9061.05
984.0216	2573.222	9946.35	9050.6
984.1476	2574.5236	9916.75	9024.85
984.2737	2575.8246	9871.3	8976.9
984.3996	2577.1248	9880.75	8989.4
984.5256	2578.4244	9852.6	8962.3
984.6515	2579.7232	9829.8	8938.55
984.7774	2581.0214	9832.45	8914.7
984.9032	2582.3189	9758.95	8867.4
985.029	2583.6157	9744.15	8849.95
985.1548	2584.9118	9710.75	8816.5
985.2806	2586.2072	9684.95	8794.45
985.4063	2587.5019	9646.1	8755.5
985.5319	2588.7959	9645.5	8754.2
985.6576	2590.0893	9637.45	8745.75
985.7832	2591.3819	9602.3	8711.5
985.9087	2592.6739	9559.9	8670.45
986.0343	2593.9652	9510.95	8619.6
986.1597	2595.2557	9503.2	8613.9
986.2852	2596.5456	9477	8585.75
986.4106	2597.8348	9445.6	8554.4
986.536	2599.1234	9373.65	8484.45
986.6614	2600.4112	9335.6	8445.25
986.7867	2601.6983	9348.45	8453.4
986.912	2602.9848	9299	8406.4
987.0372	2604.2705	9264.85	8365.5
987.1624	2605.5556	9256.65	8365.9
987.2876	2606.84	9213.7	8322.65
987.4128	2608.1237	9160.25	8268.3
987.5379	2609.4067	9123.05	8232.05
987.6629	2610.689	9117.85	8218.5
987.788	2611.9707	9061.35	8167.55
987.913	2613.2516	9061.95	8166.65
988.0379	2614.5319	8975.55	8085.8
988.1629	2615.8115	8940.95	8050.25
988.2878	2617.0903	8921.15	8028.95
988.4126	2618.3685	8904.15	8012.7
988.5375	2619.6461	8860.5	7970.95
988.6622	2620.9229	8841.45	7950.1
988.787	2622.199	8814.05	7923.6
988.9117	2623.4745	8783.65	7890.95
989.0364	2624.7493	8748.3	7856
989.161	2626.0234	8720.1	7829.75
989.2857	2627.2968	8668.55	7778.15
989.4102	2628.5695	8653.25	7761.6
989.5348	2629.8415	8602.95	7710.65
989.6593	2631.1128	8577.55	7685.6
989.7837	2632.3835	8569.4	7679.9
989.9082	2633.6535	8495.3	7606.95
990.0326	2634.9228	8477.4	7588.05
990.1569	2636.1914	8442.65	7553.35
990.2812	2637.4593	8423.35	7531
990.4055	2638.7265	8379.5	7487.55
990.5298	2639.9931	8373.35	7482.6
990.654	2641.259	8352.4	7462.4
990.7782	2642.5242	8311.15	7418.4
990.9023	2643.7887	8293.15	7400.8
991.0264	2645.0525	8274.2	7384.25
991.1505	2646.3156	8229.85	7337.2
991.2745	2647.5781	8199.15	7309.1
991.3985	2648.8398	8177.4	7287.25
991.5225	2650.1009	8148.8	7247.3
991.6464	2651.3613	8136.4	7246.1
991.7703	2652.6211	8096.05	7202.8
991.8942	2653.8801	8074.75	7184.85
992.018	2655.1385	8066.25	7174.3
992.1418	2656.3961	8038.55	7147.05
992.2655	2657.6531	8026.7	7137.25
992.3892	2658.9094	8002.3	7111.1
992.5129	2660.1651	7961.8	7073.65
992.6366	2661.42	7953.6	7062.5
992.7602	2662.6743	7946.85	7054.05
992.8837	2663.9279	7905.7	7016.65
993.0073	2665.1808	7880.7	6989.35
993.1307	2666.433	7863.25	6969.8
993.2542	2667.6846	7845.6	6957.4
993.3776	2668.9354	7812.1	6917.1
993.501	2670.1856	7797.5	6907.55
993.6244	2671.4351	7789.35	6897.8
993.7477	2672.6839	7756.8	6863.7
993.8709	2673.9321	7722.55	6832.55
993.9942	2675.1795	7684.4	6794.65
994.1174	2676.4263	7677.8	6787.45
994.2405	2677.6724	7663.3	6772.5
994.3637	2678.9179	7627.05	6734.95
994.4868	2680.1626	7611.15	6720.65
994.6098	2681.4067	7609.4	6717.25
994.7328	2682.6501	7577.4	6687.3
994.8558	2683.8928	7542.6	6652.4
994.9788	2685.1348	7525.15	6636.2
995.1017	2686.3761	7480.1	6590.65
995.2245	2687.6168	7450.7	6560.65
995.3474	2688.8568	7433.65	6544.65
995.4702	2690.0961	7406.55	6515.95
995.5929	2691.3348	7398.6	6508.2
995.7156	2692.5727	7370.1	6478.7
995.8383	2693.81	7362.2	6472.6
995.961	2695.0466	7324.05	6435.6
996.0836	2696.2826	7307.45	6415.55
996.2062	2697.5178	7280.3	6389.8
996.3287	2698.7524	7262.5	6371.55
996.4512	2699.9863	7245.25	6352.55
996.5737	2701.2195	7206.1	6316.05
996.6961	2702.452	7194.35	6302.6
996.8185	2703.6839	7160.95	6270
996.9408	2704.9151	7131.2	6240.4
997.0631	2706.1456	7126.4	6235.75
997.1854	2707.3755	7108.6	6217.4
997.3077	2708.6046	7111.25	6217.45
997.4299	2709.8331	7070.9	6179.25
997.552	2711.0609	7060.4	6169
997.6742	2712.2881	7039.4	6148.75
997.7963	2713.5145	7030.5	6137.7
997.9183	2714.7403	7005.8	6115.75
998.0403	2715.9654	6966.5	6075.3
998.1623	2717.1899	6980.05	6075.65
998.2842	2718.4136	6957.75	6066.6
998.4062	2719.6367	6954.05	6062
998.528	2720.8591	6955.35	6057
998.6498	2722.0809	6901.55	6010.25
998.7716	2723.3019	6894.6	6002.05
998.8934	2724.5223	6870.95	5979.45
999.0151	2725.7421	6847.15	5954.8
999.1368	2726.9611	6838.8	5945.95
999.2584	2728.1795	6821.8	5927.7
999.38	2729.3972	6770	5880.1
999.5016	2730.6142	6778.85	5874.55
999.6231	2731.8306	6713.75	5822.25
999.7446	2733.0462	6683.7	5790.2
999.8661	2734.2612	6651.05	5755.7
999.9875	2735.4756	6604.1	5712.1
1000.1089	2736.6892	6560.15	5669.55
1000.2302	2737.9022	6522.75	5632.3
1000.3515	2739.1145	6476.15	5585.4
1000.4728	2740.3262	6462.6	5565.1
1000.594	2741.5372	6426.1	5534.65
1000.7152	2742.7475	6383.25	5492.3
1000.8363	2743.9571	6366.1	5474.2
1000.9575	2745.1661	6338.35	5441.95
1001.0785	2746.3744	6307.75	5416.35
1001.1996	2747.582	6282.9	5392.65
1001.3206	2748.7889	6269.25	5378.3
1001.4415	2749.9952	6229.4	5338.9
1001.5625	2751.2008	6209.8	5317.25
1001.6833	2752.4057	6207.4	5313.25
1001.8042	2753.61	6178.15	5285.5
1001.925	2754.8136	6165.55	5271.9
1002.0458	2756.0165	6128.2	5237.05
1002.1665	2757.2188	6112	5222.3
1002.2872	2758.4204	6093.5	5201.95
1002.4078	2759.6213	6071.3	5180.3
1002.5285	2760.8215	6051.75	5157.4
1002.649	2762.0211	6037.9	5144.35
1002.7696	2763.22	6012	5117.4
1002.8901	2764.4182	5996.2	5103.5
1003.0106	2765.6158	5984.55	5095.3
1003.131	2766.8127	5955.75	5065.4
1003.2514	2768.009	5936.25	5046.1
1003.3717	2769.2045	5903.35	5012.7
1003.492	2770.3994	5902.75	5010.7
1003.6123	2771.5936	5875.75	4983.2
1003.7325	2772.7872	5840.5	4950.3
1003.8527	2773.9801	5837.5	4946.6
1003.9729	2775.1723	5812.4	4905.15
1004.093	2776.3639	5791.95	4900.9
1004.2131	2777.5548	5758.1	4865.75
1004.3331	2778.745	5743.35	4852.2
1004.4531	2779.9346	5740	4849.55
1004.5731	2781.1235	5724.65	4832.7
1004.693	2782.3117	5698	4807.85
1004.8129	2783.4992	5683.45	4794.95
1004.9328	2784.6861	5677.9	4786.9
1005.0526	2785.8723	5673.2	4781.85
1005.1723	2787.0579	5647	4756.05
1005.2921	2788.2428	5648.6	4756.5
1005.4118	2789.427	5614.8	4725.65
1005.5314	2790.6106	5607.8	4717.8
1005.651	2791.7935	5601.55	4710.15
1005.7706	2792.9757	5571	4681.75
1005.8902	2794.1573	5560.2	4667.05
1006.0097	2795.3382	5560.2	4669.15
1006.1291	2796.5184	5560.15	4671.8
1006.2485	2797.698	5560.75	4667.55
1006.3679	2798.8769	5565.25	4675.5
1006.4873	2800.0551	5559.35	4666.75
1006.6066	2801.2327	5560.45	4667.8
1006.7258	2802.4096	5560.5	4671.4
1006.8451	2803.5859	5556.3	4664.85
1006.9642	2804.7615	5572.45	4683.8
1007.0834	2805.9364	5543.65	4654.7
1007.2025	2807.1106	5568.3	4679.35
1007.3216	2808.2842	5576.3	4685.05
1007.4406	2809.4572	5592.35	4700.55
1007.5596	2810.6294	5635.5	4742.15
1007.6785	2811.801	5655	4766.4
1007.7975	2812.972	5680.05	4791.65
1007.9163	2814.1423	5704.7	4814.8
1008.0352	2815.3119	5746.6	4856.65
1008.154	2816.4808	5761.3	4872.55
1008.2727	2817.6491	5794.7	4904.15
1008.3914	2818.8167	5823.85	4934.15
1008.5101	2819.9837	5868.85	4972.85
1008.6288	2821.15	5885	4994.5
1008.7474	2822.3157	5916.1	5024.65
1008.8659	2823.4807	5964.1	5073.15
1008.9844	2824.645	5971.5	5079.75
1009.1029	2825.8086	6019.15	5130.5
1009.2214	2826.9716	6041.4	5152.35
1009.3398	2828.134	6089.6	5199.25
1009.4581	2829.2957	6092.05	5200.6
1009.5764	2830.4567	6104.9	5216.75
1009.6947	2831.617	6109.2	5216.05
1009.813	2832.7767	6110	5220.1
1009.9312	2833.9358	6094.5	5206.85
1010.0493	2835.0941	6086.95	5194.65
1010.1675	2836.2519	6081.1	5191.15
1010.2855	2837.4089	6046.4	5155.15
1010.4036	2838.5653	6020.15	5130.95
1010.5216	2839.7211	6009.15	5121.45
1010.6396	2840.8761	6016.75	5125.55
1010.7575	2842.0306	6017.45	5128.9
1010.8754	2843.1843	6041.5	5150.65
1010.9932	2844.3374	6096.45	5206.25
1011.111	2845.4899	6149.05	5258.15
1011.2288	2846.6417	6197.9	5308.65
1011.3465	2847.7928	6262.7	5373.85
1011.4642	2848.9433	6326.15	5436.1
1011.5818	2850.0931	6377.95	5488
1011.6995	2851.2422	6441.05	5549.2
1011.817	2852.3907	6531.2	5640.9
1011.9345	2853.5385	6575.35	5684.4
1012.052	2854.6857	6618.6	5699.85
1012.1695	2855.8323	6631.75	5742.65
1012.2869	2856.9781	6670.8	5780.45
1012.4042	2858.1233	6703.7	5814.35
1012.5216	2859.2679	6736.25	5847.45
1012.6389	2860.4118	6765.1	5874.15
1012.7561	2861.555	6781.8	5887.2
1012.8733	2862.6976	6821.5	5928.85
1012.9905	2863.8395	6815.05	5924.65
1013.1076	2864.9808	6835.9	5946.3
1013.2247	2866.1214	6821.95	5931.9
1013.3417	2867.2614	6843.5	5953.35
1013.4587	2868.4007	6831.75	5938.9
1013.5757	2869.5393	6817.95	5926.65
1013.6926	2870.6773	6822.85	5929.7
1013.8095	2871.8146	6832.65	5939.85
1013.9263	2872.9513	6803.45	5910.15
1014.0431	2874.0874	6795.4	5907.25
1014.1599	2875.2227	6743.85	5853.1
1014.2766	2876.3574	6725.2	5835.35
1014.3933	2877.4915	6699.6	5809.75
1014.51	2878.6249	6659.85	5769.6
1014.6266	2879.7577	6629.35	5737.9
1014.7431	2880.8898	6597	5698.9
1014.8596	2882.0212	6555.2	5665.75
1014.9761	2883.152	6545.35	5655.35
1015.0925	2884.2821	6513.2	5621.25
1015.2089	2885.4116	6485.1	5596.65
1015.3253	2886.5405	6466.6	5577.65
1015.4416	2887.6686	6463.75	5569.55
1015.5579	2888.7962	6451	5560.85
1015.6741	2889.923	6433.1	5544.55
1015.7903	2891.0493	6442.75	5551.55
1015.9065	2892.1748	6417	5526.6
1016.0226	2893.2997	6438.7	5547.85
1016.1387	2894.424	6446.55	5555.9
1016.2547	2895.5476	6449.25	5559.75
1016.3707	2896.6706	6433.75	5544.4
1016.4866	2897.7929	6433.3	5542
1016.6025	2898.9145	6480.5	5589.35
1016.7184	2900.0355	6483.4	5591.6
1016.8342	2901.1559	6507.1	5617.3
1016.95	2902.2756	6521.65	5632.3
1017.0658	2903.3946	6536.55	5646.6
1017.1815	2904.513	6577.75	5685.45
1017.2971	2905.6308	6562.25	5671.1
1017.4127	2906.7479	6579.3	5688.65
1017.5283	2907.8643	6581.4	5690.65
1017.6439	2908.9801	6576.45	5686.95
1017.7594	2910.0953	6587.3	5696.95
1017.8748	2911.2098	6570.3	5675.7
1017.9902	2912.3236	6551.6	5653.2
1018.1056	2913.4368	6518.95	5626.55
1018.2209	2914.5494	6495.9	5606.5
1018.3362	2915.6613	6451.15	5557.5
1018.4515	2916.7725	6409.4	5517.65
1018.5667	2917.8831	6392.65	5504
1018.6819	2918.9931	6357.35	5465.25
1018.797	2920.1024	6320.55	5431.25
1018.9121	2921.211	6292.25	5402.7
1019.0271	2922.319	6253.4	5363.6
1019.1421	2923.4264	6223.45	5333.95
1019.2571	2924.5331	6187.05	5299.5
1019.372	2925.6391	6158.85	5270.1
1019.4869	2926.7445	6146.25	5257.95
1019.6017	2927.8493	6141.15	5251.1
1019.7165	2928.9534	6131.8	5239
1019.8313	2930.0569	6103.25	5210.6
1019.946	2931.1597	6099.45	5207.1
1020.0606	2932.2619	6051.25	5162.45
1020.1753	2933.3634	6052.2	5161.95
1020.2899	2934.4643	6033.05	5136.1
1020.4044	2935.5645	6010.05	5115.6
1020.5189	2936.6641	5977.35	5083.1
1020.6334	2937.763	5903.9	5016.85
1020.7478	2938.8613	5831.35	4941.05
1020.8622	2939.959	5776.9	4882.05
1020.9765	2941.056	5703.95	4814.85
1021.0908	2942.1523	5602.4	4711.55
1021.2051	2943.248	5499.65	4607.95
1021.3193	2944.3431	5410.5	4522.65
1021.4334	2945.4375	5299.85	4410.05
1021.5476	2946.5313	5172.85	4284.9
1021.6617	2947.6244	5070.15	4181.5
1021.7757	2948.7169	4969.2	4078.8
1021.8897	2949.8087	4862.3	3973.25
1022.0037	2950.8999	4752.2	3861.9
1022.1176	2951.9904	4677.85	3788.05
1022.2315	2953.0803	4585.6	3696.95
1022.3453	2954.1696	4513.4	3623.45
1022.4591	2955.2582	4463.45	3573.8
1022.5728	2956.3462	4391.45	3500.9
1022.6865	2957.4335	4340.7	3449.25
1022.8002	2958.5202	4294.25	3401.2
1022.9138	2959.6062	4241.65	3352.85
1023.0274	2960.6916	4230.8	3342
1023.141	2961.7764	4206.6	3317.05
1023.2545	2962.8605	4165.35	3275
1023.3679	2963.9439	4160.2	3271.8
1023.4813	2965.0267	4115.35	3225.65
1023.5947	2966.1089	4137.95	3223.65
1023.708	2967.1905	4088.4	3199.1
1023.8213	2968.2714	4069.5	3180.45
1023.9346	2969.3516	4063	3172.5
1024.0478	2970.4312	4055.4	3158.6
1024.1609	2971.5102	4048.9	3159.2
1024.274	2972.5885	4039.7	3149.75
1024.3871	2973.6662	4037.65	3142.2
1024.5002	2974.7432	4016.15	3127.6
1024.6132	2975.8196	4005.6	3116.1
1024.7261	2976.8954	3988.2	3100.6
1024.839	2977.9705	3965.45	3077.75
1024.9519	2979.045	3946.35	3058.45
1025.0647	2980.1188	3915.6	3027.6
1025.1775	2981.192	3892	3003.45
1025.2902	2982.2645	3854.95	2964.4
1025.4029	2983.3364	3801.7	2910.95
1025.5156	2984.4077	3765.3	2875.7
1025.6282	2985.4783	3742.85	2847.6
1025.7407	2986.5483	3697.65	2807.15
1025.8532	2987.6177	3666.3	2776.9
1025.9657	2988.6864	3618.2	2730.15
1026.0782	2989.7545	3580.5	2689.7
1026.1906	2990.8219	3563.35	2674.55
1026.3029	2991.8887	3514.05	2622.85
1026.4152	2992.9548	3489.55	2597.6
1026.5275	2994.0204	3425.1	2536.6
1026.6397	2995.0852	3393.5	2505.1
1026.7519	2996.1495	3359.3	2469.3
1026.864	2997.2131	3332.5	2443.25
1026.9761	2998.276	3311.75	2423.05
1027.0882	2999.3383	3287	2400.45
1027.2002	3000.4	3254.3	2366
1027.3122	3001.4611	3234.9	2346.4
1027.4241	3002.5215	3219.7	2330.8
1027.536	3003.5812	3196.6	2306.55
1027.6478	3004.6404	3156.95	2266.8
1027.7596	3005.6989	3162.5	2272.15
1027.8714	3006.7567	3138	2248.3
1027.9831	3007.8139	3127.35	2217.5
1028.0947	3008.8705	3104.2	2213
1028.2064	3009.9264	3088.95	2196.85
1028.3179	3010.9818	3089.7	2199.25
1028.4295	3012.0364	3080	2189.15
1028.541	3013.0905	3057.9	2168.15
1028.6524	3014.1439	3046.45	2157.8
1028.7638	3015.1966	3050.4	2161.85
1028.8752	3016.2487	3044.75	2153.15
1028.9865	3017.3002	3026.3	2132.25
1029.0978	3018.3511	3021	2132.05
1029.209	3019.4013	3022.4	2133.2
1029.3202	3020.4509	3022.75	2134.8
1029.4314	3021.4998	3015.4	2126.75
1029.5425	3022.5481	2998.85	2109.6
1029.6535	3023.5958	2988.45	2099.25
1029.7645	3024.6428	2991.6	2100.35
1029.8755	3025.6892	2978.65	2088.55
1029.9864	3026.735	2968.35	2078.2
1030.0973	3027.7802	2971.1	2080.35
1030.2082	3028.8247	2964.25	2074.95
1030.319	3029.8685	2950	2061.15
1030.4297	3030.9118	2939.9	2050.25
1030.5404	3031.9544	2937.9	2047.7
1030.6511	3032.9963	2934.6	2044.85
1030.7617	3034.0376	2932.75	2045.1
1030.8723	3035.0783	2940.7	2050.05
1030.9829	3036.1184	2927.9	2038
1031.0934	3037.1578	2946	2057
1031.2038	3038.1966	2917.05	2025.8
1031.3142	3039.2348	2908.7	2021.45
1031.4246	3040.2723	2908.55	2009.95
1031.5349	3041.3092	2900.5	2012.15
1031.6452	3042.3455	2899.6	2012.6
1031.7554	3043.3811	2883	1991.4
1031.8656	3044.4161	2871.55	1981.6
1031.9758	3045.4505	2864.6	1977.2
1032.0859	3046.4842	2858.95	1968.8
1032.1959	3047.5173	2840.5	1951.15
1032.3059	3048.5498	2829.45	1939.55
1032.4159	3049.5816	2808.3	1917.15
1032.5258	3050.6128	2805.95	1915.45
1032.6357	3051.6434	2789.55	1899.35
1032.7455	3052.6734	2784.95	1895.85
1032.8553	3053.7027	2773.95	1884.3
1032.9651	3054.7314	2762.15	1872.35
1033.0748	3055.7594	2744.7	1857.7
1033.1845	3056.7868	2736.1	1846.65
1033.2941	3057.8136	2723.85	1834.55
1033.4037	3058.8398	2700.1	1811.7
1033.5132	3059.8653	2699.1	1809.85
1033.6227	3060.8902	2687.45	1799.1
1033.7321	3061.9145	2668.7	1779.9
1033.8415	3062.9381	2661.95	1772.8
1033.9509	3063.9612	2663.5	1757.8
1034.0602	3064.9835	2632.9	1743.75
1034.1694	3066.0053	2636.35	1744.3
1034.2787	3067.0264	2600.45	1713.7
1034.3878	3068.0469	2608.3	1720.3
1034.497	3069.0668	2601.35	1709.35
1034.6061	3070.086	2576.9	1688.1
1034.7151	3071.1046	2568.65	1677.95
1034.8241	3072.1226	2559.35	1670.1
1034.9331	3073.1399	2532.9	1644.3
1035.042	3074.1567	2516.7	1627.3
1035.1508	3075.1727	2510.15	1618.3
1035.2597	3076.1882	2489.9	1599.85
1035.3684	3077.203	2478.95	1589.5
1035.4772	3078.2173	2472.2	1582.8
1035.5859	3079.2308	2465.5	1573.8
1035.6945	3080.2438	2443.15	1551.1
1035.8031	3081.2561	2430.65	1541.95
1035.9117	3082.2678	2420.35	1532
1036.0202	3083.2789	2402.75	1515.45
1036.1286	3084.2893	2404	1516.3
1036.2371	3085.2991	2384.8	1492.5
1036.3454	3086.3083	2371.35	1480.1
1036.4538	3087.3169	2357.75	1468.7
1036.562	3088.3248	2358.2	1467.85
1036.6703	3089.3321	2338.65	1446.6
1036.7785	3090.3388	2339.5	1450.05
1036.8866	3091.3449	2321.2	1434
1036.9948	3092.3503	2309.2	1415.5
1037.1028	3093.3551	2311.35	1424.55
1037.2108	3094.3593	2290.45	1402.2
1037.3188	3095.3629	2283.8	1395
1037.4267	3096.3658	2271.4	1381.25
1037.5346	3097.3681	2269.55	1380.4
1037.6425	3098.3698	2259.75	1369.5
1037.7503	3099.3708	2252.8	1357.85
1037.858	3100.3713	2236.85	1349.05
1037.9657	3101.3711	2233.8	1345.35
1038.0734	3102.3702	2348.4	1320.35
1038.181	3103.3688	2232.3	1342.15
1038.2886	3104.3667	2213.15	1327.7
1038.3961	3105.364	2200.6	1310.4
1038.5036	3106.3607	2186.95	1296.7
1038.611	3107.3568	2182.2	1292.6
1038.7184	3108.3522	2171.3	1283.9
1038.8257	3109.347	2179.2	1291.45
1038.933	3110.3412	2170.85	1278.1
1039.0403	3111.3348	2158.9	1270
1039.1475	3112.3277	2151.45	1262.4
1039.2547	3113.32	2137.6	1249.6
1039.3618	3114.3117	2131.85	1243.35
1039.4689	3115.3028	2118.6	1229.55
1039.5759	3116.2932	2126.2	1234.6
1039.6829	3117.2831	2106.6	1211.6
1039.7898	3118.2723	2100.65	1212
1039.8967	3119.2608	2100.9	1212.3
1040.0035	3120.2488	2085.9	1197.7
1040.1103	3121.2361	2091.85	1202.9
1040.2171	3122.2229	2079.35	1191.95
1040.3238	3123.209	2067.65	1177.9
1040.4305	3124.1944	2064.9	1178.8
1040.5371	3125.1793	2062.3	1171.45
1040.6437	3126.1635	2048.5	1157.65
1040.7502	3127.1471	2040.7	1152.4
1040.8567	3128.1301	2029.35	1141.8
1040.9631	3129.1125	2041.8	1153.45
1041.0695	3130.0942	2026.2	1138.1
1041.1759	3131.0753	2032.1	1134.05
1041.2822	3132.0558	2023.2	1132.55
1041.3884	3133.0357	2013.9	1125.4
1041.4946	3134.015	2004.95	1116.35
1041.6008	3134.9936	1996.7	1104.75
1041.7069	3135.9716	2013.3	1102.15
1041.813	3136.949	1990.9	1100.2
1041.919	3137.9258	1988.9	1093
1042.025	3138.902	1987.95	1095.65
1042.1309	3139.8775	1985.3	1098.1
1042.2368	3140.8524	1969.65	1080.6
1042.3427	3141.8267	1974.2	1085.95
1042.4485	3142.8004	1963.3	1073.6
1042.5542	3143.7735	1960.7	1066.25
1042.6599	3144.7459	1961.45	1070.5
1042.7656	3145.7178	1948.7	1057.95
1042.8712	3146.689	1934.95	1045.1
1042.9768	3147.6596	1938.65	1046.95
1043.0823	3148.6295	1922.85	1036.15
1043.1878	3149.5989	1910.7	1021.95
1043.2932	3150.5676	1918.75	1030
1043.3986	3151.5357	1910.35	1022.4
1043.5039	3152.5032	1909.5	1022.25
1043.6092	3153.4701	1910.35	1022.35
1043.7145	3154.4364	1901.65	1011.7
1043.8197	3155.402	1888.35	1001.1
1043.9248	3156.367	1876.9	984.7
1044.03	3157.3315	1920.6	988.9
1044.135	3158.2952	1880.55	990.85
1044.24	3159.2584	1867.15	979
1044.345	3160.221	1862.7	973.6
1044.4499	3161.1829	1859.8	970.2
1044.5548	3162.1442	1846.25	957.45
1044.6596	3163.105	1841.55	951.75
1044.7644	3164.065	1828.15	939.45
1044.8692	3165.0245	1831.1	938.5
1044.9739	3165.9834	1819.4	931.75
1045.0785	3166.9416	1815.1	926.9
1045.1831	3167.8993	1806.6	915.9
1045.2877	3168.8563	1808.65	918.6
1045.3922	3169.8127	1802.1	913.3
1045.4966	3170.7684	1795.35	907.9
1045.6011	3171.7236	1795.3	905.45
1045.7054	3172.6782	1792.85	902.5
1045.8098	3173.6321	1785.5	897.3
1045.914	3174.5854	1783.3	891.55
1046.0183	3175.5381	1777.3	886.25
1046.1224	3176.4902	1769.4	881.5
1046.2266	3177.4417	1762.75	875.75
1046.3307	3178.3926	1756.95	866.65
1046.4347	3179.3428	1755.45	869.3
1046.5387	3180.2924	1753.45	864.85
1046.6427	3181.2415	1745.2	857
1046.7466	3182.1899	1738.9	848.7
1046.8504	3183.1377	1738.35	849.45
1046.9542	3184.0848	1740.5	848.2
1047.058	3185.0314	1730.75	841.35
1047.1617	3185.9773	1716.65	828.5
1047.2654	3186.9227	1717.95	829.45
1047.369	3187.8674	1711.05	823.25
1047.4726	3188.8115	1711.45	818.9
1047.5761	3189.755	1700.7	812.85
1047.6796	3190.6979	1698.1	809.25
1047.783	3191.6402	1703.5	815.05
1047.8864	3192.5818	1698.4	809.8
1047.9898	3193.5229	1708.2	794.75
1048.0931	3194.4633	1687.4	796.05
1048.1963	3195.4031	1678.05	789.4
1048.2995	3196.3423	1677.75	789.45
1048.4027	3197.2809	1675.3	787.75
1048.5058	3198.2189	1667.95	779
1048.6089	3199.1563	1676.5	781.6
1048.7119	3200.0931	1660.3	771.7
1048.8148	3201.0292	1658.75	770.15
1048.9178	3201.9648	1656.1	765.25
1049.0206	3202.8997	1650.95	759.75
1049.1235	3203.834	1644.05	755.55
1049.2262	3204.7677	1637.75	748.5
1049.329	3205.7008	1637.25	746.65
1049.4317	3206.6333	1624.4	737
1049.5343	3207.5652	1636.5	746.65
1049.6369	3208.4964	1627.8	738.4
1049.7394	3209.4271	1623.5	735.35
1049.8419	3210.3571	1618.9	730.9
1049.9444	3211.2865	1617.6	729.15
1050.0468	3212.2154	1613.9	724
1050.1491	3213.1436	1615.8	725.45
1050.2514	3214.0712	1604.35	708.4
1050.3537	3214.9982	1612.25	725.45
1050.4559	3215.9246	1595.05	708.3
1050.5581	3216.8503	1584.6	696.85
1050.6602	3217.7755	1589.5	700
1050.7623	3218.7001	1587.45	701.2
1050.8643	3219.624	1576.95	686.55
1050.9663	3220.5473	1574.55	685.9
1051.0682	3221.4701	1571.8	680.95
1051.1701	3222.3922	1576.35	686
1051.2719	3223.3137	1569.55	680.05
1051.3737	3224.2346	1559.8	671.55
1051.4754	3225.1549	1563.3	676.15
1051.5771	3226.0746	1557.05	669.6
1051.6788	3226.9937	1559.8	670.95
1051.7804	3227.9121	1545.15	658.15
1051.8819	3228.83	1546	657.65
1051.9834	3229.7473	1543.2	653.95
1052.0849	3230.6639	1543.5	655.2
1052.1863	3231.5799	1534.7	646.7
1052.2876	3232.4954	1532.4	643.2
1052.3889	3233.4102	1532.05	642.15
1052.4902	3234.3244	1525.45	637.85
1052.5914	3235.238	1518.8	631.9
1052.6926	3236.151	1540.05	626.15
1052.7937	3237.0634	1506.5	619.7
1052.8948	3237.9752	1499.3	610.6
1052.9958	3238.8864	1504.85	616.15
1053.0968	3239.797	1500.2	610.75
1053.1977	3240.7069	1505.45	616.25
1053.2986	3241.6163	1502.5	612.15
1053.3994	3242.5251	1488.15	600.35
1053.5002	3243.4332	1490.1	602.8
1053.6009	3244.3408	1482	593.55
1053.7016	3245.2477	1474.25	585.3
1053.8022	3246.154	1483.15	592.7
1053.9028	3247.0598	1478.05	589.15
1054.0034	3247.9649	1467.95	578.3
1054.1039	3248.8694	1464.05	575.95
1054.2043	3249.7733	1471.2	581.7
1054.3047	3250.6766	1459.15	569.15
1054.4051	3251.5793	1455.65	566.25
1054.5054	3252.4814	1457.15	570.35
1054.6056	3253.3829	1449.8	564.2
1054.7058	3254.2838	1448.1	559.6
1054.806	3255.1841	1442.1	553.05
1054.9061	3256.0838	1432.55	543.3
1055.0061	3256.9829	1431.05	544.75
1055.1062	3257.8814	1432.8	543.9
1055.2061	3258.7792	1423.35	531.9
1055.306	3259.6765	1420.3	531.65
1055.4059	3260.5731	1412.2	525.45
1055.5057	3261.4692	1406.45	517.3
1055.6055	3262.3647	1403.95	514.25
1055.7052	3263.2595	1394.4	505.3
1055.8049	3264.1538	1390.4	503.45
1055.9045	3265.0474	1380.2	491.5
1056.0041	3265.9404	1367.85	478.45
1056.1036	3266.8329	1365.2	476.65
1056.2031	3267.7247	1364.2	465.7
1056.3025	3268.616	1346.05	457.2
1056.4019	3269.5066	1329.15	440
1056.5013	3270.3966	1325.6	436.85
1056.6005	3271.286	1301.8	414.1
