Software Version:	3.9.2.0
Unit SN:	10000200
Spectrometer SN:	6960
Date:	3/6/2024 9:51:50 AM
Data Line Index:	25
Spectral Points:	2048
Integration time (ms):	125
Averages:	20
Delay (ms):	30
Sequence Number:	1
Processing:	dark subtract
Laser Power (mW):	300
Laser Current (mA):	824
Laser Diode Temp (C):	25.1
Laser Case Temp (C):	24.4
System Temp (C):	24.2
Spectrometer Temp (C):	21.7
CCD Temp (C):	-0.009
Secondary Temp (C):	20.006
Heatsink Temp (C):	18.41
CCDPCB Temp (C):	30.693
SecondaryPCB Temp (C):	26.069

Wavelength	RamanShift	Raw Counts	Dark Subtracted
787.061	30.1047	443.15	36.5
787.2016	32.3739	441.9	35.85
787.3422	34.6426	446.1	39.05
787.4828	36.9109	449.5	40.8
787.6235	39.1787	458.35	45.3
787.7642	41.4461	462.85	45.4
787.9049	43.7131	467.5	47.8
788.0456	45.9796	475.7	53.25
788.1863	48.2456	481.95	55.35
788.3271	50.5112	486.25	55.3
788.4679	52.7764	494.8	61.55
788.6087	55.0411	503.1	64.9
788.7496	57.3054	509.25	63.55
788.8904	59.5692	519.25	75.1
789.0313	61.8326	525.9	79.1
789.1722	64.0955	532.75	82.4
789.3132	66.3579	545.85	90.05
789.4541	68.6199	559.6	100.75
789.5951	70.8815	577.15	113.25
789.7361	73.1426	625.6	159.85
789.8771	75.4032	724.95	253.95
790.0181	77.6634	969.2	495.2
790.1592	79.9231	1563.8	1083.45
790.3003	82.1824	2795.7	2308.15
790.4414	84.4412	4936.2	4433.9
790.5825	86.6995	7861.2	7346.4
790.7237	88.9574	10797.1	10268.9
790.8648	91.2148	12911.9	12373.1
791.006	93.4717	14116.65	13572.85
791.1472	95.7282	14646.95	14097.05
791.2885	97.9842	14932.4	14381.95
791.4297	100.2398	15021.5	14470.95
791.571	102.4949	15065.45	14510.15
791.7123	104.7495	15081.1	14521.35
791.8536	107.0036	15049.85	14487.95
791.9949	109.2573	15043.05	14483.1
792.1363	111.5105	15031.55	14466.25
792.2777	113.7632	15021.1	14458.15
792.4191	116.0154	15047.95	14471.25
792.5605	118.2672	15083	14512.9
792.7019	120.5185	15042.25	14469.05
792.8434	122.7693	15098.35	14523.9
792.9849	125.0197	15131.3	14555.25
793.1264	127.2696	15110.85	14527.3
793.2679	129.519	15168.15	14583.85
793.4094	131.7679	15199.75	14611.45
793.551	134.0163	15239.55	14648.5
793.6926	136.2642	15251.35	14659.2
793.8342	138.5117	15269.05	14673.25
793.9758	140.7587	15266.95	14668.05
794.1175	143.0052	15303.95	14701.15
794.2591	145.2512	15257.85	14653
794.4008	147.4967	15270.35	14663.95
794.5425	149.7417	15231.7	14627.2
794.6842	151.9863	15242.65	14630.9
794.826	154.2304	15273	14657.65
794.9677	156.4739	15210.55	14588.55
795.1095	158.717	15235.1	14614.8
795.2513	160.9596	15305.95	14678.5
795.3931	163.2017	15250.6	14622.5
795.535	165.4433	15270.05	14639.35
795.6768	167.6844	15257.7	14626.9
795.8187	169.925	15240.1	14606.3
795.9606	172.1651	15229	14593.2
796.1025	174.4047	15220.05	14578.45
796.2445	176.6439	15241.05	14600.05
796.3864	178.8825	15223.75	14578.1
796.5284	181.1206	15248.45	14599
796.6704	183.3582	15268.7	14615.45
796.8124	185.5954	15266.5	14612.8
796.9544	187.832	15276.7	14618.5
797.0965	190.0681	15299.7	14637.7
797.2386	192.3037	15348.75	14684.95
797.3806	194.5388	15330.8	14661.25
797.5228	196.7734	15384.05	14716.25
797.6649	199.0075	15437.4	14767.65
797.807	201.2411	15522.1	14852.35
797.9492	203.4742	15517	14842.85
798.0914	205.7068	15573.15	14893.25
798.2336	207.9389	15604.4	14923.4
798.3758	210.1704	15607.9	14933.85
798.518	212.4015	15580.15	14919.35
798.6603	214.632	15630.25	14978.75
798.8025	216.862	15656.75	14999.7
798.9448	219.0915	15673	15014.45
799.0871	221.3205	15714.7	15052.5
799.2294	223.549	15728.6	15071.55
799.3718	225.777	15737	15079.55
799.5141	228.0044	15764.7	15095.15
799.6565	230.2314	15829.35	15164.45
799.7989	232.4578	15776.5	15105.9
799.9413	234.6837	15798.75	15117.95
800.0837	236.909	15865.25	15182.7
800.2262	239.1339	15844.2	15139.55
800.3687	241.3582	15866.2	15173.7
800.5111	243.582	15866.7	15145.75
800.6536	245.8053	15875.85	15169.75
800.7961	248.0281	15853.2	15151.8
800.9387	250.2503	15872.05	15166.2
801.0812	252.472	15909.85	15201.05
801.2238	254.6932	15912.7	15205.5
801.3664	256.9139	15922.15	15210.05
801.509	259.134	15911.1	15198.5
801.6516	261.3536	15948.2	15235
801.7942	263.5727	15966.75	15251.85
801.9369	265.7912	16007.05	15293.1
802.0795	268.0092	16037.9	15326.2
802.2222	270.2267	16036.25	15323.6
802.3649	272.4436	16056.65	15340.05
802.5076	274.6601	16051.4	15322.45
802.6504	276.8759	16053.1	15331.45
802.7931	279.0913	16091.55	15370.2
802.9359	281.3061	16117.3	15393.55
803.0787	283.5204	16131.1	15402.6
803.2215	285.7341	16122.9	15391.45
803.3643	287.9473	16155.5	15415.5
803.5071	290.16	16146.2	15411
803.6499	292.3721	16112.25	15384.8
803.7928	294.5837	16122.3	15391.95
803.9357	296.7947	16105.75	15376.8
804.0786	299.0052	16087.35	15357.7
804.2215	301.2152	16043.55	15309.65
804.3644	303.4246	16091.6	15357.95
804.5074	305.6334	16079	15346.45
804.6503	307.8418	16063.7	15324.9
804.7933	310.0495	16048	15309.3
804.9363	312.2568	16015.6	15279.8
805.0793	314.4635	15939.25	15199
805.2223	316.6696	15941.6	15199.05
805.3653	318.8752	15878.35	15126.95
805.5084	321.0802	15851.65	15106.95
805.6514	323.2847	15869.55	15124.9
805.7945	325.4887	15796.95	15051.55
805.9376	327.692	15833.35	15084.3
806.0807	329.8949	15886.8	15137.85
806.2238	332.0972	15878.95	15127.95
806.367	334.2989	15914.25	15159.8
806.5101	336.5001	15885.5	15131.35
806.6533	338.7007	15867.95	15111.55
806.7965	340.9008	15886.85	15129.55
806.9397	343.1003	15852.25	15093.75
807.0829	345.2992	15850.2	15088.65
807.2261	347.4976	15804.85	15041.6
807.3693	349.6955	15795.85	15027.55
807.5126	351.8927	15801.6	15037.45
807.6559	354.0895	15789.25	15012.6
807.7991	356.2856	15798.7	15029.75
807.9424	358.4812	15742.8	14976.2
808.0857	360.6763	15767.4	14995.9
808.2291	362.8707	15723.7	14951.25
808.3724	365.0646	15746.9	14969.3
808.5158	367.258	15711.7	14934.3
808.6591	369.4508	15694.7	14911.15
808.8025	371.643	15722.35	14942.85
808.9459	373.8346	15695.4	14916.6
809.0893	376.0257	15693.3	14909
809.2327	378.2162	15659.15	14876.15
809.3762	380.4062	15648.15	14863.35
809.5196	382.5956	15623.05	14841.9
809.6631	384.7844	15609.55	14833.25
809.8066	386.9726	15557.4	14783.75
809.9501	389.1603	15550.4	14777
810.0936	391.3474	15523.15	14714.4
810.2371	393.5339	15530.4	14754.05
810.3806	395.7199	15466.6	14691.4
810.5241	397.9052	15475.1	14700.55
810.6677	400.09	15471.1	14692
810.8113	402.2743	15495	14714.7
810.9548	404.4579	15430.8	14648.75
811.0984	406.641	15478.7	14693.9
811.2421	408.8235	15549.9	14765.45
811.3857	411.0054	15572.05	14785.25
811.5293	413.1868	15638.95	14848.65
811.673	415.3675	15675.05	14881.75
811.8166	417.5477	15697	14899.85
811.9603	419.7273	15619.15	14822.95
812.104	421.9064	15480.4	14677.55
812.2477	424.0848	15416.6	14622.15
812.3914	426.2627	15369.85	14574.45
812.5351	428.4399	15336.45	14536.9
812.6788	430.6166	15270.85	14470.35
812.8226	432.7928	15242.2	14436.3
812.9663	434.9683	15187.45	14384.1
813.1101	437.1432	15153.35	14348.95
813.2539	439.3176	15058.55	14259.2
813.3977	441.4914	15035.4	14236.65
813.5415	443.6645	15058.6	14254.65
813.6853	445.8371	14984	14181.8
813.8291	448.0091	14898	14096.6
813.973	450.1806	14859	14054.1
814.1168	452.3514	14851.2	14043.55
814.2607	454.5216	14865.6	14051.5
814.4046	456.6913	14783.9	13975.25
814.5485	458.8603	14739.65	13933.8
814.6924	461.0288	14772.15	13966.9
814.8363	463.1967	14773.4	13967.75
814.9802	465.3639	14743.6	13935.8
815.1241	467.5306	14714.85	13905.65
815.2681	469.6967	14675.25	13869.45
815.412	471.8622	14623.05	13817.4
815.556	474.0271	14618.4	13809.95
815.7	476.1914	14619.8	13806.55
815.844	478.3551	14595.15	13785.35
815.988	480.5182	14647.05	13836.35
816.132	482.6807	14621.1	13810.5
816.276	484.8426	14629.95	13821.8
816.4201	487.0039	14652.05	13843.95
816.5641	489.1647	14703.45	13888.65
816.7082	491.3248	14731.85	13918.95
816.8522	493.4843	14705.35	13890.4
816.9963	495.6432	14697.65	13886.4
817.1404	497.8015	14633.3	13815.05
817.2845	499.9592	14620.45	13799.25
817.4286	502.1163	14616.3	13796.1
817.5727	504.2728	14541.45	13720.25
817.7168	506.4287	14597	13781.1
817.861	508.5839	14541.05	13724.8
818.0051	510.7386	14538.85	13721.05
818.1493	512.8927	14512.95	13688.45
818.2935	515.0461	14506.5	13684.5
818.4377	517.199	14498.5	13675.7
818.5818	519.3512	14502.4	13677.55
818.726	521.5029	14493.65	13664.65
818.8703	523.6539	14504	13680.95
819.0145	525.8043	14508.65	13681.75
819.1587	527.9541	14475.95	13644.15
819.303	530.1033	14447.75	13620.65
819.4472	532.2519	14396.95	13569.6
819.5915	534.3999	14365	13532.4
819.7357	536.5472	14369.75	13539.1
819.88	538.694	14366.75	13539.9
820.0243	540.8401	14366.5	13536.1
820.1686	542.9856	14368.4	13535.5
820.3129	545.1305	14364.4	13527.7
820.4572	547.2748	14386.65	13550.65
820.6016	549.4185	14353.05	13512.15
820.7459	551.5615	14318.45	13483.3
820.8902	553.704	14311.1	13474.4
821.0346	555.8458	14299.35	13465.55
821.1789	557.987	14327.35	13493.8
821.3233	560.1276	14308.3	13471.05
821.4677	562.2675	14349.7	13517.75
821.6121	564.4069	14322.3	13486.15
821.7565	566.5456	14338.35	13506.5
821.9009	568.6837	14320.35	13488.75
822.0453	570.8212	14232.05	13397.2
822.1897	572.958	14184.8	13348.85
822.3342	575.0942	14146.15	13313.2
822.4786	577.2299	14117.05	13282.45
822.6231	579.3648	14049.8	13218.65
822.7675	581.4992	13989.25	13158.5
822.912	583.6329	13948.6	13119.55
823.0565	585.766	13917.85	13085.35
823.201	587.8985	13900.55	13068.25
823.3454	590.0304	13878.4	13027.5
823.4899	592.1616	13868.25	13024.25
823.6345	594.2922	13871.2	13027.6
823.779	596.4222	13831.1	12985.9
823.9235	598.5515	13772.7	12929.2
824.068	600.6802	13763.3	12919.45
824.2126	602.8083	13649.95	12809.05
824.3571	604.9358	13681.25	12838.55
824.5017	607.0626	13627.7	12782.1
824.6462	609.1888	13594.75	12748
824.7908	611.3144	13592.15	12744.9
824.9354	613.4393	13601.8	12752.95
825.08	615.5636	13576.15	12728
825.2246	617.6873	13601.25	12753.65
825.3692	619.8103	13612.95	12762.85
825.5138	621.9327	13577.15	12726.6
825.6584	624.0544	13566.35	12720.3
825.803	626.1756	13551.55	12704.2
825.9477	628.2961	13484.75	12636.3
826.0923	630.4159	13446.85	12598.45
826.237	632.5351	13465.15	12614.6
826.3816	634.6537	13433.05	12580.95
826.5263	636.7716	13437.85	12586.65
826.6709	638.8889	13398.7	12543.7
826.8156	641.0056	13422.5	12568
826.9603	643.1216	13397.9	12541.9
827.105	645.237	13413.85	12558.8
827.2497	647.3518	13366.05	12516.55
827.3944	649.4659	13385.6	12537.5
827.5391	651.5793	13319.9	12469.7
827.6838	653.6922	13300.35	12452.5
827.8285	655.8043	13301.95	12451
827.9733	657.9159	13294.1	12439.45
828.118	660.0268	13255.35	12400.25
828.2627	662.137	13231.15	12376.15
828.4075	664.2466	13217.1	12358.2
828.5522	666.3556	13177.2	12319.35
828.697	668.4639	13145.9	12287.9
828.8418	670.5716	13167.05	12312.55
828.9865	672.6786	13164.7	12308.45
829.1313	674.785	13102	12244.75
829.2761	676.8907	13073.7	12216.5
829.4209	678.9958	13066.25	12212.5
829.5657	681.1002	13027.7	12171.5
829.7105	683.204	13006.5	12139.85
829.8553	685.3072	12998.7	12138.85
830.0001	687.4097	12948.45	12088
830.1449	689.5115	12991.85	12131.15
830.2898	691.6127	12962.75	12106.45
830.4346	693.7132	12941.25	12081.15
830.5794	695.8131	12962.25	12089.5
830.7243	697.9123	12944.35	12081.9
830.8691	700.0109	12935.55	12072
831.014	702.1089	12894.4	12032.95
831.1588	704.2061	12904.7	12042.7
831.3037	706.3028	12886.45	12020.8
831.4486	708.3987	12869.2	12005.55
831.5935	710.4941	12878.3	12017.15
831.7383	712.5887	12866.35	12003.25
831.8832	714.6827	12854.35	11988.1
832.0281	716.7761	12830.05	11968.35
832.173	718.8688	12807.3	11941.55
832.3179	720.9608	12811.6	11941.3
832.4628	723.0522	12812.95	11942.65
832.6077	725.1429	12793.5	11927.2
832.7527	727.233	12809.35	11940.15
832.8976	729.3224	12816.65	11949.4
833.0425	731.4112	12783.75	11916.15
833.1874	733.4993	12769	11900.15
833.3324	735.5867	12739.95	11871.6
833.4773	737.6735	12725.1	11855.6
833.6222	739.7596	12668.05	11799.4
833.7672	741.845	12656.55	11786.8
833.9122	743.9298	12608.65	11736.5
834.0571	746.014	12639.9	11769.65
834.2021	748.0974	12602.65	11730.9
834.347	750.1802	12553.8	11684.4
834.492	752.2624	12544.7	11673.4
834.637	754.3439	12469.95	11598.15
834.782	756.4247	12452.05	11568.85
834.9269	758.5048	12383.05	11513
835.0719	760.5843	12372.8	11502.3
835.2169	762.6631	12326.85	11454.25
835.3619	764.7413	12332.95	11460.15
835.5069	766.8188	12354.75	11479.2
835.6519	768.8956	12346.05	11474.9
835.7969	770.9718	12384.35	11514.8
835.9419	773.0473	12326.8	11454.6
836.0869	775.1221	12325.65	11453.35
836.232	777.1962	12258.75	11386.7
836.377	779.2697	12255.35	11381.15
836.522	781.3426	12286.5	11392.75
836.667	783.4147	12307.7	11433.5
836.8121	785.4862	12251.05	11378.6
836.9571	787.557	12198.75	11322.95
837.1021	789.6271	12160.45	11286.4
837.2472	791.6966	12058.75	11185.75
837.3922	793.7654	11960.6	11085.45
837.5373	795.8335	11993.55	11119.35
837.6823	797.901	11920	11045.85
837.8274	799.9678	11904.8	11027.45
837.9724	802.0339	11883.7	11006.05
838.1175	804.0993	11897.75	11010.05
838.2626	806.1641	11851.65	10972.05
838.4076	808.2282	11828.7	10952.85
838.5527	810.2916	11802.65	10924
838.6978	812.3544	11803	10926.9
838.8428	814.4164	11763.75	10887.55
838.9879	816.4778	11782.15	10900.55
839.133	818.5385	11733.05	10854.3
839.2781	820.5986	11746.7	10868.35
839.4232	822.658	11770.15	10888.4
839.5682	824.7166	11727.25	10847.95
839.7133	826.7747	11806.6	10926.15
839.8584	828.832	11778.1	10899.75
840.0035	830.8886	11797.8	10918.35
840.1486	832.9446	11794.65	10913
840.2937	834.9999	11746.8	10868.6
840.4388	837.0545	11680.7	10797.25
840.5839	839.1085	11626.35	10744.85
840.729	841.1618	11609.2	10722.7
840.8741	843.2143	11567.25	10686.5
841.0192	845.2662	11524.3	10641.9
841.1643	847.3175	11530.75	10650.15
841.3095	849.368	11500.4	10620.6
841.4546	851.4179	11450.15	10566.35
841.5997	853.467	11414.95	10533.25
841.7448	855.5155	11423.8	10544.1
841.8899	857.5633	11387	10504.2
842.0351	859.6105	11352.5	10475.25
842.1802	861.6569	11341.35	10459.7
842.3253	863.7027	11290.4	10405.7
842.4704	865.7478	11322.6	10439.4
842.6156	867.7922	11299.05	10414.9
842.7607	869.8359	11252.15	10369.85
842.9058	871.8789	11241.35	10357.2
843.0509	873.9212	11287.95	10371
843.1961	875.9629	11212	10327.25
843.3412	878.0039	11218.5	10334.25
843.4863	880.0441	11198.15	10315.9
843.6315	882.0837	11195.4	10313.5
843.7766	884.1226	11200.9	10313.55
843.9218	886.1609	11204.25	10323
844.0669	888.1984	11205.85	10321.2
844.212	890.2352	11254.75	10372.65
844.3572	892.2714	11214.6	10324.7
844.5023	894.3069	11230.9	10346.35
844.6475	896.3416	11144.75	10260.8
844.7926	898.3757	11127.3	10241.3
844.9377	900.4091	11106.35	10218.95
845.0829	902.4418	11089.4	10199.3
845.228	904.4739	11064.65	10176.35
845.3732	906.5052	11081.3	10191.3
845.5183	908.5358	11024.7	10138.8
845.6635	910.5658	11001.4	10115.15
845.8086	912.595	10959.05	10075.25
845.9538	914.6236	10915.1	10029.7
846.0989	916.6515	10920.5	10035.35
846.2441	918.6786	10892	10003.8
846.3892	920.7051	10885.05	9996.85
846.5344	922.7309	10881.45	9996.35
846.6795	924.756	10856.45	9971.2
846.8246	926.7804	10798.8	9911.55
846.9698	928.8041	10778.05	9889.15
847.1149	930.8272	10757.05	9868.9
847.2601	932.8495	10725.65	9836.25
847.4052	934.8711	10734	9842.8
847.5504	936.892	10674.3	9787.3
847.6955	938.9123	10654.2	9761.95
847.8407	940.9318	10646.4	9758.55
847.9858	942.9506	10617.3	9728.9
848.131	944.9688	10578.6	9690.8
848.2761	946.9862	10577.75	9688.35
848.4213	949.003	10531.3	9642.3
848.5664	951.019	10490.85	9602.75
848.7115	953.0344	10461.65	9572.5
848.8567	955.0491	10461.15	9569.15
849.0018	957.063	10403.35	9513.85
849.147	959.0763	10405.8	9516.05
849.2921	961.0888	10384.25	9493.55
849.4373	963.1007	10395.15	9507.2
849.5824	965.1119	10378.5	9490.35
849.7275	967.1223	10346.1	9462.75
849.8727	969.1321	10311	9425.15
850.0178	971.1412	10326.3	9441.8
850.1629	973.1495	10283.15	9394
850.3081	975.1572	10307.2	9372.8
850.4532	977.1641	10276.35	9385.95
850.5983	979.1704	10210.7	9320.5
850.7435	981.1759	10198.3	9305.2
850.8886	983.1808	10175.75	9281.9
851.0337	985.1849	10175.35	9274.95
851.1788	987.1884	10154.65	9264.1
851.324	989.1911	10136.5	9244.15
851.4691	991.1932	10110.9	9219.75
851.6142	993.1945	10068.3	9180.25
851.7593	995.1951	10044.15	9149.95
851.9045	997.1951	10025.65	9128
852.0496	999.1943	9968.05	9076.5
852.1947	1001.1928	9933.45	9041.65
852.3398	1003.1906	9909.35	9019
852.4849	1005.1877	9889.3	8999.3
852.63	1007.1841	9877.85	8988.5
852.7751	1009.1798	9847.2	8953.35
852.9202	1011.1748	9811.35	8919.6
853.0653	1013.1691	9781.8	8893.05
853.2104	1015.1627	9733.15	8843.4
853.3555	1017.1556	9662.3	8770.05
853.5006	1019.1477	9633.85	8743
853.6457	1021.1392	9599.25	8711.05
853.7908	1023.1299	9569.1	8682.4
853.9359	1025.12	9528.35	8641.15
854.081	1027.1093	9491.35	8607.6
854.2261	1029.0979	9464.6	8581.95
854.3712	1031.0859	9439.25	8553.05
854.5163	1033.0731	9440.35	8553.05
854.6613	1035.0596	9409.9	8520.9
854.8064	1037.0454	9360.4	8471.65
854.9515	1039.0304	9327.05	8433.65
855.0965	1041.0148	9291.5	8399.4
855.2416	1042.9985	9255.4	8362.2
855.3867	1044.9814	9270.55	8382
855.5317	1046.9636	9225.6	8331.6
855.6768	1048.9452	9181	8290.7
855.8219	1050.926	9164.25	8274.1
855.9669	1052.9061	9158.95	8266.95
856.112	1054.8855	9126.85	8234.3
856.257	1056.8642	9134.55	8242.5
856.4021	1058.8421	9142.15	8247.7
856.5471	1060.8194	9091.15	8198.5
856.6921	1062.7959	9077.95	8186.8
856.8372	1064.7717	9067.35	8175.95
856.9822	1066.7469	9020.45	8127
857.1272	1068.7213	9034.75	8139.25
857.2723	1070.695	9012.7	8121.9
857.4173	1072.6679	8982.75	8092.25
857.5623	1074.6402	8958.05	8063.15
857.7073	1076.6117	8988.65	8091.05
857.8523	1078.5826	8956.45	8062.4
857.9973	1080.5527	8911.9	8014.4
858.1423	1082.5221	8838.7	7944.1
858.2873	1084.4908	8852.4	7958.5
858.4323	1086.4587	8805	7911.75
858.5773	1088.426	8808.6	7914.55
858.7223	1090.3925	8783.55	7883.85
858.8673	1092.3584	8752.75	7860.85
859.0123	1094.3235	8716.7	7821.5
859.1573	1096.2879	8726.25	7832.5
859.3022	1098.2515	8694.85	7802.2
859.4472	1100.2145	8701.55	7809.55
859.5922	1102.1767	8688.85	7795.8
859.7371	1104.1382	8719.4	7827.7
859.8821	1106.099	8706	7809.4
860.027	1108.0591	8675.55	7784.2
860.172	1110.0185	8695.55	7799
860.3169	1111.9771	8717.3	7823.8
860.4619	1113.9351	8690.9	7795.9
860.6068	1115.8923	8669.1	7777.4
860.7517	1117.8488	8680.6	7786.45
860.8967	1119.8045	8643.7	7751.4
861.0416	1121.7596	8589.05	7696.85
861.1865	1123.7139	8506	7613.6
861.3314	1125.6675	8485.15	7590.1
861.4763	1127.6204	8477.75	7584.6
861.6212	1129.5726	8469.15	7572.35
861.7661	1131.524	8450.05	7557.05
861.911	1133.4748	8424.15	7529.4
862.0559	1135.4248	8365.25	7470.1
862.2008	1137.3741	8317.95	7426.25
862.3457	1139.3226	8310.8	7414.55
862.4905	1141.2705	8322.85	7427.25
862.6354	1143.2176	8297.55	7399.05
862.7803	1145.164	8273.5	7377.45
862.9251	1147.1097	8254.9	7359.75
863.07	1149.0546	8250.75	7352.1
863.2148	1150.9989	8212.05	7317.4
863.3597	1152.9424	8196.4	7302
863.5045	1154.8852	8178.7	7281.65
863.6493	1156.8272	8153.1	7257.45
863.7942	1158.7686	8155.85	7254.45
863.939	1160.7092	8139.1	7242.8
864.0838	1162.6491	8113.2	7218.65
864.2286	1164.5883	8121.9	7227.15
864.3734	1166.5267	8095.1	7200.4
864.5182	1168.4644	8092.9	7197.25
864.663	1170.4014	8110.7	7211.7
864.8078	1172.3377	8131.2	7240.55
864.9526	1174.2732	8115.35	7220.85
865.0974	1176.2081	8163.95	7270.6
865.2421	1178.1421	8202.65	7303.2
865.3869	1180.0755	8219.65	7325.5
865.5317	1182.0082	8203.4	7310.15
865.6764	1183.9401	8216.6	7320.55
865.8212	1185.8713	8154.25	7263.15
865.9659	1187.8017	8074	7181.8
866.1106	1189.7315	8032.4	7144.35
866.2554	1191.6605	7924.9	7037.95
866.4001	1193.5888	7900.95	7009.9
866.5448	1195.5163	7892.8	6999.25
866.6895	1197.4432	7841.3	6944.55
866.8342	1199.3693	7814	6920.85
866.9789	1201.2947	7776.8	6877.7
867.1236	1203.2193	7741.55	6846.65
867.2683	1205.1432	7726.95	6830
867.413	1207.0664	7702.45	6805.3
867.5576	1208.9889	7692.35	6793.5
867.7023	1210.9106	7657.45	6764.65
867.847	1212.8316	7652.7	6759.5
867.9916	1214.7519	7655	6750.2
868.1363	1216.6715	7599.6	6706.4
868.2809	1218.5903	7615.35	6719.75
868.4255	1220.5084	7605.95	6710.75
868.5701	1222.4257	7593.2	6699.25
868.7148	1224.3424	7547.1	6654.35
868.8594	1226.2583	7558.35	6659.9
869.004	1228.1735	7560.7	6663.55
869.1486	1230.0879	7525.55	6631.25
869.2932	1232.0016	7529.85	6634.75
869.4377	1233.9146	7522.35	6626.7
869.5823	1235.8269	7519.25	6623.55
869.7269	1237.7384	7523.15	6626.95
869.8715	1239.6492	7507.95	6613.4
870.016	1241.5592	7504.95	6608.55
870.1606	1243.4686	7488.6	6594.2
870.3051	1245.3772	7514.5	6618.3
870.4496	1247.285	7530.05	6635.2
870.5941	1249.1922	7547.55	6654.05
870.7387	1251.0986	7581.3	6685.15
870.8832	1253.0042	7569.55	6675.1
871.0277	1254.9092	7604.9	6709.9
871.1722	1256.8134	7626	6731.6
871.3167	1258.7169	7666.65	6773.3
871.4611	1260.6196	7642.9	6746.65
871.6056	1262.5216	7677.6	6782
871.7501	1264.4229	7655.45	6761.45
871.8945	1266.3234	7613.7	6719.9
872.039	1268.2232	7563.6	6666.45
872.1834	1270.1223	7543.6	6646.65
872.3278	1272.0207	7536.65	6641.25
872.4723	1273.9183	7495.75	6593.45
872.6167	1275.8151	7482.1	6585.55
872.7611	1277.7113	7498.3	6603.45
872.9055	1279.6067	7515.75	6621.7
873.0499	1281.5014	7580.45	6682.55
873.1943	1283.3953	7628.5	6731.55
873.3386	1285.2885	7709.9	6815.25
873.483	1287.181	7741.25	6845.15
873.6274	1289.0727	7761.35	6867.4
873.7717	1290.9637	7746.25	6851.7
873.9161	1292.854	7713.1	6817.3
874.0604	1294.7435	7641.3	6743.6
874.2047	1296.6323	7590.15	6694.55
874.349	1298.5204	7545.05	6645.45
874.4933	1300.4077	7492.3	6595
874.6376	1302.2943	7481.3	6586.55
874.7819	1304.1802	7448.3	6554.8
874.9262	1306.0653	7428.45	6531.5
875.0705	1307.9497	7401.55	6507.5
875.2147	1309.8333	7368.6	6474.1
875.359	1311.7162	7353.7	6458.8
875.5032	1313.5984	7333.95	6433.15
875.6475	1315.4798	7298.35	6401.95
875.7917	1317.3605	7283.4	6371.5
875.9359	1319.2405	7283.85	6385.1
876.0801	1321.1197	7276.55	6379.2
876.2243	1322.9982	7224.2	6322.7
876.3685	1324.876	7175	6278.1
876.5127	1326.753	7108.25	6211.25
876.6569	1328.6293	7095.9	6199.3
876.801	1330.5048	7043.25	6147.45
876.9452	1332.3796	7014.9	6119.45
877.0893	1334.2537	7001.9	6082.6
877.2335	1336.127	6953.6	6056.75
877.3776	1337.9996	6934.9	6037
877.5217	1339.8714	6888.75	5994.45
877.6658	1341.7426	6909.1	5970.15
877.8099	1343.6129	6855.85	5958.9
877.954	1345.4826	6834.25	5937.2
878.0981	1347.3515	6836.1	5936.55
878.2422	1349.2196	6820.1	5922.65
878.3862	1351.087	6810.45	5915.25
878.5303	1352.9537	6805.8	5909.5
878.6743	1354.8197	6801.2	5902.55
878.8184	1356.6849	6800.7	5903.9
878.9624	1358.5493	6794.9	5898.25
879.1064	1360.4131	6787.6	5890.45
879.2504	1362.276	6788.4	5894.85
879.3944	1364.1383	6795.6	5899.05
879.5384	1365.9998	6778.3	5873.45
879.6823	1367.8606	6763.35	5868.45
879.8263	1369.7206	6756.4	5859.65
879.9702	1371.5799	6735.35	5836.6
880.1142	1373.4384	6698.1	5802.4
880.2581	1375.2962	6704.05	5805.6
880.402	1377.1533	6637.45	5741.4
880.5459	1379.0096	6581.1	5685.55
880.6898	1380.8652	6562.4	5667.55
880.8337	1382.7201	6541.35	5647.15
880.9776	1384.5742	6506.6	5611.65
881.1215	1386.4275	6476.75	5580.7
881.2653	1388.2802	6446.1	5551.05
881.4092	1390.132	6423.6	5528.5
881.553	1391.9832	6427.15	5529.65
881.6968	1393.8336	6374.6	5477.65
881.8406	1395.6832	6370.5	5474.4
881.9844	1397.5322	6337.05	5442.05
882.1282	1399.3803	6316.75	5413.4
882.272	1401.2278	6283.3	5388.65
882.4158	1403.0745	6270.55	5374.3
882.5595	1404.9204	6221.5	5327.45
882.7033	1406.7656	6241.45	5344.45
882.847	1408.6101	6182.25	5285
882.9908	1410.4538	6165.1	5269.25
883.1345	1412.2968	6172.35	5275.15
883.2782	1414.139	6138	5242.3
883.4219	1415.9805	6155.25	5259.35
883.5656	1417.8213	6137.35	5232.55
883.7092	1419.6613	6104.9	5211.8
883.8529	1421.5006	6107.2	5210.7
883.9965	1423.3391	6124.05	5228.3
884.1402	1425.1769	6118.65	5218.25
884.2838	1427.0139	6143.9	5247.15
884.4274	1428.8502	6161.45	5263.1
884.571	1430.6858	6178	5279.55
884.7146	1432.5206	6173.25	5277.55
884.8582	1434.3547	6174.4	5276.15
885.0018	1436.188	6175.5	5278.45
885.1453	1438.0206	6141.65	5246.85
885.2889	1439.8524	6106.85	5210.65
885.4324	1441.6835	6111.15	5214.2
885.5759	1443.5139	6107.4	5208.35
885.7194	1445.3435	6088.7	5191.1
885.8629	1447.1724	6096.6	5201.55
886.0064	1449.0005	6086.4	5190.8
886.1499	1450.8279	6048.55	5152.65
886.2933	1452.6545	6044	5148.85
886.4368	1454.4804	6043.5	5148.6
886.5802	1456.3056	6051.15	5150.1
886.7237	1458.13	6010.15	5115.5
886.8671	1459.9536	6002.4	5106.3
887.0105	1461.7766	5962.1	5067.4
887.1539	1463.5987	5941.2	5042.65
887.2972	1465.4202	5923.55	5028.05
887.4406	1467.2409	5875	4977.7
887.584	1469.0608	5867.55	4969.35
887.7273	1470.88	5847.8	4951.7
887.8706	1472.6984	5801.95	4907.85
888.0139	1474.5161	5771.55	4874.85
888.1572	1476.3331	5754.15	4860.4
888.3005	1478.1493	5741.7	4845.7
888.4438	1479.9648	5757.4	4862.8
888.5871	1481.7795	5741.65	4844.1
888.7303	1483.5935	5716.05	4821.75
888.8736	1485.4067	5721.25	4826
889.0168	1487.2192	5709.8	4816.05
889.16	1489.031	5705.75	4807.1
889.3032	1490.842	5686.5	4789.45
889.4464	1492.6522	5685.7	4792.15
889.5896	1494.4618	5655.95	4759.45
889.7327	1496.2705	5668.25	4772.8
889.8759	1498.0785	5645.95	4749.2
890.019	1499.8858	5618.5	4722.25
890.1622	1501.6924	5610.5	4716.2
890.3053	1503.4981	5591.8	4695.65
890.4484	1505.3032	5572.45	4676
890.5914	1507.1075	5562.2	4667.3
890.7345	1508.911	5557.2	4662.95
890.8776	1510.7138	5541.7	4645.9
891.0206	1512.5159	5506.25	4610.95
891.1637	1514.3172	5512.6	4618.95
891.3067	1516.1178	5465	4570.2
891.4497	1517.9176	5479.25	4581.15
891.5927	1519.7166	5448.6	4554.7
891.7357	1521.515	5449.65	4550.35
891.8786	1523.3126	5428.85	4533.3
892.0216	1525.1094	5403.6	4506.7
892.1645	1526.9055	5387.2	4492.45
892.3074	1528.7008	5355.15	4463.05
892.4503	1530.4954	5313.9	4418.35
892.5932	1532.2893	5336	4443.45
892.7361	1534.0824	5307.45	4411.45
892.879	1535.8747	5273.15	4379.15
893.0218	1537.6663	5266.7	4374.1
893.1647	1539.4572	5245.9	4352.4
893.3075	1541.2473	5243.2	4347.6
893.4503	1543.0367	5226.6	4333.35
893.5931	1544.8253	5210.1	4312.85
893.7359	1546.6132	5199.9	4303.9
893.8787	1548.4003	5161.95	4259.45
894.0214	1550.1867	5174.2	4272.85
894.1642	1551.9723	5159.95	4265.65
894.3069	1553.7572	5159.8	4266.45
894.4496	1555.5414	5147.1	4254.7
894.5923	1557.3247	5155.4	4262.55
894.735	1559.1074	5153.65	4262.6
894.8777	1560.8893	5138.5	4247.3
895.0204	1562.6705	5151.1	4258.65
895.163	1564.4509	5148.05	4257.1
895.3056	1566.2305	5121.55	4233
895.4482	1568.0094	5126	4235.1
895.5908	1569.7876	5127.85	4236.6
895.7334	1571.565	5116.8	4226.15
895.876	1573.3417	5087.75	4196.45
896.0186	1575.1176	5081.2	4191.7
896.1611	1576.8928	5078.85	4188.7
896.3036	1578.6672	5067.8	4179.45
896.4461	1580.4409	5058.1	4171.35
896.5886	1582.2138	5038.75	4148.55
896.7311	1583.986	5053.5	4163.6
896.8736	1585.7575	5053.3	4162.5
897.0161	1587.5282	5057.85	4169
897.1585	1589.2981	5052.3	4166.9
897.3009	1591.0673	5059.45	4172.05
897.4433	1592.8358	5061.4	4175.75
897.5857	1594.6035	5056.45	4165
897.7281	1596.3704	5035.7	4145.3
897.8705	1598.1366	4999.2	4109.3
898.0128	1599.9021	4982.15	4093.9
898.1551	1601.6668	4944.1	4052
898.2975	1603.4308	4913.45	4021.4
898.4398	1605.194	4916.4	4023.4
898.5821	1606.9564	4902.95	4016.55
898.7243	1608.7182	4911.95	4021.55
898.8666	1610.4791	4939.6	4057.25
899.0088	1612.2394	4970.1	4087.7
899.1511	1613.9988	4995.05	4109.35
899.2933	1615.7576	5031.75	4144.35
899.4355	1617.5156	5033.75	4139.25
899.5776	1619.2728	5019.65	4130.35
899.7198	1621.0293	4973.9	4085.65
899.862	1622.785	4907.1	4015.45
900.0041	1624.54	4841.75	3953.2
900.1462	1626.2942	4754.55	3865.95
900.2883	1628.0477	4699.55	3809.8
900.4304	1629.8005	4652.35	3761.6
900.5725	1631.5525	4589.2	3701.8
900.7145	1633.3037	4552.05	3665.85
900.8566	1635.0542	4536.95	3650.3
900.9986	1636.804	4496.6	3608.85
901.1406	1638.553	4545	3574.85
901.2826	1640.3013	4445.65	3557.65
901.4245	1642.0488	4427.25	3540.15
901.5665	1643.7955	4404.55	3519.85
901.7085	1645.5416	4404.05	3518.5
901.8504	1647.2868	4391.65	3503.5
901.9923	1649.0313	4348.15	3460.9
902.1342	1650.7751	4345.35	3456
902.2761	1652.5181	4324.05	3438.55
902.4179	1654.2604	4315.45	3428.6
902.5598	1656.0019	4324.45	3436.6
902.7016	1657.7427	4321.45	3435.2
902.8434	1659.4828	4310.2	3422.7
902.9852	1661.222	4307.65	3418.3
903.127	1662.9606	4302.45	3415.85
903.2687	1664.6984	4318.6	3429.75
903.4105	1666.4354	4292.55	3402.1
903.5522	1668.1717	4281.75	3395.95
903.6939	1669.9072	4235.3	3346.15
903.8356	1671.642	4222.55	3331.65
903.9773	1673.3761	4187.75	3300.25
904.119	1675.1094	4155.95	3268.6
904.2606	1676.8419	4152.45	3266.25
904.4022	1678.5737	4121.05	3232.4
904.5439	1680.3048	4084.25	3195.65
904.6855	1682.0351	4060.85	3177.65
904.827	1683.7646	4060.15	3170.75
904.9686	1685.4934	4038.65	3149.15
905.1101	1687.2215	4002.1	3113.6
905.2517	1688.9488	3995.8	3107.85
905.3932	1690.6754	3984.45	3096.75
905.5347	1692.4012	3987	3097.95
905.6761	1694.1263	3964.7	3077.4
905.8176	1695.8506	3942.95	3054.55
905.9591	1697.5742	3941.9	3055.55
906.1005	1699.297	3919	3033.4
906.2419	1701.0191	3898	3014.35
906.3833	1702.7404	3887.2	3001.6
906.5246	1704.461	3867.75	2978.8
906.666	1706.1808	3850.2	2960.95
906.8073	1707.8999	3849.1	2962.45
906.9487	1709.6182	3822.85	2937.3
907.09	1711.3358	3839.85	2954.3
907.2313	1713.0527	3824.2	2941.25
907.3725	1714.7688	3803.6	2913.25
907.5138	1716.4841	3791.45	2905.3
907.655	1718.1987	3772.1	2881.2
907.7962	1719.9126	3777.9	2895.4
907.9374	1721.6257	3749.5	2861.6
908.0786	1723.338	3755.35	2869.9
908.2198	1725.0496	3743.85	2859.5
908.3609	1726.7605	3725.05	2836.95
908.502	1728.4706	3733.2	2846.45
908.6431	1730.18	3706.1	2820.6
908.7842	1731.8886	3712.75	2827.15
908.9253	1733.5964	3715.55	2824
909.0664	1735.3036	3701.2	2815.6
909.2074	1737.0099	3691.9	2807.2
909.3484	1738.7156	3695.4	2811.85
909.4894	1740.4204	3679.75	2793.75
909.6304	1742.1246	3691.4	2803.9
909.7714	1743.8279	3684.85	2797.2
909.9123	1745.5306	3669.05	2785.1
910.0532	1747.2325	3660.55	2778.1
910.1941	1748.9336	3659.3	2773.9
910.335	1750.634	3653.2	2766.1
910.4759	1752.3336	3635.3	2750.9
910.6168	1754.0325	3639.15	2755
910.7576	1755.7307	3623.85	2738.9
910.8984	1757.4281	3628.8	2743.25
911.0392	1759.1247	3624.5	2731.45
911.18	1760.8206	3634.6	2741.7
911.3208	1762.5158	3635.75	2745.85
911.4615	1764.2102	3606.6	2720.8
911.6022	1765.9039	3603	2718.7
911.7429	1767.5968	3589.95	2705.2
911.8836	1769.289	3587.55	2704.65
912.0243	1770.9804	3578.95	2692.05
912.1649	1772.6711	3577.9	2689.6
912.3056	1774.361	3574.55	2686.75
912.4462	1776.0502	3567.5	2680.65
912.5868	1777.7386	3549.6	2661.2
912.7274	1779.4263	3551.55	2666.3
912.8679	1781.1132	3542.35	2659.25
913.0084	1782.7994	3526.75	2639.9
913.149	1784.4849	3521.35	2640
913.2895	1786.1696	3536.95	2631.1
913.4299	1787.8535	3520	2635.45
913.5704	1789.5367	3513	2628.35
913.7108	1791.2192	3518.5	2634.05
913.8513	1792.9009	3518.9	2605.3
913.9917	1794.5818	3502	2614.9
914.132	1796.2621	3479.35	2594.7
914.2724	1797.9415	3473.35	2586.95
914.4128	1799.6202	3467	2580.6
914.5531	1801.2982	3463.85	2578.6
914.6934	1802.9755	3450.4	2564.05
914.8337	1804.6519	3451.1	2563.45
914.9739	1806.3277	3423.2	2539.95
915.1142	1808.0027	3412.75	2529.05
915.2544	1809.6769	3422.8	2539.8
915.3946	1811.3504	3409.3	2524.45
915.5348	1813.0231	3418	2532.8
915.675	1814.6951	3393.95	2509.55
915.8151	1816.3664	3401.7	2512.4
915.9553	1818.0369	3394.15	2508.75
916.0954	1819.7067	3379.1	2493.4
916.2355	1821.3757	3383.85	2495.95
916.3755	1823.044	3365.35	2479.95
916.5156	1824.7115	3368.95	2481.05
916.6556	1826.3783	3349.95	2466.05
916.7956	1828.0443	3350.6	2465.8
916.9356	1829.7096	3338.4	2451.3
917.0756	1831.3741	3340.55	2453.8
917.2155	1833.0379	3345	2457.25
917.3555	1834.701	3334.35	2448.35
917.4954	1836.3633	3327.3	2443.65
917.6353	1838.0248	3313.9	2426.35
917.7751	1839.6856	3314.2	2431.85
917.915	1841.3457	3313.8	2426.75
918.0548	1843.005	3297.2	2412.5
918.1946	1844.6636	3303.1	2421.55
918.3344	1846.3214	3285.6	2399.45
918.4742	1847.9785	3289.65	2408.05
918.6139	1849.6349	3280.95	2392.6
918.7537	1851.2904	3284.25	2389.35
918.8934	1852.9453	3271.9	2385.6
919.0331	1854.5994	3272.95	2384.4
919.1727	1856.2528	3258.6	2369.45
919.3124	1857.9054	3247.8	2362.65
919.452	1859.5572	3247.1	2361.6
919.5916	1861.2083	3245.4	2359.45
919.7312	1862.8587	3245.4	2359.55
919.8708	1864.5084	3234	2349
920.0103	1866.1572	3224.8	2340.05
920.1498	1867.8054	3225.7	2339.05
920.2893	1869.4528	3222	2335.4
920.4288	1871.0994	3212.95	2324.25
920.5683	1872.7453	3211.35	2327.15
920.7077	1874.3905	3201.75	2307.05
920.8471	1876.0349	3197.25	2310.7
920.9865	1877.6786	3179.05	2292.6
921.1259	1879.3215	3185.8	2298.5
921.2653	1880.9637	3176.7	2290.4
921.4046	1882.6051	3177.15	2294.2
921.5439	1884.2458	3174.15	2285.6
921.6832	1885.8858	3160.55	2276.8
921.8225	1887.525	3153.75	2268.85
921.9617	1889.1634	3140.65	2253.35
922.101	1890.8011	3151.05	2263.95
922.2402	1892.4381	3133.75	2248.3
922.3794	1894.0743	3128.6	2245.7
922.5185	1895.7098	3123.4	2237
922.6577	1897.3446	3127.6	2242.75
922.7968	1898.9786	3116.4	2226.35
922.9359	1900.6118	3107.45	2220.55
923.075	1902.2443	3103.25	2216.6
923.214	1903.8761	3084.2	2198.3
923.3531	1905.5071	3071.3	2183.6
923.4921	1907.1374	3074.85	2188.3
923.6311	1908.7669	3077	2192.35
923.77	1910.3957	3076.45	2193.55
923.909	1912.0237	3056	2171.45
924.0479	1913.651	3061.45	2174.7
924.1868	1915.2776	3043.15	2159.35
924.3257	1916.9034	3048.55	2164.4
924.4646	1918.5285	3029.2	2144.4
924.6034	1920.1528	3014.2	2129.5
924.7422	1921.7764	3012.75	2127.95
924.881	1923.3992	3008.95	2123.85
925.0198	1925.0213	2997.25	2110.3
925.1586	1926.6427	2980.5	2096.15
925.2973	1928.2633	3201.4	2069.65
925.436	1929.8832	3006.75	2117.55
925.5747	1931.5023	2989.65	2104.35
925.7134	1933.1207	2990.6	2105.6
925.852	1934.7383	2968.45	2085.35
925.9906	1936.3552	2960.65	2076.35
926.1292	1937.9714	2958.55	2074.2
926.2678	1939.5868	2952.55	2066.4
926.4064	1941.2015	2929.2	2039.9
926.5449	1942.8154	2939.1	2051.8
926.6834	1944.4286	2911.25	2026.35
926.8219	1946.041	2930.85	2023.85
926.9604	1947.6528	2904.7	2014.1
927.0988	1949.2637	2904.4	2021.3
927.2372	1950.8739	2898.9	2013.15
927.3756	1952.4834	2889.5	2003.9
927.514	1954.0921	2886.55	2001.9
927.6523	1955.7001	2889.75	2003.4
927.7907	1957.3074	2871	1986.95
927.929	1958.9139	2869.7	1985.9
928.0673	1960.5197	2871.2	1986.6
928.2055	1962.1247	2842.2	1956.5
928.3438	1963.729	2850.45	1969.75
928.482	1965.3325	2861.6	1955.2
928.6202	1966.9353	2828.95	1946.15
928.7584	1968.5374	2830.65	1947.95
928.8965	1970.1387	2815.95	1932.35
929.0346	1971.7393	2824.65	1940.5
929.1727	1973.3392	2824.85	1942.5
929.3108	1974.9383	2803.8	1921.2
929.4489	1976.5366	2799.35	1917.9
929.5869	1978.1342	2802.85	1917.75
929.7249	1979.7311	2802.25	1917.05
929.8629	1981.3273	2787.25	1903
930.0009	1982.9227	2773.9	1889.2
930.1388	1984.5173	2773.35	1893.15
930.2767	1986.1112	2766.3	1883.5
930.4146	1987.7044	2760.7	1878.45
930.5525	1989.2968	2756.15	1871
930.6904	1990.8885	2755.45	1869.05
930.8282	1992.4795	2755.2	1872.35
930.966	1994.0697	2749.65	1869.25
931.1038	1995.6592	2748.85	1866.6
931.2415	1997.2479	2744.25	1862.4
931.3793	1998.8359	2739.35	1855.15
931.517	2000.4232	2720.7	1840.5
931.6547	2002.0097	2735.75	1856.05
931.7923	2003.5955	2724.65	1842.8
931.93	2005.1805	2711.2	1826.75
932.0676	2006.7648	2722.15	1839.5
932.2052	2008.3484	2702.85	1821.45
932.3427	2009.9312	2710.9	1826.15
932.4803	2011.5133	2697.6	1817.7
932.6178	2013.0946	2700.45	1819.65
932.7553	2014.6752	2682.9	1800.75
932.8928	2016.2551	2693.2	1811.1
933.0302	2017.8342	2688.85	1808.25
933.1676	2019.4126	2675.1	1795.6
933.305	2020.9902	2675.6	1796.6
933.4424	2022.5672	2671.45	1788.1
933.5798	2024.1433	2670.6	1786.05
933.7171	2025.7188	2658.15	1780.05
933.8544	2027.2935	2657.85	1776.1
933.9917	2028.8674	2656.3	1777.45
934.129	2030.4406	2645.45	1764.15
934.2662	2032.0131	2632.6	1753.65
934.4034	2033.5849	2635.1	1750.35
934.5406	2035.1559	2639.4	1759.75
934.6778	2036.7261	2643.2	1761.55
934.8149	2038.2957	2627.9	1747.45
934.952	2039.8645	2634.3	1754.05
935.0891	2041.4325	2623.8	1739.7
935.2262	2042.9998	2623.8	1743
935.3632	2044.5664	2615.25	1732.8
935.5002	2046.1323	2615.2	1734.65
935.6372	2047.6974	2615.4	1734.5
935.7742	2049.2617	2613.4	1733.45
935.9111	2050.8254	2607.3	1721.6
936.048	2052.3883	2605.85	1724.9
936.1849	2053.9504	2602.8	1721.25
936.3218	2055.5118	2601.4	1721.9
936.4586	2057.0725	2595.5	1711.15
936.5955	2058.6325	2588.05	1705.8
936.7323	2060.1917	2581.15	1701.05
936.869	2061.7502	2594	1711.7
937.0058	2063.3079	2565.75	1687.1
937.1425	2064.8649	2584.9	1700.3
937.2792	2066.4212	2573.3	1692.35
937.4159	2067.9767	2551.75	1670.8
937.5525	2069.5315	2562.4	1679.55
937.6891	2071.0856	2556.1	1674.5
937.8257	2072.6389	2545.75	1663.4
937.9623	2074.1915	2551.45	1673.65
938.0989	2075.7433	2551.2	1670.5
938.2354	2077.2945	2539.15	1658.9
938.3719	2078.8448	2531.65	1651.3
938.5084	2080.3945	2536.5	1654.45
938.6448	2081.9434	2532.45	1652.25
938.7812	2083.4916	2526.95	1643.1
938.9176	2085.039	2519.35	1635.85
939.054	2086.5857	2519.6	1636.1
939.1903	2088.1317	2525.85	1643.5
939.3267	2089.677	2521.95	1637.7
939.463	2091.2215	2508.25	1624.6
939.5992	2092.7652	2511.2	1625.8
939.7355	2094.3083	2504.1	1619.6
939.8717	2095.8506	2513.85	1633.25
940.0079	2097.3921	2503.15	1621
940.1441	2098.933	2504.85	1624.9
940.2802	2100.4731	2498.6	1617.25
940.4163	2102.0124	2511	1614.55
940.5524	2103.5511	2492.45	1611.85
940.6885	2105.089	2489.35	1604.45
940.8245	2106.6261	2488.35	1606.55
940.9606	2108.1626	2482.75	1599.95
941.0965	2109.6983	2509.8	1599.95
941.2325	2111.2332	2483.8	1601.05
941.3684	2112.7675	2486.55	1602.2
941.5044	2114.301	2476.5	1593.95
941.6403	2115.8337	2469.7	1588.3
941.7761	2117.3657	2460.65	1579
941.912	2118.897	2462.45	1579.35
942.0478	2120.4276	2470	1580.25
942.1835	2121.9575	2453.65	1571.75
942.3193	2123.4866	2472.45	1573.75
942.455	2125.0149	2452.3	1567.95
942.5907	2126.5426	2443.55	1561.95
942.7264	2128.0695	2446.35	1561.2
942.8621	2129.5956	2444.3	1564.7
942.9977	2131.1211	2446.8	1561.2
943.1333	2132.6458	2434.5	1554.2
943.2689	2134.1698	2437.7	1555.55
943.4044	2135.693	2430.45	1544.2
943.54	2137.2155	2436.7	1552.5
943.6755	2138.7373	2430.45	1547.05
943.8109	2140.2584	2421.65	1539.3
943.9464	2141.7787	2426.6	1539.85
944.0818	2143.2983	2412	1530.8
944.2172	2144.8171	2405.95	1524.85
944.3526	2146.3353	2401.85	1518.05
944.4879	2147.8527	2401.5	1523.15
944.6232	2149.3693	2395.85	1514.5
944.7585	2150.8853	2392.2	1510.15
944.8938	2152.4005	2379.3	1496.75
945.029	2153.9149	2401.2	1518.2
945.1642	2155.4287	2389.15	1507.4
945.2994	2156.9417	2378.75	1495.1
945.4346	2158.454	2368.6	1484.65
945.5697	2159.9655	2366.2	1485.6
945.7048	2161.4764	2372.95	1492.65
945.8399	2162.9865	2364.8	1482.4
945.9749	2164.4958	2353.4	1471.05
946.1099	2166.0045	2360.2	1476.9
946.2449	2167.5124	2357.6	1478.05
946.3799	2169.0195	2344.65	1463
946.5148	2170.526	2345.7	1462.2
946.6498	2172.0317	2338.35	1457.4
946.7846	2173.5367	2342.1	1458.85
946.9195	2175.0409	2345.8	1464.2
947.0543	2176.5445	2349.8	1469.95
947.1891	2178.0473	2323.7	1440.25
947.3239	2179.5494	2324.15	1438.4
947.4587	2181.0507	2314.4	1432.5
947.5934	2182.5513	2311.45	1429.7
947.7281	2184.0512	2317.4	1434.7
947.8628	2185.5504	2313.95	1432.2
947.9974	2187.0488	2304.25	1423
948.132	2188.5465	2297.45	1415.5
948.2666	2190.0435	2300.05	1417.4
948.4012	2191.5397	2293.5	1413.25
948.5357	2193.0353	2290.8	1409.45
948.6702	2194.5301	2277.5	1394.15
948.8047	2196.0241	2280.55	1394.85
948.9392	2197.5175	2272.8	1390
949.0736	2199.0101	2270.95	1383.1
949.208	2200.502	2260.1	1378.55
949.3424	2201.9931	2252.25	1370.9
949.4767	2203.4835	2254.3	1372.4
949.611	2204.9733	2256.85	1369.1
949.7453	2206.4622	2251.75	1372.75
949.8796	2207.9505	2247.45	1364.6
950.0138	2209.438	2234.2	1356.25
950.148	2210.9248	2239.75	1359.45
950.2822	2212.4109	2230.85	1350.5
950.4164	2213.8962	2222.6	1336.65
950.5505	2215.3809	2218.2	1331.25
950.6846	2216.8648	2233.25	1351.3
950.8186	2218.3479	2220.35	1332.25
950.9527	2219.8304	2217.05	1329.65
951.0867	2221.3121	2207.05	1322.7
951.2207	2222.7931	2203.1	1321.65
951.3546	2224.2733	2184.05	1300.65
951.4886	2225.7529	2195.95	1313.05
951.6225	2227.2317	2180.85	1295.45
951.7563	2228.7098	2195	1315.2
951.8902	2230.1872	2177.95	1299.7
952.024	2231.6638	2177.3	1297.65
952.1578	2233.1397	2187.6	1302.25
952.2916	2234.6149	2171.3	1291.3
952.4253	2236.0894	2163.25	1282.2
952.559	2237.5632	2171.15	1277.95
952.6927	2239.0362	2152.55	1269.6
952.8263	2240.5085	2159.25	1278.65
952.9599	2241.9801	2150.6	1267.2
953.0935	2243.4509	2144.6	1261.7
953.2271	2244.921	2147	1264.25
953.3606	2246.3904	2136.55	1251.05
953.4941	2247.8591	2139.65	1258.1
953.6276	2249.3271	2130.15	1245.85
953.7611	2250.7943	2131.3	1250
953.8945	2252.2608	2127.45	1242.9
954.0279	2253.7266	2126.5	1243.2
954.1612	2255.1917	2110.1	1227.45
954.2946	2256.656	2105.75	1222.5
954.4279	2258.1197	2105.65	1223.65
954.5612	2259.5826	2105.75	1222.25
954.6944	2261.0447	2093.05	1208.15
954.8276	2262.5062	2098.15	1215.35
954.9608	2263.9669	2099.5	1214.4
955.094	2265.4269	2087	1206.75
955.2271	2266.8862	2091.05	1208
955.3602	2268.3448	2088.3	1206.5
955.4933	2269.8026	2089.9	1209.4
955.6264	2271.2598	2083.3	1199.8
955.7594	2272.7162	2072.3	1190.05
955.8924	2274.1719	2073.9	1192.2
956.0253	2275.6268	2086.75	1201.05
956.1583	2277.0811	2074.6	1193.35
956.2912	2278.5346	2069.55	1188.7
956.4241	2279.9874	2061.85	1180.7
956.5569	2281.4395	2054.15	1174.1
956.6897	2282.8908	2063.3	1175.9
956.8225	2284.3414	2054.75	1171.2
956.9553	2285.7914	2041.2	1160.95
957.088	2287.2406	2046.65	1159.8
957.2207	2288.689	2048.1	1166
957.3534	2290.1368	2040	1154.5
957.486	2291.5838	2028.55	1142.55
957.6186	2293.0302	2029.9	1143.25
957.7512	2294.4758	2028.5	1144.6
957.8838	2295.9206	2024.4	1139.4
958.0163	2297.3648	2019.3	1137.85
958.1488	2298.8082	2014.6	1131.65
958.2813	2300.251	2014.1	1130.65
958.4137	2301.693	2005.2	1119.35
958.5461	2303.1343	2011.95	1130.75
958.6785	2304.5748	1999.5	1114.05
958.8108	2306.0147	1991	1110
958.9432	2307.4538	1995.5	1110.15
959.0754	2308.8922	1993.35	1114.25
959.2077	2310.3299	1987.55	1106.55
959.3399	2311.7669	1986.25	1104.9
959.4721	2313.2031	1985.4	1103.8
959.6043	2314.6387	1976.9	1093.35
959.7365	2316.0735	1967.3	1085.3
959.8686	2317.5076	1969.5	1086.85
960.0006	2318.941	1976.5	1091.5
960.1327	2320.3737	1959.5	1076.45
960.2647	2321.8056	1956.6	1070.15
960.3967	2323.2369	1961.65	1078.25
960.5287	2324.6674	1958.5	1073.85
960.6606	2326.0972	1952.5	1068.6
960.7925	2327.5263	1957.5	1074.2
960.9244	2328.9547	1946.9	1063.1
961.0562	2330.3823	1942.7	1058
961.1881	2331.8092	1940.9	1055.4
961.3198	2333.2355	1940.8	1057.25
961.4516	2334.661	1936.1	1052.1
961.5833	2336.0858	1930.25	1044.8
961.715	2337.5098	1926.5	1043.1
961.8467	2338.9332	1923.85	1041.2
961.9783	2340.3558	1921.5	1034.7
962.1099	2341.7778	1916.2	1031.1
962.2415	2343.199	1908.85	1024.25
962.373	2344.6195	1902.85	1020.35
962.5045	2346.0393	1901.75	1020.2
962.636	2347.4583	1910.7	1027.1
962.7675	2348.8767	1897.5	1014.1
962.8989	2350.2943	1897.8	1013.15
963.0303	2351.7113	1895.5	1008.9
963.1617	2353.1275	1899.1	1015.65
963.293	2354.543	1897.6	1005.35
963.4243	2355.9578	1880.15	994.55
963.5556	2357.3718	1885.65	1005.15
963.6868	2358.7852	1872.4	986.8
963.818	2360.1978	1868.15	985.65
963.9492	2361.6098	1867.6	985.45
964.0803	2363.021	1863.8	979.25
964.2114	2364.4315	1869.25	986.5
964.3425	2365.8413	1855.5	969.75
964.4736	2367.2504	1855.85	974
964.6046	2368.6587	1844.95	961.65
964.7356	2370.0664	1838.4	954.25
964.8666	2371.4733	1848.6	963.55
964.9975	2372.8795	1835.8	951.2
965.1284	2374.285	1832.05	947.75
965.2593	2375.6899	1828.9	946.8
965.3901	2377.0939	1814.2	930.15
965.5209	2378.4973	1813.5	931.75
965.6517	2379.9	1808.6	923.85
965.7825	2381.3019	1812.9	931.05
965.9132	2382.7032	1810.55	928.75
966.0439	2384.1037	1810.85	928.05
966.1745	2385.5035	1795.85	913.45
966.3051	2386.9027	1797	915.35
966.4357	2388.3011	1802	916.2
966.5663	2389.6987	1781.2	897.25
966.6968	2391.0957	1784.45	901.15
966.8273	2392.492	1778.5	894.65
966.9578	2393.8876	1776.2	892.2
967.0882	2395.2824	1775	890.65
967.2186	2396.6765	1766.05	882.5
967.349	2398.07	1764.55	880.65
967.4793	2399.4627	1763.7	877.8
967.6097	2400.8547	1764.9	881.3
967.7399	2402.246	1772.15	882.45
967.8702	2403.6366	1756.85	872.35
968.0004	2405.0265	1746.35	863.35
968.1306	2406.4156	1749.2	861.2
968.2607	2407.8041	1740.95	852.6
968.3909	2409.1918	1740.25	852.75
968.521	2410.5789	1731.75	846.65
968.651	2411.9652	1740.4	854.15
968.781	2413.3508	1724.7	839.2
968.911	2414.7358	1721.6	837.65
969.041	2416.12	1715.2	830.8
969.1709	2417.5035	1710.8	826.15
969.3008	2418.8863	1712.4	827.5
969.4307	2420.2684	1710.3	824.6
969.5606	2421.6497	1713	827.55
969.6904	2423.0304	1709.65	824.95
969.8201	2424.4104	1701.35	816.75
969.9499	2425.7896	1697.35	810
970.0796	2427.1682	1701.75	820.35
970.2093	2428.546	1693.05	805.7
970.3389	2429.9232	1690.65	805.25
970.4685	2431.2996	1687.85	801.65
970.5981	2432.6753	1691.3	806.2
970.7277	2434.0503	1682.5	797.2
970.8572	2435.4246	1680.35	794.4
970.9867	2436.7982	1684.05	798.1
971.1161	2438.1711	1671.4	786.9
971.2456	2439.5433	1672.6	786.75
971.375	2440.9148	1673.35	785.2
971.5043	2442.2856	1661.35	778.45
971.6336	2443.6557	1658.55	772
971.7629	2445.025	1667.55	783.2
971.8922	2446.3937	1662.05	778.6
972.0214	2447.7617	1648.55	765.7
972.1506	2449.1289	1646.25	762.8
972.2798	2450.4955	1649.2	762.3
972.4089	2451.8613	1651.9	768.75
972.538	2453.2265	1644.5	759.7
972.6671	2454.5909	1650.5	766.05
972.7961	2455.9546	1647.75	763.55
972.9251	2457.3177	1629.55	745
973.0541	2458.68	1645.3	761.5
973.1831	2460.0416	1636	752.6
973.312	2461.4025	1636.9	751.3
973.4408	2462.7627	1639.4	745.45
973.5697	2464.1222	1623.65	743.3
973.6985	2465.4811	1629.25	748.15
973.8273	2466.8392	1620.8	738.45
973.956	2468.1966	1619.35	732.45
974.0847	2469.5533	1625.35	739.3
974.2134	2470.9093	1623.8	740.25
974.3421	2472.2645	1619.3	734.25
974.4707	2473.6191	1609.6	726.65
974.5993	2474.973	1613.7	728.95
974.7278	2476.3262	1608.2	723.05
974.8563	2477.6787	1603.3	719.35
974.9848	2479.0305	1602.4	718.4
975.1132	2480.3816	1599.9	714.6
975.2417	2481.7319	1601.45	717.85
975.37	2483.0816	1601.5	716.7
975.4984	2484.4306	1585.45	701.9
975.6267	2485.7789	1593.95	710.15
975.755	2487.1264	1579.55	693.65
975.8833	2488.4733	1586.35	703.4
976.0115	2489.8195	1581.45	691.1
976.1397	2491.165	1578.7	691.4
976.2678	2492.5097	1576.95	691.05
976.3959	2493.8538	1570.5	687.35
976.524	2495.1972	1578.15	693.5
976.6521	2496.5398	1567.9	681.85
976.7801	2497.8818	1568.35	680.25
976.9081	2499.2231	1552.2	668.25
977.036	2500.5637	1563.55	676
977.164	2501.9035	1562.1	677.1
977.2918	2503.2427	1563.95	675.8
977.4197	2504.5812	1549.65	665.2
977.5475	2505.919	1555.75	669.65
977.6753	2507.256	1549	665.6
977.8031	2508.5924	1540.9	656.7
977.9308	2509.9281	1551.1	660.7
978.0585	2511.2631	1531.75	647.15
978.1861	2512.5974	1539.15	657.15
978.3137	2513.9309	1538	655.05
978.4413	2515.2638	1560.75	649.15
978.5689	2516.596	1527.75	643.2
978.6964	2517.9275	1528	641.9
978.8239	2519.2583	1527.15	643.4
978.9513	2520.5884	1529.7	643.5
979.0788	2521.9178	1518.6	635.25
979.2062	2523.2465	1514.75	631
979.3335	2524.5745	1510.45	627.05
979.4608	2525.9018	1513.6	628.7
979.5881	2527.2284	1507.35	625.1
979.7154	2528.5543	1502.5	618.6
979.8426	2529.8796	1503.6	621.25
979.9698	2531.2041	1503.45	620.65
980.0969	2532.5279	1495.8	612.75
980.224	2533.851	1503.6	619.35
980.3511	2535.1735	1506.7	622.85
980.4781	2536.4952	1498.45	614.3
980.6052	2537.8163	1499.6	615.45
980.7321	2539.1366	1493.7	610.15
980.8591	2540.4562	1484.05	599.3
980.986	2541.7752	1491.5	607.4
981.1129	2543.0935	1487.15	603.9
981.2397	2544.411	1493.8	608
981.3665	2545.7279	1483.5	600.4
981.4933	2547.0441	1487.7	602.6
981.62	2548.3596	1484.3	598.15
981.7467	2549.6744	1476.75	594.6
981.8734	2550.9885	1493.8	600.75
982.0001	2552.3019	1475.95	593.45
982.1267	2553.6146	1479.2	594.3
982.2532	2554.9266	1471.35	587.3
982.3798	2556.2379	1466.4	580.6
982.5063	2557.5485	1462.2	578.3
982.6327	2558.8585	1472.25	579.2
982.7592	2560.1677	1466.5	577.85
982.8856	2561.4762	1460.55	575.85
983.0119	2562.7841	1466.4	579.35
983.1383	2564.0913	1458.1	576.85
983.2646	2565.3977	1459.65	576.5
983.3908	2566.7035	1461.05	578.75
983.517	2568.0086	1459.55	574.8
983.6432	2569.313	1464.1	579.75
983.7694	2570.6167	1462.25	572.8
983.8955	2571.9197	1457.95	573.25
984.0216	2573.222	1453.75	567.5
984.1476	2574.5236	1452.15	566.45
984.2737	2575.8246	1452.2	565.3
984.3996	2577.1248	1453.2	565.35
984.5256	2578.4244	1445.55	562.15
984.6515	2579.7232	1445.7	561.4
984.7774	2581.0214	1468.5	560.6
984.9032	2582.3189	1436.5	552.2
985.029	2583.6157	1445.5	557.05
985.1548	2584.9118	1443	558.55
985.2806	2586.2072	1434.7	550.9
985.4063	2587.5019	1434.6	551.3
985.5319	2588.7959	1429.55	543.35
985.6576	2590.0893	1436.2	550.05
985.7832	2591.3819	1436.25	554.6
985.9087	2592.6739	1427.2	545
986.0343	2593.9652	1420.15	535.55
986.1597	2595.2557	1428	544.5
986.2852	2596.5456	1423.6	539.2
986.4106	2597.8348	1419.8	537.15
986.536	2599.1234	1415.7	532.95
986.6614	2600.4112	1417.55	532.05
986.7867	2601.6983	1406.45	520.9
986.912	2602.9848	1409.3	524.7
987.0372	2604.2705	1412.5	520.45
987.1624	2605.5556	1413.4	529.9
987.2876	2606.84	1398.05	515.5
987.4128	2608.1237	1401.1	515
987.5379	2609.4067	1391.75	509.55
987.6629	2610.689	1402.75	510.75
987.788	2611.9707	1395.05	506.65
987.913	2613.2516	1390.55	504
988.0379	2614.5319	1390	505.85
988.1629	2615.8115	1384.4	498.2
988.2878	2617.0903	1380.3	494.8
988.4126	2618.3685	1381.1	495.2
988.5375	2619.6461	1369.2	485.95
988.6622	2620.9229	1371.45	487.65
988.787	2622.199	1377.45	493.3
988.9117	2623.4745	1371.95	488.65
989.0364	2624.7493	1375.15	492.05
989.161	2626.0234	1367.15	485.25
989.2857	2627.2968	1360.25	476.15
989.4102	2628.5695	1361.4	476.2
989.5348	2629.8415	1354	471.15
989.6593	2631.1128	1361.4	478.8
989.7837	2632.3835	1349.7	466.5
989.9082	2633.6535	1352.2	467.7
990.0326	2634.9228	1351.45	467.25
990.1569	2636.1914	1348.8	466.75
990.2812	2637.4593	1355.9	466.35
990.4055	2638.7265	1344.75	463
990.5298	2639.9931	1345.35	461.4
990.654	2641.259	1341.55	456.9
990.7782	2642.5242	1344.75	461.4
990.9023	2643.7887	1338.95	455
991.0264	2645.0525	1340.1	455.45
991.1505	2646.3156	1338.7	454.05
991.2745	2647.5781	1331.25	448.7
991.3985	2648.8398	1331.35	449.15
991.5225	2650.1009	1342.25	450.65
991.6464	2651.3613	1332.85	449.85
991.7703	2652.6211	1339.6	457.85
991.8942	2653.8801	1326.1	443.05
992.018	2655.1385	1325.05	439.95
992.1418	2656.3961	1320.65	437.55
992.2655	2657.6531	1329.65	446.3
992.3892	2658.9094	1320.8	435.6
992.5129	2660.1651	1317.7	434.7
992.6366	2661.42	1317.95	434.75
992.7602	2662.6743	1313.75	429.5
992.8837	2663.9279	1307.95	424.9
993.0073	2665.1808	1316.8	432.6
993.1307	2666.433	1312.95	428.3
993.2542	2667.6846	1315.25	433.35
993.3776	2668.9354	1310.8	424
993.501	2670.1856	1309.7	425.85
993.6244	2671.4351	1308.1	424.7
993.7477	2672.6839	1307.5	423.5
993.8709	2673.9321	1299.05	415.5
993.9942	2675.1795	1301.25	417.3
994.1174	2676.4263	1298.75	415.15
994.2405	2677.6724	1298.5	415.05
994.3637	2678.9179	1295.25	410.15
994.4868	2680.1626	1297.9	416.95
994.6098	2681.4067	1298.45	414.85
994.7328	2682.6501	1294.85	412.3
994.8558	2683.8928	1284.95	403.75
994.9788	2685.1348	1288.2	405.35
995.1017	2686.3761	1285.25	403
995.2245	2687.6168	1289.25	406.25
995.3474	2688.8568	1283.25	400.7
995.4702	2690.0961	1282.2	398.6
995.5929	2691.3348	1280.5	398.4
995.7156	2692.5727	1276.85	394.1
995.8383	2693.81	1276.15	394.65
995.961	2695.0466	1273.05	391.9
996.0836	2696.2826	1272.7	387.7
996.2062	2697.5178	1276.6	389.95
996.3287	2698.7524	1270.15	389.1
996.4512	2699.9863	1272.2	386.35
996.5737	2701.2195	1272.45	391.45
996.6961	2702.452	1278.05	394.85
996.8185	2703.6839	1266	381.6
996.9408	2704.9151	1268.15	385.6
997.0631	2706.1456	1263.8	379.15
997.1854	2707.3755	1263.6	380.45
997.3077	2708.6046	1260.25	376
997.4299	2709.8331	1259.6	375.45
997.552	2711.0609	1258.35	374.1
997.6742	2712.2881	1254.7	372.2
997.7963	2713.5145	1256	370.45
997.9183	2714.7403	1250.25	367.25
998.0403	2715.9654	1254.95	369.45
998.1623	2717.1899	1263.95	366.5
998.2842	2718.4136	1250.65	366.55
998.4062	2719.6367	1247.4	365.45
998.528	2720.8591	1253.1	361.65
998.6498	2722.0809	1255.15	371.2
998.7716	2723.3019	1249.5	363.25
998.8934	2724.5223	1241.4	359.25
999.0151	2725.7421	1240.1	355.35
999.1368	2726.9611	1243.3	359.9
999.2584	2728.1795	1245.75	357.3
999.38	2729.3972	1234.8	351.65
999.5016	2730.6142	1246.4	350.45
999.6231	2731.8306	1231.8	351
999.7446	2733.0462	1232.2	347.4
999.8661	2734.2612	1234.2	346.35
999.9875	2735.4756	1230.95	345.85
1000.1089	2736.6892	1228.2	345.35
1000.2302	2737.9022	1223.05	342.45
1000.3515	2739.1145	1215.95	331.45
1000.4728	2740.3262	1227.4	337.9
1000.594	2741.5372	1209.3	327.75
1000.7152	2742.7475	1215.4	333
1000.8363	2743.9571	1213.9	329.8
1000.9575	2745.1661	1218.85	332.3
1001.0785	2746.3744	1212.7	328.05
1001.1996	2747.582	1211.45	326.65
1001.3206	2748.7889	1208.6	326.85
1001.4415	2749.9952	1210.1	328.7
1001.5625	2751.2008	1203.15	320.7
1001.6833	2752.4057	1210.35	324.65
1001.8042	2753.61	1203.1	318.35
1001.925	2754.8136	1209	323.3
1002.0458	2756.0165	1201.2	319.35
1002.1665	2757.2188	1198.2	316.6
1002.2872	2758.4204	1203.2	321.95
1002.4078	2759.6213	1194.3	306.8
1002.5285	2760.8215	1198.95	312.5
1002.649	2762.0211	1197.15	312.45
1002.7696	2763.22	1191.55	305.15
1002.8901	2764.4182	1189.45	306.1
1003.0106	2765.6158	1189.65	305.55
1003.131	2766.8127	1186.1	303.95
1003.2514	2768.009	1183.3	301.8
1003.3717	2769.2045	1189.5	305.85
1003.492	2770.3994	1188.5	304.2
1003.6123	2771.5936	1181.8	299.25
1003.7325	2772.7872	1181.1	299.55
1003.8527	2773.9801	1180	296.35
1003.9729	2775.1723	1196.5	297.85
1004.093	2776.3639	1170.4	289.25
1004.2131	2777.5548	1172.2	285.6
1004.3331	2778.745	1178.5	291.8
1004.4531	2779.9346	1174.7	292.4
1004.5731	2781.1235	1173.2	290.65
1004.693	2782.3117	1171.05	288.95
1004.8129	2783.4992	1170.25	290.7
1004.9328	2784.6861	1166.45	284.3
1005.0526	2785.8723	1166.55	282.55
1005.1723	2787.0579	1167.5	284.6
1005.2921	2788.2428	1162.5	281.35
1005.4118	2789.427	1162.75	282.1
1005.5314	2790.6106	1165.05	282.25
1005.651	2791.7935	1158.4	274.55
1005.7706	2792.9757	1159.6	278.5
1005.8902	2794.1573	1161.3	277.6
1006.0097	2795.3382	1155.4	274.25
1006.1291	2796.5184	1159.8	277.9
1006.2485	2797.698	1160.4	276.05
1006.3679	2798.8769	1153.7	271.65
1006.4873	2800.0551	1145.8	262.6
1006.6066	2801.2327	1155.15	269.15
1006.7258	2802.4096	1149.85	268.4
1006.8451	2803.5859	1150.05	266.85
1006.9642	2804.7615	1152.35	268.3
1007.0834	2805.9364	1150.65	269.75
1007.2025	2807.1106	1148.05	266.8
1007.3216	2808.2842	1145.15	262.55
1007.4406	2809.4572	1146.2	264
1007.5596	2810.6294	1150.1	267.05
1007.6785	2811.801	1150.6	270.25
1007.7975	2812.972	1146.2	263.25
1007.9163	2814.1423	1147.65	265.95
1008.0352	2815.3119	1146.25	265.45
1008.154	2816.4808	1147.3	265.75
1008.2727	2817.6491	1148.35	266.2
1008.3914	2818.8167	1144.05	261.8
1008.5101	2819.9837	1153.8	267.75
1008.6288	2821.15	1150.5	268.5
1008.7474	2822.3157	1150.25	269.8
1008.8659	2823.4807	1156.15	275
1008.9844	2824.645	1160.3	275.8
1009.1029	2825.8086	1162.6	280.15
1009.2214	2826.9716	1165.5	285
1009.3398	2828.134	1167.15	286.05
1009.4581	2829.2957	1172.55	288.35
1009.5764	2830.4567	1169.85	290.15
1009.6947	2831.617	1179.1	297.6
1009.813	2832.7767	1173.6	292.05
1009.9312	2833.9358	1178	297.65
1010.0493	2835.0941	1177.25	295.2
1010.1675	2836.2519	1168.45	284.85
1010.2855	2837.4089	1167.15	284.75
1010.4036	2838.5653	1165	283.4
1010.5216	2839.7211	1157.15	277.8
1010.6396	2840.8761	1164.5	280.75
1010.7575	2842.0306	1156.9	275.45
1010.8754	2843.1843	1160.35	279.3
1010.9932	2844.3374	1162.1	281.65
1011.111	2845.4899	1162.25	279
1011.2288	2846.6417	1158.65	276.8
1011.3465	2847.7928	1158.5	277.05
1011.4642	2848.9433	1163.55	283.55
1011.5818	2850.0931	1162.55	281.2
1011.6995	2851.2422	1163.7	281.2
1011.817	2852.3907	1163	280.55
1011.9345	2853.5385	1160.25	274.9
1012.052	2854.6857	1172.95	280.7
1012.1695	2855.8323	1163.1	281.75
1012.2869	2856.9781	1162.65	281.05
1012.4042	2858.1233	1165.55	283.1
1012.5216	2859.2679	1162.8	281.85
1012.6389	2860.4118	1166.45	285.7
1012.7561	2861.555	1169.7	283.85
1012.8733	2862.6976	1167.85	284
1012.9905	2863.8395	1159.55	280.25
1013.1076	2864.9808	1167.45	285.8
1013.2247	2866.1214	1165.45	285.2
1013.3417	2867.2614	1174.1	292.65
1013.4587	2868.4007	1167.65	284.4
1013.5757	2869.5393	1164.9	279.05
1013.6926	2870.6773	1162.7	277
1013.8095	2871.8146	1168.75	283.35
1013.9263	2872.9513	1166.3	282.4
1014.0431	2874.0874	1167.85	287
1014.1599	2875.2227	1164.9	283
1014.2766	2876.3574	1168.05	286
1014.3933	2877.4915	1168	288.25
1014.51	2878.6249	1163.35	282.2
1014.6266	2879.7577	1167.65	283.65
1014.7431	2880.8898	1179.8	288.9
1014.8596	2882.0212	1168	288.85
1014.9761	2883.152	1165.25	283.2
1015.0925	2884.2821	1161.15	279.45
1015.2089	2885.4116	1166.3	285.75
1015.3253	2886.5405	1163.2	283.3
1015.4416	2887.6686	1175.4	291.3
1015.5579	2888.7962	1161.25	283.3
1015.6741	2889.923	1161.85	281.95
1015.7903	2891.0493	1161.5	280.75
1015.9065	2892.1748	1167	284.95
1016.0226	2893.2997	1169.2	288
1016.1387	2894.424	1159.1	279.65
1016.2547	2895.5476	1155.15	273.05
1016.3707	2896.6706	1157.9	277.35
1016.4866	2897.7929	1161.55	281
1016.6025	2898.9145	1157.05	274.7
1016.7184	2900.0355	1165.05	283.55
1016.8342	2901.1559	1158.5	275.55
1016.95	2902.2756	1157.8	276.8
1017.0658	2903.3946	1156.75	274.5
1017.1815	2904.513	1156.55	272.25
1017.2971	2905.6308	1152.85	272.4
1017.4127	2906.7479	1154.4	271.9
1017.5283	2907.8643	1151.8	270.75
1017.6439	2908.9801	1147.6	267.55
1017.7594	2910.0953	1148.2	267.3
1017.8748	2911.2098	1153.9	270.9
1017.9902	2912.3236	1154.35	265.4
1018.1056	2913.4368	1155.3	269.8
1018.2209	2914.5494	1143.7	262.5
1018.3362	2915.6613	1149.9	261.1
1018.4515	2916.7725	1142.75	260.05
1018.5667	2917.8831	1140.4	257.6
1018.6819	2918.9931	1137.05	251.55
1018.797	2920.1024	1137.15	255.45
1018.9121	2921.211	1131.3	251.3
1019.0271	2922.319	1128.15	247
1019.1421	2923.4264	1130.05	250.65
1019.2571	2924.5331	1133.95	254.3
1019.372	2925.6391	1129	249
1019.4869	2926.7445	1127.25	246.8
1019.6017	2927.8493	1133.05	252.55
1019.7165	2928.9534	1121.85	239.85
1019.8313	2930.0569	1129.65	246.8
1019.946	2931.1597	1130.4	247
1020.0606	2932.2619	1123	243.8
1020.1753	2933.3634	1122.1	240.9
1020.2899	2934.4643	1133.05	243.7
1020.4044	2935.5645	1132.65	246.05
1020.5189	2936.6641	1128.35	242.65
1020.6334	2937.763	1124.75	244.75
1020.7478	2938.8613	1130.05	249.15
1020.8622	2939.959	1131.35	245.95
1020.9765	2941.056	1116.5	234.95
1021.0908	2942.1523	1116.65	234.8
1021.2051	2943.248	1109.15	228.55
1021.3193	2944.3431	1104.4	222.7
1021.4334	2945.4375	1101.4	220.2
1021.5476	2946.5313	1098.95	220.4
1021.6617	2947.6244	1096.55	216.85
1021.7757	2948.7169	1090.15	209.65
1021.8897	2949.8087	1085.9	202.95
1022.0037	2950.8999	1076.65	195.7
1022.1176	2951.9904	1075.1	194.25
1022.2315	2953.0803	1077.8	195.8
1022.3453	2954.1696	1070.15	188.85
1022.4591	2955.2582	1067.35	186.25
1022.5728	2956.3462	1066.65	184.45
1022.6865	2957.4335	1063.05	180.85
1022.8002	2958.5202	1065.35	182.9
1022.9138	2959.6062	1057.8	177.3
1023.0274	2960.6916	1062.85	180.95
1023.141	2961.7764	1065.4	184.15
1023.2545	2962.8605	1059.95	179.2
1023.3679	2963.9439	1057.45	176.95
1023.4813	2965.0267	1064	182
1023.5947	2966.1089	1079.65	175.6
1023.708	2967.1905	1054.45	174.45
1023.8213	2968.2714	1053.85	173.55
1023.9346	2969.3516	1052.55	172.45
1024.0478	2970.4312	1064.35	177.25
1024.1609	2971.5102	1058.95	178.65
1024.274	2972.5885	1053.25	173.7
1024.3871	2973.6662	1057.5	171.1
1024.5002	2974.7432	1050.1	171.6
1024.6132	2975.8196	1050.95	169
1024.7261	2976.8954	1050.7	172.9
1024.839	2977.9705	1049.25	168.15
1024.9519	2979.045	1049	170.3
1025.0647	2980.1188	1044.1	162.65
1025.1775	2981.192	1047.65	168.75
1025.2902	2982.2645	1046	163.85
1025.4029	2983.3364	1044.1	163.25
1025.5156	2984.4077	1039.05	158.05
1025.6282	2985.4783	1043.75	154.95
1025.7407	2986.5483	1040.95	162.2
1025.8532	2987.6177	1038.05	159.85
1025.9657	2988.6864	1037.8	157.65
1026.0782	2989.7545	1036.6	154
1026.1906	2990.8219	1032.65	153.2
1026.3029	2991.8887	1029.15	146.15
1026.4152	2992.9548	1030.2	147.95
1026.5275	2994.0204	1028.3	147.45
1026.6397	2995.0852	1027.05	149.45
1026.7519	2996.1495	1025.4	144.3
1026.864	2997.2131	1024.65	144.55
1026.9761	2998.276	1019.4	139.05
1027.0882	2999.3383	1018.4	137.1
1027.2002	3000.4	1015.6	136.45
1027.3122	3001.4611	1012.55	131.1
1027.4241	3002.5215	1011.85	132
1027.536	3003.5812	1009.15	127.75
1027.6478	3004.6404	1011.3	130.05
1027.7596	3005.6989	1019	136.75
1027.8714	3006.7567	1008.7	127.7
1027.9831	3007.8139	1034.3	130.45
1028.0947	3008.8705	1010.7	131.05
1028.2064	3009.9264	1011.5	126.55
1028.3179	3010.9818	1006.75	126.3
1028.4295	3012.0364	1007	126.75
1028.541	3013.0905	1003.35	121.35
1028.6524	3014.1439	1004.55	122.85
1028.7638	3015.1966	999.5	118.85
1028.8752	3016.2487	1005.65	124.5
1028.9865	3017.3002	1009.45	123.4
1029.0978	3018.3511	1000.65	122.15
1029.209	3019.4013	1000.9	118.2
1029.3202	3020.4509	995.4	115
1029.4314	3021.4998	1000.8	117.6
1029.5425	3022.5481	1000.35	121.75
1029.6535	3023.5958	1003.45	122.85
1029.7645	3024.6428	995.9	116.6
1029.8755	3025.6892	998.9	117.8
1029.9864	3026.735	1000.05	119.25
1030.0973	3027.7802	997.7	115.25
1030.2082	3028.8247	998.2	117.2
1030.319	3029.8685	995.1	114.35
1030.4297	3030.9118	995.6	113.35
1030.5404	3031.9544	995.05	114.25
1030.6511	3032.9963	991.9	111.7
1030.7617	3034.0376	995.65	116.8
1030.8723	3035.0783	994.4	111.8
1030.9829	3036.1184	993.35	111.75
1031.0934	3037.1578	992.05	111.85
1031.2038	3038.1966	993.1	112.85
1031.3142	3039.2348	992.65	112.65
1031.4246	3040.2723	1002.4	113.15
1031.5349	3041.3092	990.3	112.15
1031.6452	3042.3455	990	110.6
1031.7554	3043.3811	991.8	112.9
1031.8656	3044.4161	989.9	109
1031.9758	3045.4505	992.2	114
1032.0859	3046.4842	991.8	109.35
1032.1959	3047.5173	990.45	111.35
1032.3059	3048.5498	989.45	107.95
1032.4159	3049.5816	993.2	111.8
1032.5258	3050.6128	992.1	109.55
1032.6357	3051.6434	989.6	108.8
1032.7455	3052.6734	986.1	105.85
1032.8553	3053.7027	986.4	106.55
1032.9651	3054.7314	986.15	108.1
1033.0748	3055.7594	986.6	108.4
1033.1845	3056.7868	986.8	106.4
1033.2941	3057.8136	984.5	105.7
1033.4037	3058.8398	983	104.1
1033.5132	3059.8653	983.1	103.15
1033.6227	3060.8902	982.65	101.5
1033.7321	3061.9145	982.75	101.85
1033.8415	3062.9381	985.8	104.85
1033.9509	3063.9612	997.15	103.9
1034.0602	3064.9835	984.05	105.65
1034.1694	3066.0053	986	102.75
1034.2787	3067.0264	978.35	99.15
1034.3878	3068.0469	979.45	97.55
1034.497	3069.0668	983.2	98.85
1034.6061	3070.086	978.5	101.3
1034.7151	3071.1046	980.75	100.25
1034.8241	3072.1226	983.5	102.85
1034.9331	3073.1399	982.05	103.7
1035.042	3074.1567	979.55	96.55
1035.1508	3075.1727	979.6	98.1
1035.2597	3076.1882	978.95	98.4
1035.3684	3077.203	973.6	94.55
1035.4772	3078.2173	975	93.75
1035.5859	3079.2308	981.4	98.1
1035.6945	3080.2438	976.95	94.2
1035.8031	3081.2561	973.8	94.2
1035.9117	3082.2678	975.2	93.55
1036.0202	3083.2789	975.1	96.8
1036.1286	3084.2893	972.1	92.05
1036.2371	3085.2991	975.45	95.3
1036.3454	3086.3083	974.4	90.05
1036.4538	3087.3169	972.75	91.65
1036.562	3088.3248	972	90.55
1036.6703	3089.3321	971.15	90.1
1036.7785	3090.3388	966.35	86.1
1036.8866	3091.3449	968.9	86.8
1036.9948	3092.3503	971.75	89.75
1037.1028	3093.3551	965.9	86.8
1037.2108	3094.3593	965.1	84.25
1037.3188	3095.3629	969.7	90.8
1037.4267	3096.3658	969.45	90.15
1037.5346	3097.3681	968.3	89.25
1037.6425	3098.3698	962.1	80.05
1037.7503	3099.3708	970.75	83.85
1037.858	3100.3713	963.4	83.4
1037.9657	3101.3711	966.65	85.4
1038.0734	3102.3702	1100.65	83.6
1038.181	3103.3688	966.85	83.7
1038.2886	3104.3667	961.9	81.7
1038.3961	3105.364	960.45	79.2
1038.5036	3106.3607	961.35	79.15
1038.611	3107.3568	964.7	83.8
1038.7184	3108.3522	958	79.5
1038.8257	3109.347	962.95	82.45
1038.933	3110.3412	963.05	77.75
1039.0403	3111.3348	960.15	81.3
1039.1475	3112.3277	958.15	78.95
1039.2547	3113.32	956.2	77.5
1039.3618	3114.3117	958.7	77.85
1039.4689	3115.3028	957.85	78.55
1039.5759	3116.2932	957.6	77.35
1039.6829	3117.2831	961.15	74.35
1039.7898	3118.2723	953.1	73.55
1039.8967	3119.2608	958.75	78.2
1040.0035	3120.2488	953.3	74.45
1040.1103	3121.2361	950.05	68.95
1040.2171	3122.2229	953.5	73.9
1040.3238	3123.209	951.95	71.25
1040.4305	3124.1944	950.95	71.15
1040.5371	3125.1793	953.75	71.55
1040.6437	3126.1635	953.95	76
1040.7502	3127.1471	953.85	75.35
1040.8567	3128.1301	948.4	70.6
1040.9631	3129.1125	950.8	71.85
1041.0695	3130.0942	947.4	67.5
1041.1759	3131.0753	958.3	70.8
1041.2822	3132.0558	951.85	68.75
1041.3884	3133.0357	952.15	70.65
1041.4946	3134.015	951.7	71.45
1041.6008	3134.9936	948.85	64.95
1041.7069	3135.9716	970.3	67.75
1041.813	3136.949	951.65	71.35
1041.919	3137.9258	953.7	66.3
1042.025	3138.902	957	72.8
1042.1309	3139.8775	945	67.2
1042.2368	3140.8524	948.35	68.05
1042.3427	3141.8267	950.25	71.85
1042.4485	3142.8004	949.35	70.3
1042.5542	3143.7735	954.2	69.1
1042.6599	3144.7459	946.35	63.1
1042.7656	3145.7178	945.05	65.75
1042.8712	3146.689	945.75	67
1042.9768	3147.6596	944.35	61.25
1043.0823	3148.6295	947.05	69.2
1043.1878	3149.5989	943	62.8
1043.2932	3150.5676	942	63.05
1043.3986	3151.5357	943.95	64.7
1043.5039	3152.5032	941.4	63.85
1043.6092	3153.4701	944.9	66.8
1043.7145	3154.4364	942.85	60.65
1043.8197	3155.402	939.7	61.55
1043.9248	3156.367	943.6	61.15
1044.03	3157.3315	977.95	58.2
1044.135	3158.2952	941.9	62.15
1044.24	3159.2584	939.6	59.5
1044.345	3160.221	939.75	57.85
1044.4499	3161.1829	943.3	63.4
1044.5548	3162.1442	937.15	57.7
1044.6596	3163.105	942.6	62.4
1044.7644	3164.065	938.8	60.6
1044.8692	3165.0245	941	59
1044.9739	3165.9834	934.35	55.25
1045.0785	3166.9416	935.2	54.4
1045.1831	3167.8993	936.55	57.25
1045.2877	3168.8563	936.05	57.25
1045.3922	3169.8127	933.4	52.95
1045.4966	3170.7684	939.15	59.85
1045.6011	3171.7236	935.75	55.4
1045.7054	3172.6782	936.15	55.55
1045.8098	3173.6321	936.1	56.85
1045.914	3174.5854	938.4	54.25
1046.0183	3175.5381	934.5	53.7
1046.1224	3176.4902	934.1	55.55
1046.2266	3177.4417	931.5	52
1046.3307	3178.3926	933.9	57.65
1046.4347	3179.3428	932.75	51.65
1046.5387	3180.2924	931.6	52.4
1046.6427	3181.2415	930.85	50.8
1046.7466	3182.1899	934.85	52.25
1046.8504	3183.1377	933.2	53.6
1046.9542	3184.0848	938.1	53.3
1047.058	3185.0314	931.75	53.75
1047.1617	3185.9773	933.4	54.35
1047.2654	3186.9227	931.6	49.25
1047.369	3187.8674	931.15	52.4
1047.4726	3188.8115	936.2	51.05
1047.5761	3189.755	931.05	52.05
1047.6796	3190.6979	929.65	49.6
1047.783	3191.6402	927.9	48.5
1047.8864	3192.5818	931.95	51.15
1047.9898	3193.5229	944.95	46.45
1048.0931	3194.4633	929.35	50.05
1048.1963	3195.4031	928.35	49.5
1048.2995	3196.3423	930.6	52.8
1048.4027	3197.2809	927	46.5
1048.5058	3198.2189	928.6	47.6
1048.6089	3199.1563	944.3	48.25
1048.7119	3200.0931	927.2	50
1048.8148	3201.0292	926.05	48.45
1048.9178	3201.9648	927.75	48.9
1049.0206	3202.8997	931.35	48.25
1049.1235	3203.834	929.2	48.4
1049.2262	3204.7677	926.7	46.5
1049.329	3205.7008	926.65	46.15
1049.4317	3206.6333	924.1	46.85
1049.5343	3207.5652	927.45	44.8
1049.6369	3208.4964	926.9	46.3
1049.7394	3209.4271	925.9	47.7
1049.8419	3210.3571	926.45	47.1
1049.9444	3211.2865	927.35	47.35
1050.0468	3212.2154	922.45	42.45
1050.1491	3213.1436	928.75	46.4
1050.2514	3214.0712	931.6	47.3
1050.3537	3214.9982	923.95	45.65
1050.4559	3215.9246	925.2	45.6
1050.5581	3216.8503	922.95	41.65
1050.6602	3217.7755	924.05	43
1050.7623	3218.7001	924.25	44.9
1050.8643	3219.624	920.55	42.1
1050.9663	3220.5473	922.8	41.9
1051.0682	3221.4701	923.85	44.35
1051.1701	3222.3922	924.05	42
1051.2719	3223.3137	924.45	45.1
1051.3737	3224.2346	923.1	42.7
1051.4754	3225.1549	918.55	40
1051.5771	3226.0746	920.5	43.4
1051.6788	3226.9937	922.05	40.85
1051.7804	3227.9121	919.65	41.6
1051.8819	3228.83	918.65	39.9
1051.9834	3229.7473	922.1	44.05
1052.0849	3230.6639	921.4	41.55
1052.1863	3231.5799	920.5	41.35
1052.2876	3232.4954	919.65	38.55
1052.3889	3233.4102	919.7	43.3
1052.4902	3234.3244	919.45	38.1
1052.5914	3235.238	919.85	40.9
1052.6926	3236.151	941.3	37.45
1052.7937	3237.0634	918.85	40.3
1052.8948	3237.9752	918.15	38.1
1052.9958	3238.8864	918.75	39.5
1053.0968	3239.797	917.85	37.25
1053.1977	3240.7069	916.7	35.1
1053.2986	3241.6163	920.7	40.3
1053.3994	3242.5251	915.65	34.85
1053.5002	3243.4332	914.75	36.1
1053.6009	3244.3408	919.4	40
1053.7016	3245.2477	915.6	36.1
1053.8022	3246.154	916.75	37.85
1053.9028	3247.0598	915.6	35.45
1054.0034	3247.9649	918.2	37.7
1054.1039	3248.8694	914.8	34.8
1054.2043	3249.7733	914	35.35
1054.3047	3250.6766	917.55	37.35
1054.4051	3251.5793	917.35	37.3
1054.5054	3252.4814	915.65	36.2
1054.6056	3253.3829	915	37.75
1054.7058	3254.2838	915.15	38.55
1054.806	3255.1841	914.45	36.15
1054.9061	3256.0838	911.65	32.85
1055.0061	3256.9829	910.6	32.5
1055.1062	3257.8814	912.8	31.7
1055.2061	3258.7792	912.65	30.85
1055.306	3259.6765	915.2	34.15
1055.4059	3260.5731	911.35	30.25
1055.5057	3261.4692	914.8	32.6
1055.6055	3262.3647	912.6	33.95
1055.7052	3263.2595	909.45	31.55
1055.8049	3264.1538	910.95	31.15
1055.9045	3265.0474	910.15	31.35
1056.0041	3265.9404	909.85	31
1056.1036	3266.8329	909.35	31.3
1056.2031	3267.7247	918.05	28.35
1056.3025	3268.616	906.8	29.15
1056.4019	3269.5066	905.65	26.45
1056.5013	3270.3966	908.55	26.45
1056.6005	3271.286	904.05	25.5
