Software Version:	3.9.2.0
Unit SN:	10000200
Spectrometer SN:	6960
Date:	3/6/2024 10:58:23 AM
Data Line Index:	25
Spectral Points:	2048
Integration time (ms):	125
Averages:	20
Delay (ms):	30
Sequence Number:	1
Processing:	dark subtract
Laser Power (mW):	300
Laser Current (mA):	824
Laser Diode Temp (C):	25.1
Laser Case Temp (C):	28
System Temp (C):	27.9
Spectrometer Temp (C):	25.4
CCD Temp (C):	0.005
Secondary Temp (C):	20.004
Heatsink Temp (C):	23.672
CCDPCB Temp (C):	37.118
SecondaryPCB Temp (C):	34.673

Wavelength	RamanShift	Raw Counts	Dark Subtracted
787.061	30.1047	1086.8	673.05
787.2016	32.3739	1115.45	701.8
787.3422	34.6426	1159.15	746.3
787.4828	36.9109	1207.15	791.6
787.6235	39.1787	1255.35	834.95
787.7642	41.4461	1311.15	886.4
787.9049	43.7131	1380.65	952.85
788.0456	45.9796	1432.9	1002.3
788.1863	48.2456	1501.7	1067.9
788.3271	50.5112	1568.75	1129
788.4679	52.7764	1640.75	1199.95
788.6087	55.0411	1712.65	1268.4
788.7496	57.3054	1788.3	1337.15
788.8904	59.5692	1886.35	1433.05
789.0313	61.8326	1975.25	1520.1
789.1722	64.0955	2069.65	1609.85
789.3132	66.3579	2196.6	1731.65
789.4541	68.6199	2335.35	1867.95
789.5951	70.8815	2579.65	2108.7
789.7361	73.1426	3056.45	2582.45
789.8771	75.4032	4269.4	3789.5
790.0181	77.6634	7366.85	6881.95
790.1592	79.9231	15263.85	14774.5
790.3003	82.1824	49409.6	48910.85
790.4414	84.4412	65535	65020.05
790.5825	86.6995	65535	64994.2
790.7237	88.9574	65535	64977.1
790.8648	91.2148	65535	64956.95
791.006	93.4717	65535	64948.3
791.1472	95.7282	65535	64942
791.2885	97.9842	65535	64941.05
791.4297	100.2398	65535	64938.7
791.571	102.4949	65535	64930.55
791.7123	104.7495	65535	64927.65
791.8536	107.0036	65535	64930.4
791.9949	109.2573	65535	64927
792.1363	111.5105	65535	64928.4
792.2777	113.7632	65535	64929.9
792.4191	116.0154	65535	64915.35
792.5605	118.2672	65535	64920.55
792.7019	120.5185	65535	64919.25
792.8434	122.7693	65535	64917.45
792.9849	125.0197	65535	64916.35
793.1264	127.2696	65535	64911.75
793.2679	129.519	65535	64908.35
793.4094	131.7679	65535	64906.8
793.551	134.0163	65535	64901.2
793.6926	136.2642	65535	64898.55
793.8342	138.5117	65535	64887.7
793.9758	140.7587	65535	64892.95
794.1175	143.0052	65535	64891.85
794.2591	145.2512	65535	64891.05
794.4008	147.4967	65535	64890.05
794.5425	149.7417	65535	64889.3
794.6842	151.9863	65535	64884.35
794.826	154.2304	65535	64882.15
794.9677	156.4739	65535	64872.75
795.1095	158.717	65535	64873.15
795.2513	160.9596	65535	64869.5
795.3931	163.2017	65535	64867.7
795.535	165.4433	65535	64867.35
795.6768	167.6844	65535	64864.65
795.8187	169.925	65535	64860.9
795.9606	172.1651	65535	64862.75
796.1025	174.4047	65535	64856.25
796.2445	176.6439	65535	64854.95
796.3864	178.8825	65535	64851.7
796.5284	181.1206	65535	64848.1
796.6704	183.3582	65535	64843.5
796.8124	185.5954	65535	64840.9
796.9544	187.832	65535	64837.9
797.0965	190.0681	65535	64839.4
797.2386	192.3037	65535	64832.95
797.3806	194.5388	65535	64829.4
797.5228	196.7734	65535	64827.3
797.6649	199.0075	65535	64824.4
797.807	201.2411	65535	64824.55
797.9492	203.4742	65535	64821.75
798.0914	205.7068	65535	64818.85
798.2336	207.9389	65535	64818.15
798.3758	210.1704	65535	64817.55
798.518	212.4015	65535	64813.05
798.6603	214.632	65535	64817.25
798.8025	216.862	65535	64826.7
798.9448	219.0915	65535	64833.65
799.0871	221.3205	65535	64833.6
799.2294	223.549	65535	64838.65
799.3718	225.777	65535	64837.2
799.5141	228.0044	65535	64832.5
799.6565	230.2314	65535	64832.9
799.7989	232.4578	65535	64837.4
799.9413	234.6837	65535	64826.9
800.0837	236.909	65535	64828.35
800.2262	239.1339	65535	64799.85
800.3687	241.3582	65535	64814.15
800.5111	243.582	65535	64781.6
800.6536	245.8053	65535	64794.2
800.7961	248.0281	65535	64800.8
800.9387	250.2503	65535	64796.45
801.0812	252.472	65535	64791.6
801.2238	254.6932	65535	64788.35
801.3664	256.9139	65535	64784.7
801.509	259.134	65535	64784.75
801.6516	261.3536	65535	64787
801.7942	263.5727	65535	64785.75
801.9369	265.7912	65535	64787.35
802.0795	268.0092	65535	64782.65
802.2222	270.2267	65535	64784.05
802.3649	272.4436	65535	64782.45
802.5076	274.6601	65535	64774.4
802.6504	276.8759	65535	64777.8
802.7931	279.0913	65535	64776.8
802.9359	281.3061	65535	64777
803.0787	283.5204	65535	64774.05
803.2215	285.7341	65535	64770.1
803.3643	287.9473	65535	64757.4
803.5071	290.16	65535	64761.3
803.6499	292.3721	65535	64769.7
803.7928	294.5837	65535	64769
803.9357	296.7947	65535	64768.85
804.0786	299.0052	65535	64768.05
804.2215	301.2152	65535	64765.6
804.3644	303.4246	65535	64767.9
804.5074	305.6334	65535	64768.95
804.6503	307.8418	65535	64763.9
804.7933	310.0495	65535	64764.9
804.9363	312.2568	65535	64763.3
805.0793	314.4635	65535	64762.7
805.2223	316.6696	65535	64759.1
805.3653	318.8752	65535	64753
805.5084	321.0802	65535	64758.8
805.6514	323.2847	65535	64759.25
805.7945	325.4887	65535	64758.05
805.9376	327.692	65535	64755.65
806.0807	329.8949	65535	64753.35
806.2238	332.0972	65535	64753.4
806.367	334.2989	65535	64747.8
806.5101	336.5001	65535	64749.15
806.6533	338.7007	65535	64752.45
806.7965	340.9008	65535	64747.2
806.9397	343.1003	65535	64745.15
807.0829	345.2992	65535	64744.9
807.2261	347.4976	65535	64740.65
807.3693	349.6955	65535	64738.45
807.5126	351.8927	65535	64738.7
807.6559	354.0895	65535	64727.7
807.7991	356.2856	65535	64736.6
807.9424	358.4812	65535	64740.95
808.0857	360.6763	65535	64736.6
808.2291	362.8707	65535	64736.1
808.3724	365.0646	65535	64734.25
808.5158	367.258	65535	64732.85
808.6591	369.4508	65535	64726.85
808.8025	371.643	65535	64725.55
808.9459	373.8346	65535	64725.2
809.0893	376.0257	65535	64724.6
809.2327	378.2162	65535	64724.8
809.3762	380.4062	65535	64716.65
809.5196	382.5956	65535	64718.85
809.6631	384.7844	65535	64721.55
809.8066	386.9726	65535	64720.9
809.9501	389.1603	65535	64721.25
810.0936	391.3474	65535	64679.15
810.2371	393.5339	65535	64725.4
810.3806	395.7199	65535	64723
810.5241	397.9052	65535	64730.05
810.6677	400.09	65535	64726.85
810.8113	402.2743	65535	64728.3
810.9548	404.4579	65535	64727.85
811.0984	406.641	65535	64725.85
811.2421	408.8235	65535	64726.2
811.3857	411.0054	65535	64724.4
811.5293	413.1868	65535	64718.9
811.673	415.3675	65535	64718.8
811.8166	417.5477	65535	64720.05
811.9603	419.7273	65535	64715.75
812.104	421.9064	65535	64709.9
812.2477	424.0848	65535	64713.55
812.3914	426.2627	65535	64709.3
812.5351	428.4399	65535	64709.85
812.6788	430.6166	65535	64705.9
812.8226	432.7928	65535	64704.85
812.9663	434.9683	65535	64704.8
813.1101	437.1432	65535	64702.9
813.2539	439.3176	65535	64701.1
813.3977	441.4914	65535	64706
813.5415	443.6645	65535	64702.65
813.6853	445.8371	65535	64701.85
813.8291	448.0091	65535	64703.45
813.973	450.1806	65535	64703.95
814.1168	452.3514	65535	64698.65
814.2607	454.5216	65535	64691.7
814.4046	456.6913	65535	64699.3
814.5485	458.8603	65535	64701.05
814.6924	461.0288	65535	64702.9
814.8363	463.1967	65535	64702.65
814.9802	465.3639	65535	64696.15
815.1241	467.5306	65535	64698.25
815.2681	469.6967	65535	64695.4
815.412	471.8622	65535	64696.1
815.556	474.0271	65535	64699.85
815.7	476.1914	65535	64693.15
815.844	478.3551	65535	64695.1
815.988	480.5182	65535	64697.35
816.132	482.6807	65535	64694.95
816.276	484.8426	65535	64693.5
816.4201	487.0039	65535	64694.35
816.5641	489.1647	65535	64692.8
816.7082	491.3248	65535	64694.95
816.8522	493.4843	65535	64693.25
816.9963	495.6432	65535	64693.2
817.1404	497.8015	65535	64690.85
817.2845	499.9592	65535	64689.15
817.4286	502.1163	65535	64690.6
817.5727	504.2728	65535	64687.5
817.7168	506.4287	65535	64687.75
817.861	508.5839	65535	64689
818.0051	510.7386	65535	64688.5
818.1493	512.8927	65535	64687.6
818.2935	515.0461	65535	64687.3
818.4377	517.199	65535	64688.85
818.5818	519.3512	65535	64686.65
818.726	521.5029	65535	64681.1
818.8703	523.6539	65535	64685.25
819.0145	525.8043	65535	64685.1
819.1587	527.9541	65535	64681.5
819.303	530.1033	65535	64682.25
819.4472	532.2519	65535	64686.5
819.5915	534.3999	65535	64681.65
819.7357	536.5472	65535	64680.05
819.88	538.694	65535	64682.65
820.0243	540.8401	65535	64678.4
820.1686	542.9856	65535	64675.55
820.3129	545.1305	65535	64673.15
820.4572	547.2748	65535	64675.8
820.6016	549.4185	65535	64672.7
820.7459	551.5615	65535	64676.25
820.8902	553.704	65535	64675.65
821.0346	555.8458	65535	64675.5
821.1789	557.987	65535	64678.4
821.3233	560.1276	65535	64679.15
821.4677	562.2675	65535	64675.7
821.6121	564.4069	65535	64677.8
821.7565	566.5456	65535	64679.65
821.9009	568.6837	65535	64677
822.0453	570.8212	65535	64677.85
822.1897	572.958	65535	64674.25
822.3342	575.0942	65535	64677.8
822.4786	577.2299	65535	64677.3
822.6231	579.3648	65535	64679.05
822.7675	581.4992	65535	64677.45
822.912	583.6329	65535	64679.75
823.0565	585.766	65535	64675.9
823.201	587.8985	65535	64674.05
823.3454	590.0304	65535	64650.7
823.4899	592.1616	65535	64673.3
823.6345	594.2922	65535	64671.6
823.779	596.4222	65535	64670
823.9235	598.5515	65535	64670.85
824.068	600.6802	65535	64671.3
824.2126	602.8083	65535	64671.65
824.3571	604.9358	65535	64670.45
824.5017	607.0626	65535	64670.7
824.6462	609.1888	65535	64668.6
824.7908	611.3144	65535	64668.8
824.9354	613.4393	65535	64667.65
825.08	615.5636	65535	64668.65
825.2246	617.6873	65535	64668.75
825.3692	619.8103	65535	64666.15
825.5138	621.9327	65535	64669.35
825.6584	624.0544	65535	64666.65
825.803	626.1756	65535	64667.85
825.9477	628.2961	65535	64666.6
826.0923	630.4159	65535	64667.1
826.237	632.5351	65535	64667.1
826.3816	634.6537	65535	64666.05
826.5263	636.7716	65535	64663.75
826.6709	638.8889	65535	64664.8
826.8156	641.0056	65535	64661.8
826.9603	643.1216	65535	64664.6
827.105	645.237	65535	64661.95
827.2497	647.3518	65535	64664.6
827.3944	649.4659	65535	64665
827.5391	651.5793	65535	64661.4
827.6838	653.6922	65535	64662.25
827.8285	655.8043	65535	64665.6
827.9733	657.9159	65535	64663
828.118	660.0268	65535	64660.9
828.2627	662.137	65535	64662.8
828.4075	664.2466	65535	64659.3
828.5522	666.3556	65535	64660.8
828.697	668.4639	65535	64658.25
828.8418	670.5716	65535	64659.9
828.9865	672.6786	65535	64657.45
829.1313	674.785	65535	64656.4
829.2761	676.8907	65535	64655.6
829.4209	678.9958	65535	64661.95
829.5657	681.1002	65535	64657.95
829.7105	683.204	65535	64658.15
829.8553	685.3072	65535	64656.05
830.0001	687.4097	65535	64659.85
830.1449	689.5115	65535	64657.1
830.2898	691.6127	65535	64658.55
830.4346	693.7132	65535	64656.75
830.5794	695.8131	65535	64645.95
830.7243	697.9123	65535	64653.1
830.8691	700.0109	65535	64653.2
831.014	702.1089	65535	64652.7
831.1588	704.2061	65535	64656.15
831.3037	706.3028	65535	64654.75
831.4486	708.3987	65535	64654.45
831.5935	710.4941	65535	64657.75
831.7383	712.5887	65535	64657.7
831.8832	714.6827	65535	64650.85
832.0281	716.7761	65535	64656.85
832.173	718.8688	65535	64652.85
832.3179	720.9608	65535	64650.8
832.4628	723.0522	65535	64650.5
832.6077	725.1429	65535	64651.8
832.7527	727.233	65535	64653.4
832.8976	729.3224	65535	64650.65
833.0425	731.4112	65535	64652.2
833.1874	733.4993	65535	64649.75
833.3324	735.5867	65535	64650.75
833.4773	737.6735	65535	64650.45
833.6222	739.7596	65535	64648.3
833.7672	741.845	65535	64649.3
833.9122	743.9298	65535	64649.7
834.0571	746.014	65535	64653.65
834.2021	748.0974	65535	64648.7
834.347	750.1802	65535	64650.85
834.492	752.2624	65535	64651.85
834.637	754.3439	65535	64649.15
834.782	756.4247	65535	64638.45
834.9269	758.5048	65535	64647.45
835.0719	760.5843	65535	64649.4
835.2169	762.6631	65535	64648.2
835.3619	764.7413	65535	64649.35
835.5069	766.8188	65535	64650.95
835.6519	768.8956	65535	64646
835.7969	770.9718	65535	64649.4
835.9419	773.0473	65535	64649.85
836.0869	775.1221	65535	64651.05
836.232	777.1962	65535	64648.05
836.377	779.2697	65535	64646.1
836.522	781.3426	65535	64630.8
836.667	783.4147	65535	64648.1
836.8121	785.4862	65535	64650.4
836.9571	787.557	65535	64650.8
837.1021	789.6271	65535	64648.1
837.2472	791.6966	65535	64648.1
837.3922	793.7654	65535	64646.25
837.5373	795.8335	65535	64649.8
837.6823	797.901	65535	64648.5
837.8274	799.9678	65535	64646.5
837.9724	802.0339	65535	64649.25
838.1175	804.0993	65535	64635.45
838.2626	806.1641	65535	64643.7
838.4076	808.2282	65535	64646.9
838.5527	810.2916	65535	64644.85
838.6978	812.3544	65535	64647.25
838.8428	814.4164	65535	64648.4
838.9879	816.4778	65535	64647.1
839.133	818.5385	65535	64646.45
839.2781	820.5986	65535	64646.6
839.4232	822.658	65535	64645.2
839.5682	824.7166	65535	64646.15
839.7133	826.7747	65535	64644.4
839.8584	828.832	65535	64646.95
840.0035	830.8886	65535	64645
840.1486	832.9446	65535	64645
840.2937	834.9999	65535	64647.2
840.4388	837.0545	65535	64643.2
840.5839	839.1085	65535	64645.85
840.729	841.1618	65535	64640.5
840.8741	843.2143	65535	64645.3
841.0192	845.2662	65535	64646.3
841.1643	847.3175	65535	64645.6
841.3095	849.368	65535	64644.7
841.4546	851.4179	65535	64645
841.5997	853.467	65535	64646.7
841.7448	855.5155	65535	64645.2
841.8899	857.5633	65535	64644
842.0351	859.6105	65535	64646.2
842.1802	861.6569	65535	64645.9
842.3253	863.7027	65535	64642.75
842.4704	865.7478	65535	64643.55
842.6156	867.7922	65535	64644.3
842.7607	869.8359	65535	64641.8
842.9058	871.8789	65535	64642.4
843.0509	873.9212	65535	64609.5
843.1961	875.9629	65535	64643.8
843.3412	878.0039	65535	64641.15
843.4863	880.0441	65535	64645.75
843.6315	882.0837	65535	64640.05
843.7766	884.1226	65535	64642.05
843.9218	886.1609	65535	64645.25
844.0669	888.1984	65535	64642.95
844.212	890.2352	65535	64645.4
844.3572	892.2714	65535	64638.85
844.5023	894.3069	65535	64643.05
844.6475	896.3416	65535	64640.3
844.7926	898.3757	65535	64641.95
844.9377	900.4091	65535	64642.4
845.0829	902.4418	65535	64636.6
845.228	904.4739	65535	64639.15
845.3732	906.5052	65535	64639.8
845.5183	908.5358	65535	64642.6
845.6635	910.5658	65535	64640.2
845.8086	912.595	65535	64641.15
845.9538	914.6236	65535	64640.75
846.0989	916.6515	65535	64643.55
846.2441	918.6786	65535	64640.55
846.3892	920.7051	65535	64638.75
846.5344	922.7309	65535	64640.2
846.6795	924.756	65535	64640.45
846.8246	926.7804	65535	64639.05
846.9698	928.8041	65535	64638.7
847.1149	930.8272	65535	64641.2
847.2601	932.8495	65535	64639.15
847.4052	934.8711	65535	64639.55
847.5504	936.892	65535	64638.65
847.6955	938.9123	65535	64638.6
847.8407	940.9318	65535	64639.9
847.9858	942.9506	65535	64640.95
848.131	944.9688	65535	64640.95
848.2761	946.9862	65535	64640.2
848.4213	949.003	65535	64640.3
848.5664	951.019	65535	64640.25
848.7115	953.0344	65535	64637.75
848.8567	955.0491	65535	64638.4
849.0018	957.063	65535	64640.1
849.147	959.0763	65535	64640.65
849.2921	961.0888	65535	64636.65
849.4373	963.1007	65535	64641.35
849.5824	965.1119	65535	64638.5
849.7275	967.1223	65535	64639.8
849.8727	969.1321	65535	64642.25
850.0178	971.1412	65535	64641.85
850.1629	973.1495	65535	64638.7
850.3081	975.1572	65535	64604.85
850.4532	977.1641	65535	64639.95
850.5983	979.1704	65535	64637.9
850.7435	981.1759	65535	64635.55
850.8886	983.1808	65535	64638
851.0337	985.1849	65535	64629.35
851.1788	987.1884	65535	64635.15
851.324	989.1911	65535	64637.35
851.4691	991.1932	65535	64636.65
851.6142	993.1945	65535	64639.1
851.7593	995.1951	65535	64638.45
851.9045	997.1951	65535	64634.45
852.0496	999.1943	65535	64639.65
852.1947	1001.1928	65535	64638.9
852.3398	1003.1906	65535	64637.15
852.4849	1005.1877	65535	64639.15
852.63	1007.1841	65535	64638.15
852.7751	1009.1798	65535	64638.8
852.9202	1011.1748	65535	64642.1
853.0653	1013.1691	65535	64637.45
853.2104	1015.1627	65535	64639.05
853.3555	1017.1556	65535	64637.15
853.5006	1019.1477	65535	64638.35
853.6457	1021.1392	65535	64640
853.7908	1023.1299	65535	64639.8
853.9359	1025.12	65535	64637.3
854.081	1027.1093	65535	64643.55
854.2261	1029.0979	65535	64643.55
854.3712	1031.0859	65535	64639.75
854.5163	1033.0731	65535	64639.5
854.6613	1035.0596	65535	64641.15
854.8064	1037.0454	65535	64639.35
854.9515	1039.0304	65535	64638
855.0965	1041.0148	65535	64638.5
855.2416	1042.9985	65535	64636.35
855.3867	1044.9814	65535	64640.9
855.5317	1046.9636	65535	64637.35
855.6768	1048.9452	65535	64641.3
855.8219	1050.926	65535	64638.2
855.9669	1052.9061	65535	64639.5
856.112	1054.8855	65535	64636.9
856.257	1056.8642	65535	64638.9
856.4021	1058.8421	65535	64636.75
856.5471	1060.8194	65535	64636.8
856.6921	1062.7959	65535	64638.75
856.8372	1064.7717	65535	64637.35
856.9822	1066.7469	65535	64634.25
857.1272	1068.7213	65535	64635.9
857.2723	1070.695	65535	64639.5
857.4173	1072.6679	65535	64638.95
857.5623	1074.6402	65535	64639.15
857.7073	1076.6117	65535	64633.85
857.8523	1078.5826	65535	64637.05
857.9973	1080.5527	65535	64633.85
858.1423	1082.5221	65535	64636.35
858.2873	1084.4908	65535	64639.45
858.4323	1086.4587	65535	64636.45
858.5773	1088.426	65535	64638.8
858.7223	1090.3925	65535	64632.45
858.8673	1092.3584	65535	64637.05
859.0123	1094.3235	65535	64638.3
859.1573	1096.2879	65535	64638.8
859.3022	1098.2515	65535	64638.85
859.4472	1100.2145	65535	64638.4
859.5922	1102.1767	65535	64635.25
859.7371	1104.1382	65535	64638.05
859.8821	1106.099	65535	64635.5
860.027	1108.0591	65535	64639.45
860.172	1110.0185	65535	64638.05
860.3169	1111.9771	65535	64637.9
860.4619	1113.9351	65535	64638.2
860.6068	1115.8923	65535	64637.15
860.7517	1117.8488	65535	64634.4
860.8967	1119.8045	65535	64635.9
861.0416	1121.7596	65535	64636.1
861.1865	1123.7139	65535	64640
861.3314	1125.6675	65535	64639.5
861.4763	1127.6204	65535	64640.05
861.6212	1129.5726	65535	64635.3
861.7661	1131.524	65535	64637.2
861.911	1133.4748	65535	64636
862.0559	1135.4248	65535	64635.9
862.2008	1137.3741	65535	64639.65
862.3457	1139.3226	65535	64635.95
862.4905	1141.2705	65535	64636.7
862.6354	1143.2176	65535	64630.35
862.7803	1145.164	65535	64636.6
862.9251	1147.1097	65535	64639.75
863.07	1149.0546	65535	64637.4
863.2148	1150.9989	65535	64636
863.3597	1152.9424	65535	64635.05
863.5045	1154.8852	65535	64636.15
863.6493	1156.8272	65535	64637.95
863.7942	1158.7686	65535	64630.4
863.939	1160.7092	65535	64635.75
864.0838	1162.6491	65535	64636.75
864.2286	1164.5883	65535	64636.95
864.3734	1166.5267	65535	64638.2
864.5182	1168.4644	65535	64637.65
864.663	1170.4014	65535	64631.25
864.8078	1172.3377	65535	64639.45
864.9526	1174.2732	65535	64637.6
865.0974	1176.2081	65535	64638.2
865.2421	1178.1421	65535	64631.7
865.3869	1180.0755	65535	64636.05
865.5317	1182.0082	65535	64639.3
865.6764	1183.9401	65535	64635.8
865.8212	1185.8713	65535	64639.45
865.9659	1187.8017	65535	64637.65
866.1106	1189.7315	65535	64640.15
866.2554	1191.6605	65535	64612.2
866.4001	1193.5888	65535	64638.05
866.5448	1195.5163	65535	64638.05
866.6895	1197.4432	65535	64637.55
866.8342	1199.3693	65535	64637.6
866.9789	1201.2947	65535	64635.05
867.1236	1203.2193	65535	64633.8
867.2683	1205.1432	65535	64637.65
867.413	1207.0664	65535	64637.1
867.5576	1208.9889	65535	64633.15
867.7023	1210.9106	65535	64637.8
867.847	1212.8316	65535	64638.75
867.9916	1214.7519	65535	64629.15
868.1363	1216.6715	65535	64636.8
868.2809	1218.5903	65535	64640.5
868.4255	1220.5084	65535	64639.25
868.5701	1222.4257	65535	64638.25
868.7148	1224.3424	65535	64637.95
868.8594	1226.2583	65535	64635
869.004	1228.1735	65535	64635.6
869.1486	1230.0879	65535	64636.75
869.2932	1232.0016	65535	64637.25
869.4377	1233.9146	65535	64637.05
869.5823	1235.8269	65535	64637.6
869.7269	1237.7384	65535	64637.7
869.8715	1239.6492	65535	64638.25
870.016	1241.5592	65535	64636.45
870.1606	1243.4686	65535	64638.5
870.3051	1245.3772	65535	64638.6
870.4496	1247.285	65535	64637.45
870.5941	1249.1922	65535	64635.65
870.7387	1251.0986	65535	64641.5
870.8832	1253.0042	65535	64637.7
871.0277	1254.9092	65535	64637.85
871.1722	1256.8134	65535	64635.3
871.3167	1258.7169	65535	64636.3
871.4611	1260.6196	65535	64638.35
871.6056	1262.5216	65535	64636.5
871.7501	1264.4229	65535	64639.45
871.8945	1266.3234	65535	64634.9
872.039	1268.2232	65535	64634.95
872.1834	1270.1223	65535	64637.6
872.3278	1272.0207	65535	64637.35
872.4723	1273.9183	65535	64631.5
872.6167	1275.8151	65535	64636.95
872.7611	1277.7113	65535	64637.4
872.9055	1279.6067	65535	64637.65
873.0499	1281.5014	65535	64635.5
873.1943	1283.3953	65535	64637.1
873.3386	1285.2885	65535	64637.75
873.483	1287.181	65535	64636.45
873.6274	1289.0727	65535	64637.65
873.7717	1290.9637	65535	64637.1
873.9161	1292.854	65535	64636.6
874.0604	1294.7435	65535	64635.85
874.2047	1296.6323	65535	64635.95
874.349	1298.5204	65535	64634.6
874.4933	1300.4077	65535	64635.95
874.6376	1302.2943	65535	64638.7
874.7819	1304.1802	65535	64637.55
874.9262	1306.0653	65535	64636.3
875.0705	1307.9497	65535	64637.3
875.2147	1309.8333	65535	64638.5
875.359	1311.7162	65535	64635.35
875.5032	1313.5984	65535	64633.75
875.6475	1315.4798	65535	64624.85
875.7917	1317.3605	65535	64619.2
875.9359	1319.2405	65535	64634.4
876.0801	1321.1197	65535	64635.75
876.2243	1322.9982	65535	64632.5
876.3685	1324.876	65535	64637.25
876.5127	1326.753	65535	64638.1
876.6569	1328.6293	65535	64635.4
876.801	1330.5048	65535	64634.45
876.9452	1332.3796	65535	64634.5
877.0893	1334.2537	65535	64611.05
877.2335	1336.127	65535	64639
877.3776	1337.9996	65535	64638.2
877.5217	1339.8714	65535	64638.75
877.6658	1341.7426	65535	64594.45
877.8099	1343.6129	65535	64637.35
877.954	1345.4826	65535	64639.6
878.0981	1347.3515	65535	64634.2
878.2422	1349.2196	65535	64636.05
878.3862	1351.087	65535	64635.3
878.5303	1352.9537	65535	64637.65
878.6743	1354.8197	65535	64634.05
878.8184	1356.6849	65535	64638
878.9624	1358.5493	65535	64636.4
879.1064	1360.4131	65535	64639.4
879.2504	1362.276	65535	64637.4
879.3944	1364.1383	65535	64636.9
879.5384	1365.9998	65535	64631.5
879.6823	1367.8606	65535	64634.45
879.8263	1369.7206	65535	64637.65
879.9702	1371.5799	65535	64633.5
880.1142	1373.4384	65535	64640.3
880.2581	1375.2962	65535	64635
880.402	1377.1533	65535	64636.65
880.5459	1379.0096	65535	64635.25
880.6898	1380.8652	65535	64636.9
880.8337	1382.7201	65535	64636.75
880.9776	1384.5742	65535	64636
881.1215	1386.4275	65535	64636
881.2653	1388.2802	65535	64638.1
881.4092	1390.132	65535	64637
881.553	1391.9832	65535	64634.2
881.6968	1393.8336	65535	64636.95
881.8406	1395.6832	65535	64634.5
881.9844	1397.5322	65535	64637.45
882.1282	1399.3803	65535	64632.5
882.272	1401.2278	65535	64635.55
882.4158	1403.0745	65535	64638.7
882.5595	1404.9204	65535	64636.95
882.7033	1406.7656	65535	64635.8
882.847	1408.6101	65535	64633.3
882.9908	1410.4538	65535	64636.2
883.1345	1412.2968	65535	64637.1
883.2782	1414.139	65535	64638.6
883.4219	1415.9805	65535	64637.3
883.5656	1417.8213	65535	64633.5
883.7092	1419.6613	65535	64636.4
883.8529	1421.5006	65535	64637.45
883.9965	1423.3391	65535	64634.35
884.1402	1425.1769	65535	64636.05
884.2838	1427.0139	65535	64639.3
884.4274	1428.8502	65535	64636.8
884.571	1430.6858	65535	64638.5
884.7146	1432.5206	65535	64636.35
884.8582	1434.3547	65535	64636.1
885.0018	1436.188	65535	64636.9
885.1453	1438.0206	65535	64637.1
885.2889	1439.8524	65535	64636.2
885.4324	1441.6835	65535	64635.9
885.5759	1443.5139	65535	64631.95
885.7194	1445.3435	65535	64635
885.8629	1447.1724	65535	64639.05
886.0064	1449.0005	65535	64636
886.1499	1450.8279	65535	64635.1
886.2933	1452.6545	65535	64636.15
886.4368	1454.4804	65535	64636.3
886.5802	1456.3056	65535	64629.15
886.7237	1458.13	65535	64639.95
886.8671	1459.9536	65535	64635.8
887.0105	1461.7766	65535	64640.7
887.1539	1463.5987	65535	64636.3
887.2972	1465.4202	65535	64637.8
887.4406	1467.2409	65535	64636.05
887.584	1469.0608	65535	64638.5
887.7273	1470.88	65535	64637.05
887.8706	1472.6984	65535	64638.5
888.0139	1474.5161	65535	64634.45
888.1572	1476.3331	65535	64640.9
888.3005	1478.1493	65535	64636.35
888.4438	1479.9648	65535	64636.4
888.5871	1481.7795	65535	64637.65
888.7303	1483.5935	65535	64636.75
888.8736	1485.4067	65535	64636.75
889.0168	1487.2192	65535	64637
889.16	1489.031	65535	64633.85
889.3032	1490.842	65535	64639.65
889.4464	1492.6522	65535	64638.85
889.5896	1494.4618	65535	64638.15
889.7327	1496.2705	65535	64640.65
889.8759	1498.0785	65535	64636.65
890.019	1499.8858	65535	64639.3
890.1622	1501.6924	65535	64638.6
890.3053	1503.4981	65535	64638.65
890.4484	1505.3032	65535	64636.55
890.5914	1507.1075	65535	64635.85
890.7345	1508.911	65535	64636.75
890.8776	1510.7138	65535	64638.5
891.0206	1512.5159	65535	64636.15
891.1637	1514.3172	65527.45	64631.55
891.3067	1516.1178	65535	64640.65
891.4497	1517.9176	65535	64634.2
891.5927	1519.7166	65534.55	64637.65
891.7357	1521.515	65531.45	64629.8
891.8786	1523.3126	65515.7	64617.6
892.0216	1525.1094	65532.4	64632.05
892.1645	1526.9055	65519.35	64624.1
892.3074	1528.7008	65522.3	64625.15
892.4503	1530.4954	65477.2	64575.05
892.5932	1532.2893	65523.3	64626.75
892.7361	1534.0824	65480.55	64579.5
892.879	1535.8747	65420.7	64523.8
893.0218	1537.6663	65525.6	64628.1
893.1647	1539.4572	65229.8	64332.1
893.3075	1541.2473	65400.4	64505.45
893.4503	1543.0367	65365.35	64470.5
893.5931	1544.8253	65309.55	64407.85
893.7359	1546.6132	65365.1	64465.1
893.8787	1548.4003	65211.75	64305.9
894.0214	1550.1867	65152.2	64245.6
894.1642	1551.9723	65077.25	64177.4
894.3069	1553.7572	65090.7	64193.85
894.4496	1555.5414	65228.2	64330.15
894.5923	1557.3247	64169.5	63273.15
894.735	1559.1074	65112.9	64217.7
894.8777	1560.8893	64797.5	63902.4
895.0204	1562.6705	64936.3	64041.15
895.163	1564.4509	64229.7	63334.45
895.3056	1566.2305	64617.05	63722.6
895.4482	1568.0094	64953.7	64058.1
895.5908	1569.7876	64613.3	63716.2
895.7334	1571.565	64177.25	63281.3
895.876	1573.3417	64431.05	63536.2
896.0186	1575.1176	64303.45	63408
896.1611	1576.8928	64084	63190.1
896.3036	1578.6672	63579.8	62684.85
896.4461	1580.4409	63925.35	63030.6
896.5886	1582.2138	63083.25	62186.9
896.7311	1583.986	63285.85	62390.1
896.8736	1585.7575	62518.55	61623.65
897.0161	1587.5282	62734.75	61840.1
897.1585	1589.2981	62771.05	61876.95
897.3009	1591.0673	62015.2	61118.55
897.4433	1592.8358	61494.35	60601.65
897.5857	1594.6035	62015.8	61118.5
897.7281	1596.3704	62088.05	61193.75
897.8705	1598.1366	61059.95	60165.4
898.0128	1599.9021	60576.2	59682.55
898.1551	1601.6668	61299.9	60402.35
898.2975	1603.4308	60888.65	59991.8
898.4398	1605.194	61100.45	60199.8
898.5821	1606.9564	59877.75	58983.25
898.7243	1608.7182	60448.65	59550.3
898.8666	1610.4791	59894	59000.55
899.0088	1612.2394	60455.55	59563
899.1511	1613.9988	59936.15	59043.25
899.2933	1615.7576	60645.1	59751.7
899.4355	1617.5156	60511.65	59611.6
899.5776	1619.2728	61317.3	60422.7
899.7198	1621.0293	60099.9	59205.15
899.862	1622.785	60141.65	59246.8
900.0041	1624.54	60554.35	59658.05
900.1462	1626.2942	59934.55	59039.9
900.2883	1628.0477	58889.15	57992.55
900.4304	1629.8005	58318.55	57422.05
900.5725	1631.5525	58765.2	57870.1
900.7145	1633.3037	57723.55	56829.1
900.8566	1635.0542	57671.1	56778
900.9986	1636.804	57766	56872.5
901.1406	1638.553	57040.05	56037.9
901.2826	1640.3013	57182.35	56286.65
901.4245	1642.0488	56529.3	55634.8
901.5665	1643.7955	56825.8	55933.55
901.7085	1645.5416	56430.1	55536.05
901.8504	1647.2868	56122.4	55229.45
901.9923	1649.0313	56593.35	55698
902.1342	1650.7751	56282.25	55385.4
902.2761	1652.5181	55941.9	55048.75
902.4179	1654.2604	56100.8	55204.7
902.5598	1656.0019	56553.85	55659.05
902.7016	1657.7427	56340.45	55448
902.8434	1659.4828	56788.4	55896
902.9852	1661.222	56624.1	55730.8
903.127	1662.9606	56815.4	55922.85
903.2687	1664.6984	56310.25	55416.25
903.4105	1666.4354	56242.65	55347.2
903.5522	1668.1717	55244.9	54350.85
903.6939	1669.9072	54524.85	53631.8
903.8356	1671.642	54158	53263.2
903.9773	1673.3761	53867.45	52975.1
904.119	1675.1094	53465.5	52571.35
904.2606	1676.8419	52997.15	52103.5
904.4022	1678.5737	52690.95	51798.3
904.5439	1680.3048	52405.85	51511.95
904.6855	1682.0351	52097.35	51202.45
904.827	1683.7646	51874.1	50976.6
904.9686	1685.4934	51775.2	50883
905.1101	1687.2215	51193.05	50298.35
905.2517	1688.9488	51367.1	50473.4
905.3932	1690.6754	50562.8	49669.8
905.5347	1692.4012	50675.75	49783.25
905.6761	1694.1263	50547.7	49653.45
905.8176	1695.8506	50333.8	49439.35
905.9591	1697.5742	50098.15	49205.35
906.1005	1699.297	49902.05	49008.75
906.2419	1701.0191	49640.4	48747.05
906.3833	1702.7404	49419.2	48528.2
906.5246	1704.461	49136.65	48244.8
906.666	1706.1808	48985.05	48089.35
906.8073	1707.8999	48847.3	47953.8
906.9487	1709.6182	48684.2	47790.2
907.09	1711.3358	48531.8	47638.55
907.2313	1713.0527	48284.3	47392.55
907.3725	1714.7688	48117.15	47221.8
907.5138	1716.4841	47845.15	46947.6
907.655	1718.1987	47845.25	46947.5
907.7962	1719.9126	47623.65	46733.15
907.9374	1721.6257	47429.35	46533.75
908.0786	1723.338	47403.6	46511.3
908.2198	1725.0496	46952.45	46055.25
908.3609	1726.7605	46933.9	46040.05
908.502	1728.4706	46753.5	45859.2
908.6431	1730.18	46488.05	45593.8
908.7842	1731.8886	46341.4	45449.15
908.9253	1733.5964	46280.95	45369.25
909.0664	1735.3036	46131.8	45235.85
909.2074	1737.0099	45977.85	45084.2
909.3484	1738.7156	45847.7	44955.4
909.4894	1740.4204	45564.2	44668.25
909.6304	1742.1246	45551.05	44657
909.7714	1743.8279	45368.45	44478.1
909.9123	1745.5306	45260.45	44367.8
910.0532	1747.2325	45105.45	44214.4
910.1941	1748.9336	44972.65	44080
910.335	1750.634	44684.8	43790.2
910.4759	1752.3336	44657.05	43764.55
910.6168	1754.0325	44521.95	43630.85
910.7576	1755.7307	44454.95	43560.8
910.8984	1757.4281	44343	43451.55
911.0392	1759.1247	44259.85	43358.7
911.18	1760.8206	44078.65	43181.85
911.3208	1762.5158	44022.35	43127.75
911.4615	1764.2102	43811.85	42921.7
911.6022	1765.9039	43626.45	42735.05
911.7429	1767.5968	43513.5	42622.05
911.8836	1769.289	43413.3	42520.75
912.0243	1770.9804	43311.9	42419.6
912.1649	1772.6711	43209.5	42316.6
912.3056	1774.361	43105.75	42213.55
912.4462	1776.0502	42970.35	42078.6
912.5868	1777.7386	42855.5	41962.15
912.7274	1779.4263	42696.4	41804.05
912.8679	1781.1132	42649.7	41760.25
913.0084	1782.7994	42439.3	41546
913.149	1784.4849	42380.55	41487.6
913.2895	1786.1696	42143.8	41244.25
913.4299	1787.8535	42039.7	41146.2
913.5704	1789.5367	41903.4	41012
913.7108	1791.2192	41844.6	40952.3
913.8513	1792.9009	41627.7	40706.25
913.9917	1794.5818	41529.35	40636.8
914.132	1796.2621	41458.4	40569.75
914.2724	1797.9415	41321.9	40430.25
914.4128	1799.6202	41152.8	40260.8
914.5531	1801.2982	41072.25	40180.8
914.6934	1802.9755	40939.85	40047.95
914.8337	1804.6519	40834.15	39941.35
914.9739	1806.3277	40641.65	39748.75
915.1142	1808.0027	40476.15	39585.45
915.2544	1809.6769	40462.1	39570.7
915.3946	1811.3504	40306.8	39414.9
915.5348	1813.0231	40230.1	39335.7
915.675	1814.6951	40165.7	39275.4
915.8151	1816.3664	40119.7	39225.25
915.9553	1818.0369	39954.9	39063.75
916.0954	1819.7067	39806.6	38912.95
916.2355	1821.3757	39743.65	38850.25
916.3755	1823.044	39683.5	38790.35
916.5156	1824.7115	39558.7	38666.2
916.6556	1826.3783	39329.75	38436.8
916.7956	1828.0443	39205.65	38315.1
916.9356	1829.7096	39124.3	38231.4
917.0756	1831.3741	39093.25	38198.55
917.2155	1833.0379	38915.75	38024.45
917.3555	1834.701	38815.5	37920.45
917.4954	1836.3633	38738.85	37845.65
917.6353	1838.0248	38586.9	37695.1
917.7751	1839.6856	38448.6	37556.2
917.915	1841.3457	38399.5	37508.4
918.0548	1843.005	38288.05	37395
918.1946	1844.6636	38233.95	37342.4
918.3344	1846.3214	38117	37223.35
918.4742	1847.9785	38082.95	37189.95
918.6139	1849.6349	37926.2	37032.35
918.7537	1851.2904	37819.35	36919.1
918.8934	1852.9453	37728.9	36835.9
919.0331	1854.5994	37569.1	36675.5
919.1727	1856.2528	37592.4	36694.45
919.3124	1857.9054	37460.95	36568.75
919.452	1859.5572	37361.6	36470.5
919.5916	1861.2083	37265.15	36371.85
919.7312	1862.8587	37220.8	36327.9
919.8708	1864.5084	37109.5	36215.4
920.0103	1866.1572	36969.1	36077.35
920.1498	1867.8054	36799.05	35907.55
920.2893	1869.4528	36709.15	35817
920.4288	1871.0994	36598.05	35705.2
920.5683	1872.7453	36587.15	35694.5
920.7077	1874.3905	36435.5	35534.2
920.8471	1876.0349	36300.35	35406.6
920.9865	1877.6786	36266.6	35372.55
921.1259	1879.3215	36213.95	35324.2
921.2653	1880.9637	36062.1	35168.9
921.4046	1882.6051	36021.2	35130.55
921.5439	1884.2458	35898	35004.4
921.6832	1885.8858	35736.65	34842.35
921.8225	1887.525	35666.8	34773.75
921.9617	1889.1634	35494.95	34603.05
922.101	1890.8011	35397.55	34504.6
922.2402	1892.4381	35329.3	34439.6
922.3794	1894.0743	35302	34410.45
922.5185	1895.7098	35125.65	34235.8
922.6577	1897.3446	35031	34137.15
922.7968	1898.9786	34914.65	34017.85
922.9359	1900.6118	34888.65	33997.45
923.075	1902.2443	34658.75	33763.6
923.214	1903.8761	34600.9	33710.2
923.3531	1905.5071	34370.55	33478.25
923.4921	1907.1374	34222.2	33330.35
923.6311	1908.7669	34186.05	33295.4
923.77	1910.3957	34089.6	33197.1
923.909	1912.0237	33882.85	32992.2
924.0479	1913.651	33855.35	32963
924.1868	1915.2776	33740.45	32848.25
924.3257	1916.9034	33587.55	32696.5
924.4646	1918.5285	33421.65	32530.7
924.6034	1920.1528	33213.75	32321.9
924.7422	1921.7764	33159.65	32268.05
924.881	1923.3992	33052.9	32161.3
925.0198	1925.0213	32837.3	31946.25
925.1586	1926.6427	32654.25	31764.05
925.2973	1928.2633	32677.05	31675
925.436	1929.8832	32564.15	31671.15
925.5747	1931.5023	32417.2	31525.7
925.7134	1933.1207	32324.35	31432.8
925.852	1934.7383	32264.6	31372.6
925.9906	1936.3552	32113.35	31220.9
926.1292	1937.9714	31993.7	31101.9
926.2678	1939.5868	31812.95	30918.6
926.4064	1941.2015	31683.65	30791.15
926.5449	1942.8154	31590.35	30698.9
926.6834	1944.4286	31402.95	30510.25
926.8219	1946.041	31275.65	30362.7
926.9604	1947.6528	31113.05	30215.3
927.0988	1949.2637	31041.05	30152.9
927.2372	1950.8739	30909.3	30017.7
927.3756	1952.4834	30841.7	29949.75
927.514	1954.0921	30792.85	29900.65
927.6523	1955.7001	30669.25	29773
927.7907	1957.3074	30553.35	29661.65
927.929	1958.9139	30424.2	29533.05
928.0673	1960.5197	30338.85	29445.55
928.2055	1962.1247	30191.2	29301.05
928.3438	1963.729	30005.5	29114.6
928.482	1965.3325	29872.65	28957.4
928.6202	1966.9353	29793.45	28903.55
928.7584	1968.5374	29713.6	28820.95
928.8965	1970.1387	29605.05	28714.85
929.0346	1971.7393	29460.9	28570.2
929.1727	1973.3392	29378.65	28486.15
929.3108	1974.9383	29267.95	28375.95
929.4489	1976.5366	29134.45	28241.6
929.5869	1978.1342	29069.4	28177.55
929.7249	1979.7311	28998.4	28105.8
929.8629	1981.3273	28895.45	28003.75
930.0009	1982.9227	28811.5	27919.65
930.1388	1984.5173	28656.35	27764.5
930.2767	1986.1112	28536.75	27646.85
930.4146	1987.7044	28470.35	27579.8
930.5525	1989.2968	28367.65	27475.95
930.6904	1990.8885	28289.9	27395.6
930.8282	1992.4795	28198.95	27306.15
930.966	1994.0697	28076.6	27187.15
931.1038	1995.6592	27977.7	27088.6
931.2415	1997.2479	27853.75	26961.35
931.3793	1998.8359	27734.15	26843.8
931.517	2000.4232	27654	26764.65
931.6547	2002.0097	27540.45	26650.2
931.7923	2003.5955	27406.4	26513.55
931.93	2005.1805	27378.05	26484.5
932.0676	2006.7648	27322.5	26432.95
932.2052	2008.3484	27211.7	26318.2
932.3427	2009.9312	27209	26315.2
932.4803	2011.5133	27084.1	26194.85
932.6178	2013.0946	27008.3	26116.6
932.7553	2014.6752	26899.3	26010.75
932.8928	2016.2551	26852.4	25960.95
933.0302	2017.8342	26706.85	25816.55
933.1676	2019.4126	26626.1	25734.9
933.305	2020.9902	26488.4	25597.75
933.4424	2022.5672	26431.1	25539.6
933.5798	2024.1433	26325.65	25427.2
933.7171	2025.7188	26289.65	25401.55
933.8544	2027.2935	26167.5	25276.05
933.9917	2028.8674	26035.75	25145.45
934.129	2030.4406	25949.35	25062.25
934.2662	2032.0131	25846.25	24956.15
934.4034	2033.5849	25717.1	24821.4
934.5406	2035.1559	25687.2	24795.7
934.6778	2036.7261	25670.5	24779.65
934.8149	2038.2957	25584.1	24693.05
934.952	2039.8645	25543.6	24654.75
935.0891	2041.4325	25496.35	24604.45
935.2262	2042.9998	25383.05	24493.35
935.3632	2044.5664	25285.1	24391.6
935.5002	2046.1323	25186.35	24297.35
935.6372	2047.6974	25106.9	24214.85
935.7742	2049.2617	24998.2	24107.45
935.9111	2050.8254	25014.5	24100.05
936.048	2052.3883	24978.4	24086.3
936.1849	2053.9504	24862.15	23970.8
936.3218	2055.5118	24756.5	23864.7
936.4586	2057.0725	24646.5	23749.25
936.5955	2058.6325	24566.8	23675.9
936.7323	2060.1917	24465.4	23575.9
936.869	2061.7502	24419.95	23524.9
937.0058	2063.3079	24277.7	23386.45
937.1425	2064.8649	24243.2	23349.35
937.2792	2066.4212	24153.2	23262.8
937.4159	2067.9767	24143.75	23253.4
937.5525	2069.5315	24013.55	23123.05
937.6891	2071.0856	23873.25	22981.2
937.8257	2072.6389	23764.75	22870.75
937.9623	2074.1915	23653.35	22764
938.0989	2075.7433	23560.5	22667.4
938.2354	2077.2945	23468.85	22581.5
938.3719	2078.8448	23432.85	22543.35
938.5084	2080.3945	23316.65	22424.55
938.6448	2081.9434	23312.7	22423.7
938.7812	2083.4916	23199.55	22307.25
938.9176	2085.039	23131.45	22239.65
939.054	2086.5857	23096.5	22203.85
939.1903	2088.1317	23001.3	22109.45
939.3267	2089.677	22907.35	22016
939.463	2091.2215	22851.85	21959.95
939.5992	2092.7652	22797.4	21904.65
939.7355	2094.3083	22704.9	21814.9
939.8717	2095.8506	22668.65	21778.05
940.0079	2097.3921	22654.65	21764.3
940.1441	2098.933	22534.9	21642.7
940.2802	2100.4731	22475.55	21584.4
940.4163	2102.0124	22447.9	21547.55
940.5524	2103.5511	22406.95	21515.1
940.6885	2105.089	22346.25	21453.1
940.8245	2106.6261	22240.7	21347.95
940.9606	2108.1626	22173.35	21280.85
941.0965	2109.6983	22168.5	21245.2
941.2325	2111.2332	22086.7	21193.1
941.3684	2112.7675	21954	21062.45
941.5044	2114.301	21888.95	20994.85
941.6403	2115.8337	21907.3	21014.5
941.7761	2117.3657	21787.3	20895.2
941.912	2118.897	21729.15	20835.1
942.0478	2120.4276	21675.9	20778.15
942.1835	2121.9575	21570.2	20677.7
942.3193	2123.4866	21565.85	20658.85
942.455	2125.0149	21460.25	20565.9
942.5907	2126.5426	21350.85	20458.7
942.7264	2128.0695	21263.2	20367.55
942.8621	2129.5956	21266.6	20375.7
942.9977	2131.1211	21225.05	20328.35
943.1333	2132.6458	21141.8	20251.3
943.2689	2134.1698	21050.2	20157.75
943.4044	2135.693	20987.15	20092.85
943.54	2137.2155	20967.7	20073.05
943.6755	2138.7373	20914.55	20023.15
943.8109	2140.2584	20804.9	19915.6
943.9464	2141.7787	20758.3	19861.25
944.0818	2143.2983	20645.35	19753.55
944.2172	2144.8171	20491.55	19601.8
944.3526	2146.3353	20490.1	19595.65
944.4879	2147.8527	20375.95	19486.5
944.6232	2149.3693	20378.55	19485.1
944.7585	2150.8853	20288.1	19397.3
944.8938	2152.4005	20203.5	19311.75
945.029	2153.9149	20148.5	19256.7
945.1642	2155.4287	20078.4	19187.75
945.2994	2156.9417	20050.85	19157.85
945.4346	2158.454	19980.65	19086.75
945.5697	2159.9655	19883.7	18992.65
945.7048	2161.4764	19888.55	18996.55
945.8399	2162.9865	19812.1	18919.4
945.9749	2164.4958	19796.35	18905.95
946.1099	2166.0045	19691.75	18796.1
946.2449	2167.5124	19675.45	18784.45
946.3799	2169.0195	19618.65	18727.2
946.5148	2170.526	19531.35	18639.8
946.6498	2172.0317	19456.15	18565.5
946.7846	2173.5367	19393.2	18501.35
946.9195	2175.0409	19332.25	18441.9
947.0543	2176.5445	19361.95	18471.65
947.1891	2178.0473	19242.75	18352.5
947.3239	2179.5494	19172.05	18278.25
947.4587	2181.0507	19068.5	18175.35
947.5934	2182.5513	19032.1	18141
947.7281	2184.0512	18950.4	18057.4
947.8628	2185.5504	18879.8	17986.9
947.9974	2187.0488	18780.3	17889.3
948.132	2188.5465	18708.85	17818.7
948.2666	2190.0435	18656.7	17765.9
948.4012	2191.5397	18612.45	17720.7
948.5357	2193.0353	18579.7	17690.15
948.6702	2194.5301	18455.5	17562.85
948.8047	2196.0241	18388.6	17496.65
948.9392	2197.5175	18311.9	17420
949.0736	2199.0101	18235	17341.2
949.208	2200.502	18152.45	17263.65
949.3424	2201.9931	18083.7	17191.95
949.4767	2203.4835	18031.35	17138.3
949.611	2204.9733	17967.65	17068.15
949.7453	2206.4622	17963.55	17070.55
949.8796	2207.9505	17878.2	16984.15
950.0138	2209.438	17756.7	16868.85
950.148	2210.9248	17683.55	16790.5
950.2822	2212.4109	17644.35	16754.7
950.4164	2213.8962	17562.15	16670.4
950.5505	2215.3809	17546.1	16654.8
950.6846	2216.8648	17495.05	16603.2
950.8186	2218.3479	17485.4	16590.45
950.9527	2219.8304	17347.55	16453.8
951.0867	2221.3121	17287.1	16393.85
951.2207	2222.7931	17211.45	16320.55
951.3546	2224.2733	17184.8	16294.05
951.4886	2225.7529	17100.3	16207.55
951.6225	2227.2317	17041.85	16148.9
951.7563	2228.7098	17022.85	16130.1
951.8902	2230.1872	16919.8	16027.85
952.024	2231.6638	16878.55	15987.5
952.1578	2233.1397	16834	15937.7
952.2916	2234.6149	16755.5	15865.75
952.4253	2236.0894	16691.55	15800.15
952.559	2237.5632	16670.8	15767.75
952.6927	2239.0362	16609	15716.75
952.8263	2240.5085	16510.85	15618.45
952.9599	2241.9801	16446.7	15555.65
953.0935	2243.4509	16417.2	15525.7
953.2271	2244.921	16364.8	15474.15
953.3606	2246.3904	16278.7	15385.75
953.4941	2247.8591	16236.9	15345.9
953.6276	2249.3271	16209.55	15316.95
953.7611	2250.7943	16139.8	15246.3
953.8945	2252.2608	16045.55	15154
954.0279	2253.7266	16023.25	15131.6
954.1612	2255.1917	15944.8	15053.9
954.2946	2256.656	15907.7	15016
954.4279	2258.1197	15839.3	14947.15
954.5612	2259.5826	15821.9	14928.3
954.6944	2261.0447	15784.65	14892.05
954.8276	2262.5062	15684.4	14789.9
954.9608	2263.9669	15674.45	14779.55
955.094	2265.4269	15614.2	14721.6
955.2271	2266.8862	15580.95	14691.15
955.3602	2268.3448	15559.75	14668
955.4933	2269.8026	15485	14592.35
955.6264	2271.2598	15450.3	14558.45
955.7594	2272.7162	15343.7	14454.2
955.8924	2274.1719	15348.15	14455.35
956.0253	2275.6268	15277.25	14384.95
956.1583	2277.0811	15239.75	14348.2
956.2912	2278.5346	15196.45	14303.75
956.4241	2279.9874	15154.05	14264
956.5569	2281.4395	15110.95	14219.7
956.6897	2282.8908	15059.9	14161.9
956.8225	2284.3414	14996.2	14101.95
956.9553	2285.7914	14941.05	14049.75
957.088	2287.2406	14903.5	14008.55
957.2207	2288.689	14847.55	13955.65
957.3534	2290.1368	14809.7	13916.6
957.486	2291.5838	14759.3	13866.1
957.6186	2293.0302	14724.05	13830.75
957.7512	2294.4758	14655.7	13764.4
957.8838	2295.9206	14580.8	13686.25
958.0163	2297.3648	14550.25	13659.8
958.1488	2298.8082	14535.2	13642.55
958.2813	2300.251	14508.4	13615
958.4137	2301.693	14445.2	13549.95
958.5461	2303.1343	14431.35	13540.5
958.6785	2304.5748	14368.15	13475.75
958.8108	2306.0147	14321.2	13429.3
958.9432	2307.4538	14274.35	13381.3
959.0754	2308.8922	14203.1	13313.3
959.2077	2310.3299	14143.1	13252.55
959.3399	2311.7669	14099.85	13208.7
959.4721	2313.2031	14065.95	13174.3
959.6043	2314.6387	13945.8	13053.95
959.7365	2316.0735	13922.8	13031.65
959.8686	2317.5076	13909.75	13017.45
960.0006	2318.941	13879.45	12987.7
960.1327	2320.3737	13828.45	12936.35
960.2647	2321.8056	13787.55	12894.1
960.3967	2323.2369	13730.95	12838.25
960.5287	2324.6674	13711.7	12817.95
960.6606	2326.0972	13628.1	12733.15
960.7925	2327.5263	13594.15	12702.85
960.9244	2328.9547	13535.2	12642.8
961.0562	2330.3823	13508.55	12616.65
961.1881	2331.8092	13476.5	12580.65
961.3198	2333.2355	13416.1	12523.45
961.4516	2334.661	13401	12509.65
961.5833	2336.0858	13369.55	12475.3
961.715	2337.5098	13325.8	12436.6
961.8467	2338.9332	13295.1	12404.25
961.9783	2340.3558	13235.55	12341.25
962.1099	2341.7778	13171.95	12279.65
962.2415	2343.199	13122.55	12231.15
962.373	2344.6195	13099.85	12205.45
962.5045	2346.0393	13044.65	12153.2
962.636	2347.4583	13018.3	12125.5
962.7675	2348.8767	12984.05	12091.15
962.8989	2350.2943	12936.9	12043.3
963.0303	2351.7113	12912.45	12020.95
963.1617	2353.1275	12847.95	11955.4
963.293	2354.543	12846.65	11930.9
963.4243	2355.9578	12762.95	11871.8
963.5556	2357.3718	12697.05	11805.15
963.6868	2358.7852	12638.2	11742.55
963.818	2360.1978	12588.4	11695.05
963.9492	2361.6098	12543.85	11653.35
964.0803	2363.021	12504.6	11609.7
964.2114	2364.4315	12471.85	11580.25
964.3425	2365.8413	12429.55	11531.3
964.4736	2367.2504	12378.3	11489.45
964.6046	2368.6587	12319.9	11429.35
964.7356	2370.0664	12275.9	11385.1
964.8666	2371.4733	12234.2	11340.05
964.9975	2372.8795	12174.2	11281.55
965.1284	2374.285	12126.4	11235.05
965.2593	2375.6899	12085.6	11195.05
965.3901	2377.0939	12032.25	11142.7
965.5209	2378.4973	11982.95	11092.85
965.6517	2379.9	11940.65	11047.85
965.7825	2381.3019	11868.55	10976.6
965.9132	2382.7032	11843.9	10953.55
966.0439	2384.1037	11826.95	10936.5
966.1745	2385.5035	11750.95	10859.75
966.3051	2386.9027	11725.25	10835.1
966.4357	2388.3011	11702.45	10808.55
966.5663	2389.6987	11652.9	10761
966.6968	2391.0957	11581.3	10692
966.8273	2392.492	11538.8	10648.35
966.9578	2393.8876	11493.6	10602.2
967.0882	2395.2824	11445.15	10553.85
967.2186	2396.6765	11396.3	10507.55
967.349	2398.07	11349.65	10460.75
967.4793	2399.4627	11335.1	10441
967.6097	2400.8547	11292.95	10401.15
967.7399	2402.246	11242.1	10346.2
967.8702	2403.6366	11190.1	10298.35
968.0004	2405.0265	11121.4	10232.45
968.1306	2406.4156	11092.2	10197.55
968.2607	2407.8041	11048.65	10154.65
968.3909	2409.1918	11016.95	10125.8
968.521	2410.5789	10985.1	10094.7
968.651	2411.9652	10928.55	10034.7
968.781	2413.3508	10913.85	10023.25
968.911	2414.7358	10856.55	9965.5
969.041	2416.12	10795.75	9906.2
969.1709	2417.5035	10790.45	9898.6
969.3008	2418.8863	10716.15	9822.25
969.4307	2420.2684	10702.85	9811.95
969.5606	2421.6497	10645.95	9755.6
969.6904	2423.0304	10594.65	9704.05
969.8201	2424.4104	10575.15	9683.85
969.9499	2425.7896	10550.85	9655.3
970.0796	2427.1682	10502.6	9611.5
970.2093	2428.546	10478.35	9585.4
970.3389	2429.9232	10424.4	9532.55
970.4685	2431.2996	10398.2	9507.2
970.5981	2432.6753	10377.25	9488.35
970.7277	2434.0503	10365.05	9471.95
970.8572	2435.4246	10298.5	9409.2
970.9867	2436.7982	10274.4	9381.65
971.1161	2438.1711	10215.2	9324.5
971.2456	2439.5433	10188.95	9297.5
971.375	2440.9148	10143.9	9253.8
971.5043	2442.2856	10090.7	9199.35
971.6336	2443.6557	10106.75	9213.35
971.7629	2445.025	10071	9178.5
971.8922	2446.3937	10026.2	9134.85
972.0214	2447.7617	9968.65	9077.2
972.1506	2449.1289	9973.3	9081.8
972.2798	2450.4955	9927	9030.45
972.4089	2451.8613	9885.7	8995.3
972.538	2453.2265	9861.5	8970.25
972.6671	2454.5909	9841.15	8949.5
972.7961	2455.9546	9819.9	8930
972.9251	2457.3177	9764.9	8874.05
973.0541	2458.68	9732.1	8837.35
973.1831	2460.0416	9730.75	8838.65
973.312	2461.4025	9729.1	8836.5
973.4408	2462.7627	9686.4	8785.4
973.5697	2464.1222	9634.2	8743.7
973.6985	2465.4811	9619.65	8727.5
973.8273	2466.8392	9594.05	8702.4
973.956	2468.1966	9545.9	8649.85
974.0847	2469.5533	9552.35	8659.3
974.2134	2470.9093	9524.15	8634.35
974.3421	2472.2645	9473.25	8580
974.4707	2473.6191	9436.05	8548.6
974.5993	2474.973	9403	8512.45
974.7278	2476.3262	9369.4	8476.55
974.8563	2477.6787	9352.75	8461.9
974.9848	2479.0305	9286.35	8393.35
975.1132	2480.3816	9263.85	8370.4
975.2417	2481.7319	9235.1	8343.5
975.37	2483.0816	9196.15	8303.5
975.4984	2484.4306	9179.25	8284.45
975.6267	2485.7789	9135.3	8244.5
975.755	2487.1264	9085.7	8193.7
975.8833	2488.4733	9036.25	8147.5
976.0115	2489.8195	9030.5	8132.3
976.1397	2491.165	8971	8077.05
976.2678	2492.5097	8946.65	8052.7
976.3959	2493.8538	8904.75	8014.75
976.524	2495.1972	8869.15	7976.8
976.6521	2496.5398	8822.2	7930.2
976.7801	2497.8818	8809.55	7915.9
976.9081	2499.2231	8783.5	7892.55
977.036	2500.5637	8764.35	7870.7
977.164	2501.9035	8714.8	7821.9
977.2918	2503.2427	8681.55	7785.8
977.4197	2504.5812	8656.8	7766.1
977.5475	2505.919	8652.55	7760
977.6753	2507.256	8623.55	7730.55
977.8031	2508.5924	8591	7701.9
977.9308	2509.9281	8546.5	7648.35
978.0585	2511.2631	8514.95	7624.65
978.1861	2512.5974	8498.25	7608.25
978.3137	2513.9309	8459.2	7568.75
978.4413	2515.2638	8453.15	7529.25
978.5689	2516.596	8416.6	7524.45
978.6964	2517.9275	8357.45	7466.15
978.8239	2519.2583	8335.85	7444.4
978.9513	2520.5884	8284.5	7390.75
979.0788	2521.9178	8258.1	7366.6
979.2062	2523.2465	8256.2	7365.3
979.3335	2524.5745	8194.35	7304.3
979.4608	2525.9018	8194.9	7304.4
979.5881	2527.2284	8161.7	7271.5
979.7154	2528.5543	8161.2	7271.4
979.8426	2529.8796	8115.4	7222.2
979.9698	2531.2041	8114.05	7222.35
980.0969	2532.5279	8066.7	7176.6
980.224	2533.851	8074.7	7182.25
980.3511	2535.1735	8038.1	7147.25
980.4781	2536.4952	7995.45	7103.85
980.6052	2537.8163	8003.6	7110.4
980.7321	2539.1366	7955.3	7064.1
980.8591	2540.4562	7937.9	7046.6
980.986	2541.7752	7919.5	7029.25
981.1129	2543.0935	7937.55	7046.45
981.2397	2544.411	7900.9	7010.1
981.3665	2545.7279	7864.4	6971.95
981.4933	2547.0441	7861.3	6971
981.62	2548.3596	7852.25	6956.8
981.7467	2549.6744	7824.25	6932.75
981.8734	2550.9885	7794.6	6899.65
982.0001	2552.3019	7764.35	6873
982.1267	2553.6146	7753.95	6861.95
982.2532	2554.9266	7720.9	6829.45
982.3798	2556.2379	7678.4	6784.25
982.5063	2557.5485	7683.9	6794.55
982.6327	2558.8585	7679.85	6781.9
982.7592	2560.1677	7633.8	6737.35
982.8856	2561.4762	7603.8	6711.15
983.0119	2562.7841	7606.75	6712.3
983.1383	2564.0913	7590.45	6700.35
983.2646	2565.3977	7570.95	6680.9
983.3908	2566.7035	7539.85	6647.35
983.517	2568.0086	7528.6	6636.1
983.6432	2569.313	7517.65	6625
983.7694	2570.6167	7489.2	6595.9
983.8955	2571.9197	7463.6	6575.05
984.0216	2573.222	7459.5	6563.55
984.1476	2574.5236	7425.5	6533.8
984.2737	2575.8246	7423.05	6528.4
984.3996	2577.1248	7408.1	6514.1
984.5256	2578.4244	7382	6492.8
984.6515	2579.7232	7389.4	6498.65
984.7774	2581.0214	7363.45	6447.45
984.9032	2582.3189	7345.3	6453.1
985.029	2583.6157	7324.4	6428.5
985.1548	2584.9118	7290.3	6398.2
985.2806	2586.2072	7290	6396.95
985.4063	2587.5019	7262.4	6372.6
985.5319	2588.7959	7235.45	6344.6
985.6576	2590.0893	7229.15	6336.5
985.7832	2591.3819	7223.25	6332.1
985.9087	2592.6739	7187.45	6296.2
986.0343	2593.9652	7155.45	6260.55
986.1597	2595.2557	7137.65	6245.4
986.2852	2596.5456	7110.25	6214.4
986.4106	2597.8348	7092.35	6201.75
986.536	2599.1234	7051	6159.7
986.6614	2600.4112	7048.05	6155.7
986.7867	2601.6983	7018.15	6123
986.912	2602.9848	6996.6	6105.4
987.0372	2604.2705	6960.75	6061.9
987.1624	2605.5556	6952.85	6062.05
987.2876	2606.84	6936.1	6043.1
987.4128	2608.1237	6893.65	6001.15
987.5379	2609.4067	6870.7	5980.75
987.6629	2610.689	6848.3	5948.2
987.788	2611.9707	6825.75	5928.9
987.913	2613.2516	6814.7	5918.75
988.0379	2614.5319	6766.8	5875.9
988.1629	2615.8115	6723.45	5831.2
988.2878	2617.0903	6721.6	5829.3
988.4126	2618.3685	6702.85	5810.2
988.5375	2619.6461	6667.55	5775.05
988.6622	2620.9229	6667.3	5776.05
988.787	2622.199	6635.1	5741.45
988.9117	2623.4745	6623.3	5731.25
989.0364	2624.7493	6596.85	5704.5
989.161	2626.0234	6577.1	5686.2
989.2857	2627.2968	6559.5	5668.8
989.4102	2628.5695	6530.7	5636.7
989.5348	2629.8415	6504.75	5614.8
989.6593	2631.1128	6466.15	5572.8
989.7837	2632.3835	6441.65	5549.75
989.9082	2633.6535	6413.25	5522.75
990.0326	2634.9228	6405.95	5512.85
990.1569	2636.1914	6373.5	5484.4
990.2812	2637.4593	6393.55	5495.7
990.4055	2638.7265	6343.7	5452.65
990.5298	2639.9931	6314.15	5423.55
990.654	2641.259	6312.15	5418.8
990.7782	2642.5242	6274.85	5383.4
990.9023	2643.7887	6248.4	5356.7
991.0264	2645.0525	6247.7	5356.25
991.1505	2646.3156	6232.45	5338.8
991.2745	2647.5781	6189.5	5298.15
991.3985	2648.8398	6187.2	5296
991.5225	2650.1009	6162.65	5261.6
991.6464	2651.3613	6140.4	5248.1
991.7703	2652.6211	6136.25	5244.4
991.8942	2653.8801	6110.85	5218.65
992.018	2655.1385	6076.9	5184.15
992.1418	2656.3961	6082	5191.8
992.2655	2657.6531	6082.85	5193.25
992.3892	2658.9094	6056.6	5166.15
992.5129	2660.1651	6042.4	5149.5
992.6366	2661.42	6007.75	5115.55
992.7602	2662.6743	6023.65	5131.65
992.8837	2663.9279	5992.65	5100.15
993.0073	2665.1808	5984.5	5091.8
993.1307	2666.433	5959.5	5064
993.2542	2667.6846	5924.3	5033.4
993.3776	2668.9354	5951.55	5057.95
993.501	2670.1856	5910.75	5018.85
993.6244	2671.4351	5888.15	4997.6
993.7477	2672.6839	5871.35	4978.25
993.8709	2673.9321	5850.7	4960.35
993.9942	2675.1795	5853.85	4960.5
994.1174	2676.4263	5820.3	4927.55
994.2405	2677.6724	5819.15	4927.65
994.3637	2678.9179	5802.55	4910.6
994.4868	2680.1626	5799.1	4907.05
994.6098	2681.4067	5763.95	4873.05
994.7328	2682.6501	5759.45	4868.4
994.8558	2683.8928	5744.05	4853.15
994.9788	2685.1348	5730.3	4838.5
995.1017	2686.3761	5704.7	4813.1
995.2245	2687.6168	5666	4773.85
995.3474	2688.8568	5664.2	4771.5
995.4702	2690.0961	5635.65	4744.15
995.5929	2691.3348	5618.35	4724.55
995.7156	2692.5727	5588.95	4695.9
995.8383	2693.81	5578.85	4687.8
995.961	2695.0466	5555.75	4666.55
996.0836	2696.2826	5539.4	4646.2
996.2062	2697.5178	5522.65	4628.2
996.3287	2698.7524	5528.95	4637.35
996.4512	2699.9863	5515.9	4622
996.5737	2701.2195	5502.45	4612.75
996.6961	2702.452	5474.55	4580.45
996.8185	2703.6839	5448	4554.55
996.9408	2704.9151	5422.25	4531.3
997.0631	2706.1456	5425.5	4534.25
997.1854	2707.3755	5429.6	4539.3
997.3077	2708.6046	5416.3	4525.05
997.4299	2709.8331	5405	4511.65
997.552	2711.0609	5392.8	4500.2
997.6742	2712.2881	5374.4	4483.45
997.7963	2713.5145	5373.15	4479.2
997.9183	2714.7403	5368.55	4477.65
998.0403	2715.9654	5334.75	4441.95
998.1623	2717.1899	5352.9	4445.25
998.2842	2718.4136	5329.95	4437.7
998.4062	2719.6367	5316.65	4422.95
998.528	2720.8591	5310.2	4412.9
998.6498	2722.0809	5317.3	4425.05
998.7716	2723.3019	5302.75	4407.5
998.8934	2724.5223	5298.65	4406.55
999.0151	2725.7421	5285.4	4393.2
999.1368	2726.9611	5257.4	4364.55
999.2584	2728.1795	5247.3	4351.95
999.38	2729.3972	5226.2	4332.55
999.5016	2730.6142	5211.55	4311.6
999.6231	2731.8306	5172.05	4278.15
999.7446	2733.0462	5139.45	4245.7
999.8661	2734.2612	5102.75	4207.05
999.9875	2735.4756	5081.55	4189.45
1000.1089	2736.6892	5046.45	4154.45
1000.2302	2737.9022	5007.05	4117.3
1000.3515	2739.1145	4994.75	4102
1000.4728	2740.3262	4960.55	4061.7
1000.594	2741.5372	4939.2	4048.4
1000.7152	2742.7475	4903.55	4011.9
1000.8363	2743.9571	4873.65	3981.2
1000.9575	2745.1661	4862.8	3966
1001.0785	2746.3744	4859.7	3965.8
1001.1996	2747.582	4824.9	3932.9
1001.3206	2748.7889	4805.85	3912.5
1001.4415	2749.9952	4780.6	3887.8
1001.5625	2751.2008	4759.6	3868
1001.6833	2752.4057	4758.35	3862.65
1001.8042	2753.61	4732.75	3838.3
1001.925	2754.8136	4706.7	3811.65
1002.0458	2756.0165	4693.8	3801.65
1002.1665	2757.2188	4693.05	3802.45
1002.2872	2758.4204	4671.15	3779.4
1002.4078	2759.6213	4656.35	3761.85
1002.5285	2760.8215	4652.4	3757
1002.649	2762.0211	4639.75	3746.45
1002.7696	2763.22	4625.9	3731.5
1002.8901	2764.4182	4616.2	3723.35
1003.0106	2765.6158	4599	3707.45
1003.131	2766.8127	4569.85	3677.7
1003.2514	2768.009	4552.25	3660.3
1003.3717	2769.2045	4540.65	3648.45
1003.492	2770.3994	4536.65	3643.55
1003.6123	2771.5936	4520.8	3628.15
1003.7325	2772.7872	4496.1	3606.9
1003.8527	2773.9801	4469.7	3577.65
1003.9729	2775.1723	4450.95	3543.9
1004.093	2776.3639	4437.8	3547.7
1004.2131	2777.5548	4429.95	3535.5
1004.3331	2778.745	4427.05	3534.5
1004.4531	2779.9346	4406.2	3514.05
1004.5731	2781.1235	4384.35	3489.9
1004.693	2782.3117	4379.65	3487.35
1004.8129	2783.4992	4372.7	3481
1004.9328	2784.6861	4382.65	3490.25
1005.0526	2785.8723	4357.5	3465.45
1005.1723	2787.0579	4369.7	3477.5
1005.2921	2788.2428	4345.75	3454.25
1005.4118	2789.427	4353.7	3464.8
1005.5314	2790.6106	4334.25	3444.05
1005.651	2791.7935	4334.05	3440.95
1005.7706	2792.9757	4339.55	3447.85
1005.8902	2794.1573	4331.95	3437.55
1006.0097	2795.3382	4321.85	3429.95
1006.1291	2796.5184	4333.4	3443.3
1006.2485	2797.698	4333.65	3442.55
1006.3679	2798.8769	4342.1	3451.85
1006.4873	2800.0551	4346.3	3457.45
1006.6066	2801.2327	4334.75	3441.1
1006.7258	2802.4096	4335.4	3445.35
1006.8451	2803.5859	4341.15	3450.2
1006.9642	2804.7615	4353.95	3462.95
1007.0834	2805.9364	4380.25	3490.55
1007.2025	2807.1106	4380.55	3488.45
1007.3216	2808.2842	4421.35	3529
1007.4406	2809.4572	4436.2	3545.45
1007.5596	2810.6294	4459	3566.05
1007.6785	2811.801	4478.95	3589.6
1007.7975	2812.972	4505.95	3617.15
1007.9163	2814.1423	4539.2	3647.35
1008.0352	2815.3119	4579.85	3688.55
1008.154	2816.4808	4614.6	3724.95
1008.2727	2817.6491	4654.5	3762.1
1008.3914	2818.8167	4696	3805.75
1008.5101	2819.9837	4745.6	3849.7
1008.6288	2821.15	4777.55	3886.4
1008.7474	2822.3157	4818.8	3926.25
1008.8659	2823.4807	4848.1	3956.6
1008.9844	2824.645	4891.2	3998.7
1009.1029	2825.8086	4911.1	4019.65
1009.2214	2826.9716	4946.6	4058.5
1009.3398	2828.134	4986.45	4096.45
1009.4581	2829.2957	5001.5	4110.9
1009.5764	2830.4567	5022.9	4133.35
1009.6947	2831.617	5032.4	4140.15
1009.813	2832.7767	5045.35	4154.2
1009.9312	2833.9358	5029.15	4137.55
1010.0493	2835.0941	5020.35	4126.8
1010.1675	2836.2519	5008.8	4116.95
1010.2855	2837.4089	5002.55	4111.5
1010.4036	2838.5653	4983.25	4091.4
1010.5216	2839.7211	4958.55	4069.2
1010.6396	2840.8761	4965.85	4073.55
1010.7575	2842.0306	4980.25	4090.05
1010.8754	2843.1843	4996.75	4105.2
1010.9932	2844.3374	5047.65	4155.45
1011.111	2845.4899	5106.8	4214.2
1011.2288	2846.6417	5144.5	4253.45
1011.3465	2847.7928	5239.05	4348
1011.4642	2848.9433	5309.2	4419.15
1011.5818	2850.0931	5363.75	4472.9
1011.6995	2851.2422	5429.4	4537.1
1011.817	2852.3907	5503.6	4610.2
1011.9345	2853.5385	5560.65	4666.6
1012.052	2854.6857	5638.15	4716.85
1012.1695	2855.8323	5655.5	4764.5
1012.2869	2856.9781	5705.2	4814.25
1012.4042	2858.1233	5738.5	4847.55
1012.5216	2859.2679	5769.5	4878.25
1012.6389	2860.4118	5819.45	4927
1012.7561	2861.555	5844.5	4948.2
1012.8733	2862.6976	5866.4	4971.1
1012.9905	2863.8395	5882.45	4991.05
1013.1076	2864.9808	5893.6	5003.9
1013.2247	2866.1214	5890.05	4999
1013.3417	2867.2614	5920.05	5028.45
1013.4587	2868.4007	5910.25	5016.75
1013.5757	2869.5393	5896.5	5001.8
1013.6926	2870.6773	5912.3	5017.55
1013.8095	2871.8146	5945.45	5051.65
1013.9263	2872.9513	5915.75	5021.85
1014.0431	2874.0874	5894.15	5002.65
1014.1599	2875.2227	5882.85	4991.95
1014.2766	2876.3574	5842.25	4951.25
1014.3933	2877.4915	5801.4	4909.15
1014.51	2878.6249	5769.8	4878.75
1014.6266	2879.7577	5753.1	4860.95
1014.7431	2880.8898	5740.2	4838.2
1014.8596	2882.0212	5694.65	4803.8
1014.9761	2883.152	5673.8	4781.65
1015.0925	2884.2821	5647.65	4758.55
1015.2089	2885.4116	5623.65	4734
1015.3253	2886.5405	5607.1	4715.75
1015.4416	2887.6686	5617.75	4724.85
1015.5579	2888.7962	5593.4	4702.6
1015.6741	2889.923	5606.6	4716.65
1015.7903	2891.0493	5604.45	4715
1015.9065	2892.1748	5607.05	4716.9
1016.0226	2893.2997	5616.7	4725.5
1016.1387	2894.424	5613.55	4720.75
1016.2547	2895.5476	5613.5	4723.15
1016.3707	2896.6706	5649.15	4760.75
1016.4866	2897.7929	5672.5	4779.65
1016.6025	2898.9145	5684.85	4793.8
1016.7184	2900.0355	5715.5	4824.45
1016.8342	2901.1559	5713.5	4820.75
1016.95	2902.2756	5747.7	4853.3
1017.0658	2903.3946	5775.85	4886.5
1017.1815	2904.513	5783.95	4891.7
1017.2971	2905.6308	5819	4928.85
1017.4127	2906.7479	5834.95	4943.05
1017.5283	2907.8643	5844.05	4952.2
1017.6439	2908.9801	5827.3	4935.35
1017.7594	2910.0953	5846.1	4955.1
1017.8748	2911.2098	5816	4922.2
1017.9902	2912.3236	5801.9	4904.35
1018.1056	2913.4368	5794.85	4899.9
1018.2209	2914.5494	5766.6	4874.15
1018.3362	2915.6613	5741.3	4845.65
1018.4515	2916.7725	5708.15	4815.45
1018.5667	2917.8831	5675.6	4785.15
1018.6819	2918.9931	5633.55	4740.5
1018.797	2920.1024	5602.4	4709.05
1018.9121	2921.211	5583.75	4692.45
1019.0271	2922.319	5555.35	4663.65
1019.1421	2923.4264	5521.5	4632.05
1019.2571	2924.5331	5486.35	4596.85
1019.372	2925.6391	5463.75	4572.8
1019.4869	2926.7445	5463.85	4572.65
1019.6017	2927.8493	5443.55	4551.55
1019.7165	2928.9534	5448.3	4557
1019.8313	2930.0569	5415.45	4522.55
1019.946	2931.1597	5405.35	4511.75
1020.0606	2932.2619	5371.1	4481.7
1020.1753	2933.3634	5371.3	4481.3
1020.2899	2934.4643	5367	4468.15
1020.4044	2935.5645	5321.15	4424.25
1020.5189	2936.6641	5272.9	4376.55
1020.6334	2937.763	5234.15	4344.15
1020.7478	2938.8613	5178.7	4288.45
1020.8622	2939.959	5120.7	4222.6
1020.9765	2941.056	5028.85	4139.35
1021.0908	2942.1523	4945	4054.15
1021.2051	2943.248	4851.65	3960.65
1021.3193	2944.3431	4745.15	3853.85
1021.4334	2945.4375	4652.85	3760.4
1021.5476	2946.5313	4533.5	3644.35
1021.6617	2947.6244	4404.1	3511.75
1021.7757	2948.7169	4295.05	3403
1021.8897	2949.8087	4208.3	3317.7
1022.0037	2950.8999	4088.85	3197.15
1022.1176	2951.9904	4015.8	3125.7
1022.2315	2953.0803	3926.6	3036.35
1022.3453	2954.1696	3856.05	2964.2
1022.4591	2955.2582	3800.25	2910
1022.5728	2956.3462	3723.95	2833.05
1022.6865	2957.4335	3686.75	2794.5
1022.8002	2958.5202	3635.2	2742.45
1022.9138	2959.6062	3605.45	2713.25
1023.0274	2960.6916	3572	2682.3
1023.141	2961.7764	3547.85	2654.4
1023.2545	2962.8605	3521.25	2630.7
1023.3679	2963.9439	3507.35	2616.9
1023.4813	2965.0267	3493.85	2601.75
1023.5947	2966.1089	3501.4	2587.55
1023.708	2967.1905	3455.95	2565.35
1023.8213	2968.2714	3451.6	2562.05
1023.9346	2969.3516	3438.5	2548.6
1024.0478	2970.4312	3447.05	2549
1024.1609	2971.5102	3414.15	2523.7
1024.274	2972.5885	3411.05	2521.7
1024.3871	2973.6662	3434.5	2538.3
1024.5002	2974.7432	3404.55	2513.4
1024.6132	2975.8196	3384	2493.15
1024.7261	2976.8954	3369.4	2480.65
1024.839	2977.9705	3354.7	2463.55
1024.9519	2979.045	3340.85	2450.15
1025.0647	2980.1188	3320.55	2428.9
1025.1775	2981.192	3279.9	2389.5
1025.2902	2982.2645	3262.9	2371.35
1025.4029	2983.3364	3228.1	2336.6
1025.5156	2984.4077	3187.65	2297
1025.6282	2985.4783	3162.5	2265.75
1025.7407	2986.5483	3123.4	2235.35
1025.8532	2987.6177	3082.45	2193.3
1025.9657	2988.6864	3034.8	2143.9
1026.0782	2989.7545	3006.15	2112.8
1026.1906	2990.8219	2971.1	2082.1
1026.3029	2991.8887	2939.7	2045.25
1026.4152	2992.9548	2906.6	2014.95
1026.5275	2994.0204	2868.65	1978.15
1026.6397	2995.0852	2818.25	1929.05
1026.7519	2996.1495	2800.9	1908.2
1026.864	2997.2131	2762.35	1871.1
1026.9761	2998.276	2731.9	1843.35
1027.0882	2999.3383	2729.95	1838.05
1027.2002	3000.4	2684.7	1794.15
1027.3122	3001.4611	2672.75	1782.35
1027.4241	3002.5215	2651.8	1759.7
1027.536	3003.5812	2626.25	1736
1027.6478	3004.6404	2617.4	1727.35
1027.7596	3005.6989	2603.2	1709.45
1027.8714	3006.7567	2587.95	1696.6
1027.9831	3007.8139	2590.85	1677.6
1028.0947	3008.8705	2569.85	1679.3
1028.2064	3009.9264	2552.4	1658.55
1028.3179	3010.9818	2540.7	1649.5
1028.4295	3012.0364	2541.3	1649.95
1028.541	3013.0905	2536.45	1645.6
1028.6524	3014.1439	2517.3	1626
1028.7638	3015.1966	2521.45	1630.55
1028.8752	3016.2487	2512.55	1618.95
1028.9865	3017.3002	2511.6	1614.1
1029.0978	3018.3511	2504.1	1614.2
1029.209	3019.4013	2496.15	1605.35
1029.3202	3020.4509	2490.65	1600.65
1029.4314	3021.4998	2482.25	1591
1029.5425	3022.5481	2479.3	1589.65
1029.6535	3023.5958	2466.7	1576
1029.7645	3024.6428	2480.15	1588.95
1029.8755	3025.6892	2461.4	1570.75
1029.9864	3026.735	2466.75	1575.85
1030.0973	3027.7802	2462.5	1572.55
1030.2082	3028.8247	2453.45	1564.6
1030.319	3029.8685	2457.75	1568.35
1030.4297	3030.9118	2456.1	1565.15
1030.5404	3031.9544	2462.85	1571.2
1030.6511	3032.9963	2457.3	1566.6
1030.7617	3034.0376	2443.1	1552.6
1030.8723	3035.0783	2456.1	1564.3
1030.9829	3036.1184	2456.25	1563.15
1031.0934	3037.1578	2453.3	1561
1031.2038	3038.1966	2450.1	1558.7
1031.3142	3039.2348	2439.55	1551.3
1031.4246	3040.2723	2447.8	1550.7
1031.5349	3041.3092	2435.15	1544.2
1031.6452	3042.3455	2425.35	1533.3
1031.7554	3043.3811	2421.35	1529.85
1031.8656	3044.4161	2413.25	1523.9
1031.9758	3045.4505	2398.35	1508.6
1032.0859	3046.4842	2396.3	1507.45
1032.1959	3047.5173	2381.1	1489.8
1032.3059	3048.5498	2378.7	1487.75
1032.4159	3049.5816	2355.65	1465.35
1032.5258	3050.6128	2359.2	1466.2
1032.6357	3051.6434	2337.4	1445.2
1032.7455	3052.6734	2331.65	1440.7
1032.8553	3053.7027	2321	1428.8
1032.9651	3054.7314	2304.55	1415.65
1033.0748	3055.7594	2292.35	1402.85
1033.1845	3056.7868	2278.2	1388.15
1033.2941	3057.8136	2277.8	1389.15
1033.4037	3058.8398	2261.8	1372.25
1033.5132	3059.8653	2254.35	1363.55
1033.6227	3060.8902	2239.5	1348.4
1033.7321	3061.9145	2229	1339.35
1033.8415	3062.9381	2228.4	1339.7
1033.9509	3063.9612	2227.05	1320.5
1034.0602	3064.9835	2214.55	1325.9
1034.1694	3066.0053	2200.55	1306.2
1034.2787	3067.0264	2188.95	1300.25
1034.3878	3068.0469	2187.4	1294.45
1034.497	3069.0668	2169.6	1276.8
1034.6061	3070.086	2159.55	1271.05
1034.7151	3071.1046	2143.8	1252.7
1034.8241	3072.1226	2125.5	1234.75
1034.9331	3073.1399	2110.65	1218.9
1035.042	3074.1567	2105.65	1213.1
1035.1508	3075.1727	2096.7	1201.95
1035.2597	3076.1882	2077.9	1188.15
1035.3684	3077.203	2070.75	1180.2
1035.4772	3078.2173	2056	1166.85
1035.5859	3079.2308	2047.1	1154.9
1035.6945	3080.2438	2037.3	1146.25
1035.8031	3081.2561	2015.05	1123.5
1035.9117	3082.2678	2002.35	1112.4
1036.0202	3083.2789	1995.25	1104.55
1036.1286	3084.2893	1997	1106.25
1036.2371	3085.2991	1985.3	1095.95
1036.3454	3086.3083	1974.3	1079.45
1036.4538	3087.3169	1960.05	1068.15
1036.562	3088.3248	1955.2	1063.45
1036.6703	3089.3321	1950.3	1058.5
1036.7785	3090.3388	1933.35	1043.1
1036.8866	3091.3449	1938.8	1047.1
1036.9948	3092.3503	1929.6	1036.95
1037.1028	3093.3551	1913.75	1024.05
1037.2108	3094.3593	1904.15	1015
1037.3188	3095.3629	1892.5	1002.35
1037.4267	3096.3658	1893.2	1001.8
1037.5346	3097.3681	1887.3	995.9
1037.6425	3098.3698	1887.35	995.65
1037.7503	3099.3708	1878.95	984.45
1037.858	3100.3713	1863.4	974.85
1037.9657	3101.3711	1858.65	968.65
1038.0734	3102.3702	1957.05	949.4
1038.181	3103.3688	1861.95	967.85
1038.2886	3104.3667	1845.45	957.6
1038.3961	3105.364	1829.95	941
1038.5036	3106.3607	1823.45	929.6
1038.611	3107.3568	1817.85	923.95
1038.7184	3108.3522	1816.1	926.7
1038.8257	3109.347	1809.75	917.6
1038.933	3110.3412	1815.75	922.4
1039.0403	3111.3348	1786.15	894.8
1039.1475	3112.3277	1790.4	898.5
1039.2547	3113.32	1788.65	899.4
1039.3618	3114.3117	1787.1	895.4
1039.4689	3115.3028	1778.2	887.45
1039.5759	3116.2932	1770.95	876.6
1039.6829	3117.2831	1773.85	879.2
1039.7898	3118.2723	1762.05	873.45
1039.8967	3119.2608	1759.55	868.25
1040.0035	3120.2488	1740.85	851.85
1040.1103	3121.2361	1746.4	854.85
1040.2171	3122.2229	1745	854.8
1040.3238	3123.209	1741.3	850.7
1040.4305	3124.1944	1733.85	843.45
1040.5371	3125.1793	1733.75	840.35
1040.6437	3126.1635	1722.15	833.85
1040.7502	3127.1471	1715.35	824.55
1040.8567	3128.1301	1710.55	821.1
1040.9631	3129.1125	1699.65	808.8
1041.0695	3130.0942	1698.65	810
1041.1759	3131.0753	1708.5	808.25
1041.2822	3132.0558	1705.9	814.1
1041.3884	3133.0357	1695.45	806.3
1041.4946	3134.015	1686.55	796.15
1041.6008	3134.9936	1684.3	792.1
1041.7069	3135.9716	1697.45	786.1
1041.813	3136.949	1679.4	788
1041.919	3137.9258	1677.1	780.25
1042.025	3138.902	1676.9	782.15
1042.1309	3139.8775	1660.95	772.05
1042.2368	3140.8524	1661.3	772.4
1042.3427	3141.8267	1663.9	771.4
1042.4485	3142.8004	1658.15	766.05
1042.5542	3143.7735	1653.05	756.05
1042.6599	3144.7459	1648.35	756.7
1042.7656	3145.7178	1646.35	754.35
1042.8712	3146.689	1630.75	742.25
1042.9768	3147.6596	1638.8	747.55
1043.0823	3148.6295	1635.45	746.5
1043.1878	3149.5989	1631.3	742.45
1043.2932	3150.5676	1620.95	733
1043.3986	3151.5357	1623.35	733.1
1043.5039	3152.5032	1607.9	718.2
1043.6092	3153.4701	1609.9	719.85
1043.7145	3154.4364	1615.9	722.05
1043.8197	3155.402	1599.4	710.5
1043.9248	3156.367	1601.35	708.45
1044.03	3157.3315	1634.45	699.2
1044.135	3158.2952	1595	703.65
1044.24	3159.2584	1586.5	696.9
1044.345	3160.221	1579.15	688.95
1044.4499	3161.1829	1576.2	685.15
1044.5548	3162.1442	1570.9	681.25
1044.6596	3163.105	1566.8	677.65
1044.7644	3164.065	1560.55	670.2
1044.8692	3165.0245	1558.15	665.35
1044.9739	3165.9834	1561.5	671.25
1045.0785	3166.9416	1553.8	665.05
1045.1831	3167.8993	1548.6	656.6
1045.2877	3168.8563	1548.5	657.6
1045.3922	3169.8127	1533.5	646.1
1045.4966	3170.7684	1537.6	647.9
1045.6011	3171.7236	1534.55	644.85
1045.7054	3172.6782	1531.9	641.05
1045.8098	3173.6321	1530.2	640.85
1045.914	3174.5854	1527.75	633.6
1046.0183	3175.5381	1515.6	623.55
1046.1224	3176.4902	1518.2	628.5
1046.2266	3177.4417	1511.75	620.9
1046.3307	3178.3926	1505.25	616.45
1046.4347	3179.3428	1510.2	622.4
1046.5387	3180.2924	1506	618.25
1046.6427	3181.2415	1499.45	608.6
1046.7466	3182.1899	1494.2	601.7
1046.8504	3183.1377	1496.45	606.7
1046.9542	3184.0848	1490.65	597.5
1047.058	3185.0314	1479.1	587.2
1047.1617	3185.9773	1483.4	592.5
1047.2654	3186.9227	1483.4	595.4
1047.369	3187.8674	1473.45	583.85
1047.4726	3188.8115	1473.35	580.15
1047.5761	3189.755	1472.2	581.5
1047.6796	3190.6979	1472	582.85
1047.783	3191.6402	1463.65	575.35
1047.8864	3192.5818	1465.35	576.25
1047.9898	3193.5229	1485	570.85
1048.0931	3194.4633	1455.75	564.75
1048.1963	3195.4031	1463.95	573.65
1048.2995	3196.3423	1452.85	563.9
1048.4027	3197.2809	1451.15	561.1
1048.5058	3198.2189	1447.75	557.45
1048.6089	3199.1563	1454.1	559.5
1048.7119	3200.0931	1430.9	542
1048.8148	3201.0292	1439.1	552.05
1048.9178	3201.9648	1430	539.35
1049.0206	3202.8997	1428.1	535.55
1049.1235	3203.834	1420.5	530.65
1049.2262	3204.7677	1421.7	532.25
1049.329	3205.7008	1419.65	526.8
1049.4317	3206.6333	1418.45	529.4
1049.5343	3207.5652	1412.6	520.1
1049.6369	3208.4964	1412.45	521.85
1049.7394	3209.4271	1406.75	516.7
1049.8419	3210.3571	1411.6	523.1
1049.9444	3211.2865	1400.8	509.9
1050.0468	3212.2154	1406.6	515.8
1050.1491	3213.1436	1396.7	504.25
1050.2514	3214.0712	1399.9	501.55
1050.3537	3214.9982	1395.2	506.9
1050.4559	3215.9246	1394.5	503.25
1050.5581	3216.8503	1393.7	505.95
1050.6602	3217.7755	1390.8	501.2
1050.7623	3218.7001	1383.15	494
1050.8643	3219.624	1380.5	490.55
1050.9663	3220.5473	1378.55	489.1
1051.0682	3221.4701	1378.15	484.55
1051.1701	3222.3922	1381.35	490.25
1051.2719	3223.3137	1375.15	483.85
1051.3737	3224.2346	1372.15	483
1051.4754	3225.1549	1372.65	483.05
1051.5771	3226.0746	1364.35	475.25
1051.6788	3226.9937	1361.15	472.4
1051.7804	3227.9121	1363.25	473.25
1051.8819	3228.83	1361.25	472.4
1051.9834	3229.7473	1357.05	467.7
1052.0849	3230.6639	1352.5	461.5
1052.1863	3231.5799	1341.55	452.35
1052.2876	3232.4954	1354.8	464.9
1052.3889	3233.4102	1348	459.25
1052.4902	3234.3244	1348.35	460
1052.5914	3235.238	1345.9	456.2
1052.6926	3236.151	1357.65	446.55
1052.7937	3237.0634	1333.25	443.05
1052.8948	3237.9752	1333.6	445.45
1052.9958	3238.8864	1328.45	436.75
1053.0968	3239.797	1329.3	441
1053.1977	3240.7069	1323.9	433.2
1053.2986	3241.6163	1324.95	433.15
1053.3994	3242.5251	1319.35	430.1
1053.5002	3243.4332	1319.6	430.35
1053.6009	3244.3408	1315.3	425.4
1053.7016	3245.2477	1309.05	420.85
1053.8022	3246.154	1305.1	412.15
1053.9028	3247.0598	1304	414.4
1054.0034	3247.9649	1304.45	416.2
1054.1039	3248.8694	1303.95	413.6
1054.2043	3249.7733	1296.65	409.1
1054.3047	3250.6766	1304.3	412.45
1054.4051	3251.5793	1295.1	403.3
1054.5054	3252.4814	1298.3	408.2
1054.6056	3253.3829	1289.4	400.15
1054.7058	3254.2838	1287.45	398.55
1054.806	3255.1841	1281.9	395.65
1054.9061	3256.0838	1274.9	384.7
1055.0061	3256.9829	1273.9	385.75
1055.1062	3257.8814	1270.2	379.15
1055.2061	3258.7792	1270.2	379
1055.306	3259.6765	1264.2	373.35
1055.4059	3260.5731	1256.35	367.35
1055.5057	3261.4692	1257.9	368
1055.6055	3262.3647	1251.3	362.95
1055.7052	3263.2595	1247.85	359.8
1055.8049	3264.1538	1239.45	350.4
1055.9045	3265.0474	1237.8	347.9
1056.0041	3265.9404	1225.15	335.6
1056.1036	3266.8329	1225.3	336.95
1056.2031	3267.7247	1227.85	327.95
1056.3025	3268.616	1213.95	325.6
1056.4019	3269.5066	1206.55	317.7
1056.5013	3270.3966	1197.85	309.05
1056.6005	3271.286	1188.5	300.3
