Software Version:	3.9.2.0
Unit SN:	10000200
Spectrometer SN:	6960
Date:	3/6/2024 11:00:44 AM
Data Line Index:	25
Spectral Points:	2048
Integration time (ms):	125
Averages:	20
Delay (ms):	30
Sequence Number:	1
Processing:	dark subtract
Laser Power (mW):	300
Laser Current (mA):	821
Laser Diode Temp (C):	25.1
Laser Case Temp (C):	28.1
System Temp (C):	28
Spectrometer Temp (C):	25.4
CCD Temp (C):	-0.003
Secondary Temp (C):	19.998
Heatsink Temp (C):	23.776
CCDPCB Temp (C):	37.274
SecondaryPCB Temp (C):	34.628

Wavelength	RamanShift	Raw Counts	Dark Subtracted
787.061	30.1047	1082.1	668.15
787.2016	32.3739	1108.8	696.4
787.3422	34.6426	1147.8	733.75
787.4828	36.9109	1195.1	780.7
787.6235	39.1787	1253.45	834.6
787.7642	41.4461	1306.4	883.3
787.9049	43.7131	1370.1	940.45
788.0456	45.9796	1426.75	995.8
788.1863	48.2456	1484.25	1051.25
788.3271	50.5112	1557.6	1116.9
788.4679	52.7764	1630.3	1191.05
788.6087	55.0411	1700.6	1255.7
788.7496	57.3054	1776.2	1325.55
788.8904	59.5692	1859.35	1408.05
789.0313	61.8326	1952.15	1496.9
789.1722	64.0955	2052.3	1591.4
789.3132	66.3579	2177.1	1712.4
789.4541	68.6199	2319.35	1852.1
789.5951	70.8815	2543.9	2074.85
789.7361	73.1426	3032.7	2559.35
789.8771	75.4032	4219.85	3740.8
790.0181	77.6634	7282.7	6797.45
790.1592	79.9231	15064.85	14575.15
790.3003	82.1824	48483.1	47982.05
790.4414	84.4412	65535	65020.2
790.5825	86.6995	65535	64993.95
790.7237	88.9574	65535	64973.95
790.8648	91.2148	65535	64959.25
791.006	93.4717	65535	64946.15
791.1472	95.7282	65535	64939.4
791.2885	97.9842	65535	64938.8
791.4297	100.2398	65535	64934.75
791.571	102.4949	65535	64931.5
791.7123	104.7495	65535	64925.3
791.8536	107.0036	65535	64926.5
791.9949	109.2573	65535	64928.35
792.1363	111.5105	65535	64927.8
792.2777	113.7632	65535	64923.6
792.4191	116.0154	65535	64915.5
792.5605	118.2672	65535	64917.75
792.7019	120.5185	65535	64916.35
792.8434	122.7693	65535	64915.6
792.9849	125.0197	65535	64909.8
793.1264	127.2696	65535	64910.6
793.2679	129.519	65535	64905.15
793.4094	131.7679	65535	64905.15
793.551	134.0163	65535	64898.65
793.6926	136.2642	65535	64897.85
793.8342	138.5117	65535	64887.15
793.9758	140.7587	65535	64893.65
794.1175	143.0052	65535	64888.55
794.2591	145.2512	65535	64891.9
794.4008	147.4967	65535	64888.45
794.5425	149.7417	65535	64885.55
794.6842	151.9863	65535	64881.15
794.826	154.2304	65535	64878.6
794.9677	156.4739	65535	64872.2
795.1095	158.717	65535	64870.8
795.2513	160.9596	65535	64868.2
795.3931	163.2017	65535	64867.3
795.535	165.4433	65535	64866.05
795.6768	167.6844	65535	64862.25
795.8187	169.925	65535	64858.15
795.9606	172.1651	65535	64859.35
796.1025	174.4047	65535	64850.15
796.2445	176.6439	65535	64853.6
796.3864	178.8825	65535	64849.3
796.5284	181.1206	65535	64844.9
796.6704	183.3582	65535	64842.25
796.8124	185.5954	65535	64839.55
796.9544	187.832	65535	64840.75
797.0965	190.0681	65535	64836.3
797.2386	192.3037	65535	64831.05
797.3806	194.5388	65535	64827.9
797.5228	196.7734	65535	64825
797.6649	199.0075	65535	64820.95
797.807	201.2411	65535	64817.15
797.9492	203.4742	65535	64821.35
798.0914	205.7068	65535	64816.6
798.2336	207.9389	65535	64815.7
798.3758	210.1704	65535	64812.65
798.518	212.4015	65535	64809.4
798.6603	214.632	65535	64819.3
798.8025	216.862	65535	64826.5
798.9448	219.0915	65535	64830.15
799.0871	221.3205	65535	64832.05
799.2294	223.549	65535	64835.15
799.3718	225.777	65535	64837.45
799.5141	228.0044	65535	64831.2
799.6565	230.2314	65535	64832.7
799.7989	232.4578	65535	64828.5
799.9413	234.6837	65535	64821.05
800.0837	236.909	65535	64821
800.2262	239.1339	65535	64793.7
800.3687	241.3582	65535	64810.45
800.5111	243.582	65535	64780.5
800.6536	245.8053	65535	64790.35
800.7961	248.0281	65535	64795.1
800.9387	250.2503	65535	64789.2
801.0812	252.472	65535	64782.6
801.2238	254.6932	65535	64785.6
801.3664	256.9139	65535	64788.3
801.509	259.134	65535	64784.3
801.6516	261.3536	65535	64783.8
801.7942	263.5727	65535	64779.55
801.9369	265.7912	65535	64785.05
802.0795	268.0092	65535	64785.2
802.2222	270.2267	65535	64779.65
802.3649	272.4436	65535	64780.3
802.5076	274.6601	65535	64771.7
802.6504	276.8759	65535	64778
802.7931	279.0913	65535	64774
802.9359	281.3061	65535	64776.7
803.0787	283.5204	65535	64769
803.2215	285.7341	65535	64768.05
803.3643	287.9473	65535	64753
803.5071	290.16	65535	64757.4
803.6499	292.3721	65535	64766.35
803.7928	294.5837	65535	64766.25
803.9357	296.7947	65535	64767.85
804.0786	299.0052	65535	64767.5
804.2215	301.2152	65535	64765.05
804.3644	303.4246	65535	64765.55
804.5074	305.6334	65535	64765.1
804.6503	307.8418	65535	64761.6
804.7933	310.0495	65535	64762.15
804.9363	312.2568	65535	64764.55
805.0793	314.4635	65535	64758.1
805.2223	316.6696	65535	64758.55
805.3653	318.8752	65535	64752
805.5084	321.0802	65535	64759.6
805.6514	323.2847	65535	64757.2
805.7945	325.4887	65535	64755.5
805.9376	327.692	65535	64755.2
806.0807	329.8949	65535	64752.3
806.2238	332.0972	65535	64753.4
806.367	334.2989	65535	64745.6
806.5101	336.5001	65535	64747.05
806.6533	338.7007	65535	64744.55
806.7965	340.9008	65535	64745.1
806.9397	343.1003	65535	64741.1
807.0829	345.2992	65535	64741.35
807.2261	347.4976	65535	64741.5
807.3693	349.6955	65535	64736.95
807.5126	351.8927	65535	64738.3
807.6559	354.0895	65535	64728.05
807.7991	356.2856	65535	64733
807.9424	358.4812	65535	64734.5
808.0857	360.6763	65535	64733.25
808.2291	362.8707	65535	64736
808.3724	365.0646	65535	64728.75
808.5158	367.258	65535	64729.05
808.6591	369.4508	65535	64727.25
808.8025	371.643	65535	64723.15
808.9459	373.8346	65535	64720.45
809.0893	376.0257	65535	64720.55
809.2327	378.2162	65535	64718.4
809.3762	380.4062	65535	64714.65
809.5196	382.5956	65535	64713.65
809.6631	384.7844	65535	64717.15
809.8066	386.9726	65535	64715.65
809.9501	389.1603	65535	64715.85
810.0936	391.3474	65535	64674.5
810.2371	393.5339	65535	64720.45
810.3806	395.7199	65535	64726.25
810.5241	397.9052	65535	64724.85
810.6677	400.09	65535	64725.55
810.8113	402.2743	65535	64724.95
810.9548	404.4579	65535	64726.65
811.0984	406.641	65535	64722.9
811.2421	408.8235	65535	64725.3
811.3857	411.0054	65535	64719.9
811.5293	413.1868	65535	64723.35
811.673	415.3675	65535	64719.6
811.8166	417.5477	65535	64717.8
811.9603	419.7273	65535	64713.75
812.104	421.9064	65535	64705.3
812.2477	424.0848	65535	64711.6
812.3914	426.2627	65535	64708
812.5351	428.4399	65535	64705.65
812.6788	430.6166	65535	64701.9
812.8226	432.7928	65535	64700.05
812.9663	434.9683	65535	64703.05
813.1101	437.1432	65535	64699.2
813.2539	439.3176	65535	64700.4
813.3977	441.4914	65535	64703.6
813.5415	443.6645	65535	64693.35
813.6853	445.8371	65535	64695.9
813.8291	448.0091	65535	64702.2
813.973	450.1806	65535	64697.1
814.1168	452.3514	65535	64698.85
814.2607	454.5216	65535	64690.05
814.4046	456.6913	65535	64693.45
814.5485	458.8603	65535	64695.45
814.6924	461.0288	65535	64700.15
814.8363	463.1967	65535	64701.3
814.9802	465.3639	65535	64694.8
815.1241	467.5306	65535	64694.6
815.2681	469.6967	65535	64694.65
815.412	471.8622	65535	64694.45
815.556	474.0271	65535	64696.55
815.7	476.1914	65535	64692.1
815.844	478.3551	65535	64694.55
815.988	480.5182	65535	64691.95
816.132	482.6807	65535	64692.85
816.276	484.8426	65535	64693.2
816.4201	487.0039	65535	64693.4
816.5641	489.1647	65535	64690.1
816.7082	491.3248	65535	64693.55
816.8522	493.4843	65535	64693.95
816.9963	495.6432	65535	64691.8
817.1404	497.8015	65535	64686.3
817.2845	499.9592	65535	64688.05
817.4286	502.1163	65535	64685.85
817.5727	504.2728	65535	64685
817.7168	506.4287	65535	64689.3
817.861	508.5839	65535	64687.25
818.0051	510.7386	65535	64686.2
818.1493	512.8927	65535	64685.8
818.2935	515.0461	65535	64688.6
818.4377	517.199	65535	64684.1
818.5818	519.3512	65535	64685.6
818.726	521.5029	65535	64680.25
818.8703	523.6539	65535	64680.8
819.0145	525.8043	65535	64683.8
819.1587	527.9541	65535	64676.2
819.303	530.1033	65535	64677.95
819.4472	532.2519	65535	64680.45
819.5915	534.3999	65535	64677.8
819.7357	536.5472	65535	64679.85
819.88	538.694	65535	64675.9
820.0243	540.8401	65535	64675.2
820.1686	542.9856	65535	64677.1
820.3129	545.1305	65535	64675.15
820.4572	547.2748	65535	64674.25
820.6016	549.4185	65535	64672.95
820.7459	551.5615	65535	64672.2
820.8902	553.704	65535	64672.8
821.0346	555.8458	65535	64674.05
821.1789	557.987	65535	64673.35
821.3233	560.1276	65535	64671.2
821.4677	562.2675	65535	64676.85
821.6121	564.4069	65535	64674.7
821.7565	566.5456	65535	64675.75
821.9009	568.6837	65535	64675
822.0453	570.8212	65535	64676.65
822.1897	572.958	65535	64674.65
822.3342	575.0942	65535	64675.1
822.4786	577.2299	65535	64674.25
822.6231	579.3648	65535	64676.55
822.7675	581.4992	65535	64676.2
822.912	583.6329	65535	64675.5
823.0565	585.766	65535	64678.9
823.201	587.8985	65535	64677
823.3454	590.0304	65535	64659.3
823.4899	592.1616	65535	64670.35
823.6345	594.2922	65535	64671.55
823.779	596.4222	65535	64667.4
823.9235	598.5515	65535	64668.5
824.068	600.6802	65535	64665.6
824.2126	602.8083	65535	64670.45
824.3571	604.9358	65535	64664.8
824.5017	607.0626	65535	64669.1
824.6462	609.1888	65535	64665.2
824.7908	611.3144	65535	64664.25
824.9354	613.4393	65535	64667.8
825.08	615.5636	65535	64665.7
825.2246	617.6873	65535	64665.9
825.3692	619.8103	65535	64662.95
825.5138	621.9327	65535	64663.85
825.6584	624.0544	65535	64669.4
825.803	626.1756	65535	64668
825.9477	628.2961	65535	64661.55
826.0923	630.4159	65535	64664.65
826.237	632.5351	65535	64665.85
826.3816	634.6537	65535	64664.45
826.5263	636.7716	65535	64662.8
826.6709	638.8889	65535	64658.9
826.8156	641.0056	65535	64661.85
826.9603	643.1216	65535	64660.1
827.105	645.237	65535	64661.5
827.2497	647.3518	65535	64661.05
827.3944	649.4659	65535	64664.35
827.5391	651.5793	65535	64662.5
827.6838	653.6922	65535	64662.45
827.8285	655.8043	65535	64662.3
827.9733	657.9159	65535	64661.25
828.118	660.0268	65535	64659.55
828.2627	662.137	65535	64658.6
828.4075	664.2466	65535	64656.25
828.5522	666.3556	65535	64657.35
828.697	668.4639	65535	64655.55
828.8418	670.5716	65535	64661.4
828.9865	672.6786	65535	64657.1
829.1313	674.785	65535	64655
829.2761	676.8907	65535	64656.2
829.4209	678.9958	65535	64656.9
829.5657	681.1002	65535	64655.6
829.7105	683.204	65535	64653.25
829.8553	685.3072	65535	64654.75
830.0001	687.4097	65535	64657.25
830.1449	689.5115	65535	64654.4
830.2898	691.6127	65535	64658.05
830.4346	693.7132	65535	64654.05
830.5794	695.8131	65535	64646.15
830.7243	697.9123	65535	64653.75
830.8691	700.0109	65535	64652.55
831.014	702.1089	65535	64655.65
831.1588	704.2061	65535	64656.5
831.3037	706.3028	65535	64652.05
831.4486	708.3987	65535	64654.65
831.5935	710.4941	65535	64653.75
831.7383	712.5887	65535	64653.65
831.8832	714.6827	65535	64648.05
832.0281	716.7761	65535	64653.8
832.173	718.8688	65535	64651.9
832.3179	720.9608	65535	64651.25
832.4628	723.0522	65535	64647.75
832.6077	725.1429	65535	64651.9
832.7527	727.233	65535	64649.1
832.8976	729.3224	65535	64649.85
833.0425	731.4112	65535	64649.7
833.1874	733.4993	65535	64648.4
833.3324	735.5867	65535	64648.25
833.4773	737.6735	65535	64647.1
833.6222	739.7596	65535	64647.1
833.7672	741.845	65535	64649.35
833.9122	743.9298	65535	64650
834.0571	746.014	65535	64648.5
834.2021	748.0974	65535	64647.55
834.347	750.1802	65535	64647.65
834.492	752.2624	65535	64648.7
834.637	754.3439	65535	64647.05
834.782	756.4247	65535	64639.25
834.9269	758.5048	65535	64647.05
835.0719	760.5843	65535	64648.05
835.2169	762.6631	65535	64645.95
835.3619	764.7413	65535	64648.8
835.5069	766.8188	65535	64646.05
835.6519	768.8956	65535	64642.8
835.7969	770.9718	65535	64648.3
835.9419	773.0473	65535	64646.1
836.0869	775.1221	65535	64648.1
836.232	777.1962	65535	64648.3
836.377	779.2697	65535	64644.75
836.522	781.3426	65535	64627.2
836.667	783.4147	65535	64643.3
836.8121	785.4862	65535	64648.1
836.9571	787.557	65535	64646.3
837.1021	789.6271	65535	64645.5
837.2472	791.6966	65535	64647.05
837.3922	793.7654	65535	64644.8
837.5373	795.8335	65535	64644.65
837.6823	797.901	65535	64647.9
837.8274	799.9678	65535	64643.55
837.9724	802.0339	65535	64645.7
838.1175	804.0993	65535	64637.25
838.2626	806.1641	65535	64643.65
838.4076	808.2282	65535	64646.05
838.5527	810.2916	65535	64642.05
838.6978	812.3544	65535	64645.6
838.8428	814.4164	65535	64643.85
838.9879	816.4778	65535	64644.8
839.133	818.5385	65535	64647.35
839.2781	820.5986	65535	64645.05
839.4232	822.658	65535	64640.35
839.5682	824.7166	65535	64644.25
839.7133	826.7747	65535	64645.85
839.8584	828.832	65535	64644.25
840.0035	830.8886	65535	64642.75
840.1486	832.9446	65535	64643.75
840.2937	834.9999	65535	64645.3
840.4388	837.0545	65535	64641.5
840.5839	839.1085	65535	64642.45
840.729	841.1618	65535	64642.2
840.8741	843.2143	65535	64642.55
841.0192	845.2662	65535	64642.9
841.1643	847.3175	65535	64644.25
841.3095	849.368	65535	64645.6
841.4546	851.4179	65535	64641.25
841.5997	853.467	65535	64642.9
841.7448	855.5155	65535	64641.9
841.8899	857.5633	65535	64640.55
842.0351	859.6105	65535	64643.7
842.1802	861.6569	65535	64642.4
842.3253	863.7027	65535	64641.3
842.4704	865.7478	65535	64639.8
842.6156	867.7922	65535	64640.45
842.7607	869.8359	65535	64640.1
842.9058	871.8789	65535	64642.25
843.0509	873.9212	65535	64607.45
843.1961	875.9629	65535	64638.45
843.3412	878.0039	65535	64640.25
843.4863	880.0441	65535	64642.45
843.6315	882.0837	65535	64641.6
843.7766	884.1226	65535	64641.95
843.9218	886.1609	65535	64642.85
844.0669	888.1984	65535	64641.85
844.212	890.2352	65535	64641.55
844.3572	892.2714	65535	64638.15
844.5023	894.3069	65535	64636.4
844.6475	896.3416	65535	64639.25
844.7926	898.3757	65535	64640.05
844.9377	900.4091	65535	64640.6
845.0829	902.4418	65535	64632.7
845.228	904.4739	65535	64636.4
845.3732	906.5052	65535	64637.25
845.5183	908.5358	65535	64639.05
845.6635	910.5658	65535	64637.6
845.8086	912.595	65535	64637.7
845.9538	914.6236	65535	64638.1
846.0989	916.6515	65535	64639.2
846.2441	918.6786	65535	64637.9
846.3892	920.7051	65535	64638.95
846.5344	922.7309	65535	64638.8
846.6795	924.756	65535	64638.3
846.8246	926.7804	65535	64636.15
846.9698	928.8041	65535	64634.55
847.1149	930.8272	65535	64641
847.2601	932.8495	65535	64638.1
847.4052	934.8711	65535	64638.75
847.5504	936.892	65535	64637.15
847.6955	938.9123	65535	64637.75
847.8407	940.9318	65535	64639.85
847.9858	942.9506	65535	64636.65
848.131	944.9688	65535	64639.4
848.2761	946.9862	65535	64638.85
848.4213	949.003	65535	64637.55
848.5664	951.019	65535	64637.5
848.7115	953.0344	65535	64637.1
848.8567	955.0491	65535	64637.9
849.0018	957.063	65535	64637.2
849.147	959.0763	65535	64638.05
849.2921	961.0888	65535	64634.6
849.4373	963.1007	65535	64637.3
849.5824	965.1119	65535	64638.55
849.7275	967.1223	65535	64637.65
849.8727	969.1321	65535	64639.75
850.0178	971.1412	65535	64637.35
850.1629	973.1495	65535	64638.95
850.3081	975.1572	65535	64601.45
850.4532	977.1641	65535	64637.65
850.5983	979.1704	65535	64635.35
850.7435	981.1759	65535	64633.15
850.8886	983.1808	65535	64638.2
851.0337	985.1849	65535	64624.35
851.1788	987.1884	65535	64632.7
851.324	989.1911	65535	64633.8
851.4691	991.1932	65535	64636.05
851.6142	993.1945	65535	64639.05
851.7593	995.1951	65535	64636.75
851.9045	997.1951	65535	64631.35
852.0496	999.1943	65535	64635.9
852.1947	1001.1928	65535	64636.7
852.3398	1003.1906	65535	64637.65
852.4849	1005.1877	65535	64636.1
852.63	1007.1841	65535	64635.25
852.7751	1009.1798	65535	64637.4
852.9202	1011.1748	65535	64636.15
853.0653	1013.1691	65535	64636.75
853.2104	1015.1627	65535	64639
853.3555	1017.1556	65535	64638.05
853.5006	1019.1477	65535	64634.25
853.6457	1021.1392	65535	64639.4
853.7908	1023.1299	65535	64637.95
853.9359	1025.12	65535	64639.05
854.081	1027.1093	65535	64639.3
854.2261	1029.0979	65535	64640.8
854.3712	1031.0859	65535	64640.25
854.5163	1033.0731	65535	64639.55
854.6613	1035.0596	65535	64638.8
854.8064	1037.0454	65535	64636.6
854.9515	1039.0304	65535	64637.6
855.0965	1041.0148	65535	64637.2
855.2416	1042.9985	65535	64634.9
855.3867	1044.9814	65535	64636.9
855.5317	1046.9636	65535	64635.45
855.6768	1048.9452	65535	64639.8
855.8219	1050.926	65535	64637.15
855.9669	1052.9061	65535	64637.25
856.112	1054.8855	65535	64635.85
856.257	1056.8642	65535	64635.85
856.4021	1058.8421	65535	64633.3
856.5471	1060.8194	65535	64635.8
856.6921	1062.7959	65535	64639
856.8372	1064.7717	65535	64635.25
856.9822	1066.7469	65535	64633.85
857.1272	1068.7213	65535	64631.85
857.2723	1070.695	65535	64633.95
857.4173	1072.6679	65535	64632.1
857.5623	1074.6402	65535	64634.2
857.7073	1076.6117	65535	64629.55
857.8523	1078.5826	65535	64633.8
857.9973	1080.5527	65535	64632.2
858.1423	1082.5221	65535	64638.6
858.2873	1084.4908	65535	64635.7
858.4323	1086.4587	65535	64638.05
858.5773	1088.426	65535	64634
858.7223	1090.3925	65535	64630.9
858.8673	1092.3584	65535	64636
859.0123	1094.3235	65535	64638.15
859.1573	1096.2879	65535	64635.65
859.3022	1098.2515	65535	64635.7
859.4472	1100.2145	65535	64635.2
859.5922	1102.1767	65535	64633.9
859.7371	1104.1382	65535	64635.25
859.8821	1106.099	65535	64632.7
860.027	1108.0591	65535	64634
860.172	1110.0185	65535	64634
860.3169	1111.9771	65535	64636.85
860.4619	1113.9351	65535	64637.1
860.6068	1115.8923	65535	64636.2
860.7517	1117.8488	65535	64636.55
860.8967	1119.8045	65535	64635.15
861.0416	1121.7596	65535	64633.3
861.1865	1123.7139	65535	64637.75
861.3314	1125.6675	65535	64635.4
861.4763	1127.6204	65535	64636.35
861.6212	1129.5726	65535	64634.3
861.7661	1131.524	65535	64634.3
861.911	1133.4748	65535	64634.4
862.0559	1135.4248	65535	64633
862.2008	1137.3741	65535	64637.15
862.3457	1139.3226	65535	64636.35
862.4905	1141.2705	65535	64635
862.6354	1143.2176	65535	64628.7
862.7803	1145.164	65535	64633.4
862.9251	1147.1097	65535	64634.6
863.07	1149.0546	65535	64634.7
863.2148	1150.9989	65535	64636.8
863.3597	1152.9424	65535	64633.85
863.5045	1154.8852	65535	64634.6
863.6493	1156.8272	65535	64635.35
863.7942	1158.7686	65535	64626.25
863.939	1160.7092	65535	64633.75
864.0838	1162.6491	65535	64631.1
864.2286	1164.5883	65535	64634.7
864.3734	1166.5267	65535	64634.9
864.5182	1168.4644	65535	64635.25
864.663	1170.4014	65535	64629.65
864.8078	1172.3377	65535	64637.6
864.9526	1174.2732	65535	64636.2
865.0974	1176.2081	65535	64638.35
865.2421	1178.1421	65535	64631
865.3869	1180.0755	65535	64635.45
865.5317	1182.0082	65535	64635.4
865.6764	1183.9401	65535	64634.65
865.8212	1185.8713	65535	64636.75
865.9659	1187.8017	65535	64635.2
866.1106	1189.7315	65535	64639.8
866.2554	1191.6605	65535	64609.95
866.4001	1193.5888	65535	64636.95
866.5448	1195.5163	65535	64636.1
866.6895	1197.4432	65535	64635.9
866.8342	1199.3693	65535	64636
866.9789	1201.2947	65535	64630.55
867.1236	1203.2193	65535	64635.8
867.2683	1205.1432	65535	64634.95
867.413	1207.0664	65535	64633.05
867.5576	1208.9889	65535	64631.9
867.7023	1210.9106	65535	64636.7
867.847	1212.8316	65535	64637.5
867.9916	1214.7519	65535	64626.85
868.1363	1216.6715	65535	64635.45
868.2809	1218.5903	65535	64635.3
868.4255	1220.5084	65535	64634.6
868.5701	1222.4257	65535	64634.5
868.7148	1224.3424	65535	64638
868.8594	1226.2583	65535	64632.55
869.004	1228.1735	65535	64635.85
869.1486	1230.0879	65535	64637.05
869.2932	1232.0016	65535	64636.1
869.4377	1233.9146	65535	64633.15
869.5823	1235.8269	65535	64635.6
869.7269	1237.7384	65535	64635.45
869.8715	1239.6492	65535	64636.9
870.016	1241.5592	65535	64632
870.1606	1243.4686	65535	64634.55
870.3051	1245.3772	65535	64638.3
870.4496	1247.285	65535	64634.55
870.5941	1249.1922	65535	64634.25
870.7387	1251.0986	65535	64635.15
870.8832	1253.0042	65535	64635.25
871.0277	1254.9092	65535	64634.5
871.1722	1256.8134	65535	64637.1
871.3167	1258.7169	65535	64634.5
871.4611	1260.6196	65535	64636.95
871.6056	1262.5216	65535	64635.6
871.7501	1264.4229	65535	64635.85
871.8945	1266.3234	65535	64634.25
872.039	1268.2232	65535	64634.2
872.1834	1270.1223	65535	64633
872.3278	1272.0207	65535	64637.2
872.4723	1273.9183	65535	64629.2
872.6167	1275.8151	65535	64635.55
872.7611	1277.7113	65535	64636.2
872.9055	1279.6067	65535	64637.75
873.0499	1281.5014	65535	64633.9
873.1943	1283.3953	65535	64633.15
873.3386	1285.2885	65535	64636.1
873.483	1287.181	65535	64633.7
873.6274	1289.0727	65535	64635.95
873.7717	1290.9637	65535	64633.05
873.9161	1292.854	65535	64633.5
874.0604	1294.7435	65535	64635.65
874.2047	1296.6323	65535	64635.35
874.349	1298.5204	65535	64630
874.4933	1300.4077	65535	64633.45
874.6376	1302.2943	65535	64635.85
874.7819	1304.1802	65535	64638.6
874.9262	1306.0653	65535	64633.7
875.0705	1307.9497	65535	64634.9
875.2147	1309.8333	65535	64636
875.359	1311.7162	65535	64633.35
875.5032	1313.5984	65535	64633.2
875.6475	1315.4798	65535	64627.3
875.7917	1317.3605	65535	64619.85
875.9359	1319.2405	65535	64634
876.0801	1321.1197	65535	64635.5
876.2243	1322.9982	65535	64629.15
876.3685	1324.876	65535	64636.35
876.5127	1326.753	65535	64635.7
876.6569	1328.6293	65535	64634.25
876.801	1330.5048	65535	64634.6
876.9452	1332.3796	65535	64639.4
877.0893	1334.2537	65535	64610.55
877.2335	1336.127	65535	64634.85
877.3776	1337.9996	65535	64635.55
877.5217	1339.8714	65535	64634.1
877.6658	1341.7426	65535	64594.2
877.8099	1343.6129	65535	64631.95
877.954	1345.4826	65535	64634.4
878.0981	1347.3515	65535	64633.1
878.2422	1349.2196	65535	64632.75
878.3862	1351.087	65535	64636
878.5303	1352.9537	65535	64633.5
878.6743	1354.8197	65535	64635.35
878.8184	1356.6849	65535	64637.85
878.9624	1358.5493	65535	64635.25
879.1064	1360.4131	65535	64637.5
879.2504	1362.276	65535	64635.35
879.3944	1364.1383	65535	64637.4
879.5384	1365.9998	65535	64630.3
879.6823	1367.8606	65535	64634.9
879.8263	1369.7206	65535	64634.1
879.9702	1371.5799	65535	64632.7
880.1142	1373.4384	65535	64634.8
880.2581	1375.2962	65535	64633.85
880.402	1377.1533	65535	64634.9
880.5459	1379.0096	65535	64634.6
880.6898	1380.8652	65535	64634.95
880.8337	1382.7201	65535	64633.15
880.9776	1384.5742	65535	64634.25
881.1215	1386.4275	65535	64633.45
881.2653	1388.2802	65535	64635.9
881.4092	1390.132	65535	64636.25
881.553	1391.9832	65535	64632.8
881.6968	1393.8336	65535	64636.5
881.8406	1395.6832	65535	64631.95
881.9844	1397.5322	65535	64635.85
882.1282	1399.3803	65535	64630.25
882.272	1401.2278	65535	64635.45
882.4158	1403.0745	65535	64636.6
882.5595	1404.9204	65535	64635.25
882.7033	1406.7656	65535	64636.85
882.847	1408.6101	65535	64636.05
882.9908	1410.4538	65535	64634.65
883.1345	1412.2968	65535	64635.3
883.2782	1414.139	65535	64636.2
883.4219	1415.9805	65535	64637
883.5656	1417.8213	65535	64627.5
883.7092	1419.6613	65535	64637
883.8529	1421.5006	65535	64634.85
883.9965	1423.3391	65535	64634.45
884.1402	1425.1769	65535	64635.85
884.2838	1427.0139	65535	64635.5
884.4274	1428.8502	65535	64635.1
884.571	1430.6858	65535	64637.8
884.7146	1432.5206	65535	64634.8
884.8582	1434.3547	65535	64634.9
885.0018	1436.188	65535	64635.15
885.1453	1438.0206	65535	64635.35
885.2889	1439.8524	65535	64634.6
885.4324	1441.6835	65535	64634.05
885.5759	1443.5139	65535	64632.25
885.7194	1445.3435	65535	64636.25
885.8629	1447.1724	65535	64635.95
886.0064	1449.0005	65535	64633.6
886.1499	1450.8279	65535	64634.4
886.2933	1452.6545	65535	64635.7
886.4368	1454.4804	65535	64638.4
886.5802	1456.3056	65535	64629.05
886.7237	1458.13	65535	64636.75
886.8671	1459.9536	65535	64636.2
887.0105	1461.7766	65535	64636.05
887.1539	1463.5987	65535	64634.95
887.2972	1465.4202	65535	64636.6
887.4406	1467.2409	65535	64633.35
887.584	1469.0608	65535	64633.95
887.7273	1470.88	65535	64634.85
887.8706	1472.6984	65535	64637.45
888.0139	1474.5161	65535	64633.3
888.1572	1476.3331	65535	64638.45
888.3005	1478.1493	65535	64633.9
888.4438	1479.9648	65535	64636.85
888.5871	1481.7795	65535	64636.55
888.7303	1483.5935	65535	64633.95
888.8736	1485.4067	65535	64634.35
889.0168	1487.2192	65535	64635.05
889.16	1489.031	65535	64635.45
889.3032	1490.842	65535	64636.35
889.4464	1492.6522	65535	64636.75
889.5896	1494.4618	65535	64634
889.7327	1496.2705	65535	64634.05
889.8759	1498.0785	65535	64635.85
890.019	1499.8858	65535	64635.9
890.1622	1501.6924	65535	64636
890.3053	1503.4981	65535	64636.35
890.4484	1505.3032	65535	64636.85
890.5914	1507.1075	65535	64633.15
890.7345	1508.911	65535	64636.1
890.8776	1510.7138	65535	64636
891.0206	1512.5159	65535	64634.6
891.1637	1514.3172	65533.75	64634.5
891.3067	1516.1178	65535	64635.35
891.4497	1517.9176	65535	64634.6
891.5927	1519.7166	65535	64636.7
891.7357	1521.515	65535	64631.4
891.8786	1523.3126	65497.95	64600.4
892.0216	1525.1094	65535	64632.7
892.1645	1526.9055	65524.75	64627.45
892.3074	1528.7008	65527.65	64627.9
892.4503	1530.4954	65464.35	64560.9
892.5932	1532.2893	65528.5	64629.45
892.7361	1534.0824	65432.95	64531.15
892.879	1535.8747	65305.4	64405.55
893.0218	1537.6663	65530.45	64631.2
893.1647	1539.4572	64945.3	64046.35
893.3075	1541.2473	65270.6	64373.05
893.4503	1543.0367	65168.5	64271.3
893.5931	1544.8253	65073.65	64170.9
893.7359	1546.6132	65173.6	64270.85
893.8787	1548.4003	64911.8	64003.5
894.0214	1550.1867	64801.9	63894
894.1642	1551.9723	64678.45	63775.15
894.3069	1553.7572	64738.65	63840.35
894.4496	1555.5414	64979.65	64082.75
894.5923	1557.3247	63571.35	62674.75
894.735	1559.1074	64720.1	63823.15
894.8777	1560.8893	64241.45	63345.3
895.0204	1562.6705	64495	63598.8
895.163	1564.4509	63591.3	62692.7
895.3056	1566.2305	64006.5	63110.6
895.4482	1568.0094	64563.2	63668.15
895.5908	1569.7876	64111.15	63214.5
895.7334	1571.565	63488.85	62591.05
895.876	1573.3417	63856.4	62960.6
896.0186	1575.1176	63703.05	62806.15
896.1611	1576.8928	63366.25	62468.75
896.3036	1578.6672	62722.9	61826.75
896.4461	1580.4409	63094.15	62200.95
896.5886	1582.2138	62180.95	61282
896.7311	1583.986	62438.5	61540.05
896.8736	1585.7575	61670.9	60776.05
897.0161	1587.5282	61805.4	60910.95
897.1585	1589.2981	61866.75	60971.75
897.3009	1591.0673	61099.3	60203.5
897.4433	1592.8358	60655.85	59760.35
897.5857	1594.6035	61094.4	60197.55
897.7281	1596.3704	61210.45	60313.95
897.8705	1598.1366	60246.75	59349.4
898.0128	1599.9021	59718.95	58824.3
898.1551	1601.6668	60352.5	59455.9
898.2975	1603.4308	59967.9	59071.7
898.4398	1605.194	60250.2	59348.95
898.5821	1606.9564	59106.05	58210.3
898.7243	1608.7182	59669.55	58772.45
898.8666	1610.4791	59143.25	58248.75
899.0088	1612.2394	59584.7	58693.6
899.1511	1613.9988	59121.4	58226.75
899.2933	1615.7576	59739.25	58845.9
899.4355	1617.5156	59664.15	58765.2
899.5776	1619.2728	60435.3	59540.15
899.7198	1621.0293	59337.2	58442.2
899.862	1622.785	59345	58446.2
900.0041	1624.54	59692	58793.35
900.1462	1626.2942	59113.1	58217.2
900.2883	1628.0477	58049.65	57151.5
900.4304	1629.8005	57497.6	56597.2
900.5725	1631.5525	57902.05	57004.6
900.7145	1633.3037	56901.55	56006.7
900.8566	1635.0542	56791.45	55897.4
900.9986	1636.804	56879.65	55985.65
901.1406	1638.553	56268.25	55268.4
901.2826	1640.3013	56315.6	55419.35
901.4245	1642.0488	55756.6	54861.35
901.5665	1643.7955	55996.6	55104.9
901.7085	1645.5416	55652.25	54756.75
901.8504	1647.2868	55401.35	54507.75
901.9923	1649.0313	55745.4	54851.25
902.1342	1650.7751	55501.45	54603.7
902.2761	1652.5181	55212.75	54319.8
902.4179	1654.2604	55306.75	54412.05
902.5598	1656.0019	55753.5	54858.6
902.7016	1657.7427	55585.6	54691.25
902.8434	1659.4828	56011.85	55116.35
902.9852	1661.222	55870.75	54975.1
903.127	1662.9606	56055.3	55159.8
903.2687	1664.6984	55585.95	54689.75
903.4105	1666.4354	55407.95	54511.55
903.5522	1668.1717	54483.85	53586.85
903.6939	1669.9072	53786.9	52893.45
903.8356	1671.642	53396.45	52499.35
903.9773	1673.3761	53073.6	52180.2
904.119	1675.1094	52698.15	51806
904.2606	1676.8419	52285.7	51392.55
904.4022	1678.5737	52000.7	51106.35
904.5439	1680.3048	51736.95	50843.8
904.6855	1682.0351	51484.5	50588.5
904.827	1683.7646	51192.65	50294.85
904.9686	1685.4934	51042.55	50149
905.1101	1687.2215	50529.65	49636.6
905.2517	1688.9488	50572.2	49678.9
905.3932	1690.6754	49936.95	49043.75
905.5347	1692.4012	50015.65	49122.8
905.6761	1694.1263	49791.7	48897.8
905.8176	1695.8506	49619.4	48724.95
905.9591	1697.5742	49406	48513.75
906.1005	1699.297	49176.4	48283.2
906.2419	1701.0191	48883.5	47991.1
906.3833	1702.7404	48656.6	47763.3
906.5246	1704.461	48450.85	47554.95
906.666	1706.1808	48268.5	47374.3
906.8073	1707.8999	48207.65	47310.95
906.9487	1709.6182	47934.55	47040.5
907.09	1711.3358	47842	46947.7
907.2313	1713.0527	47667.6	46775.55
907.3725	1714.7688	47428.4	46528.5
907.5138	1716.4841	47215.45	46319.45
907.655	1718.1987	47223.9	46326.2
907.7962	1719.9126	47026.6	46133.4
907.9374	1721.6257	46757.1	45862.6
908.0786	1723.338	46720.7	45827.2
908.2198	1725.0496	46353.25	45460.2
908.3609	1726.7605	46261.7	45367.2
908.502	1728.4706	46080.9	45185.85
908.6431	1730.18	45849.3	44953.55
908.7842	1731.8886	45690.95	44797.3
908.9253	1733.5964	45591.2	44678.7
909.0664	1735.3036	45407.2	44512.85
909.2074	1737.0099	45359.45	44466.4
909.3484	1738.7156	45230.7	44338.7
909.4894	1740.4204	44985.7	44089.1
909.6304	1742.1246	44901.75	44008.15
909.7714	1743.8279	44773.55	43879.7
909.9123	1745.5306	44674.9	43779.3
910.0532	1747.2325	44419.15	43527.95
910.1941	1748.9336	44298.25	43405.4
910.335	1750.634	44005.3	43108.8
910.4759	1752.3336	43992.65	43096.85
910.6168	1754.0325	43858.8	42968.6
910.7576	1755.7307	43728.25	42835.7
910.8984	1757.4281	43726.05	42834.1
911.0392	1759.1247	43589.95	42687.4
911.18	1760.8206	43475.05	42575.65
911.3208	1762.5158	43386.6	42489.45
911.4615	1764.2102	43178.45	42285.4
911.6022	1765.9039	43019.05	42125.7
911.7429	1767.5968	42871.3	41979.75
911.8836	1769.289	42733.8	41840.45
912.0243	1770.9804	42651	41756.2
912.1649	1772.6711	42608.25	41716.25
912.3056	1774.361	42432.4	41538.6
912.4462	1776.0502	42388.55	41493.35
912.5868	1777.7386	42221.05	41324.85
912.7274	1779.4263	42055.1	41163.5
912.8679	1781.1132	42068.85	41177.65
913.0084	1782.7994	41881.15	40987.5
913.149	1784.4849	41757.4	40864.55
913.2895	1786.1696	41622.45	40723.35
913.4299	1787.8535	41482	40590.1
913.5704	1789.5367	41311.85	40420
913.7108	1791.2192	41339.35	40446.65
913.8513	1792.9009	41074.3	40153.3
913.9917	1794.5818	40987.55	40093.45
914.132	1796.2621	40852.45	39962.05
914.2724	1797.9415	40727.55	39834.6
914.4128	1799.6202	40525.45	39631.45
914.5531	1801.2982	40499.35	39606.1
914.6934	1802.9755	40382.75	39487.5
914.8337	1804.6519	40303.95	39410
914.9739	1806.3277	40072.25	39181.4
915.1142	1808.0027	39946.05	39054.5
915.2544	1809.6769	39906.15	39012.95
915.3946	1811.3504	39748.45	38854
915.5348	1813.0231	39639.5	38746.7
915.675	1814.6951	39566.4	38674.4
915.8151	1816.3664	39576.1	38679.6
915.9553	1818.0369	39460.5	38567.9
916.0954	1819.7067	39229	38337.45
916.2355	1821.3757	39183.2	38289.15
916.3755	1823.044	39122.05	38231.1
916.5156	1824.7115	38966.05	38073.5
916.6556	1826.3783	38799.7	37908.65
916.7956	1828.0443	38703.25	37812.5
916.9356	1829.7096	38564.6	37670.6
917.0756	1831.3741	38516.5	37619.5
917.2155	1833.0379	38382.45	37489.1
917.3555	1834.701	38200.6	37305.6
917.4954	1836.3633	38124.8	37230.65
917.6353	1838.0248	38040.75	37148.35
917.7751	1839.6856	37930.1	37038.5
917.915	1841.3457	37905.85	37015.95
918.0548	1843.005	37757.75	36865.5
918.1946	1844.6636	37698.95	36807.3
918.3344	1846.3214	37589.35	36695.6
918.4742	1847.9785	37546.9	36656
918.6139	1849.6349	37411.25	36519.05
918.7537	1851.2904	37272.05	36371.6
918.8934	1852.9453	37140.4	36248.55
919.0331	1854.5994	37094.8	36199.95
919.1727	1856.2528	37045.2	36148.35
919.3124	1857.9054	36905.15	36012.35
919.452	1859.5572	36863.2	35970.75
919.5916	1861.2083	36770.8	35877.35
919.7312	1862.8587	36688.25	35795.75
919.8708	1864.5084	36547.75	35654.45
920.0103	1866.1572	36480.7	35586.65
920.1498	1867.8054	36302	35409.8
920.2893	1869.4528	36208.45	35315.45
920.4288	1871.0994	36068.45	35176.3
920.5683	1872.7453	36039.8	35146.8
920.7077	1874.3905	35961.95	35064.15
920.8471	1876.0349	35792.35	34899.6
920.9865	1877.6786	35755.65	34861.45
921.1259	1879.3215	35726.75	34833.8
921.2653	1880.9637	35611.85	34719.75
921.4046	1882.6051	35518.2	34626.9
921.5439	1884.2458	35402.85	34508.95
921.6832	1885.8858	35256.05	34362.9
921.8225	1887.525	35136.55	34243.45
921.9617	1889.1634	35026.5	34132.7
922.101	1890.8011	34873.55	33981.3
922.2402	1892.4381	34762.65	33872.15
922.3794	1894.0743	34715.65	33825.5
922.5185	1895.7098	34631.3	33738.1
922.6577	1897.3446	34573.85	33680.55
922.7968	1898.9786	34437.5	33540.5
922.9359	1900.6118	34339.55	33447.65
923.075	1902.2443	34167.95	33273.4
923.214	1903.8761	34110.5	33217.7
923.3531	1905.5071	33886.2	32992.9
923.4921	1907.1374	33767.35	32874.3
923.6311	1908.7669	33671.05	32779.65
923.77	1910.3957	33659.25	32766.75
923.909	1912.0237	33404.8	32513.35
924.0479	1913.651	33406.15	32512.15
924.1868	1915.2776	33245.7	32354.3
924.3257	1916.9034	33127.75	32236.2
924.4646	1918.5285	32987.3	32095.95
924.6034	1920.1528	32748.35	31856.45
924.7422	1921.7764	32727.8	31836.4
924.881	1923.3992	32600.9	31709.35
925.0198	1925.0213	32408	31518.1
925.1586	1926.6427	32273.45	31382.4
925.2973	1928.2633	32260.75	31262.05
925.436	1929.8832	32094.9	31201.55
925.5747	1931.5023	31945.2	31053.65
925.7134	1933.1207	31847.25	30955.05
925.852	1934.7383	31798.45	30905.9
925.9906	1936.3552	31611.65	30721.55
926.1292	1937.9714	31521.6	30629.1
926.2678	1939.5868	31401.6	30507.85
926.4064	1941.2015	31166.2	30273.7
926.5449	1942.8154	31084.35	30190.6
926.6834	1944.4286	30949.45	30057.4
926.8219	1946.041	30818.5	29906.15
926.9604	1947.6528	30664	29766.85
927.0988	1949.2637	30570.75	29678.4
927.2372	1950.8739	30467.95	29575.5
927.3756	1952.4834	30397.3	29505.3
927.514	1954.0921	30362.55	29470.55
927.6523	1955.7001	30216.8	29321.65
927.7907	1957.3074	30143.7	29251.5
927.929	1958.9139	29981.95	29090.65
928.0673	1960.5197	29899.35	29006.9
928.2055	1962.1247	29716.75	28824.95
928.3438	1963.729	29587.25	28697.45
928.482	1965.3325	29439.95	28525.35
928.6202	1966.9353	29370.75	28477.85
928.7584	1968.5374	29294.5	28402.4
928.8965	1970.1387	29156.55	28265.1
929.0346	1971.7393	29013.9	28120.95
929.1727	1973.3392	28995.2	28103.9
929.3108	1974.9383	28871.15	27979.1
929.4489	1976.5366	28699.1	27806.6
929.5869	1978.1342	28668.65	27774.8
929.7249	1979.7311	28584.05	27690.75
929.8629	1981.3273	28444.1	27550.1
930.0009	1982.9227	28372.85	27479.55
930.1388	1984.5173	28256	27364.25
930.2767	1986.1112	28111.5	27219.4
930.4146	1987.7044	28108.5	27218.2
930.5525	1989.2968	27968.25	27077.85
930.6904	1990.8885	27903.55	27008.5
930.8282	1992.4795	27841.55	26947.95
930.966	1994.0697	27698.6	26806.95
931.1038	1995.6592	27601.7	26709.45
931.2415	1997.2479	27502.5	26612.1
931.3793	1998.8359	27404.75	26513.55
931.517	2000.4232	27245.85	26355.85
931.6547	2002.0097	27166.55	26276.55
931.7923	2003.5955	27030.05	26139.75
931.93	2005.1805	26988.8	26094.1
932.0676	2006.7648	26916.75	26025.4
932.2052	2008.3484	26799.6	25905.6
932.3427	2009.9312	26835.85	25942.75
932.4803	2011.5133	26716.15	25823.9
932.6178	2013.0946	26623.4	25733.6
932.7553	2014.6752	26508.95	25618.45
932.8928	2016.2551	26447.7	25555.9
933.0302	2017.8342	26314.85	25425.55
933.1676	2019.4126	26229.8	25340.9
933.305	2020.9902	26123.2	25234.45
933.4424	2022.5672	26038.35	25145.3
933.5798	2024.1433	25967.6	25069.8
933.7171	2025.7188	25885.85	24995.55
933.8544	2027.2935	25768.1	24874.2
933.9917	2028.8674	25689.55	24799.4
934.129	2030.4406	25586.15	24696.25
934.2662	2032.0131	25451.8	24563.15
934.4034	2033.5849	25391	24493.1
934.5406	2035.1559	25306.1	24415.35
934.6778	2036.7261	25285.3	24394.45
934.8149	2038.2957	25218.45	24324.6
934.952	2039.8645	25146.75	24256.45
935.0891	2041.4325	25133.9	24239.8
935.2262	2042.9998	25006.25	24116.75
935.3632	2044.5664	24921.2	24027.8
935.5002	2046.1323	24823.25	23931.6
935.6372	2047.6974	24749.4	23857.9
935.7742	2049.2617	24676.9	23787.1
935.9111	2050.8254	24634.55	23723.65
936.048	2052.3883	24585.75	23691.75
936.1849	2053.9504	24506.05	23615.45
936.3218	2055.5118	24416.8	23526.2
936.4586	2057.0725	24291.95	23396.45
936.5955	2058.6325	24222	23328.65
936.7323	2060.1917	24147.65	23256.55
936.869	2061.7502	24064.5	23170.6
937.0058	2063.3079	23933.55	23043.8
937.1425	2064.8649	23913.5	23020.6
937.2792	2066.4212	23870.8	22977.85
937.4159	2067.9767	23732.45	22842.5
937.5525	2069.5315	23620.2	22729.5
937.6891	2071.0856	23527.55	22635.5
937.8257	2072.6389	23472.7	22581.55
937.9623	2074.1915	23327.95	22439.3
938.0989	2075.7433	23219.5	22324.25
938.2354	2077.2945	23157.5	22266.35
938.3719	2078.8448	23078.5	22187.15
938.5084	2080.3945	22962.25	22071.2
938.6448	2081.9434	22937	22045.7
938.7812	2083.4916	22849.35	21958.85
938.9176	2085.039	22791.4	21897.7
939.054	2086.5857	22720.6	21827.35
939.1903	2088.1317	22658.75	21767.7
939.3267	2089.677	22648.15	21757.25
939.463	2091.2215	22566.65	21675.5
939.5992	2092.7652	22470.3	21574.8
939.7355	2094.3083	22421.5	21530.3
939.8717	2095.8506	22344.6	21455.75
940.0079	2097.3921	22334.15	21444
940.1441	2098.933	22247	21356.7
940.2802	2100.4731	22143.8	21253.1
940.4163	2102.0124	22127.65	21230.25
940.5524	2103.5511	22069.1	21176.4
940.6885	2105.089	22007.9	21115.7
940.8245	2106.6261	21946.65	21056.3
940.9606	2108.1626	21845.05	20953.9
941.0965	2109.6983	21812.8	20892.4
941.2325	2111.2332	21754	20861.7
941.3684	2112.7675	21645.65	20753.3
941.5044	2114.301	21585.15	20693.3
941.6403	2115.8337	21546.45	20654.15
941.7761	2117.3657	21497.45	20605.65
941.912	2118.897	21392.9	20500.95
942.0478	2120.4276	21370.35	20472.15
942.1835	2121.9575	21250	20358.85
942.3193	2123.4866	21261.05	20356.75
942.455	2125.0149	21173.7	20278.75
942.5907	2126.5426	21053.1	20164.15
942.7264	2128.0695	21011.3	20113.95
942.8621	2129.5956	20947.55	20056.25
942.9977	2131.1211	20902.25	20006.25
943.1333	2132.6458	20796.6	19905.25
943.2689	2134.1698	20778.4	19888.1
943.4044	2135.693	20738.75	19843.95
943.54	2137.2155	20686.6	19793.4
943.6755	2138.7373	20658.3	19766.1
943.8109	2140.2584	20543.95	19650.6
943.9464	2141.7787	20479.9	19584.15
944.0818	2143.2983	20357.35	19467.65
944.2172	2144.8171	20222.75	19332.4
944.3526	2146.3353	20202	19309
944.4879	2147.8527	20139.45	19248.3
944.6232	2149.3693	20090.85	19198.8
944.7585	2150.8853	20005.75	19112.05
944.8938	2152.4005	19881.6	18989.6
945.029	2153.9149	19876.65	18986.6
945.1642	2155.4287	19827	18934.3
945.2994	2156.9417	19735.85	18842.9
945.4346	2158.454	19685.85	18791.9
945.5697	2159.9655	19643.1	18750.5
945.7048	2161.4764	19605.75	18716.15
945.8399	2162.9865	19495.05	18604.8
945.9749	2164.4958	19468.7	18577.4
946.1099	2166.0045	19408.25	18512.6
946.2449	2167.5124	19384.45	18492
946.3799	2169.0195	19332.9	18440.35
946.5148	2170.526	19294.25	18401.55
946.6498	2172.0317	19211.8	18318.9
946.7846	2173.5367	19158.05	18266.1
946.9195	2175.0409	19092.25	18200.35
947.0543	2176.5445	19088.2	18198.5
947.1891	2178.0473	18957.3	18065.2
947.3239	2179.5494	18869.55	17973.7
947.4587	2181.0507	18827.65	17935.85
947.5934	2182.5513	18754.15	17860.55
947.7281	2184.0512	18706	17815.75
947.8628	2185.5504	18661.75	17772.15
947.9974	2187.0488	18551.35	17659.9
948.132	2188.5465	18485.9	17594.55
948.2666	2190.0435	18412.1	17520.15
948.4012	2191.5397	18357.9	17468.05
948.5357	2193.0353	18284.1	17393.55
948.6702	2194.5301	18174.85	17280.95
948.8047	2196.0241	18109.85	17218.3
948.9392	2197.5175	18082.4	17189.1
949.0736	2199.0101	17973.95	17078.85
949.208	2200.502	17898.25	17007.1
949.3424	2201.9931	17846.6	16956.1
949.4767	2203.4835	17778.3	16885.85
949.611	2204.9733	17705	16807.3
949.7453	2206.4622	17678.6	16789.05
949.8796	2207.9505	17606.6	16713.55
950.0138	2209.438	17500.45	16609.5
950.148	2210.9248	17480.45	16588.35
950.2822	2212.4109	17468.65	16578.3
950.4164	2213.8962	17360.8	16467.65
950.5505	2215.3809	17312.05	16417.5
950.6846	2216.8648	17270.75	16378.9
950.8186	2218.3479	17218.4	16322.1
950.9527	2219.8304	17097.25	16202.1
951.0867	2221.3121	17035.45	16141.1
951.2207	2222.7931	17000.65	16110.6
951.3546	2224.2733	16929.6	16037.3
951.4886	2225.7529	16898.25	16007.6
951.6225	2227.2317	16825.05	15927.3
951.7563	2228.7098	16791.1	15899.5
951.8902	2230.1872	16694.8	15802.65
952.024	2231.6638	16659.2	15768.15
952.1578	2233.1397	16610.6	15713.9
952.2916	2234.6149	16554.8	15664.05
952.4253	2236.0894	16470.25	15577.9
952.559	2237.5632	16448	15546.2
952.6927	2239.0362	16330.3	15437
952.8263	2240.5085	16281.15	15389.85
952.9599	2241.9801	16254.95	15363.85
953.0935	2243.4509	16198.2	15306.45
953.2271	2244.921	16105.9	15212.8
953.3606	2246.3904	16051.3	15157.15
953.4941	2247.8591	16026.75	15134.85
953.6276	2249.3271	15959.65	15066.4
953.7611	2250.7943	15877.7	14984.6
953.8945	2252.2608	15846.8	14956.25
954.0279	2253.7266	15810.9	14919.8
954.1612	2255.1917	15768.75	14877.95
954.2946	2256.656	15677	14784.85
954.4279	2258.1197	15644.7	14754.35
954.5612	2259.5826	15618.05	14725.4
954.6944	2261.0447	15559.45	14664.05
954.8276	2262.5062	15506.05	14612.35
954.9608	2263.9669	15495.1	14601.1
955.094	2265.4269	15397.25	14508.15
955.2271	2266.8862	15338.3	14447.95
955.3602	2268.3448	15291.15	14399.6
955.4933	2269.8026	15292.35	14399.9
955.6264	2271.2598	15213.65	14322.1
955.7594	2272.7162	15167.45	14276.6
955.8924	2274.1719	15130.7	14238.35
956.0253	2275.6268	15060.05	14167.2
956.1583	2277.0811	15024.6	14131.2
956.2912	2278.5346	14977.5	14085.85
956.4241	2279.9874	14946.3	14054.35
956.5569	2281.4395	14886.65	13997.05
956.6897	2282.8908	14856.7	13959.45
956.8225	2284.3414	14813.85	13921.25
956.9553	2285.7914	14727.25	13836.65
957.088	2287.2406	14686	13793.75
957.2207	2288.689	14659.7	13766.65
957.3534	2290.1368	14590.55	13697.75
957.486	2291.5838	14543.9	13651.3
957.6186	2293.0302	14517.45	13623.9
957.7512	2294.4758	14424	13531.1
957.8838	2295.9206	14373	13478.5
958.0163	2297.3648	14355.45	13461.65
958.1488	2298.8082	14328.9	13436.4
958.2813	2300.251	14314.8	13424.95
958.4137	2301.693	14239.65	13345.95
958.5461	2303.1343	14220.45	13326.6
958.6785	2304.5748	14178.6	13286.7
958.8108	2306.0147	14098.75	13206.05
958.9432	2307.4538	14078.3	13184.55
959.0754	2308.8922	14030.8	13138.9
959.2077	2310.3299	13959.5	13068.75
959.3399	2311.7669	13912.1	13021.9
959.4721	2313.2031	13858.85	12965.05
959.6043	2314.6387	13785.05	12894.75
959.7365	2316.0735	13764.75	12872.15
959.8686	2317.5076	13721.05	12828.6
960.0006	2318.941	13685.7	12792.05
960.1327	2320.3737	13661.25	12768.4
960.2647	2321.8056	13591.75	12698.05
960.3967	2323.2369	13538.3	12646.6
960.5287	2324.6674	13523.6	12629.65
960.6606	2326.0972	13462.85	12569.05
960.7925	2327.5263	13428.4	12536.7
960.9244	2328.9547	13330.65	12441.5
961.0562	2330.3823	13331.45	12438.6
961.1881	2331.8092	13307.3	12412.5
961.3198	2333.2355	13233.7	12343.05
961.4516	2334.661	13216.5	12324.5
961.5833	2336.0858	13212.6	12318
961.715	2337.5098	13115.15	12223.35
961.8467	2338.9332	13120.15	12227.9
961.9783	2340.3558	13065.95	12170.2
962.1099	2341.7778	13002.8	12109.8
962.2415	2343.199	12963.6	12069.3
962.373	2344.6195	12917.95	12027.2
962.5045	2346.0393	12908.45	12019.55
962.636	2347.4583	12852.45	11959.35
962.7675	2348.8767	12801.4	11907.6
962.8989	2350.2943	12782.4	11889.55
963.0303	2351.7113	12728.95	11837.4
963.1617	2353.1275	12657.05	11764.65
963.293	2354.543	12656.4	11739.4
963.4243	2355.9578	12597.05	11704.45
963.5556	2357.3718	12532.4	11641.2
963.6868	2358.7852	12476.25	11581.75
963.818	2360.1978	12434.3	11541.2
963.9492	2361.6098	12389.7	11498.2
964.0803	2363.021	12347.9	11452.85
964.2114	2364.4315	12323.4	11430.45
964.3425	2365.8413	12281.6	11387.8
964.4736	2367.2504	12238	11346.4
964.6046	2368.6587	12152	11260.45
964.7356	2370.0664	12127.8	11236.15
964.8666	2371.4733	12071.9	11180.85
964.9975	2372.8795	12050.2	11159.25
965.1284	2374.285	11975.45	11084.95
965.2593	2375.6899	11892.1	11002.25
965.3901	2377.0939	11838.75	10947.45
965.5209	2378.4973	11798.3	10907.4
965.6517	2379.9	11772	10879.6
965.7825	2381.3019	11724.85	10833
965.9132	2382.7032	11672.4	10782.65
966.0439	2384.1037	11665.55	10774.95
966.1745	2385.5035	11598.1	10706.9
966.3051	2386.9027	11561.5	10670.15
966.4357	2388.3011	11548	10653.05
966.5663	2389.6987	11506.25	10614.15
966.6968	2391.0957	11448.05	10557.45
966.8273	2392.492	11397.55	10508.15
966.9578	2393.8876	11314.5	10424.9
967.0882	2395.2824	11290.85	10400.05
967.2186	2396.6765	11244.05	10354.75
967.349	2398.07	11200.2	10309.15
967.4793	2399.4627	11170	10277.6
967.6097	2400.8547	11130	10238.3
967.7399	2402.246	11105.4	10208.1
967.8702	2403.6366	11025.95	10135.45
968.0004	2405.0265	10965.25	10073.25
968.1306	2406.4156	10962.1	10069.4
968.2607	2407.8041	10894.7	10001.2
968.3909	2409.1918	10885.35	9991.15
968.521	2410.5789	10793.05	9903.4
968.651	2411.9652	10793.45	9899.85
968.781	2413.3508	10752.3	9861.35
968.911	2414.7358	10681.1	9790.6
969.041	2416.12	10680.05	9788.9
969.1709	2417.5035	10623.05	9732.6
969.3008	2418.8863	10596.25	9704.15
969.4307	2420.2684	10557.75	9665.6
969.5606	2421.6497	10509.85	9617.55
969.6904	2423.0304	10463.35	9573.6
969.8201	2424.4104	10428.25	9537.2
969.9499	2425.7896	10375.4	9479.5
970.0796	2427.1682	10360.8	9469.5
970.2093	2428.546	10336.95	9443.65
970.3389	2429.9232	10298.7	9407.25
970.4685	2431.2996	10266	9373.7
970.5981	2432.6753	10254.9	9361.7
970.7277	2434.0503	10230.95	9340.8
970.8572	2435.4246	10157.25	9266.5
970.9867	2436.7982	10106	9211.35
971.1161	2438.1711	10084.2	9193.4
971.2456	2439.5433	10074.45	9182.85
971.375	2440.9148	10003.6	9110.3
971.5043	2442.2856	9988.05	9098.5
971.6336	2443.6557	9953.9	9060.95
971.7629	2445.025	9903.1	9009.3
971.8922	2446.3937	9893.6	8999.8
972.0214	2447.7617	9855.55	8963.7
972.1506	2449.1289	9846.25	8955
972.2798	2450.4955	9794.1	8898.25
972.4089	2451.8613	9763.6	8872.85
972.538	2453.2265	9735.1	8843.05
972.6671	2454.5909	9727	8835.4
972.7961	2455.9546	9696.45	8806.1
972.9251	2457.3177	9642.8	8751.75
973.0541	2458.68	9619.3	8725.4
973.1831	2460.0416	9620.55	8728.15
973.312	2461.4025	9597.55	8704.6
973.4408	2462.7627	9564.3	8661.1
973.5697	2464.1222	9510.55	8620.25
973.6985	2465.4811	9487.7	8595.15
973.8273	2466.8392	9441.15	8551.85
973.956	2468.1966	9429.25	8535.65
974.0847	2469.5533	9419.2	8526.4
974.2134	2470.9093	9425.7	8533.95
974.3421	2472.2645	9350.4	8459.05
974.4707	2473.6191	9309.1	8418.75
974.5993	2474.973	9262.65	8370.85
974.7278	2476.3262	9262.85	8369.1
974.8563	2477.6787	9229.3	8338.35
974.9848	2479.0305	9171	8282.35
975.1132	2480.3816	9137.4	8245.7
975.2417	2481.7319	9094.75	8202.4
975.37	2483.0816	9082.85	8191
975.4984	2484.4306	9056.95	8163.45
975.6267	2485.7789	9020.9	8129
975.755	2487.1264	8987	8092.55
975.8833	2488.4733	8922.35	8031.25
976.0115	2489.8195	8896.5	7998.85
976.1397	2491.165	8870.95	7975.2
976.2678	2492.5097	8841.25	7947.35
976.3959	2493.8538	8798.65	7908.75
976.524	2495.1972	8752.1	7860.1
976.6521	2496.5398	8709.4	7816.4
976.7801	2497.8818	8687.45	7794.05
976.9081	2499.2231	8671.45	7778.15
977.036	2500.5637	8641.65	7747.35
977.164	2501.9035	8601.65	7708.3
977.2918	2503.2427	8571.75	7677
977.4197	2504.5812	8534.95	7645.35
977.5475	2505.919	8533.3	7639.85
977.6753	2507.256	8507.5	7615.55
977.8031	2508.5924	8466.75	7575.65
977.9308	2509.9281	8435.75	7538.75
978.0585	2511.2631	8381.2	7488.45
978.1861	2512.5974	8364.7	7473.95
978.3137	2513.9309	8373.95	7481.4
978.4413	2515.2638	8346.25	7418.9
978.5689	2516.596	8299.5	7409.2
978.6964	2517.9275	8253.75	7361.45
978.8239	2519.2583	8223.55	7329.55
978.9513	2520.5884	8208.55	7314.4
979.0788	2521.9178	8161.6	7269.7
979.2062	2523.2465	8129.4	7237.85
979.3335	2524.5745	8096.2	7203.8
979.4608	2525.9018	8081.3	7188.6
979.5881	2527.2284	8062.2	7172.1
979.7154	2528.5543	8020.3	7129.55
979.8426	2529.8796	8011.4	7119.25
979.9698	2531.2041	7987.1	7094.8
980.0969	2532.5279	7981.6	7091.55
980.224	2533.851	7960.9	7068.65
980.3511	2535.1735	7934.85	7044.9
980.4781	2536.4952	7905.85	7013.8
980.6052	2537.8163	7884.75	6992.6
980.7321	2539.1366	7846.25	6955.55
980.8591	2540.4562	7823	6929.5
980.986	2541.7752	7820.65	6929.05
981.1129	2543.0935	7792.85	6902.75
981.2397	2544.411	7766.35	6873.5
981.3665	2545.7279	7760.15	6869
981.4933	2547.0441	7735.75	6842.45
981.62	2548.3596	7724.4	6830.6
981.7467	2549.6744	7692.55	6800.95
981.8734	2550.9885	7698.3	6807.3
982.0001	2552.3019	7652.15	6760.5
982.1267	2553.6146	7621.9	6728.95
982.2532	2554.9266	7626.15	6735
982.3798	2556.2379	7599.95	6707.15
982.5063	2557.5485	7577.05	6686.7
982.6327	2558.8585	7563.15	6664.9
982.7592	2560.1677	7521.55	6624.75
982.8856	2561.4762	7532.05	6640.35
983.0119	2562.7841	7499.25	6604.75
983.1383	2564.0913	7502.25	6613.7
983.2646	2565.3977	7469.3	6578.9
983.3908	2566.7035	7439.4	6547.1
983.517	2568.0086	7454.7	6563.05
983.6432	2569.313	7419.85	6528.5
983.7694	2570.6167	7403.7	6508.5
983.8955	2571.9197	7373.35	6481.85
984.0216	2573.222	7381.1	6485.75
984.1476	2574.5236	7335.95	6443.65
984.2737	2575.8246	7310.8	6416.1
984.3996	2577.1248	7313.55	6418.05
984.5256	2578.4244	7291.95	6399.2
984.6515	2579.7232	7298.85	6405.95
984.7774	2581.0214	7305.5	6390.3
984.9032	2582.3189	7255.65	6364.6
985.029	2583.6157	7246.6	6351.2
985.1548	2584.9118	7228.5	6337.7
985.2806	2586.2072	7198.95	6307.85
985.4063	2587.5019	7167.35	6277.45
985.5319	2588.7959	7150.9	6259.1
985.6576	2590.0893	7136.5	6245.1
985.7832	2591.3819	7123.2	6230.05
985.9087	2592.6739	7089.6	6196.6
986.0343	2593.9652	7070.05	6174.65
986.1597	2595.2557	7062.45	6171.1
986.2852	2596.5456	7048.55	6156.9
986.4106	2597.8348	7003.35	6113.55
986.536	2599.1234	6973.7	6081.35
986.6614	2600.4112	6943.35	6051.55
986.7867	2601.6983	6945.7	6052.75
986.912	2602.9848	6902.2	6008.8
987.0372	2604.2705	6885.85	5987.55
987.1624	2605.5556	6886.65	5994.4
987.2876	2606.84	6831	5940.2
987.4128	2608.1237	6814.8	5920
987.5379	2609.4067	6787.35	5895.55
987.6629	2610.689	6771.7	5869.2
987.788	2611.9707	6750.45	5854
987.913	2613.2516	6728.05	5833.35
988.0379	2614.5319	6685.5	5791.45
988.1629	2615.8115	6666.7	5773.75
988.2878	2617.0903	6645.2	5752.8
988.4126	2618.3685	6617.95	5725.7
988.5375	2619.6461	6576.2	5683
988.6622	2620.9229	6569.7	5676.2
988.787	2622.199	6560.75	5668.4
988.9117	2623.4745	6559.05	5665
989.0364	2624.7493	6518.05	5625.35
989.161	2626.0234	6491	5599.4
989.2857	2627.2968	6467.3	5574.85
989.4102	2628.5695	6439.85	5546.9
989.5348	2629.8415	6418.55	5526.15
989.6593	2631.1128	6385.65	5491.45
989.7837	2632.3835	6359.65	5467.2
989.9082	2633.6535	6330.9	5437.75
990.0326	2634.9228	6310.35	5419
990.1569	2636.1914	6306.5	5416.25
990.2812	2637.4593	6294	5397.65
990.4055	2638.7265	6270.55	5379.1
990.5298	2639.9931	6243.35	5350.05
990.654	2641.259	6235.15	5344.15
990.7782	2642.5242	6221.85	5331.1
990.9023	2643.7887	6190.15	5298
991.0264	2645.0525	6170.8	5277.1
991.1505	2646.3156	6146.7	5255.1
991.2745	2647.5781	6128.05	5235.1
991.3985	2648.8398	6112.45	5222.6
991.5225	2650.1009	6084.7	5185.1
991.6464	2651.3613	6066.35	5174.95
991.7703	2652.6211	6063.95	5174.15
991.8942	2653.8801	6036.6	5146.35
992.018	2655.1385	6022.6	5128.85
992.1418	2656.3961	5986.8	5094.5
992.2655	2657.6531	5994.55	5101
992.3892	2658.9094	5968.05	5075.95
992.5129	2660.1651	5969.85	5078.15
992.6366	2661.42	5947.6	5055.65
992.7602	2662.6743	5935	5040.75
992.8837	2663.9279	5890.45	4999.2
993.0073	2665.1808	5880.25	4986.9
993.1307	2666.433	5870.65	4979
993.2542	2667.6846	5852.4	4962.8
993.3776	2668.9354	5854.45	4957.1
993.501	2670.1856	5836.7	4942.75
993.6244	2671.4351	5828.45	4935.6
993.7477	2672.6839	5812.95	4918.65
993.8709	2673.9321	5796.3	4903.7
993.9942	2675.1795	5782.3	4889.9
994.1174	2676.4263	5756.75	4864.9
994.2405	2677.6724	5753.7	4864
994.3637	2678.9179	5742.4	4849.95
994.4868	2680.1626	5705.75	4815.5
994.6098	2681.4067	5704	4812.4
994.7328	2682.6501	5693.85	4799.65
994.8558	2683.8928	5664.65	4774.1
994.9788	2685.1348	5631.6	4740.2
995.1017	2686.3761	5627.85	4735.6
995.2245	2687.6168	5617.95	4726.75
995.3474	2688.8568	5578.8	4689.4
995.4702	2690.0961	5568.3	4679.25
995.5929	2691.3348	5569.5	4677.95
995.7156	2692.5727	5541.85	4652
995.8383	2693.81	5527.55	4635.6
995.961	2695.0466	5501.95	4612.45
996.0836	2696.2826	5483.5	4591.2
996.2062	2697.5178	5468.6	4572.15
996.3287	2698.7524	5446.1	4552.9
996.4512	2699.9863	5427.85	4533.35
996.5737	2701.2195	5422.55	4533.25
996.6961	2702.452	5412.45	4519.35
996.8185	2703.6839	5398.95	4504
996.9408	2704.9151	5379.55	4488.15
997.0631	2706.1456	5366.6	4475.5
997.1854	2707.3755	5350.05	4458.1
997.3077	2708.6046	5332.35	4438.55
997.4299	2709.8331	5340.75	4447.3
997.552	2711.0609	5316.75	4425.8
997.6742	2712.2881	5311.65	4419.25
997.7963	2713.5145	5291.3	4396.2
997.9183	2714.7403	5283.15	4394.2
998.0403	2715.9654	5265.8	4372
998.1623	2717.1899	5280.4	4375.6
998.2842	2718.4136	5268.05	4377.6
998.4062	2719.6367	5261.8	4371.65
998.528	2720.8591	5257.4	4358.15
998.6498	2722.0809	5243	4350.85
998.7716	2723.3019	5252.6	4356.6
998.8934	2724.5223	5245.3	4354.05
999.0151	2725.7421	5218.5	4324.85
999.1368	2726.9611	5201.7	4308.4
999.2584	2728.1795	5184.8	4287.25
999.38	2729.3972	5160.85	4268.4
999.5016	2730.6142	5135.45	4241.4
999.6231	2731.8306	5109.6	4213.75
999.7446	2733.0462	5082	4188.75
999.8661	2734.2612	5058.7	4162.7
999.9875	2735.4756	5014.55	4119.1
1000.1089	2736.6892	4997.8	4105.3
1000.2302	2737.9022	4946.4	4056
1000.3515	2739.1145	4928.9	4038
1000.4728	2740.3262	4898.55	3999.9
1000.594	2741.5372	4868.4	3977.05
1000.7152	2742.7475	4848.15	3956.8
1000.8363	2743.9571	4835.05	3939.35
1000.9575	2745.1661	4815	3918.35
1001.0785	2746.3744	4788.7	3896.9
1001.1996	2747.582	4765.55	3875.4
1001.3206	2748.7889	4755.15	3862.7
1001.4415	2749.9952	4726.5	3834.35
1001.5625	2751.2008	4711.05	3818
1001.6833	2752.4057	4682.95	3789.85
1001.8042	2753.61	4654.55	3760.3
1001.925	2754.8136	4665.15	3770.4
1002.0458	2756.0165	4656.8	3765.5
1002.1665	2757.2188	4616.25	3723.85
1002.2872	2758.4204	4616.35	3724.65
1002.4078	2759.6213	4595.9	3699.95
1002.5285	2760.8215	4604.25	3707.5
1002.649	2762.0211	4578.4	3684.05
1002.7696	2763.22	4568.6	3675.45
1002.8901	2764.4182	4536.75	3644.7
1003.0106	2765.6158	4535.15	3642.4
1003.131	2766.8127	4511.7	3620.2
1003.2514	2768.009	4504.15	3612.95
1003.3717	2769.2045	4460.5	3567.95
1003.492	2770.3994	4472.05	3576.55
1003.6123	2771.5936	4461.95	3569.55
1003.7325	2772.7872	4436.45	3546.4
1003.8527	2773.9801	4421.1	3527.9
1003.9729	2775.1723	4423.5	3515.45
1004.093	2776.3639	4376.45	3484.1
1004.2131	2777.5548	4389	3495.55
1004.3331	2778.745	4370.4	3477.45
1004.4531	2779.9346	4368.55	3476.35
1004.5731	2781.1235	4357.5	3462.6
1004.693	2782.3117	4347.05	3455.8
1004.8129	2783.4992	4330.5	3436.45
1004.9328	2784.6861	4323	3428.25
1005.0526	2785.8723	4327.1	3432.4
1005.1723	2787.0579	4306.95	3413.5
1005.2921	2788.2428	4300.75	3408.35
1005.4118	2789.427	4293.95	3402.1
1005.5314	2790.6106	4290.15	3400.05
1005.651	2791.7935	4284.5	3392.7
1005.7706	2792.9757	4290.6	3400.85
1005.8902	2794.1573	4282.35	3390.25
1006.0097	2795.3382	4277.7	3383.9
1006.1291	2796.5184	4273.85	3383.95
1006.2485	2797.698	4294.8	3402.85
1006.3679	2798.8769	4312	3421.2
1006.4873	2800.0551	4301.45	3409.85
1006.6066	2801.2327	4318.35	3424.55
1006.7258	2802.4096	4306.85	3417.1
1006.8451	2803.5859	4295.2	3403.5
1006.9642	2804.7615	4332.9	3439.65
1007.0834	2805.9364	4339	3449.6
1007.2025	2807.1106	4354.75	3463.85
1007.3216	2808.2842	4358.55	3466.4
1007.4406	2809.4572	4354.9	3462.85
1007.5596	2810.6294	4410.65	3517.95
1007.6785	2811.801	4430.85	3540.55
1007.7975	2812.972	4486.4	3594.6
1007.9163	2814.1423	4502.65	3610.5
1008.0352	2815.3119	4525.35	3633.4
1008.154	2816.4808	4567.9	3677.25
1008.2727	2817.6491	4617.45	3725.95
1008.3914	2818.8167	4647.85	3757.65
1008.5101	2819.9837	4693.35	3799
1008.6288	2821.15	4735.25	3844.75
1008.7474	2822.3157	4762.1	3869.8
1008.8659	2823.4807	4794.25	3901.3
1008.9844	2824.645	4842.55	3949.3
1009.1029	2825.8086	4854.55	3963.5
1009.2214	2826.9716	4893.2	4002.25
1009.3398	2828.134	4942	4052.45
1009.4581	2829.2957	4949.05	4058
1009.5764	2830.4567	4969.75	4078.95
1009.6947	2831.617	4980.3	4086.95
1009.813	2832.7767	4993.25	4101.45
1009.9312	2833.9358	4981.85	4092.4
1010.0493	2835.0941	4982.85	4090.3
1010.1675	2836.2519	4947.55	4058
1010.2855	2837.4089	4935.55	4045.6
1010.4036	2838.5653	4914.55	4024.4
1010.5216	2839.7211	4903.7	4013.5
1010.6396	2840.8761	4908.35	4014.45
1010.7575	2842.0306	4927.35	4035.5
1010.8754	2843.1843	4968.95	4077.7
1010.9932	2844.3374	5008.3	4117.35
1011.111	2845.4899	5057	4165.75
1011.2288	2846.6417	5115.7	4224.1
1011.3465	2847.7928	5176.9	4286.8
1011.4642	2848.9433	5252.85	4360.5
1011.5818	2850.0931	5317.85	4427.2
1011.6995	2851.2422	5410.6	4517.55
1011.817	2852.3907	5477.2	4585.05
1011.9345	2853.5385	5537.8	4644.7
1012.052	2854.6857	5588.15	4671.15
1012.1695	2855.8323	5618.1	4728.65
1012.2869	2856.9781	5657.2	4765.05
1012.4042	2858.1233	5675.9	4786.6
1012.5216	2859.2679	5696	4803.25
1012.6389	2860.4118	5755.3	4863.45
1012.7561	2861.555	5775.95	4882.1
1012.8733	2862.6976	5817.85	4922.95
1012.9905	2863.8395	5835.1	4944.9
1013.1076	2864.9808	5853.3	4961.45
1013.2247	2866.1214	5860.85	4970.6
1013.3417	2867.2614	5855.5	4964.25
1013.4587	2868.4007	5849.9	4957.6
1013.5757	2869.5393	5864.65	4970.1
1013.6926	2870.6773	5869.7	4975.8
1013.8095	2871.8146	5878.25	4983.5
1013.9263	2872.9513	5854.35	4962.2
1014.0431	2874.0874	5835.3	4945.6
1014.1599	2875.2227	5805.25	4912.5
1014.2766	2876.3574	5798.1	4909.2
1014.3933	2877.4915	5747	4857
1014.51	2878.6249	5729.3	4837.15
1014.6266	2879.7577	5687.7	4794.4
1014.7431	2880.8898	5660.95	4760.1
1014.8596	2882.0212	5640.75	4749.9
1014.9761	2883.152	5639	4747.15
1015.0925	2884.2821	5587.6	4696.3
1015.2089	2885.4116	5574.65	4685.6
1015.3253	2886.5405	5561.15	4670.3
1015.4416	2887.6686	5576.1	4682
1015.5579	2888.7962	5561.6	4672.1
1015.6741	2889.923	5562.3	4671.45
1015.7903	2891.0493	5562.05	4671.4
1015.9065	2892.1748	5568.25	4675.35
1016.0226	2893.2997	5568.25	4676.7
1016.1387	2894.424	5582.1	4692.4
1016.2547	2895.5476	5574	4683.1
1016.3707	2896.6706	5597.75	4707.7
1016.4866	2897.7929	5625.15	4733.7
1016.6025	2898.9145	5637.15	4745.65
1016.7184	2900.0355	5654.95	4763.2
1016.8342	2901.1559	5673.9	4782.7
1016.95	2902.2756	5712.2	4818.75
1017.0658	2903.3946	5734.95	4844.85
1017.1815	2904.513	5761.3	4865.15
1017.2971	2905.6308	5791.4	4900.1
1017.4127	2906.7479	5780.55	4887.8
1017.5283	2907.8643	5793.95	4901.3
1017.6439	2908.9801	5799.7	4908
1017.7594	2910.0953	5807.55	4916.55
1017.8748	2911.2098	5794.85	4901.25
1017.9902	2912.3236	5772.6	4873.45
1018.1056	2913.4368	5767.6	4873.8
1018.2209	2914.5494	5727.35	4836.15
1018.3362	2915.6613	5696.8	4799.75
1018.4515	2916.7725	5655.35	4760.55
1018.5667	2917.8831	5635.55	4744.65
1018.6819	2918.9931	5608.7	4714.6
1018.797	2920.1024	5548.8	4655.95
1018.9121	2921.211	5521.6	4630
1019.0271	2922.319	5515.7	4624.6
1019.1421	2923.4264	5486.2	4596.25
1019.2571	2924.5331	5441.95	4551.65
1019.372	2925.6391	5403.55	4512.55
1019.4869	2926.7445	5409.9	4519.4
1019.6017	2927.8493	5400.75	4508.65
1019.7165	2928.9534	5388.8	4497.1
1019.8313	2930.0569	5362.55	4468.45
1019.946	2931.1597	5367.5	4474.75
1020.0606	2932.2619	5341.55	4450.3
1020.1753	2933.3634	5337.3	4444.7
1020.2899	2934.4643	5315.5	4416.55
1020.4044	2935.5645	5277.2	4381.2
1020.5189	2936.6641	5231.2	4335.2
1020.6334	2937.763	5174	4283.8
1020.7478	2938.8613	5135.35	4246.45
1020.8622	2939.959	5066.75	4168.3
1020.9765	2941.056	4989.85	4100.2
1021.0908	2942.1523	4893.1	4000
1021.2051	2943.248	4821.15	3927.5
1021.3193	2944.3431	4702.4	3812.55
1021.4334	2945.4375	4584.1	3693
1021.5476	2946.5313	4466.1	3575.45
1021.6617	2947.6244	4364.3	3473.2
1021.7757	2948.7169	4251.05	3358.8
1021.8897	2949.8087	4164.95	3275.7
1022.0037	2950.8999	4048.7	3156.9
1022.1176	2951.9904	3955.6	3065.2
1022.2315	2953.0803	3875.55	2983.85
1022.3453	2954.1696	3819.5	2927.5
1022.4591	2955.2582	3755.35	2866.25
1022.5728	2956.3462	3699.3	2809.5
1022.6865	2957.4335	3644.55	2752.8
1022.8002	2958.5202	3605.25	2711.55
1022.9138	2959.6062	3564.05	2672.6
1023.0274	2960.6916	3537.05	2645.45
1023.141	2961.7764	3512.35	2621.65
1023.2545	2962.8605	3488.9	2595.75
1023.3679	2963.9439	3468.65	2577.15
1023.4813	2965.0267	3452.15	2560
1023.5947	2966.1089	3461.25	2547.65
1023.708	2967.1905	3435.05	2543.95
1023.8213	2968.2714	3408	2519.9
1023.9346	2969.3516	3405.2	2515
1024.0478	2970.4312	3411.4	2512.65
1024.1609	2971.5102	3393.65	2502.3
1024.274	2972.5885	3377.05	2486.1
1024.3871	2973.6662	3393.55	2498.25
1024.5002	2974.7432	3381.85	2492.15
1024.6132	2975.8196	3351.7	2460
1024.7261	2976.8954	3348.35	2458.9
1024.839	2977.9705	3332.65	2440.4
1024.9519	2979.045	3315.4	2423.1
1025.0647	2980.1188	3295.3	2404.6
1025.1775	2981.192	3268.3	2379.8
1025.2902	2982.2645	3232.8	2341
1025.4029	2983.3364	3208.95	2318.2
1025.5156	2984.4077	3170.2	2280.7
1025.6282	2985.4783	3134.45	2239.75
1025.7407	2986.5483	3083	2191.35
1025.8532	2987.6177	3043.1	2153.05
1025.9657	2988.6864	3013	2121.3
1026.0782	2989.7545	2980.75	2089.7
1026.1906	2990.8219	2942.8	2053.35
1026.3029	2991.8887	2913.85	2018.75
1026.4152	2992.9548	2866.7	1975.05
1026.5275	2994.0204	2828.95	1939.65
1026.6397	2995.0852	2795.65	1904.25
1026.7519	2996.1495	2766.3	1874.35
1026.864	2997.2131	2736.8	1845.4
1026.9761	2998.276	2712.6	1820.85
1027.0882	2999.3383	2699.6	1806.6
1027.2002	3000.4	2660.35	1768.35
1027.3122	3001.4611	2639.85	1747.65
1027.4241	3002.5215	2620.05	1730.75
1027.536	3003.5812	2602.6	1712.25
1027.6478	3004.6404	2589.4	1701.75
1027.7596	3005.6989	2564.7	1672.2
1027.8714	3006.7567	2565.5	1674.9
1027.9831	3007.8139	2571.05	1657.85
1028.0947	3008.8705	2537.2	1645.2
1028.2064	3009.9264	2539.3	1646.75
1028.3179	3010.9818	2528.25	1636.35
1028.4295	3012.0364	2515.9	1623.9
1028.541	3013.0905	2508.4	1617.7
1028.6524	3014.1439	2497.8	1607.15
1028.7638	3015.1966	2489.3	1599.85
1028.8752	3016.2487	2481.7	1589.9
1028.9865	3017.3002	2485.9	1588.95
1029.0978	3018.3511	2474.2	1582.7
1029.209	3019.4013	2461.6	1570.55
1029.3202	3020.4509	2474	1584.9
1029.4314	3021.4998	2479	1587.25
1029.5425	3022.5481	2458.15	1567.25
1029.6535	3023.5958	2463.9	1573.95
1029.7645	3024.6428	2441.2	1549
1029.8755	3025.6892	2447.6	1557.75
1029.9864	3026.735	2444.1	1554.15
1030.0973	3027.7802	2442.35	1552.15
1030.2082	3028.8247	2442.6	1551.2
1030.319	3029.8685	2430.15	1538.75
1030.4297	3030.9118	2432.55	1541.4
1030.5404	3031.9544	2434.05	1543.85
1030.6511	3032.9963	2432.15	1543.45
1030.7617	3034.0376	2437.6	1546.5
1030.8723	3035.0783	2434.35	1542.1
1030.9829	3036.1184	2425.15	1533.95
1031.0934	3037.1578	2427.5	1537.65
1031.2038	3038.1966	2426.3	1535.1
1031.3142	3039.2348	2422.45	1532.3
1031.4246	3040.2723	2428.1	1527.85
1031.5349	3041.3092	2403.55	1513
1031.6452	3042.3455	2412.8	1523.6
1031.7554	3043.3811	2396.95	1504
1031.8656	3044.4161	2392.05	1502.15
1031.9758	3045.4505	2377.6	1488.75
1032.0859	3046.4842	2363.8	1472.25
1032.1959	3047.5173	2352.1	1461.2
1032.3059	3048.5498	2350.85	1460.8
1032.4159	3049.5816	2346	1454.95
1032.5258	3050.6128	2336.7	1445.85
1032.6357	3051.6434	2325.3	1433.6
1032.7455	3052.6734	2310.75	1418.35
1032.8553	3053.7027	2295.6	1402.05
1032.9651	3054.7314	2293.45	1401.2
1033.0748	3055.7594	2268.2	1378.25
1033.1845	3056.7868	2276.9	1385.65
1033.2941	3057.8136	2258	1369.2
1033.4037	3058.8398	2253	1363
1033.5132	3059.8653	2231.2	1341.7
1033.6227	3060.8902	2223.55	1334.1
1033.7321	3061.9145	2208.2	1317.1
1033.8415	3062.9381	2209.15	1317.3
1033.9509	3063.9612	2214.5	1308.65
1034.0602	3064.9835	2188.7	1297.95
1034.1694	3066.0053	2190.45	1298
1034.2787	3067.0264	2175.25	1285.75
1034.3878	3068.0469	2157.2	1264.05
1034.497	3069.0668	2157.6	1263.9
1034.6061	3070.086	2127.4	1237.1
1034.7151	3071.1046	2119.75	1228.75
1034.8241	3072.1226	2110.7	1219.3
1034.9331	3073.1399	2105.3	1215.15
1035.042	3074.1567	2091.4	1203.3
1035.1508	3075.1727	2073.75	1182.05
1035.2597	3076.1882	2063.45	1171.6
1035.3684	3077.203	2041.9	1151.35
1035.4772	3078.2173	2033.25	1140.8
1035.5859	3079.2308	2020.25	1127
1035.6945	3080.2438	2026.35	1133.7
1035.8031	3081.2561	2004.55	1116.25
1035.9117	3082.2678	1990.4	1097.75
1036.0202	3083.2789	1981.05	1090.7
1036.1286	3084.2893	1978.25	1088.65
1036.2371	3085.2991	1956.85	1067.25
1036.3454	3086.3083	1950.65	1055.35
1036.4538	3087.3169	1946.4	1054.1
1036.562	3088.3248	1937.75	1045.35
1036.6703	3089.3321	1932.05	1040.5
1036.7785	3090.3388	1913.9	1024.4
1036.8866	3091.3449	1910.15	1019.5
1036.9948	3092.3503	1913.85	1021.2
1037.1028	3093.3551	1892.45	1003.1
1037.2108	3094.3593	1888.6	1000.65
1037.3188	3095.3629	1893.4	1004.8
1037.4267	3096.3658	1879.15	986.7
1037.5346	3097.3681	1865.55	976.3
1037.6425	3098.3698	1866.7	972.6
1037.7503	3099.3708	1859.85	962.35
1037.858	3100.3713	1854.6	965.05
1037.9657	3101.3711	1856.6	966.55
1038.0734	3102.3702	1947.8	944.4
1038.181	3103.3688	1833.75	941.15
1038.2886	3104.3667	1832.8	942.7
1038.3961	3105.364	1822.55	931.7
1038.5036	3106.3607	1823.3	932.15
1038.611	3107.3568	1808.85	918
1038.7184	3108.3522	1799.45	910.7
1038.8257	3109.347	1798.4	907.55
1038.933	3110.3412	1795.35	902.25
1039.0403	3111.3348	1790.55	901.85
1039.1475	3112.3277	1775.25	886.05
1039.2547	3113.32	1775.85	887.1
1039.3618	3114.3117	1771.85	881.8
1039.4689	3115.3028	1768.4	878.3
1039.5759	3116.2932	1764.45	873.6
1039.6829	3117.2831	1753.65	858.05
1039.7898	3118.2723	1755.15	864.3
1039.8967	3119.2608	1738.35	848.55
1040.0035	3120.2488	1734.25	843.8
1040.1103	3121.2361	1737.7	848.35
1040.2171	3122.2229	1724.1	832.1
1040.3238	3123.209	1715.25	825
1040.4305	3124.1944	1719.05	830.3
1040.5371	3125.1793	1716.95	824.9
1040.6437	3126.1635	1707.55	817.65
1040.7502	3127.1471	1707.55	818.4
1040.8567	3128.1301	1703.9	814.35
1040.9631	3129.1125	1694.5	805.35
1041.0695	3130.0942	1688.75	797.7
1041.1759	3131.0753	1697.7	799.4
1041.2822	3132.0558	1685.3	792.55
1041.3884	3133.0357	1681.35	789.3
1041.4946	3134.015	1676.6	786.05
1041.6008	3134.9936	1675.5	784.05
1041.7069	3135.9716	1686.85	776.3
1041.813	3136.949	1666.95	776
1041.919	3137.9258	1668.85	773
1042.025	3138.902	1657.6	761.85
1042.1309	3139.8775	1655.4	765.35
1042.2368	3140.8524	1653.75	763.15
1042.3427	3141.8267	1648.75	756.8
1042.4485	3142.8004	1643.45	752.7
1042.5542	3143.7735	1647.95	752.05
1042.6599	3144.7459	1641.5	748.2
1042.7656	3145.7178	1638.9	749.15
1042.8712	3146.689	1625.7	737.2
1042.9768	3147.6596	1625.55	732.6
1043.0823	3148.6295	1610.3	720.1
1043.1878	3149.5989	1614.8	722.5
1043.2932	3150.5676	1614.9	723.6
1043.3986	3151.5357	1609.05	721.3
1043.5039	3152.5032	1603	715.05
1043.6092	3153.4701	1594.1	704.4
1043.7145	3154.4364	1598.25	703.55
1043.8197	3155.402	1592	701.75
1043.9248	3156.367	1588.75	696.8
1044.03	3157.3315	1619.9	687.3
1044.135	3158.2952	1579.8	690.65
1044.24	3159.2584	1577.05	686.2
1044.345	3160.221	1573.3	682.35
1044.4499	3161.1829	1567.9	677.25
1044.5548	3162.1442	1560.8	669.7
1044.6596	3163.105	1557.65	667.05
1044.7644	3164.065	1553.05	662.05
1044.8692	3165.0245	1551.75	660.7
1044.9739	3165.9834	1537.4	649.75
1045.0785	3166.9416	1539.3	649.6
1045.1831	3167.8993	1537	647.2
1045.2877	3168.8563	1529.85	638
1045.3922	3169.8127	1528.5	638.95
1045.4966	3170.7684	1530.4	640.05
1045.6011	3171.7236	1528.85	636.25
1045.7054	3172.6782	1517.6	628.15
1045.8098	3173.6321	1526.4	636.8
1045.914	3174.5854	1521.75	625.2
1046.0183	3175.5381	1507.75	618.2
1046.1224	3176.4902	1506.6	615.9
1046.2266	3177.4417	1497.6	609.1
1046.3307	3178.3926	1494.65	605.1
1046.4347	3179.3428	1499.65	610.65
1046.5387	3180.2924	1492.15	603.95
1046.6427	3181.2415	1487.15	596.6
1046.7466	3182.1899	1481.65	590
1046.8504	3183.1377	1483.2	593.65
1046.9542	3184.0848	1483.6	589.5
1047.058	3185.0314	1475.35	586.55
1047.1617	3185.9773	1476.6	585.2
1047.2654	3186.9227	1472.1	582.85
1047.369	3187.8674	1472.4	581.6
1047.4726	3188.8115	1472.4	579.4
1047.5761	3189.755	1457.4	568.65
1047.6796	3190.6979	1455.85	565.5
1047.783	3191.6402	1448.7	561.9
1047.8864	3192.5818	1460	572.1
1047.9898	3193.5229	1471.75	561.2
1048.0931	3194.4633	1456.55	566.55
1048.1963	3195.4031	1441.65	552.95
1048.2995	3196.3423	1444.9	554.5
1048.4027	3197.2809	1436.65	546.45
1048.5058	3198.2189	1437.45	546.7
1048.6089	3199.1563	1447.45	540.4
1048.7119	3200.0931	1430.45	541.2
1048.8148	3201.0292	1423.75	534.95
1048.9178	3201.9648	1429.9	541.8
1049.0206	3202.8997	1424.3	531.65
1049.1235	3203.834	1419.15	529.8
1049.2262	3204.7677	1409.65	520.6
1049.329	3205.7008	1416.05	522.65
1049.4317	3206.6333	1410.45	522.95
1049.5343	3207.5652	1405.25	513.25
1049.6369	3208.4964	1410.3	520
1049.7394	3209.4271	1402.55	515.55
1049.8419	3210.3571	1401.85	512.05
1049.9444	3211.2865	1395.7	505.2
1050.0468	3212.2154	1398.7	508
1050.1491	3213.1436	1395.05	500.15
1050.2514	3214.0712	1393.2	497.55
1050.3537	3214.9982	1389.85	497.95
1050.4559	3215.9246	1383.85	493.75
1050.5581	3216.8503	1383.65	495.45
1050.6602	3217.7755	1383.1	492.5
1050.7623	3218.7001	1372.05	483.15
1050.8643	3219.624	1369.85	478.8
1050.9663	3220.5473	1378.55	489.4
1051.0682	3221.4701	1375.5	484.75
1051.1701	3222.3922	1368.2	475.2
1051.2719	3223.3137	1362.95	474.55
1051.3737	3224.2346	1364.85	475.3
1051.4754	3225.1549	1359.15	470.8
1051.5771	3226.0746	1361.45	471.45
1051.6788	3226.9937	1356.55	465.8
1051.7804	3227.9121	1348.4	459.8
1051.8819	3228.83	1347.55	459.2
1051.9834	3229.7473	1349.7	459.1
1052.0849	3230.6639	1345.1	456.65
1052.1863	3231.5799	1346.2	455.45
1052.2876	3232.4954	1346.75	459.05
1052.3889	3233.4102	1337.95	450.3
1052.4902	3234.3244	1335.55	445.15
1052.5914	3235.238	1334.5	445.9
1052.6926	3236.151	1354.05	440.6
1052.7937	3237.0634	1322.2	432.05
1052.8948	3237.9752	1319.65	428.3
1052.9958	3238.8864	1322.7	432.3
1053.0968	3239.797	1314.15	426.3
1053.1977	3240.7069	1324.8	433.85
1053.2986	3241.6163	1315.85	423.95
1053.3994	3242.5251	1322.05	433.05
1053.5002	3243.4332	1307.9	419.9
1053.6009	3244.3408	1304.1	414.7
1053.7016	3245.2477	1303.7	415.6
1053.8022	3246.154	1303.15	411.25
1053.9028	3247.0598	1295.85	404.5
1054.0034	3247.9649	1291	401.85
1054.1039	3248.8694	1295.65	405.95
1054.2043	3249.7733	1289.8	400.4
1054.3047	3250.6766	1288.15	398.05
1054.4051	3251.5793	1288	398.45
1054.5054	3252.4814	1281.15	390.35
1054.6056	3253.3829	1280.8	394.3
1054.7058	3254.2838	1284.1	393.75
1054.806	3255.1841	1276.6	387.75
1054.9061	3256.0838	1275.1	387.75
1055.0061	3256.9829	1266.15	377
1055.1062	3257.8814	1271.6	380.4
1055.2061	3258.7792	1266.15	376
1055.306	3259.6765	1258.15	365.25
1055.4059	3260.5731	1257.35	368.95
1055.5057	3261.4692	1248.65	358.85
1055.6055	3262.3647	1248.15	359
1055.7052	3263.2595	1241.1	351.55
1055.8049	3264.1538	1241.3	351.55
1055.9045	3265.0474	1230.85	342.25
1056.0041	3265.9404	1231.4	340.9
1056.1036	3266.8329	1218.35	329.3
1056.2031	3267.7247	1224.4	322.75
1056.3025	3268.616	1209.65	319.8
1056.4019	3269.5066	1200.2	310.35
1056.5013	3270.3966	1189.25	294.95
1056.6005	3271.286	1177.15	290.1
