Software Version:	3.9.2.0
Unit SN:	10000200
Spectrometer SN:	6960
Date:	3/6/2024 9:24:25 AM
Data Line Index:	25
Spectral Points:	2048
Integration time (ms):	125
Averages:	20
Delay (ms):	30
Sequence Number:	1
Processing:	dark subtract
Laser Power (mW):	285
Laser Current (mA):	803
Laser Diode Temp (C):	25.1
Laser Case Temp (C):	22.3
System Temp (C):	22.2
Spectrometer Temp (C):	20.6
CCD Temp (C):	-0.021
Secondary Temp (C):	20.011
Heatsink Temp (C):	17.317
CCDPCB Temp (C):	29.182
SecondaryPCB Temp (C):	24.88

Wavelength	RamanShift	Raw Counts	Dark Subtracted
787.061	30.1047	894.35	483.3
787.2016	32.3739	909.25	499.55
787.3422	34.6426	944.25	534.3
787.4828	36.9109	983.15	572.75
787.6235	39.1787	1017.85	603.55
787.7642	41.4461	1055.75	636.1
787.9049	43.7131	1093.3	670.4
788.0456	45.9796	1136.35	711.3
788.1863	48.2456	1178.4	749.3
788.3271	50.5112	1221.9	789.1
788.4679	52.7764	1269.7	835.65
788.6087	55.0411	1318.25	878.35
788.7496	57.3054	1379.2	933.35
788.8904	59.5692	1443.8	999.8
789.0313	61.8326	1506.35	1058.05
789.1722	64.0955	1575.75	1126.3
789.3132	66.3579	1666.5	1212
789.4541	68.6199	1773.7	1312.65
789.5951	70.8815	1969.3	1507.1
789.7361	73.1426	2390.3	1923.15
789.8771	75.4032	3461.75	2991.65
790.0181	77.6634	6206.55	5733.15
790.1592	79.9231	13042.1	12567.05
790.3003	82.1824	35220.5	34743.65
790.4414	84.4412	65535	65052.25
790.5825	86.6995	65535	65048.15
790.7237	88.9574	65535	65044.7
790.8648	91.2148	65535	65044.2
791.006	93.4717	65535	65039.5
791.1472	95.7282	65535	65038.8
791.2885	97.9842	65535	65036.25
791.4297	100.2398	65535	65035.9
791.571	102.4949	65535	65032.6
791.7123	104.7495	65535	65028.25
791.8536	107.0036	65535	65027.3
791.9949	109.2573	65535	65029
792.1363	111.5105	65535	65026.3
792.2777	113.7632	65535	65025.2
792.4191	116.0154	65535	65013.9
792.5605	118.2672	65535	65021
792.7019	120.5185	65535	65018.65
792.8434	122.7693	65535	65013.75
792.9849	125.0197	65535	65008.35
793.1264	127.2696	65535	65006.2
793.2679	129.519	65535	65005.85
793.4094	131.7679	65535	65002.4
793.551	134.0163	65535	65000.7
793.6926	136.2642	65535	64995.5
793.8342	138.5117	65535	64991.9
793.9758	140.7587	65535	64993.25
794.1175	143.0052	65535	64988.65
794.2591	145.2512	65535	64988.9
794.4008	147.4967	65535	64986.6
794.5425	149.7417	65535	64983.85
794.6842	151.9863	65535	64980.7
794.826	154.2304	65535	64975.7
794.9677	156.4739	65535	64970.45
795.1095	158.717	65535	64971.15
795.2513	160.9596	65535	64966.25
795.3931	163.2017	65535	64963.2
795.535	165.4433	65535	64961.65
795.6768	167.6844	65535	64958.8
795.8187	169.925	65535	64957.2
795.9606	172.1651	65535	64951.85
796.1025	174.4047	65535	64948.3
796.2445	176.6439	65535	64945.6
796.3864	178.8825	65535	64943.35
796.5284	181.1206	65535	64939.85
796.6704	183.3582	65535	64936
796.8124	185.5954	65535	64935.6
796.9544	187.832	65535	64930.95
797.0965	190.0681	65535	64927.75
797.2386	192.3037	65535	64925.9
797.3806	194.5388	65535	64921.8
797.5228	196.7734	65535	64919.7
797.6649	199.0075	65535	64919.3
797.807	201.2411	65535	64919.65
797.9492	203.4742	65535	64918.3
798.0914	205.7068	65535	64910.65
798.2336	207.9389	65535	64909.05
798.3758	210.1704	65535	64917.3
798.518	212.4015	65535	64929.6
798.6603	214.632	65535	64937.95
798.8025	216.862	65535	64932.45
798.9448	219.0915	65535	64931.4
799.0871	221.3205	65535	64931
799.2294	223.549	65535	64936.9
799.3718	225.777	65535	64934
799.5141	228.0044	65535	64922.25
799.6565	230.2314	65535	64921.05
799.7989	232.4578	65535	64916.75
799.9413	234.6837	65535	64911.95
800.0837	236.909	65535	64908.85
800.2262	239.1339	65535	64885.95
800.3687	241.3582	65535	64898.85
800.5111	243.582	65535	64868.95
800.6536	245.8053	65535	64881.45
800.7961	248.0281	65535	64884.45
800.9387	250.2503	65535	64881.85
801.0812	252.472	65535	64880.8
801.2238	254.6932	65535	64883.2
801.3664	256.9139	65535	64878.3
801.509	259.134	65535	64876
801.6516	261.3536	65535	64880.3
801.7942	263.5727	65535	64876.9
801.9369	265.7912	65535	64876.2
802.0795	268.0092	65535	64873.75
802.2222	270.2267	65535	64877.4
802.3649	272.4436	65535	64871.3
802.5076	274.6601	65535	64859.95
802.6504	276.8759	65535	64865
802.7931	279.0913	65535	64865.75
802.9359	281.3061	65535	64865.15
803.0787	283.5204	65535	64862.4
803.2215	285.7341	65535	64856.8
803.3643	287.9473	65535	64848.2
803.5071	290.16	65535	64853.9
803.6499	292.3721	65535	64862.85
803.7928	294.5837	65535	64861.5
803.9357	296.7947	65535	64861
804.0786	299.0052	65535	64859.5
804.2215	301.2152	65535	64853.55
804.3644	303.4246	65535	64857.05
804.5074	305.6334	65535	64858.35
804.6503	307.8418	65535	64851.55
804.7933	310.0495	65535	64851.75
804.9363	312.2568	65535	64851.6
805.0793	314.4635	65535	64850.8
805.2223	316.6696	65535	64845.85
805.3653	318.8752	65535	64837.45
805.5084	321.0802	65535	64843.65
805.6514	323.2847	65535	64841.85
805.7945	325.4887	65535	64843.6
805.9376	327.692	65535	64841.85
806.0807	329.8949	65535	64839.3
806.2238	332.0972	65535	64839.05
806.367	334.2989	65535	64833.55
806.5101	336.5001	65535	64832
806.6533	338.7007	65535	64835.85
806.7965	340.9008	65535	64830.9
806.9397	343.1003	65535	64830.4
807.0829	345.2992	65535	64828.85
807.2261	347.4976	65535	64826.2
807.3693	349.6955	65535	64824.7
807.5126	351.8927	65535	64822.9
807.6559	354.0895	65535	64812.75
807.7991	356.2856	65535	64820.1
807.9424	358.4812	65535	64819.3
808.0857	360.6763	65535	64816.2
808.2291	362.8707	65535	64814.4
808.3724	365.0646	65535	64812.45
808.5158	367.258	65535	64812.25
808.6591	369.4508	65535	64805.6
808.8025	371.643	65535	64807.45
808.9459	373.8346	65535	64806.3
809.0893	376.0257	65535	64802.35
809.2327	378.2162	65535	64800.65
809.3762	380.4062	65535	64804.55
809.5196	382.5956	65535	64803.55
809.6631	384.7844	65535	64808.35
809.8066	386.9726	65535	64808.45
809.9501	389.1603	65535	64810.85
810.0936	391.3474	65535	64761.15
810.2371	393.5339	65535	64808.7
810.3806	395.7199	65535	64811.05
810.5241	397.9052	65535	64811.05
810.6677	400.09	65535	64805.6
810.8113	402.2743	65535	64805.25
810.9548	404.4579	65535	64804.65
811.0984	406.641	65535	64800.65
811.2421	408.8235	65535	64802.9
811.3857	411.0054	65535	64796.6
811.5293	413.1868	65535	64793.35
811.673	415.3675	65535	64790.4
811.8166	417.5477	65535	64788.05
811.9603	419.7273	65535	64787.85
812.104	421.9064	65535	64779.55
812.2477	424.0848	65535	64787.75
812.3914	426.2627	65535	64785.55
812.5351	428.4399	65535	64786.7
812.6788	430.6166	65535	64779.7
812.8226	432.7928	65535	64777.95
812.9663	434.9683	65535	64778.4
813.1101	437.1432	65535	64775.3
813.2539	439.3176	65535	64778.65
813.3977	441.4914	65535	64778.75
813.5415	443.6645	65535	64776.55
813.6853	445.8371	65535	64776.75
813.8291	448.0091	65535	64776.6
813.973	450.1806	65535	64774.6
814.1168	452.3514	65535	64771.05
814.2607	454.5216	65535	64764.5
814.4046	456.6913	65535	64770.45
814.5485	458.8603	65535	64771.5
814.6924	461.0288	65535	64770.75
814.8363	463.1967	65535	64772.3
814.9802	465.3639	65535	64769.5
815.1241	467.5306	65535	64768.35
815.2681	469.6967	65535	64768.1
815.412	471.8622	65535	64768.1
815.556	474.0271	65535	64766.6
815.7	476.1914	65535	64764.55
815.844	478.3551	65535	64768.15
815.988	480.5182	65535	64764.35
816.132	482.6807	65535	64765.15
816.276	484.8426	65535	64766.2
816.4201	487.0039	65535	64762.8
816.5641	489.1647	65535	64761.3
816.7082	491.3248	65535	64761.9
816.8522	493.4843	65535	64762.5
816.9963	495.6432	65535	64761.3
817.1404	497.8015	65535	64755.2
817.2845	499.9592	65535	64760.6
817.4286	502.1163	65535	64758.6
817.5727	504.2728	65535	64757.45
817.7168	506.4287	65535	64757.45
817.861	508.5839	65535	64755.65
818.0051	510.7386	65535	64756.15
818.1493	512.8927	65535	64745
818.2935	515.0461	65535	64752.05
818.4377	517.199	65535	64753.7
818.5818	519.3512	65535	64751.7
818.726	521.5029	65535	64747.15
818.8703	523.6539	65535	64750.15
819.0145	525.8043	65535	64749.9
819.1587	527.9541	65535	64747.5
819.303	530.1033	65535	64747.75
819.4472	532.2519	65535	64747.55
819.5915	534.3999	65535	64743.35
819.7357	536.5472	65535	64744.7
819.88	538.694	65535	64746.5
820.0243	540.8401	65535	64743.35
820.1686	542.9856	65535	64743.15
820.3129	545.1305	65535	64744.2
820.4572	547.2748	65535	64743.85
820.6016	549.4185	65535	64741.75
820.7459	551.5615	65535	64743.3
820.8902	553.704	65535	64741.75
821.0346	555.8458	65535	64743.2
821.1789	557.987	65535	64744.25
821.3233	560.1276	65535	64740.3
821.4677	562.2675	65535	64742.3
821.6121	564.4069	65535	64742.4
821.7565	566.5456	65535	64743.75
821.9009	568.6837	65535	64741.4
822.0453	570.8212	65535	64740.3
822.1897	572.958	65535	64738.75
822.3342	575.0942	65535	64740
822.4786	577.2299	65535	64738.85
822.6231	579.3648	65535	64735.4
822.7675	581.4992	65535	64737.35
822.912	583.6329	65535	64735.45
823.0565	585.766	65535	64734.9
823.201	587.8985	65535	64736.05
823.3454	590.0304	65535	64711.65
823.4899	592.1616	65535	64731.2
823.6345	594.2922	65535	64731.05
823.779	596.4222	65535	64730.6
823.9235	598.5515	65535	64732.6
824.068	600.6802	65535	64730.9
824.2126	602.8083	65535	64730.4
824.3571	604.9358	65535	64728.5
824.5017	607.0626	65535	64730.25
824.6462	609.1888	65535	64726.9
824.7908	611.3144	65535	64727.05
824.9354	613.4393	65535	64727.75
825.08	615.5636	65535	64726.9
825.2246	617.6873	65535	64727.3
825.3692	619.8103	65535	64724.55
825.5138	621.9327	65535	64720.65
825.6584	624.0544	65535	64726.15
825.803	626.1756	65535	64725.2
825.9477	628.2961	65535	64722.4
826.0923	630.4159	65535	64722.6
826.237	632.5351	65535	64723.65
826.3816	634.6537	65535	64722.05
826.5263	636.7716	65535	64720.6
826.6709	638.8889	65535	64721.45
826.8156	641.0056	65535	64720.3
826.9603	643.1216	65535	64719.25
827.105	645.237	65535	64717.8
827.2497	647.3518	65535	64721.25
827.3944	649.4659	65535	64720.2
827.5391	651.5793	65535	64718.8
827.6838	653.6922	65535	64720.35
827.8285	655.8043	65535	64719.3
827.9733	657.9159	65535	64717.35
828.118	660.0268	65535	64712.35
828.2627	662.137	65535	64716
828.4075	664.2466	65535	64716.2
828.5522	666.3556	65535	64716.5
828.697	668.4639	65535	64712.1
828.8418	670.5716	65535	64713.55
828.9865	672.6786	65535	64714.1
829.1313	674.785	65535	64712.2
829.2761	676.8907	65535	64711.9
829.4209	678.9958	65535	64713.65
829.5657	681.1002	65535	64710.45
829.7105	683.204	65535	64708.5
829.8553	685.3072	65535	64709.3
830.0001	687.4097	65535	64709.55
830.1449	689.5115	65535	64708.15
830.2898	691.6127	65535	64709.1
830.4346	693.7132	65535	64710.05
830.5794	695.8131	65535	64686.95
830.7243	697.9123	65535	64709.2
830.8691	700.0109	65535	64706.35
831.014	702.1089	65535	64708.75
831.1588	704.2061	65535	64707.45
831.3037	706.3028	65535	64705.95
831.4486	708.3987	65535	64705.55
831.5935	710.4941	65535	64707.7
831.7383	712.5887	65535	64705.5
831.8832	714.6827	65535	64700.6
832.0281	716.7761	65535	64705.15
832.173	718.8688	65535	64702
832.3179	720.9608	65535	64701
832.4628	723.0522	65535	64700.95
832.6077	725.1429	65535	64703.35
832.7527	727.233	65535	64703.55
832.8976	729.3224	65535	64702.15
833.0425	731.4112	65535	64701.85
833.1874	733.4993	65535	64702.25
833.3324	735.5867	65535	64700.2
833.4773	737.6735	65535	64699.95
833.6222	739.7596	65535	64699.3
833.7672	741.845	65535	64701.25
833.9122	743.9298	65535	64699
834.0571	746.014	65535	64700.6
834.2021	748.0974	65535	64699
834.347	750.1802	65535	64698.3
834.492	752.2624	65535	64699.95
834.637	754.3439	65535	64697.65
834.782	756.4247	65535	64687.7
834.9269	758.5048	65535	64698.1
835.0719	760.5843	65535	64697.25
835.2169	762.6631	65535	64697.9
835.3619	764.7413	65535	64697.55
835.5069	766.8188	65535	64696.05
835.6519	768.8956	65535	64694.65
835.7969	770.9718	65535	64695.8
835.9419	773.0473	65535	64696.6
836.0869	775.1221	65535	64697.85
836.232	777.1962	65535	64694.8
836.377	779.2697	65535	64693.55
836.522	781.3426	65535	64682.7
836.667	783.4147	65535	64693.05
836.8121	785.4862	65535	64694.9
836.9571	787.557	65535	64694.95
837.1021	789.6271	65535	64694.3
837.2472	791.6966	65535	64693.15
837.3922	793.7654	65535	64691.55
837.5373	795.8335	65535	64694
837.6823	797.901	65535	64692.45
837.8274	799.9678	65535	64692.3
837.9724	802.0339	65535	64694.15
838.1175	804.0993	65535	64683.3
838.2626	806.1641	65535	64690.1
838.4076	808.2282	65535	64692.65
838.5527	810.2916	65535	64689.1
838.6978	812.3544	65535	64690.6
838.8428	814.4164	65535	64692.1
838.9879	816.4778	65535	64691.35
839.133	818.5385	65535	64689.95
839.2781	820.5986	65535	64690.25
839.4232	822.658	65535	64687.95
839.5682	824.7166	65535	64689.8
839.7133	826.7747	65535	64690.9
839.8584	828.832	65535	64687.65
840.0035	830.8886	65535	64687.9
840.1486	832.9446	65535	64686.2
840.2937	834.9999	65535	64689.75
840.4388	837.0545	65535	64682.8
840.5839	839.1085	65535	64686.45
840.729	841.1618	65535	64683.35
840.8741	843.2143	65535	64689.2
841.0192	845.2662	65535	64686.2
841.1643	847.3175	65535	64688.9
841.3095	849.368	65535	64686.8
841.4546	851.4179	65535	64687.7
841.5997	853.467	65535	64687.2
841.7448	855.5155	65535	64686.8
841.8899	857.5633	65535	64684.9
842.0351	859.6105	65535	64683.8
842.1802	861.6569	65535	64685.7
842.3253	863.7027	65535	64683.85
842.4704	865.7478	65535	64685.7
842.6156	867.7922	65535	64684.9
842.7607	869.8359	65535	64684
842.9058	871.8789	65535	64681.45
843.0509	873.9212	65535	64654.3
843.1961	875.9629	65535	64682.35
843.3412	878.0039	65535	64682.6
843.4863	880.0441	65535	64683.4
843.6315	882.0837	65535	64680.4
843.7766	884.1226	65535	64680.3
843.9218	886.1609	65535	64682.65
844.0669	888.1984	65535	64684.4
844.212	890.2352	65535	64682.05
844.3572	892.2714	65535	64677.4
844.5023	894.3069	65535	64678.4
844.6475	896.3416	65535	64679.65
844.7926	898.3757	65535	64681.7
844.9377	900.4091	65535	64679.45
845.0829	902.4418	65535	64676.6
845.228	904.4739	65535	64679.4
845.3732	906.5052	65535	64681.4
845.5183	908.5358	65535	64682.85
845.6635	910.5658	65535	64678.2
845.8086	912.595	65535	64680.95
845.9538	914.6236	65535	64680.05
846.0989	916.6515	65535	64680.1
846.2441	918.6786	65535	64678.9
846.3892	920.7051	65535	64678.95
846.5344	922.7309	65535	64679.3
846.6795	924.756	65535	64678.15
846.8246	926.7804	65535	64677.15
846.9698	928.8041	65535	64670.75
847.1149	930.8272	65535	64677.25
847.2601	932.8495	65535	64676.05
847.4052	934.8711	65535	64677.45
847.5504	936.892	65535	64678.05
847.6955	938.9123	65535	64678
847.8407	940.9318	65535	64677.75
847.9858	942.9506	65535	64677
848.131	944.9688	65535	64678.1
848.2761	946.9862	65535	64675.35
848.4213	949.003	65535	64675.25
848.5664	951.019	65535	64676.1
848.7115	953.0344	65535	64675
848.8567	955.0491	65535	64674.8
849.0018	957.063	65535	64675.65
849.147	959.0763	65535	64677.25
849.2921	961.0888	65535	64673.2
849.4373	963.1007	65535	64675.25
849.5824	965.1119	65535	64677.65
849.7275	967.1223	65535	64674.7
849.8727	969.1321	65535	64675.55
850.0178	971.1412	65535	64676.95
850.1629	973.1495	65535	64674.8
850.3081	975.1572	65535	64628.25
850.4532	977.1641	65535	64672.9
850.5983	979.1704	65535	64673.05
850.7435	981.1759	65535	64671.35
850.8886	983.1808	65535	64673.25
851.0337	985.1849	65535	64667.75
851.1788	987.1884	65535	64671.4
851.324	989.1911	65535	64672.3
851.4691	991.1932	65535	64672.3
851.6142	993.1945	65535	64674.35
851.7593	995.1951	65535	64671.9
851.9045	997.1951	65535	64666.4
852.0496	999.1943	65535	64672.85
852.1947	1001.1928	65535	64670.9
852.3398	1003.1906	65535	64673.2
852.4849	1005.1877	65535	64670.65
852.63	1007.1841	65535	64670.5
852.7751	1009.1798	65535	64672.35
852.9202	1011.1748	65535	64673.1
853.0653	1013.1691	65535	64670.05
853.2104	1015.1627	65535	64671.2
853.3555	1017.1556	65535	64671.65
853.5006	1019.1477	65535	64670.6
853.6457	1021.1392	65535	64673
853.7908	1023.1299	65535	64670.95
853.9359	1025.12	65535	64670.15
854.081	1027.1093	65535	64670.65
854.2261	1029.0979	65535	64671.2
854.3712	1031.0859	65535	64670.35
854.5163	1033.0731	65535	64668.1
854.6613	1035.0596	65535	64670.2
854.8064	1037.0454	65535	64671.3
854.9515	1039.0304	65535	64668
855.0965	1041.0148	65535	64670.9
855.2416	1042.9985	65535	64667.6
855.3867	1044.9814	65535	64670.45
855.5317	1046.9636	65535	64667.8
855.6768	1048.9452	65535	64670.95
855.8219	1050.926	65535	64668.9
855.9669	1052.9061	65535	64670.4
856.112	1054.8855	65535	64667.65
856.257	1056.8642	65535	64668.4
856.4021	1058.8421	65535	64665.2
856.5471	1060.8194	65535	64667.8
856.6921	1062.7959	65535	64667.35
856.8372	1064.7717	65535	64667.1
856.9822	1066.7469	65535	64668.1
857.1272	1068.7213	65535	64664.55
857.2723	1070.695	65535	64670.7
857.4173	1072.6679	65535	64670.3
857.5623	1074.6402	65535	64668.4
857.7073	1076.6117	65535	64663.25
857.8523	1078.5826	65535	64667.7
857.9973	1080.5527	65535	64665.2
858.1423	1082.5221	65535	64667.9
858.2873	1084.4908	65535	64666.85
858.4323	1086.4587	65535	64666.35
858.5773	1088.426	65535	64665.2
858.7223	1090.3925	65535	64659.85
858.8673	1092.3584	65535	64667.8
859.0123	1094.3235	65535	64668.8
859.1573	1096.2879	65535	64666.05
859.3022	1098.2515	65535	64665.75
859.4472	1100.2145	65535	64665.85
859.5922	1102.1767	65535	64665.25
859.7371	1104.1382	65535	64665.45
859.8821	1106.099	65535	64664.55
860.027	1108.0591	65535	64666.4
860.172	1110.0185	65535	64663.65
860.3169	1111.9771	65535	64666.2
860.4619	1113.9351	65535	64666.55
860.6068	1115.8923	65535	64665.75
860.7517	1117.8488	65535	64663.4
860.8967	1119.8045	65535	64664.45
861.0416	1121.7596	65535	64664.35
861.1865	1123.7139	65535	64664.8
861.3314	1125.6675	65535	64663.25
861.4763	1127.6204	65535	64663.95
861.6212	1129.5726	65535	64663.05
861.7661	1131.524	65535	64664.55
861.911	1133.4748	65535	64664.3
862.0559	1135.4248	65535	64664
862.2008	1137.3741	65535	64663.7
862.3457	1139.3226	65535	64661
862.4905	1141.2705	65535	64664.85
862.6354	1143.2176	65535	64657.8
862.7803	1145.164	65535	64663.15
862.9251	1147.1097	65535	64663.1
863.07	1149.0546	65535	64662.05
863.2148	1150.9989	65535	64663.35
863.3597	1152.9424	65535	64663.85
863.5045	1154.8852	65535	64662.8
863.6493	1156.8272	65535	64663.9
863.7942	1158.7686	65535	64654.55
863.939	1160.7092	65535	64662.6
864.0838	1162.6491	65535	64659.95
864.2286	1164.5883	65535	64663.6
864.3734	1166.5267	65535	64662.15
864.5182	1168.4644	65535	64663.15
864.663	1170.4014	65535	64659.1
864.8078	1172.3377	65535	64663.1
864.9526	1174.2732	65535	64663.6
865.0974	1176.2081	65535	64663.6
865.2421	1178.1421	65535	64657.8
865.3869	1180.0755	65535	64663.6
865.5317	1182.0082	65535	64661.35
865.6764	1183.9401	65535	64661.9
865.8212	1185.8713	65535	64663.15
865.9659	1187.8017	65535	64661.25
866.1106	1189.7315	65535	64663.4
866.2554	1191.6605	65535	64660.25
866.4001	1193.5888	65535	64660.4
866.5448	1195.5163	65535	64662.95
866.6895	1197.4432	65535	64660.65
866.8342	1199.3693	65535	64660.7
866.9789	1201.2947	65535	64660.35
867.1236	1203.2193	65535	64661.45
867.2683	1205.1432	65535	64660.95
867.413	1207.0664	65535	64660.35
867.5576	1208.9889	65535	64657.85
867.7023	1210.9106	65535	64661.15
867.847	1212.8316	65535	64663.45
867.9916	1214.7519	65535	64652.65
868.1363	1216.6715	65535	64660.8
868.2809	1218.5903	65535	64657.95
868.4255	1220.5084	65535	64660.5
868.5701	1222.4257	65535	64661.85
868.7148	1224.3424	65535	64662.6
868.8594	1226.2583	65535	64655.95
869.004	1228.1735	65535	64659.5
869.1486	1230.0879	65535	64658.3
869.2932	1232.0016	65535	64659.5
869.4377	1233.9146	65535	64658.65
869.5823	1235.8269	65535	64658.5
869.7269	1237.7384	65535	64658.75
869.8715	1239.6492	65535	64660.6
870.016	1241.5592	65535	64659.85
870.1606	1243.4686	65535	64662.35
870.3051	1245.3772	65535	64660.15
870.4496	1247.285	65535	64659.1
870.5941	1249.1922	65535	64660.6
870.7387	1251.0986	65535	64660.25
870.8832	1253.0042	65535	64658.8
871.0277	1254.9092	65535	64658.4
871.1722	1256.8134	65535	64660.9
871.3167	1258.7169	65535	64658.7
871.4611	1260.6196	65535	64658.2
871.6056	1262.5216	65535	64658.3
871.7501	1264.4229	65535	64659.5
871.8945	1266.3234	65535	64660.5
872.039	1268.2232	65535	64659.75
872.1834	1270.1223	65535	64657.95
872.3278	1272.0207	65535	64659.55
872.4723	1273.9183	65535	64651.05
872.6167	1275.8151	65535	64658.65
872.7611	1277.7113	65535	64657.65
872.9055	1279.6067	65535	64658.1
873.0499	1281.5014	65535	64656.65
873.1943	1283.3953	65535	64656.5
873.3386	1285.2885	65535	64660.9
873.483	1287.181	65535	64658.35
873.6274	1289.0727	65535	64658.15
873.7717	1290.9637	65535	64658.85
873.9161	1292.854	65535	64657.55
874.0604	1294.7435	65535	64657.1
874.2047	1296.6323	65535	64657.5
874.349	1298.5204	65535	64653.5
874.4933	1300.4077	65535	64657.9
874.6376	1302.2943	65535	64659.15
874.7819	1304.1802	65535	64658.65
874.9262	1306.0653	65535	64656.6
875.0705	1307.9497	65535	64656.65
875.2147	1309.8333	65535	64657.95
875.359	1311.7162	65535	64659.4
875.5032	1313.5984	65535	64653.85
875.6475	1315.4798	65535	64645.8
875.7917	1317.3605	65535	64653.7
875.9359	1319.2405	65535	64653.6
876.0801	1321.1197	65535	64655.65
876.2243	1322.9982	65535	64652.6
876.3685	1324.876	65535	64658.85
876.5127	1326.753	65535	64659.05
876.6569	1328.6293	65535	64656.15
876.801	1330.5048	65535	64656.25
876.9452	1332.3796	65535	64656.6
877.0893	1334.2537	65535	64633.7
877.2335	1336.127	65535	64655.6
877.3776	1337.9996	65535	64656.45
877.5217	1339.8714	65535	64657.15
877.6658	1341.7426	65535	64613
877.8099	1343.6129	65535	64658.5
877.954	1345.4826	65535	64657.1
878.0981	1347.3515	65535	64655.4
878.2422	1349.2196	65535	64656.75
878.3862	1351.087	65535	64656.4
878.5303	1352.9537	65535	64658
878.6743	1354.8197	65535	64655.6
878.8184	1356.6849	65535	64655.7
878.9624	1358.5493	65535	64657.25
879.1064	1360.4131	65535	64657.1
879.2504	1362.276	65535	64656.85
879.3944	1364.1383	65535	64657.5
879.5384	1365.9998	65535	64651.6
879.6823	1367.8606	65535	64655.8
879.8263	1369.7206	65535	64654.2
879.9702	1371.5799	65535	64654.85
880.1142	1373.4384	65535	64656.8
880.2581	1375.2962	65535	64654.65
880.402	1377.1533	65535	64658.15
880.5459	1379.0096	65535	64656.35
880.6898	1380.8652	65535	64656
880.8337	1382.7201	65535	64655.5
880.9776	1384.5742	65535	64656.75
881.1215	1386.4275	65535	64655.8
881.2653	1388.2802	65535	64657.65
881.4092	1390.132	65535	64658.05
881.553	1391.9832	65535	64654.7
881.6968	1393.8336	65535	64656.5
881.8406	1395.6832	65535	64654.65
881.9844	1397.5322	65535	64657.1
882.1282	1399.3803	65535	64648.7
882.272	1401.2278	65535	64657.85
882.4158	1403.0745	65535	64654.1
882.5595	1404.9204	65535	64657
882.7033	1406.7656	65535	64654.25
882.847	1408.6101	65535	64656.25
882.9908	1410.4538	65535	64655.55
883.1345	1412.2968	65535	64657.65
883.2782	1414.139	65535	64658.5
883.4219	1415.9805	65535	64657.45
883.5656	1417.8213	65535	64635.15
883.7092	1419.6613	65535	64656.95
883.8529	1421.5006	65535	64653.55
883.9965	1423.3391	65535	64655.05
884.1402	1425.1769	65535	64654.25
884.2838	1427.0139	65535	64654.2
884.4274	1428.8502	65535	64656.75
884.571	1430.6858	65535	64654.15
884.7146	1432.5206	65535	64654.75
884.8582	1434.3547	65535	64657.2
885.0018	1436.188	65535	64656.4
885.1453	1438.0206	65535	64654.85
885.2889	1439.8524	65535	64655.4
885.4324	1441.6835	65535	64653.9
885.5759	1443.5139	65535	64653.65
885.7194	1445.3435	65535	64653.5
885.8629	1447.1724	65535	64656.25
886.0064	1449.0005	65535	64652.85
886.1499	1450.8279	65535	64654.45
886.2933	1452.6545	65535	64655.95
886.4368	1454.4804	65535	64657.75
886.5802	1456.3056	65535	64647.25
886.7237	1458.13	65535	64655.25
886.8671	1459.9536	65535	64653.3
887.0105	1461.7766	65535	64656.15
887.1539	1463.5987	65535	64654
887.2972	1465.4202	65535	64654.65
887.4406	1467.2409	65535	64654.45
887.584	1469.0608	65535	64656.2
887.7273	1470.88	65535	64654.65
887.8706	1472.6984	65535	64654.5
888.0139	1474.5161	65535	64653.25
888.1572	1476.3331	65535	64653.45
888.3005	1478.1493	65535	64655.5
888.4438	1479.9648	65535	64655.9
888.5871	1481.7795	65535	64653.85
888.7303	1483.5935	65535	64658.2
888.8736	1485.4067	65535	64654.9
889.0168	1487.2192	65535	64654.05
889.16	1489.031	65535	64651.6
889.3032	1490.842	65535	64654.55
889.4464	1492.6522	65535	64655.1
889.5896	1494.4618	65535	64653.9
889.7327	1496.2705	65535	64655.95
889.8759	1498.0785	65535	64653.8
890.019	1499.8858	65535	64653.3
890.1622	1501.6924	65535	64654.25
890.3053	1503.4981	65535	64653.7
890.4484	1505.3032	65535	64653.25
890.5914	1507.1075	65535	64653
890.7345	1508.911	65535	64653.9
890.8776	1510.7138	65535	64652.75
891.0206	1512.5159	65535	64653.75
891.1637	1514.3172	65529.9	64649.7
891.3067	1516.1178	65535	64655.45
891.4497	1517.9176	65535	64650.5
891.5927	1519.7166	65535	64655.6
891.7357	1521.515	65533.85	64648.6
891.8786	1523.3126	65516.5	64636.5
892.0216	1525.1094	65535	64650.65
892.1645	1526.9055	65531.15	64649.95
892.3074	1528.7008	65530.5	64647
892.4503	1530.4954	65495.5	64610.2
892.5932	1532.2893	65532.85	64652.1
892.7361	1534.0824	65484.15	64598.5
892.879	1535.8747	65439.05	64559.95
893.0218	1537.6663	65535	64652.3
893.1647	1539.4572	65263.15	64382.2
893.3075	1541.2473	65422.85	64541.75
893.4503	1543.0367	65435.85	64555.55
893.5931	1544.8253	65385.2	64499.8
893.7359	1546.6132	65427.05	64541.9
893.8787	1548.4003	65305.8	64415.5
894.0214	1550.1867	65278.25	64387.3
894.1642	1551.9723	65228.45	64342.3
894.3069	1553.7572	65281.7	64399.85
894.4496	1555.5414	65401.5	64519.05
894.5923	1557.3247	64573.85	63691.95
894.735	1559.1074	65377.8	64497.2
894.8777	1560.8893	65172.6	64291.85
895.0204	1562.6705	65286.3	64406.3
895.163	1564.4509	64861.05	63982
895.3056	1566.2305	65121.55	64243.05
895.4482	1568.0094	65335.2	64452.9
895.5908	1569.7876	65157.2	64276.4
895.7334	1571.565	64831.85	63947.95
895.876	1573.3417	64992.45	64112.9
896.0186	1575.1176	64940.2	64057.3
896.1611	1576.8928	64828.9	63948.9
896.3036	1578.6672	64490.25	63610.1
896.4461	1580.4409	64908.4	64027.25
896.5886	1582.2138	64499.6	63615.95
896.7311	1583.986	64819.75	63936.95
896.8736	1585.7575	64490.25	63609.3
897.0161	1587.5282	64840.1	63958.9
897.1585	1589.2981	64923.35	64042.6
897.3009	1591.0673	64623.1	63741.75
897.4433	1592.8358	64302.75	63422.3
897.5857	1594.6035	64667.3	63783.95
897.7281	1596.3704	64688.3	63808.8
897.8705	1598.1366	63905.4	63024.4
898.0128	1599.9021	63421.65	62541.55
898.1551	1601.6668	64015.85	63131.85
898.2975	1603.4308	63450.6	62566.4
898.4398	1605.194	63406.8	62522.2
898.5821	1606.9564	62513.85	61631.5
898.7243	1608.7182	63150.95	62264.45
898.8666	1610.4791	62874.05	61992.3
899.0088	1612.2394	63750	62868.6
899.1511	1613.9988	63298.25	62418
899.2933	1615.7576	64125.3	63245.75
899.4355	1617.5156	64144.65	63256.95
899.5776	1619.2728	64509.95	63626.7
899.7198	1621.0293	62960.95	62080.9
899.862	1622.785	62568.5	61683.75
900.0041	1624.54	62675.55	61789.15
900.1462	1626.2942	61724.7	60842
900.2883	1628.0477	60534.8	59650.85
900.4304	1629.8005	59720.55	58834.7
900.5725	1631.5525	60390.15	59508.7
900.7145	1633.3037	59154.25	58269.1
900.8566	1635.0542	58999.8	58116.8
900.9986	1636.804	59359.5	58476.95
901.1406	1638.553	58380.7	57410
901.2826	1640.3013	58637.85	57754.6
901.4245	1642.0488	57924.75	57042.8
901.5665	1643.7955	58271.95	57391.85
901.7085	1645.5416	57723.95	56841.15
901.8504	1647.2868	57236.65	56354.75
901.9923	1649.0313	57859.7	56978.95
902.1342	1650.7751	57339.05	56453.7
902.2761	1652.5181	56836.7	55953.65
902.4179	1654.2604	56678.45	55795.7
902.5598	1656.0019	56890.15	56009.45
902.7016	1657.7427	56362.4	55480.5
902.8434	1659.4828	56598.15	55716.05
902.9852	1661.222	56290.65	55406.45
903.127	1662.9606	56635.1	55754.55
903.2687	1664.6984	56432.55	55550.1
903.4105	1666.4354	56832	55948.65
903.5522	1668.1717	56192.2	55311.15
903.6939	1669.9072	55700.5	54818.2
903.8356	1671.642	55560.05	54676.6
903.9773	1673.3761	55303.15	54420
904.119	1675.1094	55040.6	54159.55
904.2606	1676.8419	54608.35	53725.6
904.4022	1678.5737	54484.4	53603.45
904.5439	1680.3048	54227.55	53346.95
904.6855	1682.0351	53921.6	53039.4
904.827	1683.7646	53742.4	52857.4
904.9686	1685.4934	53760.45	52879.5
905.1101	1687.2215	52926.8	52043.45
905.2517	1688.9488	53390.7	52507
905.3932	1690.6754	52267.5	51385.1
905.5347	1692.4012	52614.45	51732.15
905.6761	1694.1263	52538.05	51656
905.8176	1695.8506	52288.45	51407.8
905.9591	1697.5742	52163	51283.6
906.1005	1699.297	51897.05	51014.9
906.2419	1701.0191	51750.45	50868.6
906.3833	1702.7404	51357.45	50475.85
906.5246	1704.461	51120.6	50236.85
906.666	1706.1808	51036.6	50152.85
906.8073	1707.8999	50884.75	50001.5
906.9487	1709.6182	50745.65	49863
907.09	1711.3358	50607.55	49725.55
907.2313	1713.0527	50430.4	49548.9
907.3725	1714.7688	50271.75	49384.8
907.5138	1716.4841	49909.65	49024.75
907.655	1718.1987	49943.4	49055.95
907.7962	1719.9126	49698.15	48816.3
907.9374	1721.6257	49571.25	48685.2
908.0786	1723.338	49642.85	48759
908.2198	1725.0496	49133.15	48250
908.3609	1726.7605	49085.9	48202.95
908.502	1728.4706	48912.55	48029.85
908.6431	1730.18	48712.05	47826.85
908.7842	1731.8886	48672.9	47790.55
908.9253	1733.5964	48514.05	47611.95
909.0664	1735.3036	48491.1	47606
909.2074	1737.0099	48396	47513.45
909.3484	1738.7156	48198	47314.95
909.4894	1740.4204	47966.3	47080.25
909.6304	1742.1246	47950.7	47066.95
909.7714	1743.8279	47818.85	46935.55
909.9123	1745.5306	47799.8	46917.3
910.0532	1747.2325	47515.7	46632.55
910.1941	1748.9336	47460.65	46577.2
910.335	1750.634	47244.9	46361.55
910.4759	1752.3336	47251	46366.6
910.6168	1754.0325	47137.7	46257.65
910.7576	1755.7307	47112.9	46228.9
910.8984	1757.4281	46975.35	46094.1
911.0392	1759.1247	46962.65	46073.2
911.18	1760.8206	46840.6	45954.05
911.3208	1762.5158	46730.5	45844.7
911.4615	1764.2102	46579.3	45696.5
911.6022	1765.9039	46444.9	45561.65
911.7429	1767.5968	46419.95	45538
911.8836	1769.289	46203.2	45319.3
912.0243	1770.9804	46043.5	45160.1
912.1649	1772.6711	46032.65	45151.4
912.3056	1774.361	45872.05	44990.5
912.4462	1776.0502	45779.1	44896.25
912.5868	1777.7386	45680.9	44793.85
912.7274	1779.4263	45489.8	44605.3
912.8679	1781.1132	45457.7	44574.85
913.0084	1782.7994	45288	44402.7
913.149	1784.4849	45226.55	44345.65
913.2895	1786.1696	45035.5	44131.55
913.4299	1787.8535	44943.8	44060.6
913.5704	1789.5367	44856.2	43972.8
913.7108	1791.2192	44843.15	43959.1
913.8513	1792.9009	44560.2	43660.4
913.9917	1794.5818	44483.65	43599.4
914.132	1796.2621	44375.4	43494.2
914.2724	1797.9415	44274.75	43391.2
914.4128	1799.6202	44120.15	43238.15
914.5531	1801.2982	44021.5	43139.35
914.6934	1802.9755	43915.2	43031.3
914.8337	1804.6519	43813.9	42930.55
914.9739	1806.3277	43593.15	42710.2
915.1142	1808.0027	43420.5	42537.05
915.2544	1809.6769	43411.8	42529.4
915.3946	1811.3504	43297.25	42411.6
915.5348	1813.0231	43156.85	42273.15
915.675	1814.6951	43106.75	42225.25
915.8151	1816.3664	43107.7	42224.15
915.9553	1818.0369	42990.05	42105.95
916.0954	1819.7067	42804.9	41922.75
916.2355	1821.3757	42725.5	41841.1
916.3755	1823.044	42626.05	41745.75
916.5156	1824.7115	42529.3	41646
916.6556	1826.3783	42368.1	41487.45
916.7956	1828.0443	42243.45	41362.05
916.9356	1829.7096	42146.3	41260.7
917.0756	1831.3741	42127.25	41242.45
917.2155	1833.0379	41996.3	41114.05
917.3555	1834.701	41846.05	40960.6
917.4954	1836.3633	41773.7	40888.2
917.6353	1838.0248	41709.35	40824
917.7751	1839.6856	41592.15	40707.45
917.915	1841.3457	41536.4	40655.7
918.0548	1843.005	41450.75	40567.9
918.1946	1844.6636	41368.45	40485.65
918.3344	1846.3214	41202.75	40320.4
918.4742	1847.9785	41171.8	40291.9
918.6139	1849.6349	41040.5	40156.9
918.7537	1851.2904	40981.65	40090.4
918.8934	1852.9453	40804.6	39921.25
919.0331	1854.5994	40660.1	39773.65
919.1727	1856.2528	40688.2	39799.75
919.3124	1857.9054	40517.3	39633.5
919.452	1859.5572	40479.35	39595.6
919.5916	1861.2083	40345.9	39462.45
919.7312	1862.8587	40392.25	39508.8
919.8708	1864.5084	40277	39393.1
920.0103	1866.1572	40128.7	39248.1
920.1498	1867.8054	39935.4	39052.7
920.2893	1869.4528	39894.7	39011.8
920.4288	1871.0994	39743.25	38861.25
920.5683	1872.7453	39644.65	38760.2
920.7077	1874.3905	39620.95	38733
920.8471	1876.0349	39485.75	38601.35
920.9865	1877.6786	39442.65	38559.25
921.1259	1879.3215	39359.95	38476.3
921.2653	1880.9637	39287.7	38404.1
921.4046	1882.6051	39188.8	38306.8
921.5439	1884.2458	39054.35	38167.75
921.6832	1885.8858	38913.75	38030.8
921.8225	1887.525	38870.95	37987.05
921.9617	1889.1634	38670	37788.45
922.101	1890.8011	38606.05	37722.15
922.2402	1892.4381	38509.85	37626.35
922.3794	1894.0743	38491.35	37608.95
922.5185	1895.7098	38396.6	37513.5
922.6577	1897.3446	38329.1	37444.7
922.7968	1898.9786	38170.05	37283.3
922.9359	1900.6118	38058.35	37176
923.075	1902.2443	37876.8	36992.5
923.214	1903.8761	37787.5	36903.35
923.3531	1905.5071	37609.8	36723.65
923.4921	1907.1374	37508.75	36624.95
923.6311	1908.7669	37440.75	36557.6
923.77	1910.3957	37383.95	36498.9
923.909	1912.0237	37248.15	36366.9
924.0479	1913.651	37114.2	36230.05
924.1868	1915.2776	37018.35	36136.05
924.3257	1916.9034	36856.85	35975.2
924.4646	1918.5285	36689.8	35809.05
924.6034	1920.1528	36515.05	35630.35
924.7422	1921.7764	36533.25	35649.2
924.881	1923.3992	36335.25	35451.2
925.0198	1925.0213	36100.55	35215.85
925.1586	1926.6427	35974.5	35092
925.2973	1928.2633	36048.8	34953.25
925.436	1929.8832	35771.3	34883.6
925.5747	1931.5023	35601	34719.1
925.7134	1933.1207	35521.6	34639.3
925.852	1934.7383	35489.3	34604.35
925.9906	1936.3552	35356.8	34472.8
926.1292	1937.9714	35250.3	34367.5
926.2678	1939.5868	35101.4	34217
926.4064	1941.2015	34917	34033.4
926.5449	1942.8154	34800.3	33917.1
926.6834	1944.4286	34634.3	33750.6
926.8219	1946.041	34558.2	33651.55
926.9604	1947.6528	34335.25	33447.7
927.0988	1949.2637	34297.55	33415
927.2372	1950.8739	34156	33272.1
927.3756	1952.4834	34048	33166.75
927.514	1954.0921	33991.6	33105.75
927.6523	1955.7001	33861.3	32974.7
927.7907	1957.3074	33797.35	32914.65
927.929	1958.9139	33669.1	32783.5
928.0673	1960.5197	33603.6	32717.25
928.2055	1962.1247	33403.4	32520.95
928.3438	1963.729	33275.9	32392.85
928.482	1965.3325	33155.6	32248.2
928.6202	1966.9353	33033.75	32149.35
928.7584	1968.5374	32944.35	32059.4
928.8965	1970.1387	32824.85	31942.45
929.0346	1971.7393	32691.6	31807.45
929.1727	1973.3392	32610.35	31727.05
929.3108	1974.9383	32477.1	31595.05
929.4489	1976.5366	32333.25	31451.2
929.5869	1978.1342	32294.6	31411.95
929.7249	1979.7311	32261.65	31378.3
929.8629	1981.3273	32157.35	31272.75
930.0009	1982.9227	32015.15	31130.7
930.1388	1984.5173	31962.35	31078.6
930.2767	1986.1112	31769.5	30886.05
930.4146	1987.7044	31754.2	30870.45
930.5525	1989.2968	31658.1	30773.85
930.6904	1990.8885	31600.75	30713.55
930.8282	1992.4795	31519.1	30634.85
930.966	1994.0697	31361.9	30478.5
931.1038	1995.6592	31306.05	30422.8
931.2415	1997.2479	31181.9	30298.65
931.3793	1998.8359	31112.05	30226.95
931.517	2000.4232	30925.65	30042.15
931.6547	2002.0097	30831.65	29949.35
931.7923	2003.5955	30681.55	29797.75
931.93	2005.1805	30690.5	29805.1
932.0676	2006.7648	30568.65	29684.5
932.2052	2008.3484	30448.3	29564.45
932.3427	2009.9312	30461.6	29575.8
932.4803	2011.5133	30360.05	29477.55
932.6178	2013.0946	30242.55	29358.9
932.7553	2014.6752	30161.65	29278.15
932.8928	2016.2551	30108.7	29223.25
933.0302	2017.8342	29941.6	29057.65
933.1676	2019.4126	29817.9	28935.05
933.305	2020.9902	29691.45	28809.05
933.4424	2022.5672	29686.3	28800.75
933.5798	2024.1433	29599.55	28710.25
933.7171	2025.7188	29482.5	28599.55
933.8544	2027.2935	29387.9	28504.95
933.9917	2028.8674	29271.55	28387.8
934.129	2030.4406	29201.15	28318.45
934.2662	2032.0131	29110.5	28227.4
934.4034	2033.5849	28960.9	28071.95
934.5406	2035.1559	28907.7	28023.75
934.6778	2036.7261	28895.3	28013.1
934.8149	2038.2957	28787.25	27904.2
934.952	2039.8645	28736.95	27852.75
935.0891	2041.4325	28715.15	27830.1
935.2262	2042.9998	28583.7	27700.05
935.3632	2044.5664	28519.55	27634.7
935.5002	2046.1323	28437.35	27554.25
935.6372	2047.6974	28364.45	27482.5
935.7742	2049.2617	28272.7	27389.95
935.9111	2050.8254	28267.7	27364.1
936.048	2052.3883	28193.55	27308.15
936.1849	2053.9504	28086.35	27201.75
936.3218	2055.5118	28007.15	27122.2
936.4586	2057.0725	27866.85	26978.45
936.5955	2058.6325	27812.85	26929.55
936.7323	2060.1917	27718.85	26835.9
936.869	2061.7502	27649.95	26763.05
937.0058	2063.3079	27553.55	26670.85
937.1425	2064.8649	27503.65	26618.2
937.2792	2066.4212	27440.9	26556.5
937.4159	2067.9767	27397.5	26513.85
937.5525	2069.5315	27249.65	26365.05
937.6891	2071.0856	27115.1	26232.45
937.8257	2072.6389	27027.05	26142.25
937.9623	2074.1915	26890.1	26008.65
938.0989	2075.7433	26836.8	25952.15
938.2354	2077.2945	26767.65	25887.35
938.3719	2078.8448	26690.55	25805.4
938.5084	2080.3945	26575.05	25691.35
938.6448	2081.9434	26563.7	25680.6
938.7812	2083.4916	26465.8	25582.6
938.9176	2085.039	26374.85	25491.6
939.054	2086.5857	26339.3	25452.25
939.1903	2088.1317	26283.85	25399.25
939.3267	2089.677	26166.9	25283.85
939.463	2091.2215	26118.7	25235.85
939.5992	2092.7652	26029.3	25143.85
939.7355	2094.3083	25988.45	25104.65
939.8717	2095.8506	25957.65	25076.6
940.0079	2097.3921	25904.9	25021.9
940.1441	2098.933	25812.5	24930.35
940.2802	2100.4731	25759.8	24878.25
940.4163	2102.0124	25782.55	24881.55
940.5524	2103.5511	25648.6	24767.15
940.6885	2105.089	25617.75	24731.25
940.8245	2106.6261	25553.1	24671.05
940.9606	2108.1626	25487.35	24603.2
941.0965	2109.6983	25472.3	24559.85
941.2325	2111.2332	25320.15	24436.25
941.3684	2112.7675	25267.45	24382.85
941.5044	2114.301	25214.8	24331.8
941.6403	2115.8337	25187.05	24301.8
941.7761	2117.3657	25099.4	24216.3
941.912	2118.897	25035.55	24149.35
942.0478	2120.4276	24904.85	24015.9
942.1835	2121.9575	24827.75	23944.35
942.3193	2123.4866	24818.35	23931.2
942.455	2125.0149	24705.3	23820.7
942.5907	2126.5426	24625.1	23742.15
942.7264	2128.0695	24615.3	23726.35
942.8621	2129.5956	24551.5	23668.3
942.9977	2131.1211	24485.6	23595.45
943.1333	2132.6458	24434.15	23551.75
943.2689	2134.1698	24379.85	23496.15
943.4044	2135.693	24244.8	23358.95
943.54	2137.2155	24187.45	23302.6
943.6755	2138.7373	24153.2	23269.7
943.8109	2140.2584	24077.5	23195.2
943.9464	2141.7787	24029.15	23140
944.0818	2143.2983	23903.4	23021.45
944.2172	2144.8171	23775.1	22893.45
944.3526	2146.3353	23737.6	22851.2
944.4879	2147.8527	23584.25	22700.6
944.6232	2149.3693	23590.4	22706.95
944.7585	2150.8853	23531.25	22646.6
944.8938	2152.4005	23407.8	22523.8
945.029	2153.9149	23360.05	22476.4
945.1642	2155.4287	23295.85	22412.35
945.2994	2156.9417	23246.25	22359.7
945.4346	2158.454	23174.05	22288.85
945.5697	2159.9655	23103.15	22218.7
945.7048	2161.4764	23085.75	22203.6
945.8399	2162.9865	22979.1	22096.05
945.9749	2164.4958	22931.5	22048.85
946.1099	2166.0045	22809.85	21922.55
946.2449	2167.5124	22802.35	21920
946.3799	2169.0195	22708.45	21825.05
946.5148	2170.526	22695.8	21811.75
946.6498	2172.0317	22617.25	21735.9
946.7846	2173.5367	22570	21684.4
946.9195	2175.0409	22499.9	21619.55
947.0543	2176.5445	22446.05	21563.75
947.1891	2178.0473	22326.55	21443.65
947.3239	2179.5494	22288.6	21402.55
947.4587	2181.0507	22206.15	21320.7
947.5934	2182.5513	22126.6	21244.9
947.7281	2184.0512	22089.1	21205.9
947.8628	2185.5504	22031.35	21145.45
947.9974	2187.0488	21889.45	21005.3
948.132	2188.5465	21807.2	20923.8
948.2666	2190.0435	21738.9	20855.15
948.4012	2191.5397	21654.05	20770.8
948.5357	2193.0353	21630.15	20748.1
948.6702	2194.5301	21509.1	20624.2
948.8047	2196.0241	21413.35	20528.6
948.9392	2197.5175	21368.8	20484.8
949.0736	2199.0101	21269.9	20382.6
949.208	2200.502	21185.5	20305.3
949.3424	2201.9931	21104	20218.65
949.4767	2203.4835	21009.85	20126.8
949.611	2204.9733	20989.9	20100.3
949.7453	2206.4622	20955.45	20073.5
949.8796	2207.9505	20873.7	19985.8
950.0138	2209.438	20746.3	19864.95
950.148	2210.9248	20716.55	19830.3
950.2822	2212.4109	20640.95	19758.4
950.4164	2213.8962	20563	19676.05
950.5505	2215.3809	20512.3	19629.25
950.6846	2216.8648	20441.8	19559.15
950.8186	2218.3479	20401.25	19512.45
950.9527	2219.8304	20316.75	19430.45
951.0867	2221.3121	20223.35	19339.05
951.2207	2222.7931	20141.35	19258.4
951.3546	2224.2733	20088.7	19203.6
951.4886	2225.7529	20019.65	19135.2
951.6225	2227.2317	19969.2	19082.4
951.7563	2228.7098	19962.1	19079
951.8902	2230.1872	19825.85	18941.25
952.024	2231.6638	19799.25	18914.9
952.1578	2233.1397	19713.5	18823.9
952.2916	2234.6149	19655.4	18772.05
952.4253	2236.0894	19603.6	18720.55
952.559	2237.5632	19554.45	18666.9
952.6927	2239.0362	19467.35	18583.6
952.8263	2240.5085	19364.15	18480.2
952.9599	2241.9801	19310.15	18425.6
953.0935	2243.4509	19233.45	18351.45
953.2271	2244.921	19192.85	18307.7
953.3606	2246.3904	19123.4	18236.1
953.4941	2247.8591	19056.9	18172.9
953.6276	2249.3271	19010.55	18127.2
953.7611	2250.7943	18951	18066.25
953.8945	2252.2608	18856.75	17974.95
954.0279	2253.7266	18804.05	17922.1
954.1612	2255.1917	18767.5	17885.5
954.2946	2256.656	18682.85	17799.1
954.4279	2258.1197	18641.65	17759.05
954.5612	2259.5826	18588.2	17702.25
954.6944	2261.0447	18558.75	17672.85
954.8276	2262.5062	18445.35	17559.35
954.9608	2263.9669	18413.5	17527.25
955.094	2265.4269	18403.35	17519.4
955.2271	2266.8862	18282.15	17397.1
955.3602	2268.3448	18256.45	17373.5
955.4933	2269.8026	18238.1	17353.85
955.6264	2271.2598	18186.7	17304
955.7594	2272.7162	18119.15	17237.7
955.8924	2274.1719	18063.8	17181.75
956.0253	2275.6268	18015.35	17131.45
956.1583	2277.0811	17985.55	17103
956.2912	2278.5346	17922.45	17040.5
956.4241	2279.9874	17867.4	16982.95
956.5569	2281.4395	17855.55	16975.55
956.6897	2282.8908	17743	16853.7
956.8225	2284.3414	17733.05	16848.2
956.9553	2285.7914	17641.65	16758.45
957.088	2287.2406	17607	16722.75
957.2207	2288.689	17580.8	16696.7
957.3534	2290.1368	17516.9	16634.9
957.486	2291.5838	17427	16541.35
957.6186	2293.0302	17360.85	16479.85
957.7512	2294.4758	17303.6	16421.65
957.8838	2295.9206	17233.1	16349
958.0163	2297.3648	17173.15	16290.9
958.1488	2298.8082	17178.85	16292.15
958.2813	2300.251	17110.6	16226.8
958.4137	2301.693	17063.95	16177.15
958.5461	2303.1343	17009.6	16124.15
958.6785	2304.5748	16928.75	16044.4
958.8108	2306.0147	16869.1	15983.95
958.9432	2307.4538	16841.75	15954.4
959.0754	2308.8922	16816.1	15933.9
959.2077	2310.3299	16750	15866.6
959.3399	2311.7669	16680.1	15796.85
959.4721	2313.2031	16629.25	15746.7
959.6043	2314.6387	16556.7	15673.25
959.7365	2316.0735	16512	15628.15
959.8686	2317.5076	16500.55	15616.85
960.0006	2318.941	16449.65	15567.25
960.1327	2320.3737	16379.75	15494.35
960.2647	2321.8056	16356.1	15470.15
960.3967	2323.2369	16303.35	15417.95
960.5287	2324.6674	16227.3	15342.6
960.6606	2326.0972	16167.3	15280.5
960.7925	2327.5263	16099.6	15216.9
960.9244	2328.9547	16071.2	15187.45
961.0562	2330.3823	15999.9	15116
961.1881	2331.8092	15984.65	15098.25
961.3198	2333.2355	15890.25	15006.95
961.4516	2334.661	15908.35	15025.4
961.5833	2336.0858	15847.65	14962.2
961.715	2337.5098	15772.25	14889.05
961.8467	2338.9332	15769.85	14885.25
961.9783	2340.3558	15700.15	14814.35
962.1099	2341.7778	15628.85	14745.35
962.2415	2343.199	15563.95	14676.75
962.373	2344.6195	15552.45	14669.15
962.5045	2346.0393	15508.25	14623.65
962.636	2347.4583	15473.4	14589.2
962.7675	2348.8767	15404.5	14521.1
962.8989	2350.2943	15362.55	14477.05
963.0303	2351.7113	15355.9	14470.4
963.1617	2353.1275	15269.75	14385.65
963.293	2354.543	15245.55	14353.1
963.4243	2355.9578	15169.95	14286.3
963.5556	2357.3718	15099.65	14217.55
963.6868	2358.7852	15020.4	14134.05
963.818	2360.1978	14980	14095.05
963.9492	2361.6098	14959.25	14076
964.0803	2363.021	14905.25	14016.55
964.2114	2364.4315	14855.7	13970.45
964.3425	2365.8413	14813.45	13926.15
964.4736	2367.2504	14750.25	13866.95
964.6046	2368.6587	14720.9	13836.4
964.7356	2370.0664	14642.2	13758.3
964.8666	2371.4733	14641.75	13758.2
964.9975	2372.8795	14570.9	13685.05
965.1284	2374.285	14539	13655.8
965.2593	2375.6899	14432.85	13548.35
965.3901	2377.0939	14385.25	13502.05
965.5209	2378.4973	14350	13467.65
965.6517	2379.9	14313.3	13427.45
965.7825	2381.3019	14265.6	13381.85
965.9132	2382.7032	14230.35	13348.4
966.0439	2384.1037	14191.35	13307.85
966.1745	2385.5035	14140.45	13257.35
966.3051	2386.9027	14063.75	13179.65
966.4357	2388.3011	14068.45	13179.15
966.5663	2389.6987	13980	13096.65
966.6968	2391.0957	13939.55	13055.95
966.8273	2392.492	13900.2	13017.2
966.9578	2393.8876	13815.9	12932.95
967.0882	2395.2824	13784.65	12899.85
967.2186	2396.6765	13727.35	12845.95
967.349	2398.07	13663.7	12779.1
967.4793	2399.4627	13626.55	12743.05
967.6097	2400.8547	13578.15	12692.6
967.7399	2402.246	13521.45	12632.85
967.8702	2403.6366	13441.75	12555.35
968.0004	2405.0265	13411.05	12527.95
968.1306	2406.4156	13357.6	12468.55
968.2607	2407.8041	13294.25	12405.55
968.3909	2409.1918	13254.75	12370.65
968.521	2410.5789	13211.4	12326.95
968.651	2411.9652	13155.7	12270.15
968.781	2413.3508	13114	12231.05
968.911	2414.7358	13054.3	12169.2
969.041	2416.12	12998.8	12115.9
969.1709	2417.5035	12968.9	12083.7
969.3008	2418.8863	12904.1	12019.5
969.4307	2420.2684	12872.7	11987.75
969.5606	2421.6497	12795.25	11910.7
969.6904	2423.0304	12710.45	11828.7
969.8201	2424.4104	12700.7	11814.8
969.9499	2425.7896	12656.95	11766.5
970.0796	2427.1682	12603.3	11718.05
970.2093	2428.546	12610.55	11725.15
970.3389	2429.9232	12549	11663.8
970.4685	2431.2996	12519.8	11636.1
970.5981	2432.6753	12476.05	11593.2
970.7277	2434.0503	12415	11530.45
970.8572	2435.4246	12389	11508.2
970.9867	2436.7982	12352.2	11466.55
971.1161	2438.1711	12334.6	11453.15
971.2456	2439.5433	12296.55	11413.05
971.375	2440.9148	12233.05	11341.4
971.5043	2442.2856	12186.35	11302.85
971.6336	2443.6557	12119.85	11233.6
971.7629	2445.025	12055.35	11173.05
971.8922	2446.3937	12068.1	11183.2
972.0214	2447.7617	12014.75	11130.05
972.1506	2449.1289	11989.3	11107.55
972.2798	2450.4955	11955.65	11067.4
972.4089	2451.8613	11918.4	11036.7
972.538	2453.2265	11895.3	11011.55
972.6671	2454.5909	11848.5	10963.2
972.7961	2455.9546	11786.95	10901.55
972.9251	2457.3177	11766.4	10883.4
973.0541	2458.68	11714.75	10829.5
973.1831	2460.0416	11717.2	10834.05
973.312	2461.4025	11687.4	10800.15
973.4408	2462.7627	11658.35	10762.95
973.5697	2464.1222	11614.6	10731.9
973.6985	2465.4811	11587.55	10702.9
973.8273	2466.8392	11514.1	10630.45
973.956	2468.1966	11517.85	10630.75
974.0847	2469.5533	11517.3	10631.15
974.2134	2470.9093	11463.8	10579.55
974.3421	2472.2645	11382.3	10498.35
974.4707	2473.6191	11363.75	10478.3
974.5993	2474.973	11320.75	10438.65
974.7278	2476.3262	11285.65	10398.7
974.8563	2477.6787	11245.6	10362.15
974.9848	2479.0305	11167	10281.85
975.1132	2480.3816	11160.2	10274.7
975.2417	2481.7319	11100.85	10217.8
975.37	2483.0816	11054.45	10167.9
975.4984	2484.4306	11002.05	10119.3
975.6267	2485.7789	10976.5	10092.85
975.755	2487.1264	10906.85	10021.95
975.8833	2488.4733	10880.65	9996.4
976.0115	2489.8195	10860.1	9968.4
976.1397	2491.165	10809.45	9921.35
976.2678	2492.5097	10772.1	9886.45
976.3959	2493.8538	10755.35	9870.35
976.524	2495.1972	10682.6	9798.25
976.6521	2496.5398	10638.1	9755.1
976.7801	2497.8818	10637.55	9749.35
976.9081	2499.2231	10591.85	9708
977.036	2500.5637	10548.55	9663.05
977.164	2501.9035	10506.15	9622.6
977.2918	2503.2427	10472.95	9584.05
977.4197	2504.5812	10427.1	9542.85
977.5475	2505.919	10422.65	9536.8
977.6753	2507.256	10410.05	9528.05
977.8031	2508.5924	10340.65	9457.8
977.9308	2509.9281	10310.1	9417.8
978.0585	2511.2631	10292.2	9408.2
978.1861	2512.5974	10258.55	9376.35
978.3137	2513.9309	10204.4	9321.5
978.4413	2515.2638	10190.05	9279.45
978.5689	2516.596	10138.15	9255.2
978.6964	2517.9275	10052.05	9165.45
978.8239	2519.2583	10037.55	9152.75
978.9513	2520.5884	9994.45	9107.5
979.0788	2521.9178	9974.9	9089.2
979.2062	2523.2465	9944.8	9059.45
979.3335	2524.5745	9915.4	9031.6
979.4608	2525.9018	9865.6	8981.45
979.5881	2527.2284	9858.05	8973.45
979.7154	2528.5543	9817.7	8933.2
979.8426	2529.8796	9795.65	8911.5
979.9698	2531.2041	9795.1	8911.35
980.0969	2532.5279	9769.55	8886.35
980.224	2533.851	9735.1	8850.9
980.3511	2535.1735	9664.3	8780
980.4781	2536.4952	9680.1	8796.55
980.6052	2537.8163	9650.25	8766.4
980.7321	2539.1366	9618.05	8735.5
980.8591	2540.4562	9576.3	8690.05
980.986	2541.7752	9570.95	8686.55
981.1129	2543.0935	9530.45	8646.1
981.2397	2544.411	9496.9	8612
981.3665	2545.7279	9482	8598.5
981.4933	2547.0441	9481.45	8597.45
981.62	2548.3596	9442.85	8556.3
981.7467	2549.6744	9434.35	8551.35
981.8734	2550.9885	9408.25	8517
982.0001	2552.3019	9338.95	8456.7
982.1267	2553.6146	9340.5	8455.65
982.2532	2554.9266	9310.15	8426.3
982.3798	2556.2379	9270.15	8385.85
982.5063	2557.5485	9273.1	8389.05
982.6327	2558.8585	9214.8	8323.4
982.7592	2560.1677	9225.9	8338.35
982.8856	2561.4762	9210.5	8326
983.0119	2562.7841	9180.45	8293.9
983.1383	2564.0913	9144.9	8263.2
983.2646	2565.3977	9134.1	8249.95
983.3908	2566.7035	9106.75	8222.55
983.517	2568.0086	9083.75	8198.35
983.6432	2569.313	9047.7	8163.45
983.7694	2570.6167	9049.7	8162.1
983.8955	2571.9197	9032	8150.9
984.0216	2573.222	9002.55	8115.9
984.1476	2574.5236	8989.7	8106.05
984.2737	2575.8246	8961.05	8073.1
984.3996	2577.1248	8943.15	8055.65
984.5256	2578.4244	8917.4	8034.6
984.6515	2579.7232	8930.45	8044.45
984.7774	2581.0214	8915.3	8006.4
984.9032	2582.3189	8871.75	7988.85
985.029	2583.6157	8857.8	7969.95
985.1548	2584.9118	8805.55	7922.5
985.2806	2586.2072	8796.95	7913.45
985.4063	2587.5019	8764.3	7879.4
985.5319	2588.7959	8744.5	7860.75
985.6576	2590.0893	8726.55	7840.05
985.7832	2591.3819	8683.45	7800.65
985.9087	2592.6739	8634.25	7752.4
986.0343	2593.9652	8648.4	7763.5
986.1597	2595.2557	8617.05	7735.1
986.2852	2596.5456	8548.4	7664.25
986.4106	2597.8348	8514.85	7631.4
986.536	2599.1234	8495.85	7612.95
986.6614	2600.4112	8478.85	7595.9
986.7867	2601.6983	8450.05	7564.55
986.912	2602.9848	8402.3	7516.6
987.0372	2604.2705	8375.25	7483.55
987.1624	2605.5556	8351.4	7466.85
987.2876	2606.84	8321.75	7436.85
987.4128	2608.1237	8274.25	7389.35
987.5379	2609.4067	8245.55	7362.05
987.6629	2610.689	8220.15	7328.5
987.788	2611.9707	8185.1	7298.65
987.913	2613.2516	8151.15	7262.9
988.0379	2614.5319	8115.7	7233.1
988.1629	2615.8115	8089.35	7206.8
988.2878	2617.0903	8072.3	7185.7
988.4126	2618.3685	8020.4	7136.25
988.5375	2619.6461	7989.85	7104.55
988.6622	2620.9229	7962.1	7078.45
988.787	2622.199	7951.05	7065.85
988.9117	2623.4745	7933.6	7050.6
989.0364	2624.7493	7906.05	7021.95
989.161	2626.0234	7890.25	7007.3
989.2857	2627.2968	7857.85	6973.3
989.4102	2628.5695	7817.25	6930.95
989.5348	2629.8415	7753.9	6869.6
989.6593	2631.1128	7756.15	6869.35
989.7837	2632.3835	7694	6810.45
989.9082	2633.6535	7679.75	6795.25
990.0326	2634.9228	7661.35	6778.65
990.1569	2636.1914	7652.9	6770.05
990.2812	2637.4593	7618.7	6726.1
990.4055	2638.7265	7598.65	6714.3
990.5298	2639.9931	7565.6	6682.3
990.654	2641.259	7537.2	6652.4
990.7782	2642.5242	7506	6620.75
990.9023	2643.7887	7471.3	6585.6
991.0264	2645.0525	7453.3	6569.2
991.1505	2646.3156	7431.3	6545.5
991.2745	2647.5781	7414.35	6529.95
991.3985	2648.8398	7387.9	6505
991.5225	2650.1009	7370.1	6449.35
991.6464	2651.3613	7354.85	6471.55
991.7703	2652.6211	7324.35	6440.05
991.8942	2653.8801	7297	6413.05
992.018	2655.1385	7270.9	6383.7
992.1418	2656.3961	7252.45	6367.1
992.2655	2657.6531	7221.5	6337.4
992.3892	2658.9094	7214	6327.65
992.5129	2660.1651	7207.25	6325.5
992.6366	2661.42	7179.75	6296.3
992.7602	2662.6743	7155.75	6271.8
992.8837	2663.9279	7144.05	6259.85
993.0073	2665.1808	7080.5	6197.05
993.1307	2666.433	7070.1	6183.7
993.2542	2667.6846	7055.15	6171.3
993.3776	2668.9354	7031.15	6142.95
993.501	2670.1856	7035.6	6151.5
993.6244	2671.4351	7017.6	6132.7
993.7477	2672.6839	6977.85	6092.2
993.8709	2673.9321	6956.1	6073.05
993.9942	2675.1795	6940.85	6056.8
994.1174	2676.4263	6897.6	6014.9
994.2405	2677.6724	6906.25	6023.4
994.3637	2678.9179	6868.05	5985.65
994.4868	2680.1626	6844.65	5961.35
994.6098	2681.4067	6828.85	5945.5
994.7328	2682.6501	6816.2	5931.5
994.8558	2683.8928	6787.05	5903.1
994.9788	2685.1348	6743.6	5859.15
995.1017	2686.3761	6735.45	5853.1
995.2245	2687.6168	6724.8	5841.7
995.3474	2688.8568	6706.5	5823.1
995.4702	2690.0961	6660.7	5777.2
995.5929	2691.3348	6651.55	5765.65
995.7156	2692.5727	6631.4	5747.4
995.8383	2693.81	6601.05	5718.15
995.961	2695.0466	6566.35	5683.9
996.0836	2696.2826	6563.95	5677.25
996.2062	2697.5178	6546.25	5661.2
996.3287	2698.7524	6528.5	5643.8
996.4512	2699.9863	6486.05	5600.1
996.5737	2701.2195	6481.95	5598.55
996.6961	2702.452	6481.75	5595.75
996.8185	2703.6839	6445.15	5559.4
996.9408	2704.9151	6445.45	5562.6
997.0631	2706.1456	6394.8	5510.25
997.1854	2707.3755	6365.65	5481.45
997.3077	2708.6046	6362.95	5478.85
997.4299	2709.8331	6338.85	5455
997.552	2711.0609	6296.45	5412.55
997.6742	2712.2881	6289.1	5405.35
997.7963	2713.5145	6271.35	5383.6
997.9183	2714.7403	6260.45	5376.45
998.0403	2715.9654	6223.1	5336.7
998.1623	2717.1899	6215.7	5314.85
998.2842	2718.4136	6202.25	5316.05
998.4062	2719.6367	6174.75	5290
998.528	2720.8591	6158.1	5266.2
998.6498	2722.0809	6128	5243.9
998.7716	2723.3019	6101.05	5213.35
998.8934	2724.5223	6096.4	5212.15
999.0151	2725.7421	6076.7	5192.8
999.1368	2726.9611	6040.2	5153.95
999.2584	2728.1795	6023.65	5134.8
999.38	2729.3972	5984.35	5101.25
999.5016	2730.6142	5971.3	5080.35
999.6231	2731.8306	5932.65	5046.55
999.7446	2733.0462	5910.2	5025.1
999.8661	2734.2612	5880.55	4990.8
999.9875	2735.4756	5841.5	4956.05
1000.1089	2736.6892	5835.5	4951.85
1000.2302	2737.9022	5802.95	4919.8
1000.3515	2739.1145	5781.15	4896.3
1000.4728	2740.3262	5761.55	4872.65
1000.594	2741.5372	5741.4	4860.9
1000.7152	2742.7475	5726.1	4842.15
1000.8363	2743.9571	5694.3	4810.85
1000.9575	2745.1661	5682.55	4792.85
1001.0785	2746.3744	5661.65	4776.25
1001.1996	2747.582	5637.95	4753.95
1001.3206	2748.7889	5626.75	4740.65
1001.4415	2749.9952	5626.65	4743.7
1001.5625	2751.2008	5578.85	4695.2
1001.6833	2752.4057	5589	4704.7
1001.8042	2753.61	5559.15	4673.3
1001.925	2754.8136	5533.45	4646.75
1002.0458	2756.0165	5501.45	4617.85
1002.1665	2757.2188	5489.45	4605.1
1002.2872	2758.4204	5473.6	4589.25
1002.4078	2759.6213	5465.1	4578.15
1002.5285	2760.8215	5438.25	4551.9
1002.649	2762.0211	5408	4522.15
1002.7696	2763.22	5389.7	4503.35
1002.8901	2764.4182	5375.3	4489.55
1003.0106	2765.6158	5373.9	4490.3
1003.131	2766.8127	5357.95	4474.55
1003.2514	2768.009	5316.35	4432.6
1003.3717	2769.2045	5321.9	4439.05
1003.492	2770.3994	5315.4	4431.1
1003.6123	2771.5936	5306.45	4421.9
1003.7325	2772.7872	5269.85	4387.9
1003.8527	2773.9801	5241.45	4354
1003.9729	2775.1723	5234.8	4335.75
1004.093	2776.3639	5191.1	4307.25
1004.2131	2777.5548	5182.55	4295
1004.3331	2778.745	5177.9	4292.5
1004.4531	2779.9346	5139.8	4256.3
1004.5731	2781.1235	5127.55	4241.95
1004.693	2782.3117	5111.9	4228.4
1004.8129	2783.4992	5088.85	4205
1004.9328	2784.6861	5083.25	4198.35
1005.0526	2785.8723	5086.45	4201.05
1005.1723	2787.0579	5041.5	4157.7
1005.2921	2788.2428	5035.6	4151.2
1005.4118	2789.427	5004.3	4118.75
1005.5314	2790.6106	4991.1	4106.1
1005.651	2791.7935	4964.85	4079.4
1005.7706	2792.9757	4969.4	4085.45
1005.8902	2794.1573	4937.85	4050.75
1006.0097	2795.3382	4915.95	4032.05
1006.1291	2796.5184	4890.2	4009.65
1006.2485	2797.698	4876.15	3990.7
1006.3679	2798.8769	4863.55	3979.5
1006.4873	2800.0551	4847.25	3961.45
1006.6066	2801.2327	4855.7	3968.45
1006.7258	2802.4096	4811.05	3926.45
1006.8451	2803.5859	4794.65	3909.05
1006.9642	2804.7615	4777.45	3891.95
1007.0834	2805.9364	4756	3873.5
1007.2025	2807.1106	4766.75	3882.05
1007.3216	2808.2842	4742.45	3857.3
1007.4406	2809.4572	4726.1	3841.9
1007.5596	2810.6294	4732.15	3847.65
1007.6785	2811.801	4725	3840.35
1007.7975	2812.972	4724.6	3839.85
1007.9163	2814.1423	4698.55	3815.1
1008.0352	2815.3119	4693.45	3808.4
1008.154	2816.4808	4695.5	3814.25
1008.2727	2817.6491	4685	3800
1008.3914	2818.8167	4681.1	3798.2
1008.5101	2819.9837	4702.15	3813.6
1008.6288	2821.15	4703.9	3821.25
1008.7474	2822.3157	4722	3838.7
1008.8659	2823.4807	4742.95	3860.45
1008.9844	2824.645	4769.3	3884.55
1009.1029	2825.8086	4788.2	3906.05
1009.2214	2826.9716	4811.35	3928.85
1009.3398	2828.134	4849.15	3964.75
1009.4581	2829.2957	4849.9	3964.35
1009.5764	2830.4567	4876.9	3995.1
1009.6947	2831.617	4880.1	3996.15
1009.813	2832.7767	4891.65	4008.05
1009.9312	2833.9358	4888.1	4003.35
1010.0493	2835.0941	4879.45	3994.5
1010.1675	2836.2519	4840.85	3958.65
1010.2855	2837.4089	4833.7	3949
1010.4036	2838.5653	4813.6	3931.75
1010.5216	2839.7211	4776.45	3893.8
1010.6396	2840.8761	4751.9	3865.9
1010.7575	2842.0306	4727.15	3845.6
1010.8754	2843.1843	4716.45	3831.9
1010.9932	2844.3374	4708.2	3824.15
1011.111	2845.4899	4707.6	3823.3
1011.2288	2846.6417	4704.35	3821.4
1011.3465	2847.7928	4714.55	3832.75
1011.4642	2848.9433	4710.5	3827.95
1011.5818	2850.0931	4684.95	3800.9
1011.6995	2851.2422	4689.45	3805.35
1011.817	2852.3907	4677.1	3790.6
1011.9345	2853.5385	4684.3	3797.65
1012.052	2854.6857	4688.85	3796.75
1012.1695	2855.8323	4651.4	3769.6
1012.2869	2856.9781	4667.7	3782.7
1012.4042	2858.1233	4673.4	3790.25
1012.5216	2859.2679	4660.1	3776
1012.6389	2860.4118	4670.2	3786.1
1012.7561	2861.555	4666.2	3778
1012.8733	2862.6976	4663.7	3778.15
1012.9905	2863.8395	4660.95	3778.05
1013.1076	2864.9808	4672.7	3788.65
1013.2247	2866.1214	4646.45	3763.9
1013.3417	2867.2614	4655.25	3771.5
1013.4587	2868.4007	4642.4	3756.05
1013.5757	2869.5393	4661.85	3776.05
1013.6926	2870.6773	4651.35	3765.35
1013.8095	2871.8146	4629.85	3741.55
1013.9263	2872.9513	4616.1	3729.85
1014.0431	2874.0874	4639.9	3754.85
1014.1599	2875.2227	4622.25	3737.6
1014.2766	2876.3574	4616	3732.4
1014.3933	2877.4915	4616.3	3732
1014.51	2878.6249	4607.8	3726.55
1014.6266	2879.7577	4599.4	3712.25
1014.7431	2880.8898	4608.9	3716.5
1014.8596	2882.0212	4590.6	3707.6
1014.9761	2883.152	4580.45	3696.3
1015.0925	2884.2821	4581.7	3700
1015.2089	2885.4116	4589.75	3703.95
1015.3253	2886.5405	4580.6	3697.85
1015.4416	2887.6686	4582.55	3695.15
1015.5579	2888.7962	4560.5	3678.5
1015.6741	2889.923	4541	3656.35
1015.7903	2891.0493	4534.25	3651.85
1015.9065	2892.1748	4511.45	3626.05
1016.0226	2893.2997	4518.05	3633.25
1016.1387	2894.424	4501.4	3619.15
1016.2547	2895.5476	4471.3	3588.2
1016.3707	2896.6706	4466.95	3585.1
1016.4866	2897.7929	4445.75	3560.25
1016.6025	2898.9145	4441.8	3558.65
1016.7184	2900.0355	4403.05	3517.1
1016.8342	2901.1559	4396.4	3512
1016.95	2902.2756	4389.65	3504.95
1017.0658	2903.3946	4385	3501.85
1017.1815	2904.513	4362.5	3475.9
1017.2971	2905.6308	4339.9	3455.9
1017.4127	2906.7479	4320.85	3435.15
1017.5283	2907.8643	4326.35	3443.55
1017.6439	2908.9801	4289	3405.1
1017.7594	2910.0953	4281.35	3395.8
1017.8748	2911.2098	4280.75	3393.55
1017.9902	2912.3236	4270.95	3380.35
1018.1056	2913.4368	4255.4	3368.2
1018.2209	2914.5494	4239.6	3355.3
1018.3362	2915.6613	4221.35	3331.85
1018.4515	2916.7725	4194.3	3307.55
1018.5667	2917.8831	4171.35	3284.7
1018.6819	2918.9931	4151.35	3265.05
1018.797	2920.1024	4121.2	3234.8
1018.9121	2921.211	4106.75	3222.7
1019.0271	2922.319	4086.35	3201.35
1019.1421	2923.4264	4063.95	3180.05
1019.2571	2924.5331	4048.8	3165.75
1019.372	2925.6391	4037.1	3153.2
1019.4869	2926.7445	4039.8	3156.7
1019.6017	2927.8493	4022.05	3136.6
1019.7165	2928.9534	4031.35	3147.1
1019.8313	2930.0569	4021.85	3133.25
1019.946	2931.1597	3992.6	3107.6
1020.0606	2932.2619	4002.8	3116.3
1020.1753	2933.3634	4017.95	3133.15
1020.2899	2934.4643	4010.45	3119.65
1020.4044	2935.5645	4017.95	3128.35
1020.5189	2936.6641	3997.45	3110.7
1020.6334	2937.763	3995.75	3113.35
1020.7478	2938.8613	3981.2	3096.3
1020.8622	2939.959	3970.6	3083.35
1020.9765	2941.056	3932	3049.05
1021.0908	2942.1523	3902.55	3017.6
1021.2051	2943.248	3861.6	2975.8
1021.3193	2944.3431	3810.95	2926.25
1021.4334	2945.4375	3775	2890.7
1021.5476	2946.5313	3716.6	2832.25
1021.6617	2947.6244	3680.05	2794.7
1021.7757	2948.7169	3635.55	2751.4
1021.8897	2949.8087	3572.25	2688.25
1022.0037	2950.8999	3555.55	2671.1
1022.1176	2951.9904	3509.4	2626.45
1022.2315	2953.0803	3480.65	2594.8
1022.3453	2954.1696	3445.3	2561.45
1022.4591	2955.2582	3421.8	2535.55
1022.5728	2956.3462	3391.4	2508.2
1022.6865	2957.4335	3372.65	2486.4
1022.8002	2958.5202	3355.9	2469.2
1022.9138	2959.6062	3346.5	2461.7
1023.0274	2960.6916	3341.6	2457.7
1023.141	2961.7764	3329.4	2443.55
1023.2545	2962.8605	3338.85	2454.65
1023.3679	2963.9439	3313.15	2430.6
1023.4813	2965.0267	3296.5	2411.95
1023.5947	2966.1089	3304.45	2398.25
1023.708	2967.1905	3273.05	2389.5
1023.8213	2968.2714	3247.4	2363.95
1023.9346	2969.3516	3232	2348.35
1024.0478	2970.4312	3248.35	2357.95
1024.1609	2971.5102	3215.7	2332.6
1024.274	2972.5885	3201.9	2319.1
1024.3871	2973.6662	3209	2322.75
1024.5002	2974.7432	3182.75	2300.4
1024.6132	2975.8196	3179.1	2296.25
1024.7261	2976.8954	3175.15	2292.1
1024.839	2977.9705	3157.9	2274.65
1024.9519	2979.045	3157.7	2274.75
1025.0647	2980.1188	3139.7	2257.4
1025.1775	2981.192	3119.4	2235.9
1025.2902	2982.2645	3111.75	2226.2
1025.4029	2983.3364	3110.8	2227
1025.5156	2984.4077	3081.25	2198.65
1025.6282	2985.4783	3078.25	2189.4
1025.7407	2986.5483	3051.1	2169.25
1025.8532	2987.6177	3032.75	2149.35
1025.9657	2988.6864	3017.35	2132.75
1026.0782	2989.7545	3005.75	2121.7
1026.1906	2990.8219	2984.9	2100.75
1026.3029	2991.8887	2971.8	2084.25
1026.4152	2992.9548	2950.5	2064.4
1026.5275	2994.0204	2926.75	2042.35
1026.6397	2995.0852	2911.4	2029.4
1026.7519	2996.1495	2890.4	2004.35
1026.864	2997.2131	2865.75	1980.3
1026.9761	2998.276	2847.8	1965.5
1027.0882	2999.3383	2827.1	1942.35
1027.2002	3000.4	2809.6	1924.3
1027.3122	3001.4611	2788.75	1902.5
1027.4241	3002.5215	2776.55	1893.6
1027.536	3003.5812	2764.95	1881.85
1027.6478	3004.6404	2750.05	1866.35
1027.7596	3005.6989	2739.65	1851.15
1027.8714	3006.7567	2734.15	1850.25
1027.9831	3007.8139	2733	1825.25
1028.0947	3008.8705	2709.3	1826.15
1028.2064	3009.9264	2692.35	1804.3
1028.3179	3010.9818	2686.75	1802.35
1028.4295	3012.0364	2669.15	1785.05
1028.541	3013.0905	2658.95	1775.55
1028.6524	3014.1439	2662.25	1778.1
1028.7638	3015.1966	2650.85	1768.45
1028.8752	3016.2487	2635.05	1751.45
1028.9865	3017.3002	2637.6	1748.9
1029.0978	3018.3511	2619.8	1736.45
1029.209	3019.4013	2613.85	1729.9
1029.3202	3020.4509	2608.6	1725.55
1029.4314	3021.4998	2595.85	1712.9
1029.5425	3022.5481	2601.9	1717.95
1029.6535	3023.5958	2584.3	1700.5
1029.7645	3024.6428	2576.4	1690.35
1029.8755	3025.6892	2567.85	1684.25
1029.9864	3026.735	2564.85	1681.65
1030.0973	3027.7802	2554.6	1672.8
1030.2082	3028.8247	2543.05	1660.35
1030.319	3029.8685	2526.55	1642.9
1030.4297	3030.9118	2531.15	1647.55
1030.5404	3031.9544	2517.25	1633.45
1030.6511	3032.9963	2512.4	1628.45
1030.7617	3034.0376	2506.25	1621.7
1030.8723	3035.0783	2509.1	1623.25
1030.9829	3036.1184	2493.9	1608.15
1031.0934	3037.1578	2489.35	1606.7
1031.2038	3038.1966	2484.55	1599.65
1031.3142	3039.2348	2470.2	1586.05
1031.4246	3040.2723	2469.35	1577.45
1031.5349	3041.3092	2465.55	1583.3
1031.6452	3042.3455	2452.95	1567.3
1031.7554	3043.3811	2452.1	1567.55
1031.8656	3044.4161	2436.7	1550.4
1031.9758	3045.4505	2432.85	1551.85
1032.0859	3046.4842	2429	1544.35
1032.1959	3047.5173	2428.65	1545.8
1032.3059	3048.5498	2417.25	1533.55
1032.4159	3049.5816	2420.75	1538.05
1032.5258	3050.6128	2423.7	1539.15
1032.6357	3051.6434	2407.75	1523.8
1032.7455	3052.6734	2397.9	1511.35
1032.8553	3053.7027	2408.25	1526.1
1032.9651	3054.7314	2377.05	1492.15
1033.0748	3055.7594	2378.55	1497.15
1033.1845	3056.7868	2378.85	1493.45
1033.2941	3057.8136	2379.15	1496.6
1033.4037	3058.8398	2353.45	1470.9
1033.5132	3059.8653	2355.75	1471.8
1033.6227	3060.8902	2345.35	1462.9
1033.7321	3061.9145	2348.05	1463.9
1033.8415	3062.9381	2340.65	1456.8
1033.9509	3063.9612	2358	1458.6
1034.0602	3064.9835	2336	1451.9
1034.1694	3066.0053	2339.35	1453.2
1034.2787	3067.0264	2332.4	1449.1
1034.3878	3068.0469	2327.55	1443
1034.497	3069.0668	2315.55	1428.7
1034.6061	3070.086	2307.1	1425.35
1034.7151	3071.1046	2303.65	1419.2
1034.8241	3072.1226	2292.7	1407.45
1034.9331	3073.1399	2298.75	1416.65
1035.042	3074.1567	2279.45	1395.45
1035.1508	3075.1727	2273.5	1388.15
1035.2597	3076.1882	2261.4	1376.6
1035.3684	3077.203	2257.05	1372.15
1035.4772	3078.2173	2256.25	1369.7
1035.5859	3079.2308	2255.7	1369.9
1035.6945	3080.2438	2239.05	1352.9
1035.8031	3081.2561	2220.3	1335.35
1035.9117	3082.2678	2209.5	1324.4
1036.0202	3083.2789	2209.2	1326.3
1036.1286	3084.2893	2208.35	1324.1
1036.2371	3085.2991	2194.55	1309.45
1036.3454	3086.3083	2205.3	1316.3
1036.4538	3087.3169	2178.05	1292.35
1036.562	3088.3248	2182.85	1298.65
1036.6703	3089.3321	2161.15	1274.4
1036.7785	3090.3388	2156.8	1272.1
1036.8866	3091.3449	2159.2	1275.25
1036.9948	3092.3503	2147.65	1262.55
1037.1028	3093.3551	2138.5	1256.45
1037.2108	3094.3593	2141.3	1258.35
1037.3188	3095.3629	2133.65	1250.2
1037.4267	3096.3658	2134.1	1250.45
1037.5346	3097.3681	2124.95	1241.85
1037.6425	3098.3698	2119.05	1233.15
1037.7503	3099.3708	2123.85	1233.85
1037.858	3100.3713	2095.95	1213.25
1037.9657	3101.3711	2091.6	1206.3
1038.0734	3102.3702	2204.45	1181
1038.181	3103.3688	2100.6	1216.55
1038.2886	3104.3667	2069.7	1186.55
1038.3961	3105.364	2062.55	1178.65
1038.5036	3106.3607	2057.3	1171.9
1038.611	3107.3568	2049	1165.65
1038.7184	3108.3522	2031.55	1150
1038.8257	3109.347	2032.8	1147.7
1038.933	3110.3412	2035.15	1146.95
1039.0403	3111.3348	2023.75	1140.95
1039.1475	3112.3277	2006.5	1122.1
1039.2547	3113.32	2008	1125.6
1039.3618	3114.3117	1995.2	1111.8
1039.4689	3115.3028	1980.85	1094.35
1039.5759	3116.2932	1987.65	1102.9
1039.6829	3117.2831	1976.3	1087
1039.7898	3118.2723	1970.35	1087.1
1039.8967	3119.2608	1945.7	1063.4
1040.0035	3120.2488	1949.85	1064.7
1040.1103	3121.2361	1935.7	1052.4
1040.2171	3122.2229	1949.15	1065.25
1040.3238	3123.209	1938.4	1052.75
1040.4305	3124.1944	1937.2	1055.05
1040.5371	3125.1793	1929.35	1042.15
1040.6437	3126.1635	1925.05	1041
1040.7502	3127.1471	1914.3	1031.55
1040.8567	3128.1301	1903.8	1020.5
1040.9631	3129.1125	1911.05	1028.3
1041.0695	3130.0942	1893.4	1009
1041.1759	3131.0753	1906.9	1015.85
1041.2822	3132.0558	1896.95	1008.75
1041.3884	3133.0357	1895.45	1011.65
1041.4946	3134.015	1891.6	1007.5
1041.6008	3134.9936	1881.3	998.35
1041.7069	3135.9716	1901.7	997.7
1041.813	3136.949	1868.1	986.65
1041.919	3137.9258	1867.65	977.9
1042.025	3138.902	1867.9	980.15
1042.1309	3139.8775	1862.55	979.5
1042.2368	3140.8524	1858.4	972.95
1042.3427	3141.8267	1862.15	977.1
1042.4485	3142.8004	1849.1	964.55
1042.5542	3143.7735	1845.55	956.9
1042.6599	3144.7459	1843.1	958.55
1042.7656	3145.7178	1831.3	944.7
1042.8712	3146.689	1824.85	942.85
1042.9768	3147.6596	1827.05	942.2
1043.0823	3148.6295	1812.1	927.35
1043.1878	3149.5989	1810.9	925.55
1043.2932	3150.5676	1813.05	928.15
1043.3986	3151.5357	1803.3	923.4
1043.5039	3152.5032	1795	912.7
1043.6092	3153.4701	1788.1	905.7
1043.7145	3154.4364	1787.45	902.35
1043.8197	3155.402	1777.7	894.8
1043.9248	3156.367	1782.5	898.3
1044.03	3157.3315	1804.3	882.55
1044.135	3158.2952	1767.3	882.4
1044.24	3159.2584	1768.7	885.35
1044.345	3160.221	1756.6	872.75
1044.4499	3161.1829	1747.95	863.15
1044.5548	3162.1442	1745	859.75
1044.6596	3163.105	1744.5	860.95
1044.7644	3164.065	1739.15	855.6
1044.8692	3165.0245	1736.4	849.05
1044.9739	3165.9834	1727.5	845.05
1045.0785	3166.9416	1721.65	838.5
1045.1831	3167.8993	1715.8	830.8
1045.2877	3168.8563	1708	823.2
1045.3922	3169.8127	1708.1	824.6
1045.4966	3170.7684	1698.25	814.8
1045.6011	3171.7236	1701.6	815.85
1045.7054	3172.6782	1694.2	810.5
1045.8098	3173.6321	1690.95	805.35
1045.914	3174.5854	1692	805.1
1046.0183	3175.5381	1682.55	798.8
1046.1224	3176.4902	1670.7	788.55
1046.2266	3177.4417	1674.5	790.5
1046.3307	3178.3926	1666.3	783.6
1046.4347	3179.3428	1665.9	782.3
1046.5387	3180.2924	1659.05	775.35
1046.6427	3181.2415	1657.5	772.85
1046.7466	3182.1899	1652.7	768.3
1046.8504	3183.1377	1643.9	758.95
1046.9542	3184.0848	1651.3	764.5
1047.058	3185.0314	1637	752.3
1047.1617	3185.9773	1637.65	754.3
1047.2654	3186.9227	1625	740.5
1047.369	3187.8674	1635.95	752.45
1047.4726	3188.8115	1625	737.45
1047.5761	3189.755	1619.5	733.35
1047.6796	3190.6979	1621.25	737.65
1047.783	3191.6402	1613.85	729.35
1047.8864	3192.5818	1611.35	728.3
1047.9898	3193.5229	1612.4	721.4
1048.0931	3194.4633	1601.7	717.95
1048.1963	3195.4031	1602.7	717.8
1048.2995	3196.3423	1605.65	721.8
1048.4027	3197.2809	1596.5	712.45
1048.5058	3198.2189	1587.9	704.25
1048.6089	3199.1563	1589.25	697.25
1048.7119	3200.0931	1578.8	697.55
1048.8148	3201.0292	1581.7	698.1
1048.9178	3201.9648	1573.3	690.15
1049.0206	3202.8997	1571.4	685.95
1049.1235	3203.834	1561.2	676.9
1049.2262	3204.7677	1550.95	666.6
1049.329	3205.7008	1555.55	670.5
1049.4317	3206.6333	1546.85	665.6
1049.5343	3207.5652	1553.95	667.65
1049.6369	3208.4964	1543.75	658.65
1049.7394	3209.4271	1543.75	662.3
1049.8419	3210.3571	1536.15	652.85
1049.9444	3211.2865	1540.45	654.35
1050.0468	3212.2154	1533.85	649.4
1050.1491	3213.1436	1535	647.05
1050.2514	3214.0712	1528.5	637.8
1050.3537	3214.9982	1521.85	638.35
1050.4559	3215.9246	1523.6	639.25
1050.5581	3216.8503	1522.8	641
1050.6602	3217.7755	1516.1	631.8
1050.7623	3218.7001	1511.05	627
1050.8643	3219.624	1507	622.75
1050.9663	3220.5473	1511.25	627.3
1051.0682	3221.4701	1501.4	615.8
1051.1701	3222.3922	1498.6	614.65
1051.2719	3223.3137	1494.7	611.4
1051.3737	3224.2346	1489.85	605.5
1051.4754	3225.1549	1490	606.5
1051.5771	3226.0746	1484.35	602.05
1051.6788	3226.9937	1479.95	595.55
1051.7804	3227.9121	1474.8	593.3
1051.8819	3228.83	1468.3	583.75
1051.9834	3229.7473	1464.4	581.55
1052.0849	3230.6639	1466.9	581.55
1052.1863	3231.5799	1461.45	577.8
1052.2876	3232.4954	1458.55	572.2
1052.3889	3233.4102	1452.3	568.05
1052.4902	3234.3244	1454.35	569.7
1052.5914	3235.238	1457.9	574.7
1052.6926	3236.151	1476.6	569.05
1052.7937	3237.0634	1439.05	555.25
1052.8948	3237.9752	1437.9	552.85
1052.9958	3238.8864	1439.65	555.8
1053.0968	3239.797	1434.9	553.35
1053.1977	3240.7069	1426.85	542.7
1053.2986	3241.6163	1432.35	546.75
1053.3994	3242.5251	1426.05	542.7
1053.5002	3243.4332	1418.25	533.45
1053.6009	3244.3408	1415.2	531.15
1053.7016	3245.2477	1416.6	532.75
1053.8022	3246.154	1408.35	524.5
1053.9028	3247.0598	1413.2	529.6
1054.0034	3247.9649	1408.1	523.85
1054.1039	3248.8694	1395.3	510.4
1054.2043	3249.7733	1397.2	513.2
1054.3047	3250.6766	1402.15	518.6
1054.4051	3251.5793	1388.9	502.65
1054.5054	3252.4814	1386.9	502.6
1054.6056	3253.3829	1383.55	501.9
1054.7058	3254.2838	1379.7	495.4
1054.806	3255.1841	1386	502.2
1054.9061	3256.0838	1379.15	494.8
1055.0061	3256.9829	1373.35	488.9
1055.1062	3257.8814	1366.95	482.1
1055.2061	3258.7792	1360.95	473.75
1055.306	3259.6765	1359.9	475
1055.4059	3260.5731	1352.85	468.65
1055.5057	3261.4692	1345.9	459.75
1055.6055	3262.3647	1341.6	457
1055.7052	3263.2595	1331.1	448.35
1055.8049	3264.1538	1331.15	448.6
1055.9045	3265.0474	1321.15	436.5
1056.0041	3265.9404	1309.05	424.5
1056.1036	3266.8329	1305.3	422.55
1056.2031	3267.7247	1300.65	407.25
1056.3025	3268.616	1286.25	404.15
1056.4019	3269.5066	1277.45	393.4
1056.5013	3270.3966	1270.65	385
1056.6005	3271.286	1256.5	376.25
