Software Version:	3.9.2.0
Unit SN:	10000200
Spectrometer SN:	6960
Date:	3/6/2024 9:55:41 AM
Data Line Index:	25
Spectral Points:	2048
Integration time (ms):	125
Averages:	20
Delay (ms):	30
Sequence Number:	1
Processing:	dark subtract
Laser Power (mW):	305
Laser Current (mA):	826
Laser Diode Temp (C):	25.1
Laser Case Temp (C):	24.5
System Temp (C):	24.3
Spectrometer Temp (C):	22
CCD Temp (C):	-0.003
Secondary Temp (C):	20.003
Heatsink Temp (C):	18.232
CCDPCB Temp (C):	30.638
SecondaryPCB Temp (C):	26.325

Wavelength	RamanShift	Raw Counts	Dark Subtracted
787.061	30.1047	613.65	207.35
787.2016	32.3739	611.6	205.5
787.3422	34.6426	628.55	222.9
787.4828	36.9109	647	237.95
787.6235	39.1787	662.5	251.15
787.7642	41.4461	684.65	266.9
787.9049	43.7131	703.7	282.8
788.0456	45.9796	715.5	293.45
788.1863	48.2456	735.85	309.4
788.3271	50.5112	761.25	330.2
788.4679	52.7764	788.35	352.55
788.6087	55.0411	810.9	371.9
788.7496	57.3054	839.65	396.2
788.8904	59.5692	864.55	419.9
789.0313	61.8326	885.8	439.6
789.1722	64.0955	924.55	474.35
789.3132	66.3579	960.85	505.15
789.4541	68.6199	1015.6	555.95
789.5951	70.8815	1103.05	640.8
789.7361	73.1426	1293.5	825.4
789.8771	75.4032	1764.1	1294.15
790.0181	77.6634	2946.95	2471.95
790.1592	79.9231	5874.95	5394.95
790.3003	82.1824	12396	11909.15
790.4414	84.4412	25832.95	25333.15
790.5825	86.6995	44178.6	43663.7
790.7237	88.9574	53314.15	52786.65
790.8648	91.2148	57562.1	57026.9
791.006	93.4717	58732.7	58187.55
791.1472	95.7282	59270.4	58716.8
791.2885	97.9842	59506.6	58954.7
791.4297	100.2398	59560.85	59006.45
791.571	102.4949	59549.5	58992.3
791.7123	104.7495	59622.2	59059.1
791.8536	107.0036	59506.95	58943.55
791.9949	109.2573	59722.8	59161.85
792.1363	111.5105	59546.15	58984.35
792.2777	113.7632	59635	59068.75
792.4191	116.0154	59733.1	59159.2
792.5605	118.2672	59907.5	59334.95
792.7019	120.5185	59894.7	59323.95
792.8434	122.7693	59925.75	59353.45
792.9849	125.0197	59772.05	59193.3
793.1264	127.2696	60179.55	59595.6
793.2679	129.519	60133.7	59545.8
793.4094	131.7679	60325.25	59735.1
793.551	134.0163	59954.4	59361.7
793.6926	136.2642	60136.1	59540.3
793.8342	138.5117	60378.75	59773.6
793.9758	140.7587	60274.45	59674.15
794.1175	143.0052	60304.45	59702.45
794.2591	145.2512	60112.25	59509.85
794.4008	147.4967	60370.9	59766.25
794.5425	149.7417	60312.5	59706.75
794.6842	151.9863	60322.5	59714.35
794.826	154.2304	60210.35	59592.35
794.9677	156.4739	60313.3	59692
795.1095	158.717	60451.5	59829.65
795.2513	160.9596	60377.15	59749.6
795.3931	163.2017	60201.2	59572.95
795.535	165.4433	60405.15	59775.65
795.6768	167.6844	60297.25	59666.1
795.8187	169.925	60412.3	59777.75
795.9606	172.1651	60305.35	59665.8
796.1025	174.4047	60379.75	59737.8
796.2445	176.6439	60390.65	59746.25
796.3864	178.8825	60349.3	59703
796.5284	181.1206	60543.75	59891.5
796.6704	183.3582	60517.65	59861.55
796.8124	185.5954	60422.05	59763.75
796.9544	187.832	60478.9	59816.95
797.0965	190.0681	60356.1	59692.95
797.2386	192.3037	60607.8	59940.6
797.3806	194.5388	60813.95	60141.75
797.5228	196.7734	60328.35	59658.05
797.6649	199.0075	60772.85	60100.3
797.807	201.2411	60659.95	59985.65
797.9492	203.4742	60901.25	60226.5
798.0914	205.7068	60874.7	60193.15
798.2336	207.9389	60882.9	60200.8
798.3758	210.1704	60830.9	60153.35
798.518	212.4015	60988.15	60318.85
798.6603	214.632	60818.55	60158.1
798.8025	216.862	61038.7	60378.8
798.9448	219.0915	60962.9	60300.8
799.0871	221.3205	60936.5	60272
799.2294	223.549	61129	60470.3
799.3718	225.777	61096.35	60437.85
799.5141	228.0044	61186.65	60520.25
799.6565	230.2314	61143.6	60477.2
799.7989	232.4578	61164.45	60489.95
799.9413	234.6837	61202.1	60520.65
800.0837	236.909	61518.85	60831.95
800.2262	239.1339	61083.35	60376.2
800.3687	241.3582	61279.05	60586.75
800.5111	243.582	61291.5	60568.45
800.6536	245.8053	61294.9	60586.9
800.7961	248.0281	61331.95	60628.4
800.9387	250.2503	61400.25	60691
801.0812	252.472	61287.8	60577.2
801.2238	254.6932	61374.9	60665.5
801.3664	256.9139	61314.95	60603.15
801.509	259.134	61609.6	60891.85
801.6516	261.3536	61273.15	60557.05
801.7942	263.5727	61492.75	60775.7
801.9369	265.7912	61392.6	60676.75
802.0795	268.0092	61413.5	60698.9
802.2222	270.2267	61447.05	60731.85
802.3649	272.4436	61352.8	60635.1
802.5076	274.6601	61507.2	60773.9
802.6504	276.8759	61556.35	60828.6
802.7931	279.0913	61496.55	60768.6
802.9359	281.3061	61537.85	60810.25
803.0787	283.5204	61535.1	60803.75
803.2215	285.7341	61541.85	60806.6
803.3643	287.9473	61697.85	60955.45
803.5071	290.16	61562.7	60827.8
803.6499	292.3721	61668.75	60939.5
803.7928	294.5837	61526.8	60792
803.9357	296.7947	61429.55	60697.7
804.0786	299.0052	61642.5	60908.35
804.2215	301.2152	61555.55	60821.05
804.3644	303.4246	61663.9	60932.65
804.5074	305.6334	61682	60948.7
804.6503	307.8418	61522.45	60785.4
804.7933	310.0495	61535.5	60795.55
804.9363	312.2568	61518.5	60777.25
805.0793	314.4635	61457.55	60714.35
805.2223	316.6696	61529.9	60783.05
805.3653	318.8752	61630.8	60875.05
805.5084	321.0802	61316.35	60569.1
805.6514	323.2847	61457.15	60709.85
805.7945	325.4887	61446.65	60698.85
805.9376	327.692	61377.45	60626.7
806.0807	329.8949	61490.05	60734.9
806.2238	332.0972	61422.5	60665
806.367	334.2989	61481.75	60724.75
806.5101	336.5001	61549.4	60790.9
806.6533	338.7007	61341.25	60583.7
806.7965	340.9008	61478.9	60722
806.9397	343.1003	61484.4	60719.55
807.0829	345.2992	61576.3	60814.1
807.2261	347.4976	61434.6	60670.65
807.3693	349.6955	61513.25	60746.2
807.5126	351.8927	61424.45	60652.7
807.6559	354.0895	61514.6	60734.75
807.7991	356.2856	61497.55	60729.5
807.9424	358.4812	61591.7	60818.95
808.0857	360.6763	61413.4	60640
808.2291	362.8707	61566.25	60791.3
808.3724	365.0646	61458.25	60679.25
808.5158	367.258	61459.9	60683.65
808.6591	369.4508	61355.95	60573.3
808.8025	371.643	61564.2	60780.2
808.9459	373.8346	61473.5	60694
809.0893	376.0257	61472.3	60681.95
809.2327	378.2162	61421.35	60634.85
809.3762	380.4062	61301.6	60515.15
809.5196	382.5956	61403.2	60615.75
809.6631	384.7844	61415.35	60635.3
809.8066	386.9726	61438.75	60656.95
809.9501	389.1603	61423.2	60649.05
810.0936	391.3474	61315.45	60504.65
810.2371	393.5339	61408.4	60627.8
810.3806	395.7199	61232.2	60454.45
810.5241	397.9052	61250.1	60468.6
810.6677	400.09	61293.45	60511.5
810.8113	402.2743	61420.8	60637.4
810.9548	404.4579	61297.95	60514.45
811.0984	406.641	61298.7	60514.6
811.2421	408.8235	61362.95	60577.55
811.3857	411.0054	61347.5	60559.45
811.5293	413.1868	61375.45	60582.3
811.673	415.3675	61306.35	60510.7
811.8166	417.5477	61332.45	60536.25
811.9603	419.7273	61332.75	60531.8
812.104	421.9064	61292.35	60484.55
812.2477	424.0848	61305.1	60506
812.3914	426.2627	61357.5	60558.1
812.5351	428.4399	61212.45	60412.1
812.6788	430.6166	61089.15	60280.1
812.8226	432.7928	61210	60400.2
812.9663	434.9683	61077.7	60272.5
813.1101	437.1432	61065.8	60258.2
813.2539	439.3176	61138.85	60334.1
813.3977	441.4914	60938.75	60136.65
813.5415	443.6645	61008.05	60205.25
813.6853	445.8371	60972.45	60165.55
813.8291	448.0091	60868.25	60059.2
813.973	450.1806	60843.45	60035.7
814.1168	452.3514	60863.65	60054.15
814.2607	454.5216	60781.65	59963.15
814.4046	456.6913	60800.55	59991.65
814.5485	458.8603	60858.8	60047.45
814.6924	461.0288	60754.8	59947.7
814.8363	463.1967	60810.05	60002.65
814.9802	465.3639	60831.85	60021.65
815.1241	467.5306	60630	59817.3
815.2681	469.6967	60698.8	59890.25
815.412	471.8622	60748.4	59937.45
815.556	474.0271	60671.8	59861.5
815.7	476.1914	60682.75	59864.75
815.844	478.3551	60673.1	59859
815.988	480.5182	60805.85	59992.15
816.132	482.6807	60644.4	59831.45
816.276	484.8426	60675	59867.2
816.4201	487.0039	60810.1	59998.2
816.5641	489.1647	60794.55	59979.9
816.7082	491.3248	60657.15	59840.15
816.8522	493.4843	60811.2	59994.9
816.9963	495.6432	60825.5	60009.5
817.1404	497.8015	60635.1	59812.2
817.2845	499.9592	60732.05	59908.9
817.4286	502.1163	60711.9	59887.5
817.5727	504.2728	60660.3	59834.85
817.7168	506.4287	60686.5	59871.6
817.861	508.5839	60572	59753.3
818.0051	510.7386	60656.55	59839.75
818.1493	512.8927	60674.65	59847.3
818.2935	515.0461	60632.6	59807
818.4377	517.199	60722.45	59895.35
818.5818	519.3512	60632.6	59803.9
818.726	521.5029	60588.4	59756.25
818.8703	523.6539	60636.2	59808.2
819.0145	525.8043	60504.95	59677.5
819.1587	527.9541	60626.65	59795.35
819.303	530.1033	60595.05	59764.55
819.4472	532.2519	60513.25	59683.3
819.5915	534.3999	60612.3	59779.85
819.7357	536.5472	60632.8	59803
819.88	538.694	60475.8	59648.7
820.0243	540.8401	60551.25	59718.6
820.1686	542.9856	60556.4	59719.5
820.3129	545.1305	60582.7	59744.25
820.4572	547.2748	60505.4	59665.45
820.6016	549.4185	60498.7	59655.95
820.7459	551.5615	60560.65	59722.55
820.8902	553.704	60552.55	59712.5
821.0346	555.8458	60467.4	59633.25
821.1789	557.987	60473.7	59640.1
821.3233	560.1276	60495.8	59661.25
821.4677	562.2675	60478.5	59640.9
821.6121	564.4069	60472.3	59631.2
821.7565	566.5456	60528.4	59692.8
821.9009	568.6837	60415.35	59577.7
822.0453	570.8212	60463.7	59626.05
822.1897	572.958	60302.25	59462.7
822.3342	575.0942	60408.2	59570.55
822.4786	577.2299	60264.7	59427.65
822.6231	579.3648	60237.3	59404.35
822.7675	581.4992	60165.65	59334.65
822.912	583.6329	60142.05	59310.2
823.0565	585.766	60125	59291.3
823.201	587.8985	60120.8	59286.5
823.3454	590.0304	59941.7	59088.7
823.4899	592.1616	60048.6	59204.75
823.6345	594.2922	59958.85	59114.35
823.779	596.4222	59884	59037.8
823.9235	598.5515	59874.7	59026.9
824.068	600.6802	59932.95	59086.8
824.2126	602.8083	59753.95	58907.8
824.3571	604.9358	59757.3	58909.9
824.5017	607.0626	59874.2	59024.8
824.6462	609.1888	59692.1	58841.2
824.7908	611.3144	59794.6	58944.85
824.9354	613.4393	59711.4	58857.9
825.08	615.5636	59654.5	58804.3
825.2246	617.6873	59729.1	58879
825.3692	619.8103	59620.2	58768.1
825.5138	621.9327	59694.3	58842.9
825.6584	624.0544	59693.85	58844.05
825.803	626.1756	59612.85	58763.65
825.9477	628.2961	59608.1	58755.65
826.0923	630.4159	59517.2	58665.3
826.237	632.5351	59518.95	58666.35
826.3816	634.6537	59708.95	58855.85
826.5263	636.7716	59426.2	58567.85
826.6709	638.8889	59522.45	58665.8
826.8156	641.0056	59498.4	58641.3
826.9603	643.1216	59495.45	58636.05
827.105	645.237	59568.8	58710.75
827.2497	647.3518	59421.85	58569.55
827.3944	649.4659	59455.85	58603.5
827.5391	651.5793	59482.4	58631.15
827.6838	653.6922	59474.95	58621.35
827.8285	655.8043	59300.75	58444.25
827.9733	657.9159	59505.2	58647.7
828.118	660.0268	59121.45	58261.5
828.2627	662.137	59303.25	58444.75
828.4075	664.2466	59336.35	58474.95
828.5522	666.3556	59263.2	58405.25
828.697	668.4639	59298.85	58439.05
828.8418	670.5716	59233.3	58378.4
828.9865	672.6786	59267.7	58407.65
829.1313	674.785	59135.5	58272.1
829.2761	676.8907	59127.25	58265.05
829.4209	678.9958	59142.55	58282.95
829.5657	681.1002	59153.15	58289.25
829.7105	683.204	59021.85	58152.6
829.8553	685.3072	58921.1	58059.6
830.0001	687.4097	58960.7	58096.85
830.1449	689.5115	58925.45	58062.4
830.2898	691.6127	59049.2	58184.65
830.4346	693.7132	58898.2	58038.55
830.5794	695.8131	58916.7	58034.85
830.7243	697.9123	58940.6	58075.15
830.8691	700.0109	58975.1	58110
831.014	702.1089	58813.55	57948.95
831.1588	704.2061	58864	57998.65
831.3037	706.3028	58893.4	58027.5
831.4486	708.3987	58882.25	58013.7
831.5935	710.4941	58767.3	57901.55
831.7383	712.5887	58832.65	57963.1
831.8832	714.6827	58753.5	57884.4
832.0281	716.7761	58813.9	57949.15
832.173	718.8688	58817.5	57948.9
832.3179	720.9608	58670.35	57796.75
832.4628	723.0522	58720.15	57844.05
832.6077	725.1429	58597.8	57729
832.7527	727.233	58854.75	57985.05
832.8976	729.3224	58472.7	57600.45
833.0425	731.4112	58588.35	57717.55
833.1874	733.4993	58568.95	57697.65
833.3324	735.5867	58536.95	57664.55
833.4773	737.6735	58462.4	57590.65
833.6222	739.7596	58374.45	57500.35
833.7672	741.845	58348.65	57477.95
833.9122	743.9298	58435.85	57562.35
834.0571	746.014	58293.6	57423.05
834.2021	748.0974	58228.55	57352.95
834.347	750.1802	58330.55	57453.8
834.492	752.2624	58083.15	57208.25
834.637	754.3439	58120.05	57243.9
834.782	756.4247	58127.3	57244.95
834.9269	758.5048	58029.2	57155.65
835.0719	760.5843	58062.1	57186.15
835.2169	762.6631	58031.7	57156.3
835.3619	764.7413	57981.95	57107.2
835.5069	766.8188	57966.45	57089.8
835.6519	768.8956	57981.2	57103.25
835.7969	770.9718	57988.55	57112.75
835.9419	773.0473	57936.45	57058.25
836.0869	775.1221	57834.1	56958.1
836.232	777.1962	57747.95	56867.5
836.377	779.2697	57640.6	56760.05
836.522	781.3426	57713.65	56816.2
836.667	783.4147	57676.9	56797.35
836.8121	785.4862	57616.6	56738.9
836.9571	787.557	57505.9	56627.1
837.1021	789.6271	57598.2	56717.2
837.2472	791.6966	57467.5	56588.5
837.3922	793.7654	57277.2	56400.5
837.5373	795.8335	57333.85	56456.6
837.6823	797.901	57348.85	56469.95
837.8274	799.9678	57225.35	56342.6
837.9724	802.0339	57171.3	56292.45
838.1175	804.0993	57177	56284.6
838.2626	806.1641	57111.3	56232.25
838.4076	808.2282	57043.3	56161.6
838.5527	810.2916	57012.6	56131.05
838.6978	812.3544	57110.65	56231.1
838.8428	814.4164	56902.45	56023.2
838.9879	816.4778	56959.45	56075.55
839.133	818.5385	56873	55990
839.2781	820.5986	56857.35	55974.5
839.4232	822.658	56900.7	56019.1
839.5682	824.7166	56886.95	56005.25
839.7133	826.7747	56786.4	55905.4
839.8584	828.832	56875.65	55992.2
840.0035	830.8886	56883.2	55997
840.1486	832.9446	56866.5	55980.85
840.2937	834.9999	56550.35	55667.65
840.4388	837.0545	56697.8	55811.9
840.5839	839.1085	56726.9	55840.15
840.729	841.1618	56627.95	55740.65
840.8741	843.2143	56422.55	55537.8
841.0192	845.2662	56370.95	55486.25
841.1643	847.3175	56443	55558.5
841.3095	849.368	56226	55339.7
841.4546	851.4179	56380.95	55495
841.5997	853.467	56164	55281.15
841.7448	855.5155	56243.8	55356.05
841.8899	857.5633	56124.55	55240.9
842.0351	859.6105	56026.75	55141.05
842.1802	861.6569	56101.15	55215.05
842.3253	863.7027	55910.35	55023
842.4704	865.7478	56015.6	55128.45
842.6156	867.7922	55897.9	55012.15
842.7607	869.8359	55991.05	55103.9
842.9058	871.8789	55771.5	54881.95
843.0509	873.9212	55875.7	54956.55
843.1961	875.9629	55818.25	54929.55
843.3412	878.0039	55773.3	54886.95
843.4863	880.0441	55722.65	54837.1
843.6315	882.0837	55734.5	54845.85
843.7766	884.1226	55698.4	54810
843.9218	886.1609	55686.95	54797.6
844.0669	888.1984	55643.05	54756.35
844.212	890.2352	55765.7	54878.1
844.3572	892.2714	55592.65	54700.55
844.5023	894.3069	55660.75	54773.6
844.6475	896.3416	55522.25	54632.9
844.7926	898.3757	55520.9	54633.2
844.9377	900.4091	55289.9	54397.35
845.0829	902.4418	55563.75	54669.75
845.228	904.4739	55320.5	54430.65
845.3732	906.5052	55354	54461.5
845.5183	908.5358	55228.8	54337.65
845.6635	910.5658	55153.65	54258
845.8086	912.595	55173	54279.9
845.9538	914.6236	54883.4	53993.65
846.0989	916.6515	55236.8	54346.95
846.2441	918.6786	54821.75	53930.55
846.3892	920.7051	54894.3	54003.3
846.5344	922.7309	54830.65	53939.3
846.6795	924.756	54858.8	53969.6
846.8246	926.7804	54725.45	53833.2
846.9698	928.8041	54395.9	53504.4
847.1149	930.8272	54575.05	53681.3
847.2601	932.8495	54560.25	53666.45
847.4052	934.8711	54357.75	53463.2
847.5504	936.892	54258.1	53367.45
847.6955	938.9123	54283.35	53386.1
847.8407	940.9318	54163.05	53272.1
847.9858	942.9506	54099.65	53205.2
848.131	944.9688	54075.75	53184.55
848.2761	946.9862	53829.55	52938.3
848.4213	949.003	53866.65	52971.6
848.5664	951.019	53589.9	52697.2
848.7115	953.0344	53622.8	52731.6
848.8567	955.0491	53523.8	52628.3
849.0018	957.063	53598.15	52704.6
849.147	959.0763	53684	52788.75
849.2921	961.0888	53429.05	52534.9
849.4373	963.1007	53544.25	52650.35
849.5824	965.1119	53528.15	52639.3
849.7275	967.1223	53356.2	52470.15
849.8727	969.1321	53480.2	52590.9
850.0178	971.1412	53259.6	52368.8
850.1629	973.1495	53153.05	52260.45
850.3081	975.1572	53234	52311.1
850.4532	977.1641	53149.5	52257.05
850.5983	979.1704	53041.7	52146.1
850.7435	981.1759	53051.3	52155.15
850.8886	983.1808	52824.45	51926.65
851.0337	985.1849	52828.9	51924.6
851.1788	987.1884	52881.35	51984.1
851.324	989.1911	52919.5	52024.5
851.4691	991.1932	52472.1	51577.15
851.6142	993.1945	52518.85	51622.2
851.7593	995.1951	52550.85	51657.25
851.9045	997.1951	52334.6	51434.85
852.0496	999.1943	52243.5	51347.95
852.1947	1001.1928	52096.6	51199.6
852.3398	1003.1906	52096.55	51201.5
852.4849	1005.1877	51804.95	50906.9
852.63	1007.1841	51697.9	50805.05
852.7751	1009.1798	51698.35	50803.3
852.9202	1011.1748	51643.35	50749
853.0653	1013.1691	51606.15	50712.95
853.2104	1015.1627	50898.05	50001.05
853.3555	1017.1556	51139.3	50246.45
853.5006	1019.1477	51217.45	50320.25
853.6457	1021.1392	50836.25	49945.45
853.7908	1023.1299	50383.8	49494.4
853.9359	1025.12	50629.5	49740.2
854.081	1027.1093	50311.1	49426.3
854.2261	1029.0979	50305.75	49420.4
854.3712	1031.0859	50181.7	49295.85
854.5163	1033.0731	49902.15	49011.1
854.6613	1035.0596	49952.7	49061.75
854.8064	1037.0454	49813	48918.3
854.9515	1039.0304	49662.3	48766.4
855.0965	1041.0148	49243	48349.9
855.2416	1042.9985	49277.75	48381.7
855.3867	1044.9814	49533.95	48640.15
855.5317	1046.9636	49067.5	48168.65
855.6768	1048.9452	49068.8	48176.4
855.8219	1050.926	48978.6	48084
855.9669	1052.9061	48936.6	48044.45
856.112	1054.8855	48949.05	48054.4
856.257	1056.8642	48749.75	47856.25
856.4021	1058.8421	48614.2	47715.45
856.5471	1060.8194	48561.15	47665.15
856.6921	1062.7959	48389.9	47493.05
856.8372	1064.7717	48543.9	47645.25
856.9822	1066.7469	48417.45	47517.8
857.1272	1068.7213	48411.05	47512.9
857.2723	1070.695	48298.15	47403.2
857.4173	1072.6679	48021.65	47124.05
857.5623	1074.6402	48185.85	47289.9
857.7073	1076.6117	48038.9	47138.65
857.8523	1078.5826	47963.4	47065
857.9973	1080.5527	47957.5	47057.35
858.1423	1082.5221	47669	46772.45
858.2873	1084.4908	47735.85	46840.25
858.4323	1086.4587	47558.7	46663.8
858.5773	1088.426	47505.5	46607.9
858.7223	1090.3925	47373.95	46472.75
858.8673	1092.3584	47388.95	46493.75
859.0123	1094.3235	47079.8	46184.85
859.1573	1096.2879	47068.95	46173.55
859.3022	1098.2515	47149.15	46253.9
859.4472	1100.2145	47044.6	46147.9
859.5922	1102.1767	46948.3	46048.7
859.7371	1104.1382	47035.15	46138.85
859.8821	1106.099	46925.35	46029.6
860.027	1108.0591	46835.55	45939.65
860.172	1110.0185	46497.45	45598.3
860.3169	1111.9771	46790.65	45892.4
860.4619	1113.9351	46579	45681.2
860.6068	1115.8923	46446	45547.75
860.7517	1117.8488	46250.2	45351.1
860.8967	1119.8045	45998.7	45102.7
861.0416	1121.7596	46090.9	45195.1
861.1865	1123.7139	45797.9	44900.4
861.3314	1125.6675	45816.55	44920.5
861.4763	1127.6204	45729.85	44833.25
861.6212	1129.5726	45473.5	44576.4
861.7661	1131.524	45532.5	44635.65
861.911	1133.4748	45526.8	44629.4
862.0559	1135.4248	45226	44330.35
862.2008	1137.3741	45249.45	44350.1
862.3457	1139.3226	45078.45	44179.2
862.4905	1141.2705	45117.35	44218.2
862.6354	1143.2176	44975.6	44071.05
862.7803	1145.164	44642.2	43742.9
862.9251	1147.1097	44836.9	43938.25
863.07	1149.0546	44706.1	43805.45
863.2148	1150.9989	44754.9	43857.5
863.3597	1152.9424	44420.75	43521.6
863.5045	1154.8852	44589.7	43691.35
863.6493	1156.8272	44302.15	43405.05
863.7942	1158.7686	44647.65	43740.75
863.939	1160.7092	44152.45	43252.75
864.0838	1162.6491	44127.5	43227.55
864.2286	1164.5883	44169.3	43272.9
864.3734	1166.5267	43960.95	43060.9
864.5182	1168.4644	44100.9	43202.8
864.663	1170.4014	44010.5	43108.2
864.8078	1172.3377	44148.4	43252.4
864.9526	1174.2732	44208.75	43312.25
865.0974	1176.2081	44077.4	43182
865.2421	1178.1421	43994.65	43092.6
865.3869	1180.0755	44177.85	43281.75
865.5317	1182.0082	44047.45	43150.9
865.6764	1183.9401	44078.5	43178.95
865.8212	1185.8713	43719.45	42825.05
865.9659	1187.8017	43675.65	42782.4
866.1106	1189.7315	43560.55	42671.45
866.2554	1191.6605	43343.35	42454.3
866.4001	1193.5888	43109.85	42217.85
866.5448	1195.5163	42891.15	41999.5
866.6895	1197.4432	42790.05	41893.25
866.8342	1199.3693	42738.65	41845.4
866.9789	1201.2947	42570.5	41664.95
867.1236	1203.2193	42524.15	41626.7
867.2683	1205.1432	42316.7	41420.2
867.413	1207.0664	42215.95	41317.7
867.5576	1208.9889	42146.65	41246.35
867.7023	1210.9106	42034	41136.25
867.847	1212.8316	41805.9	40910.8
867.9916	1214.7519	41745.7	40842.05
868.1363	1216.6715	41646.15	40751.4
868.2809	1218.5903	41661.3	40766.35
868.4255	1220.5084	41599.45	40702.4
868.5701	1222.4257	41613.3	40714.9
868.7148	1224.3424	41378.6	40483.25
868.8594	1226.2583	41245.6	40347.45
869.004	1228.1735	41318.75	40420.65
869.1486	1230.0879	41080.5	40181.9
869.2932	1232.0016	41121.35	40224.6
869.4377	1233.9146	40964.8	40067.4
869.5823	1235.8269	40927.95	40031
869.7269	1237.7384	40874.4	39973.7
869.8715	1239.6492	40713.6	39819.4
870.016	1241.5592	40582.05	39684.6
870.1606	1243.4686	40601.55	39704.8
870.3051	1245.3772	40420.75	39524.6
870.4496	1247.285	40532.75	39635.25
870.5941	1249.1922	40367.15	39471.05
870.7387	1251.0986	40503.85	39606.4
870.8832	1253.0042	40310.5	39414.65
871.0277	1254.9092	40315.3	39419.95
871.1722	1256.8134	40063.3	39167.75
871.3167	1258.7169	40222.65	39324.1
871.4611	1260.6196	40026.5	39132.4
871.6056	1262.5216	40050.8	39153.4
871.7501	1264.4229	40020.4	39126.8
871.8945	1266.3234	40109.35	39213.7
872.039	1268.2232	40048	39150.9
872.1834	1270.1223	39856.3	38959.5
872.3278	1272.0207	39826.65	38928.45
872.4723	1273.9183	39732.45	38826.95
872.6167	1275.8151	39679.05	38782.8
872.7611	1277.7113	39617.35	38718.4
872.9055	1279.6067	39510.2	38614.75
873.0499	1281.5014	39502	38603.75
873.1943	1283.3953	39667.15	38767
873.3386	1285.2885	39662.85	38765.45
873.483	1287.181	39713.3	38816
873.6274	1289.0727	39837.85	38941.95
873.7717	1290.9637	39643.95	38747.05
873.9161	1292.854	39846.85	38950.7
874.0604	1294.7435	39680.9	38781.4
874.2047	1296.6323	39656.3	38758.45
874.349	1298.5204	39487.4	38584.05
874.4933	1300.4077	39473.85	38575.95
874.6376	1302.2943	39286.7	38390.9
874.7819	1304.1802	39179.5	38281.1
874.9262	1306.0653	38938.05	38039.55
875.0705	1307.9497	38767.05	37869.85
875.2147	1309.8333	38704.55	37806.9
875.359	1311.7162	38586.95	37689.35
875.5032	1313.5984	38487.9	37586.9
875.6475	1315.4798	38313.85	37415.55
875.7917	1317.3605	38227.8	37315.3
875.9359	1319.2405	38229.55	37330.7
876.0801	1321.1197	38052.2	37152.7
876.2243	1322.9982	37891.15	36987.55
876.3685	1324.876	37852.2	36954.85
876.5127	1326.753	37607.8	36709.3
876.6569	1328.6293	37691.95	36792.95
876.801	1330.5048	37544.25	36646.05
876.9452	1332.3796	37374.15	36475.85
877.0893	1334.2537	37346.15	36424.2
877.2335	1336.127	37252	36354.55
877.3776	1337.9996	37117.25	36219.3
877.5217	1339.8714	37149.65	36251.3
877.6658	1341.7426	36962.35	36019.35
877.8099	1343.6129	36946.25	36046.5
877.954	1345.4826	36847.25	35950
878.0981	1347.3515	36799.55	35899.7
878.2422	1349.2196	36754.7	35858.65
878.3862	1351.087	36752.85	35853.85
878.5303	1352.9537	36756.65	35856.15
878.6743	1354.8197	36719.75	35820.9
878.8184	1356.6849	36727.9	35829
878.9624	1358.5493	36630.55	35732.2
879.1064	1360.4131	36569.8	35670.55
879.2504	1362.276	36565.05	35665.55
879.3944	1364.1383	36414.15	35518.55
879.5384	1365.9998	36298.35	35395.9
879.6823	1367.8606	36268.6	35368.85
879.8263	1369.7206	36081.95	35180.65
879.9702	1371.5799	35912.4	35012.9
880.1142	1373.4384	35727.45	34828.4
880.2581	1375.2962	35687.25	34786.9
880.402	1377.1533	35390.2	34492.9
880.5459	1379.0096	35160.6	34263.85
880.6898	1380.8652	35038.95	34142.9
880.8337	1382.7201	34902.65	34005.15
880.9776	1384.5742	34678.15	33780.7
881.1215	1386.4275	34493.35	33593.7
881.2653	1388.2802	34367.95	33469
881.4092	1390.132	34246.3	33347.7
881.553	1391.9832	34163.75	33264.05
881.6968	1393.8336	33983.45	33085.85
881.8406	1395.6832	33880.1	32980.75
881.9844	1397.5322	33760.75	32864.5
882.1282	1399.3803	33653.55	32750.85
882.272	1401.2278	33492.7	32597.75
882.4158	1403.0745	33427.3	32530.9
882.5595	1404.9204	33265.8	32368.35
882.7033	1406.7656	33233.2	32336.85
882.847	1408.6101	33065.05	32167.35
882.9908	1410.4538	32989.95	32091.5
883.1345	1412.2968	32906.05	32007.05
883.2782	1414.139	32785.05	31888.15
883.4219	1415.9805	32746.4	31848.85
883.5656	1417.8213	32649.65	31744.05
883.7092	1419.6613	32590.5	31695
883.8529	1421.5006	32559.9	31663.6
883.9965	1423.3391	32444.35	31548.5
884.1402	1425.1769	32407.7	31509.9
884.2838	1427.0139	32526.25	31630.1
884.4274	1428.8502	32574.15	31674.95
884.571	1430.6858	32600.3	31701.3
884.7146	1432.5206	32526.05	31627.95
884.8582	1434.3547	32541.85	31644.55
885.0018	1436.188	32516.05	31619.5
885.1453	1438.0206	32451.35	31552.1
885.2889	1439.8524	32311.95	31412.85
885.4324	1441.6835	32272.35	31373.2
885.5759	1443.5139	32188.65	31289.6
885.7194	1445.3435	32043.95	31146.55
885.8629	1447.1724	31978.65	31083.2
886.0064	1449.0005	31964.15	31069.9
886.1499	1450.8279	31894.35	30994.4
886.2933	1452.6545	31897.3	31001
886.4368	1454.4804	31911.65	31016.3
886.5802	1456.3056	31797.5	30893.85
886.7237	1458.13	31711.25	30815.15
886.8671	1459.9536	31710	30812.95
887.0105	1461.7766	31539.85	30643.7
887.1539	1463.5987	31348.55	30451.85
887.2972	1465.4202	31298.05	30401.45
887.4406	1467.2409	31105.3	30205.2
887.584	1469.0608	31022	30124.35
887.7273	1470.88	30894.7	29997.8
887.8706	1472.6984	30839.3	29944.35
888.0139	1474.5161	30670.6	29771.4
888.1572	1476.3331	30484	29587.9
888.3005	1478.1493	30549.15	29651.95
888.4438	1479.9648	30432.3	29535
888.5871	1481.7795	30389.9	29494.7
888.7303	1483.5935	30324.1	29428.4
888.8736	1485.4067	30249.7	29354.1
889.0168	1487.2192	30233.6	29336.85
889.16	1489.031	30187.8	29290.4
889.3032	1490.842	30076.3	29180.15
889.4464	1492.6522	30094.1	29198.05
889.5896	1494.4618	30000.75	29102.9
889.7327	1496.2705	29977.4	29082.5
889.8759	1498.0785	29856.3	28960.6
890.019	1499.8858	29786.6	28890.2
890.1622	1501.6924	29696.35	28800.9
890.3053	1503.4981	29683.6	28787.65
890.4484	1505.3032	29603.05	28705.5
890.5914	1507.1075	29536.6	28637.15
890.7345	1508.911	29462.25	28564.85
890.8776	1510.7138	29413.2	28514.2
891.0206	1512.5159	29291.6	28397.55
891.1637	1514.3172	29145.9	28251.5
891.3067	1516.1178	29092.55	28196.7
891.4497	1517.9176	29053.5	28153.95
891.5927	1519.7166	28991	28095.85
891.7357	1521.515	28952.55	28050.3
891.8786	1523.3126	28840.5	27944.35
892.0216	1525.1094	28765.45	27868.2
892.1645	1526.9055	28682.75	27789.9
892.3074	1528.7008	28561.55	27665.1
892.4503	1530.4954	28375.85	27479
892.5932	1532.2893	28359	27465.8
892.7361	1534.0824	28226.7	27325.3
892.879	1535.8747	28181.25	27290.15
893.0218	1537.6663	28100.7	27208.9
893.1647	1539.4572	28058.45	27163.4
893.3075	1541.2473	27972.65	27077.75
893.4503	1543.0367	27883.4	26989.3
893.5931	1544.8253	27772.35	26874.25
893.7359	1546.6132	27763.5	26866.2
893.8787	1548.4003	27648.65	26744.9
894.0214	1550.1867	27618.2	26714.95
894.1642	1551.9723	27541.7	26646
894.3069	1553.7572	27490.25	26597.05
894.4496	1555.5414	27472	26580.35
894.5923	1557.3247	27419.35	26527.2
894.735	1559.1074	27367	26477.6
894.8777	1560.8893	27307.9	26415.1
895.0204	1562.6705	27254.85	26363.2
895.163	1564.4509	27215.75	26323.55
895.3056	1566.2305	27155.75	26266.8
895.4482	1568.0094	27216.1	26327.25
895.5908	1569.7876	27161.75	26270.75
895.7334	1571.565	27116.3	26222.9
895.876	1573.3417	27019.25	26128.45
896.0186	1575.1176	26988.4	26098.15
896.1611	1576.8928	26867.9	25976.85
896.3036	1578.6672	26794.55	25906.65
896.4461	1580.4409	26714.15	25828.55
896.5886	1582.2138	26624.9	25735.35
896.7311	1583.986	26571.6	25681.85
896.8736	1585.7575	26550.7	25661.25
897.0161	1587.5282	26519.9	25631.4
897.1585	1589.2981	26478.35	25590
897.3009	1591.0673	26428.15	25540.6
897.4433	1592.8358	26445.35	25558.45
897.5857	1594.6035	26398.85	25508.8
897.7281	1596.3704	26268.6	25380.75
897.8705	1598.1366	26254.35	25364.85
898.0128	1599.9021	26188.1	25299.75
898.1551	1601.6668	26067.3	25178.2
898.2975	1603.4308	26000.75	25111.6
898.4398	1605.194	26003.95	25112.7
898.5821	1606.9564	25988.75	25101.95
898.7243	1608.7182	25996.05	25108.45
898.8666	1610.4791	26016.55	25133.65
899.0088	1612.2394	25998.6	25114.4
899.1511	1613.9988	26002.85	25118.65
899.2933	1615.7576	26026.6	25141.8
899.4355	1617.5156	26047.85	25153.1
899.5776	1619.2728	26011.9	25121.85
899.7198	1621.0293	25939.2	25050.65
899.862	1622.785	25831.3	24944.15
900.0041	1624.54	25635.45	24746.75
900.1462	1626.2942	25487.25	24599.2
900.2883	1628.0477	25260	24368.8
900.4304	1629.8005	25108.8	24217.15
900.5725	1631.5525	24932.15	24046.1
900.7145	1633.3037	24833.6	23948.05
900.8566	1635.0542	24753.75	23867.5
900.9986	1636.804	24606.55	23720.15
901.1406	1638.553	24593.85	23662.45
901.2826	1640.3013	24431.95	23545.7
901.4245	1642.0488	24325.95	23436.1
901.5665	1643.7955	24291.45	23404.85
901.7085	1645.5416	24222.4	23337.55
901.8504	1647.2868	24213.95	23327.65
901.9923	1649.0313	24124.75	23238.55
902.1342	1650.7751	24153.3	23262.7
902.2761	1652.5181	24118	23231.55
902.4179	1654.2604	24030	23144.45
902.5598	1656.0019	24020.9	23136.2
902.7016	1657.7427	24014.8	23129.3
902.8434	1659.4828	24063.9	23178.4
902.9852	1661.222	24062.05	23174.55
903.127	1662.9606	23981.1	23096.1
903.2687	1664.6984	23867.15	22980.7
903.4105	1666.4354	23738.5	22849.85
903.5522	1668.1717	23567.5	22681.55
903.6939	1669.9072	23378.15	22490.75
903.8356	1671.642	23214.5	22325.3
903.9773	1673.3761	23101.6	22215
904.119	1675.1094	22932.2	22046.35
904.2606	1676.8419	22885.55	21999.9
904.4022	1678.5737	22694.95	21808.25
904.5439	1680.3048	22596.7	21709.05
904.6855	1682.0351	22477.4	21590.65
904.827	1683.7646	22388.05	21497.25
904.9686	1685.4934	22252.1	21366.45
905.1101	1687.2215	22190.8	21304.45
905.2517	1688.9488	22107.55	21220.75
905.3932	1690.6754	21959.55	21074.05
905.5347	1692.4012	21949.85	21062.7
905.6761	1694.1263	21864.95	20977.2
905.8176	1695.8506	21806.75	20920.1
905.9591	1697.5742	21718.6	20834.95
906.1005	1699.297	21648.05	20763.95
906.2419	1701.0191	21529.55	20642.55
906.3833	1702.7404	21450.05	20565.35
906.5246	1704.461	21328.9	20440.8
906.666	1706.1808	21262.65	20374.8
906.8073	1707.8999	21205.1	20319.4
906.9487	1709.6182	21149.55	20266.25
907.09	1711.3358	21131.9	20249.65
907.2313	1713.0527	21028	20146
907.3725	1714.7688	20936.2	20042.85
907.5138	1716.4841	20855.6	19968.55
907.655	1718.1987	20836.25	19943.85
907.7962	1719.9126	20771.3	19888.4
907.9374	1721.6257	20701.25	19816.35
908.0786	1723.338	20652.1	19767.1
908.2198	1725.0496	20576.7	19692.05
908.3609	1726.7605	20529.55	19645.15
908.502	1728.4706	20448.9	19563.45
908.6431	1730.18	20356.7	19471.15
908.7842	1731.8886	20331.2	19445.95
908.9253	1733.5964	20258.6	19367.8
909.0664	1735.3036	20214.4	19327.05
909.2074	1737.0099	20181.05	19298.4
909.3484	1738.7156	20125.5	19242.75
909.4894	1740.4204	20085.3	19198.05
909.6304	1742.1246	20049.3	19163.25
909.7714	1743.8279	19953.85	19069.85
909.9123	1745.5306	19942.5	19059.45
910.0532	1747.2325	19894.8	19013.8
910.1941	1748.9336	19846.6	18961.5
910.335	1750.634	19763.4	18878.45
910.4759	1752.3336	19695.25	18811.05
910.6168	1754.0325	19691.9	18810.1
910.7576	1755.7307	19647.5	18764.1
910.8984	1757.4281	19654.7	18770.95
911.0392	1759.1247	19589.35	18696.9
911.18	1760.8206	19602.85	18714.75
911.3208	1762.5158	19546.45	18655.35
911.4615	1764.2102	19428.3	18543.55
911.6022	1765.9039	19349.2	18464.75
911.7429	1767.5968	19340.95	18458.95
911.8836	1769.289	19306.3	18423.2
912.0243	1770.9804	19221.25	18337.05
912.1649	1772.6711	19226.15	18341.25
912.3056	1774.361	19158.45	18273.3
912.4462	1776.0502	19118.25	18233.75
912.5868	1777.7386	19108.3	18221.5
912.7274	1779.4263	19021.7	18135.05
912.8679	1781.1132	18999.9	18116.85
913.0084	1782.7994	18949.65	18066.55
913.149	1784.4849	18892.95	18009.65
913.2895	1786.1696	18857.15	17955.45
913.4299	1787.8535	18804.7	17922.85
913.5704	1789.5367	18756.6	17874.1
913.7108	1791.2192	18749.95	17866.95
913.8513	1792.9009	18688.65	17774.9
913.9917	1794.5818	18681.3	17794.8
914.132	1796.2621	18586.4	17703.95
914.2724	1797.9415	18542.05	17658.8
914.4128	1799.6202	18495.7	17612.65
914.5531	1801.2982	18449.05	17565.3
914.6934	1802.9755	18422.25	17536.55
914.8337	1804.6519	18408.05	17523.65
914.9739	1806.3277	18279.2	17394.25
915.1142	1808.0027	18209.4	17329.1
915.2544	1809.6769	18210.65	17329.3
915.3946	1811.3504	18180.5	17296.7
915.5348	1813.0231	18152.4	17268.3
915.675	1814.6951	18140.65	17256.2
915.8151	1816.3664	18101.7	17217.35
915.9553	1818.0369	18040.6	17157.65
916.0954	1819.7067	17975.75	17092.65
916.2355	1821.3757	17964.05	17077.85
916.3755	1823.044	17919.1	17037.8
916.5156	1824.7115	17890.95	17005.55
916.6556	1826.3783	17790.45	16907.85
916.7956	1828.0443	17755.9	16871.45
916.9356	1829.7096	17742.95	16857.75
917.0756	1831.3741	17737.75	16850.35
917.2155	1833.0379	17705.1	16823.55
917.3555	1834.701	17647.05	16759.8
917.4954	1836.3633	17636.5	16751.15
917.6353	1838.0248	17564.25	16680.65
917.7751	1839.6856	17520.8	16637.95
917.915	1841.3457	17483.65	16600.5
918.0548	1843.005	17435.25	16551.65
918.1946	1844.6636	17410.75	16528.4
918.3344	1846.3214	17353.8	16470.65
918.4742	1847.9785	17367.9	16486.4
918.6139	1849.6349	17291.75	16406.3
918.7537	1851.2904	17293.3	16399.75
918.8934	1852.9453	17229.35	16342.95
919.0331	1854.5994	17175.4	16287.25
919.1727	1856.2528	17164.9	16275.8
919.3124	1857.9054	17139.95	16257.65
919.452	1859.5572	17102.2	16218.6
919.5916	1861.2083	17076.35	16192.85
919.7312	1862.8587	17118.55	16234.95
919.8708	1864.5084	17037.45	16153.3
920.0103	1866.1572	16954.45	16067.9
920.1498	1867.8054	16906.25	16024.1
920.2893	1869.4528	16868.55	15981.95
920.4288	1871.0994	16816.6	15936.45
920.5683	1872.7453	16789.15	15902.2
920.7077	1874.3905	16744	15853.95
920.8471	1876.0349	16714.3	15829.35
920.9865	1877.6786	16679.9	15796.05
921.1259	1879.3215	16671.7	15789.4
921.2653	1880.9637	16616.75	15730.1
921.4046	1882.6051	16646.4	15763.2
921.5439	1884.2458	16551.7	15663.65
921.6832	1885.8858	16505.1	15622.8
921.8225	1887.525	16475.3	15590.15
921.9617	1889.1634	16394.25	15509.45
922.101	1890.8011	16340.85	15457.8
922.2402	1892.4381	16322.95	15440.95
922.3794	1894.0743	16316.2	15434.2
922.5185	1895.7098	16239.95	15357.65
922.6577	1897.3446	16210.95	15324.65
922.7968	1898.9786	16202.9	15315.7
922.9359	1900.6118	16133.7	15250.95
923.075	1902.2443	16088.65	15199.8
923.214	1903.8761	16048.1	15166
923.3531	1905.5071	15962.75	15078.05
923.4921	1907.1374	15914.3	15031.7
923.6311	1908.7669	15875.85	14994.7
923.77	1910.3957	15858.35	14973.9
923.909	1912.0237	15778.05	14896.1
924.0479	1913.651	15731.3	14845
924.1868	1915.2776	15725.55	14843.6
924.3257	1916.9034	15660.9	14778.65
924.4646	1918.5285	15612.1	14729.2
924.6034	1920.1528	15524	14639.45
924.7422	1921.7764	15513.65	14630.75
924.881	1923.3992	15425.5	14541.85
925.0198	1925.0213	15368.7	14485.05
925.1586	1926.6427	15288.55	14406.5
925.2973	1928.2633	15458.4	14328.55
925.436	1929.8832	15261.2	14374.95
925.5747	1931.5023	15199.95	14316.4
925.7134	1933.1207	15134.4	14250.35
925.852	1934.7383	15110.2	14225.15
925.9906	1936.3552	15062.45	14179.05
926.1292	1937.9714	15044.15	14161.05
926.2678	1939.5868	14970.1	14084.9
926.4064	1941.2015	14908.5	14024.35
926.5449	1942.8154	14828.4	13943.45
926.6834	1944.4286	14776.6	13892.25
926.8219	1946.041	14761.45	13855.55
926.9604	1947.6528	14673.05	13783.55
927.0988	1949.2637	14668.35	13784.65
927.2372	1950.8739	14605.8	13721.1
927.3756	1952.4834	14565.1	13681.05
927.514	1954.0921	14525.3	13641.55
927.6523	1955.7001	14487.1	13599.7
927.7907	1957.3074	14428.15	13548.25
927.929	1958.9139	14389.8	13508.5
928.0673	1960.5197	14374.2	13491.2
928.2055	1962.1247	14327	13444.3
928.3438	1963.729	14243.2	13362.5
928.482	1965.3325	14183.2	13277.95
928.6202	1966.9353	14158.8	13278.9
928.7584	1968.5374	14099.6	13216.65
928.8965	1970.1387	14077.65	13194.6
929.0346	1971.7393	13998.95	13114.7
929.1727	1973.3392	13956.5	13074.6
929.3108	1974.9383	13940.7	13060.3
929.4489	1976.5366	13844.95	12964.45
929.5869	1978.1342	13820.35	12935.05
929.7249	1979.7311	13791.45	12908.15
929.8629	1981.3273	13761.7	12881.45
930.0009	1982.9227	13709.9	12826.45
930.1388	1984.5173	13664.35	12783.7
930.2767	1986.1112	13587.85	12704.9
930.4146	1987.7044	13587.7	12707.05
930.5525	1989.2968	13549.4	12669
930.6904	1990.8885	13521.6	12639.9
930.8282	1992.4795	13543.65	12663.25
930.966	1994.0697	13457.95	12577.45
931.1038	1995.6592	13417.45	12533.95
931.2415	1997.2479	13409.35	12526.1
931.3793	1998.8359	13350.9	12470.05
931.517	2000.4232	13304.8	12425.2
931.6547	2002.0097	13252.3	12373.15
931.7923	2003.5955	13190.8	12308.6
931.93	2005.1805	13191	12310.5
932.0676	2006.7648	13156.45	12276.2
932.2052	2008.3484	13108.7	12227.45
932.3427	2009.9312	13124.4	12242.6
932.4803	2011.5133	13086.8	12207.75
932.6178	2013.0946	13013.5	12134.25
932.7553	2014.6752	12967.75	12087.5
932.8928	2016.2551	12977.9	12099.4
933.0302	2017.8342	12886.1	12007.8
933.1676	2019.4126	12859.45	11980.45
933.305	2020.9902	12818.15	11939.5
933.4424	2022.5672	12807.05	11925.15
933.5798	2024.1433	12763.9	11880.7
933.7171	2025.7188	12734.2	11856.8
933.8544	2027.2935	12698.7	11820.2
933.9917	2028.8674	12645.3	11765.6
934.129	2030.4406	12604.95	11726.25
934.2662	2032.0131	12524.1	11645.6
934.4034	2033.5849	12529	11646.85
934.5406	2035.1559	12484.6	11605.15
934.6778	2036.7261	12472.8	11590.85
934.8149	2038.2957	12416.75	11534.45
934.952	2039.8645	12396.25	11516.25
935.0891	2041.4325	12396.25	11512.05
935.2262	2042.9998	12327	11446
935.3632	2044.5664	12300.85	11419.55
935.5002	2046.1323	12269.05	11388.6
935.6372	2047.6974	12266.55	11388.75
935.7742	2049.2617	12242.9	11364.7
935.9111	2050.8254	12215.5	11329.8
936.048	2052.3883	12179.4	11300.45
936.1849	2053.9504	12117.95	11236.1
936.3218	2055.5118	12106.9	11224.85
936.4586	2057.0725	12054.8	11171.7
936.5955	2058.6325	12039.8	11158.65
936.7323	2060.1917	11986.2	11108.65
936.869	2061.7502	11963.75	11079.9
937.0058	2063.3079	11919.35	11041.05
937.1425	2064.8649	11918.15	11035.65
937.2792	2066.4212	11872.4	10992.65
937.4159	2067.9767	11833.8	10955
937.5525	2069.5315	11801.3	10921.75
937.6891	2071.0856	11778.6	10898.15
937.8257	2072.6389	11724	10844.5
937.9623	2074.1915	11645.05	10765.45
938.0989	2075.7433	11628.35	10748.25
938.2354	2077.2945	11572.6	10693.9
938.3719	2078.8448	11539.55	10658.9
938.5084	2080.3945	11516.3	10636.95
938.6448	2081.9434	11505.8	10625.2
938.7812	2083.4916	11456.95	10577.35
938.9176	2085.039	11421.15	10538.1
939.054	2086.5857	11421.65	10539.6
939.1903	2088.1317	11381.35	10500.55
939.3267	2089.677	11362.3	10479.8
939.463	2091.2215	11323.85	10441.35
939.5992	2092.7652	11307.1	10423.55
939.7355	2094.3083	11272.3	10389.4
939.8717	2095.8506	11252.7	10373.35
940.0079	2097.3921	11223.55	10341.35
940.1441	2098.933	11187.9	10306.6
940.2802	2100.4731	11160.45	10279.35
940.4163	2102.0124	11166.4	10266.95
940.5524	2103.5511	11152.7	10272.2
940.6885	2105.089	11114.75	10233.2
940.8245	2106.6261	11082	10200.15
940.9606	2108.1626	11054.3	10172.15
941.0965	2109.6983	11051.4	10138.45
941.2325	2111.2332	11011.25	10129.5
941.3684	2112.7675	10984.15	10101.65
941.5044	2114.301	10956.85	10074
941.6403	2115.8337	10935.35	10053.1
941.7761	2117.3657	10898.8	10019.05
941.912	2118.897	10888.75	10005.65
942.0478	2120.4276	10863.1	9975.55
942.1835	2121.9575	10789.85	9908.2
942.3193	2123.4866	10824.9	9929.7
942.455	2125.0149	10784.55	9899.8
942.5907	2126.5426	10719.25	9839.15
942.7264	2128.0695	10688.75	9803.1
942.8621	2129.5956	10676.7	9794.9
942.9977	2131.1211	10656.15	9771.3
943.1333	2132.6458	10618	9736.7
943.2689	2134.1698	10604.65	9724.45
943.4044	2135.693	10578.25	9694.95
943.54	2137.2155	10555.75	9671.1
943.6755	2138.7373	10533.8	9651.35
943.8109	2140.2584	10486.75	9606.7
943.9464	2141.7787	10466.55	9581.4
944.0818	2143.2983	10433.3	9555.05
944.2172	2144.8171	10384.6	9505.3
944.3526	2146.3353	10347.85	9465.7
944.4879	2147.8527	10331.4	9451.4
944.6232	2149.3693	10313.8	9432.05
944.7585	2150.8853	10258.4	9376.15
944.8938	2152.4005	10211.8	9329.35
945.029	2153.9149	10223.9	9341.95
945.1642	2155.4287	10188.65	9305.55
945.2994	2156.9417	10170.25	9286.05
945.4346	2158.454	10140	9257.35
945.5697	2159.9655	10108.7	9228.05
945.7048	2161.4764	10104.3	9222.6
945.8399	2162.9865	10047.2	9166.15
945.9749	2164.4958	10019.25	9137.65
946.1099	2166.0045	10011.35	9128.05
946.2449	2167.5124	9991	9111.6
946.3799	2169.0195	9939	9059.9
946.5148	2170.526	9939.75	9056.8
946.6498	2172.0317	9895.05	9013.8
946.7846	2173.5367	9893	9012.1
946.9195	2175.0409	9862.55	8981.4
947.0543	2176.5445	9869	8986.35
947.1891	2178.0473	9806	8923.15
947.3239	2179.5494	9759.8	8872.55
947.4587	2181.0507	9716.2	8835.4
947.5934	2182.5513	9706.4	8825.45
947.7281	2184.0512	9687.15	8803
947.8628	2185.5504	9664.25	8783.65
947.9974	2187.0488	9601.5	8721.2
948.132	2188.5465	9582.55	8702.65
948.2666	2190.0435	9562.55	8682.5
948.4012	2191.5397	9515.6	8633.95
948.5357	2193.0353	9507.95	8627.8
948.6702	2194.5301	9450.5	8567.15
948.8047	2196.0241	9430.8	8547.2
948.9392	2197.5175	9394.2	8509.9
949.0736	2199.0101	9387.75	8502.15
949.208	2200.502	9316.75	8435.75
949.3424	2201.9931	9289.65	8407.75
949.4767	2203.4835	9271.25	8387.4
949.611	2204.9733	9279.75	8394.1
949.7453	2206.4622	9244.8	8365.3
949.8796	2207.9505	9208.8	8327.5
950.0138	2209.438	9152.65	8273.1
950.148	2210.9248	9147.9	8267.1
950.2822	2212.4109	9112.95	8232.05
950.4164	2213.8962	9088.45	8202.6
950.5505	2215.3809	9047.25	8163.55
950.6846	2216.8648	9039.5	8157.3
950.8186	2218.3479	9006.95	8121.5
950.9527	2219.8304	8971.95	8087
951.0867	2221.3121	8934.9	8049.8
951.2207	2222.7931	8913.15	8030.4
951.3546	2224.2733	8881.05	7998.6
951.4886	2225.7529	8839.85	7957.2
951.6225	2227.2317	8864.2	7981.15
951.7563	2228.7098	8829.25	7948.8
951.8902	2230.1872	8787.85	7908.6
952.024	2231.6638	8783.25	7902.8
952.1578	2233.1397	8725.65	7839.95
952.2916	2234.6149	8704.35	7826.75
952.4253	2236.0894	8670.7	7788.35
952.559	2237.5632	8630.2	7738.95
952.6927	2239.0362	8609	7727.15
952.8263	2240.5085	8593.8	7710.65
952.9599	2241.9801	8548.15	7665.25
953.0935	2243.4509	8550.45	7668.65
953.2271	2244.921	8520.7	7637
953.3606	2246.3904	8497.5	7610.85
953.4941	2247.8591	8470.25	7588.25
953.6276	2249.3271	8463.65	7581.35
953.7611	2250.7943	8416.3	7531.65
953.8945	2252.2608	8392.85	7511.6
954.0279	2253.7266	8366.3	7486.15
954.1612	2255.1917	8352.3	7470.65
954.2946	2256.656	8299.25	7415.5
954.4279	2258.1197	8285.25	7404.85
954.5612	2259.5826	8283.6	7401.65
954.6944	2261.0447	8281.2	7396.6
954.8276	2262.5062	8224.4	7340.2
954.9608	2263.9669	8214.1	7328.85
955.094	2265.4269	8213.8	7332.45
955.2271	2266.8862	8169.35	7287.3
955.3602	2268.3448	8148.8	7265.15
955.4933	2269.8026	8139.15	7257.5
955.6264	2271.2598	8111.6	7229.4
955.7594	2272.7162	8071.3	7189.75
955.8924	2274.1719	8069.65	7186.95
956.0253	2275.6268	8051.75	7169.95
956.1583	2277.0811	8037.2	7152.55
956.2912	2278.5346	8002.8	7122.25
956.4241	2279.9874	7993	7111.9
956.5569	2281.4395	7975.3	7096.3
956.6897	2282.8908	7936.35	7049.15
956.8225	2284.3414	7909.55	7026.35
956.9553	2285.7914	7889.4	7008.65
957.088	2287.2406	7878.6	6995.35
957.2207	2288.689	7857.3	6974.65
957.3534	2290.1368	7832.25	6947.6
957.486	2291.5838	7819.15	6932.8
957.6186	2293.0302	7802.25	6915.75
957.7512	2294.4758	7775.4	6892.55
957.8838	2295.9206	7726.35	6840.75
958.0163	2297.3648	7698.95	6818.05
958.1488	2298.8082	7692.1	6808.15
958.2813	2300.251	7683.85	6802.5
958.4137	2301.693	7650.45	6766
958.5461	2303.1343	7641.05	6756.95
958.6785	2304.5748	7605.4	6724.9
958.8108	2306.0147	7587.2	6703.8
958.9432	2307.4538	7601.5	6716.5
959.0754	2308.8922	7558.15	6679.65
959.2077	2310.3299	7539.6	6660
959.3399	2311.7669	7515.05	6634.8
959.4721	2313.2031	7487.9	6606.15
959.6043	2314.6387	7455.45	6575.15
959.7365	2316.0735	7422.95	6539.25
959.8686	2317.5076	7417.3	6533
960.0006	2318.941	7397.25	6516.9
960.1327	2320.3737	7379.95	6497
960.2647	2321.8056	7375.25	6489.05
960.3967	2323.2369	7337.6	6453.5
960.5287	2324.6674	7316.2	6429
960.6606	2326.0972	7299.05	6414.45
960.7925	2327.5263	7298.7	6414.8
960.9244	2328.9547	7249.7	6367.5
961.0562	2330.3823	7231	6347.3
961.1881	2331.8092	7222.25	6335.3
961.3198	2333.2355	7203.9	6317.8
961.4516	2334.661	7187.6	6302.55
961.5833	2336.0858	7168.25	6284.35
961.715	2337.5098	7149.6	6265
961.8467	2338.9332	7121.35	6239.2
961.9783	2340.3558	7112.95	6226.2
962.1099	2341.7778	7093.95	6212.45
962.2415	2343.199	7048	6165.45
962.373	2344.6195	7023.9	6142.7
962.5045	2346.0393	7011.85	6130.7
962.636	2347.4583	6998.6	6115.05
962.7675	2348.8767	6969.35	6084.75
962.8989	2350.2943	6951.05	6066.9
963.0303	2351.7113	6960.8	6075.2
963.1617	2353.1275	6942.5	6057.6
963.293	2354.543	6894.4	6002.1
963.4243	2355.9578	6874.8	5991.3
963.5556	2357.3718	6828.75	5946.35
963.6868	2358.7852	6820.9	5937.3
963.818	2360.1978	6805.75	5922.85
963.9492	2361.6098	6799.95	5918.3
964.0803	2363.021	6766.05	5878.65
964.2114	2364.4315	6733.8	5851.4
964.3425	2365.8413	6705.6	5822.3
964.4736	2367.2504	6686.1	5803.1
964.6046	2368.6587	6639.7	5757.7
964.7356	2370.0664	6635.25	5752
964.8666	2371.4733	6618.45	5734.9
964.9975	2372.8795	6585.8	5704.4
965.1284	2374.285	6562.05	5680.4
965.2593	2375.6899	6522.35	5639
965.3901	2377.0939	6518	5635.4
965.5209	2378.4973	6479.75	5599.8
965.6517	2379.9	6460.85	5578.05
965.7825	2381.3019	6447.7	5565.05
965.9132	2382.7032	6431.25	5550.3
966.0439	2384.1037	6434.6	5553.9
966.1745	2385.5035	6387.1	5507.05
966.3051	2386.9027	6364.55	5482.25
966.4357	2388.3011	6369.6	5486.15
966.5663	2389.6987	6338.15	5455.75
966.6968	2391.0957	6310.35	5427.75
966.8273	2392.492	6280.75	5400.3
966.9578	2393.8876	6257.3	5373.4
967.0882	2395.2824	6230.6	5347.85
967.2186	2396.6765	6213.7	5332.25
967.349	2398.07	6182.25	5301.3
967.4793	2399.4627	6179.3	5295.35
967.6097	2400.8547	6153.85	5270.5
967.7399	2402.246	6154	5264.3
967.8702	2403.6366	6108.1	5226.85
968.0004	2405.0265	6080.4	5197.25
968.1306	2406.4156	6095.05	5209.5
968.2607	2407.8041	6049.55	5162.95
968.3909	2409.1918	6023.15	5137.6
968.521	2410.5789	5995.05	5111.75
968.651	2411.9652	5983.5	5097.05
968.781	2413.3508	5950.25	5069.45
968.911	2414.7358	5938	5054.7
969.041	2416.12	5918.45	5035.1
969.1709	2417.5035	5924.65	5043.3
969.3008	2418.8863	5876.55	4991.25
969.4307	2420.2684	5866.4	4983.1
969.5606	2421.6497	5845.95	4963.35
969.6904	2423.0304	5817.75	4936.35
969.8201	2424.4104	5798.4	4913.25
969.9499	2425.7896	5784.05	4898.3
970.0796	2427.1682	5770.55	4887.65
970.2093	2428.546	5748.85	4865.65
970.3389	2429.9232	5752.1	4869.5
970.4685	2431.2996	5729.1	4846.8
970.5981	2432.6753	5707.25	4824.05
970.7277	2434.0503	5712.8	4829.3
970.8572	2435.4246	5690.95	4806.6
970.9867	2436.7982	5668.7	4782.5
971.1161	2438.1711	5648.95	4765.25
971.2456	2439.5433	5641.4	4755.95
971.375	2440.9148	5599.65	4710.55
971.5043	2442.2856	5585.25	4700.45
971.6336	2443.6557	5575.7	4692.4
971.7629	2445.025	5564.6	4682.9
971.8922	2446.3937	5551.95	4667.45
972.0214	2447.7617	5536.8	4652.45
972.1506	2449.1289	5506.4	4623.9
972.2798	2450.4955	5515.85	4629.2
972.4089	2451.8613	5492.2	4610.65
972.538	2453.2265	5479	4595.4
972.6671	2454.5909	5455.75	4573.8
972.7961	2455.9546	5452.5	4569.35
972.9251	2457.3177	5425.95	4542.45
973.0541	2458.68	5424.95	4540.3
973.1831	2460.0416	5418.5	4535
973.312	2461.4025	5402.95	4517.3
973.4408	2462.7627	5395.7	4500.35
973.5697	2464.1222	5391.95	4511.7
973.6985	2465.4811	5365.35	4480.9
973.8273	2466.8392	5339.95	4456.35
973.956	2468.1966	5338.6	4452.05
974.0847	2469.5533	5316.6	4434.2
974.2134	2470.9093	5310.9	4426.85
974.3421	2472.2645	5280.65	4396.45
974.4707	2473.6191	5260.95	4377.8
974.5993	2474.973	5246.95	4364.85
974.7278	2476.3262	5242.55	4356.95
974.8563	2477.6787	5225.65	4343.95
974.9848	2479.0305	5190.3	4306.85
975.1132	2480.3816	5186.45	4303.1
975.2417	2481.7319	5161.9	4277.75
975.37	2483.0816	5155.25	4269.7
975.4984	2484.4306	5125.25	4241.8
975.6267	2485.7789	5116.25	4235.75
975.755	2487.1264	5098.45	4214.85
975.8833	2488.4733	5071.25	4189.55
976.0115	2489.8195	5063.8	4174.7
976.1397	2491.165	5029.45	4144.8
976.2678	2492.5097	5006.65	4123.9
976.3959	2493.8538	5003.25	4122.45
976.524	2495.1972	4982.3	4099.4
976.6521	2496.5398	4958.35	4073.8
976.7801	2497.8818	4956.5	4071.25
976.9081	2499.2231	4960.25	4076.15
977.036	2500.5637	4934.35	4049.6
977.164	2501.9035	4933.6	4049.7
977.2918	2503.2427	4926.45	4041.15
977.4197	2504.5812	4906.2	4024.95
977.5475	2505.919	4881.7	3994.85
977.6753	2507.256	4875.3	3991.45
977.8031	2508.5924	4843.75	3960.9
977.9308	2509.9281	4846.35	3957.15
978.0585	2511.2631	4832.95	3951.85
978.1861	2512.5974	4826.35	3945.3
978.3137	2513.9309	4809.1	3927.55
978.4413	2515.2638	4801.15	3885.75
978.5689	2516.596	4766.5	3883.15
978.6964	2517.9275	4741.8	3857.6
978.8239	2519.2583	4741.65	3858.6
978.9513	2520.5884	4714.75	3830.65
979.0788	2521.9178	4716.5	3833.05
979.2062	2523.2465	4711.2	3828.05
979.3335	2524.5745	4686.95	3804.6
979.4608	2525.9018	4672.4	3792.15
979.5881	2527.2284	4665.7	3784.9
979.7154	2528.5543	4633.15	3750
979.8426	2529.8796	4649.05	3766.85
979.9698	2531.2041	4622.2	3738.35
980.0969	2532.5279	4615.6	3734.4
980.224	2533.851	4617.1	3733.5
980.3511	2535.1735	4596.55	3713.75
980.4781	2536.4952	4566.8	3683.25
980.6052	2537.8163	4570.15	3687.55
980.7321	2539.1366	4562.15	3678.15
980.8591	2540.4562	4526.4	3640.85
980.986	2541.7752	4545.4	3662.2
981.1129	2543.0935	4536.85	3654.15
981.2397	2544.411	4545.8	3664
981.3665	2545.7279	4507.55	3624.85
981.4933	2547.0441	4486.1	3603.75
981.62	2548.3596	4510.2	3625.6
981.7467	2549.6744	4497.45	3613.5
981.8734	2550.9885	4476.3	3584.45
982.0001	2552.3019	4453.2	3572.5
982.1267	2553.6146	4450.1	3566.25
982.2532	2554.9266	4434.75	3551.3
982.3798	2556.2379	4416.55	3533.6
982.5063	2557.5485	4413	3531.85
982.6327	2558.8585	4416.75	3528.2
982.7592	2560.1677	4398.45	3513
982.8856	2561.4762	4396.65	3514.25
983.0119	2562.7841	4377	3491.35
983.1383	2564.0913	4377.05	3495.65
983.2646	2565.3977	4375.85	3491.75
983.3908	2566.7035	4337.1	3452.35
983.517	2568.0086	4342.1	3457.8
983.6432	2569.313	4334.45	3451.4
983.7694	2570.6167	4336.05	3449.7
983.8955	2571.9197	4327.95	3445.75
984.0216	2573.222	4307	3419.5
984.1476	2574.5236	4303.9	3420
984.2737	2575.8246	4296.3	3409.4
984.3996	2577.1248	4286.6	3400.55
984.5256	2578.4244	4282.9	3399.75
984.6515	2579.7232	4267	3385
984.7774	2581.0214	4298.5	3391.05
984.9032	2582.3189	4241.85	3358.45
985.029	2583.6157	4251.2	3363.4
985.1548	2584.9118	4237.85	3357.4
985.2806	2586.2072	4217.25	3333.75
985.4063	2587.5019	4212.1	3328.8
985.5319	2588.7959	4205	3322
985.6576	2590.0893	4182.25	3297.85
985.7832	2591.3819	4192.5	3309.65
985.9087	2592.6739	4166.65	3283.2
986.0343	2593.9652	4169.85	3284.75
986.1597	2595.2557	4140.7	3258.6
986.2852	2596.5456	4130.15	3245.9
986.4106	2597.8348	4113.35	3233.05
986.536	2599.1234	4095.05	3212.75
986.6614	2600.4112	4102.6	3221.25
986.7867	2601.6983	4079.55	3194.15
986.912	2602.9848	4065.55	3182.05
987.0372	2604.2705	4055.4	3165.3
987.1624	2605.5556	4039.65	3157.9
987.2876	2606.84	4025.15	3143.1
987.4128	2608.1237	4011.75	3128.75
987.5379	2609.4067	3992.95	3110.55
987.6629	2610.689	3985.8	3095.15
987.788	2611.9707	3975.75	3090
987.913	2613.2516	3976.4	3089.25
988.0379	2614.5319	3952.35	3072.2
988.1629	2615.8115	3920.4	3037.3
988.2878	2617.0903	3928.4	3044.4
988.4126	2618.3685	3912.15	3029.5
988.5375	2619.6461	3905.9	3023.55
988.6622	2620.9229	3882.45	3000.1
988.787	2622.199	3883.4	2999.4
988.9117	2623.4745	3878.45	2995.25
989.0364	2624.7493	3851.7	2968.95
989.161	2626.0234	3833.1	2952.35
989.2857	2627.2968	3836.1	2956.1
989.4102	2628.5695	3803.55	2917.9
989.5348	2629.8415	3792.85	2909.95
989.6593	2631.1128	3785.8	2902.9
989.7837	2632.3835	3777.2	2896
989.9082	2633.6535	3752.2	2871.25
990.0326	2634.9228	3742	2861.7
990.1569	2636.1914	3731.7	2849.45
990.2812	2637.4593	3738.4	2852.2
990.4055	2638.7265	3718.85	2835.5
990.5298	2639.9931	3711.65	2828.4
990.654	2641.259	3707.4	2823.75
990.7782	2642.5242	3694.65	2811.65
990.9023	2643.7887	3689.35	2807.2
991.0264	2645.0525	3675.2	2794.35
991.1505	2646.3156	3654.55	2771.55
991.2745	2647.5781	3647.75	2765.55
991.3985	2648.8398	3634.95	2752.35
991.5225	2650.1009	3630.15	2742.9
991.6464	2651.3613	3606.6	2725
991.7703	2652.6211	3610.5	2729.9
991.8942	2653.8801	3607.65	2723.7
992.018	2655.1385	3606.9	2721.9
992.1418	2656.3961	3587.8	2705.7
992.2655	2657.6531	3576.15	2695.4
992.3892	2658.9094	3573.95	2691
992.5129	2660.1651	3567.55	2686.05
992.6366	2661.42	3559.85	2677.05
992.7602	2662.6743	3564.95	2682.35
992.8837	2663.9279	3554.15	2671.5
993.0073	2665.1808	3535.35	2649.85
993.1307	2666.433	3521.2	2638.7
993.2542	2667.6846	3523.15	2640.45
993.3776	2668.9354	3509.15	2622.05
993.501	2670.1856	3490.75	2607.9
993.6244	2671.4351	3486.4	2605.8
993.7477	2672.6839	3489.5	2606.85
993.8709	2673.9321	3473.55	2591.25
993.9942	2675.1795	3461.45	2580.65
994.1174	2676.4263	3456.6	2573.7
994.2405	2677.6724	3459.1	2575.3
994.3637	2678.9179	3433.35	2551.2
994.4868	2680.1626	3435.75	2554.3
994.6098	2681.4067	3432.8	2548.65
994.7328	2682.6501	3413.6	2530.2
994.8558	2683.8928	3398.1	2514.85
994.9788	2685.1348	3389.85	2507.1
995.1017	2686.3761	3376.4	2494.75
995.2245	2687.6168	3386.9	2505.3
995.3474	2688.8568	3365.15	2484.05
995.4702	2690.0961	3354.05	2473.9
995.5929	2691.3348	3356.25	2474
995.7156	2692.5727	3340.8	2458.25
995.8383	2693.81	3333.8	2451.4
995.961	2695.0466	3322.4	2441.35
996.0836	2696.2826	3316	2432.25
996.2062	2697.5178	3311.85	2410.9
996.3287	2698.7524	3296.05	2414.1
996.4512	2699.9863	3299.95	2417
996.5737	2701.2195	3268.5	2389.75
996.6961	2702.452	3272.85	2389.45
996.8185	2703.6839	3268.95	2387.95
996.9408	2704.9151	3259.7	2378.75
997.0631	2706.1456	3239.45	2356.5
997.1854	2707.3755	3246.95	2363.5
997.3077	2708.6046	3229.7	2345.4
997.4299	2709.8331	3213.3	2331.45
997.552	2711.0609	3216.85	2333.6
997.6742	2712.2881	3215.9	2335.7
997.7963	2713.5145	3197.55	2314.45
997.9183	2714.7403	3200.15	2318.6
998.0403	2715.9654	3186.25	2302.95
998.1623	2717.1899	3181.1	2284.2
998.2842	2718.4136	3161.7	2280.5
998.4062	2719.6367	3158.8	2277.1
998.528	2720.8591	3156.45	2268.75
998.6498	2722.0809	3140.9	2259.2
998.7716	2723.3019	3143.4	2258.75
998.8934	2724.5223	3143.9	2260
999.0151	2725.7421	3124.6	2242.7
999.1368	2726.9611	3123.75	2238.2
999.2584	2728.1795	3108.9	2222.55
999.38	2729.3972	3081.3	2200.2
999.5016	2730.6142	3093.95	2199.3
999.6231	2731.8306	3077.6	2194.5
999.7446	2733.0462	3059.15	2175.15
999.8661	2734.2612	3043.15	2155.95
999.9875	2735.4756	3027.45	2144.9
1000.1089	2736.6892	3021.25	2137.45
1000.2302	2737.9022	3010.8	2130.25
1000.3515	2739.1145	2986.1	2104.45
1000.4728	2740.3262	2999.65	2109.75
1000.594	2741.5372	2971.1	2088.85
1000.7152	2742.7475	2967.4	2085.65
1000.8363	2743.9571	2967.65	2085.95
1000.9575	2745.1661	2947.6	2060.55
1001.0785	2746.3744	2946.75	2064.45
1001.1996	2747.582	2935.95	2057.05
1001.3206	2748.7889	2928.2	2043.7
1001.4415	2749.9952	2912.05	2029.6
1001.5625	2751.2008	2902.35	2020.85
1001.6833	2752.4057	2903.3	2020.5
1001.8042	2753.61	2879.2	1998
1001.925	2754.8136	2876.25	1992.05
1002.0458	2756.0165	2867.55	1988.3
1002.1665	2757.2188	2868.7	1988.5
1002.2872	2758.4204	2867.3	1987.3
1002.4078	2759.6213	2848.8	1964.65
1002.5285	2760.8215	2855	1969.8
1002.649	2762.0211	2843.1	1957.9
1002.7696	2763.22	2828.45	1943.9
1002.8901	2764.4182	2826.9	1945.45
1003.0106	2765.6158	2817.65	1936.4
1003.131	2766.8127	2816.75	1934.85
1003.2514	2768.009	2799.8	1919.5
1003.3717	2769.2045	2792.9	1911.65
1003.492	2770.3994	2790.1	1906.65
1003.6123	2771.5936	2786.4	1903.25
1003.7325	2772.7872	2773.1	1891.25
1003.8527	2773.9801	2755.75	1872.55
1003.9729	2775.1723	2776.35	1878.05
1004.093	2776.3639	2748.2	1866.4
1004.2131	2777.5548	2752.65	1869.55
1004.3331	2778.745	2743.45	1861.3
1004.4531	2779.9346	2738.75	1857.85
1004.5731	2781.1235	2714.45	1831.45
1004.693	2782.3117	2712.15	1830.3
1004.8129	2783.4992	2712.6	1832.35
1004.9328	2784.6861	2706.5	1822.65
1005.0526	2785.8723	2694.2	1811.35
1005.1723	2787.0579	2675.8	1792.9
1005.2921	2788.2428	2681.6	1799.85
1005.4118	2789.427	2673.7	1794.05
1005.5314	2790.6106	2682.35	1801.75
1005.651	2791.7935	2657.45	1776.5
1005.7706	2792.9757	2657.4	1777.25
1005.8902	2794.1573	2642.35	1757.3
1006.0097	2795.3382	2628.1	1749
1006.1291	2796.5184	2635.1	1756.35
1006.2485	2797.698	2634.45	1751
1006.3679	2798.8769	2626.95	1746.85
1006.4873	2800.0551	2620	1739.2
1006.6066	2801.2327	2608.55	1725.55
1006.7258	2802.4096	2588.95	1707.35
1006.8451	2803.5859	2592.2	1711.6
1006.9642	2804.7615	2593.75	1713.9
1007.0834	2805.9364	2595.55	1714.6
1007.2025	2807.1106	2598.65	1717.1
1007.3216	2808.2842	2580	1697.85
1007.4406	2809.4572	2585.5	1704.15
1007.5596	2810.6294	2589.7	1707.6
1007.6785	2811.801	2598.4	1717.75
1007.7975	2812.972	2588.55	1706.8
1007.9163	2814.1423	2589	1709.05
1008.0352	2815.3119	2602	1719.6
1008.154	2816.4808	2601.45	1722.85
1008.2727	2817.6491	2608.25	1727.45
1008.3914	2818.8167	2605.6	1726.75
1008.5101	2819.9837	2612	1726.4
1008.6288	2821.15	2625.75	1744.65
1008.7474	2822.3157	2631.65	1753.9
1008.8659	2823.4807	2643.9	1762.65
1008.9844	2824.645	2653.1	1771.85
1009.1029	2825.8086	2660.2	1779.9
1009.2214	2826.9716	2663.4	1782.95
1009.3398	2828.134	2680.35	1797.65
1009.4581	2829.2957	2678.15	1796.7
1009.5764	2830.4567	2679.05	1800.55
1009.6947	2831.617	2684	1802.85
1009.813	2832.7767	2675.55	1795.85
1009.9312	2833.9358	2678.3	1798.35
1010.0493	2835.0941	2686.45	1804.95
1010.1675	2836.2519	2665.85	1785.2
1010.2855	2837.4089	2649.4	1768.55
1010.4036	2838.5653	2655.9	1775.65
1010.5216	2839.7211	2643.75	1764.45
1010.6396	2840.8761	2640.95	1757.35
1010.7575	2842.0306	2634.35	1755.3
1010.8754	2843.1843	2639.2	1758.95
1010.9932	2844.3374	2639.55	1758.9
1011.111	2845.4899	2640.9	1760.3
1011.2288	2846.6417	2644.75	1765.8
1011.3465	2847.7928	2652.2	1773.45
1011.4642	2848.9433	2664.3	1784.25
1011.5818	2850.0931	2677.7	1797
1011.6995	2851.2422	2682.05	1799.7
1011.817	2852.3907	2693.15	1810.25
1011.9345	2853.5385	2693.05	1810.65
1012.052	2854.6857	2692.8	1802.3
1012.1695	2855.8323	2703.85	1822.4
1012.2869	2856.9781	2707.25	1829.2
1012.4042	2858.1233	2723.75	1843.45
1012.5216	2859.2679	2726.15	1843.35
1012.6389	2860.4118	2722.25	1841.65
1012.7561	2861.555	2727.5	1840.35
1012.8733	2862.6976	2735.15	1853.35
1012.9905	2863.8395	2740.85	1859.4
1013.1076	2864.9808	2733.9	1854.25
1013.2247	2866.1214	2729.95	1850.45
1013.3417	2867.2614	2733.8	1852.8
1013.4587	2868.4007	2730.65	1849.9
1013.5757	2869.5393	2728.3	1844.2
1013.6926	2870.6773	2736.65	1852.55
1013.8095	2871.8146	2738	1855.1
1013.9263	2872.9513	2717.65	1835.1
1014.0431	2874.0874	2714.15	1835.75
1014.1599	2875.2227	2699.75	1818.55
1014.2766	2876.3574	2692	1810.95
1014.3933	2877.4915	2691.85	1812.9
1014.51	2878.6249	2666.5	1786.05
1014.6266	2879.7577	2652.6	1774.05
1014.7431	2880.8898	2662.35	1771.35
1014.8596	2882.0212	2641.2	1762.15
1014.9761	2883.152	2635.05	1756.85
1015.0925	2884.2821	2628.9	1749.25
1015.2089	2885.4116	2617.1	1738.4
1015.3253	2886.5405	2610.95	1730.8
1015.4416	2887.6686	2618.05	1734
1015.5579	2888.7962	2607.05	1727.1
1015.6741	2889.923	2608.9	1728.25
1015.7903	2891.0493	2603.85	1724.05
1015.9065	2892.1748	2586.6	1705.55
1016.0226	2893.2997	2588.3	1706.8
1016.1387	2894.424	2587.65	1708.2
1016.2547	2895.5476	2587	1706.15
1016.3707	2896.6706	2586.6	1706.4
1016.4866	2897.7929	2596.45	1714.45
1016.6025	2898.9145	2590.55	1710.25
1016.7184	2900.0355	2589.8	1709.75
1016.8342	2901.1559	2579.7	1697.85
1016.95	2902.2756	2582.7	1703.7
1017.0658	2903.3946	2583	1700.8
1017.1815	2904.513	2585	1701.6
1017.2971	2905.6308	2582.55	1702.65
1017.4127	2906.7479	2579.35	1700.55
1017.5283	2907.8643	2594.5	1713.4
1017.6439	2908.9801	2590.5	1711.4
1017.7594	2910.0953	2574.95	1693.7
1017.8748	2911.2098	2570.45	1687.6
1017.9902	2912.3236	2571	1682.4
1018.1056	2913.4368	2552.7	1671
1018.2209	2914.5494	2553.25	1672.2
1018.3362	2915.6613	2535.4	1649.5
1018.4515	2916.7725	2532.85	1651.8
1018.5667	2917.8831	2518.95	1637.6
1018.6819	2918.9931	2501.6	1617.3
1018.797	2920.1024	2497.35	1615.7
1018.9121	2921.211	2479.1	1600.05
1019.0271	2922.319	2475.5	1594.15
1019.1421	2923.4264	2471.75	1593.35
1019.2571	2924.5331	2458.3	1578.85
1019.372	2925.6391	2451.1	1571.6
1019.4869	2926.7445	2453.3	1575.45
1019.6017	2927.8493	2451.95	1572.3
1019.7165	2928.9534	2448.15	1566.65
1019.8313	2930.0569	2446.85	1564.45
1019.946	2931.1597	2447.85	1565.7
1020.0606	2932.2619	2444	1564.15
1020.1753	2933.3634	2440.6	1561.25
1020.2899	2934.4643	2443.6	1555.4
1020.4044	2935.5645	2435.1	1548.5
1020.5189	2936.6641	2422.4	1540.25
1020.6334	2937.763	2407.85	1529.45
1020.7478	2938.8613	2393.5	1510.7
1020.8622	2939.959	2390.7	1506.1
1020.9765	2941.056	2362.1	1483.15
1021.0908	2942.1523	2348.5	1466.55
1021.2051	2943.248	2325.25	1445.2
1021.3193	2944.3431	2289.6	1410.3
1021.4334	2945.4375	2270.95	1389.75
1021.5476	2946.5313	2250.45	1371.05
1021.6617	2947.6244	2227.1	1347.75
1021.7757	2948.7169	2196.8	1314.95
1021.8897	2949.8087	2170.2	1292.35
1022.0037	2950.8999	2150.2	1268.1
1022.1176	2951.9904	2129.1	1249.2
1022.2315	2953.0803	2114.85	1233.25
1022.3453	2954.1696	2094.1	1213.25
1022.4591	2955.2582	2076	1196.1
1022.5728	2956.3462	2049.8	1170.45
1022.6865	2957.4335	2051	1171.8
1022.8002	2958.5202	2034.8	1154.75
1022.9138	2959.6062	2027.2	1145.3
1023.0274	2960.6916	2022.8	1142.15
1023.141	2961.7764	2016.3	1134.75
1023.2545	2962.8605	2005.15	1123.75
1023.3679	2963.9439	1999.3	1119.35
1023.4813	2965.0267	1997.65	1115.15
1023.5947	2966.1089	2012.6	1111.45
1023.708	2967.1905	1981.7	1102.9
1023.8213	2968.2714	1968.75	1090.35
1023.9346	2969.3516	1961.25	1081.05
1024.0478	2970.4312	1975.9	1088.35
1024.1609	2971.5102	1964.55	1086.8
1024.274	2972.5885	1954.05	1075.05
1024.3871	2973.6662	1960.9	1073.6
1024.5002	2974.7432	1948	1068.9
1024.6132	2975.8196	1946.1	1064.55
1024.7261	2976.8954	1935.05	1056.95
1024.839	2977.9705	1937.65	1057.1
1024.9519	2979.045	1933.85	1055.25
1025.0647	2980.1188	1920.6	1040.45
1025.1775	2981.192	1910.25	1030.7
1025.2902	2982.2645	1915.45	1037.05
1025.4029	2983.3364	1890.25	1011.25
1025.5156	2984.4077	1892.45	1012.2
1025.6282	2985.4783	1880.65	993.85
1025.7407	2986.5483	1871.55	992.75
1025.8532	2987.6177	1864.3	985.1
1025.9657	2988.6864	1855.2	973.85
1026.0782	2989.7545	1843.55	961.95
1026.1906	2990.8219	1829.65	949.65
1026.3029	2991.8887	1820.5	939.1
1026.4152	2992.9548	1814.25	932.55
1026.5275	2994.0204	1798.35	920.65
1026.6397	2995.0852	1787.1	910.05
1026.7519	2996.1495	1786.95	907.65
1026.864	2997.2131	1772.75	891.2
1026.9761	2998.276	1764.1	884.2
1027.0882	2999.3383	1753.75	873.4
1027.2002	3000.4	1736.15	854.8
1027.3122	3001.4611	1741.45	861.85
1027.4241	3002.5215	1738.75	858.45
1027.536	3003.5812	1726.75	847.2
1027.6478	3004.6404	1720.2	842.1
1027.7596	3005.6989	1721.85	840.8
1027.8714	3006.7567	1706.95	827.25
1027.9831	3007.8139	1724.05	823.8
1028.0947	3008.8705	1699.1	819.55
1028.2064	3009.9264	1692.9	809.7
1028.3179	3010.9818	1686.8	807.65
1028.4295	3012.0364	1685.1	804.3
1028.541	3013.0905	1677.5	798.45
1028.6524	3014.1439	1673.55	794.9
1028.7638	3015.1966	1667.8	789.75
1028.8752	3016.2487	1664.95	784.1
1028.9865	3017.3002	1672.8	788.4
1029.0978	3018.3511	1657.95	780.55
1029.209	3019.4013	1649.7	769.05
1029.3202	3020.4509	1651.95	772.35
1029.4314	3021.4998	1645.55	763.1
1029.5425	3022.5481	1644.4	765.55
1029.6535	3023.5958	1633	754.75
1029.7645	3024.6428	1639.75	759.55
1029.8755	3025.6892	1639.35	759.5
1029.9864	3026.735	1634.1	754
1030.0973	3027.7802	1634.2	753.95
1030.2082	3028.8247	1627.05	747.3
1030.319	3029.8685	1628.6	748.6
1030.4297	3030.9118	1622.1	741.05
1030.5404	3031.9544	1614.6	735.5
1030.6511	3032.9963	1605.45	725.4
1030.7617	3034.0376	1611.45	731.35
1030.8723	3035.0783	1611.5	729.85
1030.9829	3036.1184	1607.75	727.45
1031.0934	3037.1578	1604.75	727.25
1031.2038	3038.1966	1606.25	725.85
1031.3142	3039.2348	1598.75	721.35
1031.4246	3040.2723	1605.8	717.85
1031.5349	3041.3092	1594.8	718.45
1031.6452	3042.3455	1589.1	709.1
1031.7554	3043.3811	1583.4	704.25
1031.8656	3044.4161	1587.55	706.5
1031.9758	3045.4505	1575.95	700.5
1032.0859	3046.4842	1574.15	694.2
1032.1959	3047.5173	1572.7	693.05
1032.3059	3048.5498	1568.05	688.7
1032.4159	3049.5816	1575.8	695.85
1032.5258	3050.6128	1570.15	688.5
1032.6357	3051.6434	1568.35	687.9
1032.7455	3052.6734	1561.6	680.65
1032.8553	3053.7027	1559.2	680.5
1032.9651	3054.7314	1557.15	678.25
1033.0748	3055.7594	1546.1	667.7
1033.1845	3056.7868	1552.55	672.75
1033.2941	3057.8136	1546	667
1033.4037	3058.8398	1544.85	665.2
1033.5132	3059.8653	1530.6	651.65
1033.6227	3060.8902	1536.65	657.65
1033.7321	3061.9145	1530.55	651.6
1033.8415	3062.9381	1536.05	657.5
1033.9509	3063.9612	1551.8	654.15
1034.0602	3064.9835	1534.15	655.75
1034.1694	3066.0053	1528.2	646.9
1034.2787	3067.0264	1517.9	638.5
1034.3878	3068.0469	1513.6	633.85
1034.497	3069.0668	1514.85	630.15
1034.6061	3070.086	1511.5	633.55
1034.7151	3071.1046	1503.5	623.15
1034.8241	3072.1226	1498.45	616.8
1034.9331	3073.1399	1505.3	628.75
1035.042	3074.1567	1497.4	617.7
1035.1508	3075.1727	1493.7	610.95
1035.2597	3076.1882	1486.2	608.45
1035.3684	3077.203	1484.7	607.6
1035.4772	3078.2173	1487	606.85
1035.5859	3079.2308	1479.2	596.2
1035.6945	3080.2438	1478.1	597.95
1035.8031	3081.2561	1469.4	592.15
1035.9117	3082.2678	1466.25	587.25
1036.0202	3083.2789	1469.45	591.2
1036.1286	3084.2893	1458.95	577.85
1036.2371	3085.2991	1453.5	575.85
1036.3454	3086.3083	1459.2	576.5
1036.4538	3087.3169	1453.45	572.9
1036.562	3088.3248	1455.9	577.2
1036.6703	3089.3321	1448.35	565.8
1036.7785	3090.3388	1443.2	566.2
1036.8866	3091.3449	1437.1	556.55
1036.9948	3092.3503	1437.7	556.35
1037.1028	3093.3551	1428.7	552.7
1037.2108	3094.3593	1427.5	549
1037.3188	3095.3629	1418.25	540.45
1037.4267	3096.3658	1420.5	541.8
1037.5346	3097.3681	1425.15	545.15
1037.6425	3098.3698	1415.75	536.45
1037.7503	3099.3708	1417.2	532.4
1037.858	3100.3713	1406.85	528.4
1037.9657	3101.3711	1410.2	530.65
1038.0734	3102.3702	1534.8	516.9
1038.181	3103.3688	1409.75	528.8
1038.2886	3104.3667	1399.75	521
1038.3961	3105.364	1387.45	509.05
1038.5036	3106.3607	1393.9	512.7
1038.611	3107.3568	1387.55	508.5
1038.7184	3108.3522	1383.7	505.15
1038.8257	3109.347	1382.6	503.95
1038.933	3110.3412	1381.15	496.65
1039.0403	3111.3348	1371.2	492.85
1039.1475	3112.3277	1375.2	495.1
1039.2547	3113.32	1370.15	491.65
1039.3618	3114.3117	1368.35	487.6
1039.4689	3115.3028	1364.3	485.6
1039.5759	3116.2932	1367.2	485.1
1039.6829	3117.2831	1365.05	479.1
1039.7898	3118.2723	1354.15	475.8
1039.8967	3119.2608	1355.6	477.1
1040.0035	3120.2488	1354.05	473.35
1040.1103	3121.2361	1344.5	464.05
1040.2171	3122.2229	1344.95	467.2
1040.3238	3123.209	1341.2	462.2
1040.4305	3124.1944	1340.95	461.55
1040.5371	3125.1793	1337.4	455.8
1040.6437	3126.1635	1334.55	457.1
1040.7502	3127.1471	1328.55	448.85
1040.8567	3128.1301	1327.05	447.95
1040.9631	3129.1125	1326.7	446.8
1041.0695	3130.0942	1328.25	450.3
1041.1759	3131.0753	1335.3	447.9
1041.2822	3132.0558	1319.85	438.05
1041.3884	3133.0357	1323.1	443.45
1041.4946	3134.015	1320.5	439.5
1041.6008	3134.9936	1311.25	429.15
1041.7069	3135.9716	1335.45	436.75
1041.813	3136.949	1315	435.7
1041.919	3137.9258	1320.6	436.95
1042.025	3138.902	1316.2	433.75
1042.1309	3139.8775	1303.8	425.1
1042.2368	3140.8524	1301.5	422
1042.3427	3141.8267	1300.3	419.3
1042.4485	3142.8004	1298.7	420.25
1042.5542	3143.7735	1311.2	426.95
1042.6599	3144.7459	1301.85	420.35
1042.7656	3145.7178	1296.7	417.85
1042.8712	3146.689	1291.2	414.55
1042.9768	3147.6596	1293.35	412.95
1043.0823	3148.6295	1289.5	408.65
1043.1878	3149.5989	1288.6	410.95
1043.2932	3150.5676	1281.85	405.45
1043.3986	3151.5357	1280.8	404
1043.5039	3152.5032	1274.7	396.3
1043.6092	3153.4701	1273.8	393.2
1043.7145	3154.4364	1272.7	392.75
1043.8197	3155.402	1264.45	387.35
1043.9248	3156.367	1277.65	396.65
1044.03	3157.3315	1303.85	386.5
1044.135	3158.2952	1262.7	383.7
1044.24	3159.2584	1264.4	386.8
1044.345	3160.221	1258.6	377.8
1044.4499	3161.1829	1255.85	376.7
1044.5548	3162.1442	1252.4	372.9
1044.6596	3163.105	1253.5	375.9
1044.7644	3164.065	1249.4	369.95
1044.8692	3165.0245	1254.4	374
1044.9739	3165.9834	1244	366.45
1045.0785	3166.9416	1240	360.7
1045.1831	3167.8993	1250.05	371
1045.2877	3168.8563	1251.55	373.65
1045.3922	3169.8127	1240.9	363.6
1045.4966	3170.7684	1242.65	364.4
1045.6011	3171.7236	1242.25	361.35
1045.7054	3172.6782	1236.35	357.65
1045.8098	3173.6321	1235.7	355.85
1045.914	3174.5854	1238.45	354.5
1046.0183	3175.5381	1223.65	343.45
1046.1224	3176.4902	1226.65	347.65
1046.2266	3177.4417	1218.7	342.05
1046.3307	3178.3926	1222	343.7
1046.4347	3179.3428	1224.35	346.7
1046.5387	3180.2924	1219.4	339.85
1046.6427	3181.2415	1218.5	339.55
1046.7466	3182.1899	1220	339.55
1046.8504	3183.1377	1211.35	333.25
1046.9542	3184.0848	1214.65	331.75
1047.058	3185.0314	1208.05	329.55
1047.1617	3185.9773	1205.25	326.4
1047.2654	3186.9227	1205.1	324.9
1047.369	3187.8674	1206.5	328.9
1047.4726	3188.8115	1208.1	323.4
1047.5761	3189.755	1199.25	320.7
1047.6796	3190.6979	1200.7	320.7
1047.783	3191.6402	1196.9	319.5
1047.8864	3192.5818	1191.6	311.15
1047.9898	3193.5229	1212.2	317.55
1048.0931	3194.4633	1189.7	311.15
1048.1963	3195.4031	1192.5	314.85
1048.2995	3196.3423	1197.65	320.4
1048.4027	3197.2809	1187.7	309.5
1048.5058	3198.2189	1184.05	306.3
1048.6089	3199.1563	1203.7	306.55
1048.7119	3200.0931	1182.45	303.7
1048.8148	3201.0292	1182.35	304.85
1048.9178	3201.9648	1177.9	297.25
1049.0206	3202.8997	1180.65	297.45
1049.1235	3203.834	1180.6	303.95
1049.2262	3204.7677	1179.3	302.05
1049.329	3205.7008	1179.6	301.15
1049.4317	3206.6333	1169.6	291.7
1049.5343	3207.5652	1173	291.9
1049.6369	3208.4964	1166.85	288.2
1049.7394	3209.4271	1165.75	286.35
1049.8419	3210.3571	1171.15	294.9
1049.9444	3211.2865	1167.6	285.8
1050.0468	3212.2154	1163.65	282.8
1050.1491	3213.1436	1164.65	283.05
1050.2514	3214.0712	1167.7	283.6
1050.3537	3214.9982	1160.1	281.85
1050.4559	3215.9246	1159.95	279.75
1050.5581	3216.8503	1155.35	276.5
1050.6602	3217.7755	1159.8	281.1
1050.7623	3218.7001	1150.65	270.3
1050.8643	3219.624	1151.8	273.1
1050.9663	3220.5473	1153.2	272.3
1051.0682	3221.4701	1151.8	271.05
1051.1701	3222.3922	1152	269.2
1051.2719	3223.3137	1151.15	272.2
1051.3737	3224.2346	1144.85	265.8
1051.4754	3225.1549	1144.85	266.45
1051.5771	3226.0746	1143.15	266.2
1051.6788	3226.9937	1137.2	258.35
1051.7804	3227.9121	1138.7	261.05
1051.8819	3228.83	1135.15	258
1051.9834	3229.7473	1138.25	260.85
1052.0849	3230.6639	1132.75	253.9
1052.1863	3231.5799	1131.55	251.05
1052.2876	3232.4954	1130.65	251.35
1052.3889	3233.4102	1126.65	249.2
1052.4902	3234.3244	1129.45	250.15
1052.5914	3235.238	1127.35	248.15
1052.6926	3236.151	1147.75	246.85
1052.7937	3237.0634	1123.7	244.95
1052.8948	3237.9752	1125.5	247.05
1052.9958	3238.8864	1122.45	244.4
1053.0968	3239.797	1119.45	239.85
1053.1977	3240.7069	1115.4	233.85
1053.2986	3241.6163	1118.1	236.05
1053.3994	3242.5251	1115.45	237.6
1053.5002	3243.4332	1111.3	232.9
1053.6009	3244.3408	1112.2	233.75
1053.7016	3245.2477	1110.3	230.6
1053.8022	3246.154	1110.75	229.95
1053.9028	3247.0598	1110.65	231.9
1054.0034	3247.9649	1113.7	234.3
1054.1039	3248.8694	1101.55	222.4
1054.2043	3249.7733	1103.3	224.05
1054.3047	3250.6766	1106.5	228.65
1054.4051	3251.5793	1101.75	221.4
1054.5054	3252.4814	1102.8	223.6
1054.6056	3253.3829	1099.75	218.6
1054.7058	3254.2838	1097.35	218.9
1054.806	3255.1841	1094.5	216.05
1054.9061	3256.0838	1094.95	215.75
1055.0061	3256.9829	1097.15	220
1055.1062	3257.8814	1090.85	207.05
1055.2061	3258.7792	1088.2	207.9
1055.306	3259.6765	1089.85	210.35
1055.4059	3260.5731	1084.7	205.8
1055.5057	3261.4692	1082.65	202.65
1055.6055	3262.3647	1079.05	197.85
1055.7052	3263.2595	1075.5	195.85
1055.8049	3264.1538	1072.1	193.5
1055.9045	3265.0474	1069.55	191.7
1056.0041	3265.9404	1066.5	187.85
1056.1036	3266.8329	1064.2	186.8
1056.2031	3267.7247	1071.25	182.35
1056.3025	3268.616	1060.15	183.1
1056.4019	3269.5066	1053	173.1
1056.5013	3270.3966	1049.95	169.75
1056.6005	3271.286	1041.25	162.7
