Software Version:	3.9.2.0
Unit SN:	10000200
Spectrometer SN:	6960
Date:	3/6/2024 9:55:59 AM
Data Line Index:	25
Spectral Points:	2048
Integration time (ms):	125
Averages:	20
Delay (ms):	30
Sequence Number:	1
Processing:	dark subtract
Laser Power (mW):	305
Laser Current (mA):	826
Laser Diode Temp (C):	25.1
Laser Case Temp (C):	24.5
System Temp (C):	24.3
Spectrometer Temp (C):	22
CCD Temp (C):	-0.006
Secondary Temp (C):	20.008
Heatsink Temp (C):	18.329
CCDPCB Temp (C):	31.094
SecondaryPCB Temp (C):	26.191

Wavelength	RamanShift	Raw Counts	Dark Subtracted
787.061	30.1047	561.15	151.65
787.2016	32.3739	565.8	158.7
787.3422	34.6426	572.35	163.85
787.4828	36.9109	588.25	179.1
787.6235	39.1787	602.65	189.1
787.7642	41.4461	621.55	204
787.9049	43.7131	631.7	210.7
788.0456	45.9796	646.7	224.2
788.1863	48.2456	664.75	236.8
788.3271	50.5112	682.65	250.6
788.4679	52.7764	701.4	267.85
788.6087	55.0411	721.05	281.65
788.7496	57.3054	741.4	299.4
788.8904	59.5692	763.1	321.3
789.0313	61.8326	786.6	340.3
789.1722	64.0955	808.85	358.3
789.3132	66.3579	844.65	388.35
789.4541	68.6199	881.3	422.45
789.5951	70.8815	953	490
789.7361	73.1426	1094	627.35
789.8771	75.4032	1476.85	1005.85
790.0181	77.6634	2383.5	1908.9
790.1592	79.9231	4651.7	4174.75
790.3003	82.1824	9615.6	9128.05
790.4414	84.4412	18688.45	18187.3
790.5825	86.6995	32090.7	31573.4
790.7237	88.9574	42802.65	42272.6
790.8648	91.2148	49661.25	49124.45
791.006	93.4717	51923.6	51376.9
791.1472	95.7282	53039	52491.2
791.2885	97.9842	53601.8	53048.75
791.4297	100.2398	53673.4	53119.45
791.571	102.4949	53642.6	53084.45
791.7123	104.7495	53816.25	53256.35
791.8536	107.0036	53533.55	52973.45
791.9949	109.2573	54014.55	53456.35
792.1363	111.5105	53673.35	53110.45
792.2777	113.7632	53879.2	53313.7
792.4191	116.0154	54040.7	53465.6
792.5605	118.2672	54404.75	53835.65
792.7019	120.5185	54406.9	53835.85
792.8434	122.7693	54431.9	53856.8
792.9849	125.0197	54060.85	53481.6
793.1264	127.2696	54958.15	54373.8
793.2679	129.519	54875.65	54290.2
793.4094	131.7679	55273.45	54684.6
793.551	134.0163	54359.8	53767.95
793.6926	136.2642	54788.95	54193
793.8342	138.5117	55360.45	54759.95
793.9758	140.7587	55153.2	54556.1
794.1175	143.0052	55210.35	54606.9
794.2591	145.2512	54764	54164.2
794.4008	147.4967	55334.75	54731.15
794.5425	149.7417	55183.25	54578.5
794.6842	151.9863	55248.2	54635.75
794.826	154.2304	54890.6	54280.1
794.9677	156.4739	55211.5	54590.55
795.1095	158.717	55602.45	54982.2
795.2513	160.9596	55370.55	54747.8
795.3931	163.2017	54941.65	54314.45
795.535	165.4433	55473.95	54845.5
795.6768	167.6844	55234.9	54606.8
795.8187	169.925	55551.35	54919.45
795.9606	172.1651	55283.95	54648.8
796.1025	174.4047	55434.05	54792.85
796.2445	176.6439	55454.55	54810.45
796.3864	178.8825	55371.3	54725.2
796.5284	181.1206	55775.3	55125.4
796.6704	183.3582	55764.9	55111.75
796.8124	185.5954	55565.2	54911.4
796.9544	187.832	55700.15	55038.05
797.0965	190.0681	55414.2	54753.35
797.2386	192.3037	55977.65	55315
797.3806	194.5388	56550.55	55884.8
797.5228	196.7734	55247.8	54580.2
797.6649	199.0075	56448.2	55775.85
797.807	201.2411	56057.5	55387.8
797.9492	203.4742	56775.6	56102.75
798.0914	205.7068	56622.3	55940.75
798.2336	207.9389	56590.45	55910.5
798.3758	210.1704	56569.25	55897.85
798.518	212.4015	57044.8	56381.6
798.6603	214.632	56443.5	55783.05
798.8025	216.862	57139.9	56483.05
798.9448	219.0915	56874.75	56215.25
799.0871	221.3205	56757.5	56096.95
799.2294	223.549	57271.45	56615.5
799.3718	225.777	57240.75	56583.45
799.5141	228.0044	57507.45	56838.65
799.6565	230.2314	57272.85	56604.75
799.7989	232.4578	57289.35	56617.6
799.9413	234.6837	57380.35	56703.2
800.0837	236.909	58391.45	57712.1
800.2262	239.1339	57057.8	56351.9
800.3687	241.3582	57677.8	56987.8
800.5111	243.582	57711.85	56986.3
800.6536	245.8053	57732.3	57022.05
800.7961	248.0281	57818.75	57112.95
800.9387	250.2503	58014.25	57307.6
801.0812	252.472	57604.1	56892.85
801.2238	254.6932	57954.8	57247.75
801.3664	256.9139	57785.85	57074.9
801.509	259.134	58701.75	57985.35
801.6516	261.3536	57687.15	56973.7
801.7942	263.5727	58251	57536.1
801.9369	265.7912	57988.2	57274.3
802.0795	268.0092	58181.65	57464.8
802.2222	270.2267	58333.6	57616.6
802.3649	272.4436	57882.95	57166
802.5076	274.6601	58364.15	57636.95
802.6504	276.8759	58529.05	57806.8
802.7931	279.0913	58276.05	57552.8
802.9359	281.3061	58476.05	57748.7
803.0787	283.5204	58483.75	57752.55
803.2215	285.7341	58446.6	57715.7
803.3643	287.9473	58866.15	58124.6
803.5071	290.16	58541.3	57806.35
803.6499	292.3721	58725.85	57997.85
803.7928	294.5837	58396.55	57665.4
803.9357	296.7947	58105.6	57374.05
804.0786	299.0052	58803.65	58071.6
804.2215	301.2152	58514.05	57778
804.3644	303.4246	58774.2	58038.95
804.5074	305.6334	58785.35	58052.55
804.6503	307.8418	58335.35	57597.85
804.7933	310.0495	58379.35	57638.5
804.9363	312.2568	58377.7	57638.75
805.0793	314.4635	58393.6	57651.55
805.2223	316.6696	58623	57878.3
805.3653	318.8752	58784.1	58029.65
805.5084	321.0802	57835.1	57089.05
805.6514	323.2847	58297.15	57550.7
805.7945	325.4887	58213.25	57462.95
805.9376	327.692	58047.7	57296.7
806.0807	329.8949	58358.35	57607.8
806.2238	332.0972	58129.3	57373.65
806.367	334.2989	58352.7	57595.05
806.5101	336.5001	58667.8	57908.45
806.6533	338.7007	57963.65	57204.8
806.7965	340.9008	58388.2	57630.6
806.9397	343.1003	58418.3	57657.35
807.0829	345.2992	58626.7	57866.8
807.2261	347.4976	58244.15	57481.3
807.3693	349.6955	58454.65	57685.45
807.5126	351.8927	58148.5	57380.45
807.6559	354.0895	58480.4	57702
807.7991	356.2856	58439.8	57669.95
807.9424	358.4812	58689.6	57919
808.0857	360.6763	58152.4	57378.65
808.2291	362.8707	58698.5	57924.2
808.3724	365.0646	58340.55	57563.45
808.5158	367.258	58340.35	57562.45
808.6591	369.4508	57980.1	57197.2
808.8025	371.643	58590.95	57807.4
808.9459	373.8346	58320.55	57538.3
809.0893	376.0257	58414.25	57627
809.2327	378.2162	58279.9	57496.4
809.3762	380.4062	57844.45	57057.2
809.5196	382.5956	58242.1	57458.55
809.6631	384.7844	58191.15	57412.85
809.8066	386.9726	58365.75	57587.3
809.9501	389.1603	58328.15	57552.8
810.0936	391.3474	57942.15	57134.95
810.2371	393.5339	58278.9	57498.9
810.3806	395.7199	57727.35	56950.25
810.5241	397.9052	57850.5	57074.3
810.6677	400.09	57977.65	57197.95
810.8113	402.2743	58347.55	57566.8
810.9548	404.4579	57865.85	57083.85
811.0984	406.641	57884.2	57101.5
811.2421	408.8235	58081.1	57295.85
811.3857	411.0054	58127.95	57342.2
811.5293	413.1868	58176.6	57387.55
811.673	415.3675	58000.55	57204.75
811.8166	417.5477	58034.75	57241.1
811.9603	419.7273	57998.75	57201.45
812.104	421.9064	57871.75	57064.45
812.2477	424.0848	57904	57107.45
812.3914	426.2627	58189	57392.15
812.5351	428.4399	57676.2	56875.55
812.6788	430.6166	57269.85	56463.15
812.8226	432.7928	57783.35	56975.8
812.9663	434.9683	57356.7	56552.2
813.1101	437.1432	57383.75	56577.4
813.2539	439.3176	57707.35	56905.3
813.3977	441.4914	57076.6	56274.3
813.5415	443.6645	57166.9	56362.15
813.6853	445.8371	57224.4	56421.45
813.8291	448.0091	56948.2	56143.7
813.973	450.1806	56780.6	55974.65
814.1168	452.3514	56841.85	56034.3
814.2607	454.5216	56531.95	55718.2
814.4046	456.6913	56797.55	55989.5
814.5485	458.8603	56897.65	56089.25
814.6924	461.0288	56492.15	55686
814.8363	463.1967	56848.8	56039.5
814.9802	465.3639	56778.55	55969.65
815.1241	467.5306	56126.35	55314.1
815.2681	469.6967	56518	55708.95
815.412	471.8622	56656.7	55847.15
815.556	474.0271	56403.1	55593.4
815.7	476.1914	56423.05	55609.05
815.844	478.3551	56479.9	55667.5
815.988	480.5182	56849.1	56037.65
816.132	482.6807	56261.85	55450.45
816.276	484.8426	56365.05	55557.25
816.4201	487.0039	56853.35	56042.4
816.5641	489.1647	56768.4	55953.45
816.7082	491.3248	56212.9	55398.75
816.8522	493.4843	56815.7	56002.75
816.9963	495.6432	56827.8	56012.95
817.1404	497.8015	56209.45	55389.15
817.2845	499.9592	56518.2	55695.9
817.4286	502.1163	56486.55	55662.55
817.5727	504.2728	56446.1	55623.25
817.7168	506.4287	56445.8	55628.5
817.861	508.5839	56132.95	55312.6
818.0051	510.7386	56336.05	55515.7
818.1493	512.8927	56442.35	55618.2
818.2935	515.0461	56283.75	55459.95
818.4377	517.199	56562.9	55736.65
818.5818	519.3512	56285.2	55459.85
818.726	521.5029	56238.75	55408.65
818.8703	523.6539	56356	55529.65
819.0145	525.8043	55906.85	55077.2
819.1587	527.9541	56225.55	55395.75
819.303	530.1033	56169.4	55339.1
819.4472	532.2519	55966.3	55135.3
819.5915	534.3999	56204.95	55373.6
819.7357	536.5472	56355.05	55522.4
819.88	538.694	55772.8	54946.8
820.0243	540.8401	56057.55	55222.7
820.1686	542.9856	56056.5	55220.5
820.3129	545.1305	56190.95	55348.55
820.4572	547.2748	55915.75	55078
820.6016	549.4185	55931.9	55090.85
820.7459	551.5615	56132.4	55294.7
820.8902	553.704	56012.65	55175.9
821.0346	555.8458	55802.65	54969.25
821.1789	557.987	55914.5	55079.55
821.3233	560.1276	56028.2	55193.55
821.4677	562.2675	55851.9	55017.95
821.6121	564.4069	55894.1	55058.9
821.7565	566.5456	56131.85	55293.45
821.9009	568.6837	55700.75	54865.45
822.0453	570.8212	55897.2	55060.5
822.1897	572.958	55315.15	54475.95
822.3342	575.0942	55735.85	54899.35
822.4786	577.2299	55392.2	54556.85
822.6231	579.3648	55256.35	54424.55
822.7675	581.4992	55116.2	54285
822.912	583.6329	55052.25	54221.1
823.0565	585.766	55026.35	54193.4
823.201	587.8985	55125.35	54292.45
823.3454	590.0304	54609.85	53758.35
823.4899	592.1616	55019.35	54174.35
823.6345	594.2922	54798.65	53956.35
823.779	596.4222	54538.4	53695
823.9235	598.5515	54534.3	53688.45
824.068	600.6802	54646.15	53801.75
824.2126	602.8083	54195.2	53351.75
824.3571	604.9358	54215.65	53370.85
824.5017	607.0626	54441.55	53591.85
824.6462	609.1888	54007.05	53158.65
824.7908	611.3144	54286	53435.8
824.9354	613.4393	54057.65	53208.8
825.08	615.5636	53896.75	53048.45
825.2246	617.6873	54099	53250.3
825.3692	619.8103	53870.65	53018.85
825.5138	621.9327	54073.25	53218.25
825.6584	624.0544	54104	53259.35
825.803	626.1756	53874.5	53026.75
825.9477	628.2961	53870.95	53017.45
826.0923	630.4159	53640.55	52787.35
826.237	632.5351	53608.65	52755.6
826.3816	634.6537	53988.45	53134.35
826.5263	636.7716	53475.15	52620.15
826.6709	638.8889	53638.65	52780.25
826.8156	641.0056	53563.4	52706.7
826.9603	643.1216	53677.2	52820.2
827.105	645.237	53771.7	52915.05
827.2497	647.3518	53442.75	52591
827.3944	649.4659	53517.65	52664.8
827.5391	651.5793	53455.75	52603.1
827.6838	653.6922	53490.7	52637.15
827.8285	655.8043	53231.15	52378.6
827.9733	657.9159	53650.25	52795.9
828.118	660.0268	52849.6	51994.55
828.2627	662.137	53163.05	52308
828.4075	664.2466	53231.3	52371.05
828.5522	666.3556	53104.65	52246
828.697	668.4639	53083.55	52224.85
828.8418	670.5716	53006.5	52152.8
828.9865	672.6786	53095.5	52235.9
829.1313	674.785	52774.3	51911.8
829.2761	676.8907	52764.9	51905.5
829.4209	678.9958	52806	51949.65
829.5657	681.1002	52870.05	52011.45
829.7105	683.204	52574.25	51708.8
829.8553	685.3072	52472.9	51608.9
830.0001	687.4097	52478.25	51614.2
830.1449	689.5115	52480	51614.4
830.2898	691.6127	52624.95	51766
830.4346	693.7132	52381.3	51522.3
830.5794	695.8131	52435.85	51551.85
830.7243	697.9123	52447.05	51586.15
830.8691	700.0109	52476.4	51610.1
831.014	702.1089	52182.15	51316.6
831.1588	704.2061	52294.6	51430.1
831.3037	706.3028	52262.1	51397.85
831.4486	708.3987	52247.35	51381.95
831.5935	710.4941	52110.75	51247.9
831.7383	712.5887	52189.75	51325.25
831.8832	714.6827	52098.75	51230.2
832.0281	716.7761	52161.55	51296.35
832.173	718.8688	52182.3	51316
832.3179	720.9608	51966.45	51094.1
832.4628	723.0522	52033.55	51160.4
832.6077	725.1429	51819.35	50950.5
832.7527	727.233	52202.6	51330.6
832.8976	729.3224	51650.35	50781.2
833.0425	731.4112	51806.1	50937.4
833.1874	733.4993	51738.75	50865.1
833.3324	735.5867	51649.9	50782.6
833.4773	737.6735	51506.7	50634.1
833.6222	739.7596	51310.8	50438.15
833.7672	741.845	51265.05	50393
833.9122	743.9298	51364.1	50488.25
834.0571	746.014	51156.1	50285.75
834.2021	748.0974	50976.5	50102
834.347	750.1802	51182.95	50309.8
834.492	752.2624	50730.7	49856.55
834.637	754.3439	50695.25	49819.6
834.782	756.4247	50691.7	49808
834.9269	758.5048	50425.35	49549.55
835.0719	760.5843	50475.3	49598.35
835.2169	762.6631	50486.95	49614.45
835.3619	764.7413	50377.65	49501.4
835.5069	766.8188	50415.65	49541.05
835.6519	768.8956	50428.45	49548.3
835.7969	770.9718	50439.3	49562.45
835.9419	773.0473	50261.15	49384.1
836.0869	775.1221	49997.4	49124.5
836.232	777.1962	49946.4	49068.4
836.377	779.2697	49722.95	48846.05
836.522	781.3426	49846.5	48949.25
836.667	783.4147	49811.9	48934.6
836.8121	785.4862	49702.35	48825.25
836.9571	787.557	49433.95	48557.3
837.1021	789.6271	49578.15	48700.3
837.2472	791.6966	49315.9	48439.3
837.3922	793.7654	49049.85	48172.85
837.5373	795.8335	49020.8	48143
837.6823	797.901	49006.9	48130.9
837.8274	799.9678	48803.4	47921.1
837.9724	802.0339	48748.3	47871.4
838.1175	804.0993	48761.65	47870.75
838.2626	806.1641	48555.35	47675.25
838.4076	808.2282	48488.75	47608.55
838.5527	810.2916	48469.8	47588.05
838.6978	812.3544	48585.55	47707.95
838.8428	814.4164	48254.55	47375.35
838.9879	816.4778	48266.75	47384.85
839.133	818.5385	48156.75	47273.6
839.2781	820.5986	48138.1	47258.15
839.4232	822.658	48218.65	47335
839.5682	824.7166	48139.75	47260.6
839.7133	826.7747	48076.25	47195.75
839.8584	828.832	48130.4	47248.65
840.0035	830.8886	48135.6	47250.95
840.1486	832.9446	48131.1	47246.1
840.2937	834.9999	47758.85	46877.75
840.4388	837.0545	47843.2	46953.25
840.5839	839.1085	47770.5	46884.6
840.729	841.1618	47612.65	46727.1
840.8741	843.2143	47402.25	46519.45
841.0192	845.2662	47329.25	46447.45
841.1643	847.3175	47408.95	46527.8
841.3095	849.368	47115.05	46231.75
841.4546	851.4179	47249.55	46366.15
841.5997	853.467	46933.35	46050.85
841.7448	855.5155	46985.5	46101.35
841.8899	857.5633	46767.6	45883.25
842.0351	859.6105	46681.4	45794.45
842.1802	861.6569	46733.7	45847.15
842.3253	863.7027	46542.3	45653.9
842.4704	865.7478	46587.15	45700.65
842.6156	867.7922	46488.35	45602.4
842.7607	869.8359	46486.35	45600.4
842.9058	871.8789	46227	45340.85
843.0509	873.9212	46289.45	45371.3
843.1961	875.9629	46212.2	45325.25
843.3412	878.0039	46227.45	45341.6
843.4863	880.0441	46153.55	45267.45
843.6315	882.0837	46146.6	45258.8
843.7766	884.1226	46165	45278.5
843.9218	886.1609	46114.55	45228.15
844.0669	888.1984	46053.95	45168.2
844.212	890.2352	46215.8	45327.8
844.3572	892.2714	45991.05	45101.95
844.5023	894.3069	46006.05	45119.45
844.6475	896.3416	45854.3	44966.35
844.7926	898.3757	45824.8	44936.5
844.9377	900.4091	45599.7	44711.9
845.0829	902.4418	45708	44814.5
845.228	904.4739	45484.95	44595.4
845.3732	906.5052	45532.15	44644
845.5183	908.5358	45393.45	44504.85
845.6635	910.5658	45274	44382.75
845.8086	912.595	45224.25	44335.3
845.9538	914.6236	44998.8	44110.65
846.0989	916.6515	45169.35	44279.05
846.2441	918.6786	44839.8	43949.65
846.3892	920.7051	44853	43960.35
846.5344	922.7309	44886	43997.8
846.6795	924.756	44783.8	43896
846.8246	926.7804	44703.7	43812.2
846.9698	928.8041	44377.75	43485.75
847.1149	930.8272	44491.75	43604
847.2601	932.8495	44321.55	43429.6
847.4052	934.8711	44266.65	43374.65
847.5504	936.892	44131.65	43242
847.6955	938.9123	44066.1	43174.2
847.8407	940.9318	43976.9	43086.2
847.9858	942.9506	43839.3	42947.25
848.131	944.9688	43720.35	42828.5
848.2761	946.9862	43566.6	42675.75
848.4213	949.003	43462.45	42569.85
848.5664	951.019	43284.15	42390.45
848.7115	953.0344	43181.2	42288.75
848.8567	955.0491	43116.55	42224.85
849.0018	957.063	43177.8	42285.75
849.147	959.0763	43189.2	42298.1
849.2921	961.0888	43015.6	42120.45
849.4373	963.1007	43077.4	42185.35
849.5824	965.1119	43008.15	42119.65
849.7275	967.1223	42919.95	42032.4
849.8727	969.1321	42856.1	41968.25
850.0178	971.1412	42728.95	41840.1
850.1629	973.1495	42622.95	41730.05
850.3081	975.1572	42627.15	41701.35
850.4532	977.1641	42602.65	41708.6
850.5983	979.1704	42446.4	41551.85
850.7435	981.1759	42418.85	41523
850.8886	983.1808	42297	41401.15
851.0337	985.1849	42206.7	41303.3
851.1788	987.1884	42160.75	41265.9
851.324	989.1911	42144.55	41249.6
851.4691	991.1932	41896.75	41002.85
851.6142	993.1945	41835.5	40943.75
851.7593	995.1951	41702.95	40812.95
851.9045	997.1951	41581.7	40683.4
852.0496	999.1943	41479.5	40586.65
852.1947	1001.1928	41303.4	40408.1
852.3398	1003.1906	41184.1	40290
852.4849	1005.1877	41006.7	40111.45
852.63	1007.1841	40869.15	39972.3
852.7751	1009.1798	40831.1	39941.15
852.9202	1011.1748	40727.6	39833.45
853.0653	1013.1691	40599.55	39706.05
853.2104	1015.1627	40229.15	39336.3
853.3555	1017.1556	40153.65	39259.4
853.5006	1019.1477	40076.3	39183.7
853.6457	1021.1392	39819.9	38929.1
853.7908	1023.1299	39593.55	38702.2
853.9359	1025.12	39543.9	38654.65
854.081	1027.1093	39318.9	38431.45
854.2261	1029.0979	39249.15	38365.25
854.3712	1031.0859	39154.2	38267.5
854.5163	1033.0731	38978.15	38087.35
854.6613	1035.0596	38949.65	38059.6
854.8064	1037.0454	38721.15	37829.3
854.9515	1039.0304	38652.3	37758.55
855.0965	1041.0148	38400.8	37507.55
855.2416	1042.9985	38346	37451.05
855.3867	1044.9814	38388.9	37496.75
855.5317	1046.9636	38103.1	37207.8
855.6768	1048.9452	38005.95	37114.1
855.8219	1050.926	37900.2	37006.9
855.9669	1052.9061	37909.25	37014.4
856.112	1054.8855	37842.1	36946.35
856.257	1056.8642	37708.3	36813.6
856.4021	1058.8421	37628.2	36732.55
856.5471	1060.8194	37520.35	36626.25
856.6921	1062.7959	37439.15	36546.25
856.8372	1064.7717	37439.25	36544.55
856.9822	1066.7469	37363.35	36467.1
857.1272	1068.7213	37282.95	36386.45
857.2723	1070.695	37228.3	36334.1
857.4173	1072.6679	37026.8	36131.2
857.5623	1074.6402	37093.25	36197.35
857.7073	1076.6117	36995.15	36094.85
857.8523	1078.5826	36944.75	36049.7
857.9973	1080.5527	36832.6	35933.45
858.1423	1082.5221	36669.4	35773.9
858.2873	1084.4908	36645.4	35749.75
858.4323	1086.4587	36480.4	35583.7
858.5773	1088.426	36463.5	35566.9
858.7223	1090.3925	36307.6	35405.9
858.8673	1092.3584	36308.35	35408.9
859.0123	1094.3235	36073.25	35178.5
859.1573	1096.2879	36041.1	35143.6
859.3022	1098.2515	36063.6	35169.3
859.4472	1100.2145	36060.4	35165.9
859.5922	1102.1767	35944.15	35046.45
859.7371	1104.1382	35919.95	35023.75
859.8821	1106.099	35876.95	34980.05
860.027	1108.0591	35767.4	34871.25
860.172	1110.0185	35651.95	34755.65
860.3169	1111.9771	35690.1	34795.85
860.4619	1113.9351	35505.35	34608.7
860.6068	1115.8923	35478.5	34582.4
860.7517	1117.8488	35320.15	34422.9
860.8967	1119.8045	35151.75	34255.65
861.0416	1121.7596	35077.75	34182.75
861.1865	1123.7139	34914.6	34019.1
861.3314	1125.6675	34821.15	33924.6
861.4763	1127.6204	34825	33930
861.6212	1129.5726	34703.9	33807.55
861.7661	1131.524	34695.6	33798.65
861.911	1133.4748	34652.05	33755.3
862.0559	1135.4248	34495.85	33596.15
862.2008	1137.3741	34352.25	33457.25
862.3457	1139.3226	34305.3	33406.85
862.4905	1141.2705	34305.85	33408.45
862.6354	1143.2176	34053.65	33153.9
862.7803	1145.164	34070.3	33171.65
862.9251	1147.1097	33961.25	33064.9
863.07	1149.0546	33936	33038.25
863.2148	1150.9989	33911.2	33013.1
863.3597	1152.9424	33818.05	32920.8
863.5045	1154.8852	33721.8	32825.4
863.6493	1156.8272	33686.65	32791
863.7942	1158.7686	33751.35	32848.65
863.939	1160.7092	33558.45	32660.75
864.0838	1162.6491	33471.9	32575.3
864.2286	1164.5883	33467.6	32570.2
864.3734	1166.5267	33448.55	32551.6
864.5182	1168.4644	33421.1	32524.15
864.663	1170.4014	33376.5	32474.4
864.8078	1172.3377	33465.1	32569.65
864.9526	1174.2732	33455.95	32561.5
865.0974	1176.2081	33462.95	32566.55
865.2421	1178.1421	33513.25	32613.25
865.3869	1180.0755	33572.8	32676.5
865.5317	1182.0082	33481.9	32584.95
865.6764	1183.9401	33453.3	32556.65
865.8212	1185.8713	33238.8	32344
865.9659	1187.8017	33108	32214.15
866.1106	1189.7315	32991.35	32102.5
866.2554	1191.6605	32731.15	31841.95
866.4001	1193.5888	32633.7	31743
866.5448	1195.5163	32491.85	31598.9
866.6895	1197.4432	32421.65	31527.25
866.8342	1199.3693	32281.15	31385.35
866.9789	1201.2947	32183.1	31279.6
867.1236	1203.2193	32069.1	31170.3
867.2683	1205.1432	31982.55	31085.45
867.413	1207.0664	31901.35	31007.4
867.5576	1208.9889	31826.55	30928.55
867.7023	1210.9106	31639.95	30743.7
867.847	1212.8316	31535.5	30639.9
867.9916	1214.7519	31551.25	30647.35
868.1363	1216.6715	31428.3	30535.45
868.2809	1218.5903	31391.85	30496.9
868.4255	1220.5084	31348.8	30452.1
868.5701	1222.4257	31338.3	30442.3
868.7148	1224.3424	31199.65	30303.2
868.8594	1226.2583	31168.2	30268.1
869.004	1228.1735	31142.95	30247.35
869.1486	1230.0879	31016.55	30121
869.2932	1232.0016	30981.1	30083.3
869.4377	1233.9146	30933.65	30036.95
869.5823	1235.8269	30824.85	29929.25
869.7269	1237.7384	30877	29980.85
869.8715	1239.6492	30714.85	29819.25
870.016	1241.5592	30718.45	29821.65
870.1606	1243.4686	30624.3	29727.95
870.3051	1245.3772	30650.55	29754.85
870.4496	1247.285	30600.15	29701.7
870.5941	1249.1922	30596.5	29698.75
870.7387	1251.0986	30574.8	29680
870.8832	1253.0042	30484.5	29588.45
871.0277	1254.9092	30513.9	29617.2
871.1722	1256.8134	30438.75	29545
871.3167	1258.7169	30494.9	29597.85
871.4611	1260.6196	30396.65	29502.25
871.6056	1262.5216	30400.65	29503.85
871.7501	1264.4229	30338.9	29446.65
871.8945	1266.3234	30340.75	29446.15
872.039	1268.2232	30261.65	29362.5
872.1834	1270.1223	30175.7	29277.2
872.3278	1272.0207	30143.95	29246.9
872.4723	1273.9183	30046.8	29140.6
872.6167	1275.8151	29996.55	29099.7
872.7611	1277.7113	29993.25	29096.3
872.9055	1279.6067	29939.95	29043.15
873.0499	1281.5014	29970.3	29069.95
873.1943	1283.3953	30040.7	29142.25
873.3386	1285.2885	30112.65	29218.05
873.483	1287.181	30208.95	29311.8
873.6274	1289.0727	30308.25	29412.75
873.7717	1290.9637	30263	29366.35
873.9161	1292.854	30272.45	29377.55
874.0604	1294.7435	30147.3	29251.25
874.2047	1296.6323	30049.75	29152.15
874.349	1298.5204	29943.55	29045.75
874.4933	1300.4077	29842.25	28944.65
874.6376	1302.2943	29744.4	28848.9
874.7819	1304.1802	29676.85	28780.6
874.9262	1306.0653	29536.35	28638.05
875.0705	1307.9497	29394.2	28498.6
875.2147	1309.8333	29258.05	28360.1
875.359	1311.7162	29196.35	28299.45
875.5032	1313.5984	29114.4	28215
875.6475	1315.4798	29016.45	28118.85
875.7917	1317.3605	28955.2	28042.85
875.9359	1319.2405	28884.75	27986.15
876.0801	1321.1197	28785.25	27885.35
876.2243	1322.9982	28604.75	27702.6
876.3685	1324.876	28581	27684.85
876.5127	1326.753	28458.5	27562.5
876.6569	1328.6293	28396.8	27498.1
876.801	1330.5048	28333.15	27432.6
876.9452	1332.3796	28217.6	27321.05
877.0893	1334.2537	28188.15	27266.3
877.2335	1336.127	28065.9	27168.05
877.3776	1337.9996	28001.8	27104.65
877.5217	1339.8714	27919.6	27023.7
877.6658	1341.7426	27908.5	26970.4
877.8099	1343.6129	27857	26959.1
877.954	1345.4826	27748.9	26852.45
878.0981	1347.3515	27764.45	26865.9
878.2422	1349.2196	27656.15	26759.05
878.3862	1351.087	27666.15	26769.1
878.5303	1352.9537	27604.5	26706.6
878.6743	1354.8197	27617.05	26718.7
878.8184	1356.6849	27631.4	26732.9
878.9624	1358.5493	27631.1	26732.7
879.1064	1360.4131	27557.65	26660.2
879.2504	1362.276	27519.55	26622.55
879.3944	1364.1383	27458.2	26562.4
879.5384	1365.9998	27335.35	26432.1
879.6823	1367.8606	27255.1	26355.15
879.8263	1369.7206	27217.65	26321.4
879.9702	1371.5799	27099.2	26199.05
880.1142	1373.4384	26978.5	26079.65
880.2581	1375.2962	26931.95	26034.3
880.402	1377.1533	26692.95	25797.8
880.5459	1379.0096	26553.6	25657.45
880.6898	1380.8652	26453.05	25558.9
880.8337	1382.7201	26329.2	25433.5
880.9776	1384.5742	26185.25	25285.95
881.1215	1386.4275	26073.9	25176.95
881.2653	1388.2802	25974.85	25077.8
881.4092	1390.132	25823.9	24926.75
881.553	1391.9832	25864.25	24965.6
881.6968	1393.8336	25672.25	24774.05
881.8406	1395.6832	25588.95	24691.15
881.9844	1397.5322	25470.45	24572.1
882.1282	1399.3803	25397.3	24493.9
882.272	1401.2278	25264.25	24367.65
882.4158	1403.0745	25249.6	24354.75
882.5595	1404.9204	25123.45	24228.05
882.7033	1406.7656	25112.05	24217.45
882.847	1408.6101	24985.4	24084.85
882.9908	1410.4538	24888.25	23992.6
883.1345	1412.2968	24850.35	23952.5
883.2782	1414.139	24755.75	23857.9
883.4219	1415.9805	24748.3	23852.9
883.5656	1417.8213	24644.35	23740.9
883.7092	1419.6613	24566.6	23671.2
883.8529	1421.5006	24562.95	23665.35
883.9965	1423.3391	24526.9	23630
884.1402	1425.1769	24451.15	23554.6
884.2838	1427.0139	24526.3	23630.8
884.4274	1428.8502	24599.2	23701.9
884.571	1430.6858	24601.7	23703
884.7146	1432.5206	24535.45	23638.95
884.8582	1434.3547	24547.4	23651.05
885.0018	1436.188	24509.75	23613.45
885.1453	1438.0206	24466.85	23570.65
885.2889	1439.8524	24341.1	23443
885.4324	1441.6835	24306.95	23410.55
885.5759	1443.5139	24255.25	23356.05
885.7194	1445.3435	24150.2	23253.15
885.8629	1447.1724	24164.05	23268.35
886.0064	1449.0005	24100.4	23202.9
886.1499	1450.8279	24091.3	23195.8
886.2933	1452.6545	24043.3	23148.2
886.4368	1454.4804	24035.55	23141.9
886.5802	1456.3056	23954.9	23052.15
886.7237	1458.13	23888.9	22993.3
886.8671	1459.9536	23869	22972
887.0105	1461.7766	23808.4	22914.15
887.1539	1463.5987	23676.5	22780.8
887.2972	1465.4202	23559.95	22664.85
887.4406	1467.2409	23448.7	22554.85
887.584	1469.0608	23403.25	22507.55
887.7273	1470.88	23306.6	22408.1
887.8706	1472.6984	23290.6	22394.95
888.0139	1474.5161	23191.8	22293.7
888.1572	1476.3331	23098.2	22204.05
888.3005	1478.1493	23029.55	22130.65
888.4438	1479.9648	23018.5	22121.05
888.5871	1481.7795	22995.75	22100.8
888.7303	1483.5935	22940.75	22047.15
888.8736	1485.4067	22867	21971.35
889.0168	1487.2192	22857.75	21963.15
889.16	1489.031	22811.6	21913.5
889.3032	1490.842	22748.35	21853.65
889.4464	1492.6522	22730.7	21833.75
889.5896	1494.4618	22655.45	21757.7
889.7327	1496.2705	22622.1	21729
889.8759	1498.0785	22601.4	21707.25
890.019	1499.8858	22528.1	21631.35
890.1622	1501.6924	22429.45	21533.05
890.3053	1503.4981	22426.95	21531.35
890.4484	1505.3032	22372.15	21479.45
890.5914	1507.1075	22319.2	21423.55
890.7345	1508.911	22285.95	21389.2
890.8776	1510.7138	22203.85	21307.35
891.0206	1512.5159	22156	21261.05
891.1637	1514.3172	22066.2	21169.65
891.3067	1516.1178	22004.85	21110.85
891.4497	1517.9176	21983.6	21086.75
891.5927	1519.7166	21876.55	20982.25
891.7357	1521.515	21845.05	20944.2
891.8786	1523.3126	21807.2	20911.45
892.0216	1525.1094	21728.9	20833.1
892.1645	1526.9055	21644.2	20751.35
892.3074	1528.7008	21620.9	20726.25
892.4503	1530.4954	21454.2	20557.1
892.5932	1532.2893	21475.65	20583.3
892.7361	1534.0824	21368.25	20468.5
892.879	1535.8747	21352.2	20459.2
893.0218	1537.6663	21271.05	20378.75
893.1647	1539.4572	21237.35	20343
893.3075	1541.2473	21143.85	20250.35
893.4503	1543.0367	21085.55	20193.6
893.5931	1544.8253	20984.05	20084.55
893.7359	1546.6132	20971.85	20075.55
893.8787	1548.4003	20905.5	20000.45
894.0214	1550.1867	20900.7	19997.25
894.1642	1551.9723	20814.4	19916.4
894.3069	1553.7572	20817.3	19924.25
894.4496	1555.5414	20752.1	19859.25
894.5923	1557.3247	20749.8	19859.45
894.735	1559.1074	20706.5	19816.65
894.8777	1560.8893	20666.45	19775.3
895.0204	1562.6705	20636.65	19746.25
895.163	1564.4509	20606.7	19716.3
895.3056	1566.2305	20572.5	19683.9
895.4482	1568.0094	20570.65	19679.3
895.5908	1569.7876	20538.85	19648.6
895.7334	1571.565	20518.75	19626.4
895.876	1573.3417	20445.3	19553.4
896.0186	1575.1176	20418.75	19528.95
896.1611	1576.8928	20394.05	19506.35
896.3036	1578.6672	20337.5	19451.3
896.4461	1580.4409	20276.6	19391.25
896.5886	1582.2138	20212.75	19320.25
896.7311	1583.986	20206.7	19317.35
896.8736	1585.7575	20206.2	19319.4
897.0161	1587.5282	20169.6	19282.65
897.1585	1589.2981	20196.2	19310.3
897.3009	1591.0673	20144.05	19258.05
897.4433	1592.8358	20124.15	19238.45
897.5857	1594.6035	20079	19190.35
897.7281	1596.3704	20021.15	19131.15
897.8705	1598.1366	19968.6	19082.1
898.0128	1599.9021	19894.6	19006.75
898.1551	1601.6668	19824.25	18933
898.2975	1603.4308	19784.35	18895.15
898.4398	1605.194	19747.45	18852.65
898.5821	1606.9564	19763.55	18875.75
898.7243	1608.7182	19766.65	18881.45
898.8666	1610.4791	19797.85	18914.35
899.0088	1612.2394	19798.15	18916.4
899.1511	1613.9988	19805.3	18918.95
899.2933	1615.7576	19844.2	18958.35
899.4355	1617.5156	19857.3	18962.85
899.5776	1619.2728	19831.85	18943.45
899.7198	1621.0293	19704.6	18816.85
899.862	1622.785	19589	18699.65
900.0041	1624.54	19408.45	18520.4
900.1462	1626.2942	19301	18416.25
900.2883	1628.0477	19114.9	18226
900.4304	1629.8005	19001.55	18112.7
900.5725	1631.5525	18890	18004.25
900.7145	1633.3037	18769.8	17883.8
900.8566	1635.0542	18699.05	17813.6
900.9986	1636.804	18636.8	17748.2
901.1406	1638.553	18564.45	17630.4
901.2826	1640.3013	18424.2	17536.7
901.4245	1642.0488	18404.65	17516.65
901.5665	1643.7955	18337.2	17452.4
901.7085	1645.5416	18248.35	17362.95
901.8504	1647.2868	18246.15	17360
901.9923	1649.0313	18179.3	17292.9
902.1342	1650.7751	18191.7	17303.6
902.2761	1652.5181	18137.7	17252.3
902.4179	1654.2604	18096.5	17210.1
902.5598	1656.0019	18059.6	17174
902.7016	1657.7427	18059.3	17171.1
902.8434	1659.4828	18061.2	17175.45
902.9852	1661.222	18074.25	17188.7
903.127	1662.9606	18027.9	17142.65
903.2687	1664.6984	17957.25	17068.85
903.4105	1666.4354	17923.6	17035.75
903.5522	1668.1717	17784.05	16896.65
903.6939	1669.9072	17650.3	16762.75
903.8356	1671.642	17507.55	16618.25
903.9773	1673.3761	17441.25	16555.55
904.119	1675.1094	17336.65	16451.5
904.2606	1676.8419	17252.4	16367
904.4022	1678.5737	17122.85	16235.3
904.5439	1680.3048	17072.35	16184.75
904.6855	1682.0351	16988.5	16101.8
904.827	1683.7646	16924.8	16035.4
904.9686	1685.4934	16881.6	15998.75
905.1101	1687.2215	16793.55	15906.35
905.2517	1688.9488	16685.55	15799.5
905.3932	1690.6754	16625.3	15741.2
905.5347	1692.4012	16598	15712.55
905.6761	1694.1263	16567.5	15679.7
905.8176	1695.8506	16501.7	15615.15
905.9591	1697.5742	16457.75	15572.85
906.1005	1699.297	16377.95	15492.9
906.2419	1701.0191	16318.6	15433.55
906.3833	1702.7404	16247.15	15363.95
906.5246	1704.461	16140.65	15255.55
906.666	1706.1808	16093.95	15207.2
906.8073	1707.8999	16088.2	15200.7
906.9487	1709.6182	16045.2	15160.95
907.09	1711.3358	15965.85	15081.45
907.2313	1713.0527	15922.65	15041.55
907.3725	1714.7688	15882.05	14993.3
907.5138	1716.4841	15829.3	14942
907.655	1718.1987	15770	14878.5
907.7962	1719.9126	15718.2	14835.7
907.9374	1721.6257	15673.8	14789.1
908.0786	1723.338	15661.1	14776.7
908.2198	1725.0496	15565.15	14678.55
908.3609	1726.7605	15515	14628.55
908.502	1728.4706	15464.3	14579.55
908.6431	1730.18	15398.35	14509.35
908.7842	1731.8886	15420	14536.2
908.9253	1733.5964	15364.35	14473.95
909.0664	1735.3036	15326.95	14441.15
909.2074	1737.0099	15326.1	14442.15
909.3484	1738.7156	15293.1	14412.2
909.4894	1740.4204	15173.95	14288.15
909.6304	1742.1246	15179.35	14293.5
909.7714	1743.8279	15177	14293
909.9123	1745.5306	15138.5	14252.85
910.0532	1747.2325	15065.05	14183.3
910.1941	1748.9336	15001.65	14118.3
910.335	1750.634	14979.65	14092.85
910.4759	1752.3336	14957.45	14075.85
910.6168	1754.0325	14962.7	14081.05
910.7576	1755.7307	14919.55	14036.1
910.8984	1757.4281	14908.85	14025.85
911.0392	1759.1247	14865.5	13973.85
911.18	1760.8206	14838.25	13947.1
911.3208	1762.5158	14797.55	13909.2
911.4615	1764.2102	14756.55	13870.9
911.6022	1765.9039	14711.8	13829
911.7429	1767.5968	14675	13791.2
911.8836	1769.289	14621.2	13736.95
912.0243	1770.9804	14591.15	13707.25
912.1649	1772.6711	14612.15	13727.7
912.3056	1774.361	14520.35	13634.25
912.4462	1776.0502	14528.65	13645.05
912.5868	1777.7386	14484.8	13598.3
912.7274	1779.4263	14449.9	13565.25
912.8679	1781.1132	14430.65	13549.4
913.0084	1782.7994	14362	13480
913.149	1784.4849	14331.1	13448.9
913.2895	1786.1696	14310.9	13407.25
913.4299	1787.8535	14282.55	13399.55
913.5704	1789.5367	14247.65	13365
913.7108	1791.2192	14222.95	13339.2
913.8513	1792.9009	14204.55	13292.85
913.9917	1794.5818	14136.1	13248.8
914.132	1796.2621	14097.95	13215.2
914.2724	1797.9415	14058.1	13174.65
914.4128	1799.6202	14041.55	13155.75
914.5531	1801.2982	14003.2	13119.6
914.6934	1802.9755	14002.3	13118.2
914.8337	1804.6519	13983.9	13099.25
914.9739	1806.3277	13867.3	12986.35
915.1142	1808.0027	13846.15	12964.75
915.2544	1809.6769	13866.95	12985.7
915.3946	1811.3504	13812.7	12928.85
915.5348	1813.0231	13801.55	12918.95
915.675	1814.6951	13761.55	12877.45
915.8151	1816.3664	13749.8	12864.4
915.9553	1818.0369	13715.15	12830.45
916.0954	1819.7067	13665.7	12782.8
916.2355	1821.3757	13620.8	12734.45
916.3755	1823.044	13617.3	12735
916.5156	1824.7115	13563.75	12678
916.6556	1826.3783	13510.3	12627.8
916.7956	1828.0443	13476.9	12595.15
916.9356	1829.7096	13448.8	12563.95
917.0756	1831.3741	13460.5	12573.25
917.2155	1833.0379	13407.65	12523.25
917.3555	1834.701	13374.3	12491.7
917.4954	1836.3633	13358.15	12473.35
917.6353	1838.0248	13318.3	12434.7
917.7751	1839.6856	13288.05	12405.75
917.915	1841.3457	13298	12415.75
918.0548	1843.005	13264.95	12381.35
918.1946	1844.6636	13247.3	12365.95
918.3344	1846.3214	13181	12298.5
918.4742	1847.9785	13170.95	12289.25
918.6139	1849.6349	13186.75	12299.65
918.7537	1851.2904	13141	12249.25
918.8934	1852.9453	13087.7	12203.55
919.0331	1854.5994	13039.25	12153.4
919.1727	1856.2528	13050.9	12163
919.3124	1857.9054	13022.6	12138.1
919.452	1859.5572	13002.45	12119.85
919.5916	1861.2083	12965.25	12082.05
919.7312	1862.8587	12951.75	12067.35
919.8708	1864.5084	12937.35	12053.75
920.0103	1866.1572	12896.75	12013.6
920.1498	1867.8054	12839.2	11955.3
920.2893	1869.4528	12835.45	11949.55
920.4288	1871.0994	12787.85	11904.3
920.5683	1872.7453	12757.6	11874.05
920.7077	1874.3905	12753.15	11860.35
920.8471	1876.0349	12671.95	11784.7
920.9865	1877.6786	12689.15	11806
921.1259	1879.3215	12668.05	11783.25
921.2653	1880.9637	12653	11767.85
921.4046	1882.6051	12632.1	11750.2
921.5439	1884.2458	12605.55	11718.6
921.6832	1885.8858	12535.45	11651.3
921.8225	1887.525	12531.15	11647.7
921.9617	1889.1634	12468.25	11584.95
922.101	1890.8011	12437.6	11554.6
922.2402	1892.4381	12406.45	11523.2
922.3794	1894.0743	12430	11549.35
922.5185	1895.7098	12379	11492.95
922.6577	1897.3446	12359.15	11475.1
922.7968	1898.9786	12324.35	11435.75
922.9359	1900.6118	12289.85	11408.1
923.075	1902.2443	12239.05	11353.8
923.214	1903.8761	12202.4	11317.7
923.3531	1905.5071	12148.6	11265.95
923.4921	1907.1374	12081.85	11199.75
923.6311	1908.7669	12102.7	11217.95
923.77	1910.3957	12079.95	11197.35
923.909	1912.0237	11993.8	11110.65
924.0479	1913.651	11974.05	11088.65
924.1868	1915.2776	11953.25	11071.25
924.3257	1916.9034	11894.8	11014.1
924.4646	1918.5285	11884.55	11003.45
924.6034	1920.1528	11835.6	10952.4
924.7422	1921.7764	11805.25	10923.75
924.881	1923.3992	11762.1	10879
925.0198	1925.0213	11703.45	10818.45
925.1586	1926.6427	11649.1	10766.95
925.2973	1928.2633	11835	10705.75
925.436	1929.8832	11635.45	10747.1
925.5747	1931.5023	11534.3	10652.25
925.7134	1933.1207	11534.25	10650.25
925.852	1934.7383	11517.05	10632.5
925.9906	1936.3552	11486.8	10603.2
926.1292	1937.9714	11456.1	10572.75
926.2678	1939.5868	11403.1	10518.3
926.4064	1941.2015	11328.9	10444.4
926.5449	1942.8154	11302.1	10417.1
926.6834	1944.4286	11248.05	10362.75
926.8219	1946.041	11261.4	10354.3
926.9604	1947.6528	11200.35	10314
927.0988	1949.2637	11159	10276.15
927.2372	1950.8739	11117.1	10231.35
927.3756	1952.4834	11093.1	10206.9
927.514	1954.0921	11070	10184.85
927.6523	1955.7001	11060.65	10173.35
927.7907	1957.3074	11026.8	10145.65
927.929	1958.9139	10970.3	10089.6
928.0673	1960.5197	10927.7	10044.7
928.2055	1962.1247	10902.45	10019.1
928.3438	1963.729	10870.4	9989.1
928.482	1965.3325	10851.05	9943.55
928.6202	1966.9353	10775.9	9895
928.7584	1968.5374	10756.4	9872.05
928.8965	1970.1387	10744.75	9862.05
929.0346	1971.7393	10693.7	9812.25
929.1727	1973.3392	10658.1	9776.55
929.3108	1974.9383	10611.1	9729.45
929.4489	1976.5366	10574.45	9694.6
929.5869	1978.1342	10576.85	9695.1
929.7249	1979.7311	10535.4	9654.45
929.8629	1981.3273	10511.3	9628.4
930.0009	1982.9227	10472.45	9590.45
930.1388	1984.5173	10437.5	9558.5
930.2767	1986.1112	10403.4	9520.7
930.4146	1987.7044	10400.9	9519.7
930.5525	1989.2968	10346.7	9463.15
930.6904	1990.8885	10345.1	9461.15
930.8282	1992.4795	10316.6	9433.95
930.966	1994.0697	10270.75	9390.9
931.1038	1995.6592	10258.2	9376.15
931.2415	1997.2479	10248.9	9367.25
931.3793	1998.8359	10202.35	9321.6
931.517	2000.4232	10170.55	9291.25
931.6547	2002.0097	10116.25	9238
931.7923	2003.5955	10086.45	9205.25
931.93	2005.1805	10078.4	9196.85
932.0676	2006.7648	10059.1	9177.45
932.2052	2008.3484	10039.6	9159.6
932.3427	2009.9312	10025.15	9143.15
932.4803	2011.5133	9962.1	9084.75
932.6178	2013.0946	9963.9	9084.5
932.7553	2014.6752	9920.9	9040.85
932.8928	2016.2551	9920.5	9039.25
933.0302	2017.8342	9871.7	8991.6
933.1676	2019.4126	9833.35	8955.45
933.305	2020.9902	9775.6	8895.8
933.4424	2022.5672	9771.3	8891.15
933.5798	2024.1433	9763.55	8878.1
933.7171	2025.7188	9741.45	8863.4
933.8544	2027.2935	9701.8	8821.7
933.9917	2028.8674	9670.1	8792.65
934.129	2030.4406	9623.5	8743.2
934.2662	2032.0131	9608.4	8729.65
934.4034	2033.5849	9556.95	8675.5
934.5406	2035.1559	9555.55	8675.2
934.6778	2036.7261	9529.25	8649.45
934.8149	2038.2957	9513.4	8632.3
934.952	2039.8645	9495.85	8615.4
935.0891	2041.4325	9503.75	8620.55
935.2262	2042.9998	9435.55	8556
935.3632	2044.5664	9426.35	8546.3
935.5002	2046.1323	9426.85	8547.8
935.6372	2047.6974	9379.2	8499.6
935.7742	2049.2617	9347.45	8468.8
935.9111	2050.8254	9335.55	8449.35
936.048	2052.3883	9346.9	8468.1
936.1849	2053.9504	9312.05	8431.35
936.3218	2055.5118	9287.2	8405.95
936.4586	2057.0725	9237.15	8353.9
936.5955	2058.6325	9201.65	8320.9
936.7323	2060.1917	9188.1	8310.55
936.869	2061.7502	9167.2	8284.5
937.0058	2063.3079	9145.3	8267.95
937.1425	2064.8649	9110.5	8226.9
937.2792	2066.4212	9080.15	8199.8
937.4159	2067.9767	9073.65	8193.5
937.5525	2069.5315	9053.65	8173.25
937.6891	2071.0856	9017.4	8136.4
937.8257	2072.6389	8982.1	8101.8
937.9623	2074.1915	8916.05	8037.6
938.0989	2075.7433	8911	8029.7
938.2354	2077.2945	8883.6	8003.45
938.3719	2078.8448	8849.45	7967.4
938.5084	2080.3945	8845.25	7965.85
938.6448	2081.9434	8824.65	7943.65
938.7812	2083.4916	8796.85	7915.15
938.9176	2085.039	8756.5	7872.05
939.054	2086.5857	8738.35	7854.05
939.1903	2088.1317	8716.8	7836.2
939.3267	2089.677	8719.7	7836.45
939.463	2091.2215	8689.35	7807.05
939.5992	2092.7652	8656	7773.95
939.7355	2094.3083	8636.65	7754.6
939.8717	2095.8506	8630.1	7750.75
940.0079	2097.3921	8632.25	7752.65
940.1441	2098.933	8599.9	7720.35
940.2802	2100.4731	8581	7698.95
940.4163	2102.0124	8576.35	7675
940.5524	2103.5511	8566.75	7685.6
940.6885	2105.089	8553.35	7671.9
940.8245	2106.6261	8530.65	7651.2
940.9606	2108.1626	8503.7	7621.75
941.0965	2109.6983	8494.5	7587.05
941.2325	2111.2332	8460.35	7578.05
941.3684	2112.7675	8419.5	7536.8
941.5044	2114.301	8398.75	7515.05
941.6403	2115.8337	8415.45	7533
941.7761	2117.3657	8373.55	7493.4
941.912	2118.897	8370.55	7489.1
942.0478	2120.4276	8328.5	7440.65
942.1835	2121.9575	8296.5	7414.95
942.3193	2123.4866	8332	7437.7
942.455	2125.0149	8284.05	7399.4
942.5907	2126.5426	8241.5	7360.7
942.7264	2128.0695	8221.15	7336.2
942.8621	2129.5956	8217.95	7340.4
942.9977	2131.1211	8186.35	7302.75
943.1333	2132.6458	8159.95	7278
943.2689	2134.1698	8142.5	7260.7
943.4044	2135.693	8110.75	7224.95
943.54	2137.2155	8108.5	7223.1
943.6755	2138.7373	8081.85	7199.05
943.8109	2140.2584	8061.45	7176.8
943.9464	2141.7787	8048.65	7162.75
944.0818	2143.2983	8007.1	7129.1
944.2172	2144.8171	7982.2	7104.1
944.3526	2146.3353	7938.5	7056.95
944.4879	2147.8527	7917.9	7038
944.6232	2149.3693	7949.75	7068.95
944.7585	2150.8853	7884.65	7003.05
944.8938	2152.4005	7863.4	6981.7
945.029	2153.9149	7850.35	6968.05
945.1642	2155.4287	7832.05	6951.8
945.2994	2156.9417	7801.2	6916.2
945.4346	2158.454	7790.35	6906.1
945.5697	2159.9655	7803.15	6922.15
945.7048	2161.4764	7776.9	6897.2
945.8399	2162.9865	7708.15	6827.95
945.9749	2164.4958	7716.9	6833.7
946.1099	2166.0045	7714.4	6831.25
946.2449	2167.5124	7706.05	6825.85
946.3799	2169.0195	7666	6784.7
946.5148	2170.526	7666.9	6784.05
946.6498	2172.0317	7640.6	6758.55
946.7846	2173.5367	7612.85	6729.25
946.9195	2175.0409	7589.9	6707.3
947.0543	2176.5445	7593.15	6712.65
947.1891	2178.0473	7542.6	6659.65
947.3239	2179.5494	7500.25	6614.85
947.4587	2181.0507	7487.3	6606.6
947.5934	2182.5513	7490.65	6609.3
947.7281	2184.0512	7464.55	6583.7
947.8628	2185.5504	7431.75	6552.25
947.9974	2187.0488	7405.65	6524.5
948.132	2188.5465	7381.65	6500.2
948.2666	2190.0435	7367.95	6486.05
948.4012	2191.5397	7328.45	6446.45
948.5357	2193.0353	7299.65	6417.55
948.6702	2194.5301	7300.55	6417.2
948.8047	2196.0241	7281.6	6396.55
948.9392	2197.5175	7246.85	6363.4
949.0736	2199.0101	7241.8	6355.5
949.208	2200.502	7185.05	6304.35
949.3424	2201.9931	7168.8	6287.25
949.4767	2203.4835	7149.5	6267
949.611	2204.9733	7143.85	6257.05
949.7453	2206.4622	7155.2	6277.1
949.8796	2207.9505	7107.05	6223.6
950.0138	2209.438	7084.7	6205.45
950.148	2210.9248	7061.3	6179.1
950.2822	2212.4109	7049.85	6168.7
950.4164	2213.8962	7022.65	6137.7
950.5505	2215.3809	7026.6	6142.15
950.6846	2216.8648	7005.15	6120.8
950.8186	2218.3479	6975.55	6089.05
950.9527	2219.8304	6970.55	6082.45
951.0867	2221.3121	6911	6025.8
951.2207	2222.7931	6882.15	5997.9
951.3546	2224.2733	6884.35	6001.8
951.4886	2225.7529	6859.2	5975.7
951.6225	2227.2317	6823.8	5941
951.7563	2228.7098	6806.8	5927.45
951.8902	2230.1872	6785.05	5904.9
952.024	2231.6638	6779.75	5900.4
952.1578	2233.1397	6750.8	5862.95
952.2916	2234.6149	6743.95	5865.1
952.4253	2236.0894	6706.25	5825.25
952.559	2237.5632	6711.5	5818.9
952.6927	2239.0362	6679.95	5799.75
952.8263	2240.5085	6667.9	5784.05
952.9599	2241.9801	6613.45	5731.35
953.0935	2243.4509	6621.1	5740.45
953.2271	2244.921	6616.35	5732.45
953.3606	2246.3904	6577.05	5692.15
953.4941	2247.8591	6552.05	5669.35
953.6276	2249.3271	6544.05	5661
953.7611	2250.7943	6507.7	5624.75
953.8945	2252.2608	6487.9	5605.6
954.0279	2253.7266	6470.15	5588.85
954.1612	2255.1917	6459.95	5578.5
954.2946	2256.656	6445.6	5564.7
954.4279	2258.1197	6436.95	5558.6
954.5612	2259.5826	6425.15	5542.05
954.6944	2261.0447	6418.95	5536.65
954.8276	2262.5062	6388.75	5505.75
954.9608	2263.9669	6365.1	5480.25
955.094	2265.4269	6342.2	5460.45
955.2271	2266.8862	6328.25	5445.9
955.3602	2268.3448	6322.35	5438.5
955.4933	2269.8026	6287.35	5405.6
955.6264	2271.2598	6300.35	5418.7
955.7594	2272.7162	6263.25	5383.05
955.8924	2274.1719	6253.55	5371.7
956.0253	2275.6268	6236.45	5354.35
956.1583	2277.0811	6217.45	5335.85
956.2912	2278.5346	6215.15	5333.95
956.4241	2279.9874	6198.95	5318.15
956.5569	2281.4395	6193.2	5313.1
956.6897	2282.8908	6163.45	5276.4
956.8225	2284.3414	6165.9	5285.55
956.9553	2285.7914	6148.55	5265.5
957.088	2287.2406	6103.95	5219.95
957.2207	2288.689	6107.05	5223.75
957.3534	2290.1368	6101.35	5217.25
957.486	2291.5838	6067.8	5183.05
957.6186	2293.0302	6036	5149.6
957.7512	2294.4758	6033.15	5150.9
957.8838	2295.9206	5996.7	5112.65
958.0163	2297.3648	6000.35	5120.4
958.1488	2298.8082	5986.8	5102.95
958.2813	2300.251	5980.9	5100.4
958.4137	2301.693	5948.95	5062.5
958.5461	2303.1343	5936.45	5054.65
958.6785	2304.5748	5913.8	5031.4
958.8108	2306.0147	5881.15	5001.6
958.9432	2307.4538	5876.2	4992.6
959.0754	2308.8922	5860.5	4980.2
959.2077	2310.3299	5846.6	4967.1
959.3399	2311.7669	5849.25	4965.95
959.4721	2313.2031	5820.8	4938.25
959.6043	2314.6387	5805.95	4925.3
959.7365	2316.0735	5803.6	4922.15
959.8686	2317.5076	5766.85	4885.1
960.0006	2318.941	5756.45	4870.85
960.1327	2320.3737	5742.25	4858.6
960.2647	2321.8056	5735.9	4848.85
960.3967	2323.2369	5712.4	4829.2
960.5287	2324.6674	5695.75	4810.45
960.6606	2326.0972	5680.45	4795.4
960.7925	2327.5263	5665.55	4783.95
960.9244	2328.9547	5643.75	4759.15
961.0562	2330.3823	5632.5	4748.25
961.1881	2331.8092	5618.9	4732.2
961.3198	2333.2355	5603.85	4721.2
961.4516	2334.661	5610.4	4727.9
961.5833	2336.0858	5576.2	4691.75
961.715	2337.5098	5563.3	4680.25
961.8467	2338.9332	5561.4	4677.65
961.9783	2340.3558	5542.3	4657.05
962.1099	2341.7778	5513.05	4632.7
962.2415	2343.199	5491.75	4608.65
962.373	2344.6195	5474.05	4590.75
962.5045	2346.0393	5468.3	4585.1
962.636	2347.4583	5469.55	4586.5
962.7675	2348.8767	5445.5	4560.8
962.8989	2350.2943	5435.95	4551.65
963.0303	2351.7113	5434.2	4547.65
963.1617	2353.1275	5396.1	4510.1
963.293	2354.543	5387.55	4495.8
963.4243	2355.9578	5385.2	4501.85
963.5556	2357.3718	5336.15	4454.7
963.6868	2358.7852	5314.8	4429.55
963.818	2360.1978	5296.2	4414.05
963.9492	2361.6098	5299.55	4417.95
964.0803	2363.021	5282.6	4394.65
964.2114	2364.4315	5245.7	4364.8
964.3425	2365.8413	5242.25	4356.2
964.4736	2367.2504	5222.65	4341.5
964.6046	2368.6587	5195.8	4311.45
964.7356	2370.0664	5182.4	4302.5
964.8666	2371.4733	5166.6	4285.3
964.9975	2372.8795	5161.75	4279.75
965.1284	2374.285	5134.55	4252.35
965.2593	2375.6899	5100.9	4217.85
965.3901	2377.0939	5084.65	4202.6
965.5209	2378.4973	5057.95	4175.9
965.6517	2379.9	5074.75	4192.1
965.7825	2381.3019	5020.8	4137.6
965.9132	2382.7032	5024.75	4144.05
966.0439	2384.1037	5023.7	4143.9
966.1745	2385.5035	4995.55	4115.4
966.3051	2386.9027	4977.1	4095.95
966.4357	2388.3011	4975.3	4090.45
966.5663	2389.6987	4959.25	4078.85
966.6968	2391.0957	4955.7	4073.5
966.8273	2392.492	4910.15	4028.6
966.9578	2393.8876	4893.55	4008.35
967.0882	2395.2824	4884.45	4002.1
967.2186	2396.6765	4872.95	3992
967.349	2398.07	4860.55	3978.1
967.4793	2399.4627	4844.5	3962.8
967.6097	2400.8547	4826.65	3941.75
967.7399	2402.246	4817.9	3928.35
967.8702	2403.6366	4783.8	3900.35
968.0004	2405.0265	4755.65	3873.85
968.1306	2406.4156	4761.3	3873.5
968.2607	2407.8041	4743.55	3857.45
968.3909	2409.1918	4724.65	3837.2
968.521	2410.5789	4711.55	3827.1
968.651	2411.9652	4694.1	3808.05
968.781	2413.3508	4685.95	3803.3
968.911	2414.7358	4655.5	3772.4
969.041	2416.12	4644.35	3762.05
969.1709	2417.5035	4628.7	3745.35
969.3008	2418.8863	4626.9	3743.35
969.4307	2420.2684	4595.95	3713.4
969.5606	2421.6497	4578.65	3691.95
969.6904	2423.0304	4572.7	3692.6
969.8201	2424.4104	4558	3675.1
969.9499	2425.7896	4556.95	3674.6
970.0796	2427.1682	4526.55	3644.2
970.2093	2428.546	4515.05	3630.8
970.3389	2429.9232	4512.8	3628.05
970.4685	2431.2996	4515.65	3634.4
970.5981	2432.6753	4503.7	3621.55
970.7277	2434.0503	4483.8	3600.65
970.8572	2435.4246	4465.5	3586.65
970.9867	2436.7982	4467.25	3580.65
971.1161	2438.1711	4444.45	3562.5
971.2456	2439.5433	4433.6	3548.95
971.375	2440.9148	4399.2	3511.55
971.5043	2442.2856	4402.45	3522.45
971.6336	2443.6557	4387.55	3501.9
971.7629	2445.025	4385.9	3502.45
971.8922	2446.3937	4377.15	3491.95
972.0214	2447.7617	4357.15	3474.9
972.1506	2449.1289	4358.15	3476.35
972.2798	2450.4955	4350.25	3463.75
972.4089	2451.8613	4329.35	3448.5
972.538	2453.2265	4317.15	3435.25
972.6671	2454.5909	4305.45	3422.55
972.7961	2455.9546	4296.8	3413.6
972.9251	2457.3177	4285.3	3402.75
973.0541	2458.68	4265.3	3381.75
973.1831	2460.0416	4249.45	3367
973.312	2461.4025	4254.3	3368.25
973.4408	2462.7627	4273.25	3377.45
973.5697	2464.1222	4245.85	3364.3
973.6985	2465.4811	4214.7	3333.2
973.8273	2466.8392	4195.85	3315.05
973.956	2468.1966	4202.7	3317.2
974.0847	2469.5533	4198.55	3313.8
974.2134	2470.9093	4188.55	3305.65
974.3421	2472.2645	4177.35	3291.8
974.4707	2473.6191	4167.4	3285.4
974.5993	2474.973	4141.2	3258.3
974.7278	2476.3262	4143.05	3258.15
974.8563	2477.6787	4115.25	3233.85
974.9848	2479.0305	4099.7	3217.35
975.1132	2480.3816	4086.1	3200.7
975.2417	2481.7319	4083.5	3201.35
975.37	2483.0816	4072.75	3187.95
975.4984	2484.4306	4063.5	3179.25
975.6267	2485.7789	4052.4	3170.95
975.755	2487.1264	4030.7	3146.15
975.8833	2488.4733	4024.35	3142.65
976.0115	2489.8195	4017	3126.85
976.1397	2491.165	4006.55	3121.9
976.2678	2492.5097	3994.6	3111.6
976.3959	2493.8538	3966.15	3083.7
976.524	2495.1972	3950.6	3067.05
976.6521	2496.5398	3943.8	3059.65
976.7801	2497.8818	3950.45	3065.45
976.9081	2499.2231	3925.6	3041.45
977.036	2500.5637	3907.3	3022.55
977.164	2501.9035	3900.3	3017.05
977.2918	2503.2427	3888.6	3002.8
977.4197	2504.5812	3887.85	3006.6
977.5475	2505.919	3868.25	2982.1
977.6753	2507.256	3872.4	2989.15
977.8031	2508.5924	3852.1	2967.2
977.9308	2509.9281	3831.15	2944.35
978.0585	2511.2631	3826.85	2944.2
978.1861	2512.5974	3824.25	2942.5
978.3137	2513.9309	3807.5	2923.45
978.4413	2515.2638	3815.55	2899.4
978.5689	2516.596	3800.2	2920.5
978.6964	2517.9275	3776.8	2893.9
978.8239	2519.2583	3769.3	2887.9
978.9513	2520.5884	3760.65	2876.2
979.0788	2521.9178	3744.65	2861.8
979.2062	2523.2465	3735.35	2855.05
979.3335	2524.5745	3711.65	2830.05
979.4608	2525.9018	3706.85	2825.05
979.5881	2527.2284	3705.5	2826.05
979.7154	2528.5543	3680.35	2797.85
979.8426	2529.8796	3669.35	2785.35
979.9698	2531.2041	3679.45	2797.55
980.0969	2532.5279	3670.85	2789.7
980.224	2533.851	3660.3	2777.15
980.3511	2535.1735	3652	2768.45
980.4781	2536.4952	3650.35	2769.4
980.6052	2537.8163	3642.55	2760.8
980.7321	2539.1366	3632.65	2750.65
980.8591	2540.4562	3601.95	2716.9
980.986	2541.7752	3623.6	2739.95
981.1129	2543.0935	3598	2714.45
981.2397	2544.411	3596.4	2712.3
981.3665	2545.7279	3597.6	2715.3
981.4933	2547.0441	3585.1	2699.4
981.62	2548.3596	3590.9	2705.95
981.7467	2549.6744	3562.25	2679.05
981.8734	2550.9885	3566.9	2674.85
982.0001	2552.3019	3557.25	2672.65
982.1267	2553.6146	3544.85	2663.35
982.2532	2554.9266	3527.35	2645.2
982.3798	2556.2379	3526	2642.65
982.5063	2557.5485	3524	2643.55
982.6327	2558.8585	3525.1	2635.4
982.7592	2560.1677	3522.85	2634.55
982.8856	2561.4762	3490	2607
983.0119	2562.7841	3503.15	2617.2
983.1383	2564.0913	3492	2609.35
983.2646	2565.3977	3490.45	2607.3
983.3908	2566.7035	3485.8	2602.5
983.517	2568.0086	3468.4	2584.15
983.6432	2569.313	3469.65	2587.05
983.7694	2570.6167	3464.75	2576.65
983.8955	2571.9197	3456.85	2573.7
984.0216	2573.222	3435.15	2547.45
984.1476	2574.5236	3436.75	2553.35
984.2737	2575.8246	3431.45	2547.3
984.3996	2577.1248	3430.25	2542.9
984.5256	2578.4244	3414.3	2534.25
984.6515	2579.7232	3410.75	2527.15
984.7774	2581.0214	3438.4	2531.1
984.9032	2582.3189	3389.55	2507.2
985.029	2583.6157	3394.55	2507
985.1548	2584.9118	3390.15	2506.75
985.2806	2586.2072	3371.15	2488.5
985.4063	2587.5019	3356.75	2473.15
985.5319	2588.7959	3361.7	2477.8
985.6576	2590.0893	3365.45	2484
985.7832	2591.3819	3345.6	2464.35
985.9087	2592.6739	3338.65	2456.3
986.0343	2593.9652	3336.2	2448.65
986.1597	2595.2557	3320.25	2437.3
986.2852	2596.5456	3313.3	2428.2
986.4106	2597.8348	3296.85	2413.6
986.536	2599.1234	3291.35	2409.7
986.6614	2600.4112	3284.65	2398.8
986.7867	2601.6983	3287.65	2401.9
986.912	2602.9848	3259	2374.5
987.0372	2604.2705	3252.5	2362.35
987.1624	2605.5556	3235.6	2353.15
987.2876	2606.84	3231.45	2349.1
987.4128	2608.1237	3220.15	2336.7
987.5379	2609.4067	3211.1	2327.9
987.6629	2610.689	3204.7	2314.9
987.788	2611.9707	3206.15	2321.95
987.913	2613.2516	3193.15	2305.75
988.0379	2614.5319	3174.4	2292.25
988.1629	2615.8115	3163.85	2282.9
988.2878	2617.0903	3154.95	2272
988.4126	2618.3685	3137	2252.8
988.5375	2619.6461	3140.8	2256.05
988.6622	2620.9229	3125.3	2241.7
988.787	2622.199	3121	2238
988.9117	2623.4745	3111.65	2229.9
989.0364	2624.7493	3105.15	2222.05
989.161	2626.0234	3097.7	2217
989.2857	2627.2968	3081.65	2198.5
989.4102	2628.5695	3079.9	2197.4
989.5348	2629.8415	3058.8	2175.55
989.6593	2631.1128	3057.9	2171.75
989.7837	2632.3835	3048.85	2167.55
989.9082	2633.6535	3033.45	2150.3
990.0326	2634.9228	3023.35	2142.35
990.1569	2636.1914	3015.15	2132.35
990.2812	2637.4593	3013.7	2125.85
990.4055	2638.7265	2996	2113.45
990.5298	2639.9931	3002.75	2120.75
990.654	2641.259	2998	2114.85
990.7782	2642.5242	2987.45	2104.8
990.9023	2643.7887	2968.3	2086.7
991.0264	2645.0525	2974.75	2092.45
991.1505	2646.3156	2949.9	2065.95
991.2745	2647.5781	2946	2065
991.3985	2648.8398	2946.55	2062.8
991.5225	2650.1009	2944.95	2053.95
991.6464	2651.3613	2930.05	2049.4
991.7703	2652.6211	2921.9	2038.6
991.8942	2653.8801	2921.5	2040.65
992.018	2655.1385	2912.85	2027.4
992.1418	2656.3961	2902.85	2020.85
992.2655	2657.6531	2893.5	2011.4
992.3892	2658.9094	2897.1	2013.45
992.5129	2660.1651	2878	1997.8
992.6366	2661.42	2887.95	2006.05
992.7602	2662.6743	2875.55	1993.3
992.8837	2663.9279	2872.1	1992.25
993.0073	2665.1808	2862.55	1980
993.1307	2666.433	2849.5	1965.3
993.2542	2667.6846	2844.35	1961.9
993.3776	2668.9354	2844.4	1958.75
993.501	2670.1856	2833.35	1950.55
993.6244	2671.4351	2844	1962.05
993.7477	2672.6839	2821.5	1937.05
993.8709	2673.9321	2808.5	1927.75
993.9942	2675.1795	2803.45	1920.05
994.1174	2676.4263	2806.65	1924.55
994.2405	2677.6724	2811.05	1930.35
994.3637	2678.9179	2780.9	1896.65
994.4868	2680.1626	2779.25	1896.85
994.6098	2681.4067	2772.3	1889.6
994.7328	2682.6501	2758.35	1876.2
994.8558	2683.8928	2763.45	1880.25
994.9788	2685.1348	2756.15	1876
995.1017	2686.3761	2747.4	1864.95
995.2245	2687.6168	2741.1	1858.5
995.3474	2688.8568	2735.15	1852.7
995.4702	2690.0961	2721.4	1841.2
995.5929	2691.3348	2717.85	1837.6
995.7156	2692.5727	2713.5	1832.65
995.8383	2693.81	2703.6	1822.1
995.961	2695.0466	2686.8	1805.2
996.0836	2696.2826	2693.65	1807.75
996.2062	2697.5178	2692.8	1807.8
996.3287	2698.7524	2681.2	1800.85
996.4512	2699.9863	2680.25	1794.5
996.5737	2701.2195	2670.1	1789.5
996.6961	2702.452	2655.65	1771
996.8185	2703.6839	2658.15	1774.8
996.9408	2704.9151	2649.3	1767.4
997.0631	2706.1456	2654.6	1774.3
997.1854	2707.3755	2646.05	1761.9
997.3077	2708.6046	2632.95	1747.3
997.4299	2709.8331	2626.6	1744.4
997.552	2711.0609	2613.05	1730.75
997.6742	2712.2881	2618.6	1737.85
997.7963	2713.5145	2604.3	1720.7
997.9183	2714.7403	2606.15	1726.95
998.0403	2715.9654	2602.75	1720.75
998.1623	2717.1899	2610	1712.2
998.2842	2718.4136	2585.35	1703.8
998.4062	2719.6367	2584.3	1701.2
998.528	2720.8591	2576.55	1688.7
998.6498	2722.0809	2577.95	1698.2
998.7716	2723.3019	2564.8	1677.6
998.8934	2724.5223	2556.6	1675.35
999.0151	2725.7421	2543	1658.45
999.1368	2726.9611	2552.35	1669.7
999.2584	2728.1795	2537.7	1650.75
999.38	2729.3972	2524	1643.5
999.5016	2730.6142	2529.35	1633.45
999.6231	2731.8306	2514.2	1632.4
999.7446	2733.0462	2514.3	1629.8
999.8661	2734.2612	2480.05	1593.35
999.9875	2735.4756	2492.2	1609.4
1000.1089	2736.6892	2481.95	1598.85
1000.2302	2737.9022	2466.6	1585.95
1000.3515	2739.1145	2450.05	1569.65
1000.4728	2740.3262	2456.25	1567.85
1000.594	2741.5372	2442.75	1563.45
1000.7152	2742.7475	2439.6	1557.25
1000.8363	2743.9571	2438.9	1555.2
1000.9575	2745.1661	2437.35	1551.4
1001.0785	2746.3744	2416.4	1534.5
1001.1996	2747.582	2400.05	1519.25
1001.3206	2748.7889	2406.25	1522.3
1001.4415	2749.9952	2397.65	1515
1001.5625	2751.2008	2393.25	1510.65
1001.6833	2752.4057	2385.65	1501.7
1001.8042	2753.61	2372.75	1492.8
1001.925	2754.8136	2375.35	1492
1002.0458	2756.0165	2368.6	1489.75
1002.1665	2757.2188	2368	1487
1002.2872	2758.4204	2359.85	1479.05
1002.4078	2759.6213	2355.25	1471.45
1002.5285	2760.8215	2343.65	1458.8
1002.649	2762.0211	2338.15	1456.2
1002.7696	2763.22	2341.25	1453.9
1002.8901	2764.4182	2330.95	1447.7
1003.0106	2765.6158	2321.35	1441.15
1003.131	2766.8127	2319.6	1437.5
1003.2514	2768.009	2315.35	1433.3
1003.3717	2769.2045	2303	1420.7
1003.492	2770.3994	2306.2	1424.1
1003.6123	2771.5936	2290.75	1410.45
1003.7325	2772.7872	2304.6	1423.55
1003.8527	2773.9801	2277.85	1395
1003.9729	2775.1723	2289.1	1391.45
1004.093	2776.3639	2277.15	1397.6
1004.2131	2777.5548	2269.55	1383.5
1004.3331	2778.745	2262.8	1377.8
1004.4531	2779.9346	2252.6	1371.7
1004.5731	2781.1235	2263.55	1384.35
1004.693	2782.3117	2243.05	1362.5
1004.8129	2783.4992	2234.1	1353.1
1004.9328	2784.6861	2232.5	1353
1005.0526	2785.8723	2236.65	1353.3
1005.1723	2787.0579	2226.75	1344.8
1005.2921	2788.2428	2222	1340.9
1005.4118	2789.427	2211.95	1333.3
1005.5314	2790.6106	2213.4	1332.6
1005.651	2791.7935	2203.55	1320.75
1005.7706	2792.9757	2191.05	1312.85
1005.8902	2794.1573	2194.35	1311.25
1006.0097	2795.3382	2193.85	1313.8
1006.1291	2796.5184	2184.95	1303.6
1006.2485	2797.698	2192.95	1309.25
1006.3679	2798.8769	2177.55	1299
1006.4873	2800.0551	2169.25	1287.15
1006.6066	2801.2327	2162.4	1278.55
1006.7258	2802.4096	2164.8	1283.7
1006.8451	2803.5859	2153.75	1272.3
1006.9642	2804.7615	2152.7	1270.9
1007.0834	2805.9364	2146.7	1265.05
1007.2025	2807.1106	2151.45	1270.6
1007.3216	2808.2842	2142.4	1260.8
1007.4406	2809.4572	2130.8	1250.2
1007.5596	2810.6294	2133.7	1252.8
1007.6785	2811.801	2143.15	1263.25
1007.7975	2812.972	2144.7	1265.75
1007.9163	2814.1423	2145.2	1264.05
1008.0352	2815.3119	2145.2	1262.1
1008.154	2816.4808	2131.2	1252.75
1008.2727	2817.6491	2151.7	1267.05
1008.3914	2818.8167	2153.6	1274.15
1008.5101	2819.9837	2161.35	1275.8
1008.6288	2821.15	2159.85	1280
1008.7474	2822.3157	2163.35	1283.25
1008.8659	2823.4807	2171.85	1289.8
1008.9844	2824.645	2179.7	1298.45
1009.1029	2825.8086	2190.6	1312.15
1009.2214	2826.9716	2186.9	1305.75
1009.3398	2828.134	2206.15	1324.85
1009.4581	2829.2957	2211.2	1328.55
1009.5764	2830.4567	2204	1325.5
1009.6947	2831.617	2201.4	1320.8
1009.813	2832.7767	2207.9	1326.7
1009.9312	2833.9358	2208.65	1329.65
1010.0493	2835.0941	2203	1318.15
1010.1675	2836.2519	2190.95	1309.8
1010.2855	2837.4089	2190.05	1308.5
1010.4036	2838.5653	2178.2	1297.75
1010.5216	2839.7211	2171.75	1292.5
1010.6396	2840.8761	2172.3	1288.95
1010.7575	2842.0306	2157.95	1278.3
1010.8754	2843.1843	2166.7	1287.75
1010.9932	2844.3374	2169.85	1288.95
1011.111	2845.4899	2171.15	1290.5
1011.2288	2846.6417	2173.5	1292.7
1011.3465	2847.7928	2174.75	1296.1
1011.4642	2848.9433	2185.7	1306.9
1011.5818	2850.0931	2174.9	1293.35
1011.6995	2851.2422	2188.35	1306.5
1011.817	2852.3907	2185	1302
1011.9345	2853.5385	2203.2	1319.5
1012.052	2854.6857	2201.05	1311.1
1012.1695	2855.8323	2199.1	1322.15
1012.2869	2856.9781	2199.4	1317.7
1012.4042	2858.1233	2198.45	1317.6
1012.5216	2859.2679	2207.6	1326.75
1012.6389	2860.4118	2208.3	1328.55
1012.7561	2861.555	2209.25	1323.9
1012.8733	2862.6976	2215.5	1333.6
1012.9905	2863.8395	2211.75	1331.7
1013.1076	2864.9808	2217.6	1336.55
1013.2247	2866.1214	2225.5	1347.2
1013.3417	2867.2614	2217.75	1334.3
1013.4587	2868.4007	2209	1326.05
1013.5757	2869.5393	2212.2	1329.85
1013.6926	2870.6773	2206.8	1322.45
1013.8095	2871.8146	2211.25	1326.15
1013.9263	2872.9513	2207.6	1326.8
1014.0431	2874.0874	2186.7	1306
1014.1599	2875.2227	2184.3	1303.7
1014.2766	2876.3574	2189.75	1307.15
1014.3933	2877.4915	2175.35	1297
1014.51	2878.6249	2164.25	1284.8
1014.6266	2879.7577	2157	1276.55
1014.7431	2880.8898	2162.25	1272.05
1014.8596	2882.0212	2149.3	1268.6
1014.9761	2883.152	2146.7	1263.7
1015.0925	2884.2821	2132.4	1251.75
1015.2089	2885.4116	2140.6	1261
1015.3253	2886.5405	2127.6	1244.85
1015.4416	2887.6686	2141.6	1257.85
1015.5579	2888.7962	2128.3	1250.5
1015.6741	2889.923	2120.95	1243.05
1015.7903	2891.0493	2118.95	1239.75
1015.9065	2892.1748	2115.1	1234.85
1016.0226	2893.2997	2111.25	1229.55
1016.1387	2894.424	2113.75	1234.7
1016.2547	2895.5476	2116.65	1237.55
1016.3707	2896.6706	2109.85	1230.25
1016.4866	2897.7929	2114.75	1234.7
1016.6025	2898.9145	2113.15	1231.05
1016.7184	2900.0355	2098.8	1218.7
1016.8342	2901.1559	2103.3	1220.85
1016.95	2902.2756	2103.85	1224.55
1017.0658	2903.3946	2107.5	1225.95
1017.1815	2904.513	2105.4	1223.9
1017.2971	2905.6308	2097.7	1218.3
1017.4127	2906.7479	2087.1	1207.7
1017.5283	2907.8643	2100.55	1218.85
1017.6439	2908.9801	2091.55	1211.1
1017.7594	2910.0953	2079.4	1197.3
1017.8748	2911.2098	2091.05	1206.8
1017.9902	2912.3236	2084	1196.35
1018.1056	2913.4368	2079.65	1196.75
1018.2209	2914.5494	2066.75	1186.8
1018.3362	2915.6613	2069.4	1183.75
1018.4515	2916.7725	2058.3	1175.5
1018.5667	2917.8831	2043.2	1163.3
1018.6819	2918.9931	2037	1154
1018.797	2920.1024	2040.5	1158
1018.9121	2921.211	2024.25	1142.85
1019.0271	2922.319	2023.9	1144.1
1019.1421	2923.4264	2013.75	1131.9
1019.2571	2924.5331	1999.5	1119.9
1019.372	2925.6391	2010.9	1129.3
1019.4869	2926.7445	2009.25	1129.75
1019.6017	2927.8493	1999.15	1118.7
1019.7165	2928.9534	1994.7	1114.45
1019.8313	2930.0569	1998.1	1112.4
1019.946	2931.1597	1996.6	1114.7
1020.0606	2932.2619	1990.95	1110.15
1020.1753	2933.3634	1991.8	1112.1
1020.2899	2934.4643	1991.7	1105.75
1020.4044	2935.5645	1995.3	1111.45
1020.5189	2936.6641	1986.8	1102.35
1020.6334	2937.763	1971.35	1091.7
1020.7478	2938.8613	1972.05	1090.75
1020.8622	2939.959	1959.45	1074.25
1020.9765	2941.056	1950	1071.2
1021.0908	2942.1523	1939	1058.2
1021.2051	2943.248	1923.2	1042.65
1021.3193	2944.3431	1899.2	1017.75
1021.4334	2945.4375	1884.85	1003.65
1021.5476	2946.5313	1862.8	984.35
1021.6617	2947.6244	1850.75	971.35
1021.7757	2948.7169	1833.9	953.65
1021.8897	2949.8087	1816.3	936.65
1022.0037	2950.8999	1791.65	911.7
1022.1176	2951.9904	1784.3	904.35
1022.2315	2953.0803	1775.45	895.8
1022.3453	2954.1696	1757.15	875.85
1022.4591	2955.2582	1745.9	865.95
1022.5728	2956.3462	1735.55	856.3
1022.6865	2957.4335	1727.7	848.95
1022.8002	2958.5202	1714.55	833.3
1022.9138	2959.6062	1715.7	836.9
1023.0274	2960.6916	1708.95	829.35
1023.141	2961.7764	1699.65	818.75
1023.2545	2962.8605	1703.2	822.35
1023.3679	2963.9439	1692.6	815
1023.4813	2965.0267	1693.25	812.15
1023.5947	2966.1089	1709.5	805.95
1023.708	2967.1905	1678.75	799.7
1023.8213	2968.2714	1680.55	798.7
1023.9346	2969.3516	1681.5	802.85
1024.0478	2970.4312	1675.2	786.85
1024.1609	2971.5102	1672	793.55
1024.274	2972.5885	1665.4	787
1024.3871	2973.6662	1673.25	788.45
1024.5002	2974.7432	1669.2	787.65
1024.6132	2975.8196	1648.25	768.5
1024.7261	2976.8954	1650.65	769.95
1024.839	2977.9705	1646.55	768.9
1024.9519	2979.045	1650.35	770.95
1025.0647	2980.1188	1640.2	762.2
1025.1775	2981.192	1634.5	756.4
1025.2902	2982.2645	1631.55	750.55
1025.4029	2983.3364	1621.8	743.5
1025.5156	2984.4077	1619.9	740.85
1025.6282	2985.4783	1620.05	733.6
1025.7407	2986.5483	1609.8	732.25
1025.8532	2987.6177	1599.25	719.1
1025.9657	2988.6864	1587.6	708.25
1026.0782	2989.7545	1593.1	711.35
1026.1906	2990.8219	1577.6	696.75
1026.3029	2991.8887	1571.45	691.15
1026.4152	2992.9548	1566.35	685
1026.5275	2994.0204	1559	682.55
1026.6397	2995.0852	1547.8	669.4
1026.7519	2996.1495	1540.65	658.05
1026.864	2997.2131	1538.9	659.05
1026.9761	2998.276	1531.6	652.75
1027.0882	2999.3383	1528.7	648.45
1027.2002	3000.4	1531.25	652.2
1027.3122	3001.4611	1512.8	632
1027.4241	3002.5215	1514.95	635.15
1027.536	3003.5812	1507.45	628.75
1027.6478	3004.6404	1499.45	619.1
1027.7596	3005.6989	1496.55	615.25
1027.8714	3006.7567	1496.05	616.55
1027.9831	3007.8139	1505.4	604.8
1028.0947	3008.8705	1491.85	612.7
1028.2064	3009.9264	1487.8	604.55
1028.3179	3010.9818	1480.95	600.85
1028.4295	3012.0364	1480.6	600.4
1028.541	3013.0905	1469.65	589.55
1028.6524	3014.1439	1469.2	590.4
1028.7638	3015.1966	1469.3	588.65
1028.8752	3016.2487	1463.35	584.95
1028.9865	3017.3002	1457.65	574.2
1029.0978	3018.3511	1453.15	576.35
1029.209	3019.4013	1449.5	569.65
1029.3202	3020.4509	1448.7	568.65
1029.4314	3021.4998	1448	567.6
1029.5425	3022.5481	1448.95	568.7
1029.6535	3023.5958	1447.55	566.7
1029.7645	3024.6428	1447.05	568.05
1029.8755	3025.6892	1432.8	551.95
1029.9864	3026.735	1436.5	559.05
1030.0973	3027.7802	1428.3	548.95
1030.2082	3028.8247	1431.9	550.65
1030.319	3029.8685	1428.4	547.7
1030.4297	3030.9118	1432.55	553.25
1030.5404	3031.9544	1427.4	549.1
1030.6511	3032.9963	1422.05	543.6
1030.7617	3034.0376	1420.65	541.4
1030.8723	3035.0783	1418.7	537.55
1030.9829	3036.1184	1419.75	540.75
1031.0934	3037.1578	1413.85	535.3
1031.2038	3038.1966	1416.05	535.2
1031.3142	3039.2348	1408.7	531.3
1031.4246	3040.2723	1416.9	529
1031.5349	3041.3092	1401.2	524.75
1031.6452	3042.3455	1402.6	524.8
1031.7554	3043.3811	1405.55	525.2
1031.8656	3044.4161	1402.7	522.6
1031.9758	3045.4505	1392.35	512.8
1032.0859	3046.4842	1398	517.05
1032.1959	3047.5173	1390	510.85
1032.3059	3048.5498	1391.25	511.9
1032.4159	3049.5816	1392.8	514.75
1032.5258	3050.6128	1389.1	509.25
1032.6357	3051.6434	1394.3	513.5
1032.7455	3052.6734	1383.4	503.25
1032.8553	3053.7027	1385.1	504.4
1032.9651	3054.7314	1370.8	493.1
1033.0748	3055.7594	1381.25	503.55
1033.1845	3056.7868	1376.5	495
1033.2941	3057.8136	1373.3	493.65
1033.4037	3058.8398	1366.4	486.3
1033.5132	3059.8653	1370.75	492.1
1033.6227	3060.8902	1367.05	489.35
1033.7321	3061.9145	1370.7	493.05
1033.8415	3062.9381	1365.3	486.8
1033.9509	3063.9612	1373.1	477.15
1034.0602	3064.9835	1355.35	476.9
1034.1694	3066.0053	1360.45	479.6
1034.2787	3067.0264	1352.1	473.75
1034.3878	3068.0469	1355.95	472.7
1034.497	3069.0668	1361	480.1
1034.6061	3070.086	1346.35	468.65
1034.7151	3071.1046	1346.55	466.5
1034.8241	3072.1226	1345.15	464.75
1034.9331	3073.1399	1341.1	463.65
1035.042	3074.1567	1337.15	459.2
1035.1508	3075.1727	1336.4	456
1035.2597	3076.1882	1330.15	451.15
1035.3684	3077.203	1331.2	451.55
1035.4772	3078.2173	1328.45	449.1
1035.5859	3079.2308	1330.35	447.9
1035.6945	3080.2438	1321.55	440.45
1035.8031	3081.2561	1317.15	437.95
1035.9117	3082.2678	1320.95	441.85
1036.0202	3083.2789	1320.4	441
1036.1286	3084.2893	1311	432.9
1036.2371	3085.2991	1309.85	430.45
1036.3454	3086.3083	1311.55	427.65
1036.4538	3087.3169	1309.05	426.7
1036.562	3088.3248	1307.3	426.35
1036.6703	3089.3321	1302.6	423.25
1036.7785	3090.3388	1301.7	425.3
1036.8866	3091.3449	1297.45	417.1
1036.9948	3092.3503	1300.5	418.1
1037.1028	3093.3551	1292.4	414.6
1037.2108	3094.3593	1288.1	410.45
1037.3188	3095.3629	1293	412.25
1037.4267	3096.3658	1283.45	404.4
1037.5346	3097.3681	1278.45	400.05
1037.6425	3098.3698	1283.6	403.85
1037.7503	3099.3708	1284.3	399.1
1037.858	3100.3713	1274.4	397.4
1037.9657	3101.3711	1270.3	389.85
1038.0734	3102.3702	1399.55	384.35
1038.181	3103.3688	1275.8	395.45
1038.2886	3104.3667	1260.25	382.1
1038.3961	3105.364	1263.25	384.6
1038.5036	3106.3607	1261.35	379.6
1038.611	3107.3568	1258	374.15
1038.7184	3108.3522	1254.3	374.95
1038.8257	3109.347	1256.45	376.6
1038.933	3110.3412	1258.6	375.85
1039.0403	3111.3348	1252.35	372.95
1039.1475	3112.3277	1240.35	361.5
1039.2547	3113.32	1243.75	365.75
1039.3618	3114.3117	1245.85	365.8
1039.4689	3115.3028	1238.45	360.55
1039.5759	3116.2932	1240.55	359.8
1039.6829	3117.2831	1240.65	356.85
1039.7898	3118.2723	1235.25	356.1
1039.8967	3119.2608	1234	353.7
1040.0035	3120.2488	1234.3	355.6
1040.1103	3121.2361	1233.9	355.4
1040.2171	3122.2229	1222.6	340.8
1040.3238	3123.209	1221.9	340.85
1040.4305	3124.1944	1224.5	347.85
1040.5371	3125.1793	1224.05	342.3
1040.6437	3126.1635	1222.5	344.55
1040.7502	3127.1471	1218.05	339.95
1040.8567	3128.1301	1213.85	335.05
1040.9631	3129.1125	1216.95	339.9
1041.0695	3130.0942	1218.5	338.7
1041.1759	3131.0753	1221.1	333.9
1041.2822	3132.0558	1214.15	333.3
1041.3884	3133.0357	1211.25	327.75
1041.4946	3134.015	1201.15	322.4
1041.6008	3134.9936	1207.55	325.3
1041.7069	3135.9716	1222.75	324.8
1041.813	3136.949	1200.1	320.95
1041.919	3137.9258	1206.35	321
1042.025	3138.902	1208	325.85
1042.1309	3139.8775	1199.95	322.15
1042.2368	3140.8524	1205.65	327.05
1042.3427	3141.8267	1199.75	317.4
1042.4485	3142.8004	1196.55	316.25
1042.5542	3143.7735	1193.35	307.85
1042.6599	3144.7459	1191.7	310.4
1042.7656	3145.7178	1191.7	313.3
1042.8712	3146.689	1188	310.65
1042.9768	3147.6596	1185.5	304.75
1043.0823	3148.6295	1188.85	311.35
1043.1878	3149.5989	1185.65	306.85
1043.2932	3150.5676	1181.85	305
1043.3986	3151.5357	1179.55	300.7
1043.5039	3152.5032	1175.55	297.75
1043.6092	3153.4701	1172.55	293.8
1043.7145	3154.4364	1177	296.7
1043.8197	3155.402	1174.2	296.35
1043.9248	3156.367	1169.15	288.45
1044.03	3157.3315	1205.1	288.85
1044.135	3158.2952	1168.5	289.55
1044.24	3159.2584	1168	291.2
1044.345	3160.221	1167.45	286.9
1044.4499	3161.1829	1160.15	281.3
1044.5548	3162.1442	1164	282.7
1044.6596	3163.105	1154.4	275.2
1044.7644	3164.065	1157.55	279.5
1044.8692	3165.0245	1160.85	279.85
1044.9739	3165.9834	1153.8	276.4
1045.0785	3166.9416	1157.1	278.05
1045.1831	3167.8993	1155.95	275.35
1045.2877	3168.8563	1154.8	275.6
1045.3922	3169.8127	1150.15	270.15
1045.4966	3170.7684	1146.85	266.35
1045.6011	3171.7236	1145.9	266.35
1045.7054	3172.6782	1147.65	269.55
1045.8098	3173.6321	1146.4	267.15
1045.914	3174.5854	1152.05	265.8
1046.0183	3175.5381	1144.5	265.75
1046.1224	3176.4902	1142.45	262.2
1046.2266	3177.4417	1137.05	258.25
1046.3307	3178.3926	1135.3	257.7
1046.4347	3179.3428	1131	252.9
1046.5387	3180.2924	1133.5	254.05
1046.6427	3181.2415	1133.85	254.85
1046.7466	3182.1899	1128.85	248.95
1046.8504	3183.1377	1124.8	246.7
1046.9542	3184.0848	1134.3	251.7
1047.058	3185.0314	1130.4	252.6
1047.1617	3185.9773	1126	246.45
1047.2654	3186.9227	1124	243.4
1047.369	3187.8674	1124.15	245.9
1047.4726	3188.8115	1124.1	241
1047.5761	3189.755	1116.55	238.7
1047.6796	3190.6979	1118.55	238.95
1047.783	3191.6402	1118.9	240.8
1047.8864	3192.5818	1115.05	234.35
1047.9898	3193.5229	1135.5	241.1
1048.0931	3194.4633	1112.85	234.5
1048.1963	3195.4031	1110.85	230.6
1048.2995	3196.3423	1110.95	230.8
1048.4027	3197.2809	1109.25	229.45
1048.5058	3198.2189	1105	225.4
1048.6089	3199.1563	1125.95	228.35
1048.7119	3200.0931	1104.7	226.05
1048.8148	3201.0292	1106.35	228.15
1048.9178	3201.9648	1104.35	225.15
1049.0206	3202.8997	1102	218.5
1049.1235	3203.834	1101.05	221.5
1049.2262	3204.7677	1097.95	216.8
1049.329	3205.7008	1103.7	221.95
1049.4317	3206.6333	1098.05	222.1
1049.5343	3207.5652	1101.1	219.4
1049.6369	3208.4964	1095.65	218.7
1049.7394	3209.4271	1096.65	218.35
1049.8419	3210.3571	1095.65	217.2
1049.9444	3211.2865	1095.3	216.2
1050.0468	3212.2154	1095.6	215.9
1050.1491	3213.1436	1096.15	216.9
1050.2514	3214.0712	1097.3	210.9
1050.3537	3214.9982	1089.4	210.55
1050.4559	3215.9246	1081.65	203.55
1050.5581	3216.8503	1087.9	208.95
1050.6602	3217.7755	1083.6	204.85
1050.7623	3218.7001	1084.35	206.6
1050.8643	3219.624	1082.5	202.35
1050.9663	3220.5473	1083.45	205.75
1051.0682	3221.4701	1083.05	202.6
1051.1701	3222.3922	1082.5	203.65
1051.2719	3223.3137	1082.6	204.45
1051.3737	3224.2346	1078.05	199.05
1051.4754	3225.1549	1077.3	200.4
1051.5771	3226.0746	1071.85	193.45
1051.6788	3226.9937	1076.2	197.75
1051.7804	3227.9121	1072.55	195.95
1051.8819	3228.83	1073.1	193.95
1051.9834	3229.7473	1074.95	199
1052.0849	3230.6639	1072.25	191.2
1052.1863	3231.5799	1068.15	190.45
1052.2876	3232.4954	1068.7	188.45
1052.3889	3233.4102	1064.65	186.55
1052.4902	3234.3244	1065.9	186.6
1052.5914	3235.238	1060.6	180.7
1052.6926	3236.151	1091.4	187.95
1052.7937	3237.0634	1060.95	184.15
1052.8948	3237.9752	1060.1	182.3
1052.9958	3238.8864	1057.25	178.9
1053.0968	3239.797	1062.2	183.1
1053.1977	3240.7069	1061.05	180.95
1053.2986	3241.6163	1059.2	180.45
1053.3994	3242.5251	1055.4	175.95
1053.5002	3243.4332	1053.05	177.8
1053.6009	3244.3408	1049.1	169.65
1053.7016	3245.2477	1052.1	173.85
1053.8022	3246.154	1053.7	174.8
1053.9028	3247.0598	1052.2	172.1
1054.0034	3247.9649	1052.85	175.4
1054.1039	3248.8694	1052.65	174
1054.2043	3249.7733	1045.6	167
1054.3047	3250.6766	1046.8	167.95
1054.4051	3251.5793	1046.65	164.3
1054.5054	3252.4814	1044.65	165.5
1054.6056	3253.3829	1039.65	161.2
1054.7058	3254.2838	1038.25	160.55
1054.806	3255.1841	1042.9	164.65
1054.9061	3256.0838	1039.3	160.85
1055.0061	3256.9829	1040.8	163.05
1055.1062	3257.8814	1042.5	161.95
1055.2061	3258.7792	1039.9	158.05
1055.306	3259.6765	1035.65	155.35
1055.4059	3260.5731	1033.7	153.55
1055.5057	3261.4692	1029.45	148.75
1055.6055	3262.3647	1032.85	153.3
1055.7052	3263.2595	1029.35	148.65
1055.8049	3264.1538	1026.55	147.55
1055.9045	3265.0474	1021.65	142.75
1056.0041	3265.9404	1022	145.3
1056.1036	3266.8329	1020.75	143.1
1056.2031	3267.7247	1025.65	136.15
1056.3025	3268.616	1009.75	134.85
1056.4019	3269.5066	1010.45	131.15
1056.5013	3270.3966	1011.2	129.5
1056.6005	3271.286	1004.05	127.95
