Software Version:	3.9.2.0
Unit SN:	10000200
Spectrometer SN:	6960
Date:	3/6/2024 9:47:08 AM
Data Line Index:	25
Spectral Points:	2048
Integration time (ms):	125
Averages:	20
Delay (ms):	30
Sequence Number:	1
Processing:	dark subtract
Laser Power (mW):	305
Laser Current (mA):	823
Laser Diode Temp (C):	25.1
Laser Case Temp (C):	24.2
System Temp (C):	24
Spectrometer Temp (C):	21.6
CCD Temp (C):	0.002
Secondary Temp (C):	20.001
Heatsink Temp (C):	17.958
CCDPCB Temp (C):	30.938
SecondaryPCB Temp (C):	25.736

Wavelength	RamanShift	Raw Counts	Dark Subtracted
787.061	30.1047	451.3	44.95
787.2016	32.3739	453.7	46.35
787.3422	34.6426	455.3	48.95
787.4828	36.9109	459.8	52.45
787.6235	39.1787	466.1	54.4
787.7642	41.4461	472.35	56.9
787.9049	43.7131	479.2	59.05
788.0456	45.9796	485.05	63.7
788.1863	48.2456	494.85	69.45
788.3271	50.5112	502.15	73.05
788.4679	52.7764	512.25	81.55
788.6087	55.0411	521.3	84.8
788.7496	57.3054	530.7	88.75
788.8904	59.5692	534.7	90.05
789.0313	61.8326	545.75	98.05
789.1722	64.0955	551.85	101.95
789.3132	66.3579	562.4	109
789.4541	68.6199	587.85	129.65
789.5951	70.8815	606.95	145.5
789.7361	73.1426	656.2	189.2
789.8771	75.4032	774	303.3
790.0181	77.6634	1087.6	612.85
790.1592	79.9231	1808.3	1332.25
790.3003	82.1824	3317.2	2831.6
790.4414	84.4412	5987.1	5492.05
790.5825	86.6995	9574.55	9065.5
790.7237	88.9574	13127.2	12608.15
790.8648	91.2148	15735.9	15213.05
791.006	93.4717	17185.9	16655.7
791.1472	95.7282	17828.65	17296.35
791.2885	97.9842	18144.5	17609.55
791.4297	100.2398	18238.9	17700.9
791.571	102.4949	18309.85	17769.85
791.7123	104.7495	18333.25	17787.9
791.8536	107.0036	18298	17753.1
791.9949	109.2573	18313.7	17769.4
792.1363	111.5105	18326	17780.85
792.2777	113.7632	18319.95	17771.8
792.4191	116.0154	18332.65	17775.45
792.5605	118.2672	18381.75	17828.35
792.7019	120.5185	18388.35	17831.8
792.8434	122.7693	18416.65	17856.15
792.9849	125.0197	18450.25	17885.75
793.1264	127.2696	18470.05	17903.35
793.2679	129.519	18554	17985.15
793.4094	131.7679	18557.85	17985.8
793.551	134.0163	18605.2	18032.3
793.6926	136.2642	18631	18054.9
793.8342	138.5117	18647.25	18066.9
793.9758	140.7587	18673	18092.95
794.1175	143.0052	18709.7	18126.1
794.2591	145.2512	18657.3	18069.45
794.4008	147.4967	18610.3	18022.45
794.5425	149.7417	18622.8	18034.05
794.6842	151.9863	18642.65	18051.65
794.826	154.2304	18641.55	18041.55
794.9677	156.4739	18607.75	18001.55
795.1095	158.717	18645.5	18042.9
795.2513	160.9596	18693.9	18086.2
795.3931	163.2017	18697	18088.95
795.535	165.4433	18723.9	18111.15
795.6768	167.6844	18698.05	18083.7
795.8187	169.925	18719.15	18101.1
795.9606	172.1651	18670.8	18051.85
796.1025	174.4047	18672.25	18046.6
796.2445	176.6439	18691.1	18065.55
796.3864	178.8825	18663.8	18034.15
796.5284	181.1206	18706.75	18073.85
796.6704	183.3582	18712.5	18075.6
796.8124	185.5954	18731.05	18091.4
796.9544	187.832	18752.85	18111.75
797.0965	190.0681	18775.25	18128.35
797.2386	192.3037	18870.85	18218.4
797.3806	194.5388	18849.35	18196.55
797.5228	196.7734	18916.75	18262.8
797.6649	199.0075	18955.15	18299.2
797.807	201.2411	19031.25	18377.55
797.9492	203.4742	19099.8	18442.4
798.0914	205.7068	19163.8	18500.5
798.2336	207.9389	19172.3	18508
798.3758	210.1704	19223.05	18564.9
798.518	212.4015	19186	18541.95
798.6603	214.632	19239.85	18603
798.8025	216.862	19263.15	18626.45
798.9448	219.0915	19259.55	18619.05
799.0871	221.3205	19294.6	18652
799.2294	223.549	19360.55	18723.65
799.3718	225.777	19400.95	18760.15
799.5141	228.0044	19426.7	18777.8
799.6565	230.2314	19486.05	18835.85
799.7989	232.4578	19461.75	18807.5
799.9413	234.6837	19481.8	18820.5
800.0837	236.909	19537.35	18872.55
800.2262	239.1339	19540.05	18852.75
800.3687	241.3582	19556.45	18882.9
800.5111	243.582	19575.3	18867.55
800.6536	245.8053	19598.35	18908.25
800.7961	248.0281	19610.05	18923.25
800.9387	250.2503	19612	18921.35
801.0812	252.472	19599.45	18907.5
801.2238	254.6932	19670.3	18979.55
801.3664	256.9139	19604.65	18912.65
801.509	259.134	19656.5	18958.95
801.6516	261.3536	19661.2	18967.05
801.7942	263.5727	19728.95	19032.55
801.9369	265.7912	19718.75	19021.95
802.0795	268.0092	19773.95	19080.3
802.2222	270.2267	19769.8	19069.7
802.3649	272.4436	19831.25	19130.45
802.5076	274.6601	19843.05	19131.15
802.6504	276.8759	19820	19116.05
802.7931	279.0913	19827.9	19121
802.9359	281.3061	19826.1	19116.2
803.0787	283.5204	19893.4	19182.85
803.2215	285.7341	19914.4	19200.4
803.3643	287.9473	19967.95	19240.7
803.5071	290.16	19957.5	19240.3
803.6499	292.3721	19922.95	19211.45
803.7928	294.5837	19940.4	19228.1
803.9357	296.7947	19892.05	19176.25
804.0786	299.0052	19905.35	19189.5
804.2215	301.2152	19895	19176.55
804.3644	303.4246	19885.2	19172.55
804.5074	305.6334	19858.95	19144.65
804.6503	307.8418	19882.75	19160.2
804.7933	310.0495	19838.15	19117.1
804.9363	312.2568	19804.4	19084.05
805.0793	314.4635	19710.15	18987.1
805.2223	316.6696	19684	18955.95
805.3653	318.8752	19637.95	18900.25
805.5084	321.0802	19592.4	18860.95
805.6514	323.2847	19622.7	18891.95
805.7945	325.4887	19611.2	18879.85
805.9376	327.692	19561.3	18830
806.0807	329.8949	19642.75	18907.85
806.2238	332.0972	19634.2	18899
806.367	334.2989	19669.45	18930.75
806.5101	336.5001	19655.55	18916.9
806.6533	338.7007	19654.75	18918.4
806.7965	340.9008	19652.6	18914.35
806.9397	343.1003	19597.75	18855
807.0829	345.2992	19625.15	18880.7
807.2261	347.4976	19599.75	18854.6
807.3693	349.6955	19541.2	18791.75
807.5126	351.8927	19549.55	18798.35
807.6559	354.0895	19540.2	18780.85
807.7991	356.2856	19566.9	18816.5
807.9424	358.4812	19507.65	18756.65
808.0857	360.6763	19540.85	18784.75
808.2291	362.8707	19515.5	18760.6
808.3724	365.0646	19526.15	18766.3
808.5158	367.258	19477.75	18715.95
808.6591	369.4508	19466.3	18700.85
808.8025	371.643	19521.65	18755
808.9459	373.8346	19442.05	18675.15
809.0893	376.0257	19438.2	18672
809.2327	378.2162	19395.2	18629.15
809.3762	380.4062	19459.7	18696.95
809.5196	382.5956	19376.3	18618
809.6631	384.7844	19387	18630.8
809.8066	386.9726	19290.8	18534.5
809.9501	389.1603	19256.7	18498.85
810.0936	391.3474	19270.15	18467.9
810.2371	393.5339	19233.3	18470.2
810.3806	395.7199	19184.45	18424.05
810.5241	397.9052	19196.6	18435.15
810.6677	400.09	19196.95	18432.5
810.8113	402.2743	19201.75	18435.6
810.9548	404.4579	19208	18442.4
811.0984	406.641	19233.85	18464.35
811.2421	408.8235	19258.15	18487.4
811.3857	411.0054	19310.5	18539.4
811.5293	413.1868	19384.65	18609.3
811.673	415.3675	19420.1	18642.65
811.8166	417.5477	19416.75	18637.05
811.9603	419.7273	19360.2	18577.8
812.104	421.9064	19236.9	18450.2
812.2477	424.0848	19146.5	18363.25
812.3914	426.2627	19048.05	18264.45
812.5351	428.4399	19043.3	18258.95
812.6788	430.6166	18939.5	18150.6
812.8226	432.7928	18876.05	18086.1
812.9663	434.9683	18844.65	18057.05
813.1101	437.1432	18785.05	17995
813.2539	439.3176	18701.55	17915.9
813.3977	441.4914	18651.6	17867.5
813.5415	443.6645	18672.4	17879.95
813.6853	445.8371	18580.95	17791.45
813.8291	448.0091	18535.25	17743.95
813.973	450.1806	18474.9	17683.55
814.1168	452.3514	18433.6	17640.75
814.2607	454.5216	18444.1	17642.3
814.4046	456.6913	18327	17532.25
814.5485	458.8603	18340.1	17547.25
814.6924	461.0288	18333.85	17541.1
814.8363	463.1967	18283.4	17491.75
814.9802	465.3639	18348.25	17554.45
815.1241	467.5306	18258.15	17462.15
815.2681	469.6967	18260.05	17464.8
815.412	471.8622	18193.9	17398.5
815.556	474.0271	18166.65	17371.9
815.7	476.1914	18169.85	17371.6
815.844	478.3551	18146.55	17349.1
815.988	480.5182	18159.6	17362.25
816.132	482.6807	18165.9	17370.4
816.276	484.8426	18203	17407.5
816.4201	487.0039	18228.6	17427.95
816.5641	489.1647	18229.4	17427.1
816.7082	491.3248	18300.55	17499
816.8522	493.4843	18264.65	17463.25
816.9963	495.6432	18256.85	17454.5
817.1404	497.8015	18194.65	17388.8
817.2845	499.9592	18191.15	17388.4
817.4286	502.1163	18127	17320.25
817.5727	504.2728	18079.65	17272.25
817.7168	506.4287	18127.85	17322.85
817.861	508.5839	18059.35	17252.75
818.0051	510.7386	18055.1	17248.65
818.1493	512.8927	18059	17246.05
818.2935	515.0461	18034.05	17223.95
818.4377	517.199	18013.65	17202.4
818.5818	519.3512	18024.35	17214
818.726	521.5029	18039.65	17225.25
818.8703	523.6539	18037.8	17224.75
819.0145	525.8043	18031.2	17219.05
819.1587	527.9541	18019.15	17204.4
819.303	530.1033	17950.35	17135.45
819.4472	532.2519	17909.1	17096.35
819.5915	534.3999	17857.65	17042.6
819.7357	536.5472	17857.75	17044.45
819.88	538.694	17865.9	17052.1
820.0243	540.8401	17862.8	17045.55
820.1686	542.9856	17858.7	17039.45
820.3129	545.1305	17847	17026.9
820.4572	547.2748	17846	17023.75
820.6016	549.4185	17832.1	17010.2
820.7459	551.5615	17815.45	16994.75
820.8902	553.704	17836.4	17013.8
821.0346	555.8458	17804.65	16982.95
821.1789	557.987	17818.3	16998.55
821.3233	560.1276	17800.1	16978.35
821.4677	562.2675	17851.6	17029.65
821.6121	564.4069	17810.8	16989.45
821.7565	566.5456	17793.15	16971.7
821.9009	568.6837	17778.3	16954.1
822.0453	570.8212	17692.15	16870.65
822.1897	572.958	17655.1	16827.65
822.3342	575.0942	17584.1	16764.05
822.4786	577.2299	17502.75	16681.5
822.6231	579.3648	17458.85	16638.65
822.7675	581.4992	17381.15	16561.1
822.912	583.6329	17340.25	16520.65
823.0565	585.766	17320.65	16498.05
823.201	587.8985	17306.25	16483.4
823.3454	590.0304	17279.25	16438.65
823.4899	592.1616	17276.75	16447.5
823.6345	594.2922	17241.05	16412.4
823.779	596.4222	17202.15	16371.75
823.9235	598.5515	17110.05	16278.15
824.068	600.6802	17088.35	16260.3
824.2126	602.8083	16981.8	16152
824.3571	604.9358	16951.2	16121.5
824.5017	607.0626	16934.3	16101.6
824.6462	609.1888	16918.7	16085.65
824.7908	611.3144	16893.6	16059.9
824.9354	613.4393	16873.65	16041.15
825.08	615.5636	16875	16040.8
825.2246	617.6873	16911.5	16076.95
825.3692	619.8103	16939.55	16103.25
825.5138	621.9327	16879.75	16041.35
825.6584	624.0544	16895.85	16065.7
825.803	626.1756	16804.2	15969.05
825.9477	628.2961	16784.7	15949.85
826.0923	630.4159	16732.95	15896.75
826.237	632.5351	16737.85	15899.8
826.3816	634.6537	16703.65	15864.1
826.5263	636.7716	16635.4	15795.9
826.6709	638.8889	16680.8	15843.75
826.8156	641.0056	16691	15851.55
826.9603	643.1216	16665.7	15824.7
827.105	645.237	16699	15857.65
827.2497	647.3518	16643.65	15805.8
827.3944	649.4659	16609.1	15775.15
827.5391	651.5793	16583.1	15745.8
827.6838	653.6922	16520.85	15681.15
827.8285	655.8043	16482	15643.6
827.9733	657.9159	16507.55	15668.1
828.118	660.0268	16439.45	15595.3
828.2627	662.137	16402.5	15559.45
828.4075	664.2466	16424.75	15579.9
828.5522	666.3556	16404.15	15561
828.697	668.4639	16338.75	15491.65
828.8418	670.5716	16361.6	15519.75
828.9865	672.6786	16329.35	15484.85
829.1313	674.785	16269.7	15421.25
829.2761	676.8907	16209.7	15368.6
829.4209	678.9958	16207.15	15364
829.5657	681.1002	16173.35	15325.65
829.7105	683.204	16150.25	15299.7
829.8553	685.3072	16160.85	15311.75
830.0001	687.4097	16126.5	15279.6
830.1449	689.5115	16130.9	15282.35
830.2898	691.6127	16119.95	15272.95
830.4346	693.7132	16065.65	15219.8
830.5794	695.8131	16099.5	15227.85
830.7243	697.9123	16094.6	15244
830.8691	700.0109	16046.2	15194.9
831.014	702.1089	16013.6	15163.35
831.1588	704.2061	16001.05	15152.25
831.3037	706.3028	16007.35	15157.6
831.4486	708.3987	15982.25	15133.95
831.5935	710.4941	15979.15	15129.35
831.7383	712.5887	15969.55	15116.95
831.8832	714.6827	15947.8	15094.15
832.0281	716.7761	15950.85	15097.75
832.173	718.8688	15934.45	15079.6
832.3179	720.9608	15914.25	15057.7
832.4628	723.0522	15934.35	15075.95
832.6077	725.1429	15875.25	15023.2
832.7527	727.233	15889.1	15035.95
832.8976	729.3224	15934.5	15082.25
833.0425	731.4112	15918.65	15063.05
833.1874	733.4993	15885	15027.7
833.3324	735.5867	15822.4	14967.55
833.4773	737.6735	15768.35	14912.5
833.6222	739.7596	15725	14867.9
833.7672	741.845	15691.3	14838.1
833.9122	743.9298	15640	14781.35
834.0571	746.014	15621.8	14766.3
834.2021	748.0974	15625.15	14766.5
834.347	750.1802	15599.15	14740.25
834.492	752.2624	15532.6	14675.25
834.637	754.3439	15476.8	14615.85
834.782	756.4247	15428.25	14560.55
834.9269	758.5048	15399.3	14540.2
835.0719	760.5843	15345.2	14485.1
835.2169	762.6631	15316.65	14458.2
835.3619	764.7413	15295.55	14438.8
835.5069	766.8188	15366.2	14504.65
835.6519	768.8956	15331.9	14472.9
835.7969	770.9718	15388.25	14528.45
835.9419	773.0473	15287.05	14427.55
836.0869	775.1221	15267.65	14408.05
836.232	777.1962	15212.75	14352.35
836.377	779.2697	15228.9	14366.55
836.522	781.3426	15235.1	14351.75
836.667	783.4147	15232.9	14370.8
836.8121	785.4862	15242.7	14384.55
836.9571	787.557	15135.6	14273.8
837.1021	789.6271	15087.3	14224.95
837.2472	791.6966	14996.95	14133.8
837.3922	793.7654	14910.15	14046.45
837.5373	795.8335	14888.35	14028.25
837.6823	797.901	14803.65	13940.75
837.8274	799.9678	14816.65	13951.7
837.9724	802.0339	14754.9	13891.1
838.1175	804.0993	14747.9	13874.7
838.2626	806.1641	14733.85	13869.3
838.4076	808.2282	14638.1	13774
838.5527	810.2916	14662.45	13796.4
838.6978	812.3544	14661	13798.5
838.8428	814.4164	14613.4	13751.6
838.9879	816.4778	14601.05	13734.7
839.133	818.5385	14556.05	13692.25
839.2781	820.5986	14597.65	13733.65
839.4232	822.658	14623.75	13755.7
839.5682	824.7166	14571.65	13708
839.7133	826.7747	14629.3	13762.85
839.8584	828.832	14640.35	13775.55
840.0035	830.8886	14602.65	13738
840.1486	832.9446	14642.25	13773.1
840.2937	834.9999	14570.8	13706
840.4388	837.0545	14545.85	13675.45
840.5839	839.1085	14505.25	13637.2
840.729	841.1618	14449.8	13578.2
840.8741	843.2143	14391.35	13522.65
841.0192	845.2662	14311.15	13443.5
841.1643	847.3175	14302.1	13434.25
841.3095	849.368	14251.6	13382.95
841.4546	851.4179	14258.65	13390
841.5997	853.467	14174.15	13306.25
841.7448	855.5155	14167.1	13297.15
841.8899	857.5633	14150.3	13283.8
842.0351	859.6105	14079	13210.4
842.1802	861.6569	14090.9	13225.2
842.3253	863.7027	14055.6	13185.2
842.4704	865.7478	14037.75	13165.2
842.6156	867.7922	14021.95	13151.25
842.7607	869.8359	14013.4	13140.4
842.9058	871.8789	13982.7	13113.2
843.0509	873.9212	14012.1	13106.5
843.1961	875.9629	13932.2	13062.75
843.3412	878.0039	13923.85	13052.9
843.4863	880.0441	13893.95	13022.65
843.6315	882.0837	13928.15	13055.75
843.7766	884.1226	13918.2	13047.75
843.9218	886.1609	13881.5	13011.25
844.0669	888.1984	13936.25	13065.7
844.212	890.2352	13964.45	13092
844.3572	892.2714	13940.1	13066.3
844.5023	894.3069	13919.15	13048.3
844.6475	896.3416	13841.3	12969.1
844.7926	898.3757	13843.75	12970.05
844.9377	900.4091	13823.25	12949.85
845.0829	902.4418	13795.95	12919.7
845.228	904.4739	13782.95	12907.45
845.3732	906.5052	13735.45	12860.85
845.5183	908.5358	13705.45	12834.3
845.6635	910.5658	13703.2	12826.8
845.8086	912.595	13651.5	12777.5
845.9538	914.6236	13620.1	12746.35
846.0989	916.6515	13569.95	12695.4
846.2441	918.6786	13559.6	12685.5
846.3892	920.7051	13519.7	12642.65
846.5344	922.7309	13545.2	12671.3
846.6795	924.756	13471.35	12596.4
846.8246	926.7804	13446.3	12568.75
846.9698	928.8041	13357.85	12481.95
847.1149	930.8272	13388.8	12511.8
847.2601	932.8495	13284.75	12408.05
847.4052	934.8711	13312.65	12435.7
847.5504	936.892	13287.45	12410.65
847.6955	938.9123	13239.25	12359.1
847.8407	940.9318	13231.95	12356.55
847.9858	942.9506	13211.1	12335.65
848.131	944.9688	13141.65	12265.55
848.2761	946.9862	13117.95	12240.7
848.4213	949.003	13039.85	12162.9
848.5664	951.019	13001.55	12125.25
848.7115	953.0344	12961.8	12084.9
848.8567	955.0491	12950.55	12072
849.0018	957.063	12960.8	12084
849.147	959.0763	12947.3	12072.35
849.2921	961.0888	12899.45	12021.9
849.4373	963.1007	12912.3	12034.75
849.5824	965.1119	12890.3	12015.85
849.7275	967.1223	12843.05	11966.7
849.8727	969.1321	12834.9	11960.7
850.0178	971.1412	12832.6	11956.35
850.1629	973.1495	12788.9	11916
850.3081	975.1572	12802.45	11879.85
850.4532	977.1641	12762	11884.25
850.5983	979.1704	12724.95	11846.2
850.7435	981.1759	12684.1	11803
850.8886	983.1808	12695.9	11817.35
851.0337	985.1849	12617.4	11727.5
851.1788	987.1884	12606	11723.85
851.324	989.1911	12590.45	11709.6
851.4691	991.1932	12568.45	11690.05
851.6142	993.1945	12540.05	11662.2
851.7593	995.1951	12474.6	11595.05
851.9045	997.1951	12454.75	11569.55
852.0496	999.1943	12427.55	11548.35
852.1947	1001.1928	12374.9	11494.4
852.3398	1003.1906	12339.55	11461.45
852.4849	1005.1877	12315.2	11433.5
852.63	1007.1841	12262.8	11383.65
852.7751	1009.1798	12250.85	11374.25
852.9202	1011.1748	12184.75	11304.55
853.0653	1013.1691	12141.9	11259.25
853.2104	1015.1627	12134.95	11254.75
853.3555	1017.1556	11995.2	11115.8
853.5006	1019.1477	11987.8	11109.3
853.6457	1021.1392	11910.9	11034.05
853.7908	1023.1299	11865.5	10988.05
853.9359	1025.12	11847.55	10970.55
854.081	1027.1093	11777.75	10902.3
854.2261	1029.0979	11777.8	10903.65
854.3712	1031.0859	11700.8	10826.4
854.5163	1033.0731	11698.35	10819.8
854.6613	1035.0596	11676.05	10799.5
854.8064	1037.0454	11620.75	10741.35
854.9515	1039.0304	11602.6	10724.2
855.0965	1041.0148	11566.3	10687.2
855.2416	1042.9985	11494.1	10611.75
855.3867	1044.9814	11503.6	10626.65
855.5317	1046.9636	11461.9	10578.55
855.6768	1048.9452	11407.6	10527.5
855.8219	1050.926	11395.95	10517.25
855.9669	1052.9061	11378.8	10498.25
856.112	1054.8855	11349.3	10469.75
856.257	1056.8642	11316.2	10435.25
856.4021	1058.8421	11321.2	10434.65
856.5471	1060.8194	11265.4	10383.4
856.6921	1062.7959	11252.9	10370.85
856.8372	1064.7717	11236.7	10357.35
856.9822	1066.7469	11243.2	10362.5
857.1272	1068.7213	11198.7	10315.45
857.2723	1070.695	11222.75	10340.3
857.4173	1072.6679	11169.45	10288.4
857.5623	1074.6402	11154.95	10272.3
857.7073	1076.6117	11132.45	10245.5
857.8523	1078.5826	11128.8	10245.15
857.9973	1080.5527	11096.2	10211.35
858.1423	1082.5221	11018.3	10135.6
858.2873	1084.4908	11008.7	10126.7
858.4323	1086.4587	10966.2	10084.7
858.5773	1088.426	10921.65	10036.65
858.7223	1090.3925	10895.05	10008.25
858.8673	1092.3584	10905.8	10022.55
859.0123	1094.3235	10848.95	9968.3
859.1573	1096.2879	10852.45	9969.15
859.3022	1098.2515	10846.1	9962.6
859.4472	1100.2145	10849.85	9967.85
859.5922	1102.1767	10822.6	9938.4
859.7371	1104.1382	10816.05	9930.15
859.8821	1106.099	10794.4	9908.25
860.027	1108.0591	10793.95	9912.1
860.172	1110.0185	10812.3	9926.35
860.3169	1111.9771	10816.45	9935.1
860.4619	1113.9351	10779.4	9896.8
860.6068	1115.8923	10805.5	9924.65
860.7517	1117.8488	10790.3	9903.95
860.8967	1119.8045	10760.95	9879.85
861.0416	1121.7596	10683.05	9801.3
861.1865	1123.7139	10599.7	9716.9
861.3314	1125.6675	10543.05	9658.9
861.4763	1127.6204	10530.6	9647.1
861.6212	1129.5726	10509.65	9626.5
861.7661	1131.524	10487.75	9603.7
861.911	1133.4748	10437.1	9552.95
862.0559	1135.4248	10401.25	9514.75
862.2008	1137.3741	10358.15	9479.45
862.3457	1139.3226	10301.75	9414.6
862.4905	1141.2705	10327.3	9443.9
862.6354	1143.2176	10282.65	9393.35
862.7803	1145.164	10278.2	9391.75
862.9251	1147.1097	10236.2	9350.7
863.07	1149.0546	10209.65	9326
863.2148	1150.9989	10202.9	9315.45
863.3597	1152.9424	10195.3	9308.9
863.5045	1154.8852	10151.85	9267.9
863.6493	1156.8272	10141.55	9259.05
863.7942	1158.7686	10144.6	9253.35
863.939	1160.7092	10095.95	9210
864.0838	1162.6491	10090.35	9203.8
864.2286	1164.5883	10089.7	9207.25
864.3734	1166.5267	10072.4	9186.2
864.5182	1168.4644	10069.9	9187.05
864.663	1170.4014	10077.7	9189.8
864.8078	1172.3377	10075.7	9190.2
864.9526	1174.2732	10102.6	9215.7
865.0974	1176.2081	10152.6	9267.8
865.2421	1178.1421	10151.85	9263.55
865.3869	1180.0755	10208.85	9323.9
865.5317	1182.0082	10217.15	9332.5
865.6764	1183.9401	10190.35	9305.05
865.8212	1185.8713	10121.9	9238.7
865.9659	1187.8017	10032	9150.55
866.1106	1189.7315	9964.9	9083.7
866.2554	1191.6605	9874	8993.5
866.4001	1193.5888	9817.9	8935.65
866.5448	1195.5163	9786.05	8903.7
866.6895	1197.4432	9749.8	8864.35
866.8342	1199.3693	9711.65	8826.95
866.9789	1201.2947	9662.45	8769.65
867.1236	1203.2193	9612.9	8727.3
867.2683	1205.1432	9590.3	8703.7
867.413	1207.0664	9549.15	8665.2
867.5576	1208.9889	9555.7	8666.7
867.7023	1210.9106	9515.85	8630.85
867.847	1212.8316	9487.55	8603.5
867.9916	1214.7519	9474.9	8581.75
868.1363	1216.6715	9452.5	8568.15
868.2809	1218.5903	9437.75	8555.15
868.4255	1220.5084	9429.65	8543.75
868.5701	1222.4257	9415.45	8529.65
868.7148	1224.3424	9397.15	8513.95
868.8594	1226.2583	9379.65	8489.35
869.004	1228.1735	9358.9	8473.85
869.1486	1230.0879	9368.7	8481.25
869.2932	1232.0016	9363.55	8479.3
869.4377	1233.9146	9346	8458.75
869.5823	1235.8269	9333.05	8450.5
869.7269	1237.7384	9345.5	8461.3
869.8715	1239.6492	9300.25	8414.2
870.016	1241.5592	9309.6	8423.2
870.1606	1243.4686	9280.85	8394.75
870.3051	1245.3772	9318.05	8430.9
870.4496	1247.285	9340.1	8451.75
870.5941	1249.1922	9378.1	8492.85
870.7387	1251.0986	9387.35	8502.45
870.8832	1253.0042	9377.95	8492.15
871.0277	1254.9092	9436.3	8551.75
871.1722	1256.8134	9461	8577.45
871.3167	1258.7169	9508.45	8620.45
871.4611	1260.6196	9461.6	8577.35
871.6056	1262.5216	9468.25	8581.9
871.7501	1264.4229	9467.2	8582.4
871.8945	1266.3234	9469.75	8584.05
872.039	1268.2232	9408.8	8519.4
872.1834	1270.1223	9386.7	8500.1
872.3278	1272.0207	9331.45	8443.1
872.4723	1273.9183	9287.85	8396.25
872.6167	1275.8151	9275.85	8391.6
872.7611	1277.7113	9300.35	8413.15
872.9055	1279.6067	9315.2	8429.9
873.0499	1281.5014	9372.95	8485.7
873.1943	1283.3953	9460.25	8571.4
873.3386	1285.2885	9524.95	8639
873.483	1287.181	9604.5	8720.75
873.6274	1289.0727	9641.7	8755.8
873.7717	1290.9637	9615.2	8728.65
873.9161	1292.854	9573.55	8688.8
874.0604	1294.7435	9484.6	8597.75
874.2047	1296.6323	9388.4	8502.2
874.349	1298.5204	9348.6	8459.4
874.4933	1300.4077	9299.95	8411.9
874.6376	1302.2943	9262.7	8374.8
874.7819	1304.1802	9253.55	8367.8
874.9262	1306.0653	9218.85	8331.55
875.0705	1307.9497	9172.2	8283.2
875.2147	1309.8333	9169.25	8281.75
875.359	1311.7162	9138.25	8249.9
875.5032	1313.5984	9116.55	8227.2
875.6475	1315.4798	9072.85	8175.75
875.7917	1317.3605	9043.3	8140
875.9359	1319.2405	9034.1	8143.3
876.0801	1321.1197	9025	8134.8
876.2243	1322.9982	8947.9	8056.95
876.3685	1324.876	8922.15	8035.7
876.5127	1326.753	8860	7973.4
876.6569	1328.6293	8790.55	7902.45
876.801	1330.5048	8758.15	7867.45
876.9452	1332.3796	8709.7	7823.8
877.0893	1334.2537	8683.3	7774.35
877.2335	1336.127	8647.05	7758.4
877.3776	1337.9996	8581.85	7694.55
877.5217	1339.8714	8544.75	7657.35
877.6658	1341.7426	8574.55	7641.35
877.8099	1343.6129	8554.2	7666.95
877.954	1345.4826	8499.85	7612.8
878.0981	1347.3515	8522.4	7633.15
878.2422	1349.2196	8477.6	7590.1
878.3862	1351.087	8470.15	7584.35
878.5303	1352.9537	8454.25	7565.7
878.6743	1354.8197	8451.95	7562.85
878.8184	1356.6849	8478.15	7589.5
878.9624	1358.5493	8429.05	7539.85
879.1064	1360.4131	8454.5	7566.45
879.2504	1362.276	8423.95	7537.85
879.3944	1364.1383	8441.75	7555.75
879.5384	1365.9998	8435.35	7540.2
879.6823	1367.8606	8422.85	7535.3
879.8263	1369.7206	8373.2	7484.5
879.9702	1371.5799	8367.7	7478.1
880.1142	1373.4384	8349.4	7462.6
880.2581	1375.2962	8324.65	7436.1
880.402	1377.1533	8270.85	7385.5
880.5459	1379.0096	8190.25	7303.05
880.6898	1380.8652	8163.9	7278.4
880.8337	1382.7201	8129.65	7240
880.9776	1384.5742	8070.5	7182.5
881.1215	1386.4275	8029.35	7142.4
881.2653	1388.2802	8003.9	7117.95
881.4092	1390.132	7989.75	7102.25
881.553	1391.9832	7975.7	7086.9
881.6968	1393.8336	7930.05	7041.25
881.8406	1395.6832	7911.9	7022.3
881.9844	1397.5322	7877.05	6989.55
882.1282	1399.3803	7861.8	6967.5
882.272	1401.2278	7801.55	6911.6
882.4158	1403.0745	7797.95	6909.8
882.5595	1404.9204	7732.7	6844.4
882.7033	1406.7656	7745.75	6859.75
882.847	1408.6101	7693.95	6806.55
882.9908	1410.4538	7682.2	6793.9
883.1345	1412.2968	7661.85	6774.35
883.2782	1414.139	7639.25	6752.7
883.4219	1415.9805	7618.45	6731.2
883.5656	1417.8213	7600.05	6706.35
883.7092	1419.6613	7588.75	6698.9
883.8529	1421.5006	7600.9	6713.4
883.9965	1423.3391	7586	6696.2
884.1402	1425.1769	7595.4	6705.55
884.2838	1427.0139	7622.55	6735.8
884.4274	1428.8502	7660.25	6771.7
884.571	1430.6858	7703.65	6814.1
884.7146	1432.5206	7672.2	6784.3
884.8582	1434.3547	7676.9	6788.5
885.0018	1436.188	7653.3	6766.65
885.1453	1438.0206	7658.75	6772.05
885.2889	1439.8524	7574.7	6687.05
885.4324	1441.6835	7590.6	6703.85
885.5759	1443.5139	7588.05	6697.2
885.7194	1445.3435	7557.95	6668.45
885.8629	1447.1724	7538.95	6652.3
886.0064	1449.0005	7540.65	6652.15
886.1499	1450.8279	7511.35	6623.3
886.2933	1452.6545	7491.2	6602.8
886.4368	1454.4804	7509.3	6621.75
886.5802	1456.3056	7475.8	6583.75
886.7237	1458.13	7441.9	6555.4
886.8671	1459.9536	7410.55	6523.05
887.0105	1461.7766	7394.2	6506.45
887.1539	1463.5987	7368.45	6480.5
887.2972	1465.4202	7325	6437.5
887.4406	1467.2409	7289.95	6402.7
887.584	1469.0608	7275.85	6390.1
887.7273	1470.88	7248.95	6360.85
887.8706	1472.6984	7222.75	6336.35
888.0139	1474.5161	7185.1	6294.65
888.1572	1476.3331	7144.25	6254.8
888.3005	1478.1493	7136.25	6247.65
888.4438	1479.9648	7135.5	6247.15
888.5871	1481.7795	7113.2	6227.55
888.7303	1483.5935	7102.95	6215.65
888.8736	1485.4067	7086.15	6199.15
889.0168	1487.2192	7066.45	6179.55
889.16	1489.031	7056.2	6164.4
889.3032	1490.842	7052.5	6166.35
889.4464	1492.6522	7039.9	6153.2
889.5896	1494.4618	7025.55	6135
889.7327	1496.2705	6985.5	6097.55
889.8759	1498.0785	6978.85	6091.8
890.019	1499.8858	6969.8	6079.2
890.1622	1501.6924	6949.45	6061.5
890.3053	1503.4981	6937.95	6051.05
890.4484	1505.3032	6911.8	6025.35
890.5914	1507.1075	6882.45	5995.05
890.7345	1508.911	6878.95	5991
890.8776	1510.7138	6866.1	5978.3
891.0206	1512.5159	6834.9	5946.25
891.1637	1514.3172	6807.95	5920.65
891.3067	1516.1178	6779.25	5892.4
891.4497	1517.9176	6779.6	5887.35
891.5927	1519.7166	6730.7	5843.65
891.7357	1521.515	6715.25	5820.95
891.8786	1523.3126	6714.5	5826.25
892.0216	1525.1094	6672.7	5782.55
892.1645	1526.9055	6653.65	5766.95
892.3074	1528.7008	6640.6	5755.3
892.4503	1530.4954	6612.9	5723.65
892.5932	1532.2893	6585.55	5699.95
892.7361	1534.0824	6550.45	5658.15
892.879	1535.8747	6534.05	5646.25
893.0218	1537.6663	6504.4	5615.55
893.1647	1539.4572	6503	5614.25
893.3075	1541.2473	6479.05	5590.9
893.4503	1543.0367	6449.55	5564.3
893.5931	1544.8253	6433.6	5542.85
893.7359	1546.6132	6418.55	5528.9
893.8787	1548.4003	6384.7	5488.6
894.0214	1550.1867	6386.5	5492.2
894.1642	1551.9723	6390.45	5501.7
894.3069	1553.7572	6353.55	5464.65
894.4496	1555.5414	6346.3	5460.25
894.5923	1557.3247	6343.85	5457.5
894.735	1559.1074	6358.1	5472.3
894.8777	1560.8893	6341	5456.8
895.0204	1562.6705	6361	5472.85
895.163	1564.4509	6331.05	5446.55
895.3056	1566.2305	6329.95	5445.3
895.4482	1568.0094	6325	5440.25
895.5908	1569.7876	6288.35	5401.85
895.7334	1571.565	6291.45	5405.05
895.876	1573.3417	6281.05	5397.65
896.0186	1575.1176	6259.15	5373.3
896.1611	1576.8928	6248.2	5363.7
896.3036	1578.6672	6229.7	5349.1
896.4461	1580.4409	6210.85	5327.85
896.5886	1582.2138	6206.45	5318.5
896.7311	1583.986	6232.2	5349.55
896.8736	1585.7575	6234.65	5348.35
897.0161	1587.5282	6221.95	5340.1
897.1585	1589.2981	6246.85	5364.3
897.3009	1591.0673	6213.8	5329.3
897.4433	1592.8358	6211.2	5327.4
897.5857	1594.6035	6206.4	5321.25
897.7281	1596.3704	6163.85	5280.95
897.8705	1598.1366	6129.55	5245.6
898.0128	1599.9021	6109.25	5226.2
898.1551	1601.6668	6075.95	5191.35
898.2975	1603.4308	6045.2	5159.7
898.4398	1605.194	6040.8	5152.35
898.5821	1606.9564	6014.3	5130.6
898.7243	1608.7182	6017.1	5127.75
898.8666	1610.4791	6069.45	5188.15
899.0088	1612.2394	6087.65	5205.65
899.1511	1613.9988	6151.7	5269.15
899.2933	1615.7576	6161.85	5278.95
899.4355	1617.5156	6186.2	5295.05
899.5776	1619.2728	6169.8	5285.5
899.7198	1621.0293	6084.6	5201.3
899.862	1622.785	6006.3	5118.95
900.0041	1624.54	5907.65	5021.3
900.1462	1626.2942	5833.9	4951.15
900.2883	1628.0477	5748.6	4861.9
900.4304	1629.8005	5693.05	4806.2
900.5725	1631.5525	5633.65	4749.05
900.7145	1633.3037	5594.85	4711.35
900.8566	1635.0542	5538.75	4654.45
900.9986	1636.804	5492.15	4606.3
901.1406	1638.553	5542.5	4569.25
901.2826	1640.3013	5440.5	4557.2
901.4245	1642.0488	5421.9	4537.5
901.5665	1643.7955	5378.45	4496.95
901.7085	1645.5416	5364.05	4480.8
901.8504	1647.2868	5347.85	4464.9
901.9923	1649.0313	5323	4439.45
902.1342	1650.7751	5307.95	4421.4
902.2761	1652.5181	5301.75	4419.8
902.4179	1654.2604	5256.75	4372
902.5598	1656.0019	5253.15	4370.6
902.7016	1657.7427	5244.55	4359.95
902.8434	1659.4828	5243.3	4361.05
902.9852	1661.222	5256.05	4370.5
903.127	1662.9606	5247.25	4363.75
903.2687	1664.6984	5250.8	4367.35
903.4105	1666.4354	5239.35	4353.25
903.5522	1668.1717	5216.4	4332.95
903.6939	1669.9072	5163.6	4279.3
903.8356	1671.642	5161	4272.45
903.9773	1673.3761	5109.6	4225.65
904.119	1675.1094	5063.3	4179.15
904.2606	1676.8419	5038.45	4152.95
904.4022	1678.5737	4989.25	4105.35
904.5439	1680.3048	4982.55	4099.4
904.6855	1682.0351	4958.7	4074.7
904.827	1683.7646	4923.1	4034.85
904.9686	1685.4934	4898.05	4015.5
905.1101	1687.2215	4880.2	3995.95
905.2517	1688.9488	4858.1	3974.15
905.3932	1690.6754	4851.95	3969.35
905.5347	1692.4012	4824.35	3942.05
905.6761	1694.1263	4800.1	3915.45
905.8176	1695.8506	4791	3905.45
905.9591	1697.5742	4773.65	3891.4
906.1005	1699.297	4750.35	3866.95
906.2419	1701.0191	4735.7	3852.85
906.3833	1702.7404	4721.75	3839
906.5246	1704.461	4686.85	3800.85
906.666	1706.1808	4660.9	3775.2
906.8073	1707.8999	4667.7	3782.45
906.9487	1709.6182	4646.3	3763.4
907.09	1711.3358	4635.85	3754.95
907.2313	1713.0527	4626.35	3746.55
907.3725	1714.7688	4613	3723.25
907.5138	1716.4841	4594.9	3712.1
907.655	1718.1987	4607.2	3719.3
907.7962	1719.9126	4571.85	3690.4
907.9374	1721.6257	4562.35	3675.65
908.0786	1723.338	4557.95	3674.75
908.2198	1725.0496	4539.9	3656.15
908.3609	1726.7605	4537.3	3653.3
908.502	1728.4706	4515.6	3631.3
908.6431	1730.18	4515.25	3631.1
908.7842	1731.8886	4492.55	3609.05
908.9253	1733.5964	4501.85	3612.35
909.0664	1735.3036	4496.15	3609.8
909.2074	1737.0099	4484.85	3602.7
909.3484	1738.7156	4477.5	3594.95
909.4894	1740.4204	4462.05	3574.65
909.6304	1742.1246	4471.6	3587.75
909.7714	1743.8279	4451.6	3569.2
909.9123	1745.5306	4460	3577.15
910.0532	1747.2325	4440.1	3557.3
910.1941	1748.9336	4444.35	3561.65
910.335	1750.634	4417.35	3534.1
910.4759	1752.3336	4402.2	3523
910.6168	1754.0325	4418.1	3537.55
910.7576	1755.7307	4410.3	3527.75
910.8984	1757.4281	4414.3	3531.9
911.0392	1759.1247	4410.75	3517.65
911.18	1760.8206	4401.1	3514.05
911.3208	1762.5158	4386.85	3496.75
911.4615	1764.2102	4361.4	3477.7
911.6022	1765.9039	4362.85	3479.8
911.7429	1767.5968	4359.2	3475.5
911.8836	1769.289	4341.15	3459.25
912.0243	1770.9804	4330.8	3447.8
912.1649	1772.6711	4334.65	3453.7
912.3056	1774.361	4317.35	3432.35
912.4462	1776.0502	4322.7	3439.5
912.5868	1777.7386	4309.1	3423.3
912.7274	1779.4263	4305.1	3421.6
912.8679	1781.1132	4287.35	3404.1
913.0084	1782.7994	4261.55	3377.3
913.149	1784.4849	4262.45	3380.5
913.2895	1786.1696	4276.7	3374.5
913.4299	1787.8535	4256.7	3375.15
913.5704	1789.5367	4249.7	3368.95
913.7108	1791.2192	4238.8	3356.45
913.8513	1792.9009	4237.15	3324.3
913.9917	1794.5818	4235.8	3351.25
914.132	1796.2621	4210.35	3328.95
914.2724	1797.9415	4209	3325.05
914.4128	1799.6202	4189	3303.5
914.5531	1801.2982	4183.9	3299.6
914.6934	1802.9755	4180.75	3296
914.8337	1804.6519	4182.3	3298.9
914.9739	1806.3277	4141.3	3259.55
915.1142	1808.0027	4139.9	3258.85
915.2544	1809.6769	4141.8	3259.5
915.3946	1811.3504	4136.3	3252.35
915.5348	1813.0231	4118.5	3236.9
915.675	1814.6951	4117.65	3237.05
915.8151	1816.3664	4111.3	3225.1
915.9553	1818.0369	4108.9	3226.9
916.0954	1819.7067	4098.8	3213.65
916.2355	1821.3757	4089.55	3205.35
916.3755	1823.044	4079.7	3196.4
916.5156	1824.7115	4056.8	3173.1
916.6556	1826.3783	4051.6	3169.3
916.7956	1828.0443	4054.6	3172.45
916.9356	1829.7096	4049.25	3164.1
917.0756	1831.3741	4046.6	3160.95
917.2155	1833.0379	4031.15	3150.75
917.3555	1834.701	4013.4	3129.7
917.4954	1836.3633	4008.8	3124.85
917.6353	1838.0248	3999.55	3116.25
917.7751	1839.6856	3999.25	3119.2
917.915	1841.3457	3998.75	3116
918.0548	1843.005	3984.15	3100.7
918.1946	1844.6636	3982.2	3101.4
918.3344	1846.3214	3954.2	3069.7
918.4742	1847.9785	3956.05	3074.25
918.6139	1849.6349	3963.15	3077.55
918.7537	1851.2904	3952.5	3059.35
918.8934	1852.9453	3930.6	3046.6
919.0331	1854.5994	3915.25	3030.95
919.1727	1856.2528	3935.4	3048.85
919.3124	1857.9054	3917.2	3032.75
919.452	1859.5572	3921.05	3038.85
919.5916	1861.2083	3917.4	3034.5
919.7312	1862.8587	3901.1	3016.15
919.8708	1864.5084	3891.6	3007.7
920.0103	1866.1572	3878.55	2994.8
920.1498	1867.8054	3878.45	2994.65
920.2893	1869.4528	3871.6	2988
920.4288	1871.0994	3836.7	2952.35
920.5683	1872.7453	3860.2	2974.2
920.7077	1874.3905	3838.65	2948.9
920.8471	1876.0349	3831.1	2944.4
920.9865	1877.6786	3839.55	2955.8
921.1259	1879.3215	3837.9	2953.8
921.2653	1880.9637	3824.55	2942.5
921.4046	1882.6051	3825.55	2942.8
921.5439	1884.2458	3816.3	2933.5
921.6832	1885.8858	3800.95	2918.65
921.8225	1887.525	3788.2	2903.4
921.9617	1889.1634	3770.65	2889.5
922.101	1890.8011	3768.1	2882.55
922.2402	1892.4381	3767.3	2884
922.3794	1894.0743	3772.4	2890.35
922.5185	1895.7098	3761.8	2878.25
922.6577	1897.3446	3739.1	2855.5
922.7968	1898.9786	3766.65	2879.65
922.9359	1900.6118	3729	2846.8
923.075	1902.2443	3723.95	2838.4
923.214	1903.8761	3721.35	2838.4
923.3531	1905.5071	3704.5	2818.8
923.4921	1907.1374	3703.75	2820.25
923.6311	1908.7669	3675.55	2791.95
923.77	1910.3957	3680.65	2799.75
923.909	1912.0237	3670.75	2785.5
924.0479	1913.651	3681.1	2799.85
924.1868	1915.2776	3669.15	2788.25
924.3257	1916.9034	3631.6	2749.95
924.4646	1918.5285	3642.9	2760.7
924.6034	1920.1528	3613.3	2731.2
924.7422	1921.7764	3616.5	2734.75
924.881	1923.3992	3621.95	2742
925.0198	1925.0213	3587.1	2704.65
925.1586	1926.6427	3581.85	2700.15
925.2973	1928.2633	3759.3	2661.8
925.436	1929.8832	3588.2	2700.95
925.5747	1931.5023	3575.85	2694.35
925.7134	1933.1207	3566	2683.75
925.852	1934.7383	3559.7	2675.65
925.9906	1936.3552	3542.25	2658.95
926.1292	1937.9714	3530.5	2647.5
926.2678	1939.5868	3526.05	2643.15
926.4064	1941.2015	3524.95	2641.35
926.5449	1942.8154	3519.15	2635.9
926.6834	1944.4286	3496.7	2610.7
926.8219	1946.041	3509.8	2605.3
926.9604	1947.6528	3495.4	2605.45
927.0988	1949.2637	3472.2	2590.05
927.2372	1950.8739	3459.6	2576.5
927.3756	1952.4834	3461.6	2577.75
927.514	1954.0921	3467	2584.45
927.6523	1955.7001	3451.45	2567
927.7907	1957.3074	3442.4	2562.15
927.929	1958.9139	3436.4	2555.7
928.0673	1960.5197	3440.35	2557.75
928.2055	1962.1247	3405.15	2522.75
928.3438	1963.729	3403.25	2520.65
928.482	1965.3325	3410.75	2505.6
928.6202	1966.9353	3408.65	2526.3
928.7584	1968.5374	3391.45	2507.9
928.8965	1970.1387	3365	2481.6
929.0346	1971.7393	3379.95	2500.15
929.1727	1973.3392	3366.2	2484.15
929.3108	1974.9383	3353.9	2472.1
929.4489	1976.5366	3347.4	2466.25
929.5869	1978.1342	3356.15	2471.5
929.7249	1979.7311	3355.6	2473
929.8629	1981.3273	3328.65	2446.95
930.0009	1982.9227	3324.1	2439.7
930.1388	1984.5173	3317.25	2434.7
930.2767	1986.1112	3304.15	2423.15
930.4146	1987.7044	3303.4	2423.3
930.5525	1989.2968	3310.05	2425.75
930.6904	1990.8885	3306.45	2421.35
930.8282	1992.4795	3307.05	2424.3
930.966	1994.0697	3297.4	2417.15
931.1038	1995.6592	3277.6	2396.8
931.2415	1997.2479	3257	2374.9
931.3793	1998.8359	3280.5	2397.4
931.517	2000.4232	3248.9	2369.35
931.6547	2002.0097	3249.65	2369.4
931.7923	2003.5955	3227.95	2347.7
931.93	2005.1805	3246.2	2363.25
932.0676	2006.7648	3239.15	2360.15
932.2052	2008.3484	3239.45	2358.3
932.3427	2009.9312	3232.9	2350.1
932.4803	2011.5133	3220.75	2343.25
932.6178	2013.0946	3214.8	2334.65
932.7553	2014.6752	3216.55	2335.4
932.8928	2016.2551	3218.2	2338.5
933.0302	2017.8342	3197.8	2317.4
933.1676	2019.4126	3193.2	2314.75
933.305	2020.9902	3178.6	2299.8
933.4424	2022.5672	3179.95	2296.1
933.5798	2024.1433	3181.65	2296.35
933.7171	2025.7188	3180.2	2300.55
933.8544	2027.2935	3174.25	2293.3
933.9917	2028.8674	3166.45	2287
934.129	2030.4406	3161	2281.8
934.2662	2032.0131	3144.5	2266.85
934.4034	2033.5849	3142.5	2259.4
934.5406	2035.1559	3133.35	2255
934.6778	2036.7261	3144.9	2265.85
934.8149	2038.2957	3139.45	2258.35
934.952	2039.8645	3134.95	2253.75
935.0891	2041.4325	3142.9	2259.7
935.2262	2042.9998	3125.7	2245.1
935.3632	2044.5664	3115.45	2234.05
935.5002	2046.1323	3114.4	2235.4
935.6372	2047.6974	3110.15	2230.6
935.7742	2049.2617	3110.75	2230.8
935.9111	2050.8254	3107.9	2224.75
936.048	2052.3883	3110.5	2228.4
936.1849	2053.9504	3103.9	2222.95
936.3218	2055.5118	3103.4	2220.75
936.4586	2057.0725	3085.25	2199.45
936.5955	2058.6325	3085.6	2207.6
936.7323	2060.1917	3084.2	2203.7
936.869	2061.7502	3069.6	2185.7
937.0058	2063.3079	3071.85	2192.75
937.1425	2064.8649	3062.55	2180.95
937.2792	2066.4212	3071.9	2191.5
937.4159	2067.9767	3059.7	2179.95
937.5525	2069.5315	3052.65	2171.35
937.6891	2071.0856	3050.6	2171.2
937.8257	2072.6389	3044.25	2163.9
937.9623	2074.1915	3018.5	2138.85
938.0989	2075.7433	3018.7	2134.75
938.2354	2077.2945	3028	2147
938.3719	2078.8448	3017.35	2136.7
938.5084	2080.3945	2995.6	2115
938.6448	2081.9434	3010.15	2129.4
938.7812	2083.4916	3001.3	2120.9
938.9176	2085.039	2999.35	2116.7
939.054	2086.5857	3002.15	2119.45
939.1903	2088.1317	2999.5	2118.9
939.3267	2089.677	2987.2	2105
939.463	2091.2215	2987	2106.05
939.5992	2092.7652	2972.2	2089.85
939.7355	2094.3083	2974.55	2091.5
939.8717	2095.8506	2987.55	2106.2
940.0079	2097.3921	2975.4	2094.05
940.1441	2098.933	2968.7	2086.25
940.2802	2100.4731	2966.75	2088
940.4163	2102.0124	2986.95	2088.55
940.5524	2103.5511	2963.25	2082.9
940.6885	2105.089	2963.05	2080.75
940.8245	2106.6261	2956.8	2076.15
940.9606	2108.1626	2952	2068.45
941.0965	2109.6983	2975.65	2062.7
941.2325	2111.2332	2948.75	2065.55
941.3684	2112.7675	2956.8	2073.3
941.5044	2114.301	2931.65	2047.9
941.6403	2115.8337	2928.65	2046.2
941.7761	2117.3657	2932.4	2050.05
941.912	2118.897	2933.65	2052.75
942.0478	2120.4276	2936.5	2048.6
942.1835	2121.9575	2920.25	2038.8
942.3193	2123.4866	2919.45	2036.2
942.455	2125.0149	2911.7	2028.7
942.5907	2126.5426	2897.25	2016.2
942.7264	2128.0695	2910.2	2025.95
942.8621	2129.5956	2907.8	2028.7
942.9977	2131.1211	2906.75	2022.55
943.1333	2132.6458	2891.7	2009.95
943.2689	2134.1698	2886.4	2005.1
943.4044	2135.693	2877.05	1993.3
943.54	2137.2155	2892.15	2008.75
943.6755	2138.7373	2884.7	2002.45
943.8109	2140.2584	2869.7	1989.15
943.9464	2141.7787	2871.75	1985.15
944.0818	2143.2983	2852.4	1973.8
944.2172	2144.8171	2848.55	1969.15
944.3526	2146.3353	2857.7	1976.5
944.4879	2147.8527	2844.6	1964.85
944.6232	2149.3693	2842.5	1959.7
944.7585	2150.8853	2827.6	1946.55
944.8938	2152.4005	2830.45	1948.7
945.029	2153.9149	2830.55	1950.1
945.1642	2155.4287	2824.6	1944.15
945.2994	2156.9417	2828.1	1948.65
945.4346	2158.454	2825.35	1942.1
945.5697	2159.9655	2811.65	1932.65
945.7048	2161.4764	2802.1	1920.4
945.8399	2162.9865	2805.15	1925.25
945.9749	2164.4958	2809.35	1929.2
946.1099	2166.0045	2787.3	1904.2
946.2449	2167.5124	2784.05	1905.5
946.3799	2169.0195	2792.05	1913
946.5148	2170.526	2798.85	1919.05
946.6498	2172.0317	2769.9	1889.2
946.7846	2173.5367	2774.15	1891.3
946.9195	2175.0409	2774.25	1894.75
947.0543	2176.5445	2777	1895.5
947.1891	2178.0473	2762.5	1880.55
947.3239	2179.5494	2762.1	1878.05
947.4587	2181.0507	2746.35	1865.25
947.5934	2182.5513	2743.45	1863.45
947.7281	2184.0512	2743.5	1862.7
947.8628	2185.5504	2740.9	1859.55
947.9974	2187.0488	2729.15	1850.45
948.132	2188.5465	2724.05	1843.35
948.2666	2190.0435	2718.9	1839.85
948.4012	2191.5397	2707.9	1826.75
948.5357	2193.0353	2695.2	1814.75
948.6702	2194.5301	2691.75	1809.8
948.8047	2196.0241	2697.65	1817.25
948.9392	2197.5175	2692.7	1809.65
949.0736	2199.0101	2685.3	1799
949.208	2200.502	2673.3	1792.05
949.3424	2201.9931	2665.75	1786.35
949.4767	2203.4835	2668.8	1786.8
949.611	2204.9733	2659.6	1773.5
949.7453	2206.4622	2643.6	1765.7
949.8796	2207.9505	2658.95	1775.2
950.0138	2209.438	2636.6	1757.2
950.148	2210.9248	2637.95	1754
950.2822	2212.4109	2628.4	1749.85
950.4164	2213.8962	2626.1	1742.05
950.5505	2215.3809	2622.2	1740.85
950.6846	2216.8648	2624.9	1741.5
950.8186	2218.3479	2622.45	1737.2
950.9527	2219.8304	2610.85	1726.8
951.0867	2221.3121	2595.55	1713.5
951.2207	2222.7931	2600.15	1719.6
951.3546	2224.2733	2597.1	1716.7
951.4886	2225.7529	2589.55	1709.75
951.6225	2227.2317	2573.1	1689.05
951.7563	2228.7098	2576.65	1697.4
951.8902	2230.1872	2582.15	1701.8
952.024	2231.6638	2572.45	1691.5
952.1578	2233.1397	2553.4	1666.85
952.2916	2234.6149	2552.5	1673.2
952.4253	2236.0894	2545.4	1662.1
952.559	2237.5632	2568.5	1678.2
952.6927	2239.0362	2531	1650.05
952.8263	2240.5085	2547.6	1667.1
952.9599	2241.9801	2534.65	1652.4
953.0935	2243.4509	2540.7	1660.55
953.2271	2244.921	2522.1	1641
953.3606	2246.3904	2514.6	1631.55
953.4941	2247.8591	2510.9	1629.95
953.6276	2249.3271	2500.95	1619.85
953.7611	2250.7943	2495.75	1613.5
953.8945	2252.2608	2499.15	1616.7
954.0279	2253.7266	2489.85	1609
954.1612	2255.1917	2486.5	1603.85
954.2946	2256.656	2466.65	1585.45
954.4279	2258.1197	2466.1	1587.1
954.5612	2259.5826	2469.45	1585.75
954.6944	2261.0447	2479.5	1597.1
954.8276	2262.5062	2473.8	1590.4
954.9608	2263.9669	2454.75	1571.2
955.094	2265.4269	2461.55	1583.05
955.2271	2266.8862	2454.4	1571.85
955.3602	2268.3448	2448.65	1566.8
955.4933	2269.8026	2447.15	1568.25
955.6264	2271.2598	2438.4	1556.4
955.7594	2272.7162	2424.35	1543.85
955.8924	2274.1719	2431.45	1548.9
956.0253	2275.6268	2437.55	1556.5
956.1583	2277.0811	2425.5	1544.1
956.2912	2278.5346	2415.5	1538
956.4241	2279.9874	2401.75	1521.05
956.5569	2281.4395	2405.3	1523.45
956.6897	2282.8908	2400.05	1514.75
956.8225	2284.3414	2404.7	1523.4
956.9553	2285.7914	2388.4	1508.95
957.088	2287.2406	2399.65	1518.1
957.2207	2288.689	2393.35	1511.65
957.3534	2290.1368	2383.25	1499.5
957.486	2291.5838	2390.75	1508.1
957.6186	2293.0302	2381.25	1498.35
957.7512	2294.4758	2365.55	1485.15
957.8838	2295.9206	2357	1473.25
958.0163	2297.3648	2348.65	1467.3
958.1488	2298.8082	2353.25	1470.75
958.2813	2300.251	2356.8	1475.6
958.4137	2301.693	2343.7	1462.35
958.5461	2303.1343	2353.85	1472.95
958.6785	2304.5748	2342.3	1460.05
958.8108	2306.0147	2338.6	1458.15
958.9432	2307.4538	2338.9	1455.7
959.0754	2308.8922	2320.2	1442.2
959.2077	2310.3299	2330.4	1449.05
959.3399	2311.7669	2318.45	1439
959.4721	2313.2031	2319.3	1436.3
959.6043	2314.6387	2309.95	1430.3
959.7365	2316.0735	2301.65	1420.3
959.8686	2317.5076	2293.8	1411.7
960.0006	2318.941	2303.7	1421.85
960.1327	2320.3737	2293.55	1412.85
960.2647	2321.8056	2275	1389.5
960.3967	2323.2369	2282.85	1401.95
960.5287	2324.6674	2276	1392.8
960.6606	2326.0972	2284.85	1403.3
960.7925	2327.5263	2284.8	1404.7
960.9244	2328.9547	2269.8	1387
961.0562	2330.3823	2268.25	1388
961.1881	2331.8092	2267.45	1380.6
961.3198	2333.2355	2258.8	1377.2
961.4516	2334.661	2257.3	1376.7
961.5833	2336.0858	2249.5	1368.3
961.715	2337.5098	2249.35	1368.45
961.8467	2338.9332	2242	1359.4
961.9783	2340.3558	2224.65	1340.35
962.1099	2341.7778	2225	1344
962.2415	2343.199	2222.45	1338.2
962.373	2344.6195	2223.55	1342.45
962.5045	2346.0393	2205.65	1325.4
962.636	2347.4583	2210.7	1328.6
962.7675	2348.8767	2210.85	1328.7
962.8989	2350.2943	2202.55	1319.65
963.0303	2351.7113	2191.5	1306.5
963.1617	2353.1275	2199.65	1315.4
963.293	2354.543	2195.75	1307.25
963.4243	2355.9578	2196.5	1314.3
963.5556	2357.3718	2181.9	1301.45
963.6868	2358.7852	2170.15	1284.55
963.818	2360.1978	2160.5	1277.6
963.9492	2361.6098	2157.2	1276.4
964.0803	2363.021	2161.75	1273.25
964.2114	2364.4315	2156.15	1275.95
964.3425	2365.8413	2148.75	1266.2
964.4736	2367.2504	2143.05	1261.1
964.6046	2368.6587	2133.55	1252.6
964.7356	2370.0664	2128.85	1247.6
964.8666	2371.4733	2130.05	1248.4
964.9975	2372.8795	2139.35	1257.35
965.1284	2374.285	2129.2	1246.85
965.2593	2375.6899	2109.3	1228.25
965.3901	2377.0939	2097.75	1216.4
965.5209	2378.4973	2100.25	1220.15
965.6517	2379.9	2091.5	1208.05
965.7825	2381.3019	2100.1	1218.9
965.9132	2382.7032	2090.05	1208.1
966.0439	2384.1037	2083.85	1203.45
966.1745	2385.5035	2083.05	1202.2
966.3051	2386.9027	2068.85	1191.1
966.4357	2388.3011	2075.1	1187.35
966.5663	2389.6987	2063.05	1181.2
966.6968	2391.0957	2061.2	1177.9
966.8273	2392.492	2053.45	1172.45
966.9578	2393.8876	2049.5	1166
967.0882	2395.2824	2039.95	1158.1
967.2186	2396.6765	2041.85	1159.7
967.349	2398.07	2035.15	1153.3
967.4793	2399.4627	2035.7	1153
967.6097	2400.8547	2016.4	1133.65
967.7399	2402.246	2033.1	1144.8
967.8702	2403.6366	2016.45	1132.65
968.0004	2405.0265	2013.5	1131.5
968.1306	2406.4156	2009.45	1122.85
968.2607	2407.8041	2004.25	1118.3
968.3909	2409.1918	2004.1	1119.15
968.521	2410.5789	1990.85	1108.2
968.651	2411.9652	1990.65	1104.55
968.781	2413.3508	1979.1	1095.25
968.911	2414.7358	1975.8	1091.45
969.041	2416.12	1964.6	1083.85
969.1709	2417.5035	1968.45	1086.75
969.3008	2418.8863	1966.75	1081.4
969.4307	2420.2684	1961.4	1079.5
969.5606	2421.6497	1963.15	1081.45
969.6904	2423.0304	1950.7	1069.9
969.8201	2424.4104	1941.85	1058.5
969.9499	2425.7896	1949.85	1063.4
970.0796	2427.1682	1941.4	1059.85
970.2093	2428.546	1937.5	1056.15
970.3389	2429.9232	1940	1056.65
970.4685	2431.2996	1938	1053.8
970.5981	2432.6753	1932.15	1048.7
970.7277	2434.0503	1919.65	1036.75
970.8572	2435.4246	1916.55	1032.75
970.9867	2436.7982	1924.75	1039.65
971.1161	2438.1711	1913.9	1032.95
971.2456	2439.5433	1916.55	1034.05
971.375	2440.9148	1906.75	1017.85
971.5043	2442.2856	1908.25	1026.55
971.6336	2443.6557	1904.85	1020.95
971.7629	2445.025	1899.9	1017.35
971.8922	2446.3937	1897.9	1015
972.0214	2447.7617	1901.2	1018.8
972.1506	2449.1289	1891.5	1009.85
972.2798	2450.4955	1889.4	1001.7
972.4089	2451.8613	1878.35	997.95
972.538	2453.2265	1878	993.5
972.6671	2454.5909	1873.05	989.25
972.7961	2455.9546	1866.75	983.9
972.9251	2457.3177	1878.1	995.9
973.0541	2458.68	1864.05	979.7
973.1831	2460.0416	1864.85	982.85
973.312	2461.4025	1862.3	979.05
973.4408	2462.7627	1868.7	975.7
973.5697	2464.1222	1866.3	986.65
973.6985	2465.4811	1847.7	964.45
973.8273	2466.8392	1845.75	965.35
973.956	2468.1966	1847.6	963.25
974.0847	2469.5533	1847.4	962.15
974.2134	2470.9093	1844.15	959.05
974.3421	2472.2645	1830.9	947.05
974.4707	2473.6191	1832.2	950.15
974.5993	2474.973	1817.3	935.25
974.7278	2476.3262	1826.9	942.3
974.8563	2477.6787	1818.55	936.5
974.9848	2479.0305	1811.8	929.15
975.1132	2480.3816	1810.3	927.45
975.2417	2481.7319	1815.35	933.7
975.37	2483.0816	1812.35	927.15
975.4984	2484.4306	1811	928.65
975.6267	2485.7789	1799.4	918.25
975.755	2487.1264	1802.3	919.45
975.8833	2488.4733	1805.75	925.2
976.0115	2489.8195	1793.45	903.65
976.1397	2491.165	1785.2	901.5
976.2678	2492.5097	1782.65	900.35
976.3959	2493.8538	1783.35	900.4
976.524	2495.1972	1778.55	896.45
976.6521	2496.5398	1774.05	889.85
976.7801	2497.8818	1770.35	884.95
976.9081	2499.2231	1763.1	881.85
977.036	2500.5637	1769.75	884.35
977.164	2501.9035	1757.3	873.6
977.2918	2503.2427	1755.4	870.25
977.4197	2504.5812	1755.9	874
977.5475	2505.919	1755.95	870.4
977.6753	2507.256	1742.5	859.7
977.8031	2508.5924	1744.85	862.7
977.9308	2509.9281	1744.8	856.2
978.0585	2511.2631	1742.95	863.1
978.1861	2512.5974	1736.7	854.95
978.3137	2513.9309	1734.6	851.65
978.4413	2515.2638	1751.55	839.55
978.5689	2516.596	1728.75	848.6
978.6964	2517.9275	1717.65	836.2
978.8239	2519.2583	1713.2	830.05
978.9513	2520.5884	1711.3	827.85
979.0788	2521.9178	1706.25	822.85
979.2062	2523.2465	1706.8	825.45
979.3335	2524.5745	1706.35	827.7
979.4608	2525.9018	1699.65	818.95
979.5881	2527.2284	1697.9	815.7
979.7154	2528.5543	1697	817.85
979.8426	2529.8796	1698.25	816.15
979.9698	2531.2041	1690.75	807.35
980.0969	2532.5279	1686.45	806.9
980.224	2533.851	1692.75	810.15
980.3511	2535.1735	1690.15	808.45
980.4781	2536.4952	1677.75	794.8
980.6052	2537.8163	1676.55	793.95
980.7321	2539.1366	1667.5	785.2
980.8591	2540.4562	1670.8	789.35
980.986	2541.7752	1674.45	791.65
981.1129	2543.0935	1665.95	782.85
981.2397	2544.411	1660.95	776.6
981.3665	2545.7279	1664.55	783.55
981.4933	2547.0441	1664.35	784.6
981.62	2548.3596	1665.55	778
981.7467	2549.6744	1661.25	779.05
981.8734	2550.9885	1663.4	771.8
982.0001	2552.3019	1656.15	775.15
982.1267	2553.6146	1649.4	766.5
982.2532	2554.9266	1646.35	764.95
982.3798	2556.2379	1657.55	776.5
982.5063	2557.5485	1642.95	762.1
982.6327	2558.8585	1641.55	751.5
982.7592	2560.1677	1641.25	754.85
982.8856	2561.4762	1650.8	768.15
983.0119	2562.7841	1631.55	747.3
983.1383	2564.0913	1633.95	753.6
983.2646	2565.3977	1628.8	746.5
983.3908	2566.7035	1628.75	744.9
983.517	2568.0086	1633.6	748.5
983.6432	2569.313	1621.15	739.55
983.7694	2570.6167	1628.25	743.1
983.8955	2571.9197	1627.75	750.05
984.0216	2573.222	1630.2	745.25
984.1476	2574.5236	1625.9	743.8
984.2737	2575.8246	1610.35	726.85
984.3996	2577.1248	1608.3	721.95
984.5256	2578.4244	1612.05	731.95
984.6515	2579.7232	1616.1	732.7
984.7774	2581.0214	1629.2	723.85
984.9032	2582.3189	1599.9	717.85
985.029	2583.6157	1608.15	719.15
985.1548	2584.9118	1599.95	717.6
985.2806	2586.2072	1596.8	715.65
985.4063	2587.5019	1594.15	713.95
985.5319	2588.7959	1588.8	707.95
985.6576	2590.0893	1590.5	708.1
985.7832	2591.3819	1587.8	705.3
985.9087	2592.6739	1583.1	700.85
986.0343	2593.9652	1578.85	696.35
986.1597	2595.2557	1581.9	700.25
986.2852	2596.5456	1582.85	699.1
986.4106	2597.8348	1575.5	693.9
986.536	2599.1234	1565.95	684.8
986.6614	2600.4112	1576.45	694.75
986.7867	2601.6983	1566.75	681.45
986.912	2602.9848	1559.35	677.5
987.0372	2604.2705	1561.1	670.7
987.1624	2605.5556	1552.5	669.85
987.2876	2606.84	1559.55	676.9
987.4128	2608.1237	1556.1	672.65
987.5379	2609.4067	1555.25	673
987.6629	2610.689	1550.1	659.55
987.788	2611.9707	1544.05	658
987.913	2613.2516	1540.3	653.85
988.0379	2614.5319	1532.9	653.35
988.1629	2615.8115	1542.95	659.5
988.2878	2617.0903	1532.85	652.25
988.4126	2618.3685	1524.5	641
988.5375	2619.6461	1515.2	632.55
988.6622	2620.9229	1522.4	640.5
988.787	2622.199	1523.2	639.4
988.9117	2623.4745	1514.15	631.25
989.0364	2624.7493	1520.35	638.25
989.161	2626.0234	1511.85	628.5
989.2857	2627.2968	1503.5	620.45
989.4102	2628.5695	1511.45	626.15
989.5348	2629.8415	1503.1	623.5
989.6593	2631.1128	1502.2	618.55
989.7837	2632.3835	1491.2	612.3
989.9082	2633.6535	1496.7	614.5
990.0326	2634.9228	1489.95	608.45
990.1569	2636.1914	1479.05	596.9
990.2812	2637.4593	1489.8	602.15
990.4055	2638.7265	1485	600.6
990.5298	2639.9931	1485.45	602.9
990.654	2641.259	1487.45	603.8
990.7782	2642.5242	1478.3	596.5
990.9023	2643.7887	1480.5	598.85
991.0264	2645.0525	1477.1	595.1
991.1505	2646.3156	1468.75	588.55
991.2745	2647.5781	1469.75	587.9
991.3985	2648.8398	1472.1	588
991.5225	2650.1009	1475.5	585.55
991.6464	2651.3613	1467.15	585.05
991.7703	2652.6211	1462.85	579.25
991.8942	2653.8801	1459.25	578.45
992.018	2655.1385	1458.9	574.15
992.1418	2656.3961	1452.65	571
992.2655	2657.6531	1443.4	563.15
992.3892	2658.9094	1450.55	568.45
992.5129	2660.1651	1444.65	562.75
992.6366	2661.42	1443.7	561.55
992.7602	2662.6743	1440.85	558.7
992.8837	2663.9279	1444.15	562.85
993.0073	2665.1808	1433.6	550.95
993.1307	2666.433	1440.65	557.65
993.2542	2667.6846	1440.45	559.65
993.3776	2668.9354	1436.45	551.85
993.501	2670.1856	1430.5	549.7
993.6244	2671.4351	1428.9	545.5
993.7477	2672.6839	1422.75	542.1
993.8709	2673.9321	1426.5	543
993.9942	2675.1795	1424.2	543.05
994.1174	2676.4263	1421.85	540.55
994.2405	2677.6724	1416.7	536.8
994.3637	2678.9179	1423.15	540.3
994.4868	2680.1626	1418.4	537.9
994.6098	2681.4067	1412.7	531.35
994.7328	2682.6501	1407.9	526.25
994.8558	2683.8928	1418.25	536.8
994.9788	2685.1348	1408.25	528.35
995.1017	2686.3761	1401.75	516.25
995.2245	2687.6168	1399.4	519.15
995.3474	2688.8568	1390.3	510.45
995.4702	2690.0961	1398.1	517.45
995.5929	2691.3348	1396.7	516.1
995.7156	2692.5727	1395.2	513.6
995.8383	2693.81	1395.55	515.5
995.961	2695.0466	1384.8	504.4
996.0836	2696.2826	1391.55	507.65
996.2062	2697.5178	1403.15	503.15
996.3287	2698.7524	1383.45	501.05
996.4512	2699.9863	1390.85	507.35
996.5737	2701.2195	1382.75	501.75
996.6961	2702.452	1384	500.95
996.8185	2703.6839	1376.45	494.75
996.9408	2704.9151	1371.4	491.2
997.0631	2706.1456	1377.25	495.05
997.1854	2707.3755	1375.25	491.55
997.3077	2708.6046	1370.4	487.1
997.4299	2709.8331	1377.9	496.9
997.552	2711.0609	1370.5	487.45
997.6742	2712.2881	1364.4	483.85
997.7963	2713.5145	1370.9	486.55
997.9183	2714.7403	1357.55	476.45
998.0403	2715.9654	1358.5	477.4
998.1623	2717.1899	1371.85	475.6
998.2842	2718.4136	1350.2	469.2
998.4062	2719.6367	1357.05	475.55
998.528	2720.8591	1356.9	470.3
998.6498	2722.0809	1353.8	474.4
998.7716	2723.3019	1350.55	465.85
998.8934	2724.5223	1352.65	469.2
999.0151	2725.7421	1351.9	469.55
999.1368	2726.9611	1344.4	462.75
999.2584	2728.1795	1347.65	461.55
999.38	2729.3972	1338.3	456.3
999.5016	2730.6142	1350.1	454.5
999.6231	2731.8306	1334.1	451.45
999.7446	2733.0462	1334.15	448.25
999.8661	2734.2612	1340.35	455.5
999.9875	2735.4756	1325.4	442.4
1000.1089	2736.6892	1323.7	443
1000.2302	2737.9022	1323.45	442.8
1000.3515	2739.1145	1317.5	437.5
1000.4728	2740.3262	1327.25	438.4
1000.594	2741.5372	1312.7	432.35
1000.7152	2742.7475	1311.3	429.7
1000.8363	2743.9571	1315.75	432.1
1000.9575	2745.1661	1315.65	429.4
1001.0785	2746.3744	1308.2	427.9
1001.1996	2747.582	1307.65	427.75
1001.3206	2748.7889	1307.7	425.45
1001.4415	2749.9952	1301.05	420.95
1001.5625	2751.2008	1299.85	417.95
1001.6833	2752.4057	1304.45	418.9
1001.8042	2753.61	1295.25	413.4
1001.925	2754.8136	1300.35	416.4
1002.0458	2756.0165	1290.45	410.05
1002.1665	2757.2188	1286.45	405.5
1002.2872	2758.4204	1289.05	407.8
1002.4078	2759.6213	1285.7	403.35
1002.5285	2760.8215	1289.95	403.6
1002.649	2762.0211	1286.6	404.55
1002.7696	2763.22	1284.7	398.35
1002.8901	2764.4182	1280.15	397.4
1003.0106	2765.6158	1278.7	397.25
1003.131	2766.8127	1278.85	398.25
1003.2514	2768.009	1275.7	396.25
1003.3717	2769.2045	1272.9	389.8
1003.492	2770.3994	1278.9	395.55
1003.6123	2771.5936	1274.2	391.55
1003.7325	2772.7872	1264.2	383.7
1003.8527	2773.9801	1270.45	386.25
1003.9729	2775.1723	1281.05	381.45
1004.093	2776.3639	1267.65	386.85
1004.2131	2777.5548	1264.45	381.25
1004.3331	2778.745	1253.75	371.3
1004.4531	2779.9346	1251.45	371.2
1004.5731	2781.1235	1251.65	369.85
1004.693	2782.3117	1252.05	370.5
1004.8129	2783.4992	1258.15	377.45
1004.9328	2784.6861	1254.95	374.65
1005.0526	2785.8723	1262.95	381.05
1005.1723	2787.0579	1245.6	363.7
1005.2921	2788.2428	1245	363.5
1005.4118	2789.427	1243.65	363.5
1005.5314	2790.6106	1244.85	367.05
1005.651	2791.7935	1241.4	361.55
1005.7706	2792.9757	1241.4	361.15
1005.8902	2794.1573	1242.5	358.05
1006.0097	2795.3382	1242.35	361.25
1006.1291	2796.5184	1234.4	354.5
1006.2485	2797.698	1233.25	350.25
1006.3679	2798.8769	1234.15	354.05
1006.4873	2800.0551	1230.65	349.45
1006.6066	2801.2327	1232.6	350.5
1006.7258	2802.4096	1232.55	352.8
1006.8451	2803.5859	1226.5	345.3
1006.9642	2804.7615	1223.3	342
1007.0834	2805.9364	1224.15	342.75
1007.2025	2807.1106	1222.7	341.75
1007.3216	2808.2842	1222.35	339.5
1007.4406	2809.4572	1223.9	342.55
1007.5596	2810.6294	1221.65	340.8
1007.6785	2811.801	1220.15	341.25
1007.7975	2812.972	1222.9	344.4
1007.9163	2814.1423	1224.75	343.8
1008.0352	2815.3119	1219.1	339.25
1008.154	2816.4808	1219.85	340.85
1008.2727	2817.6491	1221.55	340.15
1008.3914	2818.8167	1223.3	343.65
1008.5101	2819.9837	1228.35	343.3
1008.6288	2821.15	1223.1	341.15
1008.7474	2822.3157	1227.65	348.15
1008.8659	2823.4807	1235.2	352.95
1008.9844	2824.645	1241.55	360.05
1009.1029	2825.8086	1237.2	357.3
1009.2214	2826.9716	1239.25	358.8
1009.3398	2828.134	1252	371.15
1009.4581	2829.2957	1256.4	377.9
1009.5764	2830.4567	1252.85	373.05
1009.6947	2831.617	1256.75	377.15
1009.813	2832.7767	1257.75	377.45
1009.9312	2833.9358	1256.05	377.2
1010.0493	2835.0941	1258	374.1
1010.1675	2836.2519	1255.25	374.5
1010.2855	2837.4089	1243.65	362.15
1010.4036	2838.5653	1247.95	368.15
1010.5216	2839.7211	1237.45	358.05
1010.6396	2840.8761	1245.2	362.5
1010.7575	2842.0306	1236.1	358.4
1010.8754	2843.1843	1236.4	356.35
1010.9932	2844.3374	1235.65	355.15
1011.111	2845.4899	1235.2	353
1011.2288	2846.6417	1236.45	356.5
1011.3465	2847.7928	1228.9	351.45
1011.4642	2848.9433	1237.95	358.95
1011.5818	2850.0931	1232.5	351.85
1011.6995	2851.2422	1241.65	359.8
1011.817	2852.3907	1237.6	355.55
1011.9345	2853.5385	1242	359.9
1012.052	2854.6857	1243.3	355
1012.1695	2855.8323	1234.55	355.55
1012.2869	2856.9781	1237	357.65
1012.4042	2858.1233	1242.65	360.6
1012.5216	2859.2679	1236.25	357.15
1012.6389	2860.4118	1242.55	362.25
1012.7561	2861.555	1243.05	357.65
1012.8733	2862.6976	1249.1	366.65
1012.9905	2863.8395	1242.15	363.05
1013.1076	2864.9808	1239	357.9
1013.2247	2866.1214	1238.45	358.7
1013.3417	2867.2614	1244.2	362.7
1013.4587	2868.4007	1241.9	359.7
1013.5757	2869.5393	1241.9	360.75
1013.6926	2870.6773	1245.8	363.2
1013.8095	2871.8146	1245.25	359.35
1013.9263	2872.9513	1244.15	360.95
1014.0431	2874.0874	1238.2	357.35
1014.1599	2875.2227	1249.2	370.65
1014.2766	2876.3574	1236.65	355.7
1014.3933	2877.4915	1241.35	360.95
1014.51	2878.6249	1235.2	354.4
1014.6266	2879.7577	1246.35	367
1014.7431	2880.8898	1249.2	361
1014.8596	2882.0212	1239.85	360.6
1014.9761	2883.152	1240.9	359.7
1015.0925	2884.2821	1236.55	354.85
1015.2089	2885.4116	1237.1	357.7
1015.3253	2886.5405	1234.35	355.1
1015.4416	2887.6686	1244.05	362.25
1015.5579	2888.7962	1238.15	359.4
1015.6741	2889.923	1235.75	355.75
1015.7903	2891.0493	1236.45	356.4
1015.9065	2892.1748	1233.45	351.45
1016.0226	2893.2997	1239.1	358.5
1016.1387	2894.424	1235.65	355.95
1016.2547	2895.5476	1232.55	353.3
1016.3707	2896.6706	1228.7	347.85
1016.4866	2897.7929	1233.7	351.2
1016.6025	2898.9145	1225.75	343.5
1016.7184	2900.0355	1224.95	346.6
1016.8342	2901.1559	1229.6	348.8
1016.95	2902.2756	1223.75	343.45
1017.0658	2903.3946	1221.2	340.45
1017.1815	2904.513	1220.15	336.5
1017.2971	2905.6308	1221.85	341.15
1017.4127	2906.7479	1220.95	339.2
1017.5283	2907.8643	1217.35	337.2
1017.6439	2908.9801	1217.6	338.05
1017.7594	2910.0953	1212.95	332.75
1017.8748	2911.2098	1218.75	335.7
1017.9902	2912.3236	1223.15	335.45
1018.1056	2913.4368	1217.2	332.7
1018.2209	2914.5494	1211.65	331.15
1018.3362	2915.6613	1217	328.65
1018.4515	2916.7725	1213.15	329.3
1018.5667	2917.8831	1206	322.95
1018.6819	2918.9931	1206.9	322.9
1018.797	2920.1024	1200.25	320.2
1018.9121	2921.211	1198.05	317.65
1019.0271	2922.319	1192.75	312.4
1019.1421	2923.4264	1198.65	318.4
1019.2571	2924.5331	1187.15	307.45
1019.372	2925.6391	1189.45	310.1
1019.4869	2926.7445	1189.3	311.3
1019.6017	2927.8493	1191.7	310.15
1019.7165	2928.9534	1196.4	315.35
1019.8313	2930.0569	1189.6	305.95
1019.946	2931.1597	1194.55	314.65
1020.0606	2932.2619	1190	308.75
1020.1753	2933.3634	1191.6	311.05
1020.2899	2934.4643	1195.55	308.35
1020.4044	2935.5645	1198.4	311.45
1020.5189	2936.6641	1193.85	312.5
1020.6334	2937.763	1187.35	307
1020.7478	2938.8613	1185.2	303.4
1020.8622	2939.959	1186.45	301.05
1020.9765	2941.056	1180.45	302.45
1021.0908	2942.1523	1175	294.35
1021.2051	2943.248	1169.35	287.1
1021.3193	2944.3431	1164	283.6
1021.4334	2945.4375	1157.35	276.05
1021.5476	2946.5313	1153.8	275.65
1021.6617	2947.6244	1148.35	268
1021.7757	2948.7169	1142.45	262.9
1021.8897	2949.8087	1136.9	254.75
1022.0037	2950.8999	1131.1	251.35
1022.1176	2951.9904	1127.05	246
1022.2315	2953.0803	1126.35	246.05
1022.3453	2954.1696	1116.6	235.6
1022.4591	2955.2582	1116.8	235.95
1022.5728	2956.3462	1110.5	231.9
1022.6865	2957.4335	1114.8	232.85
1022.8002	2958.5202	1112.5	231.4
1022.9138	2959.6062	1117.6	237
1023.0274	2960.6916	1113	234.05
1023.141	2961.7764	1111.35	230.9
1023.2545	2962.8605	1107.35	226.6
1023.3679	2963.9439	1110.2	231.55
1023.4813	2965.0267	1103.95	221.5
1023.5947	2966.1089	1129.6	228.25
1023.708	2967.1905	1105.45	225.55
1023.8213	2968.2714	1100.05	220.45
1023.9346	2969.3516	1099.85	220.4
1024.0478	2970.4312	1106.4	217.3
1024.1609	2971.5102	1097.75	219.75
1024.274	2972.5885	1099.55	220.85
1024.3871	2973.6662	1102.35	218.05
1024.5002	2974.7432	1094.3	215.95
1024.6132	2975.8196	1097.2	218.2
1024.7261	2976.8954	1095.8	217.05
1024.839	2977.9705	1094.55	213.85
1024.9519	2979.045	1093.1	213.65
1025.0647	2980.1188	1090.05	211.6
1025.1775	2981.192	1091.45	211.55
1025.2902	2982.2645	1090.1	209.7
1025.4029	2983.3364	1089.6	211.25
1025.5156	2984.4077	1088.55	209.5
1025.6282	2985.4783	1089.25	206.3
1025.7407	2986.5483	1079.6	200.55
1025.8532	2987.6177	1082.75	203.95
1025.9657	2988.6864	1079.4	199.9
1026.0782	2989.7545	1077.3	196.05
1026.1906	2990.8219	1072.7	192.85
1026.3029	2991.8887	1072.1	192.4
1026.4152	2992.9548	1071.4	190.95
1026.5275	2994.0204	1063.55	183.65
1026.6397	2995.0852	1058.9	180.9
1026.7519	2996.1495	1063	181.2
1026.864	2997.2131	1060.9	183.2
1026.9761	2998.276	1058.25	176.85
1027.0882	2999.3383	1059.65	180.3
1027.2002	3000.4	1051.1	171.8
1027.3122	3001.4611	1055.2	176.7
1027.4241	3002.5215	1053.3	173.55
1027.536	3003.5812	1048.8	168.55
1027.6478	3004.6404	1047.1	169.3
1027.7596	3005.6989	1049.45	168.75
1027.8714	3006.7567	1046.25	166.9
1027.9831	3007.8139	1064.3	161.9
1028.0947	3008.8705	1042.8	161.8
1028.2064	3009.9264	1042.85	158.9
1028.3179	3010.9818	1038.6	157.35
1028.4295	3012.0364	1040.05	158.8
1028.541	3013.0905	1038.5	158.65
1028.6524	3014.1439	1037.75	157.45
1028.7638	3015.1966	1033.7	154.95
1028.8752	3016.2487	1035.9	157.05
1028.9865	3017.3002	1042.15	156.4
1029.0978	3018.3511	1033.45	156.15
1029.209	3019.4013	1033.2	153.65
1029.3202	3020.4509	1033.25	154.75
1029.4314	3021.4998	1033.8	153.2
1029.5425	3022.5481	1029	148.45
1029.6535	3023.5958	1028	149.5
1029.7645	3024.6428	1030	149.4
1029.8755	3025.6892	1029.4	150.75
1029.9864	3026.735	1032.9	154.4
1030.0973	3027.7802	1028.7	146.95
1030.2082	3028.8247	1028.25	149.65
1030.319	3029.8685	1028.35	147.95
1030.4297	3030.9118	1026.95	146.15
1030.5404	3031.9544	1027.35	146.1
1030.6511	3032.9963	1021.75	144.3
1030.7617	3034.0376	1023.8	144.4
1030.8723	3035.0783	1025.15	142.1
1030.9829	3036.1184	1025.25	144.55
1031.0934	3037.1578	1019.8	142.05
1031.2038	3038.1966	1024.15	144.45
1031.3142	3039.2348	1022.85	146.2
1031.4246	3040.2723	1027.2	139.75
1031.5349	3041.3092	1016.3	137.6
1031.6452	3042.3455	1021.35	142.25
1031.7554	3043.3811	1021.5	139.15
1031.8656	3044.4161	1023.3	143.5
1031.9758	3045.4505	1019.05	140.8
1032.0859	3046.4842	1020.65	138.65
1032.1959	3047.5173	1018.45	138.95
1032.3059	3048.5498	1016.2	136.5
1032.4159	3049.5816	1019.2	140.65
1032.5258	3050.6128	1018.3	138.45
1032.6357	3051.6434	1014.25	132.05
1032.7455	3052.6734	1014.5	135.8
1032.8553	3053.7027	1012.65	132.55
1032.9651	3054.7314	1012.45	133
1033.0748	3055.7594	1014.4	134.9
1033.1845	3056.7868	1017.35	136.3
1033.2941	3057.8136	1012.55	134.65
1033.4037	3058.8398	1012.5	134.65
1033.5132	3059.8653	1012.5	131.6
1033.6227	3060.8902	1011.4	134.65
1033.7321	3061.9145	1010.5	129.9
1033.8415	3062.9381	1009	129.25
1033.9509	3063.9612	1026.15	128.2
1034.0602	3064.9835	1012.05	133.75
1034.1694	3066.0053	1012.5	132.55
1034.2787	3067.0264	1010.5	132.55
1034.3878	3068.0469	1010.2	129.3
1034.497	3069.0668	1014.8	131.5
1034.6061	3070.086	1010.95	133.05
1034.7151	3071.1046	1009.4	129.6
1034.8241	3072.1226	1013.75	132.7
1034.9331	3073.1399	1005.9	126.6
1035.042	3074.1567	1006.3	128.6
1035.1508	3075.1727	1005.1	123
1035.2597	3076.1882	1000.1	121.95
1035.3684	3077.203	1004.9	123.15
1035.4772	3078.2173	1002.8	121.85
1035.5859	3079.2308	1005.05	121.4
1035.6945	3080.2438	1006.6	124.75
1035.8031	3081.2561	1001.75	121.1
1035.9117	3082.2678	1000.6	120.25
1036.0202	3083.2789	997.05	115.95
1036.1286	3084.2893	993.7	115.2
1036.2371	3085.2991	1001.1	120.3
1036.3454	3086.3083	1002.05	120.4
1036.4538	3087.3169	997.75	115.65
1036.562	3088.3248	998.8	117.75
1036.6703	3089.3321	996.8	115.55
1036.7785	3090.3388	998.9	121.7
1036.8866	3091.3449	993.95	114.6
1036.9948	3092.3503	994.8	111.3
1037.1028	3093.3551	988.1	109.25
1037.2108	3094.3593	987.35	110.5
1037.3188	3095.3629	988.2	109.65
1037.4267	3096.3658	990.95	110.35
1037.5346	3097.3681	990.25	110.6
1037.6425	3098.3698	992.3	109.85
1037.7503	3099.3708	994.05	108.1
1037.858	3100.3713	987.8	110.35
1037.9657	3101.3711	988.35	108.8
1038.0734	3102.3702	1119.55	102.25
1038.181	3103.3688	990.35	109.45
1038.2886	3104.3667	986.05	107.5
1038.3961	3105.364	980.5	100.6
1038.5036	3106.3607	982.65	102.85
1038.611	3107.3568	984.4	102.85
1038.7184	3108.3522	982.95	105.05
1038.8257	3109.347	982.2	102.6
1038.933	3110.3412	985.05	103.15
1039.0403	3111.3348	976.5	98.15
1039.1475	3112.3277	980.15	101.1
1039.2547	3113.32	978.6	98.35
1039.3618	3114.3117	978	96.2
1039.4689	3115.3028	978.25	97
1039.5759	3116.2932	981.15	99.3
1039.6829	3117.2831	980.95	95.05
1039.7898	3118.2723	976.25	97.4
1039.8967	3119.2608	975	96.55
1040.0035	3120.2488	977.9	99.5
1040.1103	3121.2361	976.35	96.65
1040.2171	3122.2229	972.75	94.25
1040.3238	3123.209	972.3	91.65
1040.4305	3124.1944	972	94.25
1040.5371	3125.1793	972.1	90.4
1040.6437	3126.1635	972.7	91.8
1040.7502	3127.1471	971.35	93.7
1040.8567	3128.1301	971.1	91.05
1040.9631	3129.1125	969.5	90.25
1041.0695	3130.0942	970.6	91.3
1041.1759	3131.0753	977.15	90.25
1041.2822	3132.0558	971.5	90.2
1041.3884	3133.0357	968.7	87.45
1041.4946	3134.015	965	83.15
1041.6008	3134.9936	970.8	89.25
1041.7069	3135.9716	993.3	93.95
1041.813	3136.949	968.1	89.85
1041.919	3137.9258	968	82.6
1042.025	3138.902	970.65	86.4
1042.1309	3139.8775	962.7	84.15
1042.2368	3140.8524	963.8	82.4
1042.3427	3141.8267	966.4	85.35
1042.4485	3142.8004	968.05	88
1042.5542	3143.7735	968.5	83.55
1042.6599	3144.7459	962.6	84.45
1042.7656	3145.7178	966	86.3
1042.8712	3146.689	959.05	82.2
1042.9768	3147.6596	964.25	82.2
1043.0823	3148.6295	963.6	84.6
1043.1878	3149.5989	960.35	81
1043.2932	3150.5676	959.55	80.4
1043.3986	3151.5357	960.6	83.65
1043.5039	3152.5032	960.35	81.7
1043.6092	3153.4701	959.25	80.75
1043.7145	3154.4364	962.9	78.7
1043.8197	3155.402	958	81.55
1043.9248	3156.367	960.95	79.75
1044.03	3157.3315	994.95	75.25
1044.135	3158.2952	958.1	76.7
1044.24	3159.2584	954.6	75.1
1044.345	3160.221	955.5	74.85
1044.4499	3161.1829	957	78.3
1044.5548	3162.1442	957.35	77.65
1044.6596	3163.105	958.8	78.35
1044.7644	3164.065	956.55	78
1044.8692	3165.0245	957.7	74.2
1044.9739	3165.9834	954.8	77.6
1045.0785	3166.9416	952	71.75
1045.1831	3167.8993	954.55	73.75
1045.2877	3168.8563	951.55	71.9
1045.3922	3169.8127	954.2	74
1045.4966	3170.7684	949.9	70.3
1045.6011	3171.7236	955.45	76.4
1045.7054	3172.6782	955.1	75.45
1045.8098	3173.6321	948.55	69.1
1045.914	3174.5854	955.45	70.3
1046.0183	3175.5381	950.8	71.7
1046.1224	3176.4902	951.95	72.95
1046.2266	3177.4417	950.1	70.8
1046.3307	3178.3926	947.05	66.65
1046.4347	3179.3428	949.5	71.85
1046.5387	3180.2924	946.15	68.75
1046.6427	3181.2415	945.85	67.85
1046.7466	3182.1899	947.45	67.55
1046.8504	3183.1377	946.3	66.75
1046.9542	3184.0848	949.35	67.7
1047.058	3185.0314	944.55	65.15
1047.1617	3185.9773	946.15	65.9
1047.2654	3186.9227	945.3	65.2
1047.369	3187.8674	946.25	66.75
1047.4726	3188.8115	947.5	65
1047.5761	3189.755	945.7	66.25
1047.6796	3190.6979	942.9	64.6
1047.783	3191.6402	941.9	63.55
1047.8864	3192.5818	942.85	64.25
1047.9898	3193.5229	947.9	63.25
1048.0931	3194.4633	942.35	62.35
1048.1963	3195.4031	945.2	64.65
1048.2995	3196.3423	944.25	65.3
1048.4027	3197.2809	942.9	63.5
1048.5058	3198.2189	939.85	59.45
1048.6089	3199.1563	958.85	61.15
1048.7119	3200.0931	940.1	61.95
1048.8148	3201.0292	938.15	60.85
1048.9178	3201.9648	937.75	58.9
1049.0206	3202.8997	939.4	57.3
1049.1235	3203.834	940.5	61.8
1049.2262	3204.7677	941.85	62.4
1049.329	3205.7008	940.75	60.3
1049.4317	3206.6333	939.35	61.65
1049.5343	3207.5652	940.05	55.85
1049.6369	3208.4964	940.95	61.7
1049.7394	3209.4271	937.85	57.75
1049.8419	3210.3571	934.4	56.05
1049.9444	3211.2865	935.85	56.4
1050.0468	3212.2154	940.4	58.7
1050.1491	3213.1436	938.7	55.4
1050.2514	3214.0712	940.05	54.75
1050.3537	3214.9982	935.85	55.05
1050.4559	3215.9246	935.3	53.2
1050.5581	3216.8503	935.8	59.6
1050.6602	3217.7755	933.55	51.8
1050.7623	3218.7001	934.5	56.4
1050.8643	3219.624	939	59
1050.9663	3220.5473	935.05	54.95
1051.0682	3221.4701	932.5	51.55
1051.1701	3222.3922	936.45	55.5
1051.2719	3223.3137	935	56.45
1051.3737	3224.2346	935.15	56.3
1051.4754	3225.1549	931.95	54.05
1051.5771	3226.0746	931	54.25
1051.6788	3226.9937	934.75	53.35
1051.7804	3227.9121	930.65	54.15
1051.8819	3228.83	932.4	53.55
1051.9834	3229.7473	931.35	53.6
1052.0849	3230.6639	932.55	54.25
1052.1863	3231.5799	930.45	51.15
1052.2876	3232.4954	933.35	54.05
1052.3889	3233.4102	929.5	48.65
1052.4902	3234.3244	932.45	51.35
1052.5914	3235.238	931.1	54.15
1052.6926	3236.151	953.4	49.45
1052.7937	3237.0634	929.7	53.05
1052.8948	3237.9752	927.55	48.35
1052.9958	3238.8864	929	49.7
1053.0968	3239.797	926.85	49.15
1053.1977	3240.7069	928.8	47.1
1053.2986	3241.6163	928.9	48.05
1053.3994	3242.5251	928.75	50.25
1053.5002	3243.4332	925.25	46.3
1053.6009	3244.3408	926.25	46.6
1053.7016	3245.2477	924.55	45.1
1053.8022	3246.154	928.85	47.95
1053.9028	3247.0598	926.1	46.05
1054.0034	3247.9649	924.7	44.7
1054.1039	3248.8694	926.5	47.35
1054.2043	3249.7733	924.35	45.3
1054.3047	3250.6766	923.4	44.4
1054.4051	3251.5793	925.4	45.15
1054.5054	3252.4814	922.2	44.05
1054.6056	3253.3829	923.05	44.05
1054.7058	3254.2838	924.85	44.75
1054.806	3255.1841	923.15	45.2
1054.9061	3256.0838	926.05	44.2
1055.0061	3256.9829	921.35	43.55
1055.1062	3257.8814	923.9	43.05
1055.2061	3258.7792	923.1	42.85
1055.306	3259.6765	923.6	44.55
1055.4059	3260.5731	921.4	41.5
1055.5057	3261.4692	923.2	43.1
1055.6055	3262.3647	917.3	40.5
1055.7052	3263.2595	920.15	40.55
1055.8049	3264.1538	917.95	38.6
1055.9045	3265.0474	918.05	37.5
1056.0041	3265.9404	916.8	38.5
1056.1036	3266.8329	916.5	38.55
1056.2031	3267.7247	928.35	38.95
1056.3025	3268.616	915.4	38.25
1056.4019	3269.5066	913.05	34.05
1056.5013	3270.3966	914.25	33.45
1056.6005	3271.286	915.45	38.9
