Software Version:	3.9.2.0
Unit SN:	10000200
Spectrometer SN:	6960
Date:	3/6/2024 9:33:24 AM
Data Line Index:	25
Spectral Points:	2048
Integration time (ms):	125
Averages:	20
Delay (ms):	30
Sequence Number:	1
Processing:	dark subtract
Laser Power (mW):	300
Laser Current (mA):	825
Laser Diode Temp (C):	25.1
Laser Case Temp (C):	23.7
System Temp (C):	23.5
Spectrometer Temp (C):	21.1
CCD Temp (C):	-0.051
Secondary Temp (C):	20.007
Heatsink Temp (C):	17.8
CCDPCB Temp (C):	30.249
SecondaryPCB Temp (C):	25.369

Wavelength	RamanShift	Raw Counts	Dark Subtracted
787.061	30.1047	524.7	117
787.2016	32.3739	526.75	121.75
787.3422	34.6426	532.75	127.5
787.4828	36.9109	545.3	135.15
787.6235	39.1787	554.85	141.9
787.7642	41.4461	565.8	150.55
787.9049	43.7131	581.25	160.95
788.0456	45.9796	596.8	175.1
788.1863	48.2456	604.85	179.2
788.3271	50.5112	618.7	187.6
788.4679	52.7764	635	201.15
788.6087	55.0411	649.8	209.95
788.7496	57.3054	669.55	226.65
788.8904	59.5692	679.5	235.65
789.0313	61.8326	699.5	253.3
789.1722	64.0955	722.95	272.55
789.3132	66.3579	748.25	295.7
789.4541	68.6199	774.8	316.9
789.5951	70.8815	833.4	371.65
789.7361	73.1426	956.8	490.25
789.8771	75.4032	1250	780.05
790.0181	77.6634	1976.55	1503.2
790.1592	79.9231	3719.9	3245.2
790.3003	82.1824	7552.85	7070.1
790.4414	84.4412	14347.25	13857.75
790.5825	86.6995	23499.4	23000.95
790.7237	88.9574	32258.05	31752.7
790.8648	91.2148	38571.8	38062.2
791.006	93.4717	41748.25	41232.7
791.1472	95.7282	43162.9	42644.05
791.2885	97.9842	43860.1	43339.35
791.4297	100.2398	44218.6	43696.65
791.571	102.4949	43973.3	43448.75
791.7123	104.7495	44362.5	43832.5
791.8536	107.0036	44106.8	43576.7
791.9949	109.2573	44674.7	44144.35
792.1363	111.5105	44150.95	43616.45
792.2777	113.7632	44640.7	44104.85
792.4191	116.0154	44698.7	44154.4
792.5605	118.2672	45083.65	44545.4
792.7019	120.5185	45006.7	44466.65
792.8434	122.7693	45088	44543.6
792.9849	125.0197	44998.05	44449.1
793.1264	127.2696	45446.85	44894.2
793.2679	129.519	45677.9	45123.9
793.4094	131.7679	46072.95	45515.15
793.551	134.0163	45133.6	44575.25
793.6926	136.2642	45594.1	45035.1
793.8342	138.5117	46146.25	45580.3
793.9758	140.7587	46034.35	45466.75
794.1175	143.0052	46200.7	45630.85
794.2591	145.2512	45698.65	45129
794.4008	147.4967	46297.25	45726.2
794.5425	149.7417	46107.6	45533.45
794.6842	151.9863	46209.35	45632.2
794.826	154.2304	45717.9	45133.05
794.9677	156.4739	46112.7	45523.4
795.1095	158.717	46346.05	45758.9
795.2513	160.9596	46330.2	45738.05
795.3931	163.2017	45972.9	45376.4
795.535	165.4433	46520.5	45923.75
795.6768	167.6844	46259.35	45660
795.8187	169.925	46540.35	45937
795.9606	172.1651	46462.7	45856.65
796.1025	174.4047	46298.8	45690.45
796.2445	176.6439	46468.1	45855.45
796.3864	178.8825	46574.9	45958.25
796.5284	181.1206	46770.75	46150.05
796.6704	183.3582	46839.95	46217
796.8124	185.5954	46430.2	45807.9
796.9544	187.832	46786.05	46160.85
797.0965	190.0681	46668.1	46037.65
797.2386	192.3037	47146.05	46511.3
797.3806	194.5388	47644.25	47007.15
797.5228	196.7734	46657.5	46019.5
797.6649	199.0075	47485.7	46845.9
797.807	201.2411	47492.7	46854.05
797.9492	203.4742	47925.9	47281.65
798.0914	205.7068	47990.9	47343
798.2336	207.9389	47997.55	47348.5
798.3758	210.1704	47946.55	47306.8
798.518	212.4015	48488.55	47858.45
798.6603	214.632	47777.6	47153.65
798.8025	216.862	48375.4	47749.9
798.9448	219.0915	48512.6	47885.9
799.0871	221.3205	48162.5	47532.55
799.2294	223.549	48704.1	48080.3
799.3718	225.777	48746.35	48119.55
799.5141	228.0044	48773.3	48139.45
799.6565	230.2314	48875.95	48238.5
799.7989	232.4578	48829.05	48191.85
799.9413	234.6837	48814.75	48165.45
800.0837	236.909	49709.3	49057.6
800.2262	239.1339	48604.45	47927.6
800.3687	241.3582	49132.1	48471.85
800.5111	243.582	49160.95	48474.3
800.6536	245.8053	49345.55	48668.8
800.7961	248.0281	49268.85	48595.65
800.9387	250.2503	49477.05	48800.05
801.0812	252.472	49333.4	48654.35
801.2238	254.6932	49380.65	48704.2
801.3664	256.9139	49334.15	48655.75
801.509	259.134	50171.4	49489.2
801.6516	261.3536	49096.95	48415.25
801.7942	263.5727	49939.25	49256.3
801.9369	265.7912	49553.55	48872.25
802.0795	268.0092	49698.35	49014.45
802.2222	270.2267	49702.15	49016.05
802.3649	272.4436	49588.3	48902
802.5076	274.6601	49867.65	49172.65
802.6504	276.8759	49958.4	49266.2
802.7931	279.0913	50039.65	49344.8
802.9359	281.3061	49884.7	49190.65
803.0787	283.5204	50150.85	49454.2
803.2215	285.7341	50036.2	49335.25
803.3643	287.9473	50617.1	49906.6
803.5071	290.16	50168.05	49462.7
803.6499	292.3721	50761.7	50065.25
803.7928	294.5837	49899.9	49201.5
803.9357	296.7947	49806.9	49106.4
804.0786	299.0052	50219.45	49520.3
804.2215	301.2152	49900	49195.35
804.3644	303.4246	50470.85	49771.8
804.5074	305.6334	50338.95	49637.65
804.6503	307.8418	49870.15	49167.5
804.7933	310.0495	50127.8	49420.7
804.9363	312.2568	49958.05	49251.25
805.0793	314.4635	49888.45	49178.65
805.2223	316.6696	50032.35	49319.45
805.3653	318.8752	50320.75	49598.35
805.5084	321.0802	49371.85	48657.5
805.6514	323.2847	49682.85	48969.2
805.7945	325.4887	49781.25	49064.2
805.9376	327.692	49530.35	48813
806.0807	329.8949	49887.35	49169.9
806.2238	332.0972	49724.4	49004.85
806.367	334.2989	49921.1	49197.5
806.5101	336.5001	50251.4	49528
806.6533	338.7007	49714.55	48990.05
806.7965	340.9008	49929.4	49204.85
806.9397	343.1003	49862.9	49133.45
807.0829	345.2992	50110.6	49381.4
807.2261	347.4976	49796.55	49064.55
807.3693	349.6955	49903.3	49168.2
807.5126	351.8927	49759.3	49022.9
807.6559	354.0895	49916.35	49168.7
807.7991	356.2856	49824	49089.55
807.9424	358.4812	50099.3	49362.65
808.0857	360.6763	49766.3	49024.2
808.2291	362.8707	49845.25	49104.1
808.3724	365.0646	49841.95	49096.85
808.5158	367.258	49809.6	49062.15
808.6591	369.4508	49608.4	48858.15
808.8025	371.643	49843.7	49094.05
808.9459	373.8346	49720.5	48967.95
809.0893	376.0257	49620.2	48867.3
809.2327	378.2162	49499.75	48745.65
809.3762	380.4062	49380.25	48625.95
809.5196	382.5956	49398.5	48648.5
809.6631	384.7844	49432.3	48682.85
809.8066	386.9726	49422.6	48675.5
809.9501	389.1603	49511.2	48766.8
810.0936	391.3474	49141.2	48348.4
810.2371	393.5339	49532.85	48784.65
810.3806	395.7199	48958.35	48214.5
810.5241	397.9052	48996.15	48248.2
810.6677	400.09	49122.7	48377
810.8113	402.2743	49178.15	48427.6
810.9548	404.4579	49215.8	48464.2
811.0984	406.641	49109.9	48356.3
811.2421	408.8235	49339.35	48584.45
811.3857	411.0054	49259.1	48500.8
811.5293	413.1868	49281.05	48520.45
811.673	415.3675	49259	48494.95
811.8166	417.5477	49278.65	48512.85
811.9603	419.7273	49185.2	48416.6
812.104	421.9064	49010.85	48236.75
812.2477	424.0848	48958.4	48188.45
812.3914	426.2627	48992.7	48224.65
812.5351	428.4399	48605.4	47834.55
812.6788	430.6166	48476.75	47701.4
812.8226	432.7928	48527.85	47751.55
812.9663	434.9683	48329.5	47552.75
813.1101	437.1432	48319.25	47542.8
813.2539	439.3176	48272.65	47495.25
813.3977	441.4914	47941.15	47166.1
813.5415	443.6645	48012.4	47235
813.6853	445.8371	47832.2	47053.6
813.8291	448.0091	47588.9	46810.45
813.973	450.1806	47548.5	46769.95
814.1168	452.3514	47410.25	46628.9
814.2607	454.5216	47423.95	46637.3
814.4046	456.6913	47230.7	46447.7
814.5485	458.8603	47271.6	46489.05
814.6924	461.0288	47168.05	46386.55
814.8363	463.1967	47160.15	46379.2
814.9802	465.3639	47288.2	46505.35
815.1241	467.5306	47005.9	46222.35
815.2681	469.6967	46974.65	46189.75
815.412	471.8622	46870.45	46084.45
815.556	474.0271	46818.75	46034.1
815.7	476.1914	46813.75	46026.5
815.844	478.3551	46766.6	45980.35
815.988	480.5182	46904	46116.1
816.132	482.6807	46812.95	46024.45
816.276	484.8426	46865.8	46080.9
816.4201	487.0039	47042.1	46253.55
816.5641	489.1647	47041.15	46250.6
816.7082	491.3248	46937.95	46147.85
816.8522	493.4843	46990.45	46199.6
816.9963	495.6432	46977.55	46186.8
817.1404	497.8015	46742.25	45946.45
817.2845	499.9592	46862.3	46068.8
817.4286	502.1163	46735	45941.2
817.5727	504.2728	46608.4	45812.45
817.7168	506.4287	46677.35	45882.5
817.861	508.5839	46543.2	45747.35
818.0051	510.7386	46506.05	45710.1
818.1493	512.8927	46533.9	45729.75
818.2935	515.0461	46498.35	45697.9
818.4377	517.199	46517.6	45718.3
818.5818	519.3512	46542.35	45742.65
818.726	521.5029	46473.55	45665.95
818.8703	523.6539	46531.55	45728.8
819.0145	525.8043	46441.1	45637.65
819.1587	527.9541	46401.75	45596.7
819.303	530.1033	46204.15	45402.1
819.4472	532.2519	46202.55	45395.35
819.5915	534.3999	46125.65	45317.55
819.7357	536.5472	46108.9	45302.05
819.88	538.694	46083.95	45275.4
820.0243	540.8401	46113.45	45306.55
820.1686	542.9856	46101.35	45291.85
820.3129	545.1305	46044.45	45231.75
820.4572	547.2748	46118.75	45309.6
820.6016	549.4185	46048.15	45235.75
820.7459	551.5615	45991.6	45181.85
820.8902	553.704	46032.25	45221.15
821.0346	555.8458	45868.35	45058.9
821.1789	557.987	45922.7	45114.75
821.3233	560.1276	45848.95	45039.8
821.4677	562.2675	45888.15	45079.75
821.6121	564.4069	45867.95	45061.45
821.7565	566.5456	45827.95	45018.75
821.9009	568.6837	45779.3	44971.3
822.0453	570.8212	45602	44794.05
822.1897	572.958	45422.1	44611.25
822.3342	575.0942	45358.5	44549.4
822.4786	577.2299	45167.3	44355.25
822.6231	579.3648	45008.5	44199.5
822.7675	581.4992	44870.7	44058.3
822.912	583.6329	44710.25	43898.55
823.0565	585.766	44702	43892.75
823.201	587.8985	44659.15	43844.35
823.3454	590.0304	44536.25	43708
823.4899	592.1616	44450.9	43632.7
823.6345	594.2922	44378.4	43559.7
823.779	596.4222	44245.8	43427.1
823.9235	598.5515	44162.4	43342.25
824.068	600.6802	44084.7	43265.8
824.2126	602.8083	43849.05	43030.4
824.3571	604.9358	43827.45	43006.6
824.5017	607.0626	43697.1	42875.6
824.6462	609.1888	43643.75	42822.1
824.7908	611.3144	43666.45	42844.1
824.9354	613.4393	43598.8	42776.1
825.08	615.5636	43524.25	42700.45
825.2246	617.6873	43553.25	42731.6
825.3692	619.8103	43660.1	42835.75
825.5138	621.9327	43472.25	42646.55
825.6584	624.0544	43438	42613.2
825.803	626.1756	43388.35	42563.85
825.9477	628.2961	43243.65	42416.55
826.0923	630.4159	43144.65	42316.1
826.237	632.5351	43190.3	42363.8
826.3816	634.6537	43088.7	42263.9
826.5263	636.7716	43018.7	42190.5
826.6709	638.8889	43013.05	42184.8
826.8156	641.0056	43109.5	42280.8
826.9603	643.1216	42951.45	42122.75
827.105	645.237	43046.1	42216.35
827.2497	647.3518	42883.95	42054.55
827.3944	649.4659	42890.8	42062.4
827.5391	651.5793	42782.85	41953.2
827.6838	653.6922	42674.75	41848.5
827.8285	655.8043	42637.3	41807.8
827.9733	657.9159	42624.85	41794.85
828.118	660.0268	42457.85	41624.5
828.2627	662.137	42388.1	41554.7
828.4075	664.2466	42371.9	41538.55
828.5522	666.3556	42326.45	41494.25
828.697	668.4639	42244.25	41405.85
828.8418	670.5716	42245.15	41413.9
828.9865	672.6786	42227.45	41391.9
829.1313	674.785	42071.35	41233.95
829.2761	676.8907	41959.7	41126.55
829.4209	678.9958	41873.4	41038.7
829.5657	681.1002	41801.3	40967.35
829.7105	683.204	41777.2	40937.45
829.8553	685.3072	41714.45	40876.55
830.0001	687.4097	41603.9	40767.4
830.1449	689.5115	41579.05	40742.65
830.2898	691.6127	41506.15	40669.75
830.4346	693.7132	41411.55	40575.3
830.5794	695.8131	41457.9	40596.25
830.7243	697.9123	41520.8	40681.05
830.8691	700.0109	41390.65	40550.85
831.014	702.1089	41334	40496.55
831.1588	704.2061	41261.55	40424
831.3037	706.3028	41271.35	40430
831.4486	708.3987	41260.5	40420.15
831.5935	710.4941	41185.05	40342.2
831.7383	712.5887	41160.6	40318.7
831.8832	714.6827	41169.4	40325.9
832.0281	716.7761	41105.7	40265.25
832.173	718.8688	41016.65	40174.95
832.3179	720.9608	40935.85	40090.9
832.4628	723.0522	40980.75	40132.75
832.6077	725.1429	40836.55	39995.3
832.7527	727.233	40845.9	40001.8
832.8976	729.3224	40943.5	40102.7
833.0425	731.4112	40832.25	39986.9
833.1874	733.4993	40736.6	39890.2
833.3324	735.5867	40645.5	39799.4
833.4773	737.6735	40539.1	39692.5
833.6222	739.7596	40402.45	39555.5
833.7672	741.845	40311.4	39465.95
833.9122	743.9298	40204.9	39357.05
834.0571	746.014	40123.2	39275.7
834.2021	748.0974	40107.9	39258.3
834.347	750.1802	39994.3	39144.8
834.492	752.2624	39847.45	39000.65
834.637	754.3439	39727.2	38877.35
834.782	756.4247	39582.05	38723
834.9269	758.5048	39457.8	38609
835.0719	760.5843	39406.55	38557.05
835.2169	762.6631	39349.6	38501.45
835.3619	764.7413	39256.55	38408.45
835.5069	766.8188	39281.65	38430.8
835.6519	768.8956	39249.9	38397
835.7969	770.9718	39325.65	38475.8
835.9419	773.0473	39091.35	38241.3
836.0869	775.1221	39031.2	38182
836.232	777.1962	38830.25	37981.25
836.377	779.2697	38858.9	38005.8
836.522	781.3426	38846.15	37978
836.667	783.4147	38761.9	37909
836.8121	785.4862	38790.2	37938.8
836.9571	787.557	38609.95	37759.5
837.1021	789.6271	38496.5	37644.3
837.2472	791.6966	38346.35	37493.35
837.3922	793.7654	38124.8	37273
837.5373	795.8335	38073.8	37222.35
837.6823	797.901	37995.55	37144.1
837.8274	799.9678	37904.6	37049.65
837.9724	802.0339	37810.6	36959.7
838.1175	804.0993	37861.15	36997.45
838.2626	806.1641	37659.6	36804.4
838.4076	808.2282	37590.6	36737.4
838.5527	810.2916	37576.65	36720.8
838.6978	812.3544	37476.15	36623.45
838.8428	814.4164	37354.25	36501.25
838.9879	816.4778	37476.75	36621.4
839.133	818.5385	37275.3	36420.9
839.2781	820.5986	37290.55	36435.2
839.4232	822.658	37319.45	36461.85
839.5682	824.7166	37220.35	36365.8
839.7133	826.7747	37351.3	36496.4
839.8584	828.832	37302.65	36447.35
840.0035	830.8886	37165.3	36307.55
840.1486	832.9446	37200.75	36343
840.2937	834.9999	37081.2	36226.2
840.4388	837.0545	36995.55	36134.8
840.5839	839.1085	36922	36064.15
840.729	841.1618	36735	35873.85
840.8741	843.2143	36683	35826
841.0192	845.2662	36508.8	35652.5
841.1643	847.3175	36491.1	35634.75
841.3095	849.368	36367.7	35511.2
841.4546	851.4179	36306.6	35449.75
841.5997	853.467	36197.15	35340
841.7448	855.5155	36163.5	35305.4
841.8899	857.5633	36080.2	35221.6
842.0351	859.6105	35959.55	35100.95
842.1802	861.6569	35896.25	35035.45
842.3253	863.7027	35857.3	34997.95
842.4704	865.7478	35818.85	34958.1
842.6156	867.7922	35793.15	34935.15
842.7607	869.8359	35694.1	34831.75
842.9058	871.8789	35652	34790.45
843.0509	873.9212	35674.1	34784.4
843.1961	875.9629	35482.3	34622.6
843.3412	878.0039	35469.75	34607.4
843.4863	880.0441	35428.9	34568.6
843.6315	882.0837	35532.85	34671.8
843.7766	884.1226	35469.95	34608.4
843.9218	886.1609	35434.9	34574.7
844.0669	888.1984	35416.3	34555.05
844.212	890.2352	35516.2	34655.4
844.3572	892.2714	35437.9	34574.1
844.5023	894.3069	35387.45	34527.05
844.6475	896.3416	35217.15	34353.8
844.7926	898.3757	35162.9	34300.75
844.9377	900.4091	35090.4	34226.7
845.0829	902.4418	35015	34146.95
845.228	904.4739	34916.4	34052.3
845.3732	906.5052	34907.75	34043.5
845.5183	908.5358	34866	34003.25
845.6635	910.5658	34752.45	33888.3
845.8086	912.595	34631.7	33769.4
845.9538	914.6236	34516.45	33652.75
846.0989	916.6515	34480.6	33618.5
846.2441	918.6786	34355.45	33489.4
846.3892	920.7051	34389.5	33522.6
846.5344	922.7309	34379.05	33515.15
846.6795	924.756	34158.35	33294.15
846.8246	926.7804	34215.95	33351.3
846.9698	928.8041	33910.55	33043.1
847.1149	930.8272	33974.75	33111.6
847.2601	932.8495	33854.5	32987.9
847.4052	934.8711	33830.05	32965
847.5504	936.892	33705.8	32840
847.6955	938.9123	33598.8	32732.85
847.8407	940.9318	33560.15	32693.8
847.9858	942.9506	33446.05	32580.5
848.131	944.9688	33309.95	32445
848.2761	946.9862	33259.75	32392.1
848.4213	949.003	33074.15	32206.25
848.5664	951.019	32976.95	32111.5
848.7115	953.0344	32879.45	32012.75
848.8567	955.0491	32847.3	31977.5
849.0018	957.063	32799.35	31933.35
849.147	959.0763	32849.55	31983.25
849.2921	961.0888	32689.3	31819.5
849.4373	963.1007	32719.55	31852.75
849.5824	965.1119	32638.45	31771.05
849.7275	967.1223	32600.35	31732.95
849.8727	969.1321	32521.4	31654.25
850.0178	971.1412	32464.7	31600.8
850.1629	973.1495	32362.2	31495.3
850.3081	975.1572	32340.7	31428.35
850.4532	977.1641	32281	31413.3
850.5983	979.1704	32218.95	31352.2
850.7435	981.1759	32148.8	31278.25
850.8886	983.1808	32081.7	31211.35
851.0337	985.1849	31966.3	31092.25
851.1788	987.1884	31908.95	31036.35
851.324	989.1911	31838.75	30968.4
851.4691	991.1932	31783.1	30913.95
851.6142	993.1945	31652.25	30786.05
851.7593	995.1951	31519.65	30650.55
851.9045	997.1951	31490	30614.75
852.0496	999.1943	31294.65	30426.9
852.1947	1001.1928	31229.65	30358.15
852.3398	1003.1906	31061.35	30190.75
852.4849	1005.1877	31051.2	30178.75
852.63	1007.1841	30962.65	30093.55
852.7751	1009.1798	30901.6	30031.75
852.9202	1011.1748	30741.4	29871.5
853.0653	1013.1691	30645	29772.8
853.2104	1015.1627	30538.75	29666.3
853.3555	1017.1556	30303.45	29431.15
853.5006	1019.1477	30286.1	29414.25
853.6457	1021.1392	30049.3	29180.4
853.7908	1023.1299	29992.6	29120.85
853.9359	1025.12	29837.2	28965.25
854.081	1027.1093	29722.55	28854.55
854.2261	1029.0979	29681.9	28814.05
854.3712	1031.0859	29553.35	28682.2
854.5163	1033.0731	29516	28646.45
854.6613	1035.0596	29444.15	28575.4
854.8064	1037.0454	29293.6	28422.3
854.9515	1039.0304	29237.05	28365.5
855.0965	1041.0148	29068.9	28198.5
855.2416	1042.9985	28938.7	28064.85
855.3867	1044.9814	28919.8	28049.05
855.5317	1046.9636	28820.8	27948.85
855.6768	1048.9452	28707.95	27836.65
855.8219	1050.926	28680.8	27808.55
855.9669	1052.9061	28644	27774.15
856.112	1054.8855	28518.25	27645.1
856.257	1056.8642	28479.7	27608.95
856.4021	1058.8421	28463.65	27586.85
856.5471	1060.8194	28340.75	27469.35
856.6921	1062.7959	28290.45	27418.45
856.8372	1064.7717	28296	27423.9
856.9822	1066.7469	28198.15	27325.2
857.1272	1068.7213	28166.8	27291.6
857.2723	1070.695	28097.45	27222.75
857.4173	1072.6679	28008.75	27134.9
857.5623	1074.6402	27992.6	27119.5
857.7073	1076.6117	27980.15	27101.65
857.8523	1078.5826	27942.55	27069.3
857.9973	1080.5527	27849.7	26974.05
858.1423	1082.5221	27704.35	26829.75
858.2873	1084.4908	27620.05	26747.5
858.4323	1086.4587	27561.75	26687.3
858.5773	1088.426	27510.45	26635.7
858.7223	1090.3925	27387.3	26507.9
858.8673	1092.3584	27361.45	26489.1
859.0123	1094.3235	27222.45	26348.5
859.1573	1096.2879	27188.3	26312.75
859.3022	1098.2515	27147.4	26275.05
859.4472	1100.2145	27120.8	26246.95
859.5922	1102.1767	27058.7	26184.3
859.7371	1104.1382	27068.9	26195.4
859.8821	1106.099	27032.85	26157.8
860.027	1108.0591	26956.25	26081.55
860.172	1110.0185	26927.6	26053.2
860.3169	1111.9771	26967.9	26095.45
860.4619	1113.9351	26902.65	26026.65
860.6068	1115.8923	26925.6	26051.15
860.7517	1117.8488	26836.95	25960.4
860.8967	1119.8045	26692.1	25816.75
861.0416	1121.7596	26643.4	25766.65
861.1865	1123.7139	26459.9	25583.1
861.3314	1125.6675	26305.55	25430.7
861.4763	1127.6204	26359.35	25484.9
861.6212	1129.5726	26258.05	25381.85
861.7661	1131.524	26267.9	25394.15
861.911	1133.4748	26173.5	25298.9
862.0559	1135.4248	26007.6	25131.05
862.2008	1137.3741	25954.4	25078.35
862.3457	1139.3226	25849	24969.65
862.4905	1141.2705	25901.8	25024.25
862.6354	1143.2176	25704.2	24822.75
862.7803	1145.164	25705.7	24826.3
862.9251	1147.1097	25659.1	24784.1
863.07	1149.0546	25596.1	24718.65
863.2148	1150.9989	25595.35	24716.7
863.3597	1152.9424	25537.85	24662.2
863.5045	1154.8852	25462.25	24586.05
863.6493	1156.8272	25447.7	24572.1
863.7942	1158.7686	25383.6	24499.5
863.939	1160.7092	25356.95	24480.5
864.0838	1162.6491	25223.5	24345.25
864.2286	1164.5883	25215.45	24340.2
864.3734	1166.5267	25140.1	24261.1
864.5182	1168.4644	25153.45	24277.1
864.663	1170.4014	25126.55	24244.5
864.8078	1172.3377	25172.7	24296.05
864.9526	1174.2732	25126.55	24250.55
865.0974	1176.2081	25239.5	24363
865.2421	1178.1421	25271.35	24390.8
865.3869	1180.0755	25342.8	24466.45
865.5317	1182.0082	25366.1	24488.3
865.6764	1183.9401	25294.4	24416.75
865.8212	1185.8713	25142.6	24267.2
865.9659	1187.8017	25024.85	24147.05
866.1106	1189.7315	24911.55	24034
866.2554	1191.6605	24659.05	23783.25
866.4001	1193.5888	24513.65	23638.55
866.5448	1195.5163	24398.15	23521.85
866.6895	1197.4432	24353.6	23475.05
866.8342	1199.3693	24293.8	23415.75
866.9789	1201.2947	24126.4	23245.55
867.1236	1203.2193	24075.35	23198.35
867.2683	1205.1432	24030	23152.85
867.413	1207.0664	23966.3	23087.3
867.5576	1208.9889	23882.25	22999.75
867.7023	1210.9106	23744.7	22868.55
867.847	1212.8316	23687.35	22809.5
867.9916	1214.7519	23679.6	22790.35
868.1363	1216.6715	23613.85	22736
868.2809	1218.5903	23559.15	22681.85
868.4255	1220.5084	23505.1	22625.3
868.5701	1222.4257	23551.25	22673.95
868.7148	1224.3424	23423.35	22546.95
868.8594	1226.2583	23388.9	22505.65
869.004	1228.1735	23362.85	22483.15
869.1486	1230.0879	23303.6	22423.85
869.2932	1232.0016	23261.05	22381.5
869.4377	1233.9146	23217	22337.05
869.5823	1235.8269	23219.7	22340.85
869.7269	1237.7384	23203.35	22324.5
869.8715	1239.6492	23093.95	22213.55
870.016	1241.5592	23072.55	22193.8
870.1606	1243.4686	23058.15	22178.9
870.3051	1245.3772	23065.8	22187.55
870.4496	1247.285	23065.05	22185.25
870.5941	1249.1922	23060.05	22182.25
870.7387	1251.0986	23106.6	22230.55
870.8832	1253.0042	23036.55	22157.15
871.0277	1254.9092	23126.2	22246.95
871.1722	1256.8134	23157.4	22278.9
871.3167	1258.7169	23228.75	22350.75
871.4611	1260.6196	23191.85	22313.35
871.6056	1262.5216	23198.05	22318.55
871.7501	1264.4229	23215.8	22339.15
871.8945	1266.3234	23194.85	22315.55
872.039	1268.2232	23078.15	22198.85
872.1834	1270.1223	22961.7	22080.05
872.3278	1272.0207	22888.4	22006.9
872.4723	1273.9183	22808.15	21921.7
872.6167	1275.8151	22804.05	21924.95
872.7611	1277.7113	22776.8	21894.55
872.9055	1279.6067	22806.2	21929.25
873.0499	1281.5014	22889	22007.2
873.1943	1283.3953	23026.05	22142.8
873.3386	1285.2885	23206.35	22327.85
873.483	1287.181	23344.55	22464
873.6274	1289.0727	23378.05	22498.15
873.7717	1290.9637	23326.55	22445.75
873.9161	1292.854	23217.35	22337.15
874.0604	1294.7435	23032.15	22151.95
874.2047	1296.6323	22885.8	22005.25
874.349	1298.5204	22767.65	21883.35
874.4933	1300.4077	22631.6	21750.3
874.6376	1302.2943	22602.95	21724.6
874.7819	1304.1802	22550.8	21672.55
874.9262	1306.0653	22433.45	21551.85
875.0705	1307.9497	22388.2	21508.75
875.2147	1309.8333	22344.05	21466.4
875.359	1311.7162	22348.5	21467.5
875.5032	1313.5984	22292.3	21409.9
875.6475	1315.4798	22167	21285.05
875.7917	1317.3605	22107.25	21223.1
875.9359	1319.2405	22155.7	21273.35
876.0801	1321.1197	22081.25	21199.3
876.2243	1322.9982	21977.65	21092.3
876.3685	1324.876	21959.95	21079.5
876.5127	1326.753	21826	20945.2
876.6569	1328.6293	21766.95	20884.85
876.801	1330.5048	21713.55	20831.9
876.9452	1332.3796	21565.85	20684.75
877.0893	1334.2537	21494.15	20590.35
877.2335	1336.127	21366.3	20483.75
877.3776	1337.9996	21317.75	20434.2
877.5217	1339.8714	21271.35	20392
877.6658	1341.7426	21210.9	20286.35
877.8099	1343.6129	21143.6	20261.55
877.954	1345.4826	21094.15	20212
878.0981	1347.3515	21078.35	20196.35
878.2422	1349.2196	21013.65	20131.9
878.3862	1351.087	21036.85	20155.95
878.5303	1352.9537	21009.15	20128.2
878.6743	1354.8197	20936.1	20054.95
878.8184	1356.6849	20961.05	20079.2
878.9624	1358.5493	20895.9	20017.35
879.1064	1360.4131	20887.15	20007.1
879.2504	1362.276	20845.55	19965.65
879.3944	1364.1383	20869.25	19989.65
879.5384	1365.9998	20795.65	19910.35
879.6823	1367.8606	20793.05	19911.95
879.8263	1369.7206	20793.55	19911.85
879.9702	1371.5799	20670.45	19787.55
880.1142	1373.4384	20616.15	19733.35
880.2581	1375.2962	20557.6	19674.2
880.402	1377.1533	20467.6	19587.5
880.5459	1379.0096	20295.75	19414.9
880.6898	1380.8652	20253.4	19371.55
880.8337	1382.7201	20153.3	19272.75
880.9776	1384.5742	20021.05	19139.25
881.1215	1386.4275	19948.3	19067
881.2653	1388.2802	19879.1	18997.7
881.4092	1390.132	19795.45	18914.9
881.553	1391.9832	19796.1	18913.45
881.6968	1393.8336	19677.35	18795.9
881.8406	1395.6832	19635.15	18751.65
881.9844	1397.5322	19552.6	18672.25
882.1282	1399.3803	19485.2	18596.9
882.272	1401.2278	19400.35	18518.1
882.4158	1403.0745	19356.75	18476.9
882.5595	1404.9204	19257.8	18378.05
882.7033	1406.7656	19220.5	18337.75
882.847	1408.6101	19129.55	18246.45
882.9908	1410.4538	19071.2	18188.95
883.1345	1412.2968	19038.3	18157.4
883.2782	1414.139	18953.45	18072.35
883.4219	1415.9805	18920.3	18040.5
883.5656	1417.8213	18885.05	17982.9
883.7092	1419.6613	18798.65	17918.3
883.8529	1421.5006	18765.4	17880.2
883.9965	1423.3391	18777.2	17896.35
884.1402	1425.1769	18755.7	17872.35
884.2838	1427.0139	18826.15	17942.75
884.4274	1428.8502	18836.05	17954.1
884.571	1430.6858	18877.45	17994.15
884.7146	1432.5206	18787.9	17906.35
884.8582	1434.3547	18789.8	17908.1
885.0018	1436.188	18746.4	17863.2
885.1453	1438.0206	18739.1	17854.85
885.2889	1439.8524	18653.05	17769.2
885.4324	1441.6835	18630.7	17747.8
885.5759	1443.5139	18557.6	17674.4
885.7194	1445.3435	18523.2	17641.2
885.8629	1447.1724	18521.35	17639
886.0064	1449.0005	18515.1	17632.9
886.1499	1450.8279	18450.45	17566.25
886.2933	1452.6545	18439.55	17558.6
886.4368	1454.4804	18426.15	17544.05
886.5802	1456.3056	18374.5	17485.55
886.7237	1458.13	18316.55	17436.95
886.8671	1459.9536	18316.25	17433.15
887.0105	1461.7766	18214.45	17332.55
887.1539	1463.5987	18146.85	17260.55
887.2972	1465.4202	18100.1	17216.4
887.4406	1467.2409	17996.95	17114.45
887.584	1469.0608	17951.9	17069.55
887.7273	1470.88	17868.15	16984.15
887.8706	1472.6984	17823.7	16940.95
888.0139	1474.5161	17721.8	16837.65
888.1572	1476.3331	17689.05	16808.8
888.3005	1478.1493	17676.15	16792.65
888.4438	1479.9648	17645.45	16764.9
888.5871	1481.7795	17591.9	16709.05
888.7303	1483.5935	17550.8	16670
888.8736	1485.4067	17516.55	16635.7
889.0168	1487.2192	17537.55	16653.95
889.16	1489.031	17479.25	16593.95
889.3032	1490.842	17470.85	16587.65
889.4464	1492.6522	17480.85	16600.35
889.5896	1494.4618	17394.5	16511.6
889.7327	1496.2705	17359.5	16477.35
889.8759	1498.0785	17295	16412.1
890.019	1499.8858	17240.35	16358.25
890.1622	1501.6924	17191.9	16312.8
890.3053	1503.4981	17167.85	16286.7
890.4484	1505.3032	17151.1	16268.7
890.5914	1507.1075	17091.25	16209.05
890.7345	1508.911	17099.25	16215.8
890.8776	1510.7138	17007.4	16124.3
891.0206	1512.5159	16953.7	16070.15
891.1637	1514.3172	16909	16027.8
891.3067	1516.1178	16855.8	15972.6
891.4497	1517.9176	16809.7	15923.3
891.5927	1519.7166	16782.8	15899.8
891.7357	1521.515	16694.6	15805.6
891.8786	1523.3126	16646.95	15763.9
892.0216	1525.1094	16620.7	15735.2
892.1645	1526.9055	16543.95	15662.75
892.3074	1528.7008	16490	15609.4
892.4503	1530.4954	16419.95	15537.8
892.5932	1532.2893	16356.5	15475.4
892.7361	1534.0824	16257.6	15371.15
892.879	1535.8747	16261.25	15378.65
893.0218	1537.6663	16204.85	15321.95
893.1647	1539.4572	16134.75	15252.35
893.3075	1541.2473	16122.05	15237.15
893.4503	1543.0367	16050.25	15168.5
893.5931	1544.8253	15987.7	15099.7
893.7359	1546.6132	15979.9	15096.25
893.8787	1548.4003	15875.65	14984.6
894.0214	1550.1867	15870.7	14980.25
894.1642	1551.9723	15825.7	14937.8
894.3069	1553.7572	15799.95	14917.65
894.4496	1555.5414	15773.2	14889.45
894.5923	1557.3247	15715.05	14831.2
894.735	1559.1074	15722.65	14842.6
894.8777	1560.8893	15693.3	14811.35
895.0204	1562.6705	15673.9	14790.6
895.163	1564.4509	15658.65	14776.05
895.3056	1566.2305	15633.5	14753.45
895.4482	1568.0094	15641.1	14759.2
895.5908	1569.7876	15617.3	14736.25
895.7334	1571.565	15550.95	14668.6
895.876	1573.3417	15508.85	14627.45
896.0186	1575.1176	15471.75	14590.75
896.1611	1576.8928	15445	14561.6
896.3036	1578.6672	15387.3	14505.45
896.4461	1580.4409	15374.2	14494.1
896.5886	1582.2138	15363.85	14478.15
896.7311	1583.986	15342	14461.9
896.8736	1585.7575	15369.95	14488.15
897.0161	1587.5282	15347.8	14467
897.1585	1589.2981	15338.9	14457.8
897.3009	1591.0673	15265.55	14384.7
897.4433	1592.8358	15256.95	14376.85
897.5857	1594.6035	15218.6	14336.1
897.7281	1596.3704	15138.3	14255.7
897.8705	1598.1366	15094.75	14211.55
898.0128	1599.9021	15009.95	14129.9
898.1551	1601.6668	14924.75	14041.3
898.2975	1603.4308	14875.95	13990.95
898.4398	1605.194	14823.15	13937.1
898.5821	1606.9564	14792.55	13912.75
898.7243	1608.7182	14770.55	13883.8
898.8666	1610.4791	14807.3	13927.6
899.0088	1612.2394	14835.25	13954.95
899.1511	1613.9988	14891.4	14011.6
899.2933	1615.7576	14940.1	14059.35
899.4355	1617.5156	14965.4	14079.35
899.5776	1619.2728	14943.95	14063.1
899.7198	1621.0293	14844.4	13963.35
899.862	1622.785	14696.95	13813.1
900.0041	1624.54	14484.1	13602.2
900.1462	1626.2942	14363.55	13480.5
900.2883	1628.0477	14167.25	13283.6
900.4304	1629.8005	14028.25	13141.35
900.5725	1631.5525	13960.65	13080.45
900.7145	1633.3037	13824.85	12941.25
900.8566	1635.0542	13745.9	12863.05
900.9986	1636.804	13687.45	12805.55
901.1406	1638.553	13723.05	12753.45
901.2826	1640.3013	13573.7	12692.85
901.4245	1642.0488	13540.45	12658.8
901.5665	1643.7955	13467.9	12587.6
901.7085	1645.5416	13415.2	12532.8
901.8504	1647.2868	13354.3	12471.95
901.9923	1649.0313	13315.6	12432.7
902.1342	1650.7751	13265.2	12381.35
902.2761	1652.5181	13231.25	12349.55
902.4179	1654.2604	13152.6	12270.7
902.5598	1656.0019	13123.5	12242.65
902.7016	1657.7427	13108.05	12225.6
902.8434	1659.4828	13086.35	12205
902.9852	1661.222	13061.45	12178.9
903.127	1662.9606	13062.7	12181.3
903.2687	1664.6984	13074.85	12191.55
903.4105	1666.4354	13062.15	12179.35
903.5522	1668.1717	13009.9	12128.55
903.6939	1669.9072	12902.2	12019.05
903.8356	1671.642	12839.75	11956.25
903.9773	1673.3761	12789.3	11909.75
904.119	1675.1094	12686.65	11804.25
904.2606	1676.8419	12611.55	11730.25
904.4022	1678.5737	12541.4	11660.1
904.5439	1680.3048	12507.5	11626.5
904.6855	1682.0351	12436.2	11555.05
904.827	1683.7646	12348.8	11464.25
904.9686	1685.4934	12296.05	11418
905.1101	1687.2215	12253.8	11369.65
905.2517	1688.9488	12187.9	11306.65
905.3932	1690.6754	12132.45	11251.55
905.5347	1692.4012	12117.85	11236.45
905.6761	1694.1263	12090.85	11209.9
905.8176	1695.8506	12055.25	11172.05
905.9591	1697.5742	11991.6	11109.7
906.1005	1699.297	11920.55	11037.85
906.2419	1701.0191	11882.3	11001.2
906.3833	1702.7404	11816.7	10935
906.5246	1704.461	11788	10905.25
906.666	1706.1808	11722.35	10840.4
906.8073	1707.8999	11684.65	10802.05
906.9487	1709.6182	11652.9	10769.4
907.09	1711.3358	11649	10769.25
907.2313	1713.0527	11606.75	10727.65
907.3725	1714.7688	11561.8	10675.55
907.5138	1716.4841	11513.55	10632.75
907.655	1718.1987	11498.9	10614.2
907.7962	1719.9126	11443	10562.5
907.9374	1721.6257	11408.7	10523.4
908.0786	1723.338	11388.95	10508
908.2198	1725.0496	11334.65	10452.35
908.3609	1726.7605	11303.25	10420.5
908.502	1728.4706	11280.35	10395.55
908.6431	1730.18	11243.4	10358.25
908.7842	1731.8886	11209.85	10328.15
908.9253	1733.5964	11184.6	10282.45
909.0664	1735.3036	11179.3	10296.3
909.2074	1737.0099	11168.85	10287.85
909.3484	1738.7156	11135.85	10256.35
909.4894	1740.4204	11093.3	10209.45
909.6304	1742.1246	11092.85	10208.7
909.7714	1743.8279	11067.2	10186.55
909.9123	1745.5306	11035.25	10153.1
910.0532	1747.2325	11022.1	10142.1
910.1941	1748.9336	10988.3	10107.3
910.335	1750.634	10968.15	10084.55
910.4759	1752.3336	10939.65	10058.15
910.6168	1754.0325	10924.2	10044.45
910.7576	1755.7307	10908.5	10027.75
910.8984	1757.4281	10928.15	10046.25
911.0392	1759.1247	10910.55	10022.45
911.18	1760.8206	10886.3	9999.9
911.3208	1762.5158	10887.4	10002.05
911.4615	1764.2102	10832.7	9950.75
911.6022	1765.9039	10778.95	9896.95
911.7429	1767.5968	10758.25	9876.9
911.8836	1769.289	10738.4	9855.7
912.0243	1770.9804	10705.3	9824.65
912.1649	1772.6711	10704.1	9822.4
912.3056	1774.361	10666.25	9784.9
912.4462	1776.0502	10641.25	9761.2
912.5868	1777.7386	10633.2	9746.5
912.7274	1779.4263	10585.95	9703.35
912.8679	1781.1132	10596.95	9714.95
913.0084	1782.7994	10567.35	9685.7
913.149	1784.4849	10526.3	9645.5
913.2895	1786.1696	10497.4	9597.45
913.4299	1787.8535	10477.2	9595.35
913.5704	1789.5367	10459	9576.1
913.7108	1791.2192	10445.8	9565.1
913.8513	1792.9009	10397.2	9501.35
913.9917	1794.5818	10354.85	9471.3
914.132	1796.2621	10323.55	9445.6
914.2724	1797.9415	10303.55	9423.8
914.4128	1799.6202	10296.75	9414.9
914.5531	1801.2982	10296.65	9414.8
914.6934	1802.9755	10248.15	9365
914.8337	1804.6519	10242.25	9361.75
914.9739	1806.3277	10181.25	9300.3
915.1142	1808.0027	10141.85	9261.2
915.2544	1809.6769	10133.75	9253.5
915.3946	1811.3504	10097.75	9214.25
915.5348	1813.0231	10079.65	9198.05
915.675	1814.6951	10072.5	9192.25
915.8151	1816.3664	10089.55	9203.5
915.9553	1818.0369	10060	9178.2
916.0954	1819.7067	10017.15	9136.65
916.2355	1821.3757	9996.3	9115.1
916.3755	1823.044	9973.65	9091.15
916.5156	1824.7115	9937.75	9056.45
916.6556	1826.3783	9923.15	9042.3
916.7956	1828.0443	9870.1	8988.6
916.9356	1829.7096	9868.25	8984.8
917.0756	1831.3741	9866	8982.8
917.2155	1833.0379	9830.7	8951.55
917.3555	1834.701	9783.25	8899.3
917.4954	1836.3633	9791.3	8909.3
917.6353	1838.0248	9792.75	8910.15
917.7751	1839.6856	9750.7	8869.15
917.915	1841.3457	9719.9	8838.75
918.0548	1843.005	9686.85	8805.45
918.1946	1844.6636	9695.35	8813.6
918.3344	1846.3214	9636.1	8755.1
918.4742	1847.9785	9652.2	8771.05
918.6139	1849.6349	9627.25	8743.85
918.7537	1851.2904	9614.25	8722.85
918.8934	1852.9453	9583.3	8701.25
919.0331	1854.5994	9544.3	8659.9
919.1727	1856.2528	9537.3	8649.9
919.3124	1857.9054	9506.65	8623.65
919.452	1859.5572	9519.15	8637.9
919.5916	1861.2083	9488.15	8605.05
919.7312	1862.8587	9487.6	8605.05
919.8708	1864.5084	9447.7	8565.9
920.0103	1866.1572	9433.25	8553.3
920.1498	1867.8054	9384.15	8502.1
920.2893	1869.4528	9380.75	8500.2
920.4288	1871.0994	9370.35	8489.15
920.5683	1872.7453	9337.8	8455.65
920.7077	1874.3905	9312.9	8421.7
920.8471	1876.0349	9263.1	8381.1
920.9865	1877.6786	9281.95	8399.55
921.1259	1879.3215	9280.4	8398.5
921.2653	1880.9637	9261.25	8379.3
921.4046	1882.6051	9234.2	8351.9
921.5439	1884.2458	9212.95	8330.05
921.6832	1885.8858	9152.4	8269.8
921.8225	1887.525	9161.35	8278.05
921.9617	1889.1634	9119.9	8238.05
922.101	1890.8011	9111.1	8228.15
922.2402	1892.4381	9071.5	8190.15
922.3794	1894.0743	9063.9	8182.75
922.5185	1895.7098	9036.5	8154.35
922.6577	1897.3446	9031.85	8149
922.7968	1898.9786	9017.25	8130
922.9359	1900.6118	9001.15	8120.95
923.075	1902.2443	8938.3	8053.75
923.214	1903.8761	8915.1	8032.7
923.3531	1905.5071	8912.75	8028.35
923.4921	1907.1374	8876.05	7992.95
923.6311	1908.7669	8848.35	7964.8
923.77	1910.3957	8831.6	7949.15
923.909	1912.0237	8795.85	7912.45
924.0479	1913.651	8777.55	7895.5
924.1868	1915.2776	8757.4	7878.45
924.3257	1916.9034	8741.9	7861.4
924.4646	1918.5285	8684.95	7805.2
924.6034	1920.1528	8658.75	7776.9
924.7422	1921.7764	8641.7	7760.2
924.881	1923.3992	8624.95	7743.7
925.0198	1925.0213	8580.85	7698.1
925.1586	1926.6427	8553.6	7673
925.2973	1928.2633	8687.2	7592.7
925.436	1929.8832	8509.2	7624.2
925.5747	1931.5023	8475.2	7594.95
925.7134	1933.1207	8432.2	7551.55
925.852	1934.7383	8430.3	7549.05
925.9906	1936.3552	8396.75	7515.05
926.1292	1937.9714	8403.25	7521.65
926.2678	1939.5868	8342.9	7459.75
926.4064	1941.2015	8318	7433.75
926.5449	1942.8154	8298.2	7415.7
926.6834	1944.4286	8270.35	7387.7
926.8219	1946.041	8274.6	7367
926.9604	1947.6528	8189.2	7302.9
927.0988	1949.2637	8191.25	7311
927.2372	1950.8739	8161.55	7279.65
927.3756	1952.4834	8180.35	7298.3
927.514	1954.0921	8149.65	7268.7
927.6523	1955.7001	8137.5	7250.95
927.7907	1957.3074	8103.4	7222.45
927.929	1958.9139	8063.65	7182.15
928.0673	1960.5197	8049.6	7166.35
928.2055	1962.1247	8019.7	7139.2
928.3438	1963.729	7991.65	7111.4
928.482	1965.3325	7986.85	7082.9
928.6202	1966.9353	7962.6	7083.5
928.7584	1968.5374	7918.1	7036.45
928.8965	1970.1387	7915.7	7031.5
929.0346	1971.7393	7895.25	7014.95
929.1727	1973.3392	7861.4	6980.35
929.3108	1974.9383	7827.75	6944.9
929.4489	1976.5366	7784.2	6904.05
929.5869	1978.1342	7804.25	6921
929.7249	1979.7311	7783.3	6900.05
929.8629	1981.3273	7757.2	6876.6
930.0009	1982.9227	7734.05	6850.3
930.1388	1984.5173	7717.65	6839.05
930.2767	1986.1112	7687.45	6805.25
930.4146	1987.7044	7676.95	6795.9
930.5525	1989.2968	7682.05	6800.4
930.6904	1990.8885	7645	6762.25
930.8282	1992.4795	7650.8	6769.2
930.966	1994.0697	7620.8	6740.45
931.1038	1995.6592	7585.85	6703.65
931.2415	1997.2479	7584.85	6702.3
931.3793	1998.8359	7550.6	6670.95
931.517	2000.4232	7521.3	6642.9
931.6547	2002.0097	7514.45	6634.3
931.7923	2003.5955	7471.2	6589.65
931.93	2005.1805	7483.15	6600.65
932.0676	2006.7648	7453	6572.75
932.2052	2008.3484	7434.65	6553.65
932.3427	2009.9312	7437.15	6554.9
932.4803	2011.5133	7383.75	6504.45
932.6178	2013.0946	7385.25	6506.25
932.7553	2014.6752	7357	6475.85
932.8928	2016.2551	7357.65	6478.1
933.0302	2017.8342	7324.95	6445.15
933.1676	2019.4126	7305.25	6425.55
933.305	2020.9902	7290	6409.1
933.4424	2022.5672	7277.65	6396.4
933.5798	2024.1433	7264.55	6379.25
933.7171	2025.7188	7235.6	6356.85
933.8544	2027.2935	7216.05	6336.1
933.9917	2028.8674	7207.3	6326.75
934.129	2030.4406	7186	6306.95
934.2662	2032.0131	7145.9	6267.2
934.4034	2033.5849	7143.95	6252.15
934.5406	2035.1559	7124.6	6245.3
934.6778	2036.7261	7130.2	6252.65
934.8149	2038.2957	7119.55	6239.65
934.952	2039.8645	7099.05	6219.5
935.0891	2041.4325	7089.05	6207.15
935.2262	2042.9998	7084.05	6205.35
935.3632	2044.5664	7058.85	6177.65
935.5002	2046.1323	7044.25	6164.35
935.6372	2047.6974	7024.6	6144.65
935.7742	2049.2617	6995.6	6116.95
935.9111	2050.8254	7020.5	6119.2
936.048	2052.3883	6998.65	6117.6
936.1849	2053.9504	6974.15	6092.1
936.3218	2055.5118	6970.05	6088.1
936.4586	2057.0725	6927.65	6044.35
936.5955	2058.6325	6914.75	6035.3
936.7323	2060.1917	6913.9	6033.65
936.869	2061.7502	6910.6	6028.65
937.0058	2063.3079	6892.55	6014.1
937.1425	2064.8649	6870.65	5985.95
937.2792	2066.4212	6861.65	5979.9
937.4159	2067.9767	6850.95	5973.45
937.5525	2069.5315	6798.3	5917.7
937.6891	2071.0856	6814.05	5935.7
937.8257	2072.6389	6800.6	5917.3
937.9623	2074.1915	6766.55	5887.7
938.0989	2075.7433	6732.05	5849.85
938.2354	2077.2945	6716.25	5837.15
938.3719	2078.8448	6696.4	5815.55
938.5084	2080.3945	6690.05	5810.5
938.6448	2081.9434	6670.2	5789.45
938.7812	2083.4916	6666.75	5785.8
938.9176	2085.039	6653.5	5769.65
939.054	2086.5857	6627.7	5745
939.1903	2088.1317	6621.95	5741.65
939.3267	2089.677	6623.8	5743.35
939.463	2091.2215	6581.45	5702.75
939.5992	2092.7652	6579.55	5697.3
939.7355	2094.3083	6574.9	5692.4
939.8717	2095.8506	6572.35	5691.4
940.0079	2097.3921	6565.9	5686.25
940.1441	2098.933	6540.7	5657.95
940.2802	2100.4731	6522.4	5642.45
940.4163	2102.0124	6555.05	5656.6
940.5524	2103.5511	6524.6	5646.25
940.6885	2105.089	6520.05	5639.9
940.8245	2106.6261	6487.55	5607.65
940.9606	2108.1626	6483.9	5602.85
941.0965	2109.6983	6489.75	5582.1
941.2325	2111.2332	6473	5593.25
941.3684	2112.7675	6433.05	5552.55
941.5044	2114.301	6436.1	5552.05
941.6403	2115.8337	6424.8	5544.7
941.7761	2117.3657	6396.6	5516.15
941.912	2118.897	6410	5529.1
942.0478	2120.4276	6384.9	5497.75
942.1835	2121.9575	6353.2	5471.55
942.3193	2123.4866	6380.3	5497.25
942.455	2125.0149	6352.25	5469.2
942.5907	2126.5426	6330.55	5451
942.7264	2128.0695	6311.65	5426.95
942.8621	2129.5956	6308.85	5430.6
942.9977	2131.1211	6302.6	5417.05
943.1333	2132.6458	6278.3	5399.5
943.2689	2134.1698	6270	5389.75
943.4044	2135.693	6252.6	5369.5
943.54	2137.2155	6238.95	5354.6
943.6755	2138.7373	6253.8	5373.6
943.8109	2140.2584	6232.5	5351.5
943.9464	2141.7787	6206.4	5322.4
944.0818	2143.2983	6183.5	5303.3
944.2172	2144.8171	6154.25	5275.8
944.3526	2146.3353	6133.3	5250.75
944.4879	2147.8527	6135.55	5257
944.6232	2149.3693	6126.9	5246.7
944.7585	2150.8853	6115.6	5238.1
944.8938	2152.4005	6076.45	5195.2
945.029	2153.9149	6069.45	5189.35
945.1642	2155.4287	6055.85	5176.5
945.2994	2156.9417	6043.5	5161.55
945.4346	2158.454	6026.3	5142.55
945.5697	2159.9655	6022.1	5142.5
945.7048	2161.4764	6008.15	5129
945.8399	2162.9865	5981.05	5099.25
945.9749	2164.4958	5973.85	5092.25
946.1099	2166.0045	5956.15	5073.95
946.2449	2167.5124	5964.45	5084.6
946.3799	2169.0195	5952.4	5073.3
946.5148	2170.526	5946.05	5064.4
946.6498	2172.0317	5921.35	5038.35
946.7846	2173.5367	5924.85	5044.7
946.9195	2175.0409	5891.75	5013.75
947.0543	2176.5445	5883.85	5007.05
947.1891	2178.0473	5876	4996.1
947.3239	2179.5494	5854.25	4972.35
947.4587	2181.0507	5823.95	4944.35
947.5934	2182.5513	5816.3	4936.3
947.7281	2184.0512	5815.6	4935.1
947.8628	2185.5504	5800.45	4920.25
947.9974	2187.0488	5748.6	4867.1
948.132	2188.5465	5746.35	4865.15
948.2666	2190.0435	5723.35	4841.95
948.4012	2191.5397	5721.9	4842.55
948.5357	2193.0353	5692.95	4812.25
948.6702	2194.5301	5664.65	4782.75
948.8047	2196.0241	5682.9	4804.2
948.9392	2197.5175	5671.6	4791.9
949.0736	2199.0101	5632.4	4749.25
949.208	2200.502	5625.55	4745.95
949.3424	2201.9931	5607.35	4726.9
949.4767	2203.4835	5576.3	4695.05
949.611	2204.9733	5580.6	4694.8
949.7453	2206.4622	5572.25	4693.5
949.8796	2207.9505	5542.95	4660
950.0138	2209.438	5523.35	4646.35
950.148	2210.9248	5498.25	4615.8
950.2822	2212.4109	5497.45	4618.7
950.4164	2213.8962	5480.55	4595.95
950.5505	2215.3809	5461.65	4579.3
950.6846	2216.8648	5453.45	4573.7
950.8186	2218.3479	5442.75	4558.2
950.9527	2219.8304	5416	4532
951.0867	2221.3121	5386.55	4503.85
951.2207	2222.7931	5386.55	4505.15
951.3546	2224.2733	5390.6	4509.95
951.4886	2225.7529	5349.9	4469.3
951.6225	2227.2317	5342.35	4458.95
951.7563	2228.7098	5328.6	4448.6
951.8902	2230.1872	5324.15	4444.5
952.024	2231.6638	5311.05	4432
952.1578	2233.1397	5285.65	4398.65
952.2916	2234.6149	5285.75	4406.25
952.4253	2236.0894	5266.8	4386.25
952.559	2237.5632	5243.2	4362.55
952.6927	2239.0362	5234.05	4353.4
952.8263	2240.5085	5219.3	4337.8
952.9599	2241.9801	5226.4	4345.95
953.0935	2243.4509	5190.2	4308.9
953.2271	2244.921	5177.55	4296.2
953.3606	2246.3904	5159.3	4276
953.4941	2247.8591	5146.95	4267.95
953.6276	2249.3271	5135.65	4255.45
953.7611	2250.7943	5121.65	4242.45
953.8945	2252.2608	5100.05	4218.2
954.0279	2253.7266	5092.95	4212.65
954.1612	2255.1917	5082.9	4201.45
954.2946	2256.656	5056.2	4174.9
954.4279	2258.1197	5048.1	4166.55
954.5612	2259.5826	5045.35	4165.05
954.6944	2261.0447	5030.7	4151.55
954.8276	2262.5062	5003.4	4121.45
954.9608	2263.9669	4995.3	4112.7
955.094	2265.4269	4996.95	4117.7
955.2271	2266.8862	4984.3	4103.15
955.3602	2268.3448	4965.65	4084.1
955.4933	2269.8026	4976.85	4095.2
955.6264	2271.2598	4956.1	4075.5
955.7594	2272.7162	4933.8	4053.3
955.8924	2274.1719	4920.85	4039.45
956.0253	2275.6268	4919.45	4037.75
956.1583	2277.0811	4904.45	4023.7
956.2912	2278.5346	4882.1	4003.35
956.4241	2279.9874	4895.5	4014.5
956.5569	2281.4395	4862.85	3984.25
956.6897	2282.8908	4848.85	3963.65
956.8225	2284.3414	4853.95	3972.6
956.9553	2285.7914	4835.2	3955.15
957.088	2287.2406	4822.7	3938.9
957.2207	2288.689	4782.65	3903.25
957.3534	2290.1368	4803.6	3921.85
957.486	2291.5838	4790	3907.85
957.6186	2293.0302	4764.55	3880.35
957.7512	2294.4758	4756.7	3878.7
957.8838	2295.9206	4721.75	3838.7
958.0163	2297.3648	4721.25	3838.6
958.1488	2298.8082	4713.7	3831.7
958.2813	2300.251	4693.7	3812.85
958.4137	2301.693	4690.2	3806.95
958.5461	2303.1343	4700.2	3818.45
958.6785	2304.5748	4673.35	3792.3
958.8108	2306.0147	4668.35	3787.3
958.9432	2307.4538	4657.35	3774.7
959.0754	2308.8922	4633.35	3754.75
959.2077	2310.3299	4622.85	3742.55
959.3399	2311.7669	4610.95	3732.05
959.4721	2313.2031	4609.75	3728.15
959.6043	2314.6387	4573.5	3692.7
959.7365	2316.0735	4571.8	3691.25
959.8686	2317.5076	4568	3686.55
960.0006	2318.941	4567.8	3687.95
960.1327	2320.3737	4536.2	3654.5
960.2647	2321.8056	4531.55	3647.6
960.3967	2323.2369	4516.7	3636.2
960.5287	2324.6674	4512.8	3629.95
960.6606	2326.0972	4500.5	3618
960.7925	2327.5263	4484.4	3603.45
960.9244	2328.9547	4464.25	3583.3
961.0562	2330.3823	4456.55	3575.95
961.1881	2331.8092	4464.65	3578.95
961.3198	2333.2355	4448.7	3568.8
961.4516	2334.661	4442.8	3561.4
961.5833	2336.0858	4421.75	3538.85
961.715	2337.5098	4419.5	3539.45
961.8467	2338.9332	4400.4	3518.95
961.9783	2340.3558	4397.45	3513.75
962.1099	2341.7778	4376.05	3496.1
962.2415	2343.199	4353.3	3471.35
962.373	2344.6195	4355.8	3476.95
962.5045	2346.0393	4343.7	3463.55
962.636	2347.4583	4340.05	3458.05
962.7675	2348.8767	4319.15	3437.1
962.8989	2350.2943	4329.45	3449.3
963.0303	2351.7113	4294.65	3412.7
963.1617	2353.1275	4278.3	3395.9
963.293	2354.543	4304.6	3415.9
963.4243	2355.9578	4266.6	3383.1
963.5556	2357.3718	4238.5	3355.35
963.6868	2358.7852	4216.9	3333.7
963.818	2360.1978	4222.5	3338.65
963.9492	2361.6098	4205.25	3325.25
964.0803	2363.021	4215	3330.45
964.2114	2364.4315	4180.8	3301.5
964.3425	2365.8413	4190.65	3304.5
964.4736	2367.2504	4170.1	3289.8
964.6046	2368.6587	4153.15	3272.45
964.7356	2370.0664	4141.95	3259.9
964.8666	2371.4733	4125.05	3243.35
964.9975	2372.8795	4136.3	3255.6
965.1284	2374.285	4113.35	3233.6
965.2593	2375.6899	4092.95	3214
965.3901	2377.0939	4072.8	3192.4
965.5209	2378.4973	4063.8	3183.35
965.6517	2379.9	4063.7	3181.5
965.7825	2381.3019	4032.25	3152.6
965.9132	2382.7032	4018.45	3137.45
966.0439	2384.1037	4019.8	3140.45
966.1745	2385.5035	4004.45	3125.9
966.3051	2386.9027	3990.8	3110.95
966.4357	2388.3011	4000.5	3114.9
966.5663	2389.6987	3994.65	3115.45
966.6968	2391.0957	3979.9	3098.6
966.8273	2392.492	3961.25	3081.3
966.9578	2393.8876	3918.4	3036.6
967.0882	2395.2824	3923.15	3042.45
967.2186	2396.6765	3914.05	3031.6
967.349	2398.07	3870.4	2986.9
967.4793	2399.4627	3891.85	3009.05
967.6097	2400.8547	3861.5	2980.55
967.7399	2402.246	3883.75	2997
967.8702	2403.6366	3839.25	2958.75
968.0004	2405.0265	3822.75	2941.5
968.1306	2406.4156	3822.3	2935.7
968.2607	2407.8041	3815.25	2930.45
968.3909	2409.1918	3806.25	2922.05
968.521	2410.5789	3777.5	2895.6
968.651	2411.9652	3778.4	2894.55
968.781	2413.3508	3761.55	2881.9
968.911	2414.7358	3749.35	2867.45
969.041	2416.12	3727.85	2848.95
969.1709	2417.5035	3725.6	2844.85
969.3008	2418.8863	3708.25	2826.3
969.4307	2420.2684	3701.1	2820
969.5606	2421.6497	3693.4	2812.4
969.6904	2423.0304	3682	2801.7
969.8201	2424.4104	3672.65	2789.1
969.9499	2425.7896	3666.5	2783.4
970.0796	2427.1682	3653.55	2772.55
970.2093	2428.546	3638.95	2757
970.3389	2429.9232	3632.95	2751.1
970.4685	2431.2996	3633.4	2751.85
970.5981	2432.6753	3630.85	2749.25
970.7277	2434.0503	3622.6	2740.1
970.8572	2435.4246	3599.2	2717.6
970.9867	2436.7982	3592.8	2709.35
971.1161	2438.1711	3580.7	2699.6
971.2456	2439.5433	3565.35	2683.8
971.375	2440.9148	3548.7	2662.4
971.5043	2442.2856	3530.65	2649.2
971.6336	2443.6557	3532.2	2648.6
971.7629	2445.025	3520.75	2639.2
971.8922	2446.3937	3512.25	2628.8
972.0214	2447.7617	3516	2635.85
972.1506	2449.1289	3504.6	2624.6
972.2798	2450.4955	3496.3	2611.05
972.4089	2451.8613	3476.95	2597.45
972.538	2453.2265	3474.7	2593.85
972.6671	2454.5909	3470.2	2588.15
972.7961	2455.9546	3446.8	2565.05
972.9251	2457.3177	3447.4	2568.25
973.0541	2458.68	3439.3	2557.1
973.1831	2460.0416	3432.65	2550.25
973.312	2461.4025	3423.05	2542.1
973.4408	2462.7627	3435.1	2542.85
973.5697	2464.1222	3425.7	2545.1
973.6985	2465.4811	3408.2	2527.25
973.8273	2466.8392	3397	2514.2
973.956	2468.1966	3386.15	2502.9
974.0847	2469.5533	3393.2	2508.25
974.2134	2470.9093	3378.95	2497.8
974.3421	2472.2645	3366.65	2483.75
974.4707	2473.6191	3365	2484.55
974.5993	2474.973	3350.25	2468.95
974.7278	2476.3262	3333.65	2451.05
974.8563	2477.6787	3321.45	2441.15
974.9848	2479.0305	3307.35	2426.85
975.1132	2480.3816	3311.5	2430.2
975.2417	2481.7319	3287.35	2405.55
975.37	2483.0816	3291.95	2408.45
975.4984	2484.4306	3280.25	2396.45
975.6267	2485.7789	3266.4	2386.35
975.755	2487.1264	3256.05	2375.15
975.8833	2488.4733	3247.85	2367.5
976.0115	2489.8195	3250.55	2361.4
976.1397	2491.165	3232.45	2348.65
976.2678	2492.5097	3224.55	2341.3
976.3959	2493.8538	3217.85	2338.1
976.524	2495.1972	3197.15	2314.95
976.6521	2496.5398	3183.6	2301.35
976.7801	2497.8818	3175.7	2293.95
976.9081	2499.2231	3173.7	2292.95
977.036	2500.5637	3164.15	2280.95
977.164	2501.9035	3142.05	2260.6
977.2918	2503.2427	3156.4	2271.85
977.4197	2504.5812	3142	2261
977.5475	2505.919	3139.4	2254.5
977.6753	2507.256	3125.85	2245.3
977.8031	2508.5924	3115.9	2234.85
977.9308	2509.9281	3104.55	2216.95
978.0585	2511.2631	3092.75	2211.8
978.1861	2512.5974	3095.1	2215.45
978.3137	2513.9309	3082.25	2199.95
978.4413	2515.2638	3093.4	2183.15
978.5689	2516.596	3068.4	2188.65
978.6964	2517.9275	3048.3	2166.55
978.8239	2519.2583	3046.55	2164.5
978.9513	2520.5884	3050.05	2168.8
979.0788	2521.9178	3037.2	2154.75
979.2062	2523.2465	3022.65	2142.25
979.3335	2524.5745	3014.65	2133.15
979.4608	2525.9018	3017.25	2134.15
979.5881	2527.2284	2998.75	2120.25
979.7154	2528.5543	2989.8	2108.65
979.8426	2529.8796	2984.25	2103.65
979.9698	2531.2041	2989.7	2108.55
980.0969	2532.5279	2968.05	2089.7
980.224	2533.851	2962.6	2082.35
980.3511	2535.1735	2956.9	2076.95
980.4781	2536.4952	2941.2	2061
980.6052	2537.8163	2934.2	2053.65
980.7321	2539.1366	2942.4	2060.85
980.8591	2540.4562	2936.35	2055.5
980.986	2541.7752	2923.2	2041.1
981.1129	2543.0935	2914.35	2035.75
981.2397	2544.411	2914.9	2032
981.3665	2545.7279	2907.95	2027.7
981.4933	2547.0441	2904.8	2025
981.62	2548.3596	2909.05	2024.5
981.7467	2549.6744	2901.45	2020.05
981.8734	2550.9885	2898.75	2009.85
982.0001	2552.3019	2880.9	1999.35
982.1267	2553.6146	2870.9	1990.1
982.2532	2554.9266	2861.2	1979.8
982.3798	2556.2379	2859.8	1977
982.5063	2557.5485	2857.7	1980.6
982.6327	2558.8585	2856.75	1970.1
982.7592	2560.1677	2848.9	1963.85
982.8856	2561.4762	2837.35	1956.45
983.0119	2562.7841	2834.5	1948.5
983.1383	2564.0913	2829.2	1948.65
983.2646	2565.3977	2831.55	1951.2
983.3908	2566.7035	2813.7	1933.2
983.517	2568.0086	2818.15	1936.05
983.6432	2569.313	2807.15	1926.45
983.7694	2570.6167	2808.6	1925.5
983.8955	2571.9197	2795.55	1915.6
984.0216	2573.222	2807.35	1921.7
984.1476	2574.5236	2781.3	1899.75
984.2737	2575.8246	2785.5	1901.1
984.3996	2577.1248	2783	1900.05
984.5256	2578.4244	2774.35	1892.5
984.6515	2579.7232	2767.95	1886.55
984.7774	2581.0214	2784.8	1878.25
984.9032	2582.3189	2769.1	1889.3
985.029	2583.6157	2767.5	1882.9
985.1548	2584.9118	2754.1	1872.8
985.2806	2586.2072	2743.15	1862.6
985.4063	2587.5019	2724.2	1843.05
985.5319	2588.7959	2727.55	1847.05
985.6576	2590.0893	2729.95	1846.15
985.7832	2591.3819	2714.55	1836.15
985.9087	2592.6739	2712.45	1833.15
986.0343	2593.9652	2707.05	1826.15
986.1597	2595.2557	2691.65	1809.55
986.2852	2596.5456	2679.6	1797.35
986.4106	2597.8348	2678	1798.05
986.536	2599.1234	2661.55	1780.8
986.6614	2600.4112	2660.85	1778.95
986.7867	2601.6983	2662.55	1779
986.912	2602.9848	2649.8	1771.05
987.0372	2604.2705	2639.3	1753.7
987.1624	2605.5556	2633.25	1751.65
987.2876	2606.84	2622.35	1740.55
987.4128	2608.1237	2611.25	1729.4
987.5379	2609.4067	2616.25	1732.45
987.6629	2610.689	2600.1	1707.95
987.788	2611.9707	2599.85	1714.95
987.913	2613.2516	2592.15	1707.95
988.0379	2614.5319	2573.8	1693.55
988.1629	2615.8115	2574.05	1693.7
988.2878	2617.0903	2569.35	1687.5
988.4126	2618.3685	2561.45	1679.95
988.5375	2619.6461	2548.85	1667.5
988.6622	2620.9229	2540	1659.65
988.787	2622.199	2538.7	1657.5
988.9117	2623.4745	2534.25	1653.35
989.0364	2624.7493	2524.75	1642.9
989.161	2626.0234	2521.2	1639.55
989.2857	2627.2968	2499.3	1617.2
989.4102	2628.5695	2506.85	1623.5
989.5348	2629.8415	2487.1	1606.4
989.6593	2631.1128	2492.5	1608.3
989.7837	2632.3835	2483.4	1603.25
989.9082	2633.6535	2465.65	1584.6
990.0326	2634.9228	2474.85	1593.25
990.1569	2636.1914	2462.4	1583.25
990.2812	2637.4593	2459.3	1571.1
990.4055	2638.7265	2447.95	1565.6
990.5298	2639.9931	2440.05	1559.1
990.654	2641.259	2440.4	1557.75
990.7782	2642.5242	2433.75	1551.85
990.9023	2643.7887	2424.25	1542.05
991.0264	2645.0525	2406.6	1529.1
991.1505	2646.3156	2417.2	1535.55
991.2745	2647.5781	2408.6	1528.45
991.3985	2648.8398	2395.75	1516.15
991.5225	2650.1009	2391.05	1502.5
991.6464	2651.3613	2387.05	1504.8
991.7703	2652.6211	2378.4	1498.15
991.8942	2653.8801	2376.35	1495.2
992.018	2655.1385	2377.5	1494.6
992.1418	2656.3961	2372.05	1490.9
992.2655	2657.6531	2369.6	1489.75
992.3892	2658.9094	2361.95	1481.35
992.5129	2660.1651	2357.4	1477.8
992.6366	2661.42	2343.6	1460.15
992.7602	2662.6743	2339.35	1457.45
992.8837	2663.9279	2340.45	1459.1
993.0073	2665.1808	2339.75	1458.35
993.1307	2666.433	2329.05	1446.15
993.2542	2667.6846	2321.85	1442.55
993.3776	2668.9354	2328.25	1444.9
993.501	2670.1856	2306.7	1425.7
993.6244	2671.4351	2308.45	1428.15
993.7477	2672.6839	2303.05	1420.75
993.8709	2673.9321	2286.65	1407
993.9942	2675.1795	2295.4	1415.6
994.1174	2676.4263	2286.95	1404.2
994.2405	2677.6724	2279.45	1399.1
994.3637	2678.9179	2274.7	1392.15
994.4868	2680.1626	2267.45	1387.7
994.6098	2681.4067	2265.65	1383.2
994.7328	2682.6501	2267.7	1386.25
994.8558	2683.8928	2255.05	1375.55
994.9788	2685.1348	2253.8	1372.4
995.1017	2686.3761	2242.95	1361.1
995.2245	2687.6168	2239.3	1360.05
995.3474	2688.8568	2230	1348.65
995.4702	2690.0961	2220.25	1340
995.5929	2691.3348	2218.75	1337.4
995.7156	2692.5727	2212.5	1330.6
995.8383	2693.81	2216.3	1334.35
995.961	2695.0466	2209.8	1330.55
996.0836	2696.2826	2206.35	1323.65
996.2062	2697.5178	2203.85	1319.1
996.3287	2698.7524	2184.6	1303.5
996.4512	2699.9863	2194.45	1311.15
996.5737	2701.2195	2187.15	1306.3
996.6961	2702.452	2174.35	1292.05
996.8185	2703.6839	2178.4	1296.6
996.9408	2704.9151	2173.05	1293.4
997.0631	2706.1456	2159.65	1278.85
997.1854	2707.3755	2159.95	1279.8
997.3077	2708.6046	2164	1281
997.4299	2709.8331	2152.05	1269.55
997.552	2711.0609	2142.5	1262.5
997.6742	2712.2881	2132.8	1252.4
997.7963	2713.5145	2138.85	1255.8
997.9183	2714.7403	2124.6	1244.05
998.0403	2715.9654	2127.15	1247.2
998.1623	2717.1899	2133.2	1237.9
998.2842	2718.4136	2114.05	1233.85
998.4062	2719.6367	2112.25	1232
998.528	2720.8591	2104.1	1213.65
998.6498	2722.0809	2101.5	1221
998.7716	2723.3019	2107.05	1223.3
998.8934	2724.5223	2097.45	1216
999.0151	2725.7421	2083.6	1201
999.1368	2726.9611	2090.25	1207.95
999.2584	2728.1795	2082.65	1198.05
999.38	2729.3972	2061.15	1182.65
999.5016	2730.6142	2060.7	1165.9
999.6231	2731.8306	2049.15	1165.8
999.7446	2733.0462	2045.5	1162.25
999.8661	2734.2612	2037.5	1152.25
999.9875	2735.4756	2037.4	1155.2
1000.1089	2736.6892	2023.15	1142
1000.2302	2737.9022	2026.15	1149.5
1000.3515	2739.1145	2018.95	1137.1
1000.4728	2740.3262	2022.05	1133.1
1000.594	2741.5372	2015.35	1137.35
1000.7152	2742.7475	2002.95	1121.2
1000.8363	2743.9571	2005.8	1124.15
1000.9575	2745.1661	1995.5	1109.6
1001.0785	2746.3744	1993.8	1111.3
1001.1996	2747.582	1983.2	1101.95
1001.3206	2748.7889	1983.45	1099.25
1001.4415	2749.9952	1984.65	1103.3
1001.5625	2751.2008	1975.7	1094.85
1001.6833	2752.4057	1978.25	1095
1001.8042	2753.61	1963.2	1081.8
1001.925	2754.8136	1961.2	1077.85
1002.0458	2756.0165	1949.25	1069.35
1002.1665	2757.2188	1949.85	1068.55
1002.2872	2758.4204	1949.4	1068.8
1002.4078	2759.6213	1935.1	1053.55
1002.5285	2760.8215	1931.65	1047.2
1002.649	2762.0211	1942.4	1060.4
1002.7696	2763.22	1930.3	1046.3
1002.8901	2764.4182	1930.05	1048.1
1003.0106	2765.6158	1915.35	1034.4
1003.131	2766.8127	1914.9	1032.8
1003.2514	2768.009	1897.5	1018.2
1003.3717	2769.2045	1902.75	1020.85
1003.492	2770.3994	1904.7	1023.3
1003.6123	2771.5936	1893	1013.15
1003.7325	2772.7872	1884.45	1003.85
1003.8527	2773.9801	1879.6	998
1003.9729	2775.1723	1899.65	1001.75
1004.093	2776.3639	1873.45	992.95
1004.2131	2777.5548	1872.6	989.4
1004.3331	2778.745	1866.55	984.25
1004.4531	2779.9346	1874.6	994.35
1004.5731	2781.1235	1867.45	985.6
1004.693	2782.3117	1856.15	977.55
1004.8129	2783.4992	1857.55	978.1
1004.9328	2784.6861	1853.55	971.3
1005.0526	2785.8723	1855.2	973.5
1005.1723	2787.0579	1845.75	963.4
1005.2921	2788.2428	1839.85	958.85
1005.4118	2789.427	1823.6	942.3
1005.5314	2790.6106	1834	953.45
1005.651	2791.7935	1817.2	935.45
1005.7706	2792.9757	1822.5	942.15
1005.8902	2794.1573	1820.75	939.1
1006.0097	2795.3382	1809.2	927.2
1006.1291	2796.5184	1811.6	933.05
1006.2485	2797.698	1806.4	920.4
1006.3679	2798.8769	1797.5	916.2
1006.4873	2800.0551	1801.1	920.25
1006.6066	2801.2327	1795.7	911.65
1006.7258	2802.4096	1786.05	906.2
1006.8451	2803.5859	1783.1	902.15
1006.9642	2804.7615	1780.05	898.8
1007.0834	2805.9364	1779.7	899.45
1007.2025	2807.1106	1773.6	892.8
1007.3216	2808.2842	1772.3	889.35
1007.4406	2809.4572	1762.4	879.25
1007.5596	2810.6294	1775.6	894.45
1007.6785	2811.801	1768.9	888.6
1007.7975	2812.972	1768.8	888.25
1007.9163	2814.1423	1760.4	878.85
1008.0352	2815.3119	1759.9	879.2
1008.154	2816.4808	1757.75	878.6
1008.2727	2817.6491	1777.1	887.65
1008.3914	2818.8167	1758.9	879.65
1008.5101	2819.9837	1767.15	880.6
1008.6288	2821.15	1757.05	874.2
1008.7474	2822.3157	1766.15	885.95
1008.8659	2823.4807	1772.95	893.5
1008.9844	2824.645	1779.7	897.65
1009.1029	2825.8086	1777.3	898.7
1009.2214	2826.9716	1793.45	914.45
1009.3398	2828.134	1794.35	915.4
1009.4581	2829.2957	1797.2	917
1009.5764	2830.4567	1810.75	931.65
1009.6947	2831.617	1801.2	920.4
1009.813	2832.7767	1802.9	921.6
1009.9312	2833.9358	1805.7	925.2
1010.0493	2835.0941	1802.1	922.2
1010.1675	2836.2519	1792.6	912.15
1010.2855	2837.4089	1787.85	907.55
1010.4036	2838.5653	1787.6	906.95
1010.5216	2839.7211	1767.3	886.8
1010.6396	2840.8761	1773.4	890.8
1010.7575	2842.0306	1772.7	892.7
1010.8754	2843.1843	1759.2	881.2
1010.9932	2844.3374	1763.2	883.4
1011.111	2845.4899	1762.25	881.8
1011.2288	2846.6417	1758.9	879.7
1011.3465	2847.7928	1766.5	886.85
1011.4642	2848.9433	1754	874.45
1011.5818	2850.0931	1761.45	882.15
1011.6995	2851.2422	1764.95	881
1011.817	2852.3907	1764.95	884.85
1011.9345	2853.5385	1753.1	869.95
1012.052	2854.6857	1759.2	869
1012.1695	2855.8323	1751.2	872.05
1012.2869	2856.9781	1749.55	869.95
1012.4042	2858.1233	1755.8	874.5
1012.5216	2859.2679	1753.15	872.35
1012.6389	2860.4118	1752	871.1
1012.7561	2861.555	1751.1	866.75
1012.8733	2862.6976	1756.8	875.45
1012.9905	2863.8395	1756.2	878.85
1013.1076	2864.9808	1756.55	875.55
1013.2247	2866.1214	1745.45	865.1
1013.3417	2867.2614	1748.15	867.2
1013.4587	2868.4007	1750.8	867.2
1013.5757	2869.5393	1752.55	869.6
1013.6926	2870.6773	1745.7	861.6
1013.8095	2871.8146	1757.3	873.6
1013.9263	2872.9513	1745	863.65
1014.0431	2874.0874	1737.15	855.75
1014.1599	2875.2227	1741.8	862.4
1014.2766	2876.3574	1738	858.95
1014.3933	2877.4915	1737.7	858.4
1014.51	2878.6249	1729.95	851.65
1014.6266	2879.7577	1734.3	853.8
1014.7431	2880.8898	1747.4	858.15
1014.8596	2882.0212	1740.05	862.4
1014.9761	2883.152	1739.3	857.75
1015.0925	2884.2821	1733.1	854
1015.2089	2885.4116	1726.15	843.9
1015.3253	2886.5405	1725.8	847.6
1015.4416	2887.6686	1730.95	847.65
1015.5579	2888.7962	1721.4	843.3
1015.6741	2889.923	1722.45	843.25
1015.7903	2891.0493	1719.7	842.45
1015.9065	2892.1748	1720.6	839.7
1016.0226	2893.2997	1713.65	834.25
1016.1387	2894.424	1705.2	825.6
1016.2547	2895.5476	1701.7	821.05
1016.3707	2896.6706	1704.65	825.7
1016.4866	2897.7929	1702.95	823
1016.6025	2898.9145	1696.15	814.8
1016.7184	2900.0355	1695.15	815.2
1016.8342	2901.1559	1695.6	816.3
1016.95	2902.2756	1689.4	809.85
1017.0658	2903.3946	1685.05	803.2
1017.1815	2904.513	1675.15	791.35
1017.2971	2905.6308	1676.6	796.25
1017.4127	2906.7479	1670.65	790.45
1017.5283	2907.8643	1674.35	793.05
1017.6439	2908.9801	1662.55	785.3
1017.7594	2910.0953	1667.7	786.5
1017.8748	2911.2098	1656.35	772.3
1017.9902	2912.3236	1659.6	770.95
1018.1056	2913.4368	1664.9	782.05
1018.2209	2914.5494	1654.2	772.55
1018.3362	2915.6613	1646.75	760.15
1018.4515	2916.7725	1640.85	757.45
1018.5667	2917.8831	1637.85	758.2
1018.6819	2918.9931	1639.85	757.75
1018.797	2920.1024	1628.25	746.6
1018.9121	2921.211	1624.55	745.05
1019.0271	2922.319	1617.55	736.65
1019.1421	2923.4264	1613.2	733.15
1019.2571	2924.5331	1605.65	727
1019.372	2925.6391	1611.65	732.7
1019.4869	2926.7445	1606.7	729.45
1019.6017	2927.8493	1602.55	721.3
1019.7165	2928.9534	1602.8	722.55
1019.8313	2930.0569	1601.35	718.8
1019.946	2931.1597	1600.3	719.6
1020.0606	2932.2619	1597	717.55
1020.1753	2933.3634	1603.55	724.05
1020.2899	2934.4643	1616.15	727.8
1020.4044	2935.5645	1611.1	724.45
1020.5189	2936.6641	1600.15	714.7
1020.6334	2937.763	1594.9	716.05
1020.7478	2938.8613	1597.6	716.3
1020.8622	2939.959	1600.3	715.2
1020.9765	2941.056	1578.9	701.3
1021.0908	2942.1523	1581.4	700.55
1021.2051	2943.248	1571.35	692.3
1021.3193	2944.3431	1558.6	678.05
1021.4334	2945.4375	1547.65	668.4
1021.5476	2946.5313	1531.55	651.65
1021.6617	2947.6244	1523.15	642.9
1021.7757	2948.7169	1507.7	626.25
1021.8897	2949.8087	1497.7	616.15
1022.0037	2950.8999	1491	610.3
1022.1176	2951.9904	1482.9	603.55
1022.2315	2953.0803	1479.5	599.5
1022.3453	2954.1696	1466.95	586.05
1022.4591	2955.2582	1460.05	579.15
1022.5728	2956.3462	1458	576.85
1022.6865	2957.4335	1456.05	573.95
1022.8002	2958.5202	1452.6	569.95
1022.9138	2959.6062	1446.65	566.4
1023.0274	2960.6916	1449.9	569.75
1023.141	2961.7764	1444.75	562.6
1023.2545	2962.8605	1437.1	555.5
1023.3679	2963.9439	1431	551.7
1023.4813	2965.0267	1437.95	557.15
1023.5947	2966.1089	1450.85	547.2
1023.708	2967.1905	1429.3	548.75
1023.8213	2968.2714	1428.6	548.9
1023.9346	2969.3516	1421.65	541
1024.0478	2970.4312	1432.8	544.4
1024.1609	2971.5102	1415.65	535.25
1024.274	2972.5885	1415.8	534.1
1024.3871	2973.6662	1421.15	536.65
1024.5002	2974.7432	1408.6	528.75
1024.6132	2975.8196	1409.05	527.95
1024.7261	2976.8954	1402.7	522.25
1024.839	2977.9705	1405.9	524.6
1024.9519	2979.045	1400.95	521.2
1025.0647	2980.1188	1405.85	525.7
1025.1775	2981.192	1405.15	525.8
1025.2902	2982.2645	1404.45	521.15
1025.4029	2983.3364	1392.25	513.6
1025.5156	2984.4077	1389.4	508.7
1025.6282	2985.4783	1390.25	505.6
1025.7407	2986.5483	1373.9	495.6
1025.8532	2987.6177	1366.4	488.6
1025.9657	2988.6864	1371.95	492
1026.0782	2989.7545	1366.35	483.55
1026.1906	2990.8219	1364.2	486.9
1026.3029	2991.8887	1354.95	471.45
1026.4152	2992.9548	1360.05	479.4
1026.5275	2994.0204	1351.75	473.9
1026.6397	2995.0852	1350.65	471
1026.7519	2996.1495	1337.1	455.55
1026.864	2997.2131	1339.35	460.85
1026.9761	2998.276	1332.35	452.1
1027.0882	2999.3383	1324.35	444.45
1027.2002	3000.4	1314.8	433.25
1027.3122	3001.4611	1316.4	434.6
1027.4241	3002.5215	1311.8	431.95
1027.536	3003.5812	1315.75	435.55
1027.6478	3004.6404	1308	426.45
1027.7596	3005.6989	1306.5	424.85
1027.8714	3006.7567	1304.75	425.6
1027.9831	3007.8139	1329.15	425.5
1028.0947	3008.8705	1298.55	419.8
1028.2064	3009.9264	1300.4	414.7
1028.3179	3010.9818	1296.55	417.55
1028.4295	3012.0364	1286.1	404.05
1028.541	3013.0905	1290.5	410
1028.6524	3014.1439	1287.8	407.75
1028.7638	3015.1966	1282.55	403.45
1028.8752	3016.2487	1277.25	397.85
1028.9865	3017.3002	1280.85	394.7
1029.0978	3018.3511	1276.9	399.6
1029.209	3019.4013	1272	390.55
1029.3202	3020.4509	1275.2	395.85
1029.4314	3021.4998	1280.4	399.8
1029.5425	3022.5481	1271.05	392.3
1029.6535	3023.5958	1271.45	392.05
1029.7645	3024.6428	1270.9	389.25
1029.8755	3025.6892	1270.1	391.75
1029.9864	3026.735	1265.75	384.95
1030.0973	3027.7802	1264.65	383.5
1030.2082	3028.8247	1263.9	383
1030.319	3029.8685	1259.85	378.1
1030.4297	3030.9118	1255.75	375.35
1030.5404	3031.9544	1263.65	384.4
1030.6511	3032.9963	1255.8	376.1
1030.7617	3034.0376	1252.5	375
1030.8723	3035.0783	1249.45	366.95
1030.9829	3036.1184	1254.65	373.65
1031.0934	3037.1578	1242.8	361.8
1031.2038	3038.1966	1248.35	367.8
1031.3142	3039.2348	1242.8	364.25
1031.4246	3040.2723	1256.1	366.7
1031.5349	3041.3092	1243.2	364.25
1031.6452	3042.3455	1239.5	359.6
1031.7554	3043.3811	1244.6	364.15
1031.8656	3044.4161	1236.95	355.35
1031.9758	3045.4505	1239.55	360.25
1032.0859	3046.4842	1232.95	353.5
1032.1959	3047.5173	1237.05	357.85
1032.3059	3048.5498	1241.2	360.35
1032.4159	3049.5816	1239.15	359.05
1032.5258	3050.6128	1238.7	357.15
1032.6357	3051.6434	1236.05	354.05
1032.7455	3052.6734	1233.05	353.7
1032.8553	3053.7027	1224.25	342.75
1032.9651	3054.7314	1229.6	349.35
1033.0748	3055.7594	1231.8	351.3
1033.1845	3056.7868	1224.35	340.3
1033.2941	3057.8136	1224.25	345.35
1033.4037	3058.8398	1219.7	341.1
1033.5132	3059.8653	1218.75	339
1033.6227	3060.8902	1214.4	335.8
1033.7321	3061.9145	1215.45	335
1033.8415	3062.9381	1210.75	333.3
1033.9509	3063.9612	1228.85	332.55
1034.0602	3064.9835	1212.5	331.35
1034.1694	3066.0053	1211.3	329.6
1034.2787	3067.0264	1212.05	331.1
1034.3878	3068.0469	1213.85	332.15
1034.497	3069.0668	1212.25	331.35
1034.6061	3070.086	1210.25	330.1
1034.7151	3071.1046	1207.15	327.35
1034.8241	3072.1226	1210.5	327.5
1034.9331	3073.1399	1204.9	325.75
1035.042	3074.1567	1196.65	316.95
1035.1508	3075.1727	1201.55	319.75
1035.2597	3076.1882	1196.25	316.25
1035.3684	3077.203	1198.2	319.6
1035.4772	3078.2173	1195.75	315.9
1035.5859	3079.2308	1198.6	315.5
1035.6945	3080.2438	1189.65	306.9
1035.8031	3081.2561	1186.9	307.6
1035.9117	3082.2678	1188.3	309.45
1036.0202	3083.2789	1188.4	309
1036.1286	3084.2893	1182.95	304.7
1036.2371	3085.2991	1178.6	298.6
1036.3454	3086.3083	1189.35	305.75
1036.4538	3087.3169	1182.35	302.05
1036.562	3088.3248	1181.35	299.2
1036.6703	3089.3321	1178.8	297.15
1036.7785	3090.3388	1171.4	292.5
1036.8866	3091.3449	1176.15	297.3
1036.9948	3092.3503	1169.6	286.65
1037.1028	3093.3551	1168.95	289
1037.2108	3094.3593	1171.9	295.9
1037.3188	3095.3629	1170.55	289.85
1037.4267	3096.3658	1168.15	286.65
1037.5346	3097.3681	1164.75	284.3
1037.6425	3098.3698	1166.8	285
1037.7503	3099.3708	1168.8	284.6
1037.858	3100.3713	1158.1	278.15
1037.9657	3101.3711	1154.2	273.05
1038.0734	3102.3702	1288.9	273.9
1038.181	3103.3688	1156.45	275.55
1038.2886	3104.3667	1154.6	275.45
1038.3961	3105.364	1149.75	269.8
1038.5036	3106.3607	1152.5	271.65
1038.611	3107.3568	1146.55	266.2
1038.7184	3108.3522	1147.5	268.95
1038.8257	3109.347	1140.9	260.5
1038.933	3110.3412	1149.7	266.25
1039.0403	3111.3348	1144.6	266.85
1039.1475	3112.3277	1144.25	263.65
1039.2547	3113.32	1135.5	254.85
1039.3618	3114.3117	1135.15	254
1039.4689	3115.3028	1135.45	256.8
1039.5759	3116.2932	1141.1	260.15
1039.6829	3117.2831	1139.85	254.3
1039.7898	3118.2723	1132.25	251.45
1039.8967	3119.2608	1126.7	247.45
1040.0035	3120.2488	1131	253.15
1040.1103	3121.2361	1128.65	247.2
1040.2171	3122.2229	1124	244.65
1040.3238	3123.209	1128.6	246.65
1040.4305	3124.1944	1122.3	243.3
1040.5371	3125.1793	1122.2	241.5
1040.6437	3126.1635	1118.55	237.95
1040.7502	3127.1471	1121.2	242.65
1040.8567	3128.1301	1122.35	241.15
1040.9631	3129.1125	1115	236.45
1041.0695	3130.0942	1115.6	234.8
1041.1759	3131.0753	1119.55	231.05
1041.2822	3132.0558	1119.9	239.05
1041.3884	3133.0357	1117.65	235.1
1041.4946	3134.015	1113.3	233.5
1041.6008	3134.9936	1111.4	232.45
1041.7069	3135.9716	1123.7	222.5
1041.813	3136.949	1109.15	228.75
1041.919	3137.9258	1113.9	227.25
1042.025	3138.902	1109.6	224.6
1042.1309	3139.8775	1103.15	224.95
1042.2368	3140.8524	1105.15	225
1042.3427	3141.8267	1104.8	222.3
1042.4485	3142.8004	1098.5	218.75
1042.5542	3143.7735	1103.25	217.45
1042.6599	3144.7459	1102.7	220.8
1042.7656	3145.7178	1099.75	218.2
1042.8712	3146.689	1095.35	216.15
1042.9768	3147.6596	1099.05	218.8
1043.0823	3148.6295	1092.3	212.1
1043.1878	3149.5989	1093.55	214.2
1043.2932	3150.5676	1093.9	215.4
1043.3986	3151.5357	1095	215.9
1043.5039	3152.5032	1092.65	213.85
1043.6092	3153.4701	1090.1	210.55
1043.7145	3154.4364	1091.2	210.3
1043.8197	3155.402	1083.95	205.75
1043.9248	3156.367	1088.75	207.55
1044.03	3157.3315	1120.75	204.55
1044.135	3158.2952	1085	205
1044.24	3159.2584	1082.25	202.9
1044.345	3160.221	1081	199.95
1044.4499	3161.1829	1080.15	200.25
1044.5548	3162.1442	1080.3	200.3
1044.6596	3163.105	1077.35	197.05
1044.7644	3164.065	1077	198.95
1044.8692	3165.0245	1076.65	194.25
1044.9739	3165.9834	1068.65	190.55
1045.0785	3166.9416	1073.6	195.6
1045.1831	3167.8993	1073.65	193.25
1045.2877	3168.8563	1071.25	191.7
1045.3922	3169.8127	1073.8	192.7
1045.4966	3170.7684	1066.75	186.8
1045.6011	3171.7236	1068.65	187.7
1045.7054	3172.6782	1065.85	185.4
1045.8098	3173.6321	1067.8	189.25
1045.914	3174.5854	1070.1	187.45
1046.0183	3175.5381	1065.25	185.8
1046.1224	3176.4902	1062.4	184.2
1046.2266	3177.4417	1064.65	185.45
1046.3307	3178.3926	1064.4	183.5
1046.4347	3179.3428	1058.5	179.3
1046.5387	3180.2924	1056.85	176.35
1046.6427	3181.2415	1058.35	180.9
1046.7466	3182.1899	1061.7	179.9
1046.8504	3183.1377	1057.8	179.1
1046.9542	3184.0848	1058.35	175.55
1047.058	3185.0314	1053.8	173.5
1047.1617	3185.9773	1053.05	172.75
1047.2654	3186.9227	1056	174.75
1047.369	3187.8674	1052.35	172.65
1047.4726	3188.8115	1059.75	175.55
1047.5761	3189.755	1050.05	168.9
1047.6796	3190.6979	1047.15	168.8
1047.783	3191.6402	1044.9	167.6
1047.8864	3192.5818	1046	165.85
1047.9898	3193.5229	1052.05	167.85
1048.0931	3194.4633	1046.55	168.45
1048.1963	3195.4031	1045.85	165.05
1048.2995	3196.3423	1043.95	164.2
1048.4027	3197.2809	1044.6	163.1
1048.5058	3198.2189	1039.25	160.35
1048.6089	3199.1563	1047.85	163.1
1048.7119	3200.0931	1039.8	164.05
1048.8148	3201.0292	1039.05	160.8
1048.9178	3201.9648	1040.05	159.85
1049.0206	3202.8997	1037.3	154.5
1049.1235	3203.834	1035.1	156.45
1049.2262	3204.7677	1034.3	154.7
1049.329	3205.7008	1037.25	155.1
1049.4317	3206.6333	1032.65	154.65
1049.5343	3207.5652	1033.95	154.65
1049.6369	3208.4964	1035.45	155.8
1049.7394	3209.4271	1034.4	155.3
1049.8419	3210.3571	1031.35	150.05
1049.9444	3211.2865	1036.05	157.1
1050.0468	3212.2154	1033.7	155.25
1050.1491	3213.1436	1034	152.75
1050.2514	3214.0712	1035.4	149.35
1050.3537	3214.9982	1023.6	144.35
1050.4559	3215.9246	1032	151.3
1050.5581	3216.8503	1024.7	145.85
1050.6602	3217.7755	1021.95	139.9
1050.7623	3218.7001	1023.15	144.6
1050.8643	3219.624	1027.9	148.85
1050.9663	3220.5473	1024.65	145.2
1051.0682	3221.4701	1023.65	144
1051.1701	3222.3922	1026.1	143.45
1051.2719	3223.3137	1023.55	145.1
1051.3737	3224.2346	1022.5	143.65
1051.4754	3225.1549	1023.6	144.65
1051.5771	3226.0746	1019.9	137.45
1051.6788	3226.9937	1020	139.8
1051.7804	3227.9121	1017	137.5
1051.8819	3228.83	1018.3	139.55
1051.9834	3229.7473	1017.7	136.7
1052.0849	3230.6639	1016.3	138.15
1052.1863	3231.5799	1014.1	133.05
1052.2876	3232.4954	1013.2	132.45
1052.3889	3233.4102	1012.95	132.15
1052.4902	3234.3244	1013.7	133.35
1052.5914	3235.238	1011.85	132.7
1052.6926	3236.151	1034.75	130.55
1052.7937	3237.0634	1005.05	128.6
1052.8948	3237.9752	1009.6	128.8
1052.9958	3238.8864	1009.9	131.15
1053.0968	3239.797	1006.6	127.45
1053.1977	3240.7069	1008.85	131.1
1053.2986	3241.6163	1009.7	128.95
1053.3994	3242.5251	1003.75	124.35
1053.5002	3243.4332	1003	122.75
1053.6009	3244.3408	1006.5	125.3
1053.7016	3245.2477	1004.2	124.95
1053.8022	3246.154	1002.9	122.15
1053.9028	3247.0598	1004.65	124.45
1054.0034	3247.9649	1000.2	119.5
1054.1039	3248.8694	998.4	120.3
1054.2043	3249.7733	994.35	114.85
1054.3047	3250.6766	1000.85	120.75
1054.4051	3251.5793	1000	117.05
1054.5054	3252.4814	998.1	117.25
1054.6056	3253.3829	998.9	117.6
1054.7058	3254.2838	994.25	115.75
1054.806	3255.1841	998.4	119.65
1054.9061	3256.0838	995.55	117.8
1055.0061	3256.9829	995.6	117.65
1055.1062	3257.8814	990.1	109.45
1055.2061	3258.7792	990.1	109.55
1055.306	3259.6765	991.6	109.9
1055.4059	3260.5731	989.25	109.85
1055.5057	3261.4692	987	105.65
1055.6055	3262.3647	989.9	110.4
1055.7052	3263.2595	982.85	103.65
1055.8049	3264.1538	983.6	104.1
1055.9045	3265.0474	983	103.75
1056.0041	3265.9404	981.7	102.95
1056.1036	3266.8329	978.8	98.55
1056.2031	3267.7247	983.35	93.65
1056.3025	3268.616	974.2	96
1056.4019	3269.5066	971.35	90.1
1056.5013	3270.3966	969.45	88.1
1056.6005	3271.286	969.5	91.5
