Software Version:	3.9.2.0
Unit SN:	10000200
Spectrometer SN:	6960
Date:	3/6/2024 11:02:13 AM
Data Line Index:	25
Spectral Points:	2048
Integration time (ms):	125
Averages:	20
Delay (ms):	30
Sequence Number:	1
Processing:	dark subtract
Laser Power (mW):	305
Laser Current (mA):	822
Laser Diode Temp (C):	25
Laser Case Temp (C):	28.3
System Temp (C):	28.1
Spectrometer Temp (C):	25.6
CCD Temp (C):	0.005
Secondary Temp (C):	20.004
Heatsink Temp (C):	23.871
CCDPCB Temp (C):	37.274
SecondaryPCB Temp (C):	34.906

Wavelength	RamanShift	Raw Counts	Dark Subtracted
787.061	30.1047	1068.95	654
787.2016	32.3739	1099.25	687.75
787.3422	34.6426	1132.5	719.8
787.4828	36.9109	1177.4	762.8
787.6235	39.1787	1238.05	819.45
787.7642	41.4461	1292.9	869.1
787.9049	43.7131	1348.7	921.95
788.0456	45.9796	1399.1	968.25
788.1863	48.2456	1470.95	1034.8
788.3271	50.5112	1540.3	1103
788.4679	52.7764	1601	1162.95
788.6087	55.0411	1675.05	1230.7
788.7496	57.3054	1760.65	1309.65
788.8904	59.5692	1833.1	1380.15
789.0313	61.8326	1923.85	1467.55
789.1722	64.0955	2019.5	1559.25
789.3132	66.3579	2134.9	1669.65
789.4541	68.6199	2295.2	1827.15
789.5951	70.8815	2515.35	2044.15
789.7361	73.1426	2965.65	2492.35
789.8771	75.4032	4152	3670.5
790.0181	77.6634	7141.65	6656.6
790.1592	79.9231	14732.4	14242.9
790.3003	82.1824	46976	46477.5
790.4414	84.4412	65535	65019.8
790.5825	86.6995	65535	64997.3
790.7237	88.9574	65535	64970.9
790.8648	91.2148	65535	64959.4
791.006	93.4717	65535	64947.35
791.1472	95.7282	65535	64943.05
791.2885	97.9842	65535	64938.35
791.4297	100.2398	65535	64934.35
791.571	102.4949	65535	64936.2
791.7123	104.7495	65535	64932.7
791.8536	107.0036	65535	64928.8
791.9949	109.2573	65535	64930.9
792.1363	111.5105	65535	64924.55
792.2777	113.7632	65535	64926.45
792.4191	116.0154	65535	64913.3
792.5605	118.2672	65535	64924.65
792.7019	120.5185	65535	64919.8
792.8434	122.7693	65535	64919.2
792.9849	125.0197	65535	64916.4
793.1264	127.2696	65535	64911.1
793.2679	129.519	65535	64909.45
793.4094	131.7679	65535	64907.9
793.551	134.0163	65535	64901.8
793.6926	136.2642	65535	64896.65
793.8342	138.5117	65535	64891.85
793.9758	140.7587	65535	64893.7
794.1175	143.0052	65535	64893.7
794.2591	145.2512	65535	64891.6
794.4008	147.4967	65535	64892.65
794.5425	149.7417	65535	64891.25
794.6842	151.9863	65535	64885.7
794.826	154.2304	65535	64881.4
794.9677	156.4739	65535	64877.9
795.1095	158.717	65535	64877.4
795.2513	160.9596	65535	64869.15
795.3931	163.2017	65535	64867.75
795.535	165.4433	65535	64866.85
795.6768	167.6844	65535	64866.9
795.8187	169.925	65535	64863.65
795.9606	172.1651	65535	64860.05
796.1025	174.4047	65535	64855.35
796.2445	176.6439	65535	64854.6
796.3864	178.8825	65535	64846.95
796.5284	181.1206	65535	64845.9
796.6704	183.3582	65535	64842.05
796.8124	185.5954	65535	64840.9
796.9544	187.832	65535	64841.6
797.0965	190.0681	65535	64835
797.2386	192.3037	65535	64835.55
797.3806	194.5388	65535	64827.35
797.5228	196.7734	65535	64828
797.6649	199.0075	65535	64824.35
797.807	201.2411	65535	64822.65
797.9492	203.4742	65535	64823.9
798.0914	205.7068	65535	64820.4
798.2336	207.9389	65535	64816.55
798.3758	210.1704	65535	64818.55
798.518	212.4015	65535	64815.9
798.6603	214.632	65535	64820.55
798.8025	216.862	65535	64829.8
798.9448	219.0915	65535	64834.45
799.0871	221.3205	65535	64835.7
799.2294	223.549	65535	64834.95
799.3718	225.777	65535	64838.05
799.5141	228.0044	65535	64833.35
799.6565	230.2314	65535	64832.9
799.7989	232.4578	65535	64832.3
799.9413	234.6837	65535	64827.05
800.0837	236.909	65535	64822
800.2262	239.1339	65535	64796.2
800.3687	241.3582	65535	64813.2
800.5111	243.582	65535	64784.15
800.6536	245.8053	65535	64796.5
800.7961	248.0281	65535	64801.8
800.9387	250.2503	65535	64794.45
801.0812	252.472	65535	64790.1
801.2238	254.6932	65535	64788.1
801.3664	256.9139	65535	64787.6
801.509	259.134	65535	64786.05
801.6516	261.3536	65535	64788.15
801.7942	263.5727	65535	64784.5
801.9369	265.7912	65535	64781.55
802.0795	268.0092	65535	64786.3
802.2222	270.2267	65535	64783.25
802.3649	272.4436	65535	64779.85
802.5076	274.6601	65535	64775.5
802.6504	276.8759	65535	64780.35
802.7931	279.0913	65535	64776.5
802.9359	281.3061	65535	64775.15
803.0787	283.5204	65535	64775.65
803.2215	285.7341	65535	64770.6
803.3643	287.9473	65535	64756.85
803.5071	290.16	65535	64764.35
803.6499	292.3721	65535	64771.5
803.7928	294.5837	65535	64769.2
803.9357	296.7947	65535	64771.7
804.0786	299.0052	65535	64771.55
804.2215	301.2152	65535	64763.6
804.3644	303.4246	65535	64765.25
804.5074	305.6334	65535	64769.55
804.6503	307.8418	65535	64764.35
804.7933	310.0495	65535	64762.5
804.9363	312.2568	65535	64762.55
805.0793	314.4635	65535	64762.6
805.2223	316.6696	65535	64762.55
805.3653	318.8752	65535	64750.6
805.5084	321.0802	65535	64759.45
805.6514	323.2847	65535	64758.8
805.7945	325.4887	65535	64754.55
805.9376	327.692	65535	64756.8
806.0807	329.8949	65535	64751.25
806.2238	332.0972	65535	64750.15
806.367	334.2989	65535	64749.7
806.5101	336.5001	65535	64748.15
806.6533	338.7007	65535	64750.2
806.7965	340.9008	65535	64746.65
806.9397	343.1003	65535	64746.3
807.0829	345.2992	65535	64744.45
807.2261	347.4976	65535	64746.7
807.3693	349.6955	65535	64738.65
807.5126	351.8927	65535	64741.1
807.6559	354.0895	65535	64728.2
807.7991	356.2856	65535	64735.55
807.9424	358.4812	65535	64740.65
808.0857	360.6763	65535	64735.6
808.2291	362.8707	65535	64733.1
808.3724	365.0646	65535	64734.15
808.5158	367.258	65535	64730.95
808.6591	369.4508	65535	64725.65
808.8025	371.643	65535	64727.75
808.9459	373.8346	65535	64725.15
809.0893	376.0257	65535	64721.05
809.2327	378.2162	65535	64724.95
809.3762	380.4062	65535	64717.1
809.5196	382.5956	65535	64716.15
809.6631	384.7844	65535	64720.65
809.8066	386.9726	65535	64715.3
809.9501	389.1603	65535	64717.45
810.0936	391.3474	65535	64688.6
810.2371	393.5339	65535	64723
810.3806	395.7199	65535	64728.45
810.5241	397.9052	65535	64728.85
810.6677	400.09	65535	64730.3
810.8113	402.2743	65535	64726.7
810.9548	404.4579	65535	64728.8
811.0984	406.641	65535	64725.85
811.2421	408.8235	65535	64726.9
811.3857	411.0054	65535	64726.45
811.5293	413.1868	65535	64721.75
811.673	415.3675	65535	64720.3
811.8166	417.5477	65535	64717.1
811.9603	419.7273	65535	64716
812.104	421.9064	65535	64705.7
812.2477	424.0848	65535	64710.3
812.3914	426.2627	65535	64708.95
812.5351	428.4399	65535	64706.8
812.6788	430.6166	65535	64707.35
812.8226	432.7928	65535	64708.6
812.9663	434.9683	65535	64708.35
813.1101	437.1432	65535	64701.05
813.2539	439.3176	65535	64703.65
813.3977	441.4914	65535	64705.4
813.5415	443.6645	65535	64701.85
813.6853	445.8371	65535	64702.25
813.8291	448.0091	65535	64703.55
813.973	450.1806	65535	64702.7
814.1168	452.3514	65535	64698.1
814.2607	454.5216	65535	64693.35
814.4046	456.6913	65535	64701.1
814.5485	458.8603	65535	64701.1
814.6924	461.0288	65535	64699.85
814.8363	463.1967	65535	64698.95
814.9802	465.3639	65535	64697.65
815.1241	467.5306	65535	64695.85
815.2681	469.6967	65535	64697.95
815.412	471.8622	65535	64695.2
815.556	474.0271	65535	64698.6
815.7	476.1914	65535	64696.2
815.844	478.3551	65535	64695.9
815.988	480.5182	65535	64697.25
816.132	482.6807	65535	64694.5
816.276	484.8426	65535	64696.1
816.4201	487.0039	65535	64693.5
816.5641	489.1647	65535	64691.5
816.7082	491.3248	65535	64688.35
816.8522	493.4843	65535	64694.4
816.9963	495.6432	65535	64693
817.1404	497.8015	65535	64691.85
817.2845	499.9592	65535	64690.35
817.4286	502.1163	65535	64690.4
817.5727	504.2728	65535	64689.9
817.7168	506.4287	65535	64691.35
817.861	508.5839	65535	64690.15
818.0051	510.7386	65535	64691.4
818.1493	512.8927	65535	64684.15
818.2935	515.0461	65535	64684.7
818.4377	517.199	65535	64688.8
818.5818	519.3512	65535	64686.2
818.726	521.5029	65535	64682.65
818.8703	523.6539	65535	64685.65
819.0145	525.8043	65535	64684.7
819.1587	527.9541	65535	64680.8
819.303	530.1033	65535	64683.3
819.4472	532.2519	65535	64682.65
819.5915	534.3999	65535	64679.95
819.7357	536.5472	65535	64681
819.88	538.694	65535	64682.55
820.0243	540.8401	65535	64679.5
820.1686	542.9856	65535	64680.3
820.3129	545.1305	65535	64677.15
820.4572	547.2748	65535	64680.3
820.6016	549.4185	65535	64677.7
820.7459	551.5615	65535	64677.2
820.8902	553.704	65535	64678
821.0346	555.8458	65535	64679.75
821.1789	557.987	65535	64674.65
821.3233	560.1276	65535	64675.35
821.4677	562.2675	65535	64679.65
821.6121	564.4069	65535	64677.05
821.7565	566.5456	65535	64680.4
821.9009	568.6837	65535	64674.2
822.0453	570.8212	65535	64679.2
822.1897	572.958	65535	64673.55
822.3342	575.0942	65535	64677.95
822.4786	577.2299	65535	64678.35
822.6231	579.3648	65535	64676.9
822.7675	581.4992	65535	64677.55
822.912	583.6329	65535	64676.7
823.0565	585.766	65535	64678.65
823.201	587.8985	65535	64674.95
823.3454	590.0304	65535	64663.1
823.4899	592.1616	65535	64671
823.6345	594.2922	65535	64675.1
823.779	596.4222	65535	64672.15
823.9235	598.5515	65535	64668.75
824.068	600.6802	65535	64673
824.2126	602.8083	65535	64671.7
824.3571	604.9358	65535	64669.3
824.5017	607.0626	65535	64670.1
824.6462	609.1888	65535	64669.2
824.7908	611.3144	65535	64666.8
824.9354	613.4393	65535	64669.1
825.08	615.5636	65535	64669.75
825.2246	617.6873	65535	64668.45
825.3692	619.8103	65535	64666.35
825.5138	621.9327	65535	64665.6
825.6584	624.0544	65535	64671.65
825.803	626.1756	65535	64669.95
825.9477	628.2961	65535	64665.45
826.0923	630.4159	65535	64664.25
826.237	632.5351	65535	64665.8
826.3816	634.6537	65535	64664.05
826.5263	636.7716	65535	64667.75
826.6709	638.8889	65535	64660.65
826.8156	641.0056	65535	64664.75
826.9603	643.1216	65535	64663.55
827.105	645.237	65535	64658
827.2497	647.3518	65535	64667.6
827.3944	649.4659	65535	64663.3
827.5391	651.5793	65535	64664.6
827.6838	653.6922	65535	64662.4
827.8285	655.8043	65535	64663.45
827.9733	657.9159	65535	64663.3
828.118	660.0268	65535	64661.15
828.2627	662.137	65535	64658.9
828.4075	664.2466	65535	64661.8
828.5522	666.3556	65535	64660.55
828.697	668.4639	65535	64656.6
828.8418	670.5716	65535	64662.8
828.9865	672.6786	65535	64657.65
829.1313	674.785	65535	64657.15
829.2761	676.8907	65535	64658.25
829.4209	678.9958	65535	64659.15
829.5657	681.1002	65535	64658.35
829.7105	683.204	65535	64656
829.8553	685.3072	65535	64657.55
830.0001	687.4097	65535	64654
830.1449	689.5115	65535	64655.35
830.2898	691.6127	65535	64655.25
830.4346	693.7132	65535	64656.75
830.5794	695.8131	65535	64641.9
830.7243	697.9123	65535	64655.05
830.8691	700.0109	65535	64653.6
831.014	702.1089	65535	64654.55
831.1588	704.2061	65535	64656.35
831.3037	706.3028	65535	64652.95
831.4486	708.3987	65535	64654.4
831.5935	710.4941	65535	64657.65
831.7383	712.5887	65535	64655.05
831.8832	714.6827	65535	64649.1
832.0281	716.7761	65535	64655.45
832.173	718.8688	65535	64655.15
832.3179	720.9608	65535	64652.6
832.4628	723.0522	65535	64648
832.6077	725.1429	65535	64651.65
832.7527	727.233	65535	64652
832.8976	729.3224	65535	64651.8
833.0425	731.4112	65535	64650.25
833.1874	733.4993	65535	64650.1
833.3324	735.5867	65535	64653.1
833.4773	737.6735	65535	64650.55
833.6222	739.7596	65535	64648.75
833.7672	741.845	65535	64652.1
833.9122	743.9298	65535	64648.7
834.0571	746.014	65535	64652.75
834.2021	748.0974	65535	64648.2
834.347	750.1802	65535	64649.95
834.492	752.2624	65535	64653.15
834.637	754.3439	65535	64648.65
834.782	756.4247	65535	64639.7
834.9269	758.5048	65535	64651.65
835.0719	760.5843	65535	64646.2
835.2169	762.6631	65535	64648.55
835.3619	764.7413	65535	64649.25
835.5069	766.8188	65535	64647.85
835.6519	768.8956	65535	64645.65
835.7969	770.9718	65535	64647.85
835.9419	773.0473	65535	64650.85
836.0869	775.1221	65535	64646.65
836.232	777.1962	65535	64647.2
836.377	779.2697	65535	64649.05
836.522	781.3426	65535	64628
836.667	783.4147	65535	64649.15
836.8121	785.4862	65535	64649.65
836.9571	787.557	65535	64649.35
837.1021	789.6271	65535	64649.05
837.2472	791.6966	65535	64648.95
837.3922	793.7654	65535	64648.7
837.5373	795.8335	65535	64647.45
837.6823	797.901	65535	64647.8
837.8274	799.9678	65535	64644.65
837.9724	802.0339	65535	64649.65
838.1175	804.0993	65535	64638.5
838.2626	806.1641	65535	64645.75
838.4076	808.2282	65535	64647.3
838.5527	810.2916	65535	64641.5
838.6978	812.3544	65535	64650.65
838.8428	814.4164	65535	64647.35
838.9879	816.4778	65535	64644.75
839.133	818.5385	65535	64642.5
839.2781	820.5986	65535	64646.8
839.4232	822.658	65535	64644.45
839.5682	824.7166	65535	64647.8
839.7133	826.7747	65535	64644.65
839.8584	828.832	65535	64645.8
840.0035	830.8886	65535	64643.45
840.1486	832.9446	65535	64646.55
840.2937	834.9999	65535	64648.7
840.4388	837.0545	65535	64643.8
840.5839	839.1085	65535	64643.95
840.729	841.1618	65535	64642.5
840.8741	843.2143	65535	64642.75
841.0192	845.2662	65535	64645.25
841.1643	847.3175	65535	64644.75
841.3095	849.368	65535	64644.9
841.4546	851.4179	65535	64646.75
841.5997	853.467	65535	64646.2
841.7448	855.5155	65535	64644.6
841.8899	857.5633	65535	64644.85
842.0351	859.6105	65535	64644.75
842.1802	861.6569	65535	64645.2
842.3253	863.7027	65535	64641.65
842.4704	865.7478	65535	64641.85
842.6156	867.7922	65535	64641.9
842.7607	869.8359	65535	64643.3
842.9058	871.8789	65535	64642.8
843.0509	873.9212	65535	64610.65
843.1961	875.9629	65535	64641.5
843.3412	878.0039	65535	64643.7
843.4863	880.0441	65535	64645.2
843.6315	882.0837	65535	64641.65
843.7766	884.1226	65535	64641
843.9218	886.1609	65535	64644.4
844.0669	888.1984	65535	64642.95
844.212	890.2352	65535	64643.7
844.3572	892.2714	65535	64637.1
844.5023	894.3069	65535	64641.6
844.6475	896.3416	65535	64640.35
844.7926	898.3757	65535	64642.75
844.9377	900.4091	65535	64639.9
845.0829	902.4418	65535	64637.8
845.228	904.4739	65535	64639.95
845.3732	906.5052	65535	64639.4
845.5183	908.5358	65535	64641.4
845.6635	910.5658	65535	64640.05
845.8086	912.595	65535	64639.3
845.9538	914.6236	65535	64642.8
846.0989	916.6515	65535	64643.65
846.2441	918.6786	65535	64640.7
846.3892	920.7051	65535	64637.95
846.5344	922.7309	65535	64641.25
846.6795	924.756	65535	64642.9
846.8246	926.7804	65535	64638.6
846.9698	928.8041	65535	64636.55
847.1149	930.8272	65535	64641.4
847.2601	932.8495	65535	64637.8
847.4052	934.8711	65535	64641.8
847.5504	936.892	65535	64639.35
847.6955	938.9123	65535	64637
847.8407	940.9318	65535	64639.35
847.9858	942.9506	65535	64640.75
848.131	944.9688	65535	64639.5
848.2761	946.9862	65535	64638.75
848.4213	949.003	65535	64639.2
848.5664	951.019	65535	64641.7
848.7115	953.0344	65535	64637.8
848.8567	955.0491	65535	64638.25
849.0018	957.063	65535	64639.7
849.147	959.0763	65535	64640.2
849.2921	961.0888	65535	64639.1
849.4373	963.1007	65535	64639.65
849.5824	965.1119	65535	64642.85
849.7275	967.1223	65535	64639.6
849.8727	969.1321	65535	64641.95
850.0178	971.1412	65535	64641.35
850.1629	973.1495	65535	64640.05
850.3081	975.1572	65535	64607.5
850.4532	977.1641	65535	64640.35
850.5983	979.1704	65535	64640.45
850.7435	981.1759	65535	64637.3
850.8886	983.1808	65535	64636.35
851.0337	985.1849	65535	64628.05
851.1788	987.1884	65535	64638
851.324	989.1911	65535	64634.3
851.4691	991.1932	65535	64636.1
851.6142	993.1945	65535	64639.75
851.7593	995.1951	65535	64639.55
851.9045	997.1951	65535	64631.2
852.0496	999.1943	65535	64638.35
852.1947	1001.1928	65535	64636.35
852.3398	1003.1906	65535	64637.75
852.4849	1005.1877	65535	64639.4
852.63	1007.1841	65535	64639.2
852.7751	1009.1798	65535	64639.4
852.9202	1011.1748	65535	64640.1
853.0653	1013.1691	65535	64638.2
853.2104	1015.1627	65535	64637.55
853.3555	1017.1556	65535	64640.05
853.5006	1019.1477	65535	64637.15
853.6457	1021.1392	65535	64641.5
853.7908	1023.1299	65535	64639
853.9359	1025.12	65535	64639.7
854.081	1027.1093	65535	64643.3
854.2261	1029.0979	65535	64641.45
854.3712	1031.0859	65535	64642.95
854.5163	1033.0731	65535	64635.4
854.6613	1035.0596	65535	64640.4
854.8064	1037.0454	65535	64640
854.9515	1039.0304	65535	64636.8
855.0965	1041.0148	65535	64638.35
855.2416	1042.9985	65535	64634.05
855.3867	1044.9814	65535	64638.75
855.5317	1046.9636	65535	64636.8
855.6768	1048.9452	65535	64637.9
855.8219	1050.926	65535	64641.85
855.9669	1052.9061	65535	64639.2
856.112	1054.8855	65535	64638.85
856.257	1056.8642	65535	64638.05
856.4021	1058.8421	65535	64632.45
856.5471	1060.8194	65535	64640.4
856.6921	1062.7959	65535	64638.55
856.8372	1064.7717	65535	64634.7
856.9822	1066.7469	65535	64637.55
857.1272	1068.7213	65535	64635.1
857.2723	1070.695	65535	64638.45
857.4173	1072.6679	65535	64638.5
857.5623	1074.6402	65535	64638.5
857.7073	1076.6117	65535	64633.25
857.8523	1078.5826	65535	64634.5
857.9973	1080.5527	65535	64634.95
858.1423	1082.5221	65535	64638.05
858.2873	1084.4908	65535	64639.05
858.4323	1086.4587	65535	64637.7
858.5773	1088.426	65535	64637.9
858.7223	1090.3925	65535	64631.45
858.8673	1092.3584	65535	64639.2
859.0123	1094.3235	65535	64640
859.1573	1096.2879	65535	64638.75
859.3022	1098.2515	65535	64635.8
859.4472	1100.2145	65535	64639.6
859.5922	1102.1767	65535	64635.4
859.7371	1104.1382	65535	64635.95
859.8821	1106.099	65535	64634.25
860.027	1108.0591	65535	64635.8
860.172	1110.0185	65535	64634.85
860.3169	1111.9771	65535	64639.85
860.4619	1113.9351	65535	64638.75
860.6068	1115.8923	65535	64641.15
860.7517	1117.8488	65535	64637.7
860.8967	1119.8045	65535	64639.5
861.0416	1121.7596	65535	64636.7
861.1865	1123.7139	65535	64637.7
861.3314	1125.6675	65535	64638.05
861.4763	1127.6204	65535	64636.7
861.6212	1129.5726	65535	64634.25
861.7661	1131.524	65535	64637.15
861.911	1133.4748	65535	64637.45
862.0559	1135.4248	65535	64636.4
862.2008	1137.3741	65535	64637.5
862.3457	1139.3226	65535	64637.35
862.4905	1141.2705	65535	64636.1
862.6354	1143.2176	65535	64632.85
862.7803	1145.164	65535	64636.4
862.9251	1147.1097	65535	64637.85
863.07	1149.0546	65535	64636.65
863.2148	1150.9989	65535	64637.55
863.3597	1152.9424	65535	64635.55
863.5045	1154.8852	65535	64636.9
863.6493	1156.8272	65535	64637.9
863.7942	1158.7686	65535	64629.9
863.939	1160.7092	65535	64637.1
864.0838	1162.6491	65535	64634.7
864.2286	1164.5883	65535	64637.4
864.3734	1166.5267	65535	64636.35
864.5182	1168.4644	65535	64635.5
864.663	1170.4014	65535	64632.15
864.8078	1172.3377	65535	64639.45
864.9526	1174.2732	65535	64638.85
865.0974	1176.2081	65535	64638.15
865.2421	1178.1421	65535	64633.85
865.3869	1180.0755	65535	64638.1
865.5317	1182.0082	65535	64637.55
865.6764	1183.9401	65535	64638.75
865.8212	1185.8713	65535	64640.35
865.9659	1187.8017	65535	64639.75
866.1106	1189.7315	65535	64638.25
866.2554	1191.6605	65535	64610.5
866.4001	1193.5888	65535	64637.85
866.5448	1195.5163	65535	64639.45
866.6895	1197.4432	65535	64634.35
866.8342	1199.3693	65535	64639.5
866.9789	1201.2947	65535	64633.6
867.1236	1203.2193	65535	64638.95
867.2683	1205.1432	65535	64635.85
867.413	1207.0664	65535	64637.5
867.5576	1208.9889	65535	64632.8
867.7023	1210.9106	65535	64637
867.847	1212.8316	65535	64636.8
867.9916	1214.7519	65535	64629.3
868.1363	1216.6715	65535	64637.2
868.2809	1218.5903	65535	64638.9
868.4255	1220.5084	65535	64639.4
868.5701	1222.4257	65535	64636.05
868.7148	1224.3424	65535	64639.35
868.8594	1226.2583	65535	64629.2
869.004	1228.1735	65535	64635.2
869.1486	1230.0879	65535	64637.8
869.2932	1232.0016	65535	64636.35
869.4377	1233.9146	65535	64636.55
869.5823	1235.8269	65535	64636.25
869.7269	1237.7384	65535	64637.25
869.8715	1239.6492	65535	64636.35
870.016	1241.5592	65535	64637.45
870.1606	1243.4686	65535	64638.25
870.3051	1245.3772	65535	64637.7
870.4496	1247.285	65535	64636.55
870.5941	1249.1922	65535	64635
870.7387	1251.0986	65535	64638.35
870.8832	1253.0042	65535	64636.4
871.0277	1254.9092	65535	64635.9
871.1722	1256.8134	65535	64639.65
871.3167	1258.7169	65535	64635.85
871.4611	1260.6196	65535	64639.2
871.6056	1262.5216	65535	64636.65
871.7501	1264.4229	65535	64638.45
871.8945	1266.3234	65535	64635.25
872.039	1268.2232	65535	64635.9
872.1834	1270.1223	65535	64634.85
872.3278	1272.0207	65535	64636.75
872.4723	1273.9183	65535	64631.15
872.6167	1275.8151	65535	64638
872.7611	1277.7113	65535	64636.1
872.9055	1279.6067	65535	64636.15
873.0499	1281.5014	65535	64636.3
873.1943	1283.3953	65535	64637.2
873.3386	1285.2885	65535	64634.5
873.483	1287.181	65535	64636.3
873.6274	1289.0727	65535	64638.4
873.7717	1290.9637	65535	64638.85
873.9161	1292.854	65535	64638.25
874.0604	1294.7435	65535	64637.2
874.2047	1296.6323	65535	64636.95
874.349	1298.5204	65535	64633.1
874.4933	1300.4077	65535	64636.65
874.6376	1302.2943	65535	64637.2
874.7819	1304.1802	65535	64637.85
874.9262	1306.0653	65535	64637
875.0705	1307.9497	65535	64635.15
875.2147	1309.8333	65535	64641.55
875.359	1311.7162	65535	64636.55
875.5032	1313.5984	65535	64637.15
875.6475	1315.4798	65535	64629.4
875.7917	1317.3605	65535	64622.95
875.9359	1319.2405	65535	64634.45
876.0801	1321.1197	65535	64632.4
876.2243	1322.9982	65535	64633.95
876.3685	1324.876	65535	64638.4
876.5127	1326.753	65535	64636.85
876.6569	1328.6293	65535	64634.7
876.801	1330.5048	65535	64633.25
876.9452	1332.3796	65535	64635.6
877.0893	1334.2537	65535	64614.7
877.2335	1336.127	65535	64636.75
877.3776	1337.9996	65535	64635.95
877.5217	1339.8714	65535	64637.95
877.6658	1341.7426	65535	64593.9
877.8099	1343.6129	65535	64636
877.954	1345.4826	65535	64636.75
878.0981	1347.3515	65535	64632.4
878.2422	1349.2196	65535	64635.35
878.3862	1351.087	65535	64635.3
878.5303	1352.9537	65535	64635.2
878.6743	1354.8197	65535	64636.3
878.8184	1356.6849	65535	64637.75
878.9624	1358.5493	65535	64635.65
879.1064	1360.4131	65535	64639.95
879.2504	1362.276	65535	64637.7
879.3944	1364.1383	65535	64636.35
879.5384	1365.9998	65535	64631.45
879.6823	1367.8606	65535	64634.25
879.8263	1369.7206	65535	64636.3
879.9702	1371.5799	65535	64634.9
880.1142	1373.4384	65535	64636.4
880.2581	1375.2962	65535	64637.05
880.402	1377.1533	65535	64635.95
880.5459	1379.0096	65535	64637.85
880.6898	1380.8652	65535	64637.2
880.8337	1382.7201	65535	64637.4
880.9776	1384.5742	65535	64637.1
881.1215	1386.4275	65535	64636.55
881.2653	1388.2802	65535	64637.25
881.4092	1390.132	65535	64635.55
881.553	1391.9832	65535	64635.4
881.6968	1393.8336	65535	64637.2
881.8406	1395.6832	65535	64634.9
881.9844	1397.5322	65535	64637.05
882.1282	1399.3803	65535	64632.1
882.272	1401.2278	65535	64636.35
882.4158	1403.0745	65535	64638
882.5595	1404.9204	65535	64639.15
882.7033	1406.7656	65535	64633.95
882.847	1408.6101	65535	64635.7
882.9908	1410.4538	65535	64634.9
883.1345	1412.2968	65535	64636.5
883.2782	1414.139	65535	64638.2
883.4219	1415.9805	65535	64635.9
883.5656	1417.8213	65535	64631.35
883.7092	1419.6613	65535	64638.15
883.8529	1421.5006	65535	64636.45
883.9965	1423.3391	65535	64636.25
884.1402	1425.1769	65535	64635.55
884.2838	1427.0139	65535	64635.45
884.4274	1428.8502	65535	64636.55
884.571	1430.6858	65535	64636.85
884.7146	1432.5206	65535	64637.2
884.8582	1434.3547	65535	64635.95
885.0018	1436.188	65535	64638.95
885.1453	1438.0206	65535	64636.1
885.2889	1439.8524	65535	64636.95
885.4324	1441.6835	65535	64638.5
885.5759	1443.5139	65535	64633.1
885.7194	1445.3435	65535	64637.2
885.8629	1447.1724	65535	64638.25
886.0064	1449.0005	65535	64637.9
886.1499	1450.8279	65535	64635.75
886.2933	1452.6545	65535	64637.7
886.4368	1454.4804	65535	64638.3
886.5802	1456.3056	65535	64630.9
886.7237	1458.13	65535	64637.4
886.8671	1459.9536	65535	64636.75
887.0105	1461.7766	65535	64636.65
887.1539	1463.5987	65535	64636.3
887.2972	1465.4202	65535	64638.3
887.4406	1467.2409	65535	64636.7
887.584	1469.0608	65535	64636.35
887.7273	1470.88	65535	64636.05
887.8706	1472.6984	65535	64638.9
888.0139	1474.5161	65535	64634.2
888.1572	1476.3331	65535	64635.35
888.3005	1478.1493	65535	64636.5
888.4438	1479.9648	65535	64638.65
888.5871	1481.7795	65535	64636.75
888.7303	1483.5935	65535	64636.85
888.8736	1485.4067	65535	64637.7
889.0168	1487.2192	65535	64638.15
889.16	1489.031	65535	64635.3
889.3032	1490.842	65535	64637.15
889.4464	1492.6522	65535	64636.8
889.5896	1494.4618	65535	64635.8
889.7327	1496.2705	65535	64636.15
889.8759	1498.0785	65514.1	64614.85
890.019	1499.8858	65535	64635
890.1622	1501.6924	65535	64638.1
890.3053	1503.4981	65526.15	64627.3
890.4484	1505.3032	65535	64637.6
890.5914	1507.1075	65514.25	64616.1
890.7345	1508.911	65516.55	64618.7
890.8776	1510.7138	65510.85	64611.55
891.0206	1512.5159	65518.4	64620.7
891.1637	1514.3172	65358.8	64460.8
891.3067	1516.1178	65441.75	64547.4
891.4497	1517.9176	65499.3	64601
891.5927	1519.7166	65429.35	64533.25
891.7357	1521.515	65381.8	64477.05
891.8786	1523.3126	65203.2	64302.8
892.0216	1525.1094	65393.55	64494.65
892.1645	1526.9055	65271.05	64375.55
892.3074	1528.7008	65296.15	64397.6
892.4503	1530.4954	65075.75	64172.05
892.5932	1532.2893	65290	64392.45
892.7361	1534.0824	64999.8	64099.55
892.879	1535.8747	64832.2	63934.1
893.0218	1537.6663	65279.9	64384.1
893.1647	1539.4572	64245	63347.7
893.3075	1541.2473	64770.15	63873.35
893.4503	1543.0367	64648.45	63753.4
893.5931	1544.8253	64469.9	63569.8
893.7359	1546.6132	64611.1	63710.75
893.8787	1548.4003	64236.4	63330.45
894.0214	1550.1867	64086.1	63179.75
894.1642	1551.9723	63902.9	63000.2
894.3069	1553.7572	63979.85	63083.8
894.4496	1555.5414	64313.7	63419.05
894.5923	1557.3247	62646	61749.45
894.735	1559.1074	63956.4	63062.65
894.8777	1560.8893	63316.3	62420.55
895.0204	1562.6705	63630.2	62732.85
895.163	1564.4509	62614.15	61719.25
895.3056	1566.2305	63106.8	62212.45
895.4482	1568.0094	63725.15	62831.7
895.5908	1569.7876	63208.2	62313.4
895.7334	1571.565	62507.1	61610.7
895.876	1573.3417	62930.9	62034.8
896.0186	1575.1176	62687.15	61792
896.1611	1576.8928	62360.8	61466.25
896.3036	1578.6672	61726.55	60833.85
896.4461	1580.4409	62043.95	61149
896.5886	1582.2138	61177.1	60280.35
896.7311	1583.986	61358.5	60463.8
896.8736	1585.7575	60606.75	59711.75
897.0161	1587.5282	60703.9	59809.3
897.1585	1589.2981	60760.8	59866.35
897.3009	1591.0673	60046.3	59151.45
897.4433	1592.8358	59656.75	58762.25
897.5857	1594.6035	60036.8	59139.15
897.7281	1596.3704	60001.8	59107.4
897.8705	1598.1366	59254.65	58360
898.0128	1599.9021	58731.05	57835.95
898.1551	1601.6668	59275.45	58380.85
898.2975	1603.4308	58937.55	58041.65
898.4398	1605.194	59252.2	58352.75
898.5821	1606.9564	58094.7	57199.5
898.7243	1608.7182	58641.7	57744.65
898.8666	1610.4791	58144.3	57250.65
899.0088	1612.2394	58518.8	57624.1
899.1511	1613.9988	58152.2	57259.3
899.2933	1615.7576	58699.65	57807.3
899.4355	1617.5156	58663.8	57763
899.5776	1619.2728	59360.2	58465.55
899.7198	1621.0293	58361.4	57467.85
899.862	1622.785	58367.75	57467.3
900.0041	1624.54	58681.55	57785.05
900.1462	1626.2942	58177	57283.6
900.2883	1628.0477	57122.55	56225.25
900.4304	1629.8005	56640.15	55742.65
900.5725	1631.5525	56918.75	56024.1
900.7145	1633.3037	55984.95	55090.35
900.8566	1635.0542	55886.8	54994.45
900.9986	1636.804	55864.55	54969.4
901.1406	1638.553	55382.8	54368.6
901.2826	1640.3013	55302.55	54406.5
901.4245	1642.0488	54733.15	53840.3
901.5665	1643.7955	54945.45	54052.95
901.7085	1645.5416	54613.85	53719.8
901.8504	1647.2868	54420.45	53525.5
901.9923	1649.0313	54754.6	53858.05
902.1342	1650.7751	54494.1	53596.25
902.2761	1652.5181	54322.7	53427.75
902.4179	1654.2604	54365.25	53471.75
902.5598	1656.0019	54817.4	53924.2
902.7016	1657.7427	54703.75	53808.3
902.8434	1659.4828	55108.45	54214.55
902.9852	1661.222	54956.4	54061.5
903.127	1662.9606	55009.15	54115.55
903.2687	1664.6984	54624.35	53731.8
903.4105	1666.4354	54457.7	53562.95
903.5522	1668.1717	53616.85	52724.1
903.6939	1669.9072	52924.5	52031.4
903.8356	1671.642	52539.5	51644.35
903.9773	1673.3761	52139	51246.5
904.119	1675.1094	51766.1	50872.6
904.2606	1676.8419	51357.2	50464.15
904.4022	1678.5737	51052.45	50158.7
904.5439	1680.3048	50851.65	49955.5
904.6855	1682.0351	50552.45	49657.15
904.827	1683.7646	50243.6	49349.85
904.9686	1685.4934	50141.8	49248.05
905.1101	1687.2215	49675.35	48780.6
905.2517	1688.9488	49638	48744.55
905.3932	1690.6754	49054.15	48162.85
905.5347	1692.4012	49123.25	48228.95
905.6761	1694.1263	48956.8	48063.2
905.8176	1695.8506	48794.25	47898.95
905.9591	1697.5742	48563	47670.45
906.1005	1699.297	48348.95	47455.65
906.2419	1701.0191	48006.25	47112.8
906.3833	1702.7404	47889.15	46997.4
906.5246	1704.461	47629.55	46735.25
906.666	1706.1808	47513.2	46616.85
906.8073	1707.8999	47328.4	46434.25
906.9487	1709.6182	47137.8	46243.6
907.09	1711.3358	46977.95	46085.95
907.2313	1713.0527	46838.05	45946.9
907.3725	1714.7688	46627.5	45730.25
907.5138	1716.4841	46349.65	45454.25
907.655	1718.1987	46307.9	45407.25
907.7962	1719.9126	46130.35	45237.5
907.9374	1721.6257	45959.15	45063.15
908.0786	1723.338	45903.1	45009.55
908.2198	1725.0496	45609.55	44716.9
908.3609	1726.7605	45491.9	44597.55
908.502	1728.4706	45340.75	44445.4
908.6431	1730.18	44999	44102.2
908.7842	1731.8886	44933.1	44041.4
908.9253	1733.5964	44813.35	43899.2
909.0664	1735.3036	44667.75	43773.05
909.2074	1737.0099	44594.9	43702.4
909.3484	1738.7156	44474.9	43583.25
909.4894	1740.4204	44160.25	43264.75
909.6304	1742.1246	44107	43212
909.7714	1743.8279	43982.6	43091.05
909.9123	1745.5306	43898.95	43004.05
910.0532	1747.2325	43681.5	42788.8
910.1941	1748.9336	43587.3	42695.45
910.335	1750.634	43330.35	42435.3
910.4759	1752.3336	43264.7	42371.3
910.6168	1754.0325	43191.7	42300.3
910.7576	1755.7307	42989.3	42097.9
910.8984	1757.4281	42955.65	42064
911.0392	1759.1247	42832.2	41931.8
911.18	1760.8206	42676.2	41779.7
911.3208	1762.5158	42648.05	41750.75
911.4615	1764.2102	42451.5	41561.3
911.6022	1765.9039	42283.15	41390.25
911.7429	1767.5968	42198.65	41305.5
911.8836	1769.289	42049.3	41158.15
912.0243	1770.9804	41934.2	41040.85
912.1649	1772.6711	41910.65	41017.95
912.3056	1774.361	41684	40791.7
912.4462	1776.0502	41585.2	40691.8
912.5868	1777.7386	41445.4	40551.3
912.7274	1779.4263	41334.6	40443.8
912.8679	1781.1132	41299.55	40406.4
913.0084	1782.7994	41132.25	40239.4
913.149	1784.4849	41008.2	40115.2
913.2895	1786.1696	40889.5	39990.5
913.4299	1787.8535	40774.05	39882.5
913.5704	1789.5367	40634.2	39743.3
913.7108	1791.2192	40575.1	39683.15
913.8513	1792.9009	40368.85	39446.35
913.9917	1794.5818	40274.7	39379.45
914.132	1796.2621	40177.4	39285.45
914.2724	1797.9415	40021.95	39127
914.4128	1799.6202	39904	39013.45
914.5531	1801.2982	39844.45	38951.95
914.6934	1802.9755	39706.15	38813.75
914.8337	1804.6519	39605.2	38713.65
914.9739	1806.3277	39417.4	38525.35
915.1142	1808.0027	39289.5	38398.3
915.2544	1809.6769	39236.7	38342.7
915.3946	1811.3504	39080.4	38185.5
915.5348	1813.0231	39034.85	38141.55
915.675	1814.6951	38935.45	38042.65
915.8151	1816.3664	38948.55	38055.35
915.9553	1818.0369	38773.6	37880.05
916.0954	1819.7067	38596.15	37704.4
916.2355	1821.3757	38543.15	37646.75
916.3755	1823.044	38454.15	37561.65
916.5156	1824.7115	38333.8	37441.65
916.6556	1826.3783	38136.5	37246.45
916.7956	1828.0443	37997.5	37106.95
916.9356	1829.7096	37909.35	37017.1
917.0756	1831.3741	37849.4	36953.65
917.2155	1833.0379	37751.95	36859.85
917.3555	1834.701	37589	36695
917.4954	1836.3633	37544.8	36651.8
917.6353	1838.0248	37417.5	36523.15
917.7751	1839.6856	37333.7	36439.6
917.915	1841.3457	37295.4	36404.35
918.0548	1843.005	37191.6	36301.75
918.1946	1844.6636	37095.45	36204.25
918.3344	1846.3214	36920.05	36028.45
918.4742	1847.9785	36892.9	36001.65
918.6139	1849.6349	36748.55	35856.25
918.7537	1851.2904	36673.15	35771.65
918.8934	1852.9453	36550.15	35659.15
919.0331	1854.5994	36443.05	35548.75
919.1727	1856.2528	36420.25	35522.15
919.3124	1857.9054	36305.85	35414.6
919.452	1859.5572	36229.95	35338.85
919.5916	1861.2083	36125.9	35234.85
919.7312	1862.8587	36102.95	35210.05
919.8708	1864.5084	35955.75	35063.3
920.0103	1866.1572	35835	34945.9
920.1498	1867.8054	35678.75	34786.15
920.2893	1869.4528	35631.85	34738.35
920.4288	1871.0994	35447.75	34556.65
920.5683	1872.7453	35433.05	34539.45
920.7077	1874.3905	35361.9	34463.3
920.8471	1876.0349	35205.85	34314.6
920.9865	1877.6786	35221.7	34329.3
921.1259	1879.3215	35111.25	34218.95
921.2653	1880.9637	35009.55	34113.85
921.4046	1882.6051	34933.7	34040.45
921.5439	1884.2458	34838.85	33944.35
921.6832	1885.8858	34711.7	33818.45
921.8225	1887.525	34603.95	33711.55
921.9617	1889.1634	34443.7	33551.9
922.101	1890.8011	34338.75	33444.55
922.2402	1892.4381	34230.1	33338.75
922.3794	1894.0743	34164.8	33272.25
922.5185	1895.7098	34151.75	33257.55
922.6577	1897.3446	34004	33110.55
922.7968	1898.9786	33882.5	32988.35
922.9359	1900.6118	33833.1	32939.25
923.075	1902.2443	33616.1	32723.4
923.214	1903.8761	33499.3	32608.05
923.3531	1905.5071	33324.3	32431.1
923.4921	1907.1374	33201.5	32310.3
923.6311	1908.7669	33150.75	32257.8
923.77	1910.3957	33107.8	32215.35
923.909	1912.0237	32923.25	32032.55
924.0479	1913.651	32900.45	32008.9
924.1868	1915.2776	32750.2	31859.75
924.3257	1916.9034	32579.8	31690.4
924.4646	1918.5285	32428.75	31538.4
924.6034	1920.1528	32306.6	31412.35
924.7422	1921.7764	32242.25	31349.85
924.881	1923.3992	32105.75	31214.25
925.0198	1925.0213	31875.7	30985.4
925.1586	1926.6427	31724.85	30834.8
925.2973	1928.2633	31771.65	30774.3
925.436	1929.8832	31591.65	30697.7
925.5747	1931.5023	31396.65	30505
925.7134	1933.1207	31368.45	30477.1
925.852	1934.7383	31279.75	30389
925.9906	1936.3552	31087.7	30195.85
926.1292	1937.9714	31055.65	30163.15
926.2678	1939.5868	30858.1	29963.8
926.4064	1941.2015	30691.5	29798.95
926.5449	1942.8154	30588.4	29696.05
926.6834	1944.4286	30460.55	29568.55
926.8219	1946.041	30361.6	29452.95
926.9604	1947.6528	30144.55	29249.2
927.0988	1949.2637	30094.65	29204.75
927.2372	1950.8739	29990.35	29098.3
927.3756	1952.4834	29907.55	29016.4
927.514	1954.0921	29830.45	28938.7
927.6523	1955.7001	29708.55	28811.95
927.7907	1957.3074	29594.5	28704.4
927.929	1958.9139	29473.5	28583.1
928.0673	1960.5197	29398.9	28504.9
928.2055	1962.1247	29222.85	28332.2
928.3438	1963.729	29121.95	28231.6
928.482	1965.3325	29017	28103.45
928.6202	1966.9353	28877.65	27986.75
928.7584	1968.5374	28782.6	27890.85
928.8965	1970.1387	28686.35	27794.35
929.0346	1971.7393	28556.7	27664.05
929.1727	1973.3392	28529.15	27636.9
929.3108	1974.9383	28393.45	27502.5
929.4489	1976.5366	28249.55	27358.7
929.5869	1978.1342	28198.7	27304.4
929.7249	1979.7311	28102.55	27211.05
929.8629	1981.3273	28027.2	27134.1
930.0009	1982.9227	27946.1	27052.6
930.1388	1984.5173	27801.65	26911.05
930.2767	1986.1112	27734.8	26843.55
930.4146	1987.7044	27591.2	26700.8
930.5525	1989.2968	27497.6	26606.1
930.6904	1990.8885	27427.55	26534.3
930.8282	1992.4795	27392.7	26499.85
930.966	1994.0697	27224.95	26331.9
931.1038	1995.6592	27150.4	26257.7
931.2415	1997.2479	27080.15	26187.6
931.3793	1998.8359	27012.6	26121.2
931.517	2000.4232	26833.6	25942.55
931.6547	2002.0097	26776.15	25887.2
931.7923	2003.5955	26573.75	25682.55
931.93	2005.1805	26618.75	25726.35
932.0676	2006.7648	26544.75	25654.75
932.2052	2008.3484	26388.95	25497.1
932.3427	2009.9312	26410.35	25516.2
932.4803	2011.5133	26279.45	25388.5
932.6178	2013.0946	26170.45	25278.8
932.7553	2014.6752	26161.95	25272.25
932.8928	2016.2551	26031.1	25139.2
933.0302	2017.8342	25918.7	25028.1
933.1676	2019.4126	25847.05	24956.6
933.305	2020.9902	25727.3	24837.3
933.4424	2022.5672	25644	24751.55
933.5798	2024.1433	25607.05	24709.45
933.7171	2025.7188	25468.05	24579.2
933.8544	2027.2935	25379.7	24486.3
933.9917	2028.8674	25272.7	24382.05
934.129	2030.4406	25209.1	24320.3
934.2662	2032.0131	25072.1	24183.3
934.4034	2033.5849	25001.9	24102.8
934.5406	2035.1559	24935.4	24043.7
934.6778	2036.7261	24883.3	23991.25
934.8149	2038.2957	24811.9	23922.1
934.952	2039.8645	24767.5	23877.3
935.0891	2041.4325	24754.15	23861.35
935.2262	2042.9998	24600	23709.55
935.3632	2044.5664	24579.25	23685.8
935.5002	2046.1323	24424.75	23534
935.6372	2047.6974	24390.35	23497.85
935.7742	2049.2617	24280.7	23392.95
935.9111	2050.8254	24276.4	23362.55
936.048	2052.3883	24216.65	23323.8
936.1849	2053.9504	24134.25	23243.65
936.3218	2055.5118	24012.35	23120.6
936.4586	2057.0725	23907.35	23013.7
936.5955	2058.6325	23838.4	22947.6
936.7323	2060.1917	23783.8	22893.9
936.869	2061.7502	23715.15	22820.05
937.0058	2063.3079	23639.75	22749.65
937.1425	2064.8649	23507.55	22613.6
937.2792	2066.4212	23481.75	22589.6
937.4159	2067.9767	23403.4	22511.9
937.5525	2069.5315	23281.2	22391.5
937.6891	2071.0856	23190.35	22298.35
937.8257	2072.6389	23103.4	22210.85
937.9623	2074.1915	23008.2	22118.15
938.0989	2075.7433	22848.8	21956
938.2354	2077.2945	22824.85	21933.9
938.3719	2078.8448	22754.45	21863.15
938.5084	2080.3945	22655.25	21763.45
938.6448	2081.9434	22625.25	21733.4
938.7812	2083.4916	22543.75	21651.8
938.9176	2085.039	22462.95	21570.75
939.054	2086.5857	22377.6	21484.55
939.1903	2088.1317	22309.8	21418.4
939.3267	2089.677	22275.2	21382
939.463	2091.2215	22191.45	21300.7
939.5992	2092.7652	22145.3	21252
939.7355	2094.3083	22067.65	21175
939.8717	2095.8506	22016.35	21127.45
940.0079	2097.3921	21990.55	21101.1
940.1441	2098.933	21888.7	20997.9
940.2802	2100.4731	21814.6	20925.65
940.4163	2102.0124	21793.3	20895.2
940.5524	2103.5511	21730.95	20839.1
940.6885	2105.089	21664.8	20774.1
940.8245	2106.6261	21621.85	20730.95
940.9606	2108.1626	21523.85	20632.25
941.0965	2109.6983	21484.8	20565.15
941.2325	2111.2332	21428.5	20536.7
941.3684	2112.7675	21344.95	20454.35
941.5044	2114.301	21233.6	20342.4
941.6403	2115.8337	21258.9	20367
941.7761	2117.3657	21150.8	20261.3
941.912	2118.897	21123.65	20231.9
942.0478	2120.4276	21026.45	20128.5
942.1835	2121.9575	20944.55	20051.5
942.3193	2123.4866	20956.25	20050.35
942.455	2125.0149	20873.35	19978.75
942.5907	2126.5426	20750.15	19860.55
942.7264	2128.0695	20679.3	19783
942.8621	2129.5956	20622.8	19731.7
942.9977	2131.1211	20591.2	19694.25
943.1333	2132.6458	20551.3	19661.05
943.2689	2134.1698	20502.15	19610.4
943.4044	2135.693	20405.65	19511.5
943.54	2137.2155	20371.6	19477.15
943.6755	2138.7373	20321.7	19429.9
943.8109	2140.2584	20208.1	19316.95
943.9464	2141.7787	20145.95	19248.85
944.0818	2143.2983	20058.2	19168.1
944.2172	2144.8171	19938.15	19046.9
944.3526	2146.3353	19874.2	18981.7
944.4879	2147.8527	19837.95	18947.5
944.6232	2149.3693	19789.05	18898.45
944.7585	2150.8853	19727.95	18834.2
944.8938	2152.4005	19622.1	18731.8
945.029	2153.9149	19611.15	18717.4
945.1642	2155.4287	19521	18630.6
945.2994	2156.9417	19475.35	18582.9
945.4346	2158.454	19412.25	18519.5
945.5697	2159.9655	19333.1	18442.8
945.7048	2161.4764	19324.25	18432.55
945.8399	2162.9865	19247.3	18357.3
945.9749	2164.4958	19194.45	18302.7
946.1099	2166.0045	19084.2	18190.4
946.2449	2167.5124	19102.9	18211.25
946.3799	2169.0195	19017.8	18125.9
946.5148	2170.526	18965.4	18073.85
946.6498	2172.0317	18914.05	18019.9
946.7846	2173.5367	18868.75	17977
946.9195	2175.0409	18816.35	17927.35
947.0543	2176.5445	18752.1	17862
947.1891	2178.0473	18679.2	17787.05
947.3239	2179.5494	18615.65	17720.35
947.4587	2181.0507	18569.65	17676.65
947.5934	2182.5513	18487.35	17594.8
947.7281	2184.0512	18457.95	17565.45
947.8628	2185.5504	18378	17487
947.9974	2187.0488	18244.1	17351.4
948.132	2188.5465	18193.7	17302.85
948.2666	2190.0435	18131.7	17240.55
948.4012	2191.5397	18099.8	17209.9
948.5357	2193.0353	18066.05	17176.15
948.6702	2194.5301	17930.05	17036.55
948.8047	2196.0241	17905.15	17013.25
948.9392	2197.5175	17818.3	16928.3
949.0736	2199.0101	17733.15	16839
949.208	2200.502	17660.7	16769
949.3424	2201.9931	17567.85	16674.3
949.4767	2203.4835	17523.4	16631.35
949.611	2204.9733	17465.35	16568.65
949.7453	2206.4622	17422.15	16532.1
949.8796	2207.9505	17339.55	16445.1
950.0138	2209.438	17245	16357.1
950.148	2210.9248	17223.35	16330.35
950.2822	2212.4109	17153.5	16264.4
950.4164	2213.8962	17077.55	16185.5
950.5505	2215.3809	17047.95	16155.4
950.6846	2216.8648	17011.35	16119.6
950.8186	2218.3479	16957.7	16062.05
950.9527	2219.8304	16883.95	15988.95
951.0867	2221.3121	16771.7	15878.05
951.2207	2222.7931	16780.1	15887.85
951.3546	2224.2733	16700.4	15808.8
951.4886	2225.7529	16647.5	15756.75
951.6225	2227.2317	16570.85	15675.2
951.7563	2228.7098	16547.95	15657.35
951.8902	2230.1872	16442.4	15552.15
952.024	2231.6638	16410.3	15518.45
952.1578	2233.1397	16341.25	15443.6
952.2916	2234.6149	16317.65	15428.35
952.4253	2236.0894	16240.3	15347.15
952.559	2237.5632	16201.1	15299.3
952.6927	2239.0362	16125.65	15234.9
952.8263	2240.5085	16063.4	15172.05
952.9599	2241.9801	15982.55	15090.8
953.0935	2243.4509	15964.05	15073.1
953.2271	2244.921	15883.95	14991.15
953.3606	2246.3904	15813.05	14920.35
953.4941	2247.8591	15795.05	14904.7
953.6276	2249.3271	15742.35	14851.1
953.7611	2250.7943	15679.9	14787.85
953.8945	2252.2608	15621.95	14730.65
954.0279	2253.7266	15589.4	14700.2
954.1612	2255.1917	15530.95	14640
954.2946	2256.656	15458.4	14565.95
954.4279	2258.1197	15395.45	14503.55
954.5612	2259.5826	15365.15	14471.8
954.6944	2261.0447	15327.25	14433.35
954.8276	2262.5062	15256.85	14362.6
954.9608	2263.9669	15240.85	14347.45
955.094	2265.4269	15175.6	14285.05
955.2271	2266.8862	15122.3	14231.35
955.3602	2268.3448	15111.85	14220.95
955.4933	2269.8026	15059.45	14166.65
955.6264	2271.2598	14991.95	14098.7
955.7594	2272.7162	14948.25	14059.25
955.8924	2274.1719	14924.05	14031.75
956.0253	2275.6268	14865.3	13971.85
956.1583	2277.0811	14811.6	13918.5
956.2912	2278.5346	14761.5	13869.75
956.4241	2279.9874	14729.5	13836.1
956.5569	2281.4395	14702.1	13812.1
956.6897	2282.8908	14621.35	13725.7
956.8225	2284.3414	14589.5	13697.25
956.9553	2285.7914	14557.2	13666.75
957.088	2287.2406	14491.35	13599.25
957.2207	2288.689	14470.75	13577.5
957.3534	2290.1368	14423.8	13530.25
957.486	2291.5838	14378.05	13485.25
957.6186	2293.0302	14295.8	13403.35
957.7512	2294.4758	14224.55	13336.2
957.8838	2295.9206	14205.25	13310.5
958.0163	2297.3648	14191.15	13298.1
958.1488	2298.8082	14173.2	13280.6
958.2813	2300.251	14100.15	13209.35
958.4137	2301.693	14042.4	13148.8
958.5461	2303.1343	13998.2	13104.9
958.6785	2304.5748	13975	13080.75
958.8108	2306.0147	13914.4	13022.35
958.9432	2307.4538	13867.25	12971.9
959.0754	2308.8922	13824.45	12934.45
959.2077	2310.3299	13766.4	12876.3
959.3399	2311.7669	13715.2	12823.3
959.4721	2313.2031	13662.55	12772.1
959.6043	2314.6387	13616.8	12724.45
959.7365	2316.0735	13584.4	12691.15
959.8686	2317.5076	13549.55	12656
960.0006	2318.941	13507.25	12614.5
960.1327	2320.3737	13452.15	12562
960.2647	2321.8056	13406.75	12513.4
960.3967	2323.2369	13358.4	12465.35
960.5287	2324.6674	13332	12439.4
960.6606	2326.0972	13260.05	12366.35
960.7925	2327.5263	13236.3	12345.4
960.9244	2328.9547	13157.3	12264.05
961.0562	2330.3823	13157.8	12266.45
961.1881	2331.8092	13152.3	12256.45
961.3198	2333.2355	13055.65	12164.35
961.4516	2334.661	13053.4	12159.95
961.5833	2336.0858	12997.85	12104.75
961.715	2337.5098	12949.1	12056.1
961.8467	2338.9332	12919.35	12029.3
961.9783	2340.3558	12852.65	11958.2
962.1099	2341.7778	12824.55	11935.2
962.2415	2343.199	12761.05	11865.65
962.373	2344.6195	12720.3	11829.7
962.5045	2346.0393	12713.9	11820.75
962.636	2347.4583	12685.55	11793.8
962.7675	2348.8767	12644.6	11750.85
962.8989	2350.2943	12579.8	11687.65
963.0303	2351.7113	12568.25	11676.75
963.1617	2353.1275	12494.3	11603.2
963.293	2354.543	12486	11570.9
963.4243	2355.9578	12463.85	11571
963.5556	2357.3718	12370.15	11480.25
963.6868	2358.7852	12321.75	11427.65
963.818	2360.1978	12236.95	11344
963.9492	2361.6098	12238.05	11346.55
964.0803	2363.021	12187.25	11292.75
964.2114	2364.4315	12142.8	11251.55
964.3425	2365.8413	12104.7	11213.1
964.4736	2367.2504	12053.75	11162.95
964.6046	2368.6587	11974.05	11082.2
964.7356	2370.0664	11934	11043.25
964.8666	2371.4733	11911.9	11020.7
964.9975	2372.8795	11889.3	10997.75
965.1284	2374.285	11828.7	10936.2
965.2593	2375.6899	11740.05	10848.5
965.3901	2377.0939	11677.05	10785.75
965.5209	2378.4973	11657.9	10767.6
965.6517	2379.9	11655.15	10764.3
965.7825	2381.3019	11574.5	10682.9
965.9132	2382.7032	11548.3	10657.6
966.0439	2384.1037	11503.7	10614.5
966.1745	2385.5035	11483	10591.65
966.3051	2386.9027	11406.4	10515.75
966.4357	2388.3011	11391.9	10498.8
966.5663	2389.6987	11364.2	10473.35
966.6968	2391.0957	11302.7	10413.55
966.8273	2392.492	11262.4	10372.9
966.9578	2393.8876	11178.2	10288.6
967.0882	2395.2824	11158.75	10267.5
967.2186	2396.6765	11102.9	10212.7
967.349	2398.07	11059.05	10168.15
967.4793	2399.4627	11038.15	10146.15
967.6097	2400.8547	10986.7	10094.75
967.7399	2402.246	10963.25	10067.75
967.8702	2403.6366	10893.65	10002.05
968.0004	2405.0265	10857	9966.55
968.1306	2406.4156	10816.5	9921.35
968.2607	2407.8041	10763.35	9868.45
968.3909	2409.1918	10723.2	9829.05
968.521	2410.5789	10701.1	9810.2
968.651	2411.9652	10640.15	9747.3
968.781	2413.3508	10608.35	9718.05
968.911	2414.7358	10578.3	9688.6
969.041	2416.12	10533.4	9645.65
969.1709	2417.5035	10509.15	9620.2
969.3008	2418.8863	10448.3	9558
969.4307	2420.2684	10451.6	9559.3
969.5606	2421.6497	10336.7	9443.8
969.6904	2423.0304	10274.65	9383.55
969.8201	2424.4104	10305.7	9413.7
969.9499	2425.7896	10270.2	9373
970.0796	2427.1682	10217.2	9325.4
970.2093	2428.546	10227.35	9336.2
970.3389	2429.9232	10173.15	9280.4
970.4685	2431.2996	10157.05	9264.4
970.5981	2432.6753	10124.8	9232.05
970.7277	2434.0503	10078.6	9187.1
970.8572	2435.4246	10016.45	9124.75
970.9867	2436.7982	10003.3	9110.35
971.1161	2438.1711	9963.9	9074.4
971.2456	2439.5433	9925.75	9033.15
971.375	2440.9148	9866.7	8975.3
971.5043	2442.2856	9859.85	8969.1
971.6336	2443.6557	9823.95	8931.1
971.7629	2445.025	9790.3	8900.45
971.8922	2446.3937	9763.8	8873.7
972.0214	2447.7617	9734.75	8842.1
972.1506	2449.1289	9710.5	8817.75
972.2798	2450.4955	9672.2	8777.55
972.4089	2451.8613	9619.8	8729.15
972.538	2453.2265	9596.25	8704.45
972.6671	2454.5909	9586.55	8695.25
972.7961	2455.9546	9554.05	8662.7
972.9251	2457.3177	9536	8644.5
973.0541	2458.68	9488.25	8594.5
973.1831	2460.0416	9500.15	8608.9
973.312	2461.4025	9448.35	8555.15
973.4408	2462.7627	9457.1	8555.2
973.5697	2464.1222	9402.75	8512.85
973.6985	2465.4811	9392.4	8499.5
973.8273	2466.8392	9344.55	8452.5
973.956	2468.1966	9314.8	8421.75
974.0847	2469.5533	9294.15	8397.9
974.2134	2470.9093	9280.85	8388.1
974.3421	2472.2645	9245.6	8354.2
974.4707	2473.6191	9226.85	8337.85
974.5993	2474.973	9174	8283.05
974.7278	2476.3262	9140.75	8248.4
974.8563	2477.6787	9111.25	8222.9
974.9848	2479.0305	9041.15	8151.4
975.1132	2480.3816	9015.95	8122.75
975.2417	2481.7319	8983.4	8092.9
975.37	2483.0816	8971.05	8078.05
975.4984	2484.4306	8938.85	8044.9
975.6267	2485.7789	8904.85	8012.45
975.755	2487.1264	8845.05	7949.95
975.8833	2488.4733	8815.4	7923.6
976.0115	2489.8195	8782.45	7884.75
976.1397	2491.165	8755.55	7863.2
976.2678	2492.5097	8718.5	7823.9
976.3959	2493.8538	8699.65	7807.7
976.524	2495.1972	8648.35	7756.7
976.6521	2496.5398	8634.15	7740.1
976.7801	2497.8818	8615.15	7720.8
976.9081	2499.2231	8565.2	7674.05
977.036	2500.5637	8526.95	7633.55
977.164	2501.9035	8515.55	7623.3
977.2918	2503.2427	8487.75	7592.35
977.4197	2504.5812	8447.5	7557.25
977.5475	2505.919	8435.15	7541.3
977.6753	2507.256	8421.2	7529.5
977.8031	2508.5924	8360.75	7468.75
977.9308	2509.9281	8329	7431.65
978.0585	2511.2631	8298.9	7408.4
978.1861	2512.5974	8302.2	7411.45
978.3137	2513.9309	8275	7383.95
978.4413	2515.2638	8247.1	7324.5
978.5689	2516.596	8199.4	7306.9
978.6964	2517.9275	8150.4	7259.1
978.8239	2519.2583	8128.9	7238.85
978.9513	2520.5884	8082.5	7190
979.0788	2521.9178	8055.15	7163.35
979.2062	2523.2465	8047.6	7155.45
979.3335	2524.5745	8014	7123.4
979.4608	2525.9018	7975.65	7083.45
979.5881	2527.2284	7964.45	7074.8
979.7154	2528.5543	7955.5	7065.4
979.8426	2529.8796	7919.7	7028.8
979.9698	2531.2041	7892.05	7001.65
980.0969	2532.5279	7894.5	7003.15
980.224	2533.851	7876.15	6983.4
980.3511	2535.1735	7840.25	6949.85
980.4781	2536.4952	7814.4	6923.8
980.6052	2537.8163	7789.45	6898
980.7321	2539.1366	7753.8	6863.15
980.8591	2540.4562	7739.9	6845.9
980.986	2541.7752	7722.35	6832
981.1129	2543.0935	7715.55	6824.4
981.2397	2544.411	7689	6798.6
981.3665	2545.7279	7672.55	6780.95
981.4933	2547.0441	7651.45	6759
981.62	2548.3596	7659.35	6764.1
981.7467	2549.6744	7621.15	6729.75
981.8734	2550.9885	7591.8	6698.15
982.0001	2552.3019	7573.95	6682.5
982.1267	2553.6146	7544.45	6653.75
982.2532	2554.9266	7529.6	6636.25
982.3798	2556.2379	7492.45	6599.35
982.5063	2557.5485	7492.5	6602.6
982.6327	2558.8585	7477.45	6577.8
982.7592	2560.1677	7466.35	6571.6
982.8856	2561.4762	7453.55	6564.25
983.0119	2562.7841	7434.8	6539.7
983.1383	2564.0913	7389.1	6500.25
983.2646	2565.3977	7408	6517.85
983.3908	2566.7035	7372.95	6480.75
983.517	2568.0086	7326.5	6431.55
983.6432	2569.313	7351.55	6459
983.7694	2570.6167	7316.95	6422.1
983.8955	2571.9197	7285.8	6393.75
984.0216	2573.222	7274.45	6380.85
984.1476	2574.5236	7246.25	6354.5
984.2737	2575.8246	7238.3	6343.65
984.3996	2577.1248	7227.5	6331.8
984.5256	2578.4244	7212.1	6320.85
984.6515	2579.7232	7198.95	6308.15
984.7774	2581.0214	7193	6277.5
984.9032	2582.3189	7174.85	6282.9
985.029	2583.6157	7143.35	6247.25
985.1548	2584.9118	7127.9	6236.4
985.2806	2586.2072	7108.7	6218.25
985.4063	2587.5019	7078.45	6188.9
985.5319	2588.7959	7052.5	6160.3
985.6576	2590.0893	7054.5	6160.55
985.7832	2591.3819	7048.5	6156.4
985.9087	2592.6739	7012	6121.5
986.0343	2593.9652	7005.1	6112.45
986.1597	2595.2557	6971	6077.9
986.2852	2596.5456	6919.6	6025.05
986.4106	2597.8348	6932.3	6041.7
986.536	2599.1234	6895.35	6004.45
986.6614	2600.4112	6882.15	5989.85
986.7867	2601.6983	6844.45	5948.25
986.912	2602.9848	6853.4	5960.1
987.0372	2604.2705	6819.65	5922.1
987.1624	2605.5556	6801.45	5907.55
987.2876	2606.84	6781.6	5890.95
987.4128	2608.1237	6748.1	5856.85
987.5379	2609.4067	6718.55	5826.7
987.6629	2610.689	6688.05	5788.55
987.788	2611.9707	6690.2	5794.1
987.913	2613.2516	6665.15	5770.15
988.0379	2614.5319	6615.15	5723
988.1629	2615.8115	6591.5	5700.9
988.2878	2617.0903	6564.8	5672.8
988.4126	2618.3685	6545.9	5653.95
988.5375	2619.6461	6510.25	5618.4
988.6622	2620.9229	6504.3	5613.75
988.787	2622.199	6477.4	5584.3
988.9117	2623.4745	6476.9	5584.2
989.0364	2624.7493	6444.55	5553.2
989.161	2626.0234	6415.5	5523.6
989.2857	2627.2968	6405.4	5514.95
989.4102	2628.5695	6366.1	5472.9
989.5348	2629.8415	6350.05	5459.8
989.6593	2631.1128	6319.8	5426.75
989.7837	2632.3835	6290.6	5399.05
989.9082	2633.6535	6285.55	5394.1
990.0326	2634.9228	6261.8	5371.1
990.1569	2636.1914	6231.45	5340
990.2812	2637.4593	6217.15	5320.25
990.4055	2638.7265	6184.8	5293.05
990.5298	2639.9931	6170.95	5280.7
990.654	2641.259	6168.45	5274.7
990.7782	2642.5242	6172.4	5278.7
990.9023	2643.7887	6135.25	5242.35
991.0264	2645.0525	6098.75	5207.85
991.1505	2646.3156	6080.15	5186.4
991.2745	2647.5781	6075.35	5185.55
991.3985	2648.8398	6052.6	5162.9
991.5225	2650.1009	6040	5140.65
991.6464	2651.3613	5996.7	5105.25
991.7703	2652.6211	5984.95	5093.1
991.8942	2653.8801	5966.75	5074.05
992.018	2655.1385	5969.25	5077.05
992.1418	2656.3961	5960.25	5068.1
992.2655	2657.6531	5955.85	5064.95
992.3892	2658.9094	5928.65	5035.55
992.5129	2660.1651	5885.4	4993.4
992.6366	2661.42	5893.45	5002.25
992.7602	2662.6743	5867.25	4975.2
992.8837	2663.9279	5850.95	4959.3
993.0073	2665.1808	5824.4	4932.15
993.1307	2666.433	5818	4923.8
993.2542	2667.6846	5809.6	4919.9
993.3776	2668.9354	5785.5	4893
993.501	2670.1856	5765.35	4874.15
993.6244	2671.4351	5770.3	4878.7
993.7477	2672.6839	5757.55	4865.95
993.8709	2673.9321	5729	4837.15
993.9942	2675.1795	5727.3	4835.4
994.1174	2676.4263	5698.4	4805.95
994.2405	2677.6724	5697.3	4807.2
994.3637	2678.9179	5676.65	4782.3
994.4868	2680.1626	5659.45	4767.95
994.6098	2681.4067	5649.2	4757.1
994.7328	2682.6501	5629.85	4739.2
994.8558	2683.8928	5608.65	4717.1
994.9788	2685.1348	5593.55	4704.4
995.1017	2686.3761	5544.5	4652.15
995.2245	2687.6168	5548.85	4656.65
995.3474	2688.8568	5524.4	4632.2
995.4702	2690.0961	5502.8	4612.25
995.5929	2691.3348	5489.9	4598.15
995.7156	2692.5727	5482.05	4589.95
995.8383	2693.81	5452.7	4562.8
995.961	2695.0466	5438.45	4548.45
996.0836	2696.2826	5424.6	4533.4
996.2062	2697.5178	5433.3	4539.55
996.3287	2698.7524	5384.4	4492.3
996.4512	2699.9863	5391.25	4496.55
996.5737	2701.2195	5362.1	4471.6
996.6961	2702.452	5348	4453.1
996.8185	2703.6839	5349.85	4456.6
996.9408	2704.9151	5325.55	4433.85
997.0631	2706.1456	5305.55	4413.15
997.1854	2707.3755	5322.45	4431.4
997.3077	2708.6046	5291.8	4398.3
997.4299	2709.8331	5269.7	4377.35
997.552	2711.0609	5259.85	4369.65
997.6742	2712.2881	5273.5	4383.3
997.7963	2713.5145	5260.6	4365.35
997.9183	2714.7403	5236.8	4345.5
998.0403	2715.9654	5218.1	4325.8
998.1623	2717.1899	5230.7	4323.35
998.2842	2718.4136	5226.85	4335.3
998.4062	2719.6367	5192.85	4300.55
998.528	2720.8591	5203.2	4305.45
998.6498	2722.0809	5202.8	4311
998.7716	2723.3019	5197	4301.35
998.8934	2724.5223	5188.35	4294.15
999.0151	2725.7421	5183.95	4292.05
999.1368	2726.9611	5158.45	4264.45
999.2584	2728.1795	5148.3	4251.15
999.38	2729.3972	5122.3	4231.25
999.5016	2730.6142	5082.45	4187.6
999.6231	2731.8306	5053.3	4160.85
999.7446	2733.0462	5035.05	4142.35
999.8661	2734.2612	5002.45	4106.95
999.9875	2735.4756	4981.6	4087.8
1000.1089	2736.6892	4945.45	4052.7
1000.2302	2737.9022	4897.65	4006.4
1000.3515	2739.1145	4877.5	3985.55
1000.4728	2740.3262	4845.7	3947.25
1000.594	2741.5372	4826.3	3934.8
1000.7152	2742.7475	4794.55	3902.8
1000.8363	2743.9571	4778.2	3883.8
1000.9575	2745.1661	4781.65	3885.7
1001.0785	2746.3744	4738.15	3846.4
1001.1996	2747.582	4714.15	3823.15
1001.3206	2748.7889	4704.7	3811.05
1001.4415	2749.9952	4679.9	3789.6
1001.5625	2751.2008	4656.9	3763.15
1001.6833	2752.4057	4634.15	3739.7
1001.8042	2753.61	4616.75	3724.55
1001.925	2754.8136	4613.1	3717.9
1002.0458	2756.0165	4579.65	3689.6
1002.1665	2757.2188	4571.5	3680.7
1002.2872	2758.4204	4559.25	3668.95
1002.4078	2759.6213	4552.85	3660.45
1002.5285	2760.8215	4524.7	3629.15
1002.649	2762.0211	4540.8	3647.6
1002.7696	2763.22	4505.35	3610.75
1002.8901	2764.4182	4499.5	3604.1
1003.0106	2765.6158	4470.85	3578.2
1003.131	2766.8127	4457.1	3564.9
1003.2514	2768.009	4463.45	3573.8
1003.3717	2769.2045	4448.95	3557.85
1003.492	2770.3994	4422.4	3529.05
1003.6123	2771.5936	4413.15	3519.65
1003.7325	2772.7872	4401.15	3511.2
1003.8527	2773.9801	4378.15	3484.45
1003.9729	2775.1723	4385.7	3476.15
1004.093	2776.3639	4347.4	3456.1
1004.2131	2777.5548	4336.1	3441.6
1004.3331	2778.745	4324.55	3430.5
1004.4531	2779.9346	4314.7	3424.6
1004.5731	2781.1235	4309.2	3416.4
1004.693	2782.3117	4297.6	3406.2
1004.8129	2783.4992	4277	3387.05
1004.9328	2784.6861	4274.9	3382.15
1005.0526	2785.8723	4289.95	3395.75
1005.1723	2787.0579	4281.45	3389.25
1005.2921	2788.2428	4266.35	3376.4
1005.4118	2789.427	4252.2	3362.55
1005.5314	2790.6106	4254.25	3363.1
1005.651	2791.7935	4247.25	3353.55
1005.7706	2792.9757	4230.45	3338.1
1005.8902	2794.1573	4237.05	3343.65
1006.0097	2795.3382	4256.85	3366.1
1006.1291	2796.5184	4251.75	3362.85
1006.2485	2797.698	4244.45	3351.95
1006.3679	2798.8769	4252.3	3362.3
1006.4873	2800.0551	4275.45	3382.7
1006.6066	2801.2327	4268.75	3375.55
1006.7258	2802.4096	4272.05	3381.7
1006.8451	2803.5859	4276.05	3382.6
1006.9642	2804.7615	4302.45	3410.5
1007.0834	2805.9364	4279.9	3387.7
1007.2025	2807.1106	4301.4	3410.2
1007.3216	2808.2842	4320.1	3428.1
1007.4406	2809.4572	4346.4	3452.95
1007.5596	2810.6294	4382.55	3489.55
1007.6785	2811.801	4414.6	3523.9
1007.7975	2812.972	4442.85	3553.05
1007.9163	2814.1423	4469	3577.7
1008.0352	2815.3119	4514.2	3621.15
1008.154	2816.4808	4548.45	3657.9
1008.2727	2817.6491	4587.25	3695.6
1008.3914	2818.8167	4628.35	3737.55
1008.5101	2819.9837	4662.1	3766.1
1008.6288	2821.15	4676.1	3784.65
1008.7474	2822.3157	4737.05	3846
1008.8659	2823.4807	4753.85	3862.75
1008.9844	2824.645	4811.3	3918.8
1009.1029	2825.8086	4824.05	3932.85
1009.2214	2826.9716	4854.1	3963.75
1009.3398	2828.134	4887.8	3996.35
1009.4581	2829.2957	4930.05	4038.8
1009.5764	2830.4567	4933.5	4043.8
1009.6947	2831.617	4956.15	4063.55
1009.813	2832.7767	4964.15	4072.8
1009.9312	2833.9358	4962.4	4071.55
1010.0493	2835.0941	4942.7	4050.65
1010.1675	2836.2519	4927.15	4033.05
1010.2855	2837.4089	4903.3	4010.65
1010.4036	2838.5653	4885.25	3993.65
1010.5216	2839.7211	4862.75	3973.75
1010.6396	2840.8761	4879.05	3988.2
1010.7575	2842.0306	4895.5	4004.8
1010.8754	2843.1843	4932.3	4040.95
1010.9932	2844.3374	4967.4	4074.75
1011.111	2845.4899	5010.95	4117.75
1011.2288	2846.6417	5092.55	4203
1011.3465	2847.7928	5155.1	4265.8
1011.4642	2848.9433	5231.45	4340.7
1011.5818	2850.0931	5294.05	4403.7
1011.6995	2851.2422	5360.6	4468.4
1011.817	2852.3907	5450.75	4558.8
1011.9345	2853.5385	5477.05	4584.25
1012.052	2854.6857	5553.5	4637.25
1012.1695	2855.8323	5579.1	4688.95
1012.2869	2856.9781	5623	4730.75
1012.4042	2858.1233	5663.65	4773
1012.5216	2859.2679	5701.55	4810.8
1012.6389	2860.4118	5725.75	4833
1012.7561	2861.555	5745.9	4848.65
1012.8733	2862.6976	5790.9	4897.25
1012.9905	2863.8395	5794.7	4902.85
1013.1076	2864.9808	5825.95	4935.35
1013.2247	2866.1214	5818.7	4929.45
1013.3417	2867.2614	5822.2	4931.45
1013.4587	2868.4007	5803.5	4910.85
1013.5757	2869.5393	5830.9	4937.5
1013.6926	2870.6773	5851.45	4956.75
1013.8095	2871.8146	5851.85	4956.05
1013.9263	2872.9513	5829.7	4936.85
1014.0431	2874.0874	5809.4	4917.35
1014.1599	2875.2227	5784.85	4893.55
1014.2766	2876.3574	5771.35	4880.05
1014.3933	2877.4915	5735.85	4846.45
1014.51	2878.6249	5698	4808.05
1014.6266	2879.7577	5673.3	4781.25
1014.7431	2880.8898	5641.85	4738.85
1014.8596	2882.0212	5602.4	4710.65
1014.9761	2883.152	5594.1	4702.25
1015.0925	2884.2821	5574.15	4684.5
1015.2089	2885.4116	5548.9	4657.85
1015.3253	2886.5405	5536.65	4645.55
1015.4416	2887.6686	5540.05	4645.2
1015.5579	2888.7962	5522.6	4633.95
1015.6741	2889.923	5536.55	4646.6
1015.7903	2891.0493	5541.8	4652.9
1015.9065	2892.1748	5539.95	4649.9
1016.0226	2893.2997	5546.95	4653.55
1016.1387	2894.424	5539.6	4648.9
1016.2547	2895.5476	5537.5	4646.05
1016.3707	2896.6706	5574.35	4684.45
1016.4866	2897.7929	5593.7	4700.95
1016.6025	2898.9145	5607.7	4714.95
1016.7184	2900.0355	5610.65	4717.65
1016.8342	2901.1559	5660.5	4767.55
1016.95	2902.2756	5685.85	4797.05
1017.0658	2903.3946	5709.5	4820.75
1017.1815	2904.513	5724.05	4830.5
1017.2971	2905.6308	5733.3	4842.1
1017.4127	2906.7479	5764	4872
1017.5283	2907.8643	5768.6	4878.55
1017.6439	2908.9801	5770.7	4881.2
1017.7594	2910.0953	5779.75	4888.6
1017.8748	2911.2098	5761.6	4866.05
1017.9902	2912.3236	5756.7	4859.55
1018.1056	2913.4368	5728.3	4834.85
1018.2209	2914.5494	5717.3	4826.75
1018.3362	2915.6613	5671.45	4775.55
1018.4515	2916.7725	5630.05	4736.65
1018.5667	2917.8831	5611.55	4718.15
1018.6819	2918.9931	5563.2	4671.7
1018.797	2920.1024	5527.35	4636.4
1018.9121	2921.211	5502.65	4610.9
1019.0271	2922.319	5478.9	4587.35
1019.1421	2923.4264	5458	4566.85
1019.2571	2924.5331	5427.45	4537.05
1019.372	2925.6391	5400.65	4510.25
1019.4869	2926.7445	5389.3	4500.7
1019.6017	2927.8493	5377.2	4483.8
1019.7165	2928.9534	5369.05	4478.85
1019.8313	2930.0569	5355.5	4461.7
1019.946	2931.1597	5332.35	4440.4
1020.0606	2932.2619	5318.95	4427.5
1020.1753	2933.3634	5306.4	4415.45
1020.2899	2934.4643	5292.6	4395.35
1020.4044	2935.5645	5264.65	4368
1020.5189	2936.6641	5228.85	4333.1
1020.6334	2937.763	5168.3	4276.4
1020.7478	2938.8613	5092.9	4202.8
1020.8622	2939.959	5047.65	4153.15
1020.9765	2941.056	4954.3	4063.9
1021.0908	2942.1523	4873.95	3982.85
1021.2051	2943.248	4769.85	3878.75
1021.3193	2944.3431	4671.6	3781.2
1021.4334	2945.4375	4555.5	3665.05
1021.5476	2946.5313	4448.9	3559.3
1021.6617	2947.6244	4338.3	3447.55
1021.7757	2948.7169	4220.95	3329.65
1021.8897	2949.8087	4135.25	3245.25
1022.0037	2950.8999	4029.4	3137.3
1022.1176	2951.9904	3953.4	3062.65
1022.2315	2953.0803	3862.5	2969.85
1022.3453	2954.1696	3794.3	2903.7
1022.4591	2955.2582	3737.35	2845.45
1022.5728	2956.3462	3670.7	2779.25
1022.6865	2957.4335	3630.2	2740.35
1022.8002	2958.5202	3581.45	2690.1
1022.9138	2959.6062	3553.4	2663.1
1023.0274	2960.6916	3538.15	2647.2
1023.141	2961.7764	3499.5	2609.9
1023.2545	2962.8605	3465.75	2573.25
1023.3679	2963.9439	3462.9	2574.25
1023.4813	2965.0267	3435.1	2542.6
1023.5947	2966.1089	3436.45	2521.95
1023.708	2967.1905	3412.6	2520.95
1023.8213	2968.2714	3386.2	2496.7
1023.9346	2969.3516	3382.25	2491.35
1024.0478	2970.4312	3378	2481
1024.1609	2971.5102	3363	2472.4
1024.274	2972.5885	3372.25	2480.55
1024.3871	2973.6662	3361.85	2466.25
1024.5002	2974.7432	3353.9	2464.3
1024.6132	2975.8196	3340.6	2449.65
1024.7261	2976.8954	3322.95	2432.95
1024.839	2977.9705	3306.45	2416.8
1024.9519	2979.045	3290.05	2399.65
1025.0647	2980.1188	3264.35	2374.1
1025.1775	2981.192	3235.5	2346.15
1025.2902	2982.2645	3213.8	2322.3
1025.4029	2983.3364	3178.55	2286.6
1025.5156	2984.4077	3142.6	2253
1025.6282	2985.4783	3130.55	2234.75
1025.7407	2986.5483	3076.85	2186.05
1025.8532	2987.6177	3030.5	2140.6
1025.9657	2988.6864	2996.6	2106.35
1026.0782	2989.7545	2965.45	2075.4
1026.1906	2990.8219	2925.8	2034.6
1026.3029	2991.8887	2898.65	2005.75
1026.4152	2992.9548	2855	1963.95
1026.5275	2994.0204	2809.5	1919.35
1026.6397	2995.0852	2769.55	1881.2
1026.7519	2996.1495	2759.2	1867.2
1026.864	2997.2131	2722.8	1831.65
1026.9761	2998.276	2701.2	1811.3
1027.0882	2999.3383	2667.35	1775.15
1027.2002	3000.4	2643.3	1752.85
1027.3122	3001.4611	2620.8	1729.95
1027.4241	3002.5215	2611.5	1722.05
1027.536	3003.5812	2581.7	1691.6
1027.6478	3004.6404	2577.15	1687.05
1027.7596	3005.6989	2569.45	1676.7
1027.8714	3006.7567	2550.5	1661.4
1027.9831	3007.8139	2561.25	1646.25
1028.0947	3008.8705	2520.85	1632.1
1028.2064	3009.9264	2523.3	1625.6
1028.3179	3010.9818	2504	1611.75
1028.4295	3012.0364	2499.85	1607.5
1028.541	3013.0905	2494.95	1605.55
1028.6524	3014.1439	2484.05	1593.45
1028.7638	3015.1966	2472.55	1582.85
1028.8752	3016.2487	2476.7	1585.15
1028.9865	3017.3002	2460.85	1563.7
1029.0978	3018.3511	2455.45	1563.3
1029.209	3019.4013	2465.4	1573.9
1029.3202	3020.4509	2448.75	1558.25
1029.4314	3021.4998	2448.4	1558.3
1029.5425	3022.5481	2441.95	1550.65
1029.6535	3023.5958	2431.6	1540.9
1029.7645	3024.6428	2433.2	1540.45
1029.8755	3025.6892	2427.95	1537.75
1029.9864	3026.735	2429.05	1539.9
1030.0973	3027.7802	2424.7	1533.1
1030.2082	3028.8247	2417.7	1526.35
1030.319	3029.8685	2425.6	1533.25
1030.4297	3030.9118	2423.55	1533.1
1030.5404	3031.9544	2417.8	1527.9
1030.6511	3032.9963	2406.5	1516.15
1030.7617	3034.0376	2431.4	1543.05
1030.8723	3035.0783	2419.95	1528.85
1030.9829	3036.1184	2419.8	1528.95
1031.0934	3037.1578	2411.55	1523.25
1031.2038	3038.1966	2408.3	1516.9
1031.3142	3039.2348	2408.05	1519.6
1031.4246	3040.2723	2421.35	1522.85
1031.5349	3041.3092	2403.75	1514.8
1031.6452	3042.3455	2396.05	1504.6
1031.7554	3043.3811	2390.45	1499.45
1031.8656	3044.4161	2371.35	1479.55
1031.9758	3045.4505	2363.95	1474.6
1032.0859	3046.4842	2357.6	1467.05
1032.1959	3047.5173	2341.15	1452.45
1032.3059	3048.5498	2329.85	1436.8
1032.4159	3049.5816	2324.95	1435.7
1032.5258	3050.6128	2311.25	1419.25
1032.6357	3051.6434	2301.4	1407.4
1032.7455	3052.6734	2305.85	1413.85
1032.8553	3053.7027	2291.95	1399.65
1032.9651	3054.7314	2271.6	1382
1033.0748	3055.7594	2257.2	1368.7
1033.1845	3056.7868	2251.2	1360.75
1033.2941	3057.8136	2242.85	1355.1
1033.4037	3058.8398	2234	1344.3
1033.5132	3059.8653	2228.15	1337.3
1033.6227	3060.8902	2212.25	1322
1033.7321	3061.9145	2202.15	1312.05
1033.8415	3062.9381	2194.2	1302.95
1033.9509	3063.9612	2203.7	1299.7
1034.0602	3064.9835	2186.75	1295.35
1034.1694	3066.0053	2172.35	1279.5
1034.2787	3067.0264	2165.4	1276.65
1034.3878	3068.0469	2152.9	1262
1034.497	3069.0668	2138.05	1245.65
1034.6061	3070.086	2125.55	1237.65
1034.7151	3071.1046	2105.85	1214.35
1034.8241	3072.1226	2102.05	1211.8
1034.9331	3073.1399	2084.5	1193.15
1035.042	3074.1567	2066.05	1174.95
1035.1508	3075.1727	2067	1175.35
1035.2597	3076.1882	2046.5	1156.55
1035.3684	3077.203	2042.4	1150.2
1035.4772	3078.2173	2034.75	1142
1035.5859	3079.2308	2015.9	1122.9
1035.6945	3080.2438	2010.8	1117.75
1035.8031	3081.2561	1992.35	1101.8
1035.9117	3082.2678	1985.1	1094.35
1036.0202	3083.2789	1981.65	1091.2
1036.1286	3084.2893	1968	1078.6
1036.2371	3085.2991	1950.7	1061.3
1036.3454	3086.3083	1954.6	1059.7
1036.4538	3087.3169	1941.55	1049.1
1036.562	3088.3248	1928.2	1036.75
1036.6703	3089.3321	1911	1017.9
1036.7785	3090.3388	1904.95	1016.15
1036.8866	3091.3449	1899.25	1009.55
1036.9948	3092.3503	1890.55	998.05
1037.1028	3093.3551	1886.15	997.3
1037.2108	3094.3593	1875.2	985.75
1037.3188	3095.3629	1871.85	981.8
1037.4267	3096.3658	1866.4	975.75
1037.5346	3097.3681	1851.65	960.45
1037.6425	3098.3698	1853.1	959.6
1037.7503	3099.3708	1837.1	939.95
1037.858	3100.3713	1831.35	942.2
1037.9657	3101.3711	1840.1	949.1
1038.0734	3102.3702	1929.65	926.5
1038.181	3103.3688	1836.9	944.5
1038.2886	3104.3667	1816.5	928.2
1038.3961	3105.364	1803.9	915.1
1038.5036	3106.3607	1801.65	910.25
1038.611	3107.3568	1800	908.05
1038.7184	3108.3522	1788.35	898.1
1038.8257	3109.347	1783.7	893.95
1038.933	3110.3412	1795.05	901.15
1039.0403	3111.3348	1770.6	881.3
1039.1475	3112.3277	1766.15	875.5
1039.2547	3113.32	1759.05	870.2
1039.3618	3114.3117	1764.45	873.95
1039.4689	3115.3028	1749.35	860.55
1039.5759	3116.2932	1745.35	852.75
1039.6829	3117.2831	1750.6	853.5
1039.7898	3118.2723	1740.7	849.65
1039.8967	3119.2608	1731.95	841.25
1040.0035	3120.2488	1733.8	843.8
1040.1103	3121.2361	1728.05	837.5
1040.2171	3122.2229	1727.7	838.1
1040.3238	3123.209	1715.25	824.85
1040.4305	3124.1944	1705.65	816
1040.5371	3125.1793	1712.85	821.9
1040.6437	3126.1635	1704.4	814.6
1040.7502	3127.1471	1702.5	810.55
1040.8567	3128.1301	1685.15	794.45
1040.9631	3129.1125	1687.05	797.05
1041.0695	3130.0942	1689.25	799.8
1041.1759	3131.0753	1691.4	792.8
1041.2822	3132.0558	1679.15	787.15
1041.3884	3133.0357	1671.15	777.9
1041.4946	3134.015	1665.9	775.65
1041.6008	3134.9936	1668.1	775.6
1041.7069	3135.9716	1676.6	765.05
1041.813	3136.949	1651.2	761.45
1041.919	3137.9258	1659.85	764.25
1042.025	3138.902	1659.6	763.1
1042.1309	3139.8775	1645.7	756.15
1042.2368	3140.8524	1644.2	754.95
1042.3427	3141.8267	1642.45	749.3
1042.4485	3142.8004	1631.65	739.5
1042.5542	3143.7735	1640.6	745.6
1042.6599	3144.7459	1624	732.7
1042.7656	3145.7178	1623.05	732.3
1042.8712	3146.689	1621.85	733.95
1042.9768	3147.6596	1619.95	729.9
1043.0823	3148.6295	1613.5	723.65
1043.1878	3149.5989	1609	718.5
1043.2932	3150.5676	1605.1	717.5
1043.3986	3151.5357	1598.8	711.45
1043.5039	3152.5032	1596	705.1
1043.6092	3153.4701	1592.7	703.95
1043.7145	3154.4364	1586.95	692.35
1043.8197	3155.402	1578	688.15
1043.9248	3156.367	1579.8	686.7
1044.03	3157.3315	1613.1	682.35
1044.135	3158.2952	1576.2	685.95
1044.24	3159.2584	1563.6	674.15
1044.345	3160.221	1560.65	670.8
1044.4499	3161.1829	1553.65	663
1044.5548	3162.1442	1554.9	665
1044.6596	3163.105	1543.65	654.15
1044.7644	3164.065	1540.2	649.25
1044.8692	3165.0245	1537.25	644.45
1044.9739	3165.9834	1545.45	657.1
1045.0785	3166.9416	1539.3	649.8
1045.1831	3167.8993	1531.45	641
1045.2877	3168.8563	1530.5	640.45
1045.3922	3169.8127	1525.45	634.4
1045.4966	3170.7684	1530.2	638.9
1045.6011	3171.7236	1516.9	625.65
1045.7054	3172.6782	1510.05	620.45
1045.8098	3173.6321	1505	614.4
1045.914	3174.5854	1510.2	615.1
1046.0183	3175.5381	1503.55	613.45
1046.1224	3176.4902	1500.35	611.45
1046.2266	3177.4417	1494.55	605.3
1046.3307	3178.3926	1495.25	604.85
1046.4347	3179.3428	1491.4	602.6
1046.5387	3180.2924	1481.65	593.3
1046.6427	3181.2415	1476.15	585.65
1046.7466	3182.1899	1482.85	589.75
1046.8504	3183.1377	1479.75	591.05
1046.9542	3184.0848	1477.85	584.8
1047.058	3185.0314	1467.1	576.35
1047.1617	3185.9773	1470.25	579.45
1047.2654	3186.9227	1460.9	570.55
1047.369	3187.8674	1455.4	567.35
1047.4726	3188.8115	1453.05	557.35
1047.5761	3189.755	1448.4	558.45
1047.6796	3190.6979	1447.5	558.45
1047.783	3191.6402	1446.65	558.9
1047.8864	3192.5818	1444.7	556.55
1047.9898	3193.5229	1471.4	557.55
1048.0931	3194.4633	1446.15	556.6
1048.1963	3195.4031	1432.5	542.35
1048.2995	3196.3423	1435.75	546.05
1048.4027	3197.2809	1432.6	544.1
1048.5058	3198.2189	1431	540.8
1048.6089	3199.1563	1445.6	541.15
1048.7119	3200.0931	1428.1	539.4
1048.8148	3201.0292	1421.45	532.55
1048.9178	3201.9648	1418.85	528.2
1049.0206	3202.8997	1418.55	523.55
1049.1235	3203.834	1418	527.25
1049.2262	3204.7677	1416.3	526.75
1049.329	3205.7008	1408.4	517.9
1049.4317	3206.6333	1404.95	516.4
1049.5343	3207.5652	1403.8	511.8
1049.6369	3208.4964	1400.95	512.25
1049.7394	3209.4271	1402.6	514.5
1049.8419	3210.3571	1399.25	510.55
1049.9444	3211.2865	1398.85	507.75
1050.0468	3212.2154	1390.8	499.5
1050.1491	3213.1436	1390.5	497.85
1050.2514	3214.0712	1391.75	497.45
1050.3537	3214.9982	1380.25	489.6
1050.4559	3215.9246	1374.35	483.05
1050.5581	3216.8503	1384.5	495.15
1050.6602	3217.7755	1373.8	482.6
1050.7623	3218.7001	1377.35	488.75
1050.8643	3219.624	1364.9	475.1
1050.9663	3220.5473	1369.3	478.4
1051.0682	3221.4701	1365.25	474.8
1051.1701	3222.3922	1366.5	474.6
1051.2719	3223.3137	1363.6	473.8
1051.3737	3224.2346	1358.2	467.55
1051.4754	3225.1549	1360.2	469.7
1051.5771	3226.0746	1354.8	464.4
1051.6788	3226.9937	1352.05	463
1051.7804	3227.9121	1348.35	459.95
1051.8819	3228.83	1346.3	457.55
1051.9834	3229.7473	1350.35	460.85
1052.0849	3230.6639	1345.75	454.35
1052.1863	3231.5799	1337.4	447.35
1052.2876	3232.4954	1330.2	439
1052.3889	3233.4102	1332.2	441.85
1052.4902	3234.3244	1334.9	445.65
1052.5914	3235.238	1327.3	436.4
1052.6926	3236.151	1351.05	437.55
1052.7937	3237.0634	1326.4	437.3
1052.8948	3237.9752	1316.75	429.65
1052.9958	3238.8864	1313.85	424.95
1053.0968	3239.797	1314.25	425.75
1053.1977	3240.7069	1315.1	423.9
1053.2986	3241.6163	1309.9	418.8
1053.3994	3242.5251	1304.05	415.15
1053.5002	3243.4332	1309.5	421.25
1053.6009	3244.3408	1303.55	412.25
1053.7016	3245.2477	1296.3	407.55
1053.8022	3246.154	1298.6	406.4
1053.9028	3247.0598	1299.45	408.35
1054.0034	3247.9649	1295.5	407
1054.1039	3248.8694	1289.15	398.75
1054.2043	3249.7733	1285.4	394.6
1054.3047	3250.6766	1290.85	399.85
1054.4051	3251.5793	1287.2	395.85
1054.5054	3252.4814	1285.15	397.15
1054.6056	3253.3829	1279.75	391.65
1054.7058	3254.2838	1282.1	393.8
1054.806	3255.1841	1268.95	380.45
1054.9061	3256.0838	1273.2	382.55
1055.0061	3256.9829	1270.4	382.35
1055.1062	3257.8814	1263.5	370.8
1055.2061	3258.7792	1258.8	366.65
1055.306	3259.6765	1255.55	364.7
1055.4059	3260.5731	1251.1	361.6
1055.5057	3261.4692	1245	355.65
1055.6055	3262.3647	1244.45	355.65
1055.7052	3263.2595	1231.55	341.4
1055.8049	3264.1538	1240.05	349.6
1055.9045	3265.0474	1231.35	340.65
1056.0041	3265.9404	1226.65	335.8
1056.1036	3266.8329	1223.95	334.2
1056.2031	3267.7247	1222.35	323
1056.3025	3268.616	1209	320.45
1056.4019	3269.5066	1197.55	308.1
1056.5013	3270.3966	1188.3	297.85
1056.6005	3271.286	1180.25	292.8
