Software Version:	3.9.2.0
Unit SN:	10000200
Spectrometer SN:	6960
Date:	3/6/2024 10:16:39 AM
Data Line Index:	25
Spectral Points:	2048
Integration time (ms):	125
Averages:	20
Delay (ms):	30
Sequence Number:	1
Processing:	dark subtract
Laser Power (mW):	300
Laser Current (mA):	826
Laser Diode Temp (C):	25.1
Laser Case Temp (C):	25.1
System Temp (C):	24.9
Spectrometer Temp (C):	22.4
CCD Temp (C):	0.001
Secondary Temp (C):	20.004
Heatsink Temp (C):	19.893
CCDPCB Temp (C):	32.005
SecondaryPCB Temp (C):	26.125

Wavelength	RamanShift	Raw Counts	Dark Subtracted
787.061	30.1047	1030.15	620.9
787.2016	32.3739	1057.15	650.2
787.3422	34.6426	1092	685.1
787.4828	36.9109	1138.3	728.85
787.6235	39.1787	1184.25	769.75
787.7642	41.4461	1240.65	821.6
787.9049	43.7131	1295.9	873.95
788.0456	45.9796	1347.3	921.7
788.1863	48.2456	1406.3	977.2
788.3271	50.5112	1465.5	1033.75
788.4679	52.7764	1532.9	1097.9
788.6087	55.0411	1587.7	1148.45
788.7496	57.3054	1670.15	1225.05
788.8904	59.5692	1748.85	1300.5
789.0313	61.8326	1822.3	1374
789.1722	64.0955	1923.1	1470.15
789.3132	66.3579	2028.6	1570.35
789.4541	68.6199	2169.95	1708.95
789.5951	70.8815	2390.4	1924.25
789.7361	73.1426	2884.75	2414.95
789.8771	75.4032	4145.75	3672.35
790.0181	77.6634	7418.8	6941.15
790.1592	79.9231	15848.9	15366.6
790.3003	82.1824	49159.8	48665.8
790.4414	84.4412	65535	65022.65
790.5825	86.6995	65535	64997.45
790.7237	88.9574	65535	64978.75
790.8648	91.2148	65535	64962.95
791.006	93.4717	65535	64954.4
791.1472	95.7282	65535	64951.25
791.2885	97.9842	65535	64947.65
791.4297	100.2398	65535	64945.75
791.571	102.4949	65535	64945.95
791.7123	104.7495	65535	64936.5
791.8536	107.0036	65535	64938.1
791.9949	109.2573	65535	64937.05
792.1363	111.5105	65535	64937.8
792.2777	113.7632	65535	64936.3
792.4191	116.0154	65535	64924.65
792.5605	118.2672	65535	64929.25
792.7019	120.5185	65535	64926.5
792.8434	122.7693	65535	64926.8
792.9849	125.0197	65535	64919
793.1264	127.2696	65535	64915.25
793.2679	129.519	65535	64913.45
793.4094	131.7679	65535	64908.95
793.551	134.0163	65535	64907.05
793.6926	136.2642	65535	64905.45
793.8342	138.5117	65535	64901.15
793.9758	140.7587	65535	64900.55
794.1175	143.0052	65535	64897.55
794.2591	145.2512	65535	64899.4
794.4008	147.4967	65535	64896.2
794.5425	149.7417	65535	64892.45
794.6842	151.9863	65535	64888.15
794.826	154.2304	65535	64885.1
794.9677	156.4739	65535	64879.55
795.1095	158.717	65535	64883.3
795.2513	160.9596	65535	64875.7
795.3931	163.2017	65535	64872.35
795.535	165.4433	65535	64873.95
795.6768	167.6844	65535	64872.7
795.8187	169.925	65535	64864.8
795.9606	172.1651	65535	64862.45
796.1025	174.4047	65535	64862.35
796.2445	176.6439	65535	64857.8
796.3864	178.8825	65535	64860.5
796.5284	181.1206	65535	64852.3
796.6704	183.3582	65535	64849.05
796.8124	185.5954	65535	64847.1
796.9544	187.832	65535	64842.5
797.0965	190.0681	65535	64840.75
797.2386	192.3037	65535	64839.45
797.3806	194.5388	65535	64837.15
797.5228	196.7734	65535	64834.45
797.6649	199.0075	65535	64830.2
797.807	201.2411	65535	64829.1
797.9492	203.4742	65535	64830.25
798.0914	205.7068	65535	64823.9
798.2336	207.9389	65535	64822.35
798.3758	210.1704	65535	64824.95
798.518	212.4015	65535	64833.4
798.6603	214.632	65535	64842.85
798.8025	216.862	65535	64847.05
798.9448	219.0915	65535	64842.15
799.0871	221.3205	65535	64838.75
799.2294	223.549	65535	64845.35
799.3718	225.777	65535	64847.1
799.5141	228.0044	65535	64837.85
799.6565	230.2314	65535	64838.6
799.7989	232.4578	65535	64833.3
799.9413	234.6837	65535	64825.4
800.0837	236.909	65535	64820.75
800.2262	239.1339	65535	64797.5
800.3687	241.3582	65535	64816.2
800.5111	243.582	65535	64784.1
800.6536	245.8053	65535	64797
800.7961	248.0281	65535	64804.35
800.9387	250.2503	65535	64798.2
801.0812	252.472	65535	64793.3
801.2238	254.6932	65535	64796.2
801.3664	256.9139	65535	64796.75
801.509	259.134	65535	64792.4
801.6516	261.3536	65535	64790.9
801.7942	263.5727	65535	64791.25
801.9369	265.7912	65535	64790.75
802.0795	268.0092	65535	64791.55
802.2222	270.2267	65535	64788.1
802.3649	272.4436	65535	64786.1
802.5076	274.6601	65535	64778
802.6504	276.8759	65535	64781.95
802.7931	279.0913	65535	64780.6
802.9359	281.3061	65535	64782.15
803.0787	283.5204	65535	64773.6
803.2215	285.7341	65535	64774.3
803.3643	287.9473	65535	64760.2
803.5071	290.16	65535	64770.05
803.6499	292.3721	65535	64777.15
803.7928	294.5837	65535	64772.95
803.9357	296.7947	65535	64774.35
804.0786	299.0052	65535	64774.95
804.2215	301.2152	65535	64772.4
804.3644	303.4246	65535	64773.4
804.5074	305.6334	65535	64770.35
804.6503	307.8418	65535	64771.15
804.7933	310.0495	65535	64767.5
804.9363	312.2568	65535	64769
805.0793	314.4635	65535	64765.6
805.2223	316.6696	65535	64763.9
805.3653	318.8752	65535	64753.7
805.5084	321.0802	65535	64762.6
805.6514	323.2847	65535	64760.9
805.7945	325.4887	65535	64759.75
805.9376	327.692	65535	64757.5
806.0807	329.8949	65535	64755.05
806.2238	332.0972	65535	64759.6
806.367	334.2989	65535	64752.8
806.5101	336.5001	65535	64752.45
806.6533	338.7007	65535	64754.55
806.7965	340.9008	65535	64751.9
806.9397	343.1003	65535	64749.85
807.0829	345.2992	65535	64749.3
807.2261	347.4976	65535	64746.15
807.3693	349.6955	65535	64740.6
807.5126	351.8927	65535	64744.35
807.6559	354.0895	65535	64732.95
807.7991	356.2856	65535	64741.65
807.9424	358.4812	65535	64738.1
808.0857	360.6763	65535	64737.5
808.2291	362.8707	65535	64735.4
808.3724	365.0646	65535	64731.95
808.5158	367.258	65535	64733.1
808.6591	369.4508	65535	64729.85
808.8025	371.643	65535	64723.85
808.9459	373.8346	65535	64728
809.0893	376.0257	65535	64726.85
809.2327	378.2162	65535	64723.55
809.3762	380.4062	65535	64724.35
809.5196	382.5956	65535	64724.8
809.6631	384.7844	65535	64731.25
809.8066	386.9726	65535	64733.85
809.9501	389.1603	65535	64732.7
810.0936	391.3474	65535	64690.15
810.2371	393.5339	65535	64731.6
810.3806	395.7199	65535	64735
810.5241	397.9052	65535	64731.7
810.6677	400.09	65535	64731.05
810.8113	402.2743	65535	64732.4
810.9548	404.4579	65535	64728.35
811.0984	406.641	65535	64727.25
811.2421	408.8235	65535	64726.2
811.3857	411.0054	65535	64723.9
811.5293	413.1868	65535	64719.3
811.673	415.3675	65535	64719.3
811.8166	417.5477	65535	64714.95
811.9603	419.7273	65535	64716.3
812.104	421.9064	65535	64708.55
812.2477	424.0848	65535	64712.8
812.3914	426.2627	65535	64712.15
812.5351	428.4399	65535	64708.85
812.6788	430.6166	65535	64705.35
812.8226	432.7928	65535	64705.8
812.9663	434.9683	65535	64707.85
813.1101	437.1432	65535	64704.9
813.2539	439.3176	65535	64705.1
813.3977	441.4914	65535	64706.95
813.5415	443.6645	65535	64702.95
813.6853	445.8371	65535	64704.2
813.8291	448.0091	65535	64705.05
813.973	450.1806	65535	64703.05
814.1168	452.3514	65535	64702.55
814.2607	454.5216	65535	64693.4
814.4046	456.6913	65535	64702.75
814.5485	458.8603	65535	64699.95
814.6924	461.0288	65535	64704.35
814.8363	463.1967	65535	64705.1
814.9802	465.3639	65535	64699.45
815.1241	467.5306	65535	64699.4
815.2681	469.6967	65535	64701.95
815.412	471.8622	65535	64701.9
815.556	474.0271	65535	64702.25
815.7	476.1914	65535	64697.3
815.844	478.3551	65535	64696.85
815.988	480.5182	65535	64699.9
816.132	482.6807	65535	64699.85
816.276	484.8426	65535	64701.55
816.4201	487.0039	65535	64696.35
816.5641	489.1647	65535	64698.25
816.7082	491.3248	65535	64694.6
816.8522	493.4843	65535	64693.7
816.9963	495.6432	65535	64694.2
817.1404	497.8015	65535	64689.9
817.2845	499.9592	65535	64692
817.4286	502.1163	65535	64693.05
817.5727	504.2728	65535	64691.45
817.7168	506.4287	65535	64692.25
817.861	508.5839	65535	64692.8
818.0051	510.7386	65535	64693.7
818.1493	512.8927	65535	64685.4
818.2935	515.0461	65535	64690.75
818.4377	517.199	65535	64687.75
818.5818	519.3512	65535	64687.55
818.726	521.5029	65535	64681.25
818.8703	523.6539	65535	64682
819.0145	525.8043	65535	64686.4
819.1587	527.9541	65535	64681.1
819.303	530.1033	65535	64684.5
819.4472	532.2519	65535	64684.4
819.5915	534.3999	65535	64682.45
819.7357	536.5472	65535	64682.7
819.88	538.694	65535	64683.4
820.0243	540.8401	65535	64681.05
820.1686	542.9856	65535	64676.8
820.3129	545.1305	65535	64683.7
820.4572	547.2748	65535	64679.65
820.6016	549.4185	65535	64681.05
820.7459	551.5615	65535	64680.5
820.8902	553.704	65535	64679.95
821.0346	555.8458	65535	64684.55
821.1789	557.987	65535	64682.35
821.3233	560.1276	65535	64676.1
821.4677	562.2675	65535	64679.35
821.6121	564.4069	65535	64679.9
821.7565	566.5456	65535	64678.95
821.9009	568.6837	65535	64679.95
822.0453	570.8212	65535	64679
822.1897	572.958	65535	64679.1
822.3342	575.0942	65535	64676.7
822.4786	577.2299	65535	64679.4
822.6231	579.3648	65535	64676.8
822.7675	581.4992	65535	64676.95
822.912	583.6329	65535	64679.5
823.0565	585.766	65535	64676.85
823.201	587.8985	65535	64677.55
823.3454	590.0304	65535	64655
823.4899	592.1616	65535	64675.4
823.6345	594.2922	65535	64674.25
823.779	596.4222	65535	64672.2
823.9235	598.5515	65535	64671.5
824.068	600.6802	65535	64675.1
824.2126	602.8083	65535	64673.45
824.3571	604.9358	65535	64673.55
824.5017	607.0626	65535	64670.4
824.6462	609.1888	65535	64671.2
824.7908	611.3144	65535	64668.6
824.9354	613.4393	65535	64670.5
825.08	615.5636	65535	64669.6
825.2246	617.6873	65535	64671.6
825.3692	619.8103	65535	64669.2
825.5138	621.9327	65535	64665.4
825.6584	624.0544	65535	64671.8
825.803	626.1756	65535	64668.45
825.9477	628.2961	65535	64669.05
826.0923	630.4159	65535	64669.8
826.237	632.5351	65535	64666.95
826.3816	634.6537	65535	64665.6
826.5263	636.7716	65535	64665.5
826.6709	638.8889	65535	64663.7
826.8156	641.0056	65535	64666.75
826.9603	643.1216	65535	64667.35
827.105	645.237	65535	64663.35
827.2497	647.3518	65535	64665.5
827.3944	649.4659	65535	64666.15
827.5391	651.5793	65535	64666.25
827.6838	653.6922	65535	64666.3
827.8285	655.8043	65535	64663.05
827.9733	657.9159	65535	64664.1
828.118	660.0268	65535	64662.55
828.2627	662.137	65535	64664.3
828.4075	664.2466	65535	64659.85
828.5522	666.3556	65535	64663.5
828.697	668.4639	65535	64660.2
828.8418	670.5716	65535	64662
828.9865	672.6786	65535	64660.2
829.1313	674.785	65535	64658.05
829.2761	676.8907	65535	64660.65
829.4209	678.9958	65535	64663.9
829.5657	681.1002	65535	64656.6
829.7105	683.204	65535	64658.95
829.8553	685.3072	65535	64656.25
830.0001	687.4097	65535	64663.7
830.1449	689.5115	65535	64655.25
830.2898	691.6127	65535	64660.8
830.4346	693.7132	65535	64658.55
830.5794	695.8131	65535	64634.5
830.7243	697.9123	65535	64655.25
830.8691	700.0109	65535	64655.7
831.014	702.1089	65535	64660.6
831.1588	704.2061	65535	64655.95
831.3037	706.3028	65535	64656.45
831.4486	708.3987	65535	64653.8
831.5935	710.4941	65535	64655.45
831.7383	712.5887	65535	64655.5
831.8832	714.6827	65535	64651.4
832.0281	716.7761	65535	64655.35
832.173	718.8688	65535	64652.7
832.3179	720.9608	65535	64654.2
832.4628	723.0522	65535	64651.6
832.6077	725.1429	65535	64655.35
832.7527	727.233	65535	64652.95
832.8976	729.3224	65535	64652.45
833.0425	731.4112	65535	64653.05
833.1874	733.4993	65535	64651.25
833.3324	735.5867	65535	64650.95
833.4773	737.6735	65535	64650.4
833.6222	739.7596	65535	64651.6
833.7672	741.845	65535	64652.85
833.9122	743.9298	65535	64652
834.0571	746.014	65535	64653.95
834.2021	748.0974	65535	64649.3
834.347	750.1802	65535	64649.75
834.492	752.2624	65535	64649.85
834.637	754.3439	65535	64651.2
834.782	756.4247	65535	64641.95
834.9269	758.5048	65535	64652.35
835.0719	760.5843	65535	64651.55
835.2169	762.6631	65535	64650.15
835.3619	764.7413	65535	64654.8
835.5069	766.8188	65535	64646.75
835.6519	768.8956	65535	64646.15
835.7969	770.9718	65535	64651.7
835.9419	773.0473	65535	64652.4
836.0869	775.1221	65535	64648.45
836.232	777.1962	65535	64649.65
836.377	779.2697	65535	64646.35
836.522	781.3426	65535	64628.95
836.667	783.4147	65535	64648.35
836.8121	785.4862	65535	64647.25
836.9571	787.557	65535	64646.15
837.1021	789.6271	65535	64650.5
837.2472	791.6966	65535	64650.25
837.3922	793.7654	65535	64650.4
837.5373	795.8335	65535	64650
837.6823	797.901	65535	64647.4
837.8274	799.9678	65535	64645.7
837.9724	802.0339	65535	64648.6
838.1175	804.0993	65535	64640.25
838.2626	806.1641	65535	64648.4
838.4076	808.2282	65535	64647.95
838.5527	810.2916	65535	64648.75
838.6978	812.3544	65535	64651.75
838.8428	814.4164	65535	64651.8
838.9879	816.4778	65535	64646.65
839.133	818.5385	65535	64645.6
839.2781	820.5986	65535	64645.75
839.4232	822.658	65535	64645.85
839.5682	824.7166	65535	64647.25
839.7133	826.7747	65535	64649
839.8584	828.832	65535	64647.1
840.0035	830.8886	65535	64642.6
840.1486	832.9446	65535	64646.95
840.2937	834.9999	65535	64647.6
840.4388	837.0545	65535	64643.25
840.5839	839.1085	65535	64648.65
840.729	841.1618	65535	64642.95
840.8741	843.2143	65535	64647.6
841.0192	845.2662	65535	64644.8
841.1643	847.3175	65535	64645.5
841.3095	849.368	65535	64647.85
841.4546	851.4179	65535	64644.8
841.5997	853.467	65535	64647.8
841.7448	855.5155	65535	64647.3
841.8899	857.5633	65535	64643.8
842.0351	859.6105	65535	64644.1
842.1802	861.6569	65535	64644.1
842.3253	863.7027	65535	64642.85
842.4704	865.7478	65535	64644.3
842.6156	867.7922	65535	64644.6
842.7607	869.8359	65535	64643.1
842.9058	871.8789	65535	64643.7
843.0509	873.9212	65535	64612.4
843.1961	875.9629	65535	64643.75
843.3412	878.0039	65535	64644
843.4863	880.0441	65535	64643.95
843.6315	882.0837	65535	64643.3
843.7766	884.1226	65535	64640.65
843.9218	886.1609	65535	64643.65
844.0669	888.1984	65535	64646.95
844.212	890.2352	65535	64646.5
844.3572	892.2714	65535	64640.95
844.5023	894.3069	65535	64643.1
844.6475	896.3416	65535	64643.6
844.7926	898.3757	65535	64641.95
844.9377	900.4091	65535	64643.55
845.0829	902.4418	65535	64638.2
845.228	904.4739	65535	64636.6
845.3732	906.5052	65535	64641
845.5183	908.5358	65535	64644.4
845.6635	910.5658	65535	64640.75
845.8086	912.595	65535	64642.55
845.9538	914.6236	65535	64641.3
846.0989	916.6515	65535	64643.9
846.2441	918.6786	65535	64640.25
846.3892	920.7051	65535	64639.1
846.5344	922.7309	65535	64641.25
846.6795	924.756	65535	64641.75
846.8246	926.7804	65535	64639.25
846.9698	928.8041	65535	64635
847.1149	930.8272	65535	64640.7
847.2601	932.8495	65535	64639.65
847.4052	934.8711	65535	64640.6
847.5504	936.892	65535	64641.25
847.6955	938.9123	65535	64641.35
847.8407	940.9318	65535	64639.45
847.9858	942.9506	65535	64642.15
848.131	944.9688	65535	64641.4
848.2761	946.9862	65535	64641.1
848.4213	949.003	65535	64640.9
848.5664	951.019	65535	64643.2
848.7115	953.0344	65535	64641.65
848.8567	955.0491	65535	64641.4
849.0018	957.063	65535	64641.55
849.147	959.0763	65535	64638.5
849.2921	961.0888	65535	64640.8
849.4373	963.1007	65535	64640
849.5824	965.1119	65535	64646.3
849.7275	967.1223	65535	64642.1
849.8727	969.1321	65535	64643.3
850.0178	971.1412	65535	64643.2
850.1629	973.1495	65535	64644
850.3081	975.1572	65535	64611.35
850.4532	977.1641	65535	64640.55
850.5983	979.1704	65535	64639.55
850.7435	981.1759	65535	64637.9
850.8886	983.1808	65535	64638.95
851.0337	985.1849	65535	64628.3
851.1788	987.1884	65535	64636.05
851.324	989.1911	65535	64637.1
851.4691	991.1932	65535	64638.8
851.6142	993.1945	65535	64640.65
851.7593	995.1951	65535	64638.2
851.9045	997.1951	65535	64634.85
852.0496	999.1943	65535	64641.3
852.1947	1001.1928	65535	64639.4
852.3398	1003.1906	65535	64643.5
852.4849	1005.1877	65535	64639.2
852.63	1007.1841	65535	64640.2
852.7751	1009.1798	65535	64642.5
852.9202	1011.1748	65535	64642.6
853.0653	1013.1691	65535	64642.6
853.2104	1015.1627	65535	64639.7
853.3555	1017.1556	65535	64638.75
853.5006	1019.1477	65535	64640.2
853.6457	1021.1392	65535	64643.55
853.7908	1023.1299	65535	64642.6
853.9359	1025.12	65535	64639.65
854.081	1027.1093	65535	64642.25
854.2261	1029.0979	65535	64645.3
854.3712	1031.0859	65535	64645.7
854.5163	1033.0731	65535	64643.1
854.6613	1035.0596	65535	64641.9
854.8064	1037.0454	65535	64639.05
854.9515	1039.0304	65535	64639.45
855.0965	1041.0148	65535	64644.1
855.2416	1042.9985	65535	64640
855.3867	1044.9814	65535	64643
855.5317	1046.9636	65535	64642.35
855.6768	1048.9452	65535	64643.9
855.8219	1050.926	65535	64641.5
855.9669	1052.9061	65535	64641.3
856.112	1054.8855	65535	64640.4
856.257	1056.8642	65535	64640.4
856.4021	1058.8421	65535	64637.95
856.5471	1060.8194	65535	64639.6
856.6921	1062.7959	65535	64640.5
856.8372	1064.7717	65535	64641.3
856.9822	1066.7469	65535	64640.95
857.1272	1068.7213	65535	64634.8
857.2723	1070.695	65535	64640.95
857.4173	1072.6679	65535	64642.2
857.5623	1074.6402	65535	64640.05
857.7073	1076.6117	65535	64638.85
857.8523	1078.5826	65535	64643.1
857.9973	1080.5527	65535	64637.55
858.1423	1082.5221	65535	64639.5
858.2873	1084.4908	65535	64641.35
858.4323	1086.4587	65535	64640.05
858.5773	1088.426	65535	64640.15
858.7223	1090.3925	65535	64636.1
858.8673	1092.3584	65535	64640.65
859.0123	1094.3235	65535	64641.5
859.1573	1096.2879	65535	64642.45
859.3022	1098.2515	65535	64640.25
859.4472	1100.2145	65535	64641.6
859.5922	1102.1767	65535	64636.5
859.7371	1104.1382	65535	64641.2
859.8821	1106.099	65535	64638.15
860.027	1108.0591	65535	64639.6
860.172	1110.0185	65535	64640.35
860.3169	1111.9771	65535	64637.8
860.4619	1113.9351	65535	64643.95
860.6068	1115.8923	65535	64639.6
860.7517	1117.8488	65535	64638.35
860.8967	1119.8045	65535	64639.8
861.0416	1121.7596	65535	64640.65
861.1865	1123.7139	65535	64642.2
861.3314	1125.6675	65535	64637.5
861.4763	1127.6204	65535	64642.75
861.6212	1129.5726	65535	64638.4
861.7661	1131.524	65535	64638.45
861.911	1133.4748	65535	64639.7
862.0559	1135.4248	65535	64638.55
862.2008	1137.3741	65535	64639.7
862.3457	1139.3226	65535	64637.8
862.4905	1141.2705	65535	64641.9
862.6354	1143.2176	65535	64636
862.7803	1145.164	65535	64641.1
862.9251	1147.1097	65535	64638.55
863.07	1149.0546	65535	64639.2
863.2148	1150.9989	65535	64638.15
863.3597	1152.9424	65535	64641.3
863.5045	1154.8852	65535	64637.9
863.6493	1156.8272	65535	64640.75
863.7942	1158.7686	65535	64632.3
863.939	1160.7092	65535	64638.75
864.0838	1162.6491	65535	64638.55
864.2286	1164.5883	65535	64644.5
864.3734	1166.5267	65535	64639.65
864.5182	1168.4644	65535	64639
864.663	1170.4014	65535	64634.55
864.8078	1172.3377	65535	64640.85
864.9526	1174.2732	65535	64640.1
865.0974	1176.2081	65535	64640.9
865.2421	1178.1421	65535	64638.25
865.3869	1180.0755	65535	64640.55
865.5317	1182.0082	65535	64641.9
865.6764	1183.9401	65535	64638.75
865.8212	1185.8713	65535	64639.45
865.9659	1187.8017	65535	64642
866.1106	1189.7315	65535	64642.9
866.2554	1191.6605	65535	64615.4
866.4001	1193.5888	65535	64640.75
866.5448	1195.5163	65535	64644
866.6895	1197.4432	65535	64639.65
866.8342	1199.3693	65535	64642.15
866.9789	1201.2947	65535	64638.9
867.1236	1203.2193	65535	64640.35
867.2683	1205.1432	65535	64640.5
867.413	1207.0664	65535	64641.35
867.5576	1208.9889	65535	64637.8
867.7023	1210.9106	65535	64639.85
867.847	1212.8316	65535	64640.95
867.9916	1214.7519	65535	64632.9
868.1363	1216.6715	65535	64642.55
868.2809	1218.5903	65535	64639.75
868.4255	1220.5084	65535	64640.5
868.5701	1222.4257	65535	64640.15
868.7148	1224.3424	65535	64641.55
868.8594	1226.2583	65535	64635.2
869.004	1228.1735	65535	64641.3
869.1486	1230.0879	65535	64640.75
869.2932	1232.0016	65535	64642.9
869.4377	1233.9146	65535	64642.6
869.5823	1235.8269	65535	64639.4
869.7269	1237.7384	65535	64642.4
869.8715	1239.6492	65535	64642.65
870.016	1241.5592	65535	64643
870.1606	1243.4686	65535	64640.6
870.3051	1245.3772	65535	64640.45
870.4496	1247.285	65535	64640.7
870.5941	1249.1922	65535	64640.95
870.7387	1251.0986	65535	64641.05
870.8832	1253.0042	65535	64641.85
871.0277	1254.9092	65535	64641.15
871.1722	1256.8134	65535	64644
871.3167	1258.7169	65535	64640.15
871.4611	1260.6196	65535	64640.3
871.6056	1262.5216	65535	64641
871.7501	1264.4229	65535	64641.3
871.8945	1266.3234	65535	64642
872.039	1268.2232	65535	64640.7
872.1834	1270.1223	65535	64639.6
872.3278	1272.0207	65535	64639.25
872.4723	1273.9183	65535	64635.8
872.6167	1275.8151	65535	64641.95
872.7611	1277.7113	65535	64638.35
872.9055	1279.6067	65535	64642.4
873.0499	1281.5014	65535	64638.9
873.1943	1283.3953	65535	64638
873.3386	1285.2885	65535	64639.9
873.483	1287.181	65535	64639.7
873.6274	1289.0727	65535	64644.2
873.7717	1290.9637	65535	64639
873.9161	1292.854	65535	64642.45
874.0604	1294.7435	65535	64640.85
874.2047	1296.6323	65535	64639.95
874.349	1298.5204	65535	64637.35
874.4933	1300.4077	65535	64640.05
874.6376	1302.2943	65535	64641.6
874.7819	1304.1802	65535	64642.25
874.9262	1306.0653	65535	64640.65
875.0705	1307.9497	65535	64640.5
875.2147	1309.8333	65535	64641.75
875.359	1311.7162	65535	64642
875.5032	1313.5984	65535	64639.9
875.6475	1315.4798	65535	64631
875.7917	1317.3605	65535	64625.05
875.9359	1319.2405	65535	64638.9
876.0801	1321.1197	65535	64640.35
876.2243	1322.9982	65535	64637.35
876.3685	1324.876	65535	64640.5
876.5127	1326.753	65535	64642.6
876.6569	1328.6293	65535	64637.95
876.801	1330.5048	65535	64637.95
876.9452	1332.3796	65535	64642.3
877.0893	1334.2537	65535	64616.6
877.2335	1336.127	65535	64641.6
877.3776	1337.9996	65535	64642.25
877.5217	1339.8714	65535	64642.2
877.6658	1341.7426	65535	64597.55
877.8099	1343.6129	65535	64639.45
877.954	1345.4826	65535	64643.05
878.0981	1347.3515	65535	64639.55
878.2422	1349.2196	65535	64639.7
878.3862	1351.087	65535	64640.55
878.5303	1352.9537	65535	64639.95
878.6743	1354.8197	65535	64640.3
878.8184	1356.6849	65535	64638.9
878.9624	1358.5493	65535	64642.55
879.1064	1360.4131	65535	64640.15
879.2504	1362.276	65535	64642.1
879.3944	1364.1383	65535	64641.3
879.5384	1365.9998	65535	64634.8
879.6823	1367.8606	65535	64639.15
879.8263	1369.7206	65535	64642.55
879.9702	1371.5799	65535	64637.75
880.1142	1373.4384	65535	64641.6
880.2581	1375.2962	65535	64640.75
880.402	1377.1533	65535	64641.05
880.5459	1379.0096	65535	64641.6
880.6898	1380.8652	65535	64640.8
880.8337	1382.7201	65535	64642.5
880.9776	1384.5742	65535	64641.4
881.1215	1386.4275	65535	64640.45
881.2653	1388.2802	65535	64640.95
881.4092	1390.132	65535	64642.95
881.553	1391.9832	65535	64642.95
881.6968	1393.8336	65535	64642
881.8406	1395.6832	65535	64638.75
881.9844	1397.5322	65535	64642.65
882.1282	1399.3803	65535	64635.3
882.272	1401.2278	65535	64641.1
882.4158	1403.0745	65535	64640.85
882.5595	1404.9204	65535	64644.15
882.7033	1406.7656	65535	64641.7
882.847	1408.6101	65535	64638.75
882.9908	1410.4538	65535	64639.45
883.1345	1412.2968	65535	64641.65
883.2782	1414.139	65535	64641.15
883.4219	1415.9805	65535	64640.85
883.5656	1417.8213	65535	64633.3
883.7092	1419.6613	65535	64641.05
883.8529	1421.5006	65535	64641.3
883.9965	1423.3391	65535	64642.25
884.1402	1425.1769	65535	64640.45
884.2838	1427.0139	65535	64641.7
884.4274	1428.8502	65535	64640.2
884.571	1430.6858	65535	64640.75
884.7146	1432.5206	65535	64639.9
884.8582	1434.3547	65535	64641.55
885.0018	1436.188	65535	64640.5
885.1453	1438.0206	65535	64641.7
885.2889	1439.8524	65535	64641.35
885.4324	1441.6835	65535	64638.85
885.5759	1443.5139	65535	64637.3
885.7194	1445.3435	65535	64642.45
885.8629	1447.1724	65535	64642.5
886.0064	1449.0005	65532.45	64640.6
886.1499	1450.8279	65535	64639.4
886.2933	1452.6545	65535	64642.2
886.4368	1454.4804	65534.45	64642.6
886.5802	1456.3056	65528.15	64628
886.7237	1458.13	65534.35	64641.15
886.8671	1459.9536	65535	64640.9
887.0105	1461.7766	65525.95	64633.7
887.1539	1463.5987	65517.9	64624
887.2972	1465.4202	65523.2	64630.25
887.4406	1467.2409	65521.05	64627.55
887.584	1469.0608	65467.5	64575.25
887.7273	1470.88	65501.25	64608.6
887.8706	1472.6984	65503.15	64612.15
888.0139	1474.5161	65443.4	64548.55
888.1572	1476.3331	65488.05	64595.15
888.3005	1478.1493	65449.8	64555.4
888.4438	1479.9648	65435.05	64542.45
888.5871	1481.7795	65475.4	64582.9
888.7303	1483.5935	65467.6	64575.6
888.8736	1485.4067	65416.95	64525.2
889.0168	1487.2192	65441.6	64549.8
889.16	1489.031	65393.9	64498.6
889.3032	1490.842	65425.8	64533.05
889.4464	1492.6522	65431.65	64539.65
889.5896	1494.4618	65391.8	64500.45
889.7327	1496.2705	65419.4	64527.4
889.8759	1498.0785	65337.8	64444.35
890.019	1499.8858	65392.4	64499.15
890.1622	1501.6924	65421.75	64531.85
890.3053	1503.4981	65348.1	64456.3
890.4484	1505.3032	65368.45	64476.7
890.5914	1507.1075	65334.75	64441.6
890.7345	1508.911	65340	64447.65
890.8776	1510.7138	65332.05	64440.7
891.0206	1512.5159	65355.5	64463.45
891.1637	1514.3172	65262.05	64372.95
891.3067	1516.1178	65292.65	64403.05
891.4497	1517.9176	65312.55	64419.25
891.5927	1519.7166	65285	64393.15
891.7357	1521.515	65278.6	64380.15
891.8786	1523.3126	65242	64350.4
892.0216	1525.1094	65286.1	64391.8
892.1645	1526.9055	65251.8	64360
892.3074	1528.7008	65248.1	64357.15
892.4503	1530.4954	65206.55	64310.95
892.5932	1532.2893	65251	64358.65
892.7361	1534.0824	65213.9	64315.8
892.879	1535.8747	65200.35	64309.85
893.0218	1537.6663	65257.25	64367
893.1647	1539.4572	65141.9	64249.15
893.3075	1541.2473	65182.4	64289.1
893.4503	1543.0367	65162.75	64271.6
893.5931	1544.8253	65153.45	64255.6
893.7359	1546.6132	65175.6	64279.9
893.8787	1548.4003	65134.9	64236.05
894.0214	1550.1867	65131.1	64231.25
894.1642	1551.9723	65127.75	64231.45
894.3069	1553.7572	65133.45	64240.75
894.4496	1555.5414	65134.7	64243.9
894.5923	1557.3247	65088.6	64197.2
894.735	1559.1074	65128.3	64236.5
894.8777	1560.8893	65108.1	64216.45
895.0204	1562.6705	65109.3	64218.9
895.163	1564.4509	65087.9	64197.55
895.3056	1566.2305	65080.5	64192.55
895.4482	1568.0094	65115.7	64227.05
895.5908	1569.7876	65092.65	64202.75
895.7334	1571.565	65064.55	64174.85
895.876	1573.3417	65068.5	64177.3
896.0186	1575.1176	65076	64185.45
896.1611	1576.8928	65059.8	64168.65
896.3036	1578.6672	65028.3	64137.75
896.4461	1580.4409	65039.2	64151.1
896.5886	1582.2138	65015.1	64121.1
896.7311	1583.986	65026	64134.3
896.8736	1585.7575	64998.75	64110.5
897.0161	1587.5282	65007.65	64120
897.1585	1589.2981	65015.4	64128.05
897.3009	1591.0673	64987.2	64095.5
897.4433	1592.8358	64972.5	64083.3
897.5857	1594.6035	64999.8	64105.8
897.7281	1596.3704	64994.25	64102.8
897.8705	1598.1366	64951.2	64063.45
898.0128	1599.9021	64903.3	64015.15
898.1551	1601.6668	64956.95	64065
898.2975	1603.4308	64922.4	64034.4
898.4398	1605.194	64936.9	64043.6
898.5821	1606.9564	64856.85	63969.55
898.7243	1608.7182	64899.9	64007.3
898.8666	1610.4791	64839.4	63953.65
899.0088	1612.2394	64894.2	64007.4
899.1511	1613.9988	64855.8	63967.55
899.2933	1615.7576	64902.55	64014.1
899.4355	1617.5156	64904.15	64008.7
899.5776	1619.2728	64953.9	64064.3
899.7198	1621.0293	64818.5	63931.6
899.862	1622.785	64814.8	63922.85
900.0041	1624.54	64849.35	63957.8
900.1462	1626.2942	64803.75	63916.25
900.2883	1628.0477	64704.2	63811.8
900.4304	1629.8005	64612.5	63720.65
900.5725	1631.5525	64674.2	63786.25
900.7145	1633.3037	64577.9	63690.85
900.8566	1635.0542	64539.1	63651.4
900.9986	1636.804	64615.45	63728.7
901.1406	1638.553	64462.35	63493.8
901.2826	1640.3013	64539.3	63650.85
901.4245	1642.0488	64415.3	63524.6
901.5665	1643.7955	64493	63605.45
901.7085	1645.5416	64423.5	63535.65
901.8504	1647.2868	64341.4	63453.9
901.9923	1649.0313	64450.85	63563.55
902.1342	1650.7751	64379.5	63488.3
902.2761	1652.5181	64327.45	63440.55
902.4179	1654.2604	64318.15	63430.15
902.5598	1656.0019	64337.65	63450.35
902.7016	1657.7427	64283.45	63393.25
902.8434	1659.4828	64376.5	63487.55
902.9852	1661.222	64235.35	63347.15
903.127	1662.9606	64373.1	63485.2
903.2687	1664.6984	64213.1	63324.2
903.4105	1666.4354	64276.8	63387.85
903.5522	1668.1717	64067.65	63180.75
903.6939	1669.9072	63922.95	63036.05
903.8356	1671.642	63891.75	63002.2
903.9773	1673.3761	63853.35	62966
904.119	1675.1094	63827.15	62938.05
904.2606	1676.8419	63699.6	62811.95
904.4022	1678.5737	63700.75	62812.7
904.5439	1680.3048	63664.9	62776
904.6855	1682.0351	63594.95	62707.4
904.827	1683.7646	63524.7	62633.9
904.9686	1685.4934	63570.85	62684.15
905.1101	1687.2215	63297.7	62412.15
905.2517	1688.9488	63473	62586.4
905.3932	1690.6754	63024.9	62137.7
905.5347	1692.4012	63270	62383.4
905.6761	1694.1263	63310.3	62421.85
905.8176	1695.8506	63132.5	62245.25
905.9591	1697.5742	63148.6	62260.55
906.1005	1699.297	63077.35	62190.55
906.2419	1701.0191	63094.2	62207
906.3833	1702.7404	62766.15	61880
906.5246	1704.461	62639.8	61752.85
906.666	1706.1808	62868.1	61977.85
906.8073	1707.8999	62699.35	61808.65
906.9487	1709.6182	62634.2	61747.1
907.09	1711.3358	62563.2	61678.25
907.2313	1713.0527	62530.95	61645.9
907.3725	1714.7688	62532.75	61639.85
907.5138	1716.4841	62113.3	61224.45
907.655	1718.1987	62267.75	61376.2
907.7962	1719.9126	62148.55	61262.6
907.9374	1721.6257	62233.7	61345.5
908.0786	1723.338	62246.1	61360
908.2198	1725.0496	61686.55	60798.95
908.3609	1726.7605	61777.4	60889.8
908.502	1728.4706	61524.25	60633.1
908.6431	1730.18	61738.15	60850.5
908.7842	1731.8886	61499.15	60613.35
908.9253	1733.5964	61339	60446.25
909.0664	1735.3036	61636.8	60750.6
909.2074	1737.0099	61418.2	60530.8
909.3484	1738.7156	61164	60279.05
909.4894	1740.4204	61053.95	60164.45
909.6304	1742.1246	61126.15	60237
909.7714	1743.8279	61202.25	60317.65
909.9123	1745.5306	61152.1	60264.65
910.0532	1747.2325	60515.95	59629.85
910.1941	1748.9336	60520.95	59636.75
910.335	1750.634	60683.55	59793.95
910.4759	1752.3336	60850.9	59965.1
910.6168	1754.0325	60393.75	59509.55
910.7576	1755.7307	60760.2	59874.5
910.8984	1757.4281	60144.75	59256.75
911.0392	1759.1247	60565.65	59668.6
911.18	1760.8206	59925.3	59034.75
911.3208	1762.5158	59998.55	59106.25
911.4615	1764.2102	60076.85	59192.65
911.6022	1765.9039	59940.85	59056.35
911.7429	1767.5968	59757.95	58871.85
911.8836	1769.289	59676.6	58789.75
912.0243	1770.9804	59792	58903.55
912.1649	1772.6711	59647.15	58760.85
912.3056	1774.361	59478.9	58590.7
912.4462	1776.0502	59474.9	58587.85
912.5868	1777.7386	58863.3	57975.1
912.7274	1779.4263	59254.1	58366.3
912.8679	1781.1132	59190.95	58306.85
913.0084	1782.7994	59060.7	58174.75
913.149	1784.4849	59080.4	58195.1
913.2895	1786.1696	58277.45	57383.65
913.4299	1787.8535	58670.35	57785.1
913.5704	1789.5367	58745.55	57857.6
913.7108	1791.2192	58254.7	57370.8
913.8513	1792.9009	57981.1	57062.8
913.9917	1794.5818	58322	57434.25
914.132	1796.2621	57869.8	56984.35
914.2724	1797.9415	57905.8	57017.55
914.4128	1799.6202	57778.25	56891.6
914.5531	1801.2982	57850.95	56962.5
914.6934	1802.9755	57403	56517.1
914.8337	1804.6519	57252.15	56366.3
914.9739	1806.3277	57825.7	56937.7
915.1142	1808.0027	56786.4	55903.75
915.2544	1809.6769	57143.2	56256.65
915.3946	1811.3504	57197.15	56310.1
915.5348	1813.0231	56440.6	55551.35
915.675	1814.6951	56886.35	55999.85
915.8151	1816.3664	56628	55741.25
915.9553	1818.0369	56635.85	55749.4
916.0954	1819.7067	56394.8	55509.9
916.2355	1821.3757	56802.55	55913.6
916.3755	1823.044	56108.5	55221.2
916.5156	1824.7115	55755.05	54868.05
916.6556	1826.3783	55951.25	55063.4
916.7956	1828.0443	55965.9	55081.65
916.9356	1829.7096	55731.6	54845.9
917.0756	1831.3741	55231.7	54341.65
917.2155	1833.0379	55515	54630.1
917.3555	1834.701	55458.3	54571.6
917.4954	1836.3633	55042.45	54154.95
917.6353	1838.0248	55217.95	54329.75
917.7751	1839.6856	55056.05	54168.8
917.915	1841.3457	54586.3	53702.45
918.0548	1843.005	55042	54156.95
918.1946	1844.6636	54749.95	53865.1
918.3344	1846.3214	54102.65	53216
918.4742	1847.9785	54253.25	53367.4
918.6139	1849.6349	54178.3	53292
918.7537	1851.2904	54569.3	53672.2
918.8934	1852.9453	53848.2	52962.05
919.0331	1854.5994	54050.65	53161.9
919.1727	1856.2528	54028.05	53138.15
919.3124	1857.9054	53578.6	52691.4
919.452	1859.5572	53407.15	52521.1
919.5916	1861.2083	53613.4	52727.45
919.7312	1862.8587	53978.75	53092.25
919.8708	1864.5084	52855	51967.9
920.0103	1866.1572	53255.25	52371.05
920.1498	1867.8054	52649.25	51761.5
920.2893	1869.4528	52981.7	52095.55
920.4288	1871.0994	52494.25	51608.9
920.5683	1872.7453	52486.6	51597.65
920.7077	1874.3905	52602.35	51710.4
920.8471	1876.0349	52156.35	51267.9
920.9865	1877.6786	52490.4	51603.3
921.1259	1879.3215	52124.15	51239.8
921.2653	1880.9637	52428.55	51541.1
921.4046	1882.6051	52049.6	51165.9
921.5439	1884.2458	51816.4	50927.95
921.6832	1885.8858	51492.2	50606.3
921.8225	1887.525	51609.3	50723.35
921.9617	1889.1634	51462.95	50576.65
922.101	1890.8011	51248.9	50361.15
922.2402	1892.4381	50789.25	49905.25
922.3794	1894.0743	51132.05	50246.25
922.5185	1895.7098	50856.15	49969.6
922.6577	1897.3446	50653.8	49766.3
922.7968	1898.9786	50690.75	49801.4
922.9359	1900.6118	50429.7	49545.35
923.075	1902.2443	50095.9	49207.4
923.214	1903.8761	50314.5	49430.6
923.3531	1905.5071	49978.1	49091.3
923.4921	1907.1374	49501.7	48613.9
923.6311	1908.7669	49640.85	48757.5
923.77	1910.3957	49751.6	48865.7
923.909	1912.0237	49216.05	48330.5
924.0479	1913.651	49071.6	48185.7
924.1868	1915.2776	48929.1	48045.35
924.3257	1916.9034	48846.95	47962.8
924.4646	1918.5285	48611	47727.4
924.6034	1920.1528	48458	47574
924.7422	1921.7764	48404.55	47519.85
924.881	1923.3992	48227.4	47341.8
925.0198	1925.0213	47879.15	46991.85
925.1586	1926.6427	47583.1	46698.9
925.2973	1928.2633	47659.9	46693.8
925.436	1929.8832	47476.35	46589.9
925.5747	1931.5023	47303.65	46420.85
925.7134	1933.1207	47031.9	46146.15
925.852	1934.7383	47169.5	46285.15
925.9906	1936.3552	46892.4	46010.6
926.1292	1937.9714	46751.5	45865.85
926.2678	1939.5868	46641.7	45753.3
926.4064	1941.2015	46288.6	45404.2
926.5449	1942.8154	46084.5	45196.2
926.6834	1944.4286	45961.1	45074.3
926.8219	1946.041	45863.15	44957.95
926.9604	1947.6528	45651.4	44758.6
927.0988	1949.2637	45535.7	44651.45
927.2372	1950.8739	45306.15	44420.1
927.3756	1952.4834	45314.55	44429.25
927.514	1954.0921	45208.5	44322
927.6523	1955.7001	44905.6	44015
927.7907	1957.3074	44815.75	43930.7
927.929	1958.9139	44559.2	43673.45
928.0673	1960.5197	44587.6	43700.05
928.2055	1962.1247	44370.75	43485.95
928.3438	1963.729	44130.7	43246
928.482	1965.3325	43981.55	43073.5
928.6202	1966.9353	43946.65	43061.65
928.7584	1968.5374	43730.7	42843.9
928.8965	1970.1387	43548.4	42664.45
929.0346	1971.7393	43463.15	42578.45
929.1727	1973.3392	43291.15	42408.25
929.3108	1974.9383	43059.65	42174.6
929.4489	1976.5366	42840.9	41956.25
929.5869	1978.1342	42820.3	41935.3
929.7249	1979.7311	42712.2	41825.85
929.8629	1981.3273	42598.95	41712.35
930.0009	1982.9227	42408.3	41521.3
930.1388	1984.5173	42378.2	41493.05
930.2767	1986.1112	42151.4	41266.15
930.4146	1987.7044	42113.65	41228.05
930.5525	1989.2968	41919.65	41033.05
930.6904	1990.8885	41873.9	40985.5
930.8282	1992.4795	41735.5	40849.25
930.966	1994.0697	41538.3	40652.55
931.1038	1995.6592	41409.5	40523.85
931.2415	1997.2479	41254.6	40369.9
931.3793	1998.8359	41165.15	40280.05
931.517	2000.4232	40986.35	40102.35
931.6547	2002.0097	40849.5	39966.2
931.7923	2003.5955	40658.7	39774.75
931.93	2005.1805	40677.3	39791.75
932.0676	2006.7648	40509.35	39624.45
932.2052	2008.3484	40382	39496.1
932.3427	2009.9312	40397.55	39511
932.4803	2011.5133	40261.2	39376.6
932.6178	2013.0946	40081.35	39198.1
932.7553	2014.6752	39992.45	39106.75
932.8928	2016.2551	39909.1	39023.2
933.0302	2017.8342	39719.45	38838.35
933.1676	2019.4126	39597.6	38713.55
933.305	2020.9902	39390.9	38508.55
933.4424	2022.5672	39343.15	38457.1
933.5798	2024.1433	39242.9	38352.35
933.7171	2025.7188	39056.15	38172.05
933.8544	2027.2935	38972.9	38085.85
933.9917	2028.8674	38809.85	37926.8
934.129	2030.4406	38691.8	37808.35
934.2662	2032.0131	38535.7	37651.05
934.4034	2033.5849	38368.25	37480.15
934.5406	2035.1559	38314.05	37428.2
934.6778	2036.7261	38258	37372.7
934.8149	2038.2957	38144.6	37261.25
934.952	2039.8645	38060.05	37174.95
935.0891	2041.4325	38064.65	37178.65
935.2262	2042.9998	37895.75	37011.6
935.3632	2044.5664	37754.9	36868.35
935.5002	2046.1323	37620.3	36735.45
935.6372	2047.6974	37517.8	36634.95
935.7742	2049.2617	37455.25	36573.2
935.9111	2050.8254	37412.8	36523.75
936.048	2052.3883	37317.2	36431.55
936.1849	2053.9504	37137.9	36252.05
936.3218	2055.5118	37021.2	36135.4
936.4586	2057.0725	36830.8	35943.6
936.5955	2058.6325	36770.95	35885.3
936.7323	2060.1917	36670.2	35786.9
936.869	2061.7502	36574.1	35688.05
937.0058	2063.3079	36446.55	35562.7
937.1425	2064.8649	36310.9	35422.65
937.2792	2066.4212	36216	35330.4
937.4159	2067.9767	36093.1	35209.85
937.5525	2069.5315	35913.85	35029.55
937.6891	2071.0856	35801.45	34915.7
937.8257	2072.6389	35650.8	34765.85
937.9623	2074.1915	35489.8	34606
938.0989	2075.7433	35287.75	34401.1
938.2354	2077.2945	35219.6	34336.6
938.3719	2078.8448	35155.35	34270.4
938.5084	2080.3945	35039.2	34153.7
938.6448	2081.9434	34985.75	34101.6
938.7812	2083.4916	34858.05	33973.35
938.9176	2085.039	34769.8	33883.65
939.054	2086.5857	34641.05	33753.8
939.1903	2088.1317	34585.25	33698.4
939.3267	2089.677	34449.4	33563.65
939.463	2091.2215	34345.5	33459.65
939.5992	2092.7652	34263.5	33377.5
939.7355	2094.3083	34184.25	33297.75
939.8717	2095.8506	34148.95	33265.8
940.0079	2097.3921	34124.4	33240.05
940.1441	2098.933	33966.25	33081.4
940.2802	2100.4731	33859.6	32976.6
940.4163	2102.0124	33813.3	32911.8
940.5524	2103.5511	33769.8	32885.6
940.6885	2105.089	33646.5	32763.05
940.8245	2106.6261	33570.05	32685.6
940.9606	2108.1626	33492.4	32606.45
941.0965	2109.6983	33404.85	32491.45
941.2325	2111.2332	33269.85	32384.85
941.3684	2112.7675	33169.2	32286.4
941.5044	2114.301	33053.5	32167.95
941.6403	2115.8337	33035.25	32152.35
941.7761	2117.3657	32925.1	32040.45
941.912	2118.897	32845	31959.55
942.0478	2120.4276	32738.1	31847.6
942.1835	2121.9575	32608.95	31722.95
942.3193	2123.4866	32599.45	31700.25
942.455	2125.0149	32485.35	31598.5
942.5907	2126.5426	32249.5	31362.7
942.7264	2128.0695	32238.05	31349.2
942.8621	2129.5956	32155	31268.7
942.9977	2131.1211	32104.3	31215.15
943.1333	2132.6458	31996.35	31112.4
943.2689	2134.1698	31876.7	30988.7
943.4044	2135.693	31792.5	30906.9
943.54	2137.2155	31761.9	30872.8
943.6755	2138.7373	31688.45	30803.35
943.8109	2140.2584	31569.8	30684.35
943.9464	2141.7787	31453.25	30561.95
944.0818	2143.2983	31302.4	30419.45
944.2172	2144.8171	31141.25	30259.35
944.3526	2146.3353	31051.3	30166
944.4879	2147.8527	30945.7	30063.1
944.6232	2149.3693	30956.95	30070.15
944.7585	2150.8853	30835.3	29950.1
944.8938	2152.4005	30674.5	29788.7
945.029	2153.9149	30621.55	29735.5
945.1642	2155.4287	30489.55	29605.4
945.2994	2156.9417	30449.85	29563.75
945.4346	2158.454	30334.7	29447.1
945.5697	2159.9655	30257.05	29372.3
945.7048	2161.4764	30227.6	29341.4
945.8399	2162.9865	30104.55	29221.1
945.9749	2164.4958	30012.8	29126.65
946.1099	2166.0045	29857.95	28972.4
946.2449	2167.5124	29862.35	28978.55
946.3799	2169.0195	29824.3	28940.3
946.5148	2170.526	29755.5	28871.5
946.6498	2172.0317	29605.55	28720.2
946.7846	2173.5367	29538.9	28654.8
946.9195	2175.0409	29404.7	28520.05
947.0543	2176.5445	29425.9	28540.75
947.1891	2178.0473	29263.45	28379.1
947.3239	2179.5494	29134.45	28245.3
947.4587	2181.0507	29066.5	28181.8
947.5934	2182.5513	28961.85	28075.9
947.7281	2184.0512	28937.3	28053.05
947.8628	2185.5504	28821.2	27938.05
947.9974	2187.0488	28647.3	27763.15
948.132	2188.5465	28598.7	27713.55
948.2666	2190.0435	28460.8	27575.8
948.4012	2191.5397	28391	27504.55
948.5357	2193.0353	28303.45	27419.15
948.6702	2194.5301	28132.8	27245.85
948.8047	2196.0241	28024.05	27139.85
948.9392	2197.5175	27948.8	27066.1
949.0736	2199.0101	27838.05	26948.8
949.208	2200.502	27706.85	26824.15
949.3424	2201.9931	27619.3	26734.5
949.4767	2203.4835	27521	26636.7
949.611	2204.9733	27459.55	26568
949.7453	2206.4622	27390	26504.55
949.8796	2207.9505	27316.95	26430.4
950.0138	2209.438	27144.25	26261.4
950.148	2210.9248	27076.25	26190.75
950.2822	2212.4109	26999.2	26117.95
950.4164	2213.8962	26879	25989
950.5505	2215.3809	26865.15	25981.75
950.6846	2216.8648	26777.6	25891.85
950.8186	2218.3479	26682.1	25792.55
950.9527	2219.8304	26569.15	25681.35
951.0867	2221.3121	26461.95	25574.25
951.2207	2222.7931	26360.2	25475
951.3546	2224.2733	26317.3	25431.85
951.4886	2225.7529	26167.85	25282.6
951.6225	2227.2317	26061.65	25174.5
951.7563	2228.7098	26051.3	25164
951.8902	2230.1872	25916	25033.5
952.024	2231.6638	25874.05	24989.75
952.1578	2233.1397	25714.55	24822.65
952.2916	2234.6149	25725.25	24841.1
952.4253	2236.0894	25598.2	24713.15
952.559	2237.5632	25541.65	24655.95
952.6927	2239.0362	25416.85	24532.35
952.8263	2240.5085	25326.85	24443.75
952.9599	2241.9801	25271.8	24389.4
953.0935	2243.4509	25203.05	24317.85
953.2271	2244.921	25088.45	24204.4
953.3606	2246.3904	24996.75	24108.65
953.4941	2247.8591	24927.65	24042.25
953.6276	2249.3271	24852.15	23968.5
953.7611	2250.7943	24749.1	23862.6
953.8945	2252.2608	24643.8	23759.7
954.0279	2253.7266	24575.25	23691.8
954.1612	2255.1917	24516.7	23633.1
954.2946	2256.656	24387.05	23501.7
954.4279	2258.1197	24357.05	23474.35
954.5612	2259.5826	24288.45	23402.85
954.6944	2261.0447	24258.95	23373.85
954.8276	2262.5062	24128.5	23241.95
954.9608	2263.9669	24054.95	23168.05
955.094	2265.4269	24048.45	23165.25
955.2271	2266.8862	23956.1	23074.2
955.3602	2268.3448	23908.55	23024.25
955.4933	2269.8026	23879.55	22993.95
955.6264	2271.2598	23771.2	22886.3
955.7594	2272.7162	23701.95	22817.45
955.8924	2274.1719	23592.4	22709.25
956.0253	2275.6268	23511.3	22628
956.1583	2277.0811	23466.1	22578.3
956.2912	2278.5346	23400.45	22516.3
956.4241	2279.9874	23335.3	22447.75
956.5569	2281.4395	23288.7	22405.65
956.6897	2282.8908	23189.05	22301
956.8225	2284.3414	23167.4	22280.25
956.9553	2285.7914	23064.85	22182.95
957.088	2287.2406	22996.55	22111.4
957.2207	2288.689	22941.7	22056.3
957.3534	2290.1368	22862.45	21975.15
957.486	2291.5838	22770.25	21883.9
957.6186	2293.0302	22718.55	21832.8
957.7512	2294.4758	22627.5	21741.85
957.8838	2295.9206	22518.65	21632.75
958.0163	2297.3648	22454.7	21569.3
958.1488	2298.8082	22456.35	21570.9
958.2813	2300.251	22384.75	21502.4
958.4137	2301.693	22274.45	21388.8
958.5461	2303.1343	22249.9	21364.1
958.6785	2304.5748	22157.9	21273
958.8108	2306.0147	22101.85	21216.3
958.9432	2307.4538	21984.3	21098.85
959.0754	2308.8922	21924.4	21041.2
959.2077	2310.3299	21844.7	20959.6
959.3399	2311.7669	21777.6	20892.95
959.4721	2313.2031	21721.05	20836.4
959.6043	2314.6387	21663.3	20779.15
959.7365	2316.0735	21572.55	20686.05
959.8686	2317.5076	21541.4	20656.3
960.0006	2318.941	21516.75	20632.9
960.1327	2320.3737	21429	20542.1
960.2647	2321.8056	21306.95	20418.45
960.3967	2323.2369	21307.2	20421.3
960.5287	2324.6674	21255.6	20367.9
960.6606	2326.0972	21150.75	20264.8
960.7925	2327.5263	21044.65	20160.4
960.9244	2328.9547	20967.3	20082.9
961.0562	2330.3823	20910.7	20024.55
961.1881	2331.8092	20914.25	20026.65
961.3198	2333.2355	20759.75	19873.95
961.4516	2334.661	20767.3	19880.5
961.5833	2336.0858	20714.8	19826.95
961.715	2337.5098	20673.45	19788.15
961.8467	2338.9332	20619.3	19732.6
961.9783	2340.3558	20546.9	19658.75
962.1099	2341.7778	20473.1	19587.7
962.2415	2343.199	20383.75	19497
962.373	2344.6195	20307.65	19422.55
962.5045	2346.0393	20280.75	19397.2
962.636	2347.4583	20266.45	19380.7
962.7675	2348.8767	20159.05	19271.9
962.8989	2350.2943	20086.05	19200.4
963.0303	2351.7113	20031.85	19145.95
963.1617	2353.1275	19947.45	19061.7
963.293	2354.543	19889.15	18996.1
963.4243	2355.9578	19848.05	18964.6
963.5556	2357.3718	19722.6	18838.75
963.6868	2358.7852	19651.6	18764.6
963.818	2360.1978	19572.15	18687.4
963.9492	2361.6098	19541.25	18658.9
964.0803	2363.021	19492.9	18603.6
964.2114	2364.4315	19424.95	18539.25
964.3425	2365.8413	19371.65	18487.6
964.4736	2367.2504	19268.45	18384.9
964.6046	2368.6587	19177.8	18292.5
964.7356	2370.0664	19086.2	18199.85
964.8666	2371.4733	19062.95	18178.2
964.9975	2372.8795	18982.65	18098.3
965.1284	2374.285	18922.55	18037.35
965.2593	2375.6899	18827.75	17944.85
965.3901	2377.0939	18753.45	17870.4
965.5209	2378.4973	18693.85	17809.25
965.6517	2379.9	18625.05	17741.7
965.7825	2381.3019	18575.1	17692
965.9132	2382.7032	18529.2	17647.7
966.0439	2384.1037	18453.7	17570.4
966.1745	2385.5035	18391.25	17507.1
966.3051	2386.9027	18362.65	17478.9
966.4357	2388.3011	18295.65	17407.4
966.5663	2389.6987	18237.6	17353.7
966.6968	2391.0957	18183.95	17298.85
966.8273	2392.492	18081.3	17199.05
966.9578	2393.8876	17969	17083.3
967.0882	2395.2824	17911.85	17027.75
967.2186	2396.6765	17859.75	16977.85
967.349	2398.07	17785.6	16901.95
967.4793	2399.4627	17763.5	16878.95
967.6097	2400.8547	17706.3	16823.5
967.7399	2402.246	17654.55	16764.15
967.8702	2403.6366	17532.35	16649.25
968.0004	2405.0265	17463.85	16580.2
968.1306	2406.4156	17394.1	16506.85
968.2607	2407.8041	17316.75	16430.85
968.3909	2409.1918	17234.55	16348.05
968.521	2410.5789	17196.55	16311.6
968.651	2411.9652	17108.9	16221.65
968.781	2413.3508	17063.05	16176.95
968.911	2414.7358	16981.45	16095.35
969.041	2416.12	16906.8	16023.1
969.1709	2417.5035	16891.9	16008.8
969.3008	2418.8863	16782.25	15898.45
969.4307	2420.2684	16757.6	15873.5
969.5606	2421.6497	16668.55	15785
969.6904	2423.0304	16575.9	15691.7
969.8201	2424.4104	16547.6	15662.5
969.9499	2425.7896	16514.75	15629.7
970.0796	2427.1682	16462.2	15576.5
970.2093	2428.546	16419.95	15535.8
970.3389	2429.9232	16376.3	15488.95
970.4685	2431.2996	16332.2	15447.25
970.5981	2432.6753	16286.1	15402.2
970.7277	2434.0503	16236.85	15351.9
970.8572	2435.4246	16165	15284.15
970.9867	2436.7982	16084.15	15197.75
971.1161	2438.1711	16025.95	15143.15
971.2456	2439.5433	15993.85	15108.85
971.375	2440.9148	15923.65	15036.75
971.5043	2442.2856	15826.6	14943.1
971.6336	2443.6557	15793.5	14908.9
971.7629	2445.025	15746.75	14864.55
971.8922	2446.3937	15733.1	14849.1
972.0214	2447.7617	15639.3	14753.1
972.1506	2449.1289	15639.95	14754.65
972.2798	2450.4955	15577.55	14691.1
972.4089	2451.8613	15532	14648.85
972.538	2453.2265	15489.45	14605.65
972.6671	2454.5909	15459.65	14573.6
972.7961	2455.9546	15422.3	14538.8
972.9251	2457.3177	15331.05	14447
973.0541	2458.68	15282.95	14396.85
973.1831	2460.0416	15252.05	14368.15
973.312	2461.4025	15245.45	14361.15
973.4408	2462.7627	15193.35	14296.15
973.5697	2464.1222	15128.2	14245.35
973.6985	2465.4811	15101.75	14215.7
973.8273	2466.8392	15002	14117.55
973.956	2468.1966	14990.6	14105
974.0847	2469.5533	14970.6	14083.3
974.2134	2470.9093	14920.25	14036.2
974.3421	2472.2645	14843.6	13956.7
974.4707	2473.6191	14820.35	13937.4
974.5993	2474.973	14749.2	13864.1
974.7278	2476.3262	14697.4	13809.8
974.8563	2477.6787	14651.35	13769.25
974.9848	2479.0305	14580.9	13696.45
975.1132	2480.3816	14510.3	13625.6
975.2417	2481.7319	14445.85	13561.85
975.37	2483.0816	14371.45	13486.55
975.4984	2484.4306	14332.5	13449.05
975.6267	2485.7789	14304.75	13422.25
975.755	2487.1264	14278.45	13392.8
975.8833	2488.4733	14172.45	13290.65
976.0115	2489.8195	14136.35	13245.2
976.1397	2491.165	14092.35	13203.6
976.2678	2492.5097	14027.6	13140.2
976.3959	2493.8538	13977.55	13094.3
976.524	2495.1972	13911.95	13027.5
976.6521	2496.5398	13875.55	12989.05
976.7801	2497.8818	13834.9	12947.45
976.9081	2499.2231	13777.25	12891.25
977.036	2500.5637	13699.85	12813.55
977.164	2501.9035	13677.55	12792.95
977.2918	2503.2427	13643.65	12754.7
977.4197	2504.5812	13558.9	12674.55
977.5475	2505.919	13545.8	12658.85
977.6753	2507.256	13484.45	12602.85
977.8031	2508.5924	13445.7	12559.05
977.9308	2509.9281	13399.2	12508.9
978.0585	2511.2631	13367.7	12485.1
978.1861	2512.5974	13337.85	12453.95
978.3137	2513.9309	13267.35	12383.2
978.4413	2515.2638	13245.75	12333
978.5689	2516.596	13198.25	12314.95
978.6964	2517.9275	13103.1	12218.95
978.8239	2519.2583	13037.3	12152.15
978.9513	2520.5884	13006.85	12120.45
979.0788	2521.9178	12974.45	12092.3
979.2062	2523.2465	12954.95	12072.2
979.3335	2524.5745	12869.55	11986.6
979.4608	2525.9018	12831.75	11947.15
979.5881	2527.2284	12797.85	11916.05
979.7154	2528.5543	12776.25	11894.6
979.8426	2529.8796	12736	11851.9
979.9698	2531.2041	12687.7	11804.75
980.0969	2532.5279	12651.55	11768.95
980.224	2533.851	12658.75	11773.35
980.3511	2535.1735	12597.4	11712.35
980.4781	2536.4952	12539.6	11656.9
980.6052	2537.8163	12538.7	11652.75
980.7321	2539.1366	12498.65	11614.75
980.8591	2540.4562	12424.3	11537.45
980.986	2541.7752	12430.65	11548.15
981.1129	2543.0935	12380.75	11495.2
981.2397	2544.411	12383.45	11498.05
981.3665	2545.7279	12330.95	11446.65
981.4933	2547.0441	12328	11445.05
981.62	2548.3596	12296.55	11408.65
981.7467	2549.6744	12289.2	11404.15
981.8734	2550.9885	12220.55	11330.2
982.0001	2552.3019	12166.7	11284.55
982.1267	2553.6146	12156.75	11273.1
982.2532	2554.9266	12097.55	11214.15
982.3798	2556.2379	12065.2	11178.6
982.5063	2557.5485	12051.7	11169.05
982.6327	2558.8585	12010.85	11117.95
982.7592	2560.1677	11981.75	11094.35
982.8856	2561.4762	11964.75	11081.7
983.0119	2562.7841	11942.55	11055.6
983.1383	2564.0913	11911.05	11029.55
983.2646	2565.3977	11882	10997
983.3908	2566.7035	11843.8	10959.2
983.517	2568.0086	11812.25	10927.55
983.6432	2569.313	11786.4	10901.3
983.7694	2570.6167	11753.8	10868.85
983.8955	2571.9197	11757.65	10872.4
984.0216	2573.222	11733.55	10845.25
984.1476	2574.5236	11702.85	10819.2
984.2737	2575.8246	11649.2	10762.3
984.3996	2577.1248	11638.65	10749.75
984.5256	2578.4244	11597.5	10713.7
984.6515	2579.7232	11595.3	10712.9
984.7774	2581.0214	11555	10647.5
984.9032	2582.3189	11525.3	10641.85
985.029	2583.6157	11489.6	10604.2
985.1548	2584.9118	11497.45	10613.35
985.2806	2586.2072	11410.35	10527.6
985.4063	2587.5019	11407.55	10524.65
985.5319	2588.7959	11355.55	10469.6
985.6576	2590.0893	11328.45	10443.45
985.7832	2591.3819	11289.3	10407.25
985.9087	2592.6739	11242.25	10360.75
986.0343	2593.9652	11231.95	10348.2
986.1597	2595.2557	11198.75	10315.95
986.2852	2596.5456	11132.7	10246.85
986.4106	2597.8348	11094.35	10212.45
986.536	2599.1234	11046.95	10164
986.6614	2600.4112	11031.7	10148.05
986.7867	2601.6983	10984.75	10097.75
986.912	2602.9848	10953.3	10070.2
987.0372	2604.2705	10902.7	10011.5
987.1624	2605.5556	10881.1	9997.4
987.2876	2606.84	10817.75	9934.4
987.4128	2608.1237	10777.25	9892.6
987.5379	2609.4067	10735.55	9851.45
987.6629	2610.689	10711.2	9817.9
987.788	2611.9707	10662.85	9775.75
987.913	2613.2516	10639.5	9751.3
988.0379	2614.5319	10579.3	9696.85
988.1629	2615.8115	10532.65	9649.35
988.2878	2617.0903	10484.8	9600.45
988.4126	2618.3685	10422.4	9539.7
988.5375	2619.6461	10419.35	9535.95
988.6622	2620.9229	10388.45	9506.2
988.787	2622.199	10369.55	9483.85
988.9117	2623.4745	10339.45	9453.85
989.0364	2624.7493	10280.15	9398.65
989.161	2626.0234	10224.3	9340
989.2857	2627.2968	10189.25	9305.15
989.4102	2628.5695	10169	9284.65
989.5348	2629.8415	10138.35	9254.05
989.6593	2631.1128	10090.25	9204.3
989.7837	2632.3835	10024.6	9142.45
989.9082	2633.6535	9971.3	9089.3
990.0326	2634.9228	9964.7	9080.35
990.1569	2636.1914	9917	9033.95
990.2812	2637.4593	9916.45	9026.25
990.4055	2638.7265	9875.2	8991.05
990.5298	2639.9931	9856.25	8972.5
990.654	2641.259	9824.4	8938.65
990.7782	2642.5242	9771.7	8887.2
990.9023	2643.7887	9741.6	8858
991.0264	2645.0525	9726	8842.55
991.1505	2646.3156	9678.8	8793.15
991.2745	2647.5781	9636	8752.45
991.3985	2648.8398	9608.75	8726.35
991.5225	2650.1009	9609.6	8686.7
991.6464	2651.3613	9535.9	8652.25
991.7703	2652.6211	9511.25	8625.9
991.8942	2653.8801	9485.85	8601.1
992.018	2655.1385	9467.5	8581.75
992.1418	2656.3961	9430.75	8547.25
992.2655	2657.6531	9418.55	8534.6
992.3892	2658.9094	9420.75	8536.35
992.5129	2660.1651	9369.2	8485.9
992.6366	2661.42	9338.4	8453.65
992.7602	2662.6743	9325.6	8442.55
992.8837	2663.9279	9290.75	8405.9
993.0073	2665.1808	9254.7	8371.3
993.1307	2666.433	9211.9	8324.5
993.2542	2667.6846	9209.6	8325.85
993.3776	2668.9354	9184.4	8297.6
993.501	2670.1856	9153.6	8269.5
993.6244	2671.4351	9136.2	8253.45
993.7477	2672.6839	9095.25	8208.8
993.8709	2673.9321	9085	8202.35
993.9942	2675.1795	9060.3	8177.3
994.1174	2676.4263	9021.75	8139.35
994.2405	2677.6724	8977.95	8094.35
994.3637	2678.9179	8968.9	8083.25
994.4868	2680.1626	8943.85	8060.6
994.6098	2681.4067	8898.8	8013.3
994.7328	2682.6501	8883.15	7998.5
994.8558	2683.8928	8861.65	7977.5
994.9788	2685.1348	8804.8	7921.3
995.1017	2686.3761	8765.3	7881.4
995.2245	2687.6168	8743.45	7861.4
995.3474	2688.8568	8740.8	7857.25
995.4702	2690.0961	8674.75	7791.5
995.5929	2691.3348	8661.85	7776.35
995.7156	2692.5727	8642.4	7759
995.8383	2693.81	8618.35	7735.6
995.961	2695.0466	8574.55	7692.8
996.0836	2696.2826	8560.75	7675.1
996.2062	2697.5178	8552.3	7666.5
996.3287	2698.7524	8492.8	7609.45
996.4512	2699.9863	8481.2	7597.05
996.5737	2701.2195	8437.95	7555.7
996.6961	2702.452	8444.15	7558.55
996.8185	2703.6839	8405.4	7521.4
996.9408	2704.9151	8378.25	7492.85
997.0631	2706.1456	8365.35	7482.65
997.1854	2707.3755	8287.2	7402.5
997.3077	2708.6046	8311.1	7425.9
997.4299	2709.8331	8296	7412.35
997.552	2711.0609	8242.9	7359.45
997.6742	2712.2881	8197.85	7316.45
997.7963	2713.5145	8200.65	7313.85
997.9183	2714.7403	8173.2	7289.6
998.0403	2715.9654	8126.8	7241.6
998.1623	2717.1899	8143	7258.9
998.2842	2718.4136	8112.75	7229.85
998.4062	2719.6367	8064.45	7181.8
998.528	2720.8591	8051.3	7161.2
998.6498	2722.0809	8008.35	7125.8
998.7716	2723.3019	7989.8	7102.55
998.8934	2724.5223	7978.55	7095.75
999.0151	2725.7421	7952.65	7066.9
999.1368	2726.9611	7932.1	7046.3
999.2584	2728.1795	7912.5	7023.55
999.38	2729.3972	7879.1	6996.95
999.5016	2730.6142	7832.05	6940
999.6231	2731.8306	7771.3	6885.8
999.7446	2733.0462	7748.9	6864.1
999.8661	2734.2612	7701.85	6814.9
999.9875	2735.4756	7672.45	6786.3
1000.1089	2736.6892	7643.95	6759.65
1000.2302	2737.9022	7583.55	6699.15
1000.3515	2739.1145	7570.2	6685.25
1000.4728	2740.3262	7539.75	6647.65
1000.594	2741.5372	7501.35	6618
1000.7152	2742.7475	7465.35	6580.65
1000.8363	2743.9571	7459	6574.1
1000.9575	2745.1661	7430	6543.75
1001.0785	2746.3744	7403.7	6520.8
1001.1996	2747.582	7367.9	6484.6
1001.3206	2748.7889	7325.8	6440.65
1001.4415	2749.9952	7283.65	6400.35
1001.5625	2751.2008	7263.9	6379.3
1001.6833	2752.4057	7264.25	6376.8
1001.8042	2753.61	7236.7	6350.75
1001.925	2754.8136	7189.1	6304.1
1002.0458	2756.0165	7180	6296.8
1002.1665	2757.2188	7163.5	6279.7
1002.2872	2758.4204	7131.75	6248.5
1002.4078	2759.6213	7081.8	6197.5
1002.5285	2760.8215	7092.55	6205.1
1002.649	2762.0211	7048.85	6164.5
1002.7696	2763.22	7047.85	6160.8
1002.8901	2764.4182	7013.3	6128.25
1003.0106	2765.6158	6970.35	6086.35
1003.131	2766.8127	6961.7	6077.5
1003.2514	2768.009	6931.65	6047.95
1003.3717	2769.2045	6923.55	6037
1003.492	2770.3994	6896.8	6011.9
1003.6123	2771.5936	6871.05	5986.35
1003.7325	2772.7872	6837.45	5954.25
1003.8527	2773.9801	6819.5	5933.9
1003.9729	2775.1723	6802.4	5903.2
1004.093	2776.3639	6756.35	5873.7
1004.2131	2777.5548	6728.05	5842.65
1004.3331	2778.745	6717.35	5830.75
1004.4531	2779.9346	6700.7	5818.35
1004.5731	2781.1235	6676.5	5789.6
1004.693	2782.3117	6666.65	5784.7
1004.8129	2783.4992	6626.65	5742.45
1004.9328	2784.6861	6589.95	5705.95
1005.0526	2785.8723	6591.85	5705.7
1005.1723	2787.0579	6570.35	5685.2
1005.2921	2788.2428	6552.95	5669.15
1005.4118	2789.427	6531.85	5649.2
1005.5314	2790.6106	6496.85	5612.85
1005.651	2791.7935	6491.1	5607.15
1005.7706	2792.9757	6475.8	5592.5
1005.8902	2794.1573	6452.65	5568.9
1006.0097	2795.3382	6431.9	5549
1006.1291	2796.5184	6423.9	5540.25
1006.2485	2797.698	6389.3	5503.95
1006.3679	2798.8769	6374	5489.85
1006.4873	2800.0551	6371.85	5487.25
1006.6066	2801.2327	6353.3	5464.65
1006.7258	2802.4096	6349.9	5465.85
1006.8451	2803.5859	6335.25	5451.45
1006.9642	2804.7615	6306.2	5421.5
1007.0834	2805.9364	6297.6	5416.75
1007.2025	2807.1106	6293.25	5410.2
1007.3216	2808.2842	6307.9	5423.4
1007.4406	2809.4572	6295.4	5411.35
1007.5596	2810.6294	6299.65	5415.9
1007.6785	2811.801	6303.25	5420.65
1007.7975	2812.972	6315.9	5431.9
1007.9163	2814.1423	6325.65	5441.55
1008.0352	2815.3119	6367.55	5483.4
1008.154	2816.4808	6363.8	5481.75
1008.2727	2817.6491	6368.75	5483.95
1008.3914	2818.8167	6388.4	5507.7
1008.5101	2819.9837	6436.8	5549.75
1008.6288	2821.15	6420.45	5536.85
1008.7474	2822.3157	6450.5	5567.5
1008.8659	2823.4807	6473.55	5592.3
1008.9844	2824.645	6504.15	5618.45
1009.1029	2825.8086	6530.75	5648.4
1009.2214	2826.9716	6548.1	5665.7
1009.3398	2828.134	6603.45	5722.1
1009.4581	2829.2957	6617.65	5733.4
1009.5764	2830.4567	6613.6	5731
1009.6947	2831.617	6614.9	5731.55
1009.813	2832.7767	6621.45	5739.45
1009.9312	2833.9358	6611.3	5727.4
1010.0493	2835.0941	6592.35	5707.8
1010.1675	2836.2519	6566.1	5683.65
1010.2855	2837.4089	6539.9	5655
1010.4036	2838.5653	6499.8	5615.75
1010.5216	2839.7211	6471.75	5590.05
1010.6396	2840.8761	6470.15	5584.65
1010.7575	2842.0306	6481.4	5598.5
1010.8754	2843.1843	6491.95	5609.7
1010.9932	2844.3374	6478	5595.15
1011.111	2845.4899	6505.55	5623.75
1011.2288	2846.6417	6525.6	5643.15
1011.3465	2847.7928	6567.2	5685.2
1011.4642	2848.9433	6596.6	5713.1
1011.5818	2850.0931	6617.3	5735.05
1011.6995	2851.2422	6662.65	5776.45
1011.817	2852.3907	6697.45	5813.15
1011.9345	2853.5385	6708.1	5824.1
1012.052	2854.6857	6746.65	5853.9
1012.1695	2855.8323	6743.75	5862.05
1012.2869	2856.9781	6764	5882
1012.4042	2858.1233	6779.9	5896.6
1012.5216	2859.2679	6799.9	5917.15
1012.6389	2860.4118	6818.1	5934.7
1012.7561	2861.555	6843.55	5956.8
1012.8733	2862.6976	6852.35	5967.65
1012.9905	2863.8395	6849.55	5967.35
1013.1076	2864.9808	6861.05	5978.85
1013.2247	2866.1214	6837.6	5955.5
1013.3417	2867.2614	6858.7	5974.9
1013.4587	2868.4007	6838.45	5954.8
1013.5757	2869.5393	6843.7	5958.1
1013.6926	2870.6773	6828.35	5941.45
1013.8095	2871.8146	6828.45	5942.05
1013.9263	2872.9513	6784.15	5898.2
1014.0431	2874.0874	6759.8	5876.45
1014.1599	2875.2227	6731.35	5847
1014.2766	2876.3574	6708.1	5824.3
1014.3933	2877.4915	6660.85	5778.15
1014.51	2878.6249	6622.7	5739.3
1014.6266	2879.7577	6594.05	5708.6
1014.7431	2880.8898	6569.55	5674.3
1014.8596	2882.0212	6538.4	5655.05
1014.9761	2883.152	6522.3	5639
1015.0925	2884.2821	6476.4	5594.1
1015.2089	2885.4116	6461.3	5578
1015.3253	2886.5405	6443.65	5560.05
1015.4416	2887.6686	6446.6	5560.45
1015.5579	2888.7962	6414.25	5530.7
1015.6741	2889.923	6409.6	5525.65
1015.7903	2891.0493	6382.3	5500.6
1015.9065	2892.1748	6358.9	5477.3
1016.0226	2893.2997	6363.8	5481.15
1016.1387	2894.424	6356.3	5475.15
1016.2547	2895.5476	6349.2	5466.35
1016.3707	2896.6706	6363.95	5481.95
1016.4866	2897.7929	6349.45	5465.35
1016.6025	2898.9145	6357.1	5473.25
1016.7184	2900.0355	6350.75	5466.5
1016.8342	2901.1559	6356.6	5471
1016.95	2902.2756	6366.8	5482.65
1017.0658	2903.3946	6373.45	5490.15
1017.1815	2904.513	6359.5	5472.5
1017.2971	2905.6308	6363.5	5481.35
1017.4127	2906.7479	6366.75	5482.6
1017.5283	2907.8643	6364.3	5479.3
1017.6439	2908.9801	6367.3	5483.05
1017.7594	2910.0953	6340.6	5458.8
1017.8748	2911.2098	6326.85	5440.7
1017.9902	2912.3236	6326.95	5434.4
1018.1056	2913.4368	6287.75	5400.8
1018.2209	2914.5494	6248.4	5365.2
1018.3362	2915.6613	6240.8	5352
1018.4515	2916.7725	6188.95	5302.5
1018.5667	2917.8831	6171.55	5287.25
1018.6819	2918.9931	6126.65	5240.55
1018.797	2920.1024	6072.45	5186.9
1018.9121	2921.211	6060.8	5178.25
1019.0271	2922.319	6045.35	5163.3
1019.1421	2923.4264	6014.35	5131.1
1019.2571	2924.5331	6000.15	5119.25
1019.372	2925.6391	5964.05	5081.25
1019.4869	2926.7445	5942.5	5060.45
1019.6017	2927.8493	5956.3	5072.15
1019.7165	2928.9534	5929.6	5045.8
1019.8313	2930.0569	5918.95	5030.35
1019.946	2931.1597	5916.15	5031.65
1020.0606	2932.2619	5897.55	5014.55
1020.1753	2933.3634	5877.75	4994.4
1020.2899	2934.4643	5876.9	4988.05
1020.4044	2935.5645	5850.35	4960.8
1020.5189	2936.6641	5818.55	4930.35
1020.6334	2937.763	5800	4917.2
1020.7478	2938.8613	5750.45	4865.4
1020.8622	2939.959	5713	4823.1
1020.9765	2941.056	5640.35	4757.6
1021.0908	2942.1523	5594.15	4708.65
1021.2051	2943.248	5501	4616.3
1021.3193	2944.3431	5437.35	4554
1021.4334	2945.4375	5348.4	4465
1021.5476	2946.5313	5255.65	4374.9
1021.6617	2947.6244	5155.75	4269.75
1021.7757	2948.7169	5097.15	4213.4
1021.8897	2949.8087	5004.25	4119.75
1022.0037	2950.8999	4908.05	4026.5
1022.1176	2951.9904	4857	3974.4
1022.2315	2953.0803	4792.75	3911
1022.3453	2954.1696	4723.85	3841.05
1022.4591	2955.2582	4689.95	3806.85
1022.5728	2956.3462	4619.3	3735.2
1022.6865	2957.4335	4595	3712.25
1022.8002	2958.5202	4563.7	3677.25
1022.9138	2959.6062	4522.3	3641.15
1023.0274	2960.6916	4491.15	3606.4
1023.141	2961.7764	4471.35	3588.75
1023.2545	2962.8605	4437.1	3551.35
1023.3679	2963.9439	4414	3532.6
1023.4813	2965.0267	4383.7	3499.8
1023.5947	2966.1089	4391.55	3485.1
1023.708	2967.1905	4340.15	3456.7
1023.8213	2968.2714	4335.65	3454.35
1023.9346	2969.3516	4335.6	3450.75
1024.0478	2970.4312	4332.5	3444.05
1024.1609	2971.5102	4292.4	3409.55
1024.274	2972.5885	4290.9	3407.3
1024.3871	2973.6662	4277.95	3389.1
1024.5002	2974.7432	4265.55	3384.1
1024.6132	2975.8196	4246.05	3363.15
1024.7261	2976.8954	4233.85	3351.4
1024.839	2977.9705	4204.8	3321.75
1024.9519	2979.045	4201.95	3318.95
1025.0647	2980.1188	4175.65	3292.95
1025.1775	2981.192	4158	3275.25
1025.2902	2982.2645	4120.95	3236.9
1025.4029	2983.3364	4107.1	3223.35
1025.5156	2984.4077	4059.35	3177.15
1025.6282	2985.4783	4044.7	3154.45
1025.7407	2986.5483	4001.45	3118.65
1025.8532	2987.6177	3966.7	3086.7
1025.9657	2988.6864	3934.45	3051.25
1026.0782	2989.7545	3896.45	3014
1026.1906	2990.8219	3878.25	2995.5
1026.3029	2991.8887	3840.5	2955.85
1026.4152	2992.9548	3810.6	2928.65
1026.5275	2994.0204	3783	2899.1
1026.6397	2995.0852	3750.5	2867.45
1026.7519	2996.1495	3730.45	2846.3
1026.864	2997.2131	3685.45	2801.45
1026.9761	2998.276	3659.85	2777.65
1027.0882	2999.3383	3628.75	2744.2
1027.2002	3000.4	3608.4	2725.2
1027.3122	3001.4611	3590.7	2707.6
1027.4241	3002.5215	3572.8	2688.95
1027.536	3003.5812	3549.1	2666.05
1027.6478	3004.6404	3528.1	2645.4
1027.7596	3005.6989	3520.35	2635.4
1027.8714	3006.7567	3498.85	2617.35
1027.9831	3007.8139	3494.15	2583.15
1028.0947	3008.8705	3465.55	2582.45
1028.2064	3009.9264	3445.55	2558.6
1028.3179	3010.9818	3442.4	2561.2
1028.4295	3012.0364	3430	2546
1028.541	3013.0905	3407.95	2524.45
1028.6524	3014.1439	3396.05	2512.9
1028.7638	3015.1966	3372.25	2490.9
1028.8752	3016.2487	3360.8	2477.9
1028.9865	3017.3002	3365.15	2478.15
1029.0978	3018.3511	3341.8	2459.8
1029.209	3019.4013	3333.5	2449.75
1029.3202	3020.4509	3324.3	2444.05
1029.4314	3021.4998	3319.4	2435.9
1029.5425	3022.5481	3312.1	2429.45
1029.6535	3023.5958	3296.15	2413
1029.7645	3024.6428	3286.95	2403.85
1029.8755	3025.6892	3276.25	2393.65
1029.9864	3026.735	3279.2	2396.6
1030.0973	3027.7802	3257.75	2374.75
1030.2082	3028.8247	3245.1	2363.8
1030.319	3029.8685	3228.1	2343.55
1030.4297	3030.9118	3229	2347.1
1030.5404	3031.9544	3205.4	2322.85
1030.6511	3032.9963	3209.05	2327.1
1030.7617	3034.0376	3219.75	2338.4
1030.8723	3035.0783	3205.8	2318.7
1030.9829	3036.1184	3194.05	2310.25
1031.0934	3037.1578	3172.1	2289.15
1031.2038	3038.1966	3166.8	2283.7
1031.3142	3039.2348	3162.3	2281.5
1031.4246	3040.2723	3154.15	2262.85
1031.5349	3041.3092	3152.1	2271.6
1031.6452	3042.3455	3134.1	2249.05
1031.7554	3043.3811	3123.85	2239.15
1031.8656	3044.4161	3112.9	2227.8
1031.9758	3045.4505	3107.45	2225.95
1032.0859	3046.4842	3110	2226.5
1032.1959	3047.5173	3091.75	2209.6
1032.3059	3048.5498	3067.65	2187.05
1032.4159	3049.5816	3059.85	2178.6
1032.5258	3050.6128	3055.2	2172.55
1032.6357	3051.6434	3051.9	2168.35
1032.7455	3052.6734	3028.85	2144.7
1032.8553	3053.7027	3032.7	2149.75
1032.9651	3054.7314	3012.05	2127.55
1033.0748	3055.7594	3013.7	2130.45
1033.1845	3056.7868	3001.65	2119.35
1033.2941	3057.8136	2974.95	2092.65
1033.4037	3058.8398	2983.8	2102.75
1033.5132	3059.8653	2970.45	2088.75
1033.6227	3060.8902	2948.4	2064.95
1033.7321	3061.9145	2936.95	2055.35
1033.8415	3062.9381	2930.4	2046.75
1033.9509	3063.9612	2936.85	2037.9
1034.0602	3064.9835	2928.95	2045.65
1034.1694	3066.0053	2904.3	2017.9
1034.2787	3067.0264	2896.15	2011.95
1034.3878	3068.0469	2891.7	2008.7
1034.497	3069.0668	2875.4	1988.7
1034.6061	3070.086	2872.35	1990.85
1034.7151	3071.1046	2848.55	1965.85
1034.8241	3072.1226	2847.05	1963.1
1034.9331	3073.1399	2830.6	1948.65
1035.042	3074.1567	2816.7	1934.2
1035.1508	3075.1727	2805.05	1919.5
1035.2597	3076.1882	2778.25	1894.95
1035.3684	3077.203	2780.8	1897.8
1035.4772	3078.2173	2770.1	1885.3
1035.5859	3079.2308	2761.55	1877.4
1035.6945	3080.2438	2742.4	1858.05
1035.8031	3081.2561	2727.8	1844.85
1035.9117	3082.2678	2718.3	1838.6
1036.0202	3083.2789	2715.35	1829.4
1036.1286	3084.2893	2703	1821.45
1036.2371	3085.2991	2689.45	1806.8
1036.3454	3086.3083	2687.2	1800.5
1036.4538	3087.3169	2673.3	1788.95
1036.562	3088.3248	2670.65	1787.95
1036.6703	3089.3321	2637.75	1752.6
1036.7785	3090.3388	2617.3	1735.4
1036.8866	3091.3449	2628.05	1746.2
1036.9948	3092.3503	2622.5	1736.65
1037.1028	3093.3551	2610.85	1729.15
1037.2108	3094.3593	2607.25	1724.9
1037.3188	3095.3629	2582.65	1700.45
1037.4267	3096.3658	2582.35	1698.75
1037.5346	3097.3681	2574.85	1692.4
1037.6425	3098.3698	2565.2	1680.4
1037.7503	3099.3708	2555.8	1665.9
1037.858	3100.3713	2538.8	1656.05
1037.9657	3101.3711	2547.75	1663.35
1038.0734	3102.3702	2630	1607.65
1038.181	3103.3688	2523.2	1637.9
1038.2886	3104.3667	2505.75	1625.5
1038.3961	3105.364	2491.75	1609.5
1038.5036	3106.3607	2482.3	1599.15
1038.611	3107.3568	2467.1	1585
1038.7184	3108.3522	2456.25	1574.7
1038.8257	3109.347	2443.5	1558.4
1038.933	3110.3412	2440.6	1553.45
1039.0403	3111.3348	2432.1	1549.5
1039.1475	3112.3277	2420.1	1536.25
1039.2547	3113.32	2415.95	1535.65
1039.3618	3114.3117	2399.4	1516.7
1039.4689	3115.3028	2393.85	1510.2
1039.5759	3116.2932	2394.9	1509.65
1039.6829	3117.2831	2390.4	1503.2
1039.7898	3118.2723	2380.65	1498.8
1039.8967	3119.2608	2360.45	1477.55
1040.0035	3120.2488	2351.85	1467.2
1040.1103	3121.2361	2338.2	1454.25
1040.2171	3122.2229	2321	1438.4
1040.3238	3123.209	2331.6	1445.7
1040.4305	3124.1944	2322.8	1441.2
1040.5371	3125.1793	2320.65	1436.15
1040.6437	3126.1635	2302.15	1420.95
1040.7502	3127.1471	2286.75	1403.1
1040.8567	3128.1301	2281.55	1401.75
1040.9631	3129.1125	2291.6	1409.1
1041.0695	3130.0942	2296.8	1416.35
1041.1759	3131.0753	2280.75	1388.2
1041.2822	3132.0558	2262.7	1377.6
1041.3884	3133.0357	2265.4	1382.25
1041.4946	3134.015	2254.15	1369.95
1041.6008	3134.9936	2244.4	1360.6
1041.7069	3135.9716	2256.4	1351.85
1041.813	3136.949	2229.8	1345.35
1041.919	3137.9258	2230.7	1344.1
1042.025	3138.902	2229.95	1342.25
1042.1309	3139.8775	2217.5	1335.15
1042.2368	3140.8524	2213.95	1331.65
1042.3427	3141.8267	2208.85	1324.1
1042.4485	3142.8004	2197.9	1314.8
1042.5542	3143.7735	2206.9	1318.05
1042.6599	3144.7459	2195.5	1310.1
1042.7656	3145.7178	2183.65	1300.2
1042.8712	3146.689	2168.55	1286.8
1042.9768	3147.6596	2175.2	1290.45
1043.0823	3148.6295	2164.55	1279.9
1043.1878	3149.5989	2145.75	1263.3
1043.2932	3150.5676	2139.5	1260.15
1043.3986	3151.5357	2135.35	1253.8
1043.5039	3152.5032	2134.85	1251.65
1043.6092	3153.4701	2127.75	1246
1043.7145	3154.4364	2126.4	1242.8
1043.8197	3155.402	2114.9	1233.3
1043.9248	3156.367	2107.5	1221.95
1044.03	3157.3315	2135.6	1214.5
1044.135	3158.2952	2096.05	1212.6
1044.24	3159.2584	2091.25	1209.55
1044.345	3160.221	2085.75	1203.2
1044.4499	3161.1829	2083.65	1201.85
1044.5548	3162.1442	2073.8	1190.5
1044.6596	3163.105	2065.15	1181.55
1044.7644	3164.065	2045.45	1163.35
1044.8692	3165.0245	2042.9	1157.15
1044.9739	3165.9834	2025.75	1145.85
1045.0785	3166.9416	2033.5	1151.2
1045.1831	3167.8993	2017.1	1134.65
1045.2877	3168.8563	2000.9	1116.9
1045.3922	3169.8127	2004.45	1123.7
1045.4966	3170.7684	2001.35	1118
1045.6011	3171.7236	1991.9	1109.25
1045.7054	3172.6782	1989.45	1107.1
1045.8098	3173.6321	1977.75	1094.6
1045.914	3174.5854	1983.85	1095.9
1046.0183	3175.5381	1979.45	1097.75
1046.1224	3176.4902	1966.25	1084.3
1046.2266	3177.4417	1958.65	1075.7
1046.3307	3178.3926	1953.05	1072.1
1046.4347	3179.3428	1952.6	1071.55
1046.5387	3180.2924	1943.85	1061.15
1046.6427	3181.2415	1941.85	1059.9
1046.7466	3182.1899	1931	1045.7
1046.8504	3183.1377	1917.15	1035.35
1046.9542	3184.0848	1916.05	1029.5
1047.058	3185.0314	1913.15	1028.9
1047.1617	3185.9773	1913	1030.15
1047.2654	3186.9227	1914.65	1032
1047.369	3187.8674	1894.35	1012.2
1047.4726	3188.8115	1901.2	1015.85
1047.5761	3189.755	1890.35	1008.5
1047.6796	3190.6979	1885.15	1001.6
1047.783	3191.6402	1877.8	995.9
1047.8864	3192.5818	1867.75	986.35
1047.9898	3193.5229	1879.85	981.3
1048.0931	3194.4633	1868.15	986.6
1048.1963	3195.4031	1861.65	978.75
1048.2995	3196.3423	1853.5	971.3
1048.4027	3197.2809	1844.35	961.9
1048.5058	3198.2189	1844.45	960.75
1048.6089	3199.1563	1849.85	952.9
1048.7119	3200.0931	1845.95	965.15
1048.8148	3201.0292	1824.4	941.8
1048.9178	3201.9648	1828.3	946.1
1049.0206	3202.8997	1821.4	936.25
1049.1235	3203.834	1815.85	933.35
1049.2262	3204.7677	1804.15	922.45
1049.329	3205.7008	1809.05	924.45
1049.4317	3206.6333	1801.65	917.95
1049.5343	3207.5652	1801.8	917.2
1049.6369	3208.4964	1792.6	907.8
1049.7394	3209.4271	1780.9	900.2
1049.8419	3210.3571	1785.95	903.3
1049.9444	3211.2865	1775.65	894.1
1050.0468	3212.2154	1773.05	888.05
1050.1491	3213.1436	1768.15	882.8
1050.2514	3214.0712	1771.55	881.2
1050.3537	3214.9982	1760.55	881.55
1050.4559	3215.9246	1752.5	870.2
1050.5581	3216.8503	1747.05	865.3
1050.6602	3217.7755	1749.85	867.25
1050.7623	3218.7001	1745.25	863.85
1050.8643	3219.624	1739.1	854.8
1050.9663	3220.5473	1739.4	856.8
1051.0682	3221.4701	1725.3	841.85
1051.1701	3222.3922	1719.95	836.1
1051.2719	3223.3137	1724.4	839.6
1051.3737	3224.2346	1712.8	830.25
1051.4754	3225.1549	1707.45	825.15
1051.5771	3226.0746	1709.4	827.6
1051.6788	3226.9937	1709.35	826
1051.7804	3227.9121	1690.9	808.45
1051.8819	3228.83	1686.25	804.9
1051.9834	3229.7473	1685.8	802.3
1052.0849	3230.6639	1678.2	795.8
1052.1863	3231.5799	1677.15	797.15
1052.2876	3232.4954	1675.5	791.35
1052.3889	3233.4102	1674.45	793.25
1052.4902	3234.3244	1666	782.05
1052.5914	3235.238	1658.35	776.75
1052.6926	3236.151	1673.05	767.95
1052.7937	3237.0634	1649.95	768.45
1052.8948	3237.9752	1645.45	762.75
1052.9958	3238.8864	1642	758.5
1053.0968	3239.797	1634.35	753.25
1053.1977	3240.7069	1634.4	750.45
1053.2986	3241.6163	1631.25	746.95
1053.3994	3242.5251	1624.95	743.7
1053.5002	3243.4332	1614.15	732.5
1053.6009	3244.3408	1613.2	730.15
1053.7016	3245.2477	1611.05	727.55
1053.8022	3246.154	1611.8	726.9
1053.9028	3247.0598	1604.75	722.8
1054.0034	3247.9649	1594.25	712
1054.1039	3248.8694	1584.75	702.55
1054.2043	3249.7733	1589.1	708.85
1054.3047	3250.6766	1581.55	700.45
1054.4051	3251.5793	1575.7	691.85
1054.5054	3252.4814	1563.95	682.5
1054.6056	3253.3829	1567.8	686.15
1054.7058	3254.2838	1563.55	681.4
1054.806	3255.1841	1565.4	684.05
1054.9061	3256.0838	1558.1	675.55
1055.0061	3256.9829	1555.6	675
1055.1062	3257.8814	1543.85	659.1
1055.2061	3258.7792	1551.45	668.15
1055.306	3259.6765	1532.15	647.05
1055.4059	3260.5731	1524.9	643.75
1055.5057	3261.4692	1528.85	645.8
1055.6055	3262.3647	1507.35	622.35
1055.7052	3263.2595	1494.1	612.4
1055.8049	3264.1538	1488.7	605.45
1055.9045	3265.0474	1484.3	600.4
1056.0041	3265.9404	1472.5	591.5
1056.1036	3266.8329	1456.65	576.35
1056.2031	3267.7247	1464.9	573.25
1056.3025	3268.616	1437.85	557.65
1056.4019	3269.5066	1427.65	544.1
1056.5013	3270.3966	1419.75	535.25
1056.6005	3271.286	1398.05	516.8
