Software Version:	3.9.2.0
Unit SN:	10000200
Spectrometer SN:	6960
Date:	3/6/2024 10:11:56 AM
Data Line Index:	25
Spectral Points:	2048
Integration time (ms):	125
Averages:	20
Delay (ms):	30
Sequence Number:	1
Processing:	dark subtract
Laser Power (mW):	305
Laser Current (mA):	826
Laser Diode Temp (C):	25.1
Laser Case Temp (C):	24.9
System Temp (C):	24.7
Spectrometer Temp (C):	22.4
CCD Temp (C):	-0.008
Secondary Temp (C):	20.007
Heatsink Temp (C):	18.465
CCDPCB Temp (C):	32.572
SecondaryPCB Temp (C):	25.758

Wavelength	RamanShift	Raw Counts	Dark Subtracted
787.061	30.1047	988.9	580.15
787.2016	32.3739	1009.8	601.55
787.3422	34.6426	1046.9	639.15
787.4828	36.9109	1083.95	673.3
787.6235	39.1787	1132.35	718.05
787.7642	41.4461	1182.4	764.85
787.9049	43.7131	1229.05	808.3
788.0456	45.9796	1277.15	853.75
788.1863	48.2456	1327.3	899.6
788.3271	50.5112	1389.85	958
788.4679	52.7764	1434.9	1001.35
788.6087	55.0411	1508.3	1069.35
788.7496	57.3054	1574.35	1129.6
788.8904	59.5692	1634.15	1187.9
789.0313	61.8326	1718.5	1269.4
789.1722	64.0955	1802.25	1351.85
789.3132	66.3579	1914.75	1458.95
789.4541	68.6199	2037.05	1578.55
789.5951	70.8815	2248.55	1784.35
789.7361	73.1426	2727.25	2258.55
789.8771	75.4032	3914.55	3440.95
790.0181	77.6634	6964.85	6487.5
790.1592	79.9231	14755.9	14271.8
790.3003	82.1824	44784.9	44290.2
790.4414	84.4412	65535	65015.85
790.5825	86.6995	65535	64988.25
790.7237	88.9574	65535	64964.5
790.8648	91.2148	65535	64945.45
791.006	93.4717	65535	64939.15
791.1472	95.7282	65535	64930.25
791.2885	97.9842	65535	64927.3
791.4297	100.2398	65535	64925.3
791.571	102.4949	65535	64922.45
791.7123	104.7495	65535	64922.35
791.8536	107.0036	65535	64919.15
791.9949	109.2573	65535	64921.3
792.1363	111.5105	65535	64916.85
792.2777	113.7632	65535	64916.15
792.4191	116.0154	65535	64906.75
792.5605	118.2672	65535	64909.05
792.7019	120.5185	65535	64907.45
792.8434	122.7693	65535	64905.9
792.9849	125.0197	65535	64899.85
793.1264	127.2696	65535	64894
793.2679	129.519	65535	64895.15
793.4094	131.7679	65535	64889.8
793.551	134.0163	65535	64887.45
793.6926	136.2642	65535	64884.95
793.8342	138.5117	65535	64875.35
793.9758	140.7587	65535	64884.65
794.1175	143.0052	65535	64876.6
794.2591	145.2512	65535	64876.95
794.4008	147.4967	65535	64873.3
794.5425	149.7417	65535	64870.75
794.6842	151.9863	65535	64871.9
794.826	154.2304	65535	64867.1
794.9677	156.4739	65535	64862.1
795.1095	158.717	65535	64853.55
795.2513	160.9596	65535	64852.3
795.3931	163.2017	65535	64852.9
795.535	165.4433	65535	64853.2
795.6768	167.6844	65535	64850.85
795.8187	169.925	65535	64845.7
795.9606	172.1651	65535	64843.3
796.1025	174.4047	65535	64839.85
796.2445	176.6439	65535	64835.85
796.3864	178.8825	65535	64835.1
796.5284	181.1206	65535	64831.05
796.6704	183.3582	65535	64828.1
796.8124	185.5954	65535	64825.45
796.9544	187.832	65535	64821.65
797.0965	190.0681	65535	64821.25
797.2386	192.3037	65535	64815.6
797.3806	194.5388	65535	64810.8
797.5228	196.7734	65535	64811.55
797.6649	199.0075	65535	64806.35
797.807	201.2411	65535	64808.2
797.9492	203.4742	65535	64806.4
798.0914	205.7068	65535	64800.8
798.2336	207.9389	65535	64799
798.3758	210.1704	65535	64804.8
798.518	212.4015	65535	64818.55
798.6603	214.632	65535	64822.95
798.8025	216.862	65535	64823.45
798.9448	219.0915	65535	64823.4
799.0871	221.3205	65535	64819.95
799.2294	223.549	65535	64821.95
799.3718	225.777	65535	64820.2
799.5141	228.0044	65535	64816.8
799.6565	230.2314	65535	64813.1
799.7989	232.4578	65535	64812.85
799.9413	234.6837	65535	64803.15
800.0837	236.909	65535	64801.8
800.2262	239.1339	65535	64778.7
800.3687	241.3582	65535	64789.55
800.5111	243.582	65535	64760.7
800.6536	245.8053	65535	64773.75
800.7961	248.0281	65535	64780.9
800.9387	250.2503	65535	64774.3
801.0812	252.472	65535	64771.45
801.2238	254.6932	65535	64772.9
801.3664	256.9139	65535	64769.9
801.509	259.134	65535	64767
801.6516	261.3536	65535	64769
801.7942	263.5727	65535	64767
801.9369	265.7912	65535	64768.35
802.0795	268.0092	65535	64767.3
802.2222	270.2267	65535	64766.9
802.3649	272.4436	65535	64765.15
802.5076	274.6601	65535	64755.2
802.6504	276.8759	65535	64761.15
802.7931	279.0913	65535	64759
802.9359	281.3061	65535	64755.65
803.0787	283.5204	65535	64756.9
803.2215	285.7341	65535	64747.45
803.3643	287.9473	65535	64742.2
803.5071	290.16	65535	64748.5
803.6499	292.3721	65535	64754
803.7928	294.5837	65535	64753.05
803.9357	296.7947	65535	64753.3
804.0786	299.0052	65535	64752.5
804.2215	301.2152	65535	64747.55
804.3644	303.4246	65535	64753.35
804.5074	305.6334	65535	64748.65
804.6503	307.8418	65535	64750.8
804.7933	310.0495	65535	64744.65
804.9363	312.2568	65535	64746.45
805.0793	314.4635	65535	64745.65
805.2223	316.6696	65535	64740.7
805.3653	318.8752	65535	64731.95
805.5084	321.0802	65535	64738.25
805.6514	323.2847	65535	64735.1
805.7945	325.4887	65535	64736.6
805.9376	327.692	65535	64733.35
806.0807	329.8949	65535	64730.95
806.2238	332.0972	65535	64732.75
806.367	334.2989	65535	64728.2
806.5101	336.5001	65535	64726.55
806.6533	338.7007	65535	64727.85
806.7965	340.9008	65535	64727.3
806.9397	343.1003	65535	64724.3
807.0829	345.2992	65535	64725.45
807.2261	347.4976	65535	64723.05
807.3693	349.6955	65535	64716.6
807.5126	351.8927	65535	64716.7
807.6559	354.0895	65535	64705.25
807.7991	356.2856	65535	64715.4
807.9424	358.4812	65535	64715.35
808.0857	360.6763	65535	64714.2
808.2291	362.8707	65535	64713.1
808.3724	365.0646	65535	64709
808.5158	367.258	65535	64709.65
808.6591	369.4508	65535	64705.1
808.8025	371.643	65535	64704.15
808.9459	373.8346	65535	64700.8
809.0893	376.0257	65535	64699.4
809.2327	378.2162	65535	64702.45
809.3762	380.4062	65535	64699.95
809.5196	382.5956	65535	64702.7
809.6631	384.7844	65535	64706
809.8066	386.9726	65535	64706.8
809.9501	389.1603	65535	64710.3
810.0936	391.3474	65535	64671.15
810.2371	393.5339	65535	64708.75
810.3806	395.7199	65535	64707.4
810.5241	397.9052	65535	64706.45
810.6677	400.09	65535	64705.1
810.8113	402.2743	65535	64709.5
810.9548	404.4579	65535	64709.85
811.0984	406.641	65535	64703.15
811.2421	408.8235	65535	64704.8
811.3857	411.0054	65535	64700.2
811.5293	413.1868	65535	64696.85
811.673	415.3675	65535	64694.5
811.8166	417.5477	65535	64695.6
811.9603	419.7273	65535	64687.1
812.104	421.9064	65535	64684.55
812.2477	424.0848	65535	64689.45
812.3914	426.2627	65535	64690.8
812.5351	428.4399	65535	64693.35
812.6788	430.6166	65535	64686.8
812.8226	432.7928	65535	64682.4
812.9663	434.9683	65535	64687.6
813.1101	437.1432	65535	64684.15
813.2539	439.3176	65535	64692.25
813.3977	441.4914	65535	64693
813.5415	443.6645	65535	64690.65
813.6853	445.8371	65535	64685.7
813.8291	448.0091	65535	64684.65
813.973	450.1806	65535	64684.35
814.1168	452.3514	65535	64685.8
814.2607	454.5216	65535	64680
814.4046	456.6913	65535	64682.1
814.5485	458.8603	65535	64683.6
814.6924	461.0288	65535	64687.5
814.8363	463.1967	65535	64688.6
814.9802	465.3639	65535	64684.15
815.1241	467.5306	65535	64682.75
815.2681	469.6967	65535	64685.5
815.412	471.8622	65535	64687.9
815.556	474.0271	65535	64681.65
815.7	476.1914	65535	64681.05
815.844	478.3551	65535	64681.4
815.988	480.5182	65535	64682.05
816.132	482.6807	65535	64686.05
816.276	484.8426	65535	64688.45
816.4201	487.0039	65535	64684.25
816.5641	489.1647	65535	64677.4
816.7082	491.3248	65535	64679.3
816.8522	493.4843	65535	64682.05
816.9963	495.6432	65535	64682.25
817.1404	497.8015	65535	64670.8
817.2845	499.9592	65535	64671.7
817.4286	502.1163	65535	64671.65
817.5727	504.2728	65535	64671.35
817.7168	506.4287	65535	64679.9
817.861	508.5839	65535	64678.25
818.0051	510.7386	65535	64679.8
818.1493	512.8927	65535	64668.3
818.2935	515.0461	65535	64672.45
818.4377	517.199	65535	64669.35
818.5818	519.3512	65535	64666.25
818.726	521.5029	65535	64663.3
818.8703	523.6539	65535	64668.75
819.0145	525.8043	65535	64667.7
819.1587	527.9541	65535	64664.05
819.303	530.1033	65535	64664.3
819.4472	532.2519	65535	64669.2
819.5915	534.3999	65535	64667.75
819.7357	536.5472	65535	64666.25
819.88	538.694	65535	64667.4
820.0243	540.8401	65535	64667
820.1686	542.9856	65535	64660.6
820.3129	545.1305	65535	64656.25
820.4572	547.2748	65535	64655
820.6016	549.4185	65535	64655.55
820.7459	551.5615	65535	64657.3
820.8902	553.704	65535	64653.3
821.0346	555.8458	65535	64659.2
821.1789	557.987	65535	64658.2
821.3233	560.1276	65535	64654.55
821.4677	562.2675	65535	64652.7
821.6121	564.4069	65535	64653.4
821.7565	566.5456	65535	64660.25
821.9009	568.6837	65535	64657.5
822.0453	570.8212	65535	64660.8
822.1897	572.958	65535	64654.25
822.3342	575.0942	65535	64660.1
822.4786	577.2299	65535	64659.65
822.6231	579.3648	65535	64667.5
822.7675	581.4992	65535	64670.75
822.912	583.6329	65535	64671.95
823.0565	585.766	65535	64667.75
823.201	587.8985	65535	64668.35
823.3454	590.0304	65535	64639.6
823.4899	592.1616	65535	64655.3
823.6345	594.2922	65535	64652.85
823.779	596.4222	65535	64651.95
823.9235	598.5515	65535	64652.6
824.068	600.6802	65535	64653
824.2126	602.8083	65535	64653.25
824.3571	604.9358	65535	64650.8
824.5017	607.0626	65535	64650.45
824.6462	609.1888	65535	64648.4
824.7908	611.3144	65535	64646.6
824.9354	613.4393	65535	64648.8
825.08	615.5636	65535	64646.3
825.2246	617.6873	65535	64648.45
825.3692	619.8103	65535	64642.95
825.5138	621.9327	65535	64648.4
825.6584	624.0544	65535	64649.1
825.803	626.1756	65535	64650.85
825.9477	628.2961	65535	64646.4
826.0923	630.4159	65535	64645.25
826.237	632.5351	65535	64642.6
826.3816	634.6537	65535	64645.75
826.5263	636.7716	65535	64639.95
826.6709	638.8889	65535	64636.85
826.8156	641.0056	65535	64638.55
826.9603	643.1216	65535	64641.3
827.105	645.237	65535	64642.8
827.2497	647.3518	65535	64650.8
827.3944	649.4659	65535	64650.35
827.5391	651.5793	65535	64650.1
827.6838	653.6922	65535	64650.2
827.8285	655.8043	65535	64647.45
827.9733	657.9159	65535	64645.75
828.118	660.0268	65535	64642.35
828.2627	662.137	65535	64644.45
828.4075	664.2466	65535	64637.25
828.5522	666.3556	65535	64641.15
828.697	668.4639	65535	64641.35
828.8418	670.5716	65535	64643.6
828.9865	672.6786	65535	64640.85
829.1313	674.785	65535	64638.05
829.2761	676.8907	65535	64641.2
829.4209	678.9958	65535	64645.1
829.5657	681.1002	65535	64641.65
829.7105	683.204	65535	64633.05
829.8553	685.3072	65535	64633.65
830.0001	687.4097	65535	64639.25
830.1449	689.5115	65535	64636.9
830.2898	691.6127	65535	64643.7
830.4346	693.7132	65535	64640.9
830.5794	695.8131	65535	64617.3
830.7243	697.9123	65535	64632.1
830.8691	700.0109	65535	64636.3
831.014	702.1089	65535	64637.25
831.1588	704.2061	65535	64636.6
831.3037	706.3028	65535	64633.1
831.4486	708.3987	65535	64635.25
831.5935	710.4941	65535	64635.2
831.7383	712.5887	65535	64636.25
831.8832	714.6827	65535	64634.45
832.0281	716.7761	65535	64639.4
832.173	718.8688	65535	64634.65
832.3179	720.9608	65535	64631.45
832.4628	723.0522	65535	64627.8
832.6077	725.1429	65535	64631.1
832.7527	727.233	65535	64627.85
832.8976	729.3224	65535	64632.45
833.0425	731.4112	65535	64632.8
833.1874	733.4993	65535	64632.3
833.3324	735.5867	65535	64632.8
833.4773	737.6735	65535	64630.8
833.6222	739.7596	65535	64631.7
833.7672	741.845	65535	64629.35
833.9122	743.9298	65535	64630.35
834.0571	746.014	65535	64632.75
834.2021	748.0974	65535	64626
834.347	750.1802	65535	64624.2
834.492	752.2624	65535	64626.75
834.637	754.3439	65535	64623.85
834.782	756.4247	65535	64617
834.9269	758.5048	65535	64626.25
835.0719	760.5843	65535	64624.85
835.2169	762.6631	65535	64626.2
835.3619	764.7413	65535	64629.1
835.5069	766.8188	65535	64628.4
835.6519	768.8956	65535	64622.65
835.7969	770.9718	65535	64626.95
835.9419	773.0473	65535	64629.85
836.0869	775.1221	65535	64629
836.232	777.1962	65535	64626.6
836.377	779.2697	65535	64624.75
836.522	781.3426	65535	64605.85
836.667	783.4147	65535	64624.25
836.8121	785.4862	65535	64625.85
836.9571	787.557	65535	64623
837.1021	789.6271	65535	64621.75
837.2472	791.6966	65535	64624.9
837.3922	793.7654	65535	64624.9
837.5373	795.8335	65535	64624.8
837.6823	797.901	65535	64627.45
837.8274	799.9678	65535	64625.8
837.9724	802.0339	65535	64624.2
838.1175	804.0993	65535	64616.35
838.2626	806.1641	65535	64621.3
838.4076	808.2282	65535	64622.85
838.5527	810.2916	65535	64623.2
838.6978	812.3544	65535	64626.3
838.8428	814.4164	65535	64627.9
838.9879	816.4778	65535	64619.9
839.133	818.5385	65535	64622.3
839.2781	820.5986	65535	64624.95
839.4232	822.658	65535	64620.85
839.5682	824.7166	65535	64621.75
839.7133	826.7747	65535	64621.75
839.8584	828.832	65535	64622.05
840.0035	830.8886	65535	64618.4
840.1486	832.9446	65535	64620.7
840.2937	834.9999	65535	64622.15
840.4388	837.0545	65535	64617.5
840.5839	839.1085	65535	64618.8
840.729	841.1618	65535	64619.45
840.8741	843.2143	65535	64621.95
841.0192	845.2662	65535	64619.5
841.1643	847.3175	65535	64621.25
841.3095	849.368	65535	64620.15
841.4546	851.4179	65535	64623.95
841.5997	853.467	65535	64620.25
841.7448	855.5155	65535	64622.55
841.8899	857.5633	65535	64619
842.0351	859.6105	65535	64619.55
842.1802	861.6569	65535	64620.95
842.3253	863.7027	65535	64620.2
842.4704	865.7478	65535	64619.45
842.6156	867.7922	65535	64619.8
842.7607	869.8359	65535	64619.15
842.9058	871.8789	65535	64617
843.0509	873.9212	65535	64585
843.1961	875.9629	65535	64621
843.3412	878.0039	65535	64619.8
843.4863	880.0441	65535	64620.1
843.6315	882.0837	65535	64618
843.7766	884.1226	65535	64616.85
843.9218	886.1609	65535	64619.6
844.0669	888.1984	65535	64620.55
844.212	890.2352	65535	64619.85
844.3572	892.2714	65535	64614.15
844.5023	894.3069	65535	64614.4
844.6475	896.3416	65535	64619.5
844.7926	898.3757	65535	64615.75
844.9377	900.4091	65535	64615.85
845.0829	902.4418	65535	64612.45
845.228	904.4739	65535	64615.15
845.3732	906.5052	65535	64613.15
845.5183	908.5358	65535	64616.2
845.6635	910.5658	65535	64612.2
845.8086	912.595	65535	64614.75
845.9538	914.6236	65535	64617.05
846.0989	916.6515	65535	64616.45
846.2441	918.6786	65535	64612.95
846.3892	920.7051	65535	64613.3
846.5344	922.7309	65535	64615.5
846.6795	924.756	65535	64619.6
846.8246	926.7804	65535	64610.3
846.9698	928.8041	65535	64614.4
847.1149	930.8272	65535	64615.95
847.2601	932.8495	65535	64612.25
847.4052	934.8711	65535	64615.5
847.5504	936.892	65535	64615.15
847.6955	938.9123	65535	64615.45
847.8407	940.9318	65535	64617.45
847.9858	942.9506	65535	64615.75
848.131	944.9688	65535	64617.75
848.2761	946.9862	65535	64613.5
848.4213	949.003	65535	64614.85
848.5664	951.019	65535	64613.15
848.7115	953.0344	65535	64613.75
848.8567	955.0491	65535	64609.85
849.0018	957.063	65535	64615.3
849.147	959.0763	65535	64616.75
849.2921	961.0888	65535	64613.85
849.4373	963.1007	65535	64613.85
849.5824	965.1119	65535	64618.9
849.7275	967.1223	65535	64622.85
849.8727	969.1321	65535	64626.55
850.0178	971.1412	65535	64618.5
850.1629	973.1495	65535	64615.45
850.3081	975.1572	65535	64576.7
850.4532	977.1641	65535	64615.05
850.5983	979.1704	65535	64615.35
850.7435	981.1759	65535	64612.7
850.8886	983.1808	65535	64612.85
851.0337	985.1849	65535	64604.1
851.1788	987.1884	65535	64613.2
851.324	989.1911	65535	64612.8
851.4691	991.1932	65535	64614.7
851.6142	993.1945	65535	64615.75
851.7593	995.1951	65535	64613.45
851.9045	997.1951	65535	64611.35
852.0496	999.1943	65535	64616.5
852.1947	1001.1928	65535	64615.25
852.3398	1003.1906	65535	64614.8
852.4849	1005.1877	65535	64612.9
852.63	1007.1841	65535	64612.95
852.7751	1009.1798	65535	64613
852.9202	1011.1748	65535	64613.45
853.0653	1013.1691	65535	64613.75
853.2104	1015.1627	65535	64616.35
853.3555	1017.1556	65535	64618.8
853.5006	1019.1477	65535	64617.65
853.6457	1021.1392	65535	64620.5
853.7908	1023.1299	65535	64618.15
853.9359	1025.12	65535	64623.55
854.081	1027.1093	65535	64630.15
854.2261	1029.0979	65535	64630.6
854.3712	1031.0859	65535	64628.75
854.5163	1033.0731	65535	64620.35
854.6613	1035.0596	65535	64619.15
854.8064	1037.0454	65535	64617.6
854.9515	1039.0304	65535	64615.4
855.0965	1041.0148	65535	64616.9
855.2416	1042.9985	65535	64615.4
855.3867	1044.9814	65535	64619.25
855.5317	1046.9636	65535	64617.2
855.6768	1048.9452	65535	64619.15
855.8219	1050.926	65535	64616.15
855.9669	1052.9061	65535	64616.8
856.112	1054.8855	65535	64618.05
856.257	1056.8642	65535	64616
856.4021	1058.8421	65535	64610.85
856.5471	1060.8194	65535	64615.6
856.6921	1062.7959	65535	64614.3
856.8372	1064.7717	65535	64614
856.9822	1066.7469	65535	64614.85
857.1272	1068.7213	65535	64611.95
857.2723	1070.695	65535	64617.5
857.4173	1072.6679	65535	64616
857.5623	1074.6402	65535	64613.6
857.7073	1076.6117	65535	64611.05
857.8523	1078.5826	65535	64615.35
857.9973	1080.5527	65535	64614.1
858.1423	1082.5221	65535	64614
858.2873	1084.4908	65535	64614.95
858.4323	1086.4587	65535	64614.9
858.5773	1088.426	65535	64616.35
858.7223	1090.3925	65535	64609.95
858.8673	1092.3584	65535	64616.6
859.0123	1094.3235	65535	64614.95
859.1573	1096.2879	65535	64612.8
859.3022	1098.2515	65535	64616.6
859.4472	1100.2145	65535	64616.25
859.5922	1102.1767	65535	64613.15
859.7371	1104.1382	65535	64617.75
859.8821	1106.099	65535	64612.9
860.027	1108.0591	65535	64619.65
860.172	1110.0185	65535	64614.2
860.3169	1111.9771	65535	64616.25
860.4619	1113.9351	65535	64615.95
860.6068	1115.8923	65535	64615.8
860.7517	1117.8488	65535	64615.6
860.8967	1119.8045	65535	64614.65
861.0416	1121.7596	65535	64617.15
861.1865	1123.7139	65535	64615.35
861.3314	1125.6675	65535	64616.9
861.4763	1127.6204	65535	64618.4
861.6212	1129.5726	65535	64611.55
861.7661	1131.524	65535	64616.1
861.911	1133.4748	65535	64614.7
862.0559	1135.4248	65535	64613.5
862.2008	1137.3741	65535	64619.3
862.3457	1139.3226	65535	64614.4
862.4905	1141.2705	65535	64614.7
862.6354	1143.2176	65535	64610.2
862.7803	1145.164	65535	64613.75
862.9251	1147.1097	65535	64616.25
863.07	1149.0546	65535	64611.1
863.2148	1150.9989	65535	64614.3
863.3597	1152.9424	65535	64617.3
863.5045	1154.8852	65535	64614.35
863.6493	1156.8272	65535	64617.5
863.7942	1158.7686	65535	64607.65
863.939	1160.7092	65535	64616.45
864.0838	1162.6491	65535	64613.25
864.2286	1164.5883	65535	64615.55
864.3734	1166.5267	65535	64617.05
864.5182	1168.4644	65535	64616.05
864.663	1170.4014	65535	64612.25
864.8078	1172.3377	65535	64615.8
864.9526	1174.2732	65535	64619.45
865.0974	1176.2081	65535	64614.95
865.2421	1178.1421	65535	64614.15
865.3869	1180.0755	65535	64617.3
865.5317	1182.0082	65535	64618
865.6764	1183.9401	65535	64618
865.8212	1185.8713	65535	64620.6
865.9659	1187.8017	65535	64625.55
866.1106	1189.7315	65535	64626.65
866.2554	1191.6605	65535	64600.55
866.4001	1193.5888	65535	64624.15
866.5448	1195.5163	65535	64621.95
866.6895	1197.4432	65535	64616.95
866.8342	1199.3693	65535	64620.5
866.9789	1201.2947	65535	64615.45
867.1236	1203.2193	65535	64618.6
867.2683	1205.1432	65535	64616.4
867.413	1207.0664	65535	64621.9
867.5576	1208.9889	65535	64616.7
867.7023	1210.9106	65535	64617.4
867.847	1212.8316	65535	64620.15
867.9916	1214.7519	65535	64608.35
868.1363	1216.6715	65535	64617.85
868.2809	1218.5903	65535	64619.6
868.4255	1220.5084	65535	64619.7
868.5701	1222.4257	65535	64616.55
868.7148	1224.3424	65535	64622.1
868.8594	1226.2583	65535	64620.45
869.004	1228.1735	65535	64616.55
869.1486	1230.0879	65535	64617.85
869.2932	1232.0016	65535	64618.4
869.4377	1233.9146	65535	64614.7
869.5823	1235.8269	65535	64620.4
869.7269	1237.7384	65535	64618.35
869.8715	1239.6492	65535	64619.3
870.016	1241.5592	65535	64617.25
870.1606	1243.4686	65535	64620.5
870.3051	1245.3772	65535	64619.95
870.4496	1247.285	65535	64617.75
870.5941	1249.1922	65535	64619.25
870.7387	1251.0986	65535	64621.1
870.8832	1253.0042	65535	64619.1
871.0277	1254.9092	65535	64619.35
871.1722	1256.8134	65535	64622.5
871.3167	1258.7169	65535	64616.15
871.4611	1260.6196	65535	64622.1
871.6056	1262.5216	65535	64616.75
871.7501	1264.4229	65535	64622.65
871.8945	1266.3234	65535	64622.9
872.039	1268.2232	65535	64618.75
872.1834	1270.1223	65535	64617.85
872.3278	1272.0207	65535	64618.8
872.4723	1273.9183	65535	64614.55
872.6167	1275.8151	65535	64620.6
872.7611	1277.7113	65535	64620.1
872.9055	1279.6067	65535	64618.95
873.0499	1281.5014	65535	64615.15
873.1943	1283.3953	65535	64617.55
873.3386	1285.2885	65535	64618
873.483	1287.181	65535	64620.4
873.6274	1289.0727	65535	64621.8
873.7717	1290.9637	65535	64621.8
873.9161	1292.854	65535	64620.85
874.0604	1294.7435	65535	64620.1
874.2047	1296.6323	65535	64620.5
874.349	1298.5204	65535	64618.2
874.4933	1300.4077	65535	64618.2
874.6376	1302.2943	65535	64619.7
874.7819	1304.1802	65535	64620.7
874.9262	1306.0653	65535	64617.05
875.0705	1307.9497	65535	64617.05
875.2147	1309.8333	65535	64619.95
875.359	1311.7162	65535	64620.4
875.5032	1313.5984	65535	64616.65
875.6475	1315.4798	65535	64602.8
875.7917	1317.3605	65535	64602.7
875.9359	1319.2405	65535	64618
876.0801	1321.1197	65535	64618.05
876.2243	1322.9982	65535	64616.35
876.3685	1324.876	65535	64621.8
876.5127	1326.753	65535	64620.95
876.6569	1328.6293	65535	64617.05
876.801	1330.5048	65535	64616.35
876.9452	1332.3796	65535	64620.8
877.0893	1334.2537	65535	64590
877.2335	1336.127	65535	64622.05
877.3776	1337.9996	65535	64619.15
877.5217	1339.8714	65535	64620.7
877.6658	1341.7426	65535	64577.3
877.8099	1343.6129	65535	64618.3
877.954	1345.4826	65535	64620.95
878.0981	1347.3515	65535	64618.2
878.2422	1349.2196	65535	64620.05
878.3862	1351.087	65535	64621.2
878.5303	1352.9537	65535	64617.55
878.6743	1354.8197	65535	64620.95
878.8184	1356.6849	65535	64620.35
878.9624	1358.5493	65535	64618.55
879.1064	1360.4131	65535	64620.4
879.2504	1362.276	65535	64620.4
879.3944	1364.1383	65535	64621.9
879.5384	1365.9998	65535	64615.15
879.6823	1367.8606	65535	64618.75
879.8263	1369.7206	65535	64622.75
879.9702	1371.5799	65535	64616.8
880.1142	1373.4384	65535	64617.8
880.2581	1375.2962	65535	64619.65
880.402	1377.1533	65535	64623.45
880.5459	1379.0096	65535	64620.45
880.6898	1380.8652	65535	64622.1
880.8337	1382.7201	65535	64623.45
880.9776	1384.5742	65535	64621.5
881.1215	1386.4275	65535	64620.45
881.2653	1388.2802	65535	64621.2
881.4092	1390.132	65535	64622.85
881.553	1391.9832	65535	64615.75
881.6968	1393.8336	65535	64619.15
881.8406	1395.6832	65535	64618.05
881.9844	1397.5322	65535	64618.3
882.1282	1399.3803	65535	64615.55
882.272	1401.2278	65535	64620.55
882.4158	1403.0745	65535	64620.65
882.5595	1404.9204	65535	64623.95
882.7033	1406.7656	65535	64623.85
882.847	1408.6101	65535	64621.25
882.9908	1410.4538	65535	64620.3
883.1345	1412.2968	65535	64620.4
883.2782	1414.139	65535	64620.6
883.4219	1415.9805	65535	64620.9
883.5656	1417.8213	65535	64615.1
883.7092	1419.6613	65535	64623.75
883.8529	1421.5006	65535	64623.05
883.9965	1423.3391	65535	64622.7
884.1402	1425.1769	65535	64619.75
884.2838	1427.0139	65535	64624.75
884.4274	1428.8502	65535	64619.05
884.571	1430.6858	65535	64620.4
884.7146	1432.5206	65535	64622.45
884.8582	1434.3547	65535	64621.4
885.0018	1436.188	65535	64624.15
885.1453	1438.0206	65535	64620.5
885.2889	1439.8524	65535	64621.9
885.4324	1441.6835	65535	64622.35
885.5759	1443.5139	65535	64624.05
885.7194	1445.3435	65535	64620.6
885.8629	1447.1724	65535	64624.7
886.0064	1449.0005	65535	64624.65
886.1499	1450.8279	65535	64620.35
886.2933	1452.6545	65535	64624
886.4368	1454.4804	65535	64623.1
886.5802	1456.3056	65535	64616.05
886.7237	1458.13	65535	64623.5
886.8671	1459.9536	65535	64623.35
887.0105	1461.7766	65535	64622.8
887.1539	1463.5987	65535	64618.5
887.2972	1465.4202	65535	64620.4
887.4406	1467.2409	65535	64624.3
887.584	1469.0608	65535	64622
887.7273	1470.88	65535	64621.95
887.8706	1472.6984	65535	64622.6
888.0139	1474.5161	65535	64620.65
888.1572	1476.3331	65535	64622.65
888.3005	1478.1493	65535	64621.3
888.4438	1479.9648	65535	64623.2
888.5871	1481.7795	65535	64621.95
888.7303	1483.5935	65535	64624.4
888.8736	1485.4067	65535	64624.25
889.0168	1487.2192	65535	64622.05
889.16	1489.031	65535	64620.35
889.3032	1490.842	65535	64622.7
889.4464	1492.6522	65535	64624.4
889.5896	1494.4618	65535	64621.85
889.7327	1496.2705	65535	64624.75
889.8759	1498.0785	65534.9	64623.35
890.019	1499.8858	65535	64623.9
890.1622	1501.6924	65535	64625.05
890.3053	1503.4981	65535	64626
890.4484	1505.3032	65535	64622.6
890.5914	1507.1075	65535	64623.3
890.7345	1508.911	65535	64626.85
890.8776	1510.7138	65535	64623.45
891.0206	1512.5159	65535	64624.1
891.1637	1514.3172	65520.9	64612.5
891.3067	1516.1178	65528.75	64621.6
891.4497	1517.9176	65535	64623.15
891.5927	1519.7166	65525.45	64617.75
891.7357	1521.515	65524.1	64610.95
891.8786	1523.3126	65496.4	64583.5
892.0216	1525.1094	65525.85	64614.65
892.1645	1526.9055	65518.6	64610.05
892.3074	1528.7008	65519.6	64609.95
892.4503	1530.4954	65476.95	64567.4
892.5932	1532.2893	65521.85	64614
892.7361	1534.0824	65476.25	64566.6
892.879	1535.8747	65450.65	64544.1
893.0218	1537.6663	65524.2	64616.3
893.1647	1539.4572	65394.1	64485.9
893.3075	1541.2473	65442.75	64537.85
893.4503	1543.0367	65437.65	64531.75
893.5931	1544.8253	65421.35	64509.95
893.7359	1546.6132	65434.4	64525.2
893.8787	1548.4003	65412.5	64497.5
894.0214	1550.1867	65408.1	64493.9
894.1642	1551.9723	65388.75	64479.4
894.3069	1553.7572	65395.25	64489.9
894.4496	1555.5414	65417.55	64513.5
894.5923	1557.3247	65305.3	64400.15
894.735	1559.1074	65407.95	64507.95
894.8777	1560.8893	65366.15	64463.4
895.0204	1562.6705	65379.65	64478.6
895.163	1564.4509	65329.35	64429.05
895.3056	1566.2305	65353.1	64453.6
895.4482	1568.0094	65389.45	64490.8
895.5908	1569.7876	65353.1	64450.6
895.7334	1571.565	65304.85	64401.45
895.876	1573.3417	65329.65	64426.45
896.0186	1575.1176	65320.8	64418
896.1611	1576.8928	65308.6	64407.85
896.3036	1578.6672	65271.55	64372.85
896.4461	1580.4409	65305.45	64408.3
896.5886	1582.2138	65244.45	64345.35
896.7311	1583.986	65278.5	64377.6
896.8736	1585.7575	65230.4	64330.1
897.0161	1587.5282	65255.7	64356.4
897.1585	1589.2981	65274.25	64377.55
897.3009	1591.0673	65208.65	64311.15
897.4433	1592.8358	65161.8	64264.75
897.5857	1594.6035	65224.1	64324.85
897.7281	1596.3704	65250.15	64347.05
897.8705	1598.1366	65143.95	64245
898.0128	1599.9021	65097	64198.3
898.1551	1601.6668	65186.25	64286.45
898.2975	1603.4308	65151.9	64250.8
898.4398	1605.194	65162.35	64255.6
898.5821	1606.9564	65057.65	64162.8
898.7243	1608.7182	65120	64223.05
898.8666	1610.4791	65077.95	64187.5
899.0088	1612.2394	65114	64221.9
899.1511	1613.9988	65047.2	64155.6
899.2933	1615.7576	65104.1	64207.9
899.4355	1617.5156	65101.4	64199.5
899.5776	1619.2728	65186.15	64285.55
899.7198	1621.0293	65046.4	64148.05
899.862	1622.785	65026.75	64125.4
900.0041	1624.54	65077.3	64178.8
900.1462	1626.2942	65018.85	64124.1
900.2883	1628.0477	64919.05	64021.75
900.4304	1629.8005	64852.45	63954.1
900.5725	1631.5525	64948.8	64053.4
900.7145	1633.3037	64833.8	63940.15
900.8566	1635.0542	64810.75	63916.3
900.9986	1636.804	64870.1	63976.95
901.1406	1638.553	64755.2	63779.55
901.2826	1640.3013	64777.1	63880.45
901.4245	1642.0488	64714.3	63815.25
901.5665	1643.7955	64778.45	63884.8
901.7085	1645.5416	64722.95	63828.5
901.8504	1647.2868	64628.65	63734.8
901.9923	1649.0313	64777.25	63879.3
902.1342	1650.7751	64683.3	63784.85
902.2761	1652.5181	64600.85	63703.65
902.4179	1654.2604	64620.9	63723.85
902.5598	1656.0019	64660.45	63767.25
902.7016	1657.7427	64610.25	63715.95
902.8434	1659.4828	64690.85	63795.3
902.9852	1661.222	64548	63652.65
903.127	1662.9606	64663.05	63767.45
903.2687	1664.6984	64494.45	63598.2
903.4105	1666.4354	64584.55	63687.2
903.5522	1668.1717	64325.1	63426.5
903.6939	1669.9072	63996.9	63101.85
903.8356	1671.642	63999.7	63101.1
903.9773	1673.3761	63914.9	63019.1
904.119	1675.1094	63843.15	62946.65
904.2606	1676.8419	63459.8	62564.65
904.4022	1678.5737	63628.2	62731.2
904.5439	1680.3048	63435.4	62538.55
904.6855	1682.0351	63265.85	62370.65
904.827	1683.7646	63099.8	62200
904.9686	1685.4934	63290.85	62392.25
905.1101	1687.2215	62505.3	61610.25
905.2517	1688.9488	63078.1	62184.15
905.3932	1690.6754	61900.3	61008.95
905.5347	1692.4012	62508.55	61613.25
905.6761	1694.1263	62630.6	61737.35
905.8176	1695.8506	62111.6	61213.35
905.9591	1697.5742	62181.15	61287.7
906.1005	1699.297	62050.85	61157.95
906.2419	1701.0191	62139.25	61247.1
906.3833	1702.7404	61527.75	60636.2
906.5246	1704.461	61340.5	60445.65
906.666	1706.1808	61698.25	60803.35
906.8073	1707.8999	61489.5	60596.9
906.9487	1709.6182	61282.9	60391.35
907.09	1711.3358	61236.75	60345.7
907.2313	1713.0527	61172.8	60282.8
907.3725	1714.7688	61183.95	60286.9
907.5138	1716.4841	60547.95	59653.15
907.655	1718.1987	60766.75	59868.95
907.7962	1719.9126	60556.05	59665.05
907.9374	1721.6257	60673.55	59782.05
908.0786	1723.338	60686.95	59796.7
908.2198	1725.0496	59897.7	59005.7
908.3609	1726.7605	60023.55	59131.3
908.502	1728.4706	59770.95	58878.4
908.6431	1730.18	59976.2	59087.7
908.7842	1731.8886	59676.35	58785.55
908.9253	1733.5964	59497.35	58601.7
909.0664	1735.3036	59857.6	58966.2
909.2074	1737.0099	59545	58653
909.3484	1738.7156	59204.2	58313.8
909.4894	1740.4204	59079.7	58186.55
909.6304	1742.1246	59226	58332.1
909.7714	1743.8279	59288.8	58398.85
909.9123	1745.5306	59262.55	58371.2
910.0532	1747.2325	58388.05	57500.15
910.1941	1748.9336	58433.3	57543.1
910.335	1750.634	58530.25	57636.95
910.4759	1752.3336	58789.8	57899.45
910.6168	1754.0325	58201.05	57313.45
910.7576	1755.7307	58682.45	57793.35
910.8984	1757.4281	57941.15	57052.2
911.0392	1759.1247	58485.8	57587.1
911.18	1760.8206	57659.5	56762.4
911.3208	1762.5158	57729.05	56832.5
911.4615	1764.2102	57837.5	56945.1
911.6022	1765.9039	57648.55	56761.5
911.7429	1767.5968	57448.6	56561.75
911.8836	1769.289	57268.35	56380
912.0243	1770.9804	57384.7	56494.7
912.1649	1772.6711	57240.95	56347.7
912.3056	1774.361	57083.45	56192.45
912.4462	1776.0502	57114.8	56220.5
912.5868	1777.7386	56412.05	55518.45
912.7274	1779.4263	56730.9	55840
912.8679	1781.1132	56729.2	55840.6
913.0084	1782.7994	56470.8	55580.2
913.149	1784.4849	56565.75	55678.75
913.2895	1786.1696	55788	54894
913.4299	1787.8535	56149	55262.6
913.5704	1789.5367	56194.2	55305.7
913.7108	1791.2192	55743	54853.45
913.8513	1792.9009	55438.1	54516.5
913.9917	1794.5818	55705.6	54813.7
914.132	1796.2621	55311.4	54422.6
914.2724	1797.9415	55337.75	54445.3
914.4128	1799.6202	55202.95	54313.65
914.5531	1801.2982	55214.65	54323.85
914.6934	1802.9755	54752.45	53861.95
914.8337	1804.6519	54642.7	53749.5
914.9739	1806.3277	55136.4	54247.05
915.1142	1808.0027	54163.9	53277.55
915.2544	1809.6769	54420.85	53534.8
915.3946	1811.3504	54519.45	53630.75
915.5348	1813.0231	53806.95	52918.45
915.675	1814.6951	54219.6	53331.55
915.8151	1816.3664	53877.5	52986.15
915.9553	1818.0369	53851.4	52961.25
916.0954	1819.7067	53628.4	52737.95
916.2355	1821.3757	53968.45	53075.45
916.3755	1823.044	53336.4	52442.5
916.5156	1824.7115	53076.3	52186.05
916.6556	1826.3783	53116.85	52227
916.7956	1828.0443	53069.35	52180
916.9356	1829.7096	52850.55	51962.05
917.0756	1831.3741	52546.65	51654.45
917.2155	1833.0379	52600.3	51711.7
917.3555	1834.701	52569.6	51678.65
917.4954	1836.3633	52251.2	51362.6
917.6353	1838.0248	52327.8	51437.2
917.7751	1839.6856	52178.5	51288.65
917.915	1841.3457	51976.35	51088.3
918.0548	1843.005	52213.1	51324.05
918.1946	1844.6636	51940.45	51052.3
918.3344	1846.3214	51514.1	50622.95
918.4742	1847.9785	51614.05	50724.55
918.6139	1849.6349	51530.95	50638.2
918.7537	1851.2904	51635.45	50736.1
918.8934	1852.9453	51190.15	50300.25
919.0331	1854.5994	51237.6	50345.6
919.1727	1856.2528	51229.3	50334.95
919.3124	1857.9054	50908.45	50018.75
919.452	1859.5572	50791.85	49902.95
919.5916	1861.2083	50884.25	49994.45
919.7312	1862.8587	51143.25	50255.35
919.8708	1864.5084	50356.3	49463
920.0103	1866.1572	50572.75	49683.6
920.1498	1867.8054	50086.95	49196.7
920.2893	1869.4528	50308.5	49418
920.4288	1871.0994	49916.15	49025.5
920.5683	1872.7453	49896.3	49003.6
920.7077	1874.3905	49936.15	49040.6
920.8471	1876.0349	49618.35	48727.6
920.9865	1877.6786	49703.5	48810.95
921.1259	1879.3215	49545.75	48658.25
921.2653	1880.9637	49641.35	48749
921.4046	1882.6051	49346.1	48459.55
921.5439	1884.2458	49192.5	48301.5
921.6832	1885.8858	48945.25	48055.1
921.8225	1887.525	48981.9	48091.35
921.9617	1889.1634	48821.15	47930.15
922.101	1890.8011	48621.85	47730.7
922.2402	1892.4381	48354.6	47464.5
922.3794	1894.0743	48605.8	47716.95
922.5185	1895.7098	48286	47396.95
922.6577	1897.3446	48104.05	47213.65
922.7968	1898.9786	48084.85	47191.15
922.9359	1900.6118	47996.95	47108.35
923.075	1902.2443	47710.6	46819.3
923.214	1903.8761	47764.65	46875.4
923.3531	1905.5071	47429.45	46538.95
923.4921	1907.1374	47111.55	46220.2
923.6311	1908.7669	47245.55	46356.7
923.77	1910.3957	47222.3	46333.45
923.909	1912.0237	46829.4	45941.5
924.0479	1913.651	46701.25	45810.9
924.1868	1915.2776	46591.45	45703.8
924.3257	1916.9034	46430.25	45542.45
924.4646	1918.5285	46301.65	45412.85
924.6034	1920.1528	46118.5	45230.9
924.7422	1921.7764	46053.4	45165.1
924.881	1923.3992	45843.4	44954.7
925.0198	1925.0213	45544.55	44654.1
925.1586	1926.6427	45346.6	44458.15
925.2973	1928.2633	45513.5	44416.1
925.436	1929.8832	45187.9	44297.05
925.5747	1931.5023	44974.45	44084
925.7134	1933.1207	44782.35	43896.7
925.852	1934.7383	44840.75	43949.75
925.9906	1936.3552	44608.35	43720.7
926.1292	1937.9714	44476.25	43587.1
926.2678	1939.5868	44359	43468
926.4064	1941.2015	44079.55	43189.7
926.5449	1942.8154	43941.7	43050.7
926.6834	1944.4286	43806.3	42918.1
926.8219	1946.041	43679.85	42767.35
926.9604	1947.6528	43396	42500.1
927.0988	1949.2637	43354.65	42465.85
927.2372	1950.8739	43140.75	42251.05
927.3756	1952.4834	43117.3	42230.3
927.514	1954.0921	42984	42096.8
927.6523	1955.7001	42765.7	41875.8
927.7907	1957.3074	42663.55	41777.7
927.929	1958.9139	42501.6	41615.95
928.0673	1960.5197	42447.15	41559.9
928.2055	1962.1247	42189.95	41303.6
928.3438	1963.729	41990.4	41102.3
928.482	1965.3325	41904.7	40997.2
928.6202	1966.9353	41773.4	40888.3
928.7584	1968.5374	41649.5	40762.45
928.8965	1970.1387	41438.7	40552.8
929.0346	1971.7393	41310.05	40422.35
929.1727	1973.3392	41200.35	40315.35
929.3108	1974.9383	41024.75	40140.3
929.4489	1976.5366	40830.05	39944.7
929.5869	1978.1342	40782.5	39896.25
929.7249	1979.7311	40656.95	39768.95
929.8629	1981.3273	40556.8	39670.8
930.0009	1982.9227	40395.55	39509.25
930.1388	1984.5173	40304.35	39419.25
930.2767	1986.1112	40132.5	39248.65
930.4146	1987.7044	40087.5	39201.75
930.5525	1989.2968	39911.55	39027.45
930.6904	1990.8885	39831.3	38943.3
930.8282	1992.4795	39774.55	38889.15
930.966	1994.0697	39613.9	38729.95
931.1038	1995.6592	39472.25	38587.75
931.2415	1997.2479	39347.55	38462
931.3793	1998.8359	39193.35	38308.35
931.517	2000.4232	39030.8	38148.15
931.6547	2002.0097	38947.85	38067.15
931.7923	2003.5955	38772.3	37889.45
931.93	2005.1805	38750.95	37865.7
932.0676	2006.7648	38616.15	37734
932.2052	2008.3484	38540.35	37657.4
932.3427	2009.9312	38509.85	37626.85
932.4803	2011.5133	38307.5	37424.35
932.6178	2013.0946	38138.3	37259.05
932.7553	2014.6752	38123.9	37241.1
932.8928	2016.2551	38008.75	37124.55
933.0302	2017.8342	37838.7	36956.65
933.1676	2019.4126	37692.7	36811.95
933.305	2020.9902	37503.2	36622.55
933.4424	2022.5672	37488.25	36604.4
933.5798	2024.1433	37434.15	36547.55
933.7171	2025.7188	37259.55	36380.1
933.8544	2027.2935	37130.05	36246.55
933.9917	2028.8674	36980.85	36099.3
934.129	2030.4406	36905.6	36025.15
934.2662	2032.0131	36702.45	35822.6
934.4034	2033.5849	36583	35696.95
934.5406	2035.1559	36552.7	35670.7
934.6778	2036.7261	36462	35579.85
934.8149	2038.2957	36353.15	35470.7
934.952	2039.8645	36253.2	35369.4
935.0891	2041.4325	36296.3	35410.9
935.2262	2042.9998	36104.3	35222.55
935.3632	2044.5664	36035.65	35151.75
935.5002	2046.1323	35871.55	34987.45
935.6372	2047.6974	35807.5	34926.1
935.7742	2049.2617	35686.7	34806.15
935.9111	2050.8254	35659.9	34772.95
936.048	2052.3883	35581.2	34696.1
936.1849	2053.9504	35436.5	34552.85
936.3218	2055.5118	35298.15	34412.8
936.4586	2057.0725	35162.4	34276.1
936.5955	2058.6325	35079.95	34196.65
936.7323	2060.1917	34959.25	34078.6
936.869	2061.7502	34895.85	34010.85
937.0058	2063.3079	34746.65	33865.65
937.1425	2064.8649	34638.7	33754.75
937.2792	2066.4212	34543.1	33660.2
937.4159	2067.9767	34506.1	33623.75
937.5525	2069.5315	34285.25	33403.4
937.6891	2071.0856	34164.9	33282.45
937.8257	2072.6389	34017.85	33134.05
937.9623	2074.1915	33863.95	32983.15
938.0989	2075.7433	33705.05	32819.8
938.2354	2077.2945	33635.95	32755.65
938.3719	2078.8448	33553.2	32669.05
938.5084	2080.3945	33452.3	32572.15
938.6448	2081.9434	33415.7	32532.3
938.7812	2083.4916	33302.85	32416.7
938.9176	2085.039	33150.7	32263.55
939.054	2086.5857	33063.05	32175.4
939.1903	2088.1317	33024.2	32136.95
939.3267	2089.677	32886.25	31999.25
939.463	2091.2215	32799.55	31912.7
939.5992	2092.7652	32719.2	31831.2
939.7355	2094.3083	32611.7	31724.35
939.8717	2095.8506	32586.75	31703.75
940.0079	2097.3921	32509.95	31625.8
940.1441	2098.933	32425	31540.25
940.2802	2100.4731	32332.7	31450.6
940.4163	2102.0124	32304.55	31401.65
940.5524	2103.5511	32182.7	31298.55
940.6885	2105.089	32120.35	31234.15
940.8245	2106.6261	32100.75	31217.35
940.9606	2108.1626	32015.25	31130.2
941.0965	2109.6983	31974.25	31061.15
941.2325	2111.2332	31821.8	30936.45
941.3684	2112.7675	31704.5	30817.7
941.5044	2114.301	31614.95	30728.2
941.6403	2115.8337	31577.2	30693.2
941.7761	2117.3657	31461.35	30577.15
941.912	2118.897	31391.05	30504.15
942.0478	2120.4276	31256.7	30366.05
942.1835	2121.9575	31100.2	30213
942.3193	2123.4866	31144.3	30245.5
942.455	2125.0149	31055.45	30167.85
942.5907	2126.5426	30868.65	29985.05
942.7264	2128.0695	30840.55	29951.6
942.8621	2129.5956	30787.5	29906.85
942.9977	2131.1211	30672.05	29785.05
943.1333	2132.6458	30613.55	29728.7
943.2689	2134.1698	30557.3	29669.75
943.4044	2135.693	30463.35	29574.2
943.54	2137.2155	30381.15	29493.9
943.6755	2138.7373	30260	29376.65
943.8109	2140.2584	30174.35	29290.75
943.9464	2141.7787	30117.3	29228.85
944.0818	2143.2983	29930.3	29050.55
944.2172	2144.8171	29771.3	28890
944.3526	2146.3353	29706.8	28823.35
944.4879	2147.8527	29632	28749.85
944.6232	2149.3693	29601.2	28715.45
944.7585	2150.8853	29475.15	28589.75
944.8938	2152.4005	29342.45	28457.4
945.029	2153.9149	29329.3	28442.5
945.1642	2155.4287	29199.75	28314.4
945.2994	2156.9417	29187.15	28298.85
945.4346	2158.454	29014.85	28131.5
945.5697	2159.9655	28971.35	28086.7
945.7048	2161.4764	28938.95	28056.6
945.8399	2162.9865	28838.8	27955
945.9749	2164.4958	28741.35	27855.6
946.1099	2166.0045	28573.55	27688.4
946.2449	2167.5124	28580.2	27698.1
946.3799	2169.0195	28504.85	27618.7
946.5148	2170.526	28449.55	27564.2
946.6498	2172.0317	28357.35	27472.85
946.7846	2173.5367	28290.15	27406.65
946.9195	2175.0409	28197.75	27313.05
947.0543	2176.5445	28170.5	27285
947.1891	2178.0473	28019.15	27132.65
947.3239	2179.5494	27895.2	27005.55
947.4587	2181.0507	27825.7	26944.25
947.5934	2182.5513	27741.1	26856.45
947.7281	2184.0512	27683.1	26796.55
947.8628	2185.5504	27573	26686.8
947.9974	2187.0488	27432.95	26549.05
948.132	2188.5465	27334.8	26450.4
948.2666	2190.0435	27288.05	26403.5
948.4012	2191.5397	27161.1	26275.45
948.5357	2193.0353	27093.4	26209.3
948.6702	2194.5301	26970.8	26082.5
948.8047	2196.0241	26834.45	25948.05
948.9392	2197.5175	26787.15	25900.75
949.0736	2199.0101	26689.7	25798.5
949.208	2200.502	26574.4	25688.45
949.3424	2201.9931	26468.2	25584
949.4767	2203.4835	26357.15	25472.4
949.611	2204.9733	26328.95	25439.5
949.7453	2206.4622	26298.9	25418.4
949.8796	2207.9505	26164.8	25279.6
950.0138	2209.438	26010.65	25131.15
950.148	2210.9248	25935.35	25049.95
950.2822	2212.4109	25877.5	24992
950.4164	2213.8962	25739.55	24849.45
950.5505	2215.3809	25725	24839.1
950.6846	2216.8648	25694.8	24807.75
950.8186	2218.3479	25581.25	24689.35
950.9527	2219.8304	25466.4	24574.25
951.0867	2221.3121	25378.6	24486.7
951.2207	2222.7931	25338.1	24451.7
951.3546	2224.2733	25218.6	24331
951.4886	2225.7529	25067.45	24182.5
951.6225	2227.2317	25023.5	24136.45
951.7563	2228.7098	24982.35	24099
951.8902	2230.1872	24858.55	23976.1
952.024	2231.6638	24854.2	23972.3
952.1578	2233.1397	24728.75	23838.75
952.2916	2234.6149	24640.15	23758.25
952.4253	2236.0894	24533.05	23647.7
952.559	2237.5632	24487.65	23604.7
952.6927	2239.0362	24388.6	23503.35
952.8263	2240.5085	24295.95	23411.8
952.9599	2241.9801	24210.55	23324.6
953.0935	2243.4509	24189.5	23304.9
953.2271	2244.921	24076.9	23191.65
953.3606	2246.3904	23976.25	23087.8
953.4941	2247.8591	23899.1	23014.45
953.6276	2249.3271	23796.9	22911.15
953.7611	2250.7943	23730.85	22843.8
953.8945	2252.2608	23647.5	22761.75
954.0279	2253.7266	23608.8	22724.4
954.1612	2255.1917	23526.65	22641.75
954.2946	2256.656	23461.15	22576.4
954.4279	2258.1197	23362.8	22479.75
954.5612	2259.5826	23306.4	22420.8
954.6944	2261.0447	23279.5	22392.05
954.8276	2262.5062	23174.55	22286.6
954.9608	2263.9669	23135.85	22248.5
955.094	2265.4269	23048.9	22162.9
955.2271	2266.8862	22969.15	22084.9
955.3602	2268.3448	22927.4	22043.5
955.4933	2269.8026	22869.55	21986.7
955.6264	2271.2598	22778.35	21895.2
955.7594	2272.7162	22719.8	21837.6
955.8924	2274.1719	22646.75	21761.1
956.0253	2275.6268	22608.85	21722.15
956.1583	2277.0811	22541	21654.35
956.2912	2278.5346	22496.4	21612.25
956.4241	2279.9874	22436.65	21550.1
956.5569	2281.4395	22409.6	21526.6
956.6897	2282.8908	22260.75	21371.6
956.8225	2284.3414	22240.65	21353.25
956.9553	2285.7914	22147.45	21264.25
957.088	2287.2406	22042.55	21152.3
957.2207	2288.689	21997.5	21112.1
957.3534	2290.1368	21937.8	21049.9
957.486	2291.5838	21869.1	20978.55
957.6186	2293.0302	21798.1	20907.2
957.7512	2294.4758	21723.35	20835.45
957.8838	2295.9206	21647.5	20758.4
958.0163	2297.3648	21605.65	20719.1
958.1488	2298.8082	21565.85	20679.6
958.2813	2300.251	21481.1	20596.5
958.4137	2301.693	21352.4	20459.8
958.5461	2303.1343	21365.25	20478.6
958.6785	2304.5748	21289.35	20405
958.8108	2306.0147	21186.25	20301.05
958.9432	2307.4538	21145.6	20260.65
959.0754	2308.8922	21076.2	20194
959.2077	2310.3299	21033.55	20151.6
959.3399	2311.7669	20981.55	20099.1
959.4721	2313.2031	20875.7	19989.45
959.6043	2314.6387	20802.75	19917.9
959.7365	2316.0735	20722	19836.4
959.8686	2317.5076	20657.3	19771.35
960.0006	2318.941	20621	19734.6
960.1327	2320.3737	20574.1	19687.55
960.2647	2321.8056	20525.2	19635.4
960.3967	2323.2369	20441.05	19554.35
960.5287	2324.6674	20383.7	19495.65
960.6606	2326.0972	20323.6	19436.95
960.7925	2327.5263	20243.9	19356.25
960.9244	2328.9547	20143.75	19255.85
961.0562	2330.3823	20109.5	19221.5
961.1881	2331.8092	20108.65	19218.7
961.3198	2333.2355	19992.55	19108
961.4516	2334.661	19959.3	19071.7
961.5833	2336.0858	19927.4	19038.8
961.715	2337.5098	19842.8	18957.65
961.8467	2338.9332	19790.7	18902.85
961.9783	2340.3558	19734.2	18846
962.1099	2341.7778	19640.05	18755.4
962.2415	2343.199	19567.2	18678.6
962.373	2344.6195	19543.25	18659.8
962.5045	2346.0393	19472.15	18587.05
962.636	2347.4583	19474.9	18588.7
962.7675	2348.8767	19351.5	18463.3
962.8989	2350.2943	19353.4	18465.75
963.0303	2351.7113	19280	18392.1
963.1617	2353.1275	19215.5	18326.9
963.293	2354.543	19142.5	18248
963.4243	2355.9578	19072.8	18185.2
963.5556	2357.3718	18935.75	18053.05
963.6868	2358.7852	18879.3	17992.2
963.818	2360.1978	18835.75	17949.65
963.9492	2361.6098	18804.4	17918.85
964.0803	2363.021	18739.95	17849.95
964.2114	2364.4315	18660.25	17772.85
964.3425	2365.8413	18576.75	17685.2
964.4736	2367.2504	18534.05	17649.95
964.6046	2368.6587	18447.45	17563.25
964.7356	2370.0664	18411.6	17523.7
964.8666	2371.4733	18327.2	17442.5
964.9975	2372.8795	18263.35	17378.05
965.1284	2374.285	18198.15	17310.25
965.2593	2375.6899	18106.2	17222.4
965.3901	2377.0939	18035.3	17149.4
965.5209	2378.4973	17967	17081.55
965.6517	2379.9	17935.65	17049.55
965.7825	2381.3019	17861.8	16973.65
965.9132	2382.7032	17812.15	16927
966.0439	2384.1037	17769.65	16888.25
966.1745	2385.5035	17705.65	16821.15
966.3051	2386.9027	17658.55	16776.8
966.4357	2388.3011	17592.25	16704.55
966.5663	2389.6987	17560.7	16677.4
966.6968	2391.0957	17520.15	16635.6
966.8273	2392.492	17418.45	16534.25
966.9578	2393.8876	17318.1	16432.75
967.0882	2395.2824	17259.8	16374.2
967.2186	2396.6765	17214.9	16329.85
967.349	2398.07	17125.3	16239.8
967.4793	2399.4627	17104.05	16217.4
967.6097	2400.8547	17056.9	16173.15
967.7399	2402.246	16990.35	16098.2
967.8702	2403.6366	16858.65	15973.05
968.0004	2405.0265	16824.45	15940.05
968.1306	2406.4156	16738	15848.5
968.2607	2407.8041	16655.4	15766.65
968.3909	2409.1918	16621.85	15733
968.521	2410.5789	16543.75	15659.45
968.651	2411.9652	16469.2	15579.7
968.781	2413.3508	16440.3	15554.55
968.911	2414.7358	16358.1	15472.95
969.041	2416.12	16305.6	15418.5
969.1709	2417.5035	16296.55	15412.3
969.3008	2418.8863	16223.15	15337
969.4307	2420.2684	16165.2	15278.85
969.5606	2421.6497	16080.85	15192.5
969.6904	2423.0304	15987.75	15103.1
969.8201	2424.4104	15956.4	15068.35
969.9499	2425.7896	15877.05	14989.85
970.0796	2427.1682	15867.4	14980.95
970.2093	2428.546	15794.35	14907.2
970.3389	2429.9232	15768.5	14881.5
970.4685	2431.2996	15731.3	14843.85
970.5981	2432.6753	15674.2	14789.2
970.7277	2434.0503	15645.1	14756.25
970.8572	2435.4246	15584.6	14698.8
970.9867	2436.7982	15478.65	14588.9
971.1161	2438.1711	15433.95	14550.35
971.2456	2439.5433	15398.5	14512.85
971.375	2440.9148	15323.25	14436.2
971.5043	2442.2856	15262.3	14377.55
971.6336	2443.6557	15214.6	14327.15
971.7629	2445.025	15167.5	14280.8
971.8922	2446.3937	15128.5	14244.6
972.0214	2447.7617	15083	14194.2
972.1506	2449.1289	15077.2	14191
972.2798	2450.4955	15010.9	14121.75
972.4089	2451.8613	14949.2	14064.4
972.538	2453.2265	14902.75	14016.3
972.6671	2454.5909	14900.9	14015.55
972.7961	2455.9546	14864.8	13981.7
972.9251	2457.3177	14794.4	13908.75
973.0541	2458.68	14709.5	13823.35
973.1831	2460.0416	14729.7	13843.55
973.312	2461.4025	14678.6	13792.05
973.4408	2462.7627	14643.25	13747.3
973.5697	2464.1222	14597.8	13714.5
973.6985	2465.4811	14512.6	13626.05
973.8273	2466.8392	14460.05	13575.55
973.956	2468.1966	14441	13553.05
974.0847	2469.5533	14429.5	13542.15
974.2134	2470.9093	14395.95	13509.65
974.3421	2472.2645	14345.3	13457.55
974.4707	2473.6191	14285.25	13401.5
974.5993	2474.973	14199.25	13311.25
974.7278	2476.3262	14160.5	13275.3
974.8563	2477.6787	14104.7	13218.15
974.9848	2479.0305	14062.95	13175.4
975.1132	2480.3816	13990.45	13102.9
975.2417	2481.7319	13978.4	13092.4
975.37	2483.0816	13896.8	13009
975.4984	2484.4306	13857.85	12971.35
975.6267	2485.7789	13835.15	12952.45
975.755	2487.1264	13751.75	12866.9
975.8833	2488.4733	13673.75	12790.85
976.0115	2489.8195	13624.25	12732.2
976.1397	2491.165	13611.85	12725.35
976.2678	2492.5097	13556.85	12669.7
976.3959	2493.8538	13496.1	12611.75
976.524	2495.1972	13398.25	12511.25
976.6521	2496.5398	13343.4	12456.2
976.7801	2497.8818	13314.35	12426.8
976.9081	2499.2231	13297.4	12410.75
977.036	2500.5637	13271.15	12384.05
977.164	2501.9035	13189.6	12302.25
977.2918	2503.2427	13167	12276.15
977.4197	2504.5812	13096.3	12212.7
977.5475	2505.919	13074.5	12185.45
977.6753	2507.256	13055.9	12171.05
977.8031	2508.5924	13003.5	12117.6
977.9308	2509.9281	12934.7	12042.25
978.0585	2511.2631	12927.2	12042.6
978.1861	2512.5974	12857.7	11972.7
978.3137	2513.9309	12817.15	11930.95
978.4413	2515.2638	12783.8	11867.65
978.5689	2516.596	12732.2	11847.95
978.6964	2517.9275	12660.25	11773.75
978.8239	2519.2583	12595.1	11707.65
978.9513	2520.5884	12558.1	11672.3
979.0788	2521.9178	12519.75	11633.75
979.2062	2523.2465	12490.55	11607.15
979.3335	2524.5745	12425.3	11540.75
979.4608	2525.9018	12384.4	11499.15
979.5881	2527.2284	12380.65	11496.95
979.7154	2528.5543	12343.25	11460.35
979.8426	2529.8796	12306.2	11420.9
979.9698	2531.2041	12258.5	11371.85
980.0969	2532.5279	12251.4	11369.05
980.224	2533.851	12245.95	11361.1
980.3511	2535.1735	12155.8	11272.5
980.4781	2536.4952	12143.9	11257.75
980.6052	2537.8163	12108.25	11224.5
980.7321	2539.1366	12051.5	11166.45
980.8591	2540.4562	12026.8	11139.05
980.986	2541.7752	12003.75	11117.7
981.1129	2543.0935	12007.15	11121.5
981.2397	2544.411	11964.75	11078.3
981.3665	2545.7279	11900.05	11016.05
981.4933	2547.0441	11888.2	11001.35
981.62	2548.3596	11873.1	10984.8
981.7467	2549.6744	11848.25	10962.05
981.8734	2550.9885	11799.95	10906.1
982.0001	2552.3019	11756.1	10870.65
982.1267	2553.6146	11731.45	10844.35
982.2532	2554.9266	11714.55	10828.4
982.3798	2556.2379	11656.85	10770.5
982.5063	2557.5485	11650.55	10767
982.6327	2558.8585	11617.65	10723.45
982.7592	2560.1677	11620.75	10729.6
982.8856	2561.4762	11560.1	10674.1
983.0119	2562.7841	11559.7	10669.85
983.1383	2564.0913	11518.65	10635
983.2646	2565.3977	11508.75	10623.75
983.3908	2566.7035	11447.95	10562.2
983.517	2568.0086	11436.9	10550.6
983.6432	2569.313	11426.8	10536.15
983.7694	2570.6167	11395	10505.7
983.8955	2571.9197	11388.95	10502.55
984.0216	2573.222	11354.7	10465.65
984.1476	2574.5236	11299	10410.85
984.2737	2575.8246	11284.5	10394.15
984.3996	2577.1248	11261.35	10372.1
984.5256	2578.4244	11230.85	10346.15
984.6515	2579.7232	11198.9	10313.75
984.7774	2581.0214	11206.3	10298.45
984.9032	2582.3189	11171.1	10284.65
985.029	2583.6157	11143.8	10255.25
985.1548	2584.9118	11089.75	10203.35
985.2806	2586.2072	11060.65	10176.45
985.4063	2587.5019	11011.15	10126.9
985.5319	2588.7959	10975.5	10086.5
985.6576	2590.0893	10976.3	10090.15
985.7832	2591.3819	10945.4	10061.05
985.9087	2592.6739	10891.4	10004.8
986.0343	2593.9652	10872.05	9985.3
986.1597	2595.2557	10828.4	9942.95
986.2852	2596.5456	10770	9882.3
986.4106	2597.8348	10739.6	9855.7
986.536	2599.1234	10699.75	9812.65
986.6614	2600.4112	10672.35	9787.55
986.7867	2601.6983	10619.85	9730.2
986.912	2602.9848	10601.95	9716.65
987.0372	2604.2705	10553.5	9662.55
987.1624	2605.5556	10514.9	9627.05
987.2876	2606.84	10475	9589.7
987.4128	2608.1237	10447.6	9560.6
987.5379	2609.4067	10404.4	9518.5
987.6629	2610.689	10364.5	9470.75
987.788	2611.9707	10313.3	9422.3
987.913	2613.2516	10286.45	9395.65
988.0379	2614.5319	10235.65	9351.05
988.1629	2615.8115	10202.6	9316.5
988.2878	2617.0903	10149.95	9263.4
988.4126	2618.3685	10105.6	9220.55
988.5375	2619.6461	10061.25	9176.85
988.6622	2620.9229	10046.25	9160.6
988.787	2622.199	10050.1	9163.45
988.9117	2623.4745	9979.95	9094.9
989.0364	2624.7493	9949.8	9064.9
989.161	2626.0234	9922.75	9038.7
989.2857	2627.2968	9896.25	9012.25
989.4102	2628.5695	9832.2	8945.05
989.5348	2629.8415	9802.25	8919.2
989.6593	2631.1128	9740.65	8854.55
989.7837	2632.3835	9719.85	8834.85
989.9082	2633.6535	9676.75	8791.45
990.0326	2634.9228	9648.55	8764.85
990.1569	2636.1914	9623.45	8739.8
990.2812	2637.4593	9607.65	8717.5
990.4055	2638.7265	9544.85	8657.15
990.5298	2639.9931	9513.55	8628.7
990.654	2641.259	9517.35	8631.05
990.7782	2642.5242	9490.45	8605.1
990.9023	2643.7887	9452.3	8565.7
991.0264	2645.0525	9430.75	8545.4
991.1505	2646.3156	9389.45	8504.15
991.2745	2647.5781	9358.5	8474.75
991.3985	2648.8398	9316.65	8432.25
991.5225	2650.1009	9310.45	8386.25
991.6464	2651.3613	9283.8	8400.25
991.7703	2652.6211	9241.1	8357.8
991.8942	2653.8801	9202.45	8318.65
992.018	2655.1385	9162.6	8274.05
992.1418	2656.3961	9156.5	8270.1
992.2655	2657.6531	9119.55	8235.55
992.3892	2658.9094	9119.65	8236.15
992.5129	2660.1651	9103.15	8217.95
992.6366	2661.42	9063.6	8180.6
992.7602	2662.6743	9054.1	8167.8
992.8837	2663.9279	9028.15	8144.7
993.0073	2665.1808	8975.05	8089.3
993.1307	2666.433	8942	8054.7
993.2542	2667.6846	8933.05	8048.85
993.3776	2668.9354	8912.4	8025.2
993.501	2670.1856	8877.25	7992.2
993.6244	2671.4351	8868.4	7984.45
993.7477	2672.6839	8858.75	7970.85
993.8709	2673.9321	8811.75	7927.45
993.9942	2675.1795	8764.7	7880.85
994.1174	2676.4263	8748.2	7864
994.2405	2677.6724	8713.95	7830.9
994.3637	2678.9179	8694.4	7808.25
994.4868	2680.1626	8665.15	7781.45
994.6098	2681.4067	8628.6	7742.9
994.7328	2682.6501	8626.8	7742.25
994.8558	2683.8928	8601.95	7718.7
994.9788	2685.1348	8576	7692.3
995.1017	2686.3761	8521.1	7637.3
995.2245	2687.6168	8502.65	7619.25
995.3474	2688.8568	8467.95	7584.5
995.4702	2690.0961	8428	7544.95
995.5929	2691.3348	8394.35	7509.85
995.7156	2692.5727	8381.95	7495.85
995.8383	2693.81	8367.3	7484.4
995.961	2695.0466	8343.25	7456.7
996.0836	2696.2826	8303.2	7417.35
996.2062	2697.5178	8276.7	7388.2
996.3287	2698.7524	8271.05	7386.5
996.4512	2699.9863	8246.8	7360.1
996.5737	2701.2195	8212.65	7330.2
996.6961	2702.452	8186.65	7302.25
996.8185	2703.6839	8176.6	7290
996.9408	2704.9151	8148.65	7266.3
997.0631	2706.1456	8125.2	7241.7
997.1854	2707.3755	8099.35	7213.95
997.3077	2708.6046	8080.6	7193.9
997.4299	2709.8331	8050.2	7164.1
997.552	2711.0609	8025.9	7140
997.6742	2712.2881	8003.6	7119.8
997.7963	2713.5145	7970.05	7082.25
997.9183	2714.7403	7925.85	7043.1
998.0403	2715.9654	7897.25	7012.15
998.1623	2717.1899	7896.6	7008.6
998.2842	2718.4136	7879.9	6997.55
998.4062	2719.6367	7857.25	6972.4
998.528	2720.8591	7841.3	6948.55
998.6498	2722.0809	7788.35	6904.65
998.7716	2723.3019	7778.05	6887.65
998.8934	2724.5223	7765.3	6880.5
999.0151	2725.7421	7735.65	6850.7
999.1368	2726.9611	7735.8	6849.6
999.2584	2728.1795	7688.1	6799.65
999.38	2729.3972	7661.45	6776.9
999.5016	2730.6142	7633.25	6741.75
999.6231	2731.8306	7586.1	6700.15
999.7446	2733.0462	7548.3	6660.45
999.8661	2734.2612	7518.1	6629.85
999.9875	2735.4756	7467.75	6580.55
1000.1089	2736.6892	7422.9	6539.85
1000.2302	2737.9022	7394.45	6508.6
1000.3515	2739.1145	7375.15	6490.3
1000.4728	2740.3262	7330.6	6440
1000.594	2741.5372	7285.95	6402.7
1000.7152	2742.7475	7279.65	6397.2
1000.8363	2743.9571	7242.55	6354.85
1000.9575	2745.1661	7202.4	6313.85
1001.0785	2746.3744	7170.45	6285.75
1001.1996	2747.582	7165.1	6279.65
1001.3206	2748.7889	7139.65	6252.15
1001.4415	2749.9952	7105.7	6222.4
1001.5625	2751.2008	7088.55	6204.4
1001.6833	2752.4057	7065.9	6180.05
1001.8042	2753.61	7049.55	6166.15
1001.925	2754.8136	6989.8	6102.1
1002.0458	2756.0165	6982.6	6097.05
1002.1665	2757.2188	6953.55	6070.35
1002.2872	2758.4204	6920.4	6037.05
1002.4078	2759.6213	6908.1	6022.55
1002.5285	2760.8215	6893.7	6005.55
1002.649	2762.0211	6864.4	5980.7
1002.7696	2763.22	6833.15	5944.05
1002.8901	2764.4182	6812.5	5926.8
1003.0106	2765.6158	6817.45	5933.55
1003.131	2766.8127	6773.85	5891.55
1003.2514	2768.009	6742.9	5859.35
1003.3717	2769.2045	6715.35	5830.05
1003.492	2770.3994	6708.05	5822.25
1003.6123	2771.5936	6681.1	5794.4
1003.7325	2772.7872	6664.65	5782.9
1003.8527	2773.9801	6624	5738.35
1003.9729	2775.1723	6608.6	5709.35
1004.093	2776.3639	6597.35	5715.1
1004.2131	2777.5548	6559.3	5672.1
1004.3331	2778.745	6529.75	5645.35
1004.4531	2779.9346	6514.05	5630.7
1004.5731	2781.1235	6496.1	5611.2
1004.693	2782.3117	6478.45	5596.6
1004.8129	2783.4992	6443.2	5559.9
1004.9328	2784.6861	6446.15	5564.35
1005.0526	2785.8723	6443.5	5558.9
1005.1723	2787.0579	6392.85	5508.55
1005.2921	2788.2428	6384.2	5500.5
1005.4118	2789.427	6370.05	5487.6
1005.5314	2790.6106	6341.15	5457.8
1005.651	2791.7935	6322.3	5437.45
1005.7706	2792.9757	6295.95	5412.15
1005.8902	2794.1573	6295.15	5410.4
1006.0097	2795.3382	6281.95	5399.05
1006.1291	2796.5184	6248.3	5365
1006.2485	2797.698	6249.1	5364.25
1006.3679	2798.8769	6228.55	5346.2
1006.4873	2800.0551	6226	5342.45
1006.6066	2801.2327	6210.7	5322.65
1006.7258	2802.4096	6205.2	5323
1006.8451	2803.5859	6181.95	5298.75
1006.9642	2804.7615	6170.55	5286.2
1007.0834	2805.9364	6160.2	5279.15
1007.2025	2807.1106	6163.45	5281.85
1007.3216	2808.2842	6183.3	5299.35
1007.4406	2809.4572	6158.3	5275.3
1007.5596	2810.6294	6167.95	5282.2
1007.6785	2811.801	6181.1	5300.15
1007.7975	2812.972	6189.6	5307.4
1007.9163	2814.1423	6201.45	5319.75
1008.0352	2815.3119	6217	5337.05
1008.154	2816.4808	6218.65	5336.7
1008.2727	2817.6491	6252.6	5369.4
1008.3914	2818.8167	6277.05	5394.45
1008.5101	2819.9837	6318.95	5432.05
1008.6288	2821.15	6305.5	5422.55
1008.7474	2822.3157	6322.45	5441
1008.8659	2823.4807	6362.25	5478.8
1008.9844	2824.645	6414.8	5532.45
1009.1029	2825.8086	6432.85	5551.15
1009.2214	2826.9716	6443.55	5561.25
1009.3398	2828.134	6487.35	5604.7
1009.4581	2829.2957	6519.75	5637.4
1009.5764	2830.4567	6502.8	5621.15
1009.6947	2831.617	6525.3	5642.45
1009.813	2832.7767	6519.75	5637.3
1009.9312	2833.9358	6489.4	5608.7
1010.0493	2835.0941	6509.35	5624.6
1010.1675	2836.2519	6467.95	5584.75
1010.2855	2837.4089	6441.3	5556.7
1010.4036	2838.5653	6415.15	5531.7
1010.5216	2839.7211	6380.4	5499.55
1010.6396	2840.8761	6381.15	5497.8
1010.7575	2842.0306	6384.75	5504.55
1010.8754	2843.1843	6394.75	5512.15
1010.9932	2844.3374	6389.95	5508.65
1011.111	2845.4899	6417.8	5535.25
1011.2288	2846.6417	6462.65	5582.1
1011.3465	2847.7928	6478.4	5597.4
1011.4642	2848.9433	6522.9	5639.3
1011.5818	2850.0931	6555.3	5672.7
1011.6995	2851.2422	6588.9	5704.7
1011.817	2852.3907	6635.05	5751.95
1011.9345	2853.5385	6646.85	5763.05
1012.052	2854.6857	6680.1	5786.2
1012.1695	2855.8323	6689.2	5809.45
1012.2869	2856.9781	6710	5826.65
1012.4042	2858.1233	6741.65	5861.35
1012.5216	2859.2679	6755.25	5873.9
1012.6389	2860.4118	6770.15	5888.4
1012.7561	2861.555	6799.8	5911.45
1012.8733	2862.6976	6809.55	5926.1
1012.9905	2863.8395	6805.2	5922.35
1013.1076	2864.9808	6833.75	5953.75
1013.2247	2866.1214	6815.1	5933.95
1013.3417	2867.2614	6827.55	5946.3
1013.4587	2868.4007	6804.2	5921.15
1013.5757	2869.5393	6809.3	5924.5
1013.6926	2870.6773	6815.85	5932.3
1013.8095	2871.8146	6804.9	5918.95
1013.9263	2872.9513	6785.75	5900.6
1014.0431	2874.0874	6713.7	5832.8
1014.1599	2875.2227	6713.9	5830.2
1014.2766	2876.3574	6686.7	5805
1014.3933	2877.4915	6664.65	5782.95
1014.51	2878.6249	6609.2	5728.6
1014.6266	2879.7577	6584.95	5701.4
1014.7431	2880.8898	6533.25	5637.15
1014.8596	2882.0212	6514.7	5634.2
1014.9761	2883.152	6496.25	5613.05
1015.0925	2884.2821	6475.35	5594.85
1015.2089	2885.4116	6428.5	5547.6
1015.3253	2886.5405	6416.6	5537.2
1015.4416	2887.6686	6416.75	5530.6
1015.5579	2888.7962	6382.25	5500.9
1015.6741	2889.923	6365.8	5485.4
1015.7903	2891.0493	6371.85	5492.3
1015.9065	2892.1748	6349.8	5466.65
1016.0226	2893.2997	6341.1	5458.1
1016.1387	2894.424	6324.9	5442.75
1016.2547	2895.5476	6324.6	5443.35
1016.3707	2896.6706	6326.15	5444.55
1016.4866	2897.7929	6359.15	5476.65
1016.6025	2898.9145	6356.2	5473.9
1016.7184	2900.0355	6351.15	5468.55
1016.8342	2901.1559	6342.9	5459.2
1016.95	2902.2756	6365.5	5483.35
1017.0658	2903.3946	6374.4	5492.55
1017.1815	2904.513	6378.45	5493.8
1017.2971	2905.6308	6372.95	5491.35
1017.4127	2906.7479	6360.8	5477.15
1017.5283	2907.8643	6373.25	5493.35
1017.6439	2908.9801	6386.65	5503.5
1017.7594	2910.0953	6356.45	5475.4
1017.8748	2911.2098	6339.25	5452.35
1017.9902	2912.3236	6316.85	5426.55
1018.1056	2913.4368	6309.7	5422.95
1018.2209	2914.5494	6289.5	5408.55
1018.3362	2915.6613	6224.9	5339.35
1018.4515	2916.7725	6213.55	5327.5
1018.5667	2917.8831	6181.35	5297.55
1018.6819	2918.9931	6142.5	5260.5
1018.797	2920.1024	6090.9	5208.95
1018.9121	2921.211	6074.95	5195.3
1019.0271	2922.319	6049	5167.3
1019.1421	2923.4264	6008	5126.95
1019.2571	2924.5331	6011.05	5130.25
1019.372	2925.6391	5983.15	5103.1
1019.4869	2926.7445	5949.45	5068.95
1019.6017	2927.8493	5951.3	5069.85
1019.7165	2928.9534	5921.8	5038.25
1019.8313	2930.0569	5920.45	5038.4
1019.946	2931.1597	5916.55	5032.95
1020.0606	2932.2619	5906.95	5025.8
1020.1753	2933.3634	5907.35	5024.5
1020.2899	2934.4643	5877.95	4988.95
1020.4044	2935.5645	5869.7	4982.85
1020.5189	2936.6641	5833.5	4947.5
1020.6334	2937.763	5806.35	4926.25
1020.7478	2938.8613	5762.25	4882.1
1020.8622	2939.959	5706.95	4820.2
1020.9765	2941.056	5639.15	4759.8
1021.0908	2942.1523	5549.4	4667.35
1021.2051	2943.248	5514.9	4632.3
1021.3193	2944.3431	5414.75	4535.1
1021.4334	2945.4375	5328.4	4445.75
1021.5476	2946.5313	5237.4	4355.65
1021.6617	2947.6244	5139.8	4259.05
1021.7757	2948.7169	5067.55	4185.85
1021.8897	2949.8087	4984.35	4103.85
1022.0037	2950.8999	4895.7	4013.2
1022.1176	2951.9904	4822.3	3941.25
1022.2315	2953.0803	4766.6	3885.25
1022.3453	2954.1696	4699.25	3818
1022.4591	2955.2582	4641.15	3762.3
1022.5728	2956.3462	4600.5	3718.15
1022.6865	2957.4335	4556.3	3674.75
1022.8002	2958.5202	4504.4	3622.3
1022.9138	2959.6062	4480.35	3600.1
1023.0274	2960.6916	4449.15	3568.95
1023.141	2961.7764	4417.85	3535.7
1023.2545	2962.8605	4385.5	3504.5
1023.3679	2963.9439	4364.85	3485.05
1023.4813	2965.0267	4346	3462.15
1023.5947	2966.1089	4333.4	3430.05
1023.708	2967.1905	4298.3	3416.55
1023.8213	2968.2714	4290.85	3410.25
1023.9346	2969.3516	4277.85	3397.85
1024.0478	2970.4312	4279.4	3390.05
1024.1609	2971.5102	4260.15	3380.2
1024.274	2972.5885	4248.85	3367.65
1024.3871	2973.6662	4245.55	3359.9
1024.5002	2974.7432	4226	3345.2
1024.6132	2975.8196	4210.35	3328.9
1024.7261	2976.8954	4207.8	3328.55
1024.839	2977.9705	4180.75	3299.95
1024.9519	2979.045	4159.8	3277.05
1025.0647	2980.1188	4129.2	3247.25
1025.1775	2981.192	4120.4	3238.3
1025.2902	2982.2645	4083.15	3203
1025.4029	2983.3364	4052.65	3170.4
1025.5156	2984.4077	4018.8	3137.2
1025.6282	2985.4783	3994.9	3109.15
1025.7407	2986.5483	3967	3088.5
1025.8532	2987.6177	3921.75	3041.95
1025.9657	2988.6864	3888.7	3006.4
1026.0782	2989.7545	3865.85	2982.9
1026.1906	2990.8219	3819.15	2939.35
1026.3029	2991.8887	3784.15	2900.7
1026.4152	2992.9548	3751.8	2870.35
1026.5275	2994.0204	3717.15	2836.95
1026.6397	2995.0852	3687.4	2808
1026.7519	2996.1495	3656.55	2776.3
1026.864	2997.2131	3632.95	2751.35
1026.9761	2998.276	3600.75	2718.85
1027.0882	2999.3383	3583.65	2704.05
1027.2002	3000.4	3544.05	2661
1027.3122	3001.4611	3528.8	2649.05
1027.4241	3002.5215	3508.65	2626.3
1027.536	3003.5812	3495.6	2615.25
1027.6478	3004.6404	3468.6	2586.35
1027.7596	3005.6989	3446.25	2565
1027.8714	3006.7567	3441.8	2561.35
1027.9831	3007.8139	3447.05	2535.3
1028.0947	3008.8705	3404.45	2523.3
1028.2064	3009.9264	3383	2499.3
1028.3179	3010.9818	3361.3	2480.25
1028.4295	3012.0364	3355.45	2474.15
1028.541	3013.0905	3349.35	2468.35
1028.6524	3014.1439	3339.8	2457.25
1028.7638	3015.1966	3318.7	2438.8
1028.8752	3016.2487	3316.5	2435.35
1028.9865	3017.3002	3309.75	2426.75
1029.0978	3018.3511	3301.95	2421.5
1029.209	3019.4013	3291.5	2411.2
1029.3202	3020.4509	3269.05	2388
1029.4314	3021.4998	3273	2393.3
1029.5425	3022.5481	3258.35	2378.2
1029.6535	3023.5958	3248.1	2369.2
1029.7645	3024.6428	3242.15	2359.2
1029.8755	3025.6892	3237.95	2358.9
1029.9864	3026.735	3214.35	2333.75
1030.0973	3027.7802	3197.95	2319.5
1030.2082	3028.8247	3188.5	2307.15
1030.319	3029.8685	3184.35	2303.1
1030.4297	3030.9118	3178.85	2298.8
1030.5404	3031.9544	3158.95	2280.55
1030.6511	3032.9963	3150.9	2269.95
1030.7617	3034.0376	3150	2271.75
1030.8723	3035.0783	3141.45	2257.8
1030.9829	3036.1184	3129.6	2248.75
1031.0934	3037.1578	3126.5	2246.05
1031.2038	3038.1966	3129.85	2246.8
1031.3142	3039.2348	3107.45	2228.85
1031.4246	3040.2723	3115.1	2223.65
1031.5349	3041.3092	3094.85	2216
1031.6452	3042.3455	3090	2210.55
1031.7554	3043.3811	3078.85	2199
1031.8656	3044.4161	3070.45	2186.7
1031.9758	3045.4505	3061.2	2181.4
1032.0859	3046.4842	3050.1	2167.3
1032.1959	3047.5173	3037.45	2159.1
1032.3059	3048.5498	3029.1	2148.2
1032.4159	3049.5816	3020.25	2140.3
1032.5258	3050.6128	3013.25	2131.9
1032.6357	3051.6434	3003.3	2121.15
1032.7455	3052.6734	2986.55	2105.55
1032.8553	3053.7027	2980.55	2100.5
1032.9651	3054.7314	2978.15	2098.95
1033.0748	3055.7594	2960.85	2081.75
1033.1845	3056.7868	2953.35	2071.55
1033.2941	3057.8136	2930.7	2051.85
1033.4037	3058.8398	2924.9	2046.45
1033.5132	3059.8653	2922.5	2041.7
1033.6227	3060.8902	2909.25	2028.9
1033.7321	3061.9145	2894.5	2014.7
1033.8415	3062.9381	2887.45	2008.8
1033.9509	3063.9612	2897.45	2000.75
1034.0602	3064.9835	2863.65	1985.15
1034.1694	3066.0053	2856.95	1974.7
1034.2787	3067.0264	2834.4	1954.15
1034.3878	3068.0469	2834.2	1954.6
1034.497	3069.0668	2834.2	1949.2
1034.6061	3070.086	2811.4	1932.15
1034.7151	3071.1046	2802.05	1921.1
1034.8241	3072.1226	2789.25	1908.1
1034.9331	3073.1399	2780.8	1900.2
1035.042	3074.1567	2773	1892.35
1035.1508	3075.1727	2740.2	1857.75
1035.2597	3076.1882	2743.1	1863.15
1035.3684	3077.203	2730.4	1850.15
1035.4772	3078.2173	2718.8	1836.5
1035.5859	3079.2308	2718.1	1834.55
1035.6945	3080.2438	2704.05	1821.1
1035.8031	3081.2561	2676.2	1794.05
1035.9117	3082.2678	2673.9	1793.15
1036.0202	3083.2789	2662.95	1784.8
1036.1286	3084.2893	2654.15	1773.55
1036.2371	3085.2991	2634.55	1753.35
1036.3454	3086.3083	2635.6	1751.85
1036.4538	3087.3169	2611.85	1729.85
1036.562	3088.3248	2613.65	1733.55
1036.6703	3089.3321	2615.25	1733.15
1036.7785	3090.3388	2583.7	1705
1036.8866	3091.3449	2569.35	1687.75
1036.9948	3092.3503	2573.95	1692.55
1037.1028	3093.3551	2577.25	1700.4
1037.2108	3094.3593	2561.3	1680.5
1037.3188	3095.3629	2537.3	1657.55
1037.4267	3096.3658	2539.1	1658.05
1037.5346	3097.3681	2524.45	1644.7
1037.6425	3098.3698	2511.45	1629.5
1037.7503	3099.3708	2506.15	1618.75
1037.858	3100.3713	2495.15	1617.85
1037.9657	3101.3711	2487.35	1608.2
1038.0734	3102.3702	2598.9	1584.4
1038.181	3103.3688	2466.15	1584.2
1038.2886	3104.3667	2454.2	1576.55
1038.3961	3105.364	2453.9	1576
1038.5036	3106.3607	2434.75	1552.7
1038.611	3107.3568	2427.9	1547.6
1038.7184	3108.3522	2413.75	1534.65
1038.8257	3109.347	2417.1	1536.55
1038.933	3110.3412	2394.35	1510.75
1039.0403	3111.3348	2384.65	1505.4
1039.1475	3112.3277	2378.15	1500.1
1039.2547	3113.32	2374.95	1495
1039.3618	3114.3117	2372	1491.35
1039.4689	3115.3028	2358.5	1479.05
1039.5759	3116.2932	2338.85	1457.6
1039.6829	3117.2831	2345.5	1461
1039.7898	3118.2723	2331.75	1450.8
1039.8967	3119.2608	2326.35	1445.35
1040.0035	3120.2488	2308.15	1427.55
1040.1103	3121.2361	2312	1432.75
1040.2171	3122.2229	2297.65	1419.5
1040.3238	3123.209	2285.75	1404
1040.4305	3124.1944	2273.65	1396.1
1040.5371	3125.1793	2278.7	1397.5
1040.6437	3126.1635	2262.1	1384.15
1040.7502	3127.1471	2255.95	1375.2
1040.8567	3128.1301	2257.6	1378.35
1040.9631	3129.1125	2250.9	1371.3
1041.0695	3130.0942	2240.85	1359.85
1041.1759	3131.0753	2239.2	1349.7
1041.2822	3132.0558	2230.25	1346.25
1041.3884	3133.0357	2219.1	1340.05
1041.4946	3134.015	2209.4	1326.85
1041.6008	3134.9936	2206.55	1324.8
1041.7069	3135.9716	2213.55	1311.65
1041.813	3136.949	2183.6	1305.55
1041.919	3137.9258	2186.8	1302.65
1042.025	3138.902	2187.65	1303.85
1042.1309	3139.8775	2177.05	1299
1042.2368	3140.8524	2169.5	1290.1
1042.3427	3141.8267	2158.65	1277.45
1042.4485	3142.8004	2166.45	1286.55
1042.5542	3143.7735	2168.8	1282.5
1042.6599	3144.7459	2157.05	1277
1042.7656	3145.7178	2140.95	1258.65
1042.8712	3146.689	2131.3	1253.55
1042.9768	3147.6596	2126.65	1244
1043.0823	3148.6295	2124.6	1244.45
1043.1878	3149.5989	2117.35	1238.3
1043.2932	3150.5676	2106.8	1228.8
1043.3986	3151.5357	2099.8	1220.35
1043.5039	3152.5032	2086.8	1207
1043.6092	3153.4701	2087.5	1209.2
1043.7145	3154.4364	2088.05	1207.7
1043.8197	3155.402	2080.95	1202.95
1043.9248	3156.367	2077.6	1194.4
1044.03	3157.3315	2101.45	1183.65
1044.135	3158.2952	2059.5	1179.2
1044.24	3159.2584	2039.15	1160.05
1044.345	3160.221	2039.95	1160.1
1044.4499	3161.1829	2040.7	1160.35
1044.5548	3162.1442	2039.45	1162.8
1044.6596	3163.105	2022.1	1143.45
1044.7644	3164.065	2014.5	1135.2
1044.8692	3165.0245	2006.8	1125.1
1044.9739	3165.9834	2000.4	1122
1045.0785	3166.9416	1996.65	1116.3
1045.1831	3167.8993	1992	1110.95
1045.2877	3168.8563	1989.65	1109.55
1045.3922	3169.8127	1974.65	1096.55
1045.4966	3170.7684	1969.25	1092.15
1045.6011	3171.7236	1962.85	1079.85
1045.7054	3172.6782	1966.7	1087.9
1045.8098	3173.6321	1950.25	1069.75
1045.914	3174.5854	1953.55	1069.25
1046.0183	3175.5381	1953.4	1072.8
1046.1224	3176.4902	1933.6	1054.55
1046.2266	3177.4417	1932.4	1052.6
1046.3307	3178.3926	1927.55	1048.75
1046.4347	3179.3428	1923.05	1045.5
1046.5387	3180.2924	1914.9	1034.85
1046.6427	3181.2415	1913.35	1033.75
1046.7466	3182.1899	1899.5	1018.55
1046.8504	3183.1377	1901.55	1021.35
1046.9542	3184.0848	1892.3	1010.35
1047.058	3185.0314	1887.95	1008.55
1047.1617	3185.9773	1871.15	991.8
1047.2654	3186.9227	1870.2	991.05
1047.369	3187.8674	1869.35	991.45
1047.4726	3188.8115	1877.85	994.95
1047.5761	3189.755	1861.65	981.85
1047.6796	3190.6979	1849	970.05
1047.783	3191.6402	1841.45	963.2
1047.8864	3192.5818	1852.65	971.05
1047.9898	3193.5229	1854.95	959.3
1048.0931	3194.4633	1841.5	961.7
1048.1963	3195.4031	1827.45	947.7
1048.2995	3196.3423	1828	948.65
1048.4027	3197.2809	1833.25	952.45
1048.5058	3198.2189	1808	929.1
1048.6089	3199.1563	1827.95	929.95
1048.7119	3200.0931	1806.35	929.95
1048.8148	3201.0292	1796.05	918.55
1048.9178	3201.9648	1793.85	914.25
1049.0206	3202.8997	1792.55	909.1
1049.1235	3203.834	1788.4	910.65
1049.2262	3204.7677	1784.55	904.95
1049.329	3205.7008	1783.2	901
1049.4317	3206.6333	1770.5	892.25
1049.5343	3207.5652	1771.65	889.2
1049.6369	3208.4964	1755.65	876
1049.7394	3209.4271	1762.15	884.75
1049.8419	3210.3571	1748.2	868.35
1049.9444	3211.2865	1744.9	863.85
1050.0468	3212.2154	1753.05	875.5
1050.1491	3213.1436	1735.1	851.65
1050.2514	3214.0712	1738.1	854.3
1050.3537	3214.9982	1728.2	848.7
1050.4559	3215.9246	1723.75	841.95
1050.5581	3216.8503	1720.15	841.1
1050.6602	3217.7755	1723.8	842.9
1050.7623	3218.7001	1715.75	836.75
1050.8643	3219.624	1709.15	828.55
1050.9663	3220.5473	1705.3	826.35
1051.0682	3221.4701	1702.7	822.55
1051.1701	3222.3922	1702.6	821
1051.2719	3223.3137	1695.45	817.55
1051.3737	3224.2346	1688.05	808.55
1051.4754	3225.1549	1684.35	808
1051.5771	3226.0746	1676.55	797.4
1051.6788	3226.9937	1680.7	801.05
1051.7804	3227.9121	1670.3	791.75
1051.8819	3228.83	1664.6	784.55
1051.9834	3229.7473	1661.35	781.55
1052.0849	3230.6639	1661.4	783.5
1052.1863	3231.5799	1664.45	785.2
1052.2876	3232.4954	1649.15	766.9
1052.3889	3233.4102	1644.25	765.5
1052.4902	3234.3244	1640.5	761.4
1052.5914	3235.238	1643.45	762.45
1052.6926	3236.151	1657.2	751.45
1052.7937	3237.0634	1630	751.35
1052.8948	3237.9752	1629.8	750.7
1052.9958	3238.8864	1617.7	739.15
1053.0968	3239.797	1616.1	736.1
1053.1977	3240.7069	1605.6	726.65
1053.2986	3241.6163	1604.9	722.8
1053.3994	3242.5251	1602.4	724.45
1053.5002	3243.4332	1600.05	721.4
1053.6009	3244.3408	1598.8	719.85
1053.7016	3245.2477	1590.1	713.05
1053.8022	3246.154	1590.6	710.35
1053.9028	3247.0598	1586	705.1
1054.0034	3247.9649	1573.45	695
1054.1039	3248.8694	1565.5	686.15
1054.2043	3249.7733	1570.2	692
1054.3047	3250.6766	1567.1	688.65
1054.4051	3251.5793	1561.15	679.25
1054.5054	3252.4814	1547.05	668.9
1054.6056	3253.3829	1552.55	675.15
1054.7058	3254.2838	1544.35	665.75
1054.806	3255.1841	1540.25	661.15
1054.9061	3256.0838	1530.6	651.2
1055.0061	3256.9829	1529.85	651
1055.1062	3257.8814	1525.6	644.6
1055.2061	3258.7792	1524.45	641.8
1055.306	3259.6765	1514	633.55
1055.4059	3260.5731	1508.2	629.85
1055.5057	3261.4692	1496.65	615.4
1055.6055	3262.3647	1494.25	614.35
1055.7052	3263.2595	1483.9	605.05
1055.8049	3264.1538	1475.65	596.8
1055.9045	3265.0474	1473.9	593.9
1056.0041	3265.9404	1449.5	571.8
1056.1036	3266.8329	1442.9	563.5
1056.2031	3267.7247	1444.8	554.65
1056.3025	3268.616	1422.55	544.25
1056.4019	3269.5066	1413.6	533.2
1056.5013	3270.3966	1398.2	516.15
1056.6005	3271.286	1381.45	505.45
