Software Version:	3.9.2.0
Unit SN:	10000200
Spectrometer SN:	6960
Date:	3/6/2024 10:09:54 AM
Data Line Index:	25
Spectral Points:	2048
Integration time (ms):	125
Averages:	20
Delay (ms):	30
Sequence Number:	1
Processing:	dark subtract
Laser Power (mW):	300
Laser Current (mA):	825
Laser Diode Temp (C):	25
Laser Case Temp (C):	24.9
System Temp (C):	24.7
Spectrometer Temp (C):	22.2
CCD Temp (C):	0.005
Secondary Temp (C):	20.01
Heatsink Temp (C):	18.638
CCDPCB Temp (C):	31.383
SecondaryPCB Temp (C):	26.014

Wavelength	RamanShift	Raw Counts	Dark Subtracted
787.061	30.1047	907.65	499.2
787.2016	32.3739	924.55	517.75
787.3422	34.6426	959.75	551.9
787.4828	36.9109	993.2	582.65
787.6235	39.1787	1037.2	622.1
787.7642	41.4461	1080.9	660.7
787.9049	43.7131	1124.05	702.3
788.0456	45.9796	1165.8	741.25
788.1863	48.2456	1214	786.2
788.3271	50.5112	1261.85	830.55
788.4679	52.7764	1316.05	882.1
788.6087	55.0411	1368.95	929.2
788.7496	57.3054	1430.75	984.25
788.8904	59.5692	1494.75	1048.85
789.0313	61.8326	1543.85	1094.7
789.1722	64.0955	1629.15	1176.85
789.3132	66.3579	1721.1	1263.85
789.4541	68.6199	1828.15	1367.45
789.5951	70.8815	2023.35	1559.4
789.7361	73.1426	2429.05	1959.5
789.8771	75.4032	3484.55	3010.8
790.0181	77.6634	6198.25	5721.75
790.1592	79.9231	13052.4	12568.5
790.3003	82.1824	37236.15	36740.25
790.4414	84.4412	62582.65	62063.7
790.5825	86.6995	63960.95	63418.95
790.7237	88.9574	64617.8	64054.1
790.8648	91.2148	65052.55	64471
791.006	93.4717	65168.75	64575.3
791.1472	95.7282	65222.55	64625.35
791.2885	97.9842	65269.6	64667.95
791.4297	100.2398	65258.65	64655.95
791.571	102.4949	65265.4	64656.6
791.7123	104.7495	65259.5	64648.85
791.8536	107.0036	65250.9	64639.9
791.9949	109.2573	65288.1	64676.5
792.1363	111.5105	65262.3	64651.95
792.2777	113.7632	65263.05	64649.6
792.4191	116.0154	65284.55	64658.1
792.5605	118.2672	65315.45	64697.85
792.7019	120.5185	65323.25	64702
792.8434	122.7693	65317	64692.45
792.9849	125.0197	65266.1	64638.45
793.1264	127.2696	65364.4	64734.8
793.2679	129.519	65340.9	64704.95
793.4094	131.7679	65381.35	64742.85
793.551	134.0163	65299.05	64659.05
793.6926	136.2642	65334.9	64692.2
793.8342	138.5117	65386.55	64736.1
793.9758	140.7587	65365.45	64717
794.1175	143.0052	65357.2	64704.35
794.2591	145.2512	65328.1	64678.8
794.4008	147.4967	65385.1	64733.8
794.5425	149.7417	65375.6	64720.1
794.6842	151.9863	65363.7	64702.05
794.826	154.2304	65347.7	64685.7
794.9677	156.4739	65348.5	64675.75
795.1095	158.717	65399.95	64731.85
795.2513	160.9596	65373.3	64698.1
795.3931	163.2017	65339.7	64662.75
795.535	165.4433	65388.2	64707.4
795.6768	167.6844	65365.75	64686.85
795.8187	169.925	65386.65	64703.45
795.9606	172.1651	65358.7	64673.55
796.1025	174.4047	65394.75	64706.25
796.2445	176.6439	65378.15	64691.25
796.3864	178.8825	65358.6	64667.4
796.5284	181.1206	65409.1	64709.75
796.6704	183.3582	65407.4	64703.4
796.8124	185.5954	65392.5	64693.3
796.9544	187.832	65394.4	64689.65
797.0965	190.0681	65362.45	64652.05
797.2386	192.3037	65418.9	64703.75
797.3806	194.5388	65472.1	64754.35
797.5228	196.7734	65341.55	64623.55
797.6649	199.0075	65472.4	64752.75
797.807	201.2411	65415.05	64692.4
797.9492	203.4742	65490.6	64767.1
798.0914	205.7068	65455.15	64726.6
798.2336	207.9389	65454.95	64724.4
798.3758	210.1704	65457.35	64733.5
798.518	212.4015	65510.6	64795.95
798.6603	214.632	65457.25	64747.15
798.8025	216.862	65514.8	64810.65
798.9448	219.0915	65461.75	64753.95
799.0871	221.3205	65467.8	64753.8
799.2294	223.549	65518.2	64812.35
799.3718	225.777	65516.1	64809.85
799.5141	228.0044	65525.75	64810.3
799.6565	230.2314	65514.65	64798.15
799.7989	232.4578	65514.7	64795.7
799.9413	234.6837	65520.95	64795.55
800.0837	236.909	65535	64804.9
800.2262	239.1339	65474.5	64720.3
800.3687	241.3582	65524.55	64787.85
800.5111	243.582	65526.45	64758.25
800.6536	245.8053	65523.7	64768.05
800.7961	248.0281	65528.95	64779.75
800.9387	250.2503	65532.05	64776.1
801.0812	252.472	65519.65	64765.45
801.2238	254.6932	65529.05	64772.35
801.3664	256.9139	65524.4	64771.4
801.509	259.134	65535	64771.75
801.6516	261.3536	65527.9	64769.05
801.7942	263.5727	65533.95	64771.8
801.9369	265.7912	65528.8	64764.6
802.0795	268.0092	65534	64770.65
802.2222	270.2267	65535	64770.95
802.3649	272.4436	65525.45	64760.5
802.5076	274.6601	65535	64761.65
802.6504	276.8759	65535	64761.05
802.7931	279.0913	65533.9	64763.7
802.9359	281.3061	65535	64762.45
803.0787	283.5204	65535	64761.15
803.2215	285.7341	65535	64759.2
803.3643	287.9473	65535	64745.05
803.5071	290.16	65535	64750.95
803.6499	292.3721	65535	64763.25
803.7928	294.5837	65535	64759.4
803.9357	296.7947	65529.45	64754.5
804.0786	299.0052	65535	64754.4
804.2215	301.2152	65535	64753.15
804.3644	303.4246	65535	64759.45
804.5074	305.6334	65535	64759.5
804.6503	307.8418	65535	64752.85
804.7933	310.0495	65533.3	64749.65
804.9363	312.2568	65535	64750.2
805.0793	314.4635	65535	64749.85
805.2223	316.6696	65535	64744.85
805.3653	318.8752	65535	64736.25
805.5084	321.0802	65525.1	64735.3
805.6514	323.2847	65535	64743.4
805.7945	325.4887	65535	64740.8
805.9376	327.692	65532.35	64738.1
806.0807	329.8949	65535	64738.9
806.2238	332.0972	65535	64737.35
806.367	334.2989	65535	64734.85
806.5101	336.5001	65535	64734.8
806.6533	338.7007	65526.25	64726.25
806.7965	340.9008	65535	64733.6
806.9397	343.1003	65535	64731.35
807.0829	345.2992	65535	64730.4
807.2261	347.4976	65535	64729.55
807.3693	349.6955	65535	64722.9
807.5126	351.8927	65535	64721.8
807.6559	354.0895	65535	64715.6
807.7991	356.2856	65535	64720.95
807.9424	358.4812	65535	64719.95
808.0857	360.6763	65529.6	64714.55
808.2291	362.8707	65535	64720.9
808.3724	365.0646	65535	64712.85
808.5158	367.258	65535	64713.3
808.6591	369.4508	65526.85	64704.7
808.8025	371.643	65535	64711.9
808.9459	373.8346	65534.8	64706.3
809.0893	376.0257	65535	64703.6
809.2327	378.2162	65535	64705.4
809.3762	380.4062	65525.5	64693.85
809.5196	382.5956	65535	64707.95
809.6631	384.7844	65535	64709.75
809.8066	386.9726	65535	64712.65
809.9501	389.1603	65535	64713
810.0936	391.3474	65532.9	64672.25
810.2371	393.5339	65535	64711.8
810.3806	395.7199	65524.55	64704.35
810.5241	397.9052	65525.7	64706.1
810.6677	400.09	65529.25	64707.3
810.8113	402.2743	65535	64714.4
810.9548	404.4579	65527.35	64703.85
811.0984	406.641	65530	64706.9
811.2421	408.8235	65531.15	64703.65
811.3857	411.0054	65535	64709.2
811.5293	413.1868	65535	64706.1
811.673	415.3675	65529.2	64695.75
811.8166	417.5477	65529.65	64693.7
811.9603	419.7273	65533.45	64694.9
812.104	421.9064	65533.95	64688.85
812.2477	424.0848	65534.8	64698.7
812.3914	426.2627	65535	64698.6
812.5351	428.4399	65529.7	64690.2
812.6788	430.6166	65508.45	64665.05
812.8226	432.7928	65534.15	64687.3
812.9663	434.9683	65523.65	64681.35
813.1101	437.1432	65521.35	64677.65
813.2539	439.3176	65532.95	64690.9
813.3977	441.4914	65506.1	64667.15
813.5415	443.6645	65517.45	64677.45
813.6853	445.8371	65523.55	64680.75
813.8291	448.0091	65518.15	64672.6
813.973	450.1806	65495.5	64650.85
814.1168	452.3514	65510.95	64664.8
814.2607	454.5216	65463.3	64608.45
814.4046	456.6913	65513.75	64666.85
814.5485	458.8603	65522.45	64679.5
814.6924	461.0288	65471.9	64627.45
814.8363	463.1967	65518.1	64678.8
814.9802	465.3639	65504.65	64659.15
815.1241	467.5306	65415.4	64569.05
815.2681	469.6967	65464.9	64619.85
815.412	471.8622	65509.55	64660.35
815.556	474.0271	65471	64625.2
815.7	476.1914	65484.5	64632.85
815.844	478.3551	65483.25	64633.5
815.988	480.5182	65526.05	64679.7
816.132	482.6807	65464.5	64620.85
816.276	484.8426	65468.4	64627.45
816.4201	487.0039	65519.9	64671.85
816.5641	489.1647	65519.8	64672
816.7082	491.3248	65448.35	64598.55
816.8522	493.4843	65521.35	64670
816.9963	495.6432	65521.8	64673.9
817.1404	497.8015	65450.65	64592.6
817.2845	499.9592	65504.05	64640.4
817.4286	502.1163	65493.25	64637.7
817.5727	504.2728	65491.3	64634.85
817.7168	506.4287	65478.4	64626.2
817.861	508.5839	65450.65	64602.1
818.0051	510.7386	65495.45	64641.1
818.1493	512.8927	65480.35	64624.6
818.2935	515.0461	65479.65	64620.3
818.4377	517.199	65515.6	64656.9
818.5818	519.3512	65467.05	64606
818.726	521.5029	65483.7	64616.6
818.8703	523.6539	65481.05	64619.6
819.0145	525.8043	65422.2	64559.5
819.1587	527.9541	65469.05	64601.9
819.303	530.1033	65473.55	64609.55
819.4472	532.2519	65450.35	64584.2
819.5915	534.3999	65506.6	64639.4
819.7357	536.5472	65510.8	64646.15
819.88	538.694	65432.9	64571.15
820.0243	540.8401	65466.45	64597.8
820.1686	542.9856	65470.6	64597.55
820.3129	545.1305	65504.25	64627.6
820.4572	547.2748	65443.65	64565.5
820.6016	549.4185	65440.1	64560.7
820.7459	551.5615	65490.1	64613.75
820.8902	553.704	65479.75	64600.15
821.0346	555.8458	65445.25	64575.8
821.1789	557.987	65454.25	64583.2
821.3233	560.1276	65470.7	64597.05
821.4677	562.2675	65450.35	64576.65
821.6121	564.4069	65455.45	64580.95
821.7565	566.5456	65485.75	64613.6
821.9009	568.6837	65427.7	64556
822.0453	570.8212	65461.5	64593.5
822.1897	572.958	65393.85	64521.9
822.3342	575.0942	65454.15	64581.55
822.4786	577.2299	65405.9	64541.65
822.6231	579.3648	65399.75	64538.55
822.7675	581.4992	65401.75	64541.3
822.912	583.6329	65388.65	64526.9
823.0565	585.766	65392.45	64531.75
823.201	587.8985	65421.7	64556.75
823.3454	590.0304	65347.9	64455.5
823.4899	592.1616	65394.85	64518.9
823.6345	594.2922	65368.85	64492.65
823.779	596.4222	65333.75	64453.7
823.9235	598.5515	65350.25	64467.85
824.068	600.6802	65379.1	64502
824.2126	602.8083	65329.55	64451.25
824.3571	604.9358	65330.75	64452.15
824.5017	607.0626	65384.3	64503.95
824.6462	609.1888	65307.35	64422.1
824.7908	611.3144	65345.75	64461.4
824.9354	613.4393	65324.6	64442.9
825.08	615.5636	65289.85	64410.1
825.2246	617.6873	65338.2	64457.2
825.3692	619.8103	65291.9	64409.15
825.5138	621.9327	65328.2	64443.5
825.6584	624.0544	65327.95	64448.25
825.803	626.1756	65312.35	64432.15
825.9477	628.2961	65312.25	64426
826.0923	630.4159	65294.15	64412.05
826.237	632.5351	65289.2	64404.5
826.3816	634.6537	65370.05	64481.85
826.5263	636.7716	65279.2	64390.65
826.6709	638.8889	65285.4	64396.65
826.8156	641.0056	65283.05	64393.2
826.9603	643.1216	65292.75	64404.3
827.105	645.237	65304.2	64410.75
827.2497	647.3518	65266.45	64382.65
827.3944	649.4659	65287.35	64408.2
827.5391	651.5793	65298.7	64419.15
827.6838	653.6922	65300.75	64417.45
827.8285	655.8043	65256.65	64370.25
827.9733	657.9159	65309.55	64427.1
828.118	660.0268	65202.85	64317.85
828.2627	662.137	65282.15	64394.8
828.4075	664.2466	65279.3	64386.45
828.5522	666.3556	65248	64359.3
828.697	668.4639	65275.6	64387.75
828.8418	670.5716	65247.2	64361.15
828.9865	672.6786	65270	64380.35
829.1313	674.785	65231.9	64340.1
829.2761	676.8907	65244.4	64353.2
829.4209	678.9958	65241.8	64355.9
829.5657	681.1002	65250.65	64360.95
829.7105	683.204	65215.7	64317.65
829.8553	685.3072	65195.95	64298.6
830.0001	687.4097	65211.2	64317.85
830.1449	689.5115	65209.4	64313.75
830.2898	691.6127	65251	64362.55
830.4346	693.7132	65213.95	64324.6
830.5794	695.8131	65214.15	64304.4
830.7243	697.9123	65229.55	64330.35
830.8691	700.0109	65217.5	64320.2
831.014	702.1089	65163.45	64268.5
831.1588	704.2061	65172.7	64277.1
831.3037	706.3028	65213.75	64317.8
831.4486	708.3987	65211.35	64314.1
831.5935	710.4941	65177.35	64283
831.7383	712.5887	65201.5	64309.75
831.8832	714.6827	65186.3	64289.45
832.0281	716.7761	65191.7	64297
832.173	718.8688	65203.65	64306.8
832.3179	720.9608	65175.55	64274
832.4628	723.0522	65176.2	64274.05
832.6077	725.1429	65142.4	64242.05
832.7527	727.233	65225.75	64325.6
832.8976	729.3224	65115.4	64217.7
833.0425	731.4112	65160.15	64260.5
833.1874	733.4993	65148.4	64247.55
833.3324	735.5867	65155.3	64256.2
833.4773	737.6735	65134.1	64232.65
833.6222	739.7596	65119.1	64219.55
833.7672	741.845	65116.2	64214.4
833.9122	743.9298	65134.6	64234.25
834.0571	746.014	65108.1	64204.65
834.2021	748.0974	65091.35	64185.35
834.347	750.1802	65133.75	64229.45
834.492	752.2624	65076.95	64172.05
834.637	754.3439	65087.3	64182.25
834.782	756.4247	65094.5	64180.05
834.9269	758.5048	65060.85	64161.3
835.0719	760.5843	65070.7	64167.95
835.2169	762.6631	65079.8	64176.05
835.3619	764.7413	65062.8	64159.6
835.5069	766.8188	65058.05	64151.05
835.6519	768.8956	65069.5	64164.05
835.7969	770.9718	65073.65	64169.6
835.9419	773.0473	65060.55	64156.65
836.0869	775.1221	65045.6	64145.05
836.232	777.1962	65041.65	64137.8
836.377	779.2697	65026.5	64121.95
836.522	781.3426	65025.3	64096.5
836.667	783.4147	65024.1	64118.35
836.8121	785.4862	65007.6	64105.65
836.9571	787.557	65012.3	64109.65
837.1021	789.6271	65021.45	64118.6
837.2472	791.6966	64990.6	64085.7
837.3922	793.7654	64987.55	64081.3
837.5373	795.8335	64987.85	64084.2
837.6823	797.901	64973.75	64072.25
837.8274	799.9678	64959.7	64054.1
837.9724	802.0339	64955.15	64046.8
838.1175	804.0993	64958.95	64039.7
838.2626	806.1641	64954	64045.8
838.4076	808.2282	64933.5	64026.75
838.5527	810.2916	64936.9	64029.95
838.6978	812.3544	64946.1	64042.6
838.8428	814.4164	64908.6	64004
838.9879	816.4778	64935.85	64026.95
839.133	818.5385	64922.2	64010.5
839.2781	820.5986	64915.5	64009.45
839.4232	822.658	64913.9	64002.75
839.5682	824.7166	64911.9	64003.3
839.7133	826.7747	64907.1	63996.85
839.8584	828.832	64914.6	64006.8
840.0035	830.8886	64914.9	64004.8
840.1486	832.9446	64916.05	64004.05
840.2937	834.9999	64882.8	63975.6
840.4388	837.0545	64890.9	63976.35
840.5839	839.1085	64892.85	63982.45
840.729	841.1618	64879.35	63968.25
840.8741	843.2143	64867.9	63957.5
841.0192	845.2662	64855.35	63944.25
841.1643	847.3175	64861.7	63952.35
841.3095	849.368	64854.15	63943.6
841.4546	851.4179	64853.1	63943.45
841.5997	853.467	64825.15	63916.1
841.7448	855.5155	64831.7	63920.5
841.8899	857.5633	64830.05	63918.8
842.0351	859.6105	64826.4	63915.5
842.1802	861.6569	64835.5	63922.35
842.3253	863.7027	64813.5	63899.35
842.4704	865.7478	64808.6	63896.1
842.6156	867.7922	64804.2	63892.35
842.7607	869.8359	64798.05	63884.75
842.9058	871.8789	64795.25	63881.8
843.0509	873.9212	64793.3	63847.35
843.1961	875.9629	64788.25	63874.45
843.3412	878.0039	64785.4	63872.25
843.4863	880.0441	64785.2	63875.2
843.6315	882.0837	64787.5	63875.4
843.7766	884.1226	64786.7	63871.95
843.9218	886.1609	64779.7	63868.85
844.0669	888.1984	64783.05	63868.95
844.212	890.2352	64786.45	63876.75
844.3572	892.2714	64773.6	63854.15
844.5023	894.3069	64772.25	63858.05
844.6475	896.3416	64751.45	63836.6
844.7926	898.3757	64745.5	63833.6
844.9377	900.4091	64751.15	63835.6
845.0829	902.4418	64760.45	63839.95
845.228	904.4739	64752.25	63834.7
845.3732	906.5052	64746.65	63829.7
845.5183	908.5358	64722.8	63807.8
845.6635	910.5658	64728.7	63810.55
845.8086	912.595	64720.85	63806.65
845.9538	914.6236	64707.45	63791.35
846.0989	916.6515	64711.4	63796.65
846.2441	918.6786	64694.75	63775.3
846.3892	920.7051	64682.25	63767.05
846.5344	922.7309	64689.55	63774.9
846.6795	924.756	64687.3	63771.3
846.8246	926.7804	64687.05	63771.1
846.9698	928.8041	64671.9	63755.85
847.1149	930.8272	64671.45	63754
847.2601	932.8495	64653.8	63739.6
847.4052	934.8711	64655.4	63738.9
847.5504	936.892	64641	63726.65
847.6955	938.9123	64634.1	63717.4
847.8407	940.9318	64621.4	63705.75
847.9858	942.9506	64630	63714.05
848.131	944.9688	64630.6	63717.2
848.2761	946.9862	64612.4	63698.05
848.4213	949.003	64599.55	63681.8
848.5664	951.019	64578.85	63660.4
848.7115	953.0344	64584.6	63666.45
848.8567	955.0491	64586.8	63668.5
849.0018	957.063	64567.05	63651.45
849.147	959.0763	64586.95	63672
849.2921	961.0888	64566.4	63647.2
849.4373	963.1007	64568	63652.65
849.5824	965.1119	64563.1	63651.65
849.7275	967.1223	64573.75	63665.85
849.8727	969.1321	64563.3	63655.15
850.0178	971.1412	64555.95	63646.5
850.1629	973.1495	64542.3	63629.75
850.3081	975.1572	64544.35	63595.55
850.4532	977.1641	64535.05	63618.3
850.5983	979.1704	64534.65	63616.7
850.7435	981.1759	64521.5	63600.8
850.8886	983.1808	64535.3	63615
851.0337	985.1849	64517.15	63591.6
851.1788	987.1884	64512.6	63593.8
851.324	989.1911	64502.05	63584.25
851.4691	991.1932	64503.2	63586.85
851.6142	993.1945	64492.8	63578.25
851.7593	995.1951	64485.25	63567.25
851.9045	997.1951	64480.85	63560.3
852.0496	999.1943	64468.05	63551.65
852.1947	1001.1928	64459	63542.3
852.3398	1003.1906	64447.85	63530.7
852.4849	1005.1877	64444.15	63525.15
852.63	1007.1841	64436.35	63518.35
852.7751	1009.1798	64419.6	63502.75
852.9202	1011.1748	64424.3	63508.55
853.0653	1013.1691	64407.2	63491
853.2104	1015.1627	64402	63487.6
853.3555	1017.1556	64386.9	63473.75
853.5006	1019.1477	64381.9	63465.5
853.6457	1021.1392	64364.35	63451.1
853.7908	1023.1299	64369.7	63456.2
853.9359	1025.12	64354	63444.5
854.081	1027.1093	64350.4	63449.15
854.2261	1029.0979	64344.25	63444.6
854.3712	1031.0859	64343.95	63440.95
854.5163	1033.0731	64322.9	63412
854.6613	1035.0596	64323.2	63413.05
854.8064	1037.0454	64305	63390.95
854.9515	1039.0304	64301.8	63387.3
855.0965	1041.0148	64285.25	63372.05
855.2416	1042.9985	64284.65	63367.7
855.3867	1044.9814	64277.05	63360.55
855.5317	1046.9636	64272.9	63356.8
855.6768	1048.9452	64261.95	63346.9
855.8219	1050.926	64263.5	63350.95
855.9669	1052.9061	64261.6	63346.75
856.112	1054.8855	64256.7	63339.7
856.257	1056.8642	64259.45	63345.4
856.4021	1058.8421	64248.8	63326.65
856.5471	1060.8194	64248.4	63332.7
856.6921	1062.7959	64256.2	63337.95
856.8372	1064.7717	64235.25	63315.05
856.9822	1066.7469	64230.9	63315
857.1272	1068.7213	64235	63317.6
857.2723	1070.695	64232	63313.8
857.4173	1072.6679	64220.45	63303.85
857.5623	1074.6402	64208.3	63291.55
857.7073	1076.6117	64209.55	63287.65
857.8523	1078.5826	64213.1	63297.7
857.9973	1080.5527	64203.45	63283.95
858.1423	1082.5221	64200.65	63284.8
858.2873	1084.4908	64186.2	63267.7
858.4323	1086.4587	64180.05	63263.1
858.5773	1088.426	64181.6	63265.3
858.7223	1090.3925	64170.15	63248.55
858.8673	1092.3584	64181.15	63267.75
859.0123	1094.3235	64179.45	63267
859.1573	1096.2879	64159.65	63242.4
859.3022	1098.2515	64159.35	63245
859.4472	1100.2145	64163.95	63247.55
859.5922	1102.1767	64150.15	63232.45
859.7371	1104.1382	64147.55	63231.7
859.8821	1106.099	64138.45	63222.3
860.027	1108.0591	64132.6	63220
860.172	1110.0185	64133.05	63216.15
860.3169	1111.9771	64127.1	63214.05
860.4619	1113.9351	64114.85	63199
860.6068	1115.8923	64107.15	63192.3
860.7517	1117.8488	64101.5	63185.15
860.8967	1119.8045	64105	63190.05
861.0416	1121.7596	64090.95	63175.45
861.1865	1123.7139	64095.6	63180.5
861.3314	1125.6675	64089.25	63173.55
861.4763	1127.6204	64090.85	63176.6
861.6212	1129.5726	64084.85	63168.75
861.7661	1131.524	64074.75	63163.7
861.911	1133.4748	64071.6	63154.4
862.0559	1135.4248	64056.15	63139.45
862.2008	1137.3741	64056.1	63140.35
862.3457	1139.3226	64053.5	63134.85
862.4905	1141.2705	64058.55	63144.2
862.6354	1143.2176	64041.45	63119.05
862.7803	1145.164	64044.1	63124.6
862.9251	1147.1097	64033.05	63117.3
863.07	1149.0546	64033.85	63117.85
863.2148	1150.9989	64034.2	63115.45
863.3597	1152.9424	64039.6	63122.8
863.5045	1154.8852	64016.9	63097.4
863.6493	1156.8272	64012.45	63096.7
863.7942	1158.7686	64025.7	63102.95
863.939	1160.7092	64015.95	63097.3
864.0838	1162.6491	64018.55	63100.9
864.2286	1164.5883	64003.6	63088.3
864.3734	1166.5267	64018.6	63099.25
864.5182	1168.4644	64009.2	63092.15
864.663	1170.4014	63998.55	63079.6
864.8078	1172.3377	63998.25	63084.2
864.9526	1174.2732	64009.8	63097.15
865.0974	1176.2081	63995.15	63081.7
865.2421	1178.1421	64013.85	63095.45
865.3869	1180.0755	63995.6	63082.1
865.5317	1182.0082	63987.15	63075
865.6764	1183.9401	63983.55	63068.55
865.8212	1185.8713	63987.55	63077.4
865.9659	1187.8017	63975.2	63065.95
866.1106	1189.7315	63975.9	63072.8
866.2554	1191.6605	63966.25	63035.5
866.4001	1193.5888	63958.85	63051
866.5448	1195.5163	63952.5	63042.2
866.6895	1197.4432	63939.9	63025.85
866.8342	1199.3693	63953.2	63039.5
866.9789	1201.2947	63933	63017.25
867.1236	1203.2193	63926.95	63013.4
867.2683	1205.1432	63914.75	63000.75
867.413	1207.0664	63921.25	63007.25
867.5576	1208.9889	63912.55	62995.65
867.7023	1210.9106	63907.6	62993.4
867.847	1212.8316	63892.7	62980
867.9916	1214.7519	63890.6	62965.8
868.1363	1216.6715	63883.05	62968.55
868.2809	1218.5903	63895	62982.65
868.4255	1220.5084	63879.65	62966.7
868.5701	1222.4257	63896	62982.15
868.7148	1224.3424	63870.45	62959.85
868.8594	1226.2583	63868.55	62949.15
869.004	1228.1735	63875.1	62959.95
869.1486	1230.0879	63862.75	62948
869.2932	1232.0016	63867.15	62951.4
869.4377	1233.9146	63857	62941.55
869.5823	1235.8269	63856.35	62944.6
869.7269	1237.7384	63856.4	62943.95
869.8715	1239.6492	63846.3	62932.45
870.016	1241.5592	63852	62938.4
870.1606	1243.4686	63822.7	62909.2
870.3051	1245.3772	63819.85	62905.3
870.4496	1247.285	63820.25	62905.45
870.5941	1249.1922	63824.35	62911.6
870.7387	1251.0986	63824.45	62911.6
870.8832	1253.0042	63819.75	62904.8
871.0277	1254.9092	63817.25	62904.8
871.1722	1256.8134	63803.3	62889.75
871.3167	1258.7169	63810.9	62897.7
871.4611	1260.6196	63809.95	62895.4
871.6056	1262.5216	63807.1	62895.15
871.7501	1264.4229	63812	62900.45
871.8945	1266.3234	63807.5	62896.15
872.039	1268.2232	63799.4	62885.2
872.1834	1270.1223	63802	62888.35
872.3278	1272.0207	63798.3	62886.4
872.4723	1273.9183	63796.6	62878.45
872.6167	1275.8151	63787.65	62874
872.7611	1277.7113	63785.85	62872.95
872.9055	1279.6067	63784.55	62871.2
873.0499	1281.5014	63769.6	62853.25
873.1943	1283.3953	63772.3	62857.85
873.3386	1285.2885	63783	62870
873.483	1287.181	63775.9	62863.65
873.6274	1289.0727	63780.95	62872.75
873.7717	1290.9637	63778.6	62866.2
873.9161	1292.854	63777.6	62865.55
874.0604	1294.7435	63774.6	62862.9
874.2047	1296.6323	63772.1	62860.95
874.349	1298.5204	63770.2	62856.15
874.4933	1300.4077	63762.7	62849.6
874.6376	1302.2943	63756.4	62845.4
874.7819	1304.1802	63759.1	62847.15
874.9262	1306.0653	63759.25	62844.1
875.0705	1307.9497	63741.75	62831.15
875.2147	1309.8333	63746.45	62834.65
875.359	1311.7162	63742.55	62827.75
875.5032	1313.5984	63732.75	62816.55
875.6475	1315.4798	63726.6	62803.45
875.7917	1317.3605	63730.75	62802.25
875.9359	1319.2405	63728.6	62811.4
876.0801	1321.1197	63718.45	62805.9
876.2243	1322.9982	63707.3	62791.8
876.3685	1324.876	63716.95	62802.8
876.5127	1326.753	63717.65	62806.15
876.6569	1328.6293	63717.1	62803.7
876.801	1330.5048	63709.7	62796.8
876.9452	1332.3796	63694.35	62781.75
877.0893	1334.2537	63685.65	62747.65
877.2335	1336.127	63687.85	62776.75
877.3776	1337.9996	63683.6	62769.8
877.5217	1339.8714	63681.9	62770.6
877.6658	1341.7426	63675.5	62723.35
877.8099	1343.6129	63682.6	62768.85
877.954	1345.4826	63681.1	62765.9
878.0981	1347.3515	63679.95	62765.35
878.2422	1349.2196	63680.4	62766.4
878.3862	1351.087	63671.1	62756.6
878.5303	1352.9537	63670.05	62757.3
878.6743	1354.8197	63672.45	62758.6
878.8184	1356.6849	63677.2	62764.1
878.9624	1358.5493	63667.15	62752.95
879.1064	1360.4131	63675.85	62763.5
879.2504	1362.276	63662.6	62753
879.3944	1364.1383	63650.4	62739.2
879.5384	1365.9998	63652.75	62733
879.6823	1367.8606	63648.2	62732.5
879.8263	1369.7206	63640.35	62725.3
879.9702	1371.5799	63645.15	62727.05
880.1142	1373.4384	63625	62714
880.2581	1375.2962	63624.75	62712.1
880.402	1377.1533	63618.55	62706.6
880.5459	1379.0096	63603.3	62692.6
880.6898	1380.8652	63596.3	62686.35
880.8337	1382.7201	63592.15	62681.65
880.9776	1384.5742	63575.85	62661.55
881.1215	1386.4275	63579.2	62665.7
881.2653	1388.2802	63576.7	62664.7
881.4092	1390.132	63573.45	62662.1
881.553	1391.9832	63564.15	62650.25
881.6968	1393.8336	63567.4	62654.35
881.8406	1395.6832	63555	62641.65
881.9844	1397.5322	63560.2	62647.3
882.1282	1399.3803	63544.05	62627.65
882.272	1401.2278	63540	62630.65
882.4158	1403.0745	63530.7	62618.55
882.5595	1404.9204	63532.35	62623.25
882.7033	1406.7656	63525.95	62613.5
882.847	1408.6101	63505.35	62593.9
882.9908	1410.4538	63511.7	62601.05
883.1345	1412.2968	63500.3	62586.7
883.2782	1414.139	63470.35	62557.7
883.4219	1415.9805	63487.15	62578.25
883.5656	1417.8213	63461.85	62542.5
883.7092	1419.6613	63474.95	62564.85
883.8529	1421.5006	63457.05	62545.55
883.9965	1423.3391	63437.5	62527.6
884.1402	1425.1769	63457.55	62547.6
884.2838	1427.0139	63478.8	62565.5
884.4274	1428.8502	63441.6	62528.5
884.571	1430.6858	63439.1	62528.05
884.7146	1432.5206	63504.7	62596.4
884.8582	1434.3547	63452.85	62542.55
885.0018	1436.188	63426.95	62515.95
885.1453	1438.0206	63455.4	62542.85
885.2889	1439.8524	63431.45	62521.05
885.4324	1441.6835	63399.5	62487.1
885.5759	1443.5139	63432.85	62519.35
885.7194	1445.3435	63406.85	62495.2
885.8629	1447.1724	63415.05	62503.9
886.0064	1449.0005	63349.25	62438.55
886.1499	1450.8279	63386.7	62475.5
886.2933	1452.6545	63364.35	62455.75
886.4368	1454.4804	63357.55	62449.25
886.5802	1456.3056	63316.55	62402.6
886.7237	1458.13	63348.8	62442.15
886.8671	1459.9536	63404.7	62497.6
887.0105	1461.7766	63304.8	62394.1
887.1539	1463.5987	63244.2	62332.2
887.2972	1465.4202	63271.25	62362.8
887.4406	1467.2409	63248.65	62337.65
887.584	1469.0608	63096.45	62186.8
887.7273	1470.88	63158.5	62249.7
887.8706	1472.6984	63164.8	62258.5
888.0139	1474.5161	63007.85	62097.9
888.1572	1476.3331	63094.15	62187.65
888.3005	1478.1493	62960.55	62048.15
888.4438	1479.9648	62920.15	62011.4
888.5871	1481.7795	63037.1	62126.4
888.7303	1483.5935	63041.65	62131.3
888.8736	1485.4067	62851.45	61943.55
889.0168	1487.2192	62910.8	62001.3
889.16	1489.031	62804.05	61892.05
889.3032	1490.842	62876.75	61968
889.4464	1492.6522	62866.95	61959.85
889.5896	1494.4618	62785.7	61874.85
889.7327	1496.2705	62869.55	61960.5
889.8759	1498.0785	62498.4	61589.2
890.019	1499.8858	62705.65	61796.1
890.1622	1501.6924	62850.65	61942.9
890.3053	1503.4981	62598.35	61688.8
890.4484	1505.3032	62701.2	61792.15
890.5914	1507.1075	62530.6	61621.7
890.7345	1508.911	62553.45	61642.95
890.8776	1510.7138	62546.95	61637.65
891.0206	1512.5159	62611.3	61703.85
891.1637	1514.3172	62196.95	61290.55
891.3067	1516.1178	62332.85	61427.35
891.4497	1517.9176	62481.55	61570.65
891.5927	1519.7166	62306.5	61397.95
891.7357	1521.515	62244.6	61329.6
891.8786	1523.3126	62040.5	61132.95
892.0216	1525.1094	62267.3	61358.05
892.1645	1526.9055	62120.05	61216.8
892.3074	1528.7008	62151.2	61241.1
892.4503	1530.4954	61906.9	60999.1
892.5932	1532.2893	62153.15	61251
892.7361	1534.0824	61861.9	60951.05
892.879	1535.8747	61675.25	60768.9
893.0218	1537.6663	62128.9	61225.8
893.1647	1539.4572	61363.3	60458
893.3075	1541.2473	61706.2	60802.65
893.4503	1543.0367	61610.55	60707.1
893.5931	1544.8253	61512.25	60599.1
893.7359	1546.6132	61592.45	60682.15
893.8787	1548.4003	61404.4	60490.6
894.0214	1550.1867	61366.45	60454.3
894.1642	1551.9723	61288.55	60380.3
894.3069	1553.7572	61332.05	60425.65
894.4496	1555.5414	61490.55	60586.55
894.5923	1557.3247	60917.75	60016.35
894.735	1559.1074	61343.85	60442.15
894.8777	1560.8893	61107.2	60206.4
895.0204	1562.6705	61247.1	60344.4
895.163	1564.4509	60917.95	60014.95
895.3056	1566.2305	61043.6	60143.05
895.4482	1568.0094	61301.7	60404.05
895.5908	1569.7876	61091.7	60191.2
895.7334	1571.565	60838.3	59937.3
895.876	1573.3417	60963.9	60060.85
896.0186	1575.1176	60906.55	60006.95
896.1611	1576.8928	60836.1	59937.65
896.3036	1578.6672	60625.1	59729.25
896.4461	1580.4409	60735.7	59841.05
896.5886	1582.2138	60483.85	59585.5
896.7311	1583.986	60604.3	59704.55
896.8736	1585.7575	60371.1	59472.25
897.0161	1587.5282	60433.2	59533.95
897.1585	1589.2981	60514.05	59618.45
897.3009	1591.0673	60296.35	59401.2
897.4433	1592.8358	60203.55	59309.15
897.5857	1594.6035	60369.9	59468.8
897.7281	1596.3704	60382.4	59483.05
897.8705	1598.1366	60086.25	59187.9
898.0128	1599.9021	59944.9	59048.45
898.1551	1601.6668	60137.05	59239.55
898.2975	1603.4308	60015.1	59115.3
898.4398	1605.194	60167.6	59266.7
898.5821	1606.9564	59760.1	58864.8
898.7243	1608.7182	59992.6	59096.2
898.8666	1610.4791	59847.4	58955.95
899.0088	1612.2394	59970.65	59079.6
899.1511	1613.9988	59806.05	58915
899.2933	1615.7576	60016.65	59125.05
899.4355	1617.5156	59970.5	59066.65
899.5776	1619.2728	60195.85	59298.15
899.7198	1621.0293	59783.65	58884.7
899.862	1622.785	59740.15	58841.7
900.0041	1624.54	59838.45	58943.2
900.1462	1626.2942	59633.6	58739.2
900.2883	1628.0477	59244.75	58346.4
900.4304	1629.8005	59098.5	58200.1
900.5725	1631.5525	59249.15	58356.55
900.7145	1633.3037	58928.95	58035
900.8566	1635.0542	58905.45	58011.3
900.9986	1636.804	58936.3	58043.25
901.1406	1638.553	58694.7	57754.45
901.2826	1640.3013	58764.6	57869.7
901.4245	1642.0488	58555.85	57659.15
901.5665	1643.7955	58635.25	57743
901.7085	1645.5416	58534.4	57640.8
901.8504	1647.2868	58447.9	57555.85
901.9923	1649.0313	58632.2	57738.15
902.1342	1650.7751	58515.15	57619
902.2761	1652.5181	58399.75	57504.8
902.4179	1654.2604	58390.1	57495.25
902.5598	1656.0019	58472.5	57580.85
902.7016	1657.7427	58373.8	57481.1
902.8434	1659.4828	58478.45	57584.45
902.9852	1661.222	58423.5	57526.6
903.127	1662.9606	58458.9	57563.65
903.2687	1664.6984	58296.9	57400.4
903.4105	1666.4354	58250.7	57353.75
903.5522	1668.1717	57940.55	57044.2
903.6939	1669.9072	57617.55	56720.6
903.8356	1671.642	57540.5	56642.4
903.9773	1673.3761	57447.35	56552.9
904.119	1675.1094	57275.95	56382
904.2606	1676.8419	56983	56089.6
904.4022	1678.5737	57024.35	56128.4
904.5439	1680.3048	56825.45	55928.5
904.6855	1682.0351	56608.45	55714
904.827	1683.7646	56466.6	55568.2
904.9686	1685.4934	56490.9	55597.4
905.1101	1687.2215	55971.2	55077.2
905.2517	1688.9488	56249.2	55355.25
905.3932	1690.6754	55443.75	54549.7
905.5347	1692.4012	55883.35	54988.9
905.6761	1694.1263	55870.3	54975.6
905.8176	1695.8506	55464.95	54570.95
905.9591	1697.5742	55467.75	54573.75
906.1005	1699.297	55312.05	54421.8
906.2419	1701.0191	55311.55	54420.4
906.3833	1702.7404	54858.4	53967.1
906.5246	1704.461	54694.75	53798.9
906.666	1706.1808	54890.3	53997.3
906.8073	1707.8999	54708.25	53816.75
906.9487	1709.6182	54591.1	53699.6
907.09	1711.3358	54486.4	53598.6
907.2313	1713.0527	54395.8	53509.95
907.3725	1714.7688	54369.5	53472.75
907.5138	1716.4841	53905.05	53010
907.655	1718.1987	54059.95	53162.6
907.7962	1719.9126	53903.95	53014.1
907.9374	1721.6257	53882.6	52990.8
908.0786	1723.338	53896.55	53007.65
908.2198	1725.0496	53379.1	52486.75
908.3609	1726.7605	53442.6	52550.65
908.502	1728.4706	53291.65	52399.55
908.6431	1730.18	53346.45	52454.8
908.7842	1731.8886	53163.7	52274.65
908.9253	1733.5964	52978.9	52083.2
909.0664	1735.3036	53110.7	52218.9
909.2074	1737.0099	52949.35	52059.2
909.3484	1738.7156	52735.45	51848.65
909.4894	1740.4204	52604.8	51713.2
909.6304	1742.1246	52687.55	51796.1
909.7714	1743.8279	52649.4	51759.55
909.9123	1745.5306	52596.85	51707.2
910.0532	1747.2325	52099.75	51209.35
910.1941	1748.9336	52084.55	51195.15
910.335	1750.634	52083	51190.7
910.4759	1752.3336	52194.1	51303.05
910.6168	1754.0325	51866.85	50982
910.7576	1755.7307	52080.85	51194.4
910.8984	1757.4281	51734.6	50844.95
911.0392	1759.1247	51899.65	51002
911.18	1760.8206	51466.95	50572.4
911.3208	1762.5158	51507.7	50612.35
911.4615	1764.2102	51493.9	50603.75
911.6022	1765.9039	51288.5	50398.55
911.7429	1767.5968	51220	50332.85
911.8836	1769.289	51064.8	50175.7
912.0243	1770.9804	51075.75	50185.4
912.1649	1772.6711	50953.1	50062.5
912.3056	1774.361	50801.55	49909.5
912.4462	1776.0502	50823.05	49932.65
912.5868	1777.7386	50458.35	49565.2
912.7274	1779.4263	50582.7	49692.75
912.8679	1781.1132	50615.25	49728.8
913.0084	1782.7994	50373.55	49484.4
913.149	1784.4849	50410.15	49522.8
913.2895	1786.1696	49892.35	48998
913.4299	1787.8535	50107.55	49220.45
913.5704	1789.5367	50110.4	49224.35
913.7108	1791.2192	49818.9	48928.5
913.8513	1792.9009	49548.35	48627.2
913.9917	1794.5818	49743.1	48853.2
914.132	1796.2621	49415.35	48527.35
914.2724	1797.9415	49416.2	48526.1
914.4128	1799.6202	49318.1	48427.4
914.5531	1801.2982	49268.3	48377.3
914.6934	1802.9755	48894.35	48001.35
914.8337	1804.6519	48780.75	47889.15
914.9739	1806.3277	49136.3	48248.8
915.1142	1808.0027	48367.75	47482.2
915.2544	1809.6769	48657.85	47770.7
915.3946	1811.3504	48650.3	47762.15
915.5348	1813.0231	48088.65	47201.5
915.675	1814.6951	48352.85	47466.85
915.8151	1816.3664	48166.1	47275.65
915.9553	1818.0369	48138.95	47249.5
916.0954	1819.7067	47967.2	47079
916.2355	1821.3757	48170.75	47278.2
916.3755	1823.044	47675.15	46785.65
916.5156	1824.7115	47486.2	46595.8
916.6556	1826.3783	47482.65	46593.35
916.7956	1828.0443	47503.4	46616
916.9356	1829.7096	47291.9	46400.7
917.0756	1831.3741	46993.8	46102.65
917.2155	1833.0379	47108.35	46220.3
917.3555	1834.701	46963	46073.2
917.4954	1836.3633	46736.25	45849.4
917.6353	1838.0248	46809.4	45919.8
917.7751	1839.6856	46676.95	45789.1
917.915	1841.3457	46412	45524.25
918.0548	1843.005	46635.1	45746.05
918.1946	1844.6636	46471.6	45584.5
918.3344	1846.3214	46104.55	45213.75
918.4742	1847.9785	46144.25	45257.35
918.6139	1849.6349	46033.4	45142.25
918.7537	1851.2904	46163.7	45266.15
918.8934	1852.9453	45824.5	44933.95
919.0331	1854.5994	45832.05	44941.35
919.1727	1856.2528	45840.55	44945
919.3124	1857.9054	45581.55	44692.75
919.452	1859.5572	45503.75	44614.75
919.5916	1861.2083	45486.95	44598.65
919.7312	1862.8587	45741.7	44852.1
919.8708	1864.5084	45057.9	44168
920.0103	1866.1572	45231.9	44340.45
920.1498	1867.8054	44782.1	43890.8
920.2893	1869.4528	44980.1	44089.9
920.4288	1871.0994	44646.35	43755.7
920.5683	1872.7453	44642.2	43752.65
920.7077	1874.3905	44723.85	43830.35
920.8471	1876.0349	44400.25	43510.75
920.9865	1877.6786	44562.5	43673.15
921.1259	1879.3215	44378.1	43488.85
921.2653	1880.9637	44442	43552.6
921.4046	1882.6051	44199.8	43310.55
921.5439	1884.2458	44010.7	43121.5
921.6832	1885.8858	43848.45	42960.5
921.8225	1887.525	43826.5	42937.35
921.9617	1889.1634	43695.7	42807.95
922.101	1890.8011	43568.85	42679
922.2402	1892.4381	43284.3	42394.2
922.3794	1894.0743	43481.5	42593.65
922.5185	1895.7098	43290.2	42400.35
922.6577	1897.3446	43079.45	42187.85
922.7968	1898.9786	43050.3	42157.2
922.9359	1900.6118	42922.4	42035.05
923.075	1902.2443	42695.2	41803.85
923.214	1903.8761	42794.3	41906.65
923.3531	1905.5071	42523.95	41633.3
923.4921	1907.1374	42227.6	41337.75
923.6311	1908.7669	42245.15	41355.95
923.77	1910.3957	42291	41407.2
923.909	1912.0237	41934.1	41046.65
924.0479	1913.651	41837.4	40946.05
924.1868	1915.2776	41743	40855.45
924.3257	1916.9034	41630.3	40742.15
924.4646	1918.5285	41423.95	40535.35
924.6034	1920.1528	41347	40458.85
924.7422	1921.7764	41168.45	40278.2
924.881	1923.3992	41065.8	40176.65
925.0198	1925.0213	40849.65	39959.95
925.1586	1926.6427	40637.6	39750.25
925.2973	1928.2633	40728.6	39629.7
925.436	1929.8832	40494.85	39602.4
925.5747	1931.5023	40312.05	39424.75
925.7134	1933.1207	40117	39229.65
925.852	1934.7383	40120.9	39231.95
925.9906	1936.3552	39982.25	39096.3
926.1292	1937.9714	39914.5	39027.15
926.2678	1939.5868	39765.1	38875.15
926.4064	1941.2015	39508.3	38618.75
926.5449	1942.8154	39372.6	38483.7
926.6834	1944.4286	39263.9	38374.95
926.8219	1946.041	39095.25	38184.4
926.9604	1947.6528	38889.2	37996.35
927.0988	1949.2637	38842.45	37954.8
927.2372	1950.8739	38689.35	37802.55
927.3756	1952.4834	38665.5	37777.6
927.514	1954.0921	38575.4	37688.35
927.6523	1955.7001	38376.7	37485.4
927.7907	1957.3074	38301.2	37416
927.929	1958.9139	38137.15	37251.2
928.0673	1960.5197	38045.7	37157.95
928.2055	1962.1247	37878.95	36992.1
928.3438	1963.729	37678.7	36793.8
928.482	1965.3325	37551.85	36643.7
928.6202	1966.9353	37455.75	36568.1
928.7584	1968.5374	37298.6	36411.5
928.8965	1970.1387	37200.95	36314.65
929.0346	1971.7393	37078.9	36193.95
929.1727	1973.3392	37033.65	36148.3
929.3108	1974.9383	36780.4	35898.05
929.4489	1976.5366	36652.5	35766.5
929.5869	1978.1342	36593.9	35709.8
929.7249	1979.7311	36549.75	35662.4
929.8629	1981.3273	36419.25	35533.55
930.0009	1982.9227	36292.5	35407.15
930.1388	1984.5173	36154.25	35268.95
930.2767	1986.1112	35988.1	35103.85
930.4146	1987.7044	35929.1	35047.05
930.5525	1989.2968	35786	34899.55
930.6904	1990.8885	35770.9	34883.65
930.8282	1992.4795	35671.5	34788.85
930.966	1994.0697	35526.15	34641.9
931.1038	1995.6592	35437.4	34553.3
931.2415	1997.2479	35316.6	34432.75
931.3793	1998.8359	35205.45	34320.6
931.517	2000.4232	35037.5	34156.85
931.6547	2002.0097	34980.55	34098.4
931.7923	2003.5955	34804.85	33920.2
931.93	2005.1805	34786.3	33901.6
932.0676	2006.7648	34644.8	33762.6
932.2052	2008.3484	34541.65	33659.4
932.3427	2009.9312	34618.65	33735.15
932.4803	2011.5133	34376.1	33496.5
932.6178	2013.0946	34298.2	33416.35
932.7553	2014.6752	34178.4	33296.9
932.8928	2016.2551	34101.1	33216.5
933.0302	2017.8342	33938.6	33054.3
933.1676	2019.4126	33831.6	32950.5
933.305	2020.9902	33718.75	32839.2
933.4424	2022.5672	33661.3	32778.1
933.5798	2024.1433	33578.25	32692.25
933.7171	2025.7188	33439	32557.15
933.8544	2027.2935	33340.7	32459.2
933.9917	2028.8674	33214.25	32330.8
934.129	2030.4406	33120.25	32238.75
934.2662	2032.0131	32956.75	32076.8
934.4034	2033.5849	32882.85	31995.9
934.5406	2035.1559	32819.15	31939.55
934.6778	2036.7261	32810.6	31929.45
934.8149	2038.2957	32670.7	31790.4
934.952	2039.8645	32580.3	31697.25
935.0891	2041.4325	32575.4	31690.1
935.2262	2042.9998	32454.9	31573.95
935.3632	2044.5664	32353.65	31470.2
935.5002	2046.1323	32239.4	31359.2
935.6372	2047.6974	32174.85	31294.85
935.7742	2049.2617	32095.15	31215.75
935.9111	2050.8254	32061.05	31173.6
936.048	2052.3883	32000.5	31117.2
936.1849	2053.9504	31852.65	30970.4
936.3218	2055.5118	31743.2	30858.2
936.4586	2057.0725	31609.05	30723.55
936.5955	2058.6325	31565.15	30682.55
936.7323	2060.1917	31493.25	30610.75
936.869	2061.7502	31382.35	30496.15
937.0058	2063.3079	31254.7	30374.05
937.1425	2064.8649	31131.2	30247.2
937.2792	2066.4212	31101.4	30218.65
937.4159	2067.9767	30977.7	30096.25
937.5525	2069.5315	30860.5	29978.25
937.6891	2071.0856	30715.45	29832.65
937.8257	2072.6389	30605.55	29724.85
937.9623	2074.1915	30480	29602.05
938.0989	2075.7433	30331.1	29446.05
938.2354	2077.2945	30301.9	29420.6
938.3719	2078.8448	30194.15	29310.6
938.5084	2080.3945	30078.3	29194.25
938.6448	2081.9434	30058.4	29176.15
938.7812	2083.4916	29928.15	29045.55
938.9176	2085.039	29820	28932.95
939.054	2086.5857	29799.95	28913.05
939.1903	2088.1317	29741.15	28854.2
939.3267	2089.677	29632.05	28745.5
939.463	2091.2215	29510.45	28623
939.5992	2092.7652	29464.5	28575.65
939.7355	2094.3083	29399.8	28513.05
939.8717	2095.8506	29332.9	28450.5
940.0079	2097.3921	29326.5	28441.45
940.1441	2098.933	29197.3	28312.55
940.2802	2100.4731	29107.9	28225.95
940.4163	2102.0124	29100.55	28198.05
940.5524	2103.5511	29011	28127.7
940.6885	2105.089	28959	28071.35
940.8245	2106.6261	28906.25	28023.6
940.9606	2108.1626	28816.15	27935.1
941.0965	2109.6983	28736.05	27824.65
941.2325	2111.2332	28656.3	27770.4
941.3684	2112.7675	28538.05	27652.65
941.5044	2114.301	28423.65	27534.95
941.6403	2115.8337	28443.45	27558.65
941.7761	2117.3657	28335.45	27449.65
941.912	2118.897	28248.75	27362.85
942.0478	2120.4276	28180.25	27288.3
942.1835	2121.9575	28041.45	27153.9
942.3193	2123.4866	28094.65	27196.2
942.455	2125.0149	27972.5	27084.65
942.5907	2126.5426	27803.85	26921.45
942.7264	2128.0695	27776.75	26889.15
942.8621	2129.5956	27716.55	26836.9
942.9977	2131.1211	27669.15	26780.25
943.1333	2132.6458	27557.45	26675.3
943.2689	2134.1698	27466.85	26581.15
943.4044	2135.693	27461.75	26574.4
943.54	2137.2155	27345.05	26457.15
943.6755	2138.7373	27258.7	26375.15
943.8109	2140.2584	27176.85	26294.45
943.9464	2141.7787	27095.45	26207.5
944.0818	2143.2983	26956.25	26075.65
944.2172	2144.8171	26855.95	25976.85
944.3526	2146.3353	26771.8	25888.4
944.4879	2147.8527	26728.5	25846.45
944.6232	2149.3693	26709.7	25825.35
944.7585	2150.8853	26569.1	25685.45
944.8938	2152.4005	26469.9	25584.6
945.029	2153.9149	26456.25	25570.25
945.1642	2155.4287	26308.5	25421.05
945.2994	2156.9417	26246.8	25360.55
945.4346	2158.454	26169.55	25282.45
945.5697	2159.9655	26109.65	25227.6
945.7048	2161.4764	26078.45	25195.8
945.8399	2162.9865	25975.75	25093.65
945.9749	2164.4958	25911.05	25027.4
946.1099	2166.0045	25848.55	24960.75
946.2449	2167.5124	25771.3	24889
946.3799	2169.0195	25685.05	24801.95
946.5148	2170.526	25648.55	24765.05
946.6498	2172.0317	25576.6	24692.4
946.7846	2173.5367	25484.75	24600.65
946.9195	2175.0409	25444.15	24558.65
947.0543	2176.5445	25403.45	24518.2
947.1891	2178.0473	25282.4	24396.95
947.3239	2179.5494	25200.4	24310.85
947.4587	2181.0507	25103.65	24218.7
947.5934	2182.5513	25059.4	24174.95
947.7281	2184.0512	24968.85	24086.7
947.8628	2185.5504	24880.05	23996.15
947.9974	2187.0488	24760.25	23875.3
948.132	2188.5465	24678.6	23794.7
948.2666	2190.0435	24595.5	23711.1
948.4012	2191.5397	24466.7	23582.9
948.5357	2193.0353	24428.6	23543.9
948.6702	2194.5301	24309.5	23423.9
948.8047	2196.0241	24261.9	23374.45
948.9392	2197.5175	24170	23282.95
949.0736	2199.0101	24130.4	23241.2
949.208	2200.502	23988.45	23105.75
949.3424	2201.9931	23906.45	23021.45
949.4767	2203.4835	23808.5	22925.55
949.611	2204.9733	23762.1	22872.9
949.7453	2206.4622	23717.1	22835.65
949.8796	2207.9505	23595.2	22711.25
950.0138	2209.438	23487.05	22606.85
950.148	2210.9248	23396.3	22512.8
950.2822	2212.4109	23369.9	22486.95
950.4164	2213.8962	23275.3	22386.5
950.5505	2215.3809	23212.35	22323.85
950.6846	2216.8648	23157.5	22268.9
950.8186	2218.3479	23108.8	22215.85
950.9527	2219.8304	22986.6	22096
951.0867	2221.3121	22923.3	22035.4
951.2207	2222.7931	22858.15	21973.1
951.3546	2224.2733	22770.2	21884.8
951.4886	2225.7529	22670.2	21784.75
951.6225	2227.2317	22553.4	21668.05
951.7563	2228.7098	22548.5	21667.15
951.8902	2230.1872	22466.2	21581.7
952.024	2231.6638	22431.4	21548.05
952.1578	2233.1397	22292.55	21403.65
952.2916	2234.6149	22275.9	21394
952.4253	2236.0894	22142.8	21258.3
952.559	2237.5632	22108.55	21222.2
952.6927	2239.0362	22066.35	21182.8
952.8263	2240.5085	21958.6	21076.55
952.9599	2241.9801	21892.75	21007.05
953.0935	2243.4509	21818.4	20932.9
953.2271	2244.921	21710.9	20824.6
953.3606	2246.3904	21675.55	20786.5
953.4941	2247.8591	21600.35	20713.85
953.6276	2249.3271	21545.45	20659.5
953.7611	2250.7943	21490.2	20603
953.8945	2252.2608	21371.85	20486
954.0279	2253.7266	21336.6	20450.9
954.1612	2255.1917	21283.35	20399
954.2946	2256.656	21210.1	20325.25
954.4279	2258.1197	21158.85	20273.8
954.5612	2259.5826	21099.95	20213.25
954.6944	2261.0447	21068.2	20181.85
954.8276	2262.5062	20952.45	20063.6
954.9608	2263.9669	20869.35	19981.3
955.094	2265.4269	20821.05	19935.85
955.2271	2266.8862	20781.3	19897.55
955.3602	2268.3448	20740.45	19854.35
955.4933	2269.8026	20712	19828.35
955.6264	2271.2598	20631.1	19746.4
955.7594	2272.7162	20539.6	19655.15
955.8924	2274.1719	20488.35	19603
956.0253	2275.6268	20406.8	19519.85
956.1583	2277.0811	20404.25	19519.15
956.2912	2278.5346	20315.65	19432.25
956.4241	2279.9874	20270.45	19386.95
956.5569	2281.4395	20225.8	19342.1
956.6897	2282.8908	20121.85	19232.25
956.8225	2284.3414	20109.35	19225.3
956.9553	2285.7914	20041.3	19154.8
957.088	2287.2406	19975.05	19087.2
957.2207	2288.689	19941	19054.95
957.3534	2290.1368	19890.1	19000.7
957.486	2291.5838	19810.7	18919.8
957.6186	2293.0302	19773.35	18884.8
957.7512	2294.4758	19626	18739.05
957.8838	2295.9206	19564.45	18674.35
958.0163	2297.3648	19561.7	18678.1
958.1488	2298.8082	19500.5	18615.4
958.2813	2300.251	19452.1	18567.25
958.4137	2301.693	19386	18495.6
958.5461	2303.1343	19331	18444.55
958.6785	2304.5748	19249.7	18364.25
958.8108	2306.0147	19171.4	18287.1
958.9432	2307.4538	19126.35	18241.5
959.0754	2308.8922	19050.2	18168.15
959.2077	2310.3299	19033.7	18151.45
959.3399	2311.7669	18977.8	18093.7
959.4721	2313.2031	18909.25	18025.3
959.6043	2314.6387	18833.8	17948.4
959.7365	2316.0735	18786.6	17903.1
959.8686	2317.5076	18765.05	17877.7
960.0006	2318.941	18699.1	17812.75
960.1327	2320.3737	18642.6	17753.25
960.2647	2321.8056	18609.6	17721.45
960.3967	2323.2369	18544.4	17659.15
960.5287	2324.6674	18456.25	17565.75
960.6606	2326.0972	18375.85	17485.55
960.7925	2327.5263	18332.9	17447.2
960.9244	2328.9547	18237.75	17351.85
961.0562	2330.3823	18207.7	17321.7
961.1881	2331.8092	18215.95	17325.6
961.3198	2333.2355	18110.65	17223.95
961.4516	2334.661	18092.1	17204.3
961.5833	2336.0858	18041.05	17149.65
961.715	2337.5098	18024.35	17138.85
961.8467	2338.9332	17984.7	17098.45
961.9783	2340.3558	17888.35	16998.65
962.1099	2341.7778	17823.35	16936.95
962.2415	2343.199	17766.45	16879.7
962.373	2344.6195	17673.3	16791.75
962.5045	2346.0393	17682.15	16798.05
962.636	2347.4583	17629.25	16744.45
962.7675	2348.8767	17556.35	16671.2
962.8989	2350.2943	17491.4	16606.95
963.0303	2351.7113	17499.7	16610.5
963.1617	2353.1275	17430.1	16539.5
963.293	2354.543	17382.4	16486.15
963.4243	2355.9578	17308.8	16421
963.5556	2357.3718	17209.35	16324
963.6868	2358.7852	17160.65	16272.05
963.818	2360.1978	17091.1	16205.4
963.9492	2361.6098	17055.75	16169.5
964.0803	2363.021	17005.15	16115.9
964.2114	2364.4315	16969.15	16084.5
964.3425	2365.8413	16903.9	16013.7
964.4736	2367.2504	16820.75	15936.85
964.6046	2368.6587	16742.45	15859.75
964.7356	2370.0664	16662.6	15777.7
964.8666	2371.4733	16626.4	15741.4
964.9975	2372.8795	16567.5	15682.2
965.1284	2374.285	16522.6	15636.8
965.2593	2375.6899	16440.4	15556.15
965.3901	2377.0939	16372.8	15487.6
965.5209	2378.4973	16320.7	15437.05
965.6517	2379.9	16282.35	15398
965.7825	2381.3019	16198.25	15312.15
965.9132	2382.7032	16178.6	15292.6
966.0439	2384.1037	16109.3	15228.75
966.1745	2385.5035	16081.15	15197.95
966.3051	2386.9027	16019.65	15136.45
966.4357	2388.3011	15973.75	15085.5
966.5663	2389.6987	15897	15013.25
966.6968	2391.0957	15865.55	14981.35
966.8273	2392.492	15803.05	14919.95
966.9578	2393.8876	15711.5	14828.5
967.0882	2395.2824	15668.75	14782.95
967.2186	2396.6765	15624.8	14739.95
967.349	2398.07	15552.4	14666.65
967.4793	2399.4627	15524.15	14637.2
967.6097	2400.8547	15476.1	14590.8
967.7399	2402.246	15387.15	14495.2
967.8702	2403.6366	15287.65	14400.5
968.0004	2405.0265	15239.3	14355.75
968.1306	2406.4156	15180.6	14292.35
968.2607	2407.8041	15138.15	14250.4
968.3909	2409.1918	15046.2	14156.85
968.521	2410.5789	15047.1	14161.7
968.651	2411.9652	14978.15	14090.2
968.781	2413.3508	14922.45	14035.7
968.911	2414.7358	14887.55	14002.85
969.041	2416.12	14810.15	13924.15
969.1709	2417.5035	14790.6	13905.2
969.3008	2418.8863	14722.2	13836.05
969.4307	2420.2684	14673.1	13786.35
969.5606	2421.6497	14615.8	13730.8
969.6904	2423.0304	14531	13646.7
969.8201	2424.4104	14459.6	13574.15
969.9499	2425.7896	14456.2	13570.75
970.0796	2427.1682	14382.25	13498
970.2093	2428.546	14361.2	13474.55
970.3389	2429.9232	14350.35	13462.15
970.4685	2431.2996	14284.35	13398.4
970.5981	2432.6753	14269.5	13382.9
970.7277	2434.0503	14209.65	13323.1
970.8572	2435.4246	14135.8	13250.45
970.9867	2436.7982	14095.1	13208.55
971.1161	2438.1711	14045.1	13158.75
971.2456	2439.5433	13998.25	13113.15
971.375	2440.9148	13958.25	13071.8
971.5043	2442.2856	13861.65	12975.6
971.6336	2443.6557	13847.2	12960.75
971.7629	2445.025	13798.8	12911.95
971.8922	2446.3937	13759.6	12873.9
972.0214	2447.7617	13715.75	12828.95
972.1506	2449.1289	13706.25	12820.15
972.2798	2450.4955	13649.3	12761.3
972.4089	2451.8613	13618.15	12734.2
972.538	2453.2265	13581.2	12695.7
972.6671	2454.5909	13536.45	12652.45
972.7961	2455.9546	13475.3	12589.8
972.9251	2457.3177	13465.25	12580.1
973.0541	2458.68	13384	12496.3
973.1831	2460.0416	13364.9	12479.35
973.312	2461.4025	13343.3	12456.4
973.4408	2462.7627	13325.1	12428.15
973.5697	2464.1222	13281	12397.9
973.6985	2465.4811	13234.65	12348.5
973.8273	2466.8392	13152.55	12267.95
973.956	2468.1966	13140.9	12256.7
974.0847	2469.5533	13168.55	12282.25
974.2134	2470.9093	13102.15	12216.4
974.3421	2472.2645	13041	12154.9
974.4707	2473.6191	12968.85	12084.05
974.5993	2474.973	12927.05	12040.55
974.7278	2476.3262	12907.7	12022.15
974.8563	2477.6787	12854.45	11970.4
974.9848	2479.0305	12782.6	11897.05
975.1132	2480.3816	12751.6	11866.25
975.2417	2481.7319	12732.95	11849.45
975.37	2483.0816	12656.1	11767.8
975.4984	2484.4306	12621.45	11736.35
975.6267	2485.7789	12574.25	11692.65
975.755	2487.1264	12505.4	11620.55
975.8833	2488.4733	12427.9	11544.95
976.0115	2489.8195	12424.15	11530.75
976.1397	2491.165	12364	11476.55
976.2678	2492.5097	12340.95	11454.9
976.3959	2493.8538	12269.3	11387.25
976.524	2495.1972	12219.25	11334.25
976.6521	2496.5398	12188.4	11300.75
976.7801	2497.8818	12185.45	11297.1
976.9081	2499.2231	12120.7	11234.45
977.036	2500.5637	12069.1	11182.9
977.164	2501.9035	12008	11121.7
977.2918	2503.2427	11984.9	11095.95
977.4197	2504.5812	11962	11077.3
977.5475	2505.919	11924.55	11036.75
977.6753	2507.256	11907.95	11021.45
977.8031	2508.5924	11845.55	10960.65
977.9308	2509.9281	11792	10900.4
978.0585	2511.2631	11751.3	10865.5
978.1861	2512.5974	11720	10834.5
978.3137	2513.9309	11689.85	10806.1
978.4413	2515.2638	11666.55	10753.1
978.5689	2516.596	11637.25	10751.85
978.6964	2517.9275	11547.9	10663.05
978.8239	2519.2583	11521.5	10636.45
978.9513	2520.5884	11455.9	10569.05
979.0788	2521.9178	11424.3	10538.6
979.2062	2523.2465	11383.4	10499.1
979.3335	2524.5745	11344.6	10458.9
979.4608	2525.9018	11295.55	10409.05
979.5881	2527.2284	11284.05	10397.95
979.7154	2528.5543	11247.15	10362.65
979.8426	2529.8796	11225.75	10340.05
979.9698	2531.2041	11188.3	10302.65
980.0969	2532.5279	11155.85	10273.35
980.224	2533.851	11138.15	10252.3
980.3511	2535.1735	11086.25	10202.55
980.4781	2536.4952	11071.1	10183.45
980.6052	2537.8163	11054.05	10168.95
980.7321	2539.1366	10974.3	10090.6
980.8591	2540.4562	10974.5	10087.3
980.986	2541.7752	10970.1	10082
981.1129	2543.0935	10916.55	10030.1
981.2397	2544.411	10907.65	10019.95
981.3665	2545.7279	10879.1	9994.45
981.4933	2547.0441	10844.4	9958.25
981.62	2548.3596	10832.45	9942.75
981.7467	2549.6744	10806.05	9919.3
981.8734	2550.9885	10796.9	9903.05
982.0001	2552.3019	10731.7	9847.45
982.1267	2553.6146	10704.55	9819.75
982.2532	2554.9266	10681.25	9795.3
982.3798	2556.2379	10631.25	9742.9
982.5063	2557.5485	10642.4	9758.2
982.6327	2558.8585	10597.35	9706.15
982.7592	2560.1677	10586	9695
982.8856	2561.4762	10569.3	9683.35
983.0119	2562.7841	10535.9	9648.95
983.1383	2564.0913	10529.4	9642.7
983.2646	2565.3977	10501.05	9617.1
983.3908	2566.7035	10454.7	9567.7
983.517	2568.0086	10463.5	9577
983.6432	2569.313	10438.8	9551.85
983.7694	2570.6167	10404.9	9515.85
983.8955	2571.9197	10364.6	9480.5
984.0216	2573.222	10362.15	9473.05
984.1476	2574.5236	10335.65	9448.3
984.2737	2575.8246	10279.25	9391.3
984.3996	2577.1248	10260.55	9373.2
984.5256	2578.4244	10275.55	9392.05
984.6515	2579.7232	10247.55	9362.1
984.7774	2581.0214	10215.25	9307.85
984.9032	2582.3189	10182.1	9298
985.029	2583.6157	10159.9	9268.75
985.1548	2584.9118	10123.3	9237.25
985.2806	2586.2072	10117.2	9233.2
985.4063	2587.5019	10084.3	9199.6
985.5319	2588.7959	10048.45	9162.6
985.6576	2590.0893	10020	9133.35
985.7832	2591.3819	10004.3	9119.85
985.9087	2592.6739	9974.15	9090.75
986.0343	2593.9652	9935.85	9049.1
986.1597	2595.2557	9908.35	9021.8
986.2852	2596.5456	9866.65	8980.7
986.4106	2597.8348	9831.2	8946
986.536	2599.1234	9791.3	8907.35
986.6614	2600.4112	9754.45	8868.05
986.7867	2601.6983	9725.25	8836.1
986.912	2602.9848	9677.65	8794
987.0372	2604.2705	9630.9	8738.85
987.1624	2605.5556	9623.55	8738
987.2876	2606.84	9580.25	8696.5
987.4128	2608.1237	9572.05	8684.9
987.5379	2609.4067	9529.1	8642.75
987.6629	2610.689	9484.3	8591
987.788	2611.9707	9439.25	8551.75
987.913	2613.2516	9433.25	8543.3
988.0379	2614.5319	9371.35	8487.3
988.1629	2615.8115	9336.45	8452.1
988.2878	2617.0903	9303.2	8417.25
988.4126	2618.3685	9247.3	8363
988.5375	2619.6461	9225.55	8340.35
988.6622	2620.9229	9202.4	8318.95
988.787	2622.199	9183.95	8299.25
988.9117	2623.4745	9152	8265.7
989.0364	2624.7493	9128.7	8243.6
989.161	2626.0234	9106.05	8222.5
989.2857	2627.2968	9053.9	8168.95
989.4102	2628.5695	9025.95	8138.5
989.5348	2629.8415	8980	8096.4
989.6593	2631.1128	8937.25	8050.9
989.7837	2632.3835	8900.55	8015.45
989.9082	2633.6535	8855.25	7971
990.0326	2634.9228	8819.75	7934.4
990.1569	2636.1914	8810.6	7926.6
990.2812	2637.4593	8799.5	7908.9
990.4055	2638.7265	8750.3	7864.05
990.5298	2639.9931	8728.9	7845.6
990.654	2641.259	8715.35	7830.9
990.7782	2642.5242	8686.55	7804
990.9023	2643.7887	8643.7	7760.25
991.0264	2645.0525	8622.55	7737.35
991.1505	2646.3156	8584.5	7696.25
991.2745	2647.5781	8552.3	7668
991.3985	2648.8398	8525.9	7642.6
991.5225	2650.1009	8510.1	7615.65
991.6464	2651.3613	8499	7614
991.7703	2652.6211	8450.2	7565.75
991.8942	2653.8801	8417.1	7535.2
992.018	2655.1385	8423.5	7538.15
992.1418	2656.3961	8393.5	7510.7
992.2655	2657.6531	8395.7	7513.55
992.3892	2658.9094	8354.8	7470.8
992.5129	2660.1651	8343.9	7460.55
992.6366	2661.42	8311.9	7427.7
992.7602	2662.6743	8299.5	7413.7
992.8837	2663.9279	8282.85	7399.25
993.0073	2665.1808	8250.75	7366.65
993.1307	2666.433	8216.6	7330.8
993.2542	2667.6846	8204.65	7320
993.3776	2668.9354	8182.4	7297
993.501	2670.1856	8148.45	7263.05
993.6244	2671.4351	8130.75	7246
993.7477	2672.6839	8077.5	7191
993.8709	2673.9321	8089.75	7205.8
993.9942	2675.1795	8041.9	7158.35
994.1174	2676.4263	8035.9	7151.85
994.2405	2677.6724	8005	7121.25
994.3637	2678.9179	7978.85	7094.45
994.4868	2680.1626	7963.6	7079.9
994.6098	2681.4067	7920.3	7036.4
994.7328	2682.6501	7900.95	7016.05
994.8558	2683.8928	7888.55	7003.85
994.9788	2685.1348	7855.85	6972.4
995.1017	2686.3761	7821.5	6936.65
995.2245	2687.6168	7795.35	6913.35
995.3474	2688.8568	7794.2	6910.35
995.4702	2690.0961	7744.8	6860.8
995.5929	2691.3348	7726.75	6841.8
995.7156	2692.5727	7722.8	6839.85
995.8383	2693.81	7676.7	6794.45
995.961	2695.0466	7652.95	6771.15
996.0836	2696.2826	7611.5	6727
996.2062	2697.5178	7609.05	6722.25
996.3287	2698.7524	7567.5	6683.45
996.4512	2699.9863	7567.4	6680.8
996.5737	2701.2195	7554.35	6669.95
996.6961	2702.452	7533.45	6647.55
996.8185	2703.6839	7509	6624.15
996.9408	2704.9151	7470.65	6588.55
997.0631	2706.1456	7465.85	6580.15
997.1854	2707.3755	7425.85	6539.6
997.3077	2708.6046	7426.65	6539.95
997.4299	2709.8331	7387.6	6501.6
997.552	2711.0609	7376.05	6493.25
997.6742	2712.2881	7328.75	6446.35
997.7963	2713.5145	7312.75	6427.1
997.9183	2714.7403	7298.7	6415.55
998.0403	2715.9654	7270.5	6387.75
998.1623	2717.1899	7265.15	6380.5
998.2842	2718.4136	7265.75	6383
998.4062	2719.6367	7230.65	6346.05
998.528	2720.8591	7219.4	6327.85
998.6498	2722.0809	7172.2	6287.25
998.7716	2723.3019	7166.05	6278.1
998.8934	2724.5223	7131.35	6246.3
999.0151	2725.7421	7144.05	6259.65
999.1368	2726.9611	7132.35	6247.75
999.2584	2728.1795	7090.4	6200.8
999.38	2729.3972	7053.7	6170.3
999.5016	2730.6142	7036.05	6145.3
999.6231	2731.8306	6975.45	6090.1
999.7446	2733.0462	6956.85	6071.45
999.8661	2734.2612	6925.15	6037.6
999.9875	2735.4756	6903.95	6017.05
1000.1089	2736.6892	6849.85	5964.1
1000.2302	2737.9022	6819.6	5936.9
1000.3515	2739.1145	6763.75	5880.9
1000.4728	2740.3262	6749.85	5859.9
1000.594	2741.5372	6725.05	5840.95
1000.7152	2742.7475	6701.5	5816.3
1000.8363	2743.9571	6659.15	5773.95
1000.9575	2745.1661	6638.4	5749.2
1001.0785	2746.3744	6604.95	5721.2
1001.1996	2747.582	6591.9	5708
1001.3206	2748.7889	6574.45	5686.9
1001.4415	2749.9952	6540.4	5657.45
1001.5625	2751.2008	6527.4	5643
1001.6833	2752.4057	6503.35	5617.25
1001.8042	2753.61	6470.1	5586.15
1001.925	2754.8136	6454.9	5567.2
1002.0458	2756.0165	6409.7	5526.4
1002.1665	2757.2188	6409.85	5528.05
1002.2872	2758.4204	6381.05	5496.7
1002.4078	2759.6213	6352.65	5467.1
1002.5285	2760.8215	6354.8	5466.85
1002.649	2762.0211	6318.45	5434.45
1002.7696	2763.22	6319.35	5432.3
1002.8901	2764.4182	6296.15	5411.1
1003.0106	2765.6158	6264.6	5381.1
1003.131	2766.8127	6254.05	5370.35
1003.2514	2768.009	6216.3	5333.95
1003.3717	2769.2045	6196.25	5311.75
1003.492	2770.3994	6186.55	5301.8
1003.6123	2771.5936	6163.45	5279.95
1003.7325	2772.7872	6122.95	5238.2
1003.8527	2773.9801	6102.1	5217.65
1003.9729	2775.1723	6105.1	5205.2
1004.093	2776.3639	6080.95	5199.3
1004.2131	2777.5548	6054.8	5169.7
1004.3331	2778.745	6025.55	5139.45
1004.4531	2779.9346	6009.65	5128.65
1004.5731	2781.1235	6005.5	5120.75
1004.693	2782.3117	6002.5	5121.3
1004.8129	2783.4992	5971.15	5089.4
1004.9328	2784.6861	5953.7	5069.75
1005.0526	2785.8723	5923.45	5040.65
1005.1723	2787.0579	5919.2	5035.25
1005.2921	2788.2428	5910.3	5026.75
1005.4118	2789.427	5894.45	5012.35
1005.5314	2790.6106	5868.6	4986.05
1005.651	2791.7935	5855.95	4974.2
1005.7706	2792.9757	5835.7	4953.55
1005.8902	2794.1573	5812.6	4927.65
1006.0097	2795.3382	5808.2	4924.5
1006.1291	2796.5184	5773.35	4892.6
1006.2485	2797.698	5771.9	4889.75
1006.3679	2798.8769	5775.45	4893.1
1006.4873	2800.0551	5742.2	4858.45
1006.6066	2801.2327	5728.35	4842.15
1006.7258	2802.4096	5721.3	4839.1
1006.8451	2803.5859	5720.15	4838.6
1006.9642	2804.7615	5684.85	4800.65
1007.0834	2805.9364	5696.65	4814
1007.2025	2807.1106	5700.95	4820.65
1007.3216	2808.2842	5702.85	4820.85
1007.4406	2809.4572	5683	4800
1007.5596	2810.6294	5711.95	4827.9
1007.6785	2811.801	5714.65	4833.7
1007.7975	2812.972	5733.95	4852.25
1007.9163	2814.1423	5742.5	4860.3
1008.0352	2815.3119	5755.35	4873.25
1008.154	2816.4808	5776.1	4895.95
1008.2727	2817.6491	5793.2	4910.1
1008.3914	2818.8167	5816.7	4936.6
1008.5101	2819.9837	5845.4	4957.25
1008.6288	2821.15	5877.05	4995.55
1008.7474	2822.3157	5905.7	5022.95
1008.8659	2823.4807	5928.75	5045.4
1008.9844	2824.645	5957.8	5074.1
1009.1029	2825.8086	5981.05	5099.75
1009.2214	2826.9716	5996.65	5114.6
1009.3398	2828.134	6036.1	5156.75
1009.4581	2829.2957	6072.2	5189
1009.5764	2830.4567	6057.85	5177.3
1009.6947	2831.617	6076.8	5194.35
1009.813	2832.7767	6067.5	5184.75
1009.9312	2833.9358	6041.7	5161.65
1010.0493	2835.0941	6032	5147.1
1010.1675	2836.2519	6017.75	5135.6
1010.2855	2837.4089	6000.15	5116.75
1010.4036	2838.5653	5978.95	5096.7
1010.5216	2839.7211	5963.4	5082.35
1010.6396	2840.8761	5921.4	5037.85
1010.7575	2842.0306	5918.65	5037.4
1010.8754	2843.1843	5935.45	5053.15
1010.9932	2844.3374	5953.05	5070.2
1011.111	2845.4899	5962.35	5079.65
1011.2288	2846.6417	5999.8	5119.55
1011.3465	2847.7928	6030.25	5147.95
1011.4642	2848.9433	6053.8	5172
1011.5818	2850.0931	6086.4	5204.85
1011.6995	2851.2422	6131	5246.25
1011.817	2852.3907	6182.55	5300.85
1011.9345	2853.5385	6210.55	5328.9
1012.052	2854.6857	6222.2	5330.1
1012.1695	2855.8323	6251.7	5369.55
1012.2869	2856.9781	6271.1	5388.3
1012.4042	2858.1233	6300.35	5417.75
1012.5216	2859.2679	6323.35	5441.8
1012.6389	2860.4118	6336.2	5453.5
1012.7561	2861.555	6335.1	5448.05
1012.8733	2862.6976	6363.75	5480.65
1012.9905	2863.8395	6384.25	5504.25
1013.1076	2864.9808	6389.65	5508.3
1013.2247	2866.1214	6383.35	5501.8
1013.3417	2867.2614	6367.4	5486.3
1013.4587	2868.4007	6372.75	5490.05
1013.5757	2869.5393	6373.9	5491.15
1013.6926	2870.6773	6369.45	5484.9
1013.8095	2871.8146	6374.2	5490.45
1013.9263	2872.9513	6343	5458.85
1014.0431	2874.0874	6316.55	5435.15
1014.1599	2875.2227	6284.2	5400.85
1014.2766	2876.3574	6248.9	5367.65
1014.3933	2877.4915	6208.35	5324.9
1014.51	2878.6249	6160.6	5278.4
1014.6266	2879.7577	6159.7	5276.15
1014.7431	2880.8898	6117.8	5226.6
1014.8596	2882.0212	6089.2	5208.95
1014.9761	2883.152	6065.3	5181.6
1015.0925	2884.2821	6051.05	5171.3
1015.2089	2885.4116	6021.6	5142
1015.3253	2886.5405	6004.65	5122.9
1015.4416	2887.6686	6001.1	5114.95
1015.5579	2888.7962	5981.75	5101.4
1015.6741	2889.923	5978.5	5097.9
1015.7903	2891.0493	5972.9	5091.45
1015.9065	2892.1748	5972.6	5090.45
1016.0226	2893.2997	5951.05	5068.9
1016.1387	2894.424	5954.6	5075.35
1016.2547	2895.5476	5959.75	5079.4
1016.3707	2896.6706	5934.55	5054.85
1016.4866	2897.7929	5939.15	5056.95
1016.6025	2898.9145	5936.8	5054.35
1016.7184	2900.0355	5941.6	5057.95
1016.8342	2901.1559	5957.2	5074.65
1016.95	2902.2756	5936.65	5054.3
1017.0658	2903.3946	5966.8	5084.5
1017.1815	2904.513	5961.25	5077.4
1017.2971	2905.6308	5983	5104.25
1017.4127	2906.7479	5973.4	5091.5
1017.5283	2907.8643	5980.65	5097.45
1017.6439	2908.9801	5971.25	5091.95
1017.7594	2910.0953	5961.45	5078.4
1017.8748	2911.2098	5955.25	5067.8
1017.9902	2912.3236	5942.5	5052.95
1018.1056	2913.4368	5932.25	5047.55
1018.2209	2914.5494	5886.05	5004.75
1018.3362	2915.6613	5847.9	4961.05
1018.4515	2916.7725	5821.4	4936.8
1018.5667	2917.8831	5802.3	4921.25
1018.6819	2918.9931	5760.3	4875.75
1018.797	2920.1024	5733.05	4852.4
1018.9121	2921.211	5699.65	4817.3
1019.0271	2922.319	5668.25	4786.2
1019.1421	2923.4264	5648.1	4767.3
1019.2571	2924.5331	5622.55	4742.95
1019.372	2925.6391	5603.7	4721.45
1019.4869	2926.7445	5606.35	4727.25
1019.6017	2927.8493	5589.7	4706
1019.7165	2928.9534	5571.85	4690.6
1019.8313	2930.0569	5574.35	4687.85
1019.946	2931.1597	5575.35	4692.8
1020.0606	2932.2619	5541.7	4658.35
1020.1753	2933.3634	5554.7	4673.65
1020.2899	2934.4643	5534.1	4646.7
1020.4044	2935.5645	5517.1	4630.4
1020.5189	2936.6641	5483.3	4597.35
1020.6334	2937.763	5454.65	4574.45
1020.7478	2938.8613	5391.45	4508.2
1020.8622	2939.959	5360.15	4473.65
1020.9765	2941.056	5299.45	4417.4
1021.0908	2942.1523	5232.55	4351.2
1021.2051	2943.248	5188.6	4307.2
1021.3193	2944.3431	5106.85	4228.85
1021.4334	2945.4375	5021.05	4140.7
1021.5476	2946.5313	4918.1	4038.2
1021.6617	2947.6244	4838.6	3957.75
1021.7757	2948.7169	4750.1	3868.05
1021.8897	2949.8087	4673.95	3794.6
1022.0037	2950.8999	4594.95	3713.1
1022.1176	2951.9904	4532	3651.6
1022.2315	2953.0803	4464.1	3581.9
1022.3453	2954.1696	4398	3516.5
1022.4591	2955.2582	4345.55	3465.8
1022.5728	2956.3462	4297.95	3417.1
1022.6865	2957.4335	4269.6	3388.6
1022.8002	2958.5202	4211.65	3329.05
1022.9138	2959.6062	4190.45	3308.3
1023.0274	2960.6916	4172.65	3292.55
1023.141	2961.7764	4131	3247.9
1023.2545	2962.8605	4124.45	3242.6
1023.3679	2963.9439	4110	3231.5
1023.4813	2965.0267	4071.7	3188.8
1023.5947	2966.1089	4083.35	3179.4
1023.708	2967.1905	4049.95	3169.7
1023.8213	2968.2714	4024.3	3143.55
1023.9346	2969.3516	4018.75	3137.25
1024.0478	2970.4312	4027.1	3140
1024.1609	2971.5102	3995.05	3113.4
1024.274	2972.5885	3967.25	3086.95
1024.3871	2973.6662	3987.05	3101.55
1024.5002	2974.7432	3973.3	3092.9
1024.6132	2975.8196	3950.65	3069.95
1024.7261	2976.8954	3951.95	3070.95
1024.839	2977.9705	3928.95	3048.85
1024.9519	2979.045	3897.6	3015.6
1025.0647	2980.1188	3870.9	2991.65
1025.1775	2981.192	3854.65	2974.65
1025.2902	2982.2645	3830.2	2947.95
1025.4029	2983.3364	3809.7	2929
1025.5156	2984.4077	3776.4	2896.35
1025.6282	2985.4783	3752.7	2865.1
1025.7407	2986.5483	3720.6	2840.85
1025.8532	2987.6177	3680.65	2800.2
1025.9657	2988.6864	3663.1	2783.5
1026.0782	2989.7545	3620.45	2737.5
1026.1906	2990.8219	3590.35	2709.25
1026.3029	2991.8887	3548.65	2666.7
1026.4152	2992.9548	3513.65	2633.95
1026.5275	2994.0204	3487.75	2610.45
1026.6397	2995.0852	3458.45	2579.4
1026.7519	2996.1495	3437.2	2556.05
1026.864	2997.2131	3414.45	2534.85
1026.9761	2998.276	3385.85	2505.35
1027.0882	2999.3383	3360.95	2478.5
1027.2002	3000.4	3329.75	2447.05
1027.3122	3001.4611	3305	2421.95
1027.4241	3002.5215	3292.2	2411.6
1027.536	3003.5812	3264.45	2383.55
1027.6478	3004.6404	3264.95	2383.7
1027.7596	3005.6989	3241.65	2358.65
1027.8714	3006.7567	3222.9	2343.85
1027.9831	3007.8139	3227.55	2317.85
1028.0947	3008.8705	3202.4	2321.55
1028.2064	3009.9264	3177.45	2293.65
1028.3179	3010.9818	3170.05	2289.65
1028.4295	3012.0364	3168.8	2286
1028.541	3013.0905	3137.85	2257.05
1028.6524	3014.1439	3129.9	2246.75
1028.7638	3015.1966	3118.65	2239
1028.8752	3016.2487	3104.95	2225.05
1028.9865	3017.3002	3107.2	2225.15
1029.0978	3018.3511	3092.4	2213.55
1029.209	3019.4013	3064.95	2185.35
1029.3202	3020.4509	3067.8	2189.4
1029.4314	3021.4998	3056.2	2174.75
1029.5425	3022.5481	3045.8	2164.95
1029.6535	3023.5958	3042.7	2162.8
1029.7645	3024.6428	3029.9	2147.5
1029.8755	3025.6892	3023.85	2144.3
1029.9864	3026.735	3018.45	2139.35
1030.0973	3027.7802	3004.9	2123.7
1030.2082	3028.8247	2994.55	2116.85
1030.319	3029.8685	2980.6	2100.2
1030.4297	3030.9118	2978.5	2096.95
1030.5404	3031.9544	2979.25	2100.55
1030.6511	3032.9963	2969.8	2089.75
1030.7617	3034.0376	2967.85	2086.85
1030.8723	3035.0783	2951	2068.3
1030.9829	3036.1184	2949.3	2066.6
1031.0934	3037.1578	2934.65	2055.3
1031.2038	3038.1966	2929.6	2046.45
1031.3142	3039.2348	2928.1	2047.35
1031.4246	3040.2723	2926.1	2038.55
1031.5349	3041.3092	2925.4	2044.95
1031.6452	3042.3455	2898.05	2020.7
1031.7554	3043.3811	2908.45	2027.15
1031.8656	3044.4161	2900.95	2020.85
1031.9758	3045.4505	2876.95	1996.55
1032.0859	3046.4842	2865.75	1984.25
1032.1959	3047.5173	2854.45	1974.9
1032.3059	3048.5498	2843.05	1961.4
1032.4159	3049.5816	2835.35	1954.8
1032.5258	3050.6128	2835.65	1952.35
1032.6357	3051.6434	2833.05	1950.5
1032.7455	3052.6734	2820.75	1939.35
1032.8553	3053.7027	2792.7	1911.3
1032.9651	3054.7314	2796.8	1917.3
1033.0748	3055.7594	2788	1909.8
1033.1845	3056.7868	2769.9	1889.75
1033.2941	3057.8136	2769.4	1890.05
1033.4037	3058.8398	2751.3	1871.2
1033.5132	3059.8653	2746.6	1867.25
1033.6227	3060.8902	2731.6	1850.25
1033.7321	3061.9145	2733.75	1853.95
1033.8415	3062.9381	2729.25	1849.35
1033.9509	3063.9612	2710.8	1816.15
1034.0602	3064.9835	2696.15	1815.95
1034.1694	3066.0053	2696.65	1812.35
1034.2787	3067.0264	2677.75	1797.7
1034.3878	3068.0469	2678.1	1797.5
1034.497	3069.0668	2661.2	1778.75
1034.6061	3070.086	2649.6	1770.65
1034.7151	3071.1046	2645.5	1764.9
1034.8241	3072.1226	2647.65	1766.2
1034.9331	3073.1399	2628.1	1748.6
1035.042	3074.1567	2608.75	1727.65
1035.1508	3075.1727	2607.8	1726.6
1035.2597	3076.1882	2577.95	1698.5
1035.3684	3077.203	2571.25	1690.55
1035.4772	3078.2173	2563.75	1682.3
1035.5859	3079.2308	2555.3	1673.3
1035.6945	3080.2438	2551.2	1670.25
1035.8031	3081.2561	2541.2	1661.4
1035.9117	3082.2678	2520.1	1639.75
1036.0202	3083.2789	2509.7	1630.45
1036.1286	3084.2893	2502.75	1625.5
1036.2371	3085.2991	2477.05	1596.4
1036.3454	3086.3083	2482.1	1597.25
1036.4538	3087.3169	2479.8	1597.8
1036.562	3088.3248	2468.75	1589.1
1036.6703	3089.3321	2458.5	1575.85
1036.7785	3090.3388	2438.65	1558.05
1036.8866	3091.3449	2435	1554.7
1036.9948	3092.3503	2424.6	1542.2
1037.1028	3093.3551	2424	1545.05
1037.2108	3094.3593	2406.15	1526.7
1037.3188	3095.3629	2401.7	1522.4
1037.4267	3096.3658	2387.7	1507.25
1037.5346	3097.3681	2377.9	1500.8
1037.6425	3098.3698	2379.85	1498.25
1037.7503	3099.3708	2364.35	1478.55
1037.858	3100.3713	2354.5	1474.1
1037.9657	3101.3711	2352.4	1471.7
1038.0734	3102.3702	2459.55	1444.1
1038.181	3103.3688	2331.4	1450.05
1038.2886	3104.3667	2310.9	1431.55
1038.3961	3105.364	2309.15	1429.35
1038.5036	3106.3607	2300.45	1419.5
1038.611	3107.3568	2291.75	1412.3
1038.7184	3108.3522	2292.7	1412.85
1038.8257	3109.347	2281.55	1401.7
1038.933	3110.3412	2271.6	1386
1039.0403	3111.3348	2261.55	1382.7
1039.1475	3112.3277	2257.45	1379.2
1039.2547	3113.32	2248.05	1369.4
1039.3618	3114.3117	2227.95	1347
1039.4689	3115.3028	2227.65	1347
1039.5759	3116.2932	2214.6	1334.1
1039.6829	3117.2831	2218.65	1332.7
1039.7898	3118.2723	2201	1320.85
1039.8967	3119.2608	2189.4	1311
1040.0035	3120.2488	2182	1302.1
1040.1103	3121.2361	2183.6	1304.6
1040.2171	3122.2229	2160.3	1279.9
1040.3238	3123.209	2165.25	1284.35
1040.4305	3124.1944	2155.2	1276.55
1040.5371	3125.1793	2154.85	1273.95
1040.6437	3126.1635	2142.8	1261.95
1040.7502	3127.1471	2141.15	1263.15
1040.8567	3128.1301	2125.45	1247.2
1040.9631	3129.1125	2122.7	1244.1
1041.0695	3130.0942	2128.55	1247.55
1041.1759	3131.0753	2118.6	1229.25
1041.2822	3132.0558	2120.85	1238.7
1041.3884	3133.0357	2097.35	1217.6
1041.4946	3134.015	2093.05	1212.3
1041.6008	3134.9936	2092.95	1208.8
1041.7069	3135.9716	2098.95	1199.3
1041.813	3136.949	2091.15	1211.95
1041.919	3137.9258	2080.9	1196.6
1042.025	3138.902	2070.7	1187.15
1042.1309	3139.8775	2061.55	1183.1
1042.2368	3140.8524	2068.25	1189.1
1042.3427	3141.8267	2057.4	1176.8
1042.4485	3142.8004	2055.95	1175.75
1042.5542	3143.7735	2055.4	1169.75
1042.6599	3144.7459	2048.2	1167.1
1042.7656	3145.7178	2041.25	1161.05
1042.8712	3146.689	2028.15	1150.3
1042.9768	3147.6596	2019.6	1136.9
1043.0823	3148.6295	2015.75	1135.95
1043.1878	3149.5989	2003.4	1123.9
1043.2932	3150.5676	2003.85	1124.55
1043.3986	3151.5357	2000.55	1124.55
1043.5039	3152.5032	1992	1111.4
1043.6092	3153.4701	1985.95	1106.7
1043.7145	3154.4364	1977.4	1094.8
1043.8197	3155.402	1979.4	1102.65
1043.9248	3156.367	1962.2	1079.7
1044.03	3157.3315	1997.85	1080.1
1044.135	3158.2952	1949	1070.6
1044.24	3159.2584	1942.85	1064.25
1044.345	3160.221	1936.1	1055.65
1044.4499	3161.1829	1930.9	1049.95
1044.5548	3162.1442	1939.05	1057.25
1044.6596	3163.105	1925.15	1047
1044.7644	3164.065	1915.7	1037.2
1044.8692	3165.0245	1914.8	1033.95
1044.9739	3165.9834	1903.35	1025.55
1045.0785	3166.9416	1905	1026.1
1045.1831	3167.8993	1891.85	1011.5
1045.2877	3168.8563	1884.2	1005.1
1045.3922	3169.8127	1886.85	1007.75
1045.4966	3170.7684	1881.35	1004.4
1045.6011	3171.7236	1875.3	995.4
1045.7054	3172.6782	1873.7	992.3
1045.8098	3173.6321	1868.4	988.55
1045.914	3174.5854	1864.95	979.65
1046.0183	3175.5381	1850.55	970.65
1046.1224	3176.4902	1847.1	966.15
1046.2266	3177.4417	1846.05	965.6
1046.3307	3178.3926	1834.6	955
1046.4347	3179.3428	1827.15	947.75
1046.5387	3180.2924	1828.8	947.95
1046.6427	3181.2415	1813.5	933
1046.7466	3182.1899	1818.55	938.1
1046.8504	3183.1377	1818.6	940.55
1046.9542	3184.0848	1807.05	923.4
1047.058	3185.0314	1796.05	915.75
1047.1617	3185.9773	1791.1	912.55
1047.2654	3186.9227	1786.9	905.55
1047.369	3187.8674	1789.8	911.5
1047.4726	3188.8115	1781.8	898.45
1047.5761	3189.755	1776.6	898.05
1047.6796	3190.6979	1774.85	894.05
1047.783	3191.6402	1762	884.3
1047.8864	3192.5818	1757.35	878
1047.9898	3193.5229	1771	875.05
1048.0931	3194.4633	1747.35	868.35
1048.1963	3195.4031	1750.95	869.95
1048.2995	3196.3423	1745.4	865.35
1048.4027	3197.2809	1746.05	866.6
1048.5058	3198.2189	1735.75	855.75
1048.6089	3199.1563	1748.25	852.35
1048.7119	3200.0931	1721.9	843.95
1048.8148	3201.0292	1713.65	836.55
1048.9178	3201.9648	1705.45	825.6
1049.0206	3202.8997	1714.95	832.65
1049.1235	3203.834	1710.2	830.6
1049.2262	3204.7677	1699.85	819.05
1049.329	3205.7008	1698.6	816.95
1049.4317	3206.6333	1691.45	813.6
1049.5343	3207.5652	1694.3	813.15
1049.6369	3208.4964	1692.55	810.75
1049.7394	3209.4271	1679.9	800.85
1049.8419	3210.3571	1675.35	796.2
1049.9444	3211.2865	1675.85	796.75
1050.0468	3212.2154	1675.3	795.2
1050.1491	3213.1436	1674.05	792.2
1050.2514	3214.0712	1670.2	784.65
1050.3537	3214.9982	1656.95	776.7
1050.4559	3215.9246	1657.15	777.75
1050.5581	3216.8503	1646.7	767.15
1050.6602	3217.7755	1650.7	769.4
1050.7623	3218.7001	1643.3	766.3
1050.8643	3219.624	1642.65	763.8
1050.9663	3220.5473	1640.75	762.85
1051.0682	3221.4701	1639.45	759.75
1051.1701	3222.3922	1629.3	746.65
1051.2719	3223.3137	1629.05	751.3
1051.3737	3224.2346	1628.25	748.55
1051.4754	3225.1549	1618.55	739.45
1051.5771	3226.0746	1612.2	733.85
1051.6788	3226.9937	1608.45	728.6
1051.7804	3227.9121	1605.9	728.05
1051.8819	3228.83	1595.3	718.25
1051.9834	3229.7473	1599.6	719.95
1052.0849	3230.6639	1598.9	718.65
1052.1863	3231.5799	1596.15	718.8
1052.2876	3232.4954	1579.85	699.6
1052.3889	3233.4102	1580.8	701.5
1052.4902	3234.3244	1573.5	694.5
1052.5914	3235.238	1573.2	693.3
1052.6926	3236.151	1588.2	685.95
1052.7937	3237.0634	1559.55	682.7
1052.8948	3237.9752	1558.2	678.95
1052.9958	3238.8864	1555.4	676.9
1053.0968	3239.797	1553	675.4
1053.1977	3240.7069	1543.8	664.7
1053.2986	3241.6163	1543.45	662.55
1053.3994	3242.5251	1534.25	657.1
1053.5002	3243.4332	1536.2	657.3
1053.6009	3244.3408	1536.85	659.05
1053.7016	3245.2477	1527.45	647.9
1053.8022	3246.154	1525.9	644.95
1053.9028	3247.0598	1521.4	640.75
1054.0034	3247.9649	1512.15	634.65
1054.1039	3248.8694	1510.8	630.95
1054.2043	3249.7733	1505.9	625.95
1054.3047	3250.6766	1506.7	626.25
1054.4051	3251.5793	1494.8	615.6
1054.5054	3252.4814	1495.1	617.35
1054.6056	3253.3829	1492.05	612.35
1054.7058	3254.2838	1485.2	605.75
1054.806	3255.1841	1482.15	602.9
1054.9061	3256.0838	1478.85	598.2
1055.0061	3256.9829	1468.8	591.75
1055.1062	3257.8814	1466.3	585.9
1055.2061	3258.7792	1463.45	581.05
1055.306	3259.6765	1454.7	574.55
1055.4059	3260.5731	1449	571.45
1055.5057	3261.4692	1439.85	560.2
1055.6055	3262.3647	1435.05	556.55
1055.7052	3263.2595	1423.5	546.25
1055.8049	3264.1538	1425.95	548.45
1055.9045	3265.0474	1409.15	529.75
1056.0041	3265.9404	1404.5	524.95
1056.1036	3266.8329	1402.6	524.3
1056.2031	3267.7247	1402.6	513.45
1056.3025	3268.616	1382.8	505.8
1056.4019	3269.5066	1364.95	485.8
1056.5013	3270.3966	1348.5	468.95
1056.6005	3271.286	1334.7	456.85
