Software Version:	3.9.2.0
Unit SN:	10000200
Spectrometer SN:	6960
Date:	3/6/2024 10:29:38 AM
Data Line Index:	25
Spectral Points:	2048
Integration time (ms):	125
Averages:	20
Delay (ms):	30
Sequence Number:	1
Processing:	dark subtract
Laser Power (mW):	300
Laser Current (mA):	825
Laser Diode Temp (C):	25.1
Laser Case Temp (C):	26.2
System Temp (C):	26
Spectrometer Temp (C):	23.4
CCD Temp (C):	-0.009
Secondary Temp (C):	20.006
Heatsink Temp (C):	21.533
CCDPCB Temp (C):	36.185
SecondaryPCB Temp (C):	28.793

Wavelength	RamanShift	Raw Counts	Dark Subtracted
787.061	30.1047	1102.8	691.85
787.2016	32.3739	1140.25	728.45
787.3422	34.6426	1186.15	774.1
787.4828	36.9109	1223.6	811.25
787.6235	39.1787	1282.7	867.15
787.7642	41.4461	1341.25	919.3
787.9049	43.7131	1392.65	969.05
788.0456	45.9796	1466.4	1038.6
788.1863	48.2456	1527.8	1095.3
788.3271	50.5112	1595.95	1160.4
788.4679	52.7764	1658.75	1221.7
788.6087	55.0411	1740.85	1298.9
788.7496	57.3054	1825	1376.85
788.8904	59.5692	1902.35	1452.7
789.0313	61.8326	2002.35	1548.25
789.1722	64.0955	2096.4	1641.05
789.3132	66.3579	2219.85	1759.7
789.4541	68.6199	2364.4	1900.4
789.5951	70.8815	2612.3	2143.7
789.7361	73.1426	3125.95	2651.6
789.8771	75.4032	4451.1	3973.6
790.0181	77.6634	7820.95	7338.25
790.1592	79.9231	16725.6	16238.9
790.3003	82.1824	53570	53069.7
790.4414	84.4412	65535	65013.45
790.5825	86.6995	65535	64984.75
790.7237	88.9574	65535	64958.15
790.8648	91.2148	65535	64941.55
791.006	93.4717	65535	64932.75
791.1472	95.7282	65535	64925.05
791.2885	97.9842	65535	64918.8
791.4297	100.2398	65535	64918.55
791.571	102.4949	65535	64916.65
791.7123	104.7495	65535	64912.45
791.8536	107.0036	65535	64911.65
791.9949	109.2573	65535	64914
792.1363	111.5105	65535	64910.45
792.2777	113.7632	65535	64908.45
792.4191	116.0154	65535	64896.55
792.5605	118.2672	65535	64904.95
792.7019	120.5185	65535	64902.85
792.8434	122.7693	65535	64898.35
792.9849	125.0197	65535	64894.75
793.1264	127.2696	65535	64892.65
793.2679	129.519	65535	64885.65
793.4094	131.7679	65535	64886.1
793.551	134.0163	65535	64882.2
793.6926	136.2642	65535	64877.3
793.8342	138.5117	65535	64866.7
793.9758	140.7587	65535	64878.8
794.1175	143.0052	65535	64874.5
794.2591	145.2512	65535	64874.3
794.4008	147.4967	65535	64871.85
794.5425	149.7417	65535	64866.65
794.6842	151.9863	65535	64862.95
794.826	154.2304	65535	64862.55
794.9677	156.4739	65535	64852.95
795.1095	158.717	65535	64857.45
795.2513	160.9596	65535	64854.5
795.3931	163.2017	65535	64851.5
795.535	165.4433	65535	64846.55
795.6768	167.6844	65535	64849.55
795.8187	169.925	65535	64845.15
795.9606	172.1651	65535	64842.9
796.1025	174.4047	65535	64837.1
796.2445	176.6439	65535	64835.3
796.3864	178.8825	65535	64835.85
796.5284	181.1206	65535	64825.05
796.6704	183.3582	65535	64821.25
796.8124	185.5954	65535	64824.35
796.9544	187.832	65535	64820.65
797.0965	190.0681	65535	64817.55
797.2386	192.3037	65535	64812
797.3806	194.5388	65535	64807.75
797.5228	196.7734	65535	64809.5
797.6649	199.0075	65535	64804.45
797.807	201.2411	65535	64802.05
797.9492	203.4742	65535	64804.25
798.0914	205.7068	65535	64801.65
798.2336	207.9389	65535	64799.55
798.3758	210.1704	65535	64796
798.518	212.4015	65535	64804
798.6603	214.632	65535	64811.85
798.8025	216.862	65535	64819.9
798.9448	219.0915	65535	64822.7
799.0871	221.3205	65535	64816.1
799.2294	223.549	65535	64824.5
799.3718	225.777	65535	64822.25
799.5141	228.0044	65535	64815.2
799.6565	230.2314	65535	64816
799.7989	232.4578	65535	64809.8
799.9413	234.6837	65535	64805.1
800.0837	236.909	65535	64801.7
800.2262	239.1339	65535	64778.95
800.3687	241.3582	65535	64793.55
800.5111	243.582	65535	64762.85
800.6536	245.8053	65535	64774.7
800.7961	248.0281	65535	64781.55
800.9387	250.2503	65535	64776.7
801.0812	252.472	65535	64773.4
801.2238	254.6932	65535	64774.25
801.3664	256.9139	65535	64773.35
801.509	259.134	65535	64767.1
801.6516	261.3536	65535	64768.8
801.7942	263.5727	65535	64765.05
801.9369	265.7912	65535	64766.45
802.0795	268.0092	65535	64765.95
802.2222	270.2267	65535	64766.75
802.3649	272.4436	65535	64766.25
802.5076	274.6601	65535	64757.1
802.6504	276.8759	65535	64759.65
802.7931	279.0913	65535	64758.6
802.9359	281.3061	65535	64762.1
803.0787	283.5204	65535	64753.95
803.2215	285.7341	65535	64748.75
803.3643	287.9473	65535	64741.95
803.5071	290.16	65535	64751.85
803.6499	292.3721	65535	64756.3
803.7928	294.5837	65535	64751.3
803.9357	296.7947	65535	64753.75
804.0786	299.0052	65535	64751.6
804.2215	301.2152	65535	64750.25
804.3644	303.4246	65535	64748.8
804.5074	305.6334	65535	64750.35
804.6503	307.8418	65535	64742.25
804.7933	310.0495	65535	64744.1
804.9363	312.2568	65535	64746.7
805.0793	314.4635	65535	64742.1
805.2223	316.6696	65535	64742.85
805.3653	318.8752	65535	64731.4
805.5084	321.0802	65535	64741.7
805.6514	323.2847	65535	64738.45
805.7945	325.4887	65535	64736.2
805.9376	327.692	65535	64738.95
806.0807	329.8949	65535	64735.65
806.2238	332.0972	65535	64735.9
806.367	334.2989	65535	64729.65
806.5101	336.5001	65535	64736.95
806.6533	338.7007	65535	64733
806.7965	340.9008	65535	64729.15
806.9397	343.1003	65535	64728.9
807.0829	345.2992	65535	64727.85
807.2261	347.4976	65535	64725.9
807.3693	349.6955	65535	64722.75
807.5126	351.8927	65535	64724.05
807.6559	354.0895	65535	64709.25
807.7991	356.2856	65535	64722.5
807.9424	358.4812	65535	64721.25
808.0857	360.6763	65535	64720.25
808.2291	362.8707	65535	64721.65
808.3724	365.0646	65535	64713.45
808.5158	367.258	65535	64711.05
808.6591	369.4508	65535	64712.2
808.8025	371.643	65535	64709.85
808.9459	373.8346	65535	64709.05
809.0893	376.0257	65535	64702.35
809.2327	378.2162	65535	64704.9
809.3762	380.4062	65535	64705.05
809.5196	382.5956	65535	64704.7
809.6631	384.7844	65535	64706.7
809.8066	386.9726	65535	64709.25
809.9501	389.1603	65535	64712.9
810.0936	391.3474	65535	64674.55
810.2371	393.5339	65535	64710.7
810.3806	395.7199	65535	64714.35
810.5241	397.9052	65535	64713.4
810.6677	400.09	65535	64712.25
810.8113	402.2743	65535	64714.15
810.9548	404.4579	65535	64712.5
811.0984	406.641	65535	64707.65
811.2421	408.8235	65535	64708.3
811.3857	411.0054	65535	64705
811.5293	413.1868	65535	64702.85
811.673	415.3675	65535	64698.2
811.8166	417.5477	65535	64699.65
811.9603	419.7273	65535	64693.85
812.104	421.9064	65535	64688
812.2477	424.0848	65535	64693.75
812.3914	426.2627	65535	64693.05
812.5351	428.4399	65535	64693.45
812.6788	430.6166	65535	64690.85
812.8226	432.7928	65535	64689.7
812.9663	434.9683	65535	64687.75
813.1101	437.1432	65535	64685.5
813.2539	439.3176	65535	64690.8
813.3977	441.4914	65535	64686.85
813.5415	443.6645	65535	64685.25
813.6853	445.8371	65535	64687.5
813.8291	448.0091	65535	64689.35
813.973	450.1806	65535	64688.45
814.1168	452.3514	65535	64685
814.2607	454.5216	65535	64676.7
814.4046	456.6913	65535	64681.15
814.5485	458.8603	65535	64684
814.6924	461.0288	65535	64685.7
814.8363	463.1967	65535	64686.45
814.9802	465.3639	65535	64682.9
815.1241	467.5306	65535	64680.85
815.2681	469.6967	65535	64683.9
815.412	471.8622	65535	64682.55
815.556	474.0271	65535	64685.95
815.7	476.1914	65535	64681
815.844	478.3551	65535	64684.85
815.988	480.5182	65535	64684.9
816.132	482.6807	65535	64679.5
816.276	484.8426	65535	64682.75
816.4201	487.0039	65535	64682.15
816.5641	489.1647	65535	64680.55
816.7082	491.3248	65535	64682
816.8522	493.4843	65535	64680.75
816.9963	495.6432	65535	64682.95
817.1404	497.8015	65535	64674.9
817.2845	499.9592	65535	64677.2
817.4286	502.1163	65535	64675.9
817.5727	504.2728	65535	64674
817.7168	506.4287	65535	64679.05
817.861	508.5839	65535	64678.7
818.0051	510.7386	65535	64677.15
818.1493	512.8927	65535	64672.8
818.2935	515.0461	65535	64672.35
818.4377	517.199	65535	64674.4
818.5818	519.3512	65535	64671.4
818.726	521.5029	65535	64670.6
818.8703	523.6539	65535	64671.6
819.0145	525.8043	65535	64670.35
819.1587	527.9541	65535	64668.1
819.303	530.1033	65535	64668.25
819.4472	532.2519	65535	64667.75
819.5915	534.3999	65535	64664.9
819.7357	536.5472	65535	64672.4
819.88	538.694	65535	64670.55
820.0243	540.8401	65535	64669.1
820.1686	542.9856	65535	64663.05
820.3129	545.1305	65535	64661.3
820.4572	547.2748	65535	64661.8
820.6016	549.4185	65535	64662.4
820.7459	551.5615	65535	64659.4
820.8902	553.704	65535	64662.3
821.0346	555.8458	65535	64664.4
821.1789	557.987	65535	64664.3
821.3233	560.1276	65535	64660.6
821.4677	562.2675	65535	64665.9
821.6121	564.4069	65535	64662.05
821.7565	566.5456	65535	64665.75
821.9009	568.6837	65535	64663.75
822.0453	570.8212	65535	64664.65
822.1897	572.958	65535	64660.6
822.3342	575.0942	65535	64664.35
822.4786	577.2299	65535	64661.75
822.6231	579.3648	65535	64665.05
822.7675	581.4992	65535	64666.2
822.912	583.6329	65535	64666.85
823.0565	585.766	65535	64665.25
823.201	587.8985	65535	64664.4
823.3454	590.0304	65535	64643.4
823.4899	592.1616	65535	64658.85
823.6345	594.2922	65535	64659.1
823.779	596.4222	65535	64658.85
823.9235	598.5515	65535	64659.3
824.068	600.6802	65535	64660.85
824.2126	602.8083	65535	64656.9
824.3571	604.9358	65535	64658.85
824.5017	607.0626	65535	64659.15
824.6462	609.1888	65535	64653.55
824.7908	611.3144	65535	64655.1
824.9354	613.4393	65535	64658.75
825.08	615.5636	65535	64656.1
825.2246	617.6873	65535	64654.1
825.3692	619.8103	65535	64654.2
825.5138	621.9327	65535	64652.25
825.6584	624.0544	65535	64657.85
825.803	626.1756	65535	64656.1
825.9477	628.2961	65535	64654.8
826.0923	630.4159	65535	64654.5
826.237	632.5351	65535	64653.65
826.3816	634.6537	65535	64651.7
826.5263	636.7716	65535	64649.3
826.6709	638.8889	65535	64649.3
826.8156	641.0056	65535	64651
826.9603	643.1216	65535	64650.3
827.105	645.237	65535	64648.7
827.2497	647.3518	65535	64653.95
827.3944	649.4659	65535	64652.4
827.5391	651.5793	65535	64649.65
827.6838	653.6922	65535	64652.25
827.8285	655.8043	65535	64652.15
827.9733	657.9159	65535	64650.95
828.118	660.0268	65535	64650.3
828.2627	662.137	65535	64651.85
828.4075	664.2466	65535	64646.7
828.5522	666.3556	65535	64649.05
828.697	668.4639	65535	64646.9
828.8418	670.5716	65535	64652.1
828.9865	672.6786	65535	64647.4
829.1313	674.785	65535	64647.95
829.2761	676.8907	65535	64649.15
829.4209	678.9958	65535	64648.5
829.5657	681.1002	65535	64645.9
829.7105	683.204	65535	64640.75
829.8553	685.3072	65535	64644.75
830.0001	687.4097	65535	64647.25
830.1449	689.5115	65535	64647.25
830.2898	691.6127	65535	64648.55
830.4346	693.7132	65535	64645.7
830.5794	695.8131	65535	64637.85
830.7243	697.9123	65535	64643.15
830.8691	700.0109	65535	64641.5
831.014	702.1089	65535	64643.8
831.1588	704.2061	65535	64643.65
831.3037	706.3028	65535	64642.35
831.4486	708.3987	65535	64642.75
831.5935	710.4941	65535	64643.25
831.7383	712.5887	65535	64642.3
831.8832	714.6827	65535	64641.15
832.0281	716.7761	65535	64645.2
832.173	718.8688	65535	64640.9
832.3179	720.9608	65535	64640.9
832.4628	723.0522	65535	64637.25
832.6077	725.1429	65535	64639.7
832.7527	727.233	65535	64641.5
832.8976	729.3224	65535	64640.35
833.0425	731.4112	65535	64639.7
833.1874	733.4993	65535	64641.4
833.3324	735.5867	65535	64639.35
833.4773	737.6735	65535	64639.15
833.6222	739.7596	65535	64640.35
833.7672	741.845	65535	64642.3
833.9122	743.9298	65535	64639.1
834.0571	746.014	65535	64640.75
834.2021	748.0974	65535	64639.15
834.347	750.1802	65535	64638.35
834.492	752.2624	65535	64639.4
834.637	754.3439	65535	64636.1
834.782	756.4247	65535	64628.75
834.9269	758.5048	65535	64642.05
835.0719	760.5843	65535	64640.35
835.2169	762.6631	65535	64638.7
835.3619	764.7413	65535	64640.4
835.5069	766.8188	65535	64639.25
835.6519	768.8956	65535	64634.55
835.7969	770.9718	65535	64637.6
835.9419	773.0473	65535	64641
836.0869	775.1221	65535	64638.45
836.232	777.1962	65535	64637.7
836.377	779.2697	65535	64635.05
836.522	781.3426	65535	64619.1
836.667	783.4147	65535	64637.1
836.8121	785.4862	65535	64639.75
836.9571	787.557	65535	64636.7
837.1021	789.6271	65535	64636.2
837.2472	791.6966	65535	64637
837.3922	793.7654	65535	64634.85
837.5373	795.8335	65535	64636.35
837.6823	797.901	65535	64637.3
837.8274	799.9678	65535	64631.9
837.9724	802.0339	65535	64639.35
838.1175	804.0993	65535	64626
838.2626	806.1641	65535	64635.9
838.4076	808.2282	65535	64638.75
838.5527	810.2916	65535	64634.15
838.6978	812.3544	65535	64637.7
838.8428	814.4164	65535	64638.6
838.9879	816.4778	65535	64635.75
839.133	818.5385	65535	64638.9
839.2781	820.5986	65535	64635.4
839.4232	822.658	65535	64635.95
839.5682	824.7166	65535	64634.55
839.7133	826.7747	65535	64635.6
839.8584	828.832	65535	64634.25
840.0035	830.8886	65535	64631.05
840.1486	832.9446	65535	64633.4
840.2937	834.9999	65535	64636.75
840.4388	837.0545	65535	64630.3
840.5839	839.1085	65535	64634.25
840.729	841.1618	65535	64630.8
840.8741	843.2143	65535	64633.45
841.0192	845.2662	65535	64635.35
841.1643	847.3175	65535	64637.4
841.3095	849.368	65535	64634.65
841.4546	851.4179	65535	64633.2
841.5997	853.467	65535	64635.15
841.7448	855.5155	65535	64632.25
841.8899	857.5633	65535	64633.6
842.0351	859.6105	65535	64635.25
842.1802	861.6569	65535	64633.85
842.3253	863.7027	65535	64633
842.4704	865.7478	65535	64633.35
842.6156	867.7922	65535	64629.6
842.7607	869.8359	65535	64629
842.9058	871.8789	65535	64632.8
843.0509	873.9212	65535	64599.1
843.1961	875.9629	65535	64633.85
843.3412	878.0039	65535	64633.45
843.4863	880.0441	65535	64635.9
843.6315	882.0837	65535	64633.9
843.7766	884.1226	65535	64628.5
843.9218	886.1609	65535	64634.25
844.0669	888.1984	65535	64633.15
844.212	890.2352	65535	64635
844.3572	892.2714	65535	64627.6
844.5023	894.3069	65535	64630.2
844.6475	896.3416	65535	64633.05
844.7926	898.3757	65535	64633.5
844.9377	900.4091	65535	64634
845.0829	902.4418	65535	64626.5
845.228	904.4739	65535	64630.7
845.3732	906.5052	65535	64631.1
845.5183	908.5358	65535	64631.85
845.6635	910.5658	65535	64628.65
845.8086	912.595	65535	64632.15
845.9538	914.6236	65535	64632.85
846.0989	916.6515	65535	64633.85
846.2441	918.6786	65535	64631.45
846.3892	920.7051	65535	64626.9
846.5344	922.7309	65535	64632.25
846.6795	924.756	65535	64632.15
846.8246	926.7804	65535	64631.3
846.9698	928.8041	65535	64627.4
847.1149	930.8272	65535	64629.3
847.2601	932.8495	65535	64629.75
847.4052	934.8711	65535	64627.7
847.5504	936.892	65535	64628.45
847.6955	938.9123	65535	64629
847.8407	940.9318	65535	64630.15
847.9858	942.9506	65535	64627.45
848.131	944.9688	65535	64633.1
848.2761	946.9862	65535	64633.35
848.4213	949.003	65535	64628.85
848.5664	951.019	65535	64629
848.7115	953.0344	65535	64630.6
848.8567	955.0491	65535	64630.4
849.0018	957.063	65535	64628.55
849.147	959.0763	65535	64631.3
849.2921	961.0888	65535	64628.9
849.4373	963.1007	65535	64629.85
849.5824	965.1119	65535	64635.55
849.7275	967.1223	65535	64631.3
849.8727	969.1321	65535	64632
850.0178	971.1412	65535	64632.8
850.1629	973.1495	65535	64630.65
850.3081	975.1572	65535	64597.25
850.4532	977.1641	65535	64628.9
850.5983	979.1704	65535	64629
850.7435	981.1759	65535	64626.3
850.8886	983.1808	65535	64629.2
851.0337	985.1849	65535	64618.35
851.1788	987.1884	65535	64626.8
851.324	989.1911	65535	64629.05
851.4691	991.1932	65535	64625.05
851.6142	993.1945	65535	64629.7
851.7593	995.1951	65535	64629.3
851.9045	997.1951	65535	64625.4
852.0496	999.1943	65535	64632.6
852.1947	1001.1928	65535	64629.25
852.3398	1003.1906	65535	64632.25
852.4849	1005.1877	65535	64625.9
852.63	1007.1841	65535	64630.45
852.7751	1009.1798	65535	64631.45
852.9202	1011.1748	65535	64632.1
853.0653	1013.1691	65535	64629.4
853.2104	1015.1627	65535	64629.25
853.3555	1017.1556	65535	64630.9
853.5006	1019.1477	65535	64630.8
853.6457	1021.1392	65535	64634.15
853.7908	1023.1299	65535	64629.7
853.9359	1025.12	65535	64630.95
854.081	1027.1093	65535	64635.4
854.2261	1029.0979	65535	64636.35
854.3712	1031.0859	65535	64632.4
854.5163	1033.0731	65535	64632.75
854.6613	1035.0596	65535	64629.7
854.8064	1037.0454	65535	64632.75
854.9515	1039.0304	65535	64633.7
855.0965	1041.0148	65535	64629.9
855.2416	1042.9985	65535	64631
855.3867	1044.9814	65535	64631.55
855.5317	1046.9636	65535	64630.75
855.6768	1048.9452	65535	64632.55
855.8219	1050.926	65535	64632.3
855.9669	1052.9061	65535	64631.2
856.112	1054.8855	65535	64630.35
856.257	1056.8642	65535	64633.7
856.4021	1058.8421	65535	64626.55
856.5471	1060.8194	65535	64632.5
856.6921	1062.7959	65535	64631.4
856.8372	1064.7717	65535	64630.15
856.9822	1066.7469	65535	64629.7
857.1272	1068.7213	65535	64628.85
857.2723	1070.695	65535	64630.3
857.4173	1072.6679	65535	64631.2
857.5623	1074.6402	65535	64629.9
857.7073	1076.6117	65535	64625.7
857.8523	1078.5826	65535	64631.5
857.9973	1080.5527	65535	64627.45
858.1423	1082.5221	65535	64630.3
858.2873	1084.4908	65535	64630.85
858.4323	1086.4587	65535	64628.35
858.5773	1088.426	65535	64630.75
858.7223	1090.3925	65535	64624.85
858.8673	1092.3584	65535	64631.2
859.0123	1094.3235	65535	64632.85
859.1573	1096.2879	65535	64629.35
859.3022	1098.2515	65535	64630.2
859.4472	1100.2145	65535	64632.7
859.5922	1102.1767	65535	64630.15
859.7371	1104.1382	65535	64629.4
859.8821	1106.099	65535	64626.95
860.027	1108.0591	65535	64631.8
860.172	1110.0185	65535	64628.95
860.3169	1111.9771	65535	64631.45
860.4619	1113.9351	65535	64630.6
860.6068	1115.8923	65535	64630.65
860.7517	1117.8488	65535	64631.4
860.8967	1119.8045	65535	64630.7
861.0416	1121.7596	65535	64631.25
861.1865	1123.7139	65535	64631.1
861.3314	1125.6675	65535	64632.15
861.4763	1127.6204	65535	64630.55
861.6212	1129.5726	65535	64626.2
861.7661	1131.524	65535	64632.65
861.911	1133.4748	65535	64629.5
862.0559	1135.4248	65535	64629.8
862.2008	1137.3741	65535	64632.75
862.3457	1139.3226	65535	64631.8
862.4905	1141.2705	65535	64630
862.6354	1143.2176	65535	64623.95
862.7803	1145.164	65535	64626
862.9251	1147.1097	65535	64631.1
863.07	1149.0546	65535	64627.35
863.2148	1150.9989	65535	64629
863.3597	1152.9424	65535	64631.05
863.5045	1154.8852	65535	64627.45
863.6493	1156.8272	65535	64631.4
863.7942	1158.7686	65535	64623.65
863.939	1160.7092	65535	64628.5
864.0838	1162.6491	65535	64631.9
864.2286	1164.5883	65535	64632.35
864.3734	1166.5267	65535	64629
864.5182	1168.4644	65535	64632.6
864.663	1170.4014	65535	64625.55
864.8078	1172.3377	65535	64631.25
864.9526	1174.2732	65535	64630.75
865.0974	1176.2081	65535	64632.15
865.2421	1178.1421	65535	64627.1
865.3869	1180.0755	65535	64631.75
865.5317	1182.0082	65535	64632.35
865.6764	1183.9401	65535	64631.2
865.8212	1185.8713	65535	64632.2
865.9659	1187.8017	65535	64631.5
866.1106	1189.7315	65535	64633.7
866.2554	1191.6605	65535	64605.1
866.4001	1193.5888	65535	64635.75
866.5448	1195.5163	65535	64633.5
866.6895	1197.4432	65535	64630.2
866.8342	1199.3693	65535	64633.6
866.9789	1201.2947	65535	64629.45
867.1236	1203.2193	65535	64630.2
867.2683	1205.1432	65535	64631.5
867.413	1207.0664	65535	64632.55
867.5576	1208.9889	65535	64628.55
867.7023	1210.9106	65535	64634
867.847	1212.8316	65535	64631.95
867.9916	1214.7519	65535	64624.05
868.1363	1216.6715	65535	64633.3
868.2809	1218.5903	65535	64632.15
868.4255	1220.5084	65535	64634.8
868.5701	1222.4257	65535	64631.9
868.7148	1224.3424	65535	64632.2
868.8594	1226.2583	65535	64627.2
869.004	1228.1735	65535	64629.45
869.1486	1230.0879	65535	64631.7
869.2932	1232.0016	65535	64632.5
869.4377	1233.9146	65535	64629.45
869.5823	1235.8269	65535	64632.7
869.7269	1237.7384	65535	64632.8
869.8715	1239.6492	65535	64632.55
870.016	1241.5592	65535	64629.55
870.1606	1243.4686	65535	64633.75
870.3051	1245.3772	65535	64632.65
870.4496	1247.285	65535	64631.25
870.5941	1249.1922	65535	64632.55
870.7387	1251.0986	65535	64633.25
870.8832	1253.0042	65535	64631.9
871.0277	1254.9092	65535	64630.5
871.1722	1256.8134	65535	64633.9
871.3167	1258.7169	65535	64631.85
871.4611	1260.6196	65535	64632.25
871.6056	1262.5216	65535	64631.3
871.7501	1264.4229	65535	64633.3
871.8945	1266.3234	65535	64631.7
872.039	1268.2232	65535	64629.7
872.1834	1270.1223	65535	64631.55
872.3278	1272.0207	65535	64630.85
872.4723	1273.9183	65535	64627.95
872.6167	1275.8151	65535	64634.4
872.7611	1277.7113	65535	64631.1
872.9055	1279.6067	65535	64633.55
873.0499	1281.5014	65535	64628.6
873.1943	1283.3953	65535	64629.95
873.3386	1285.2885	65535	64631.85
873.483	1287.181	65535	64631.35
873.6274	1289.0727	65535	64633.2
873.7717	1290.9637	65535	64632.1
873.9161	1292.854	65535	64633.25
874.0604	1294.7435	65535	64632.25
874.2047	1296.6323	65535	64632.95
874.349	1298.5204	65535	64629.35
874.4933	1300.4077	65535	64630.3
874.6376	1302.2943	65535	64634.95
874.7819	1304.1802	65535	64635.05
874.9262	1306.0653	65535	64631.4
875.0705	1307.9497	65535	64634.3
875.2147	1309.8333	65535	64634
875.359	1311.7162	65535	64633.3
875.5032	1313.5984	65535	64629.65
875.6475	1315.4798	65535	64631.45
875.7917	1317.3605	65535	64616.8
875.9359	1319.2405	65535	64628.75
876.0801	1321.1197	65535	64629.25
876.2243	1322.9982	65535	64628.05
876.3685	1324.876	65535	64630.75
876.5127	1326.753	65535	64631.45
876.6569	1328.6293	65535	64627.9
876.801	1330.5048	65535	64629.85
876.9452	1332.3796	65535	64631.9
877.0893	1334.2537	65535	64605.8
877.2335	1336.127	65535	64633.4
877.3776	1337.9996	65535	64632.25
877.5217	1339.8714	65535	64630.4
877.6658	1341.7426	65535	64587.2
877.8099	1343.6129	65535	64631.3
877.954	1345.4826	65535	64633.35
878.0981	1347.3515	65535	64631
878.2422	1349.2196	65535	64629.8
878.3862	1351.087	65535	64634.6
878.5303	1352.9537	65535	64630.35
878.6743	1354.8197	65535	64631.95
878.8184	1356.6849	65535	64631.85
878.9624	1358.5493	65535	64632.65
879.1064	1360.4131	65535	64632.65
879.2504	1362.276	65535	64634
879.3944	1364.1383	65535	64632.3
879.5384	1365.9998	65535	64626.55
879.6823	1367.8606	65535	64632.95
879.8263	1369.7206	65535	64631.05
879.9702	1371.5799	65535	64630
880.1142	1373.4384	65535	64633.45
880.2581	1375.2962	65535	64629.75
880.402	1377.1533	65535	64632.3
880.5459	1379.0096	65535	64633.05
880.6898	1380.8652	65535	64632.9
880.8337	1382.7201	65535	64634.8
880.9776	1384.5742	65535	64633.55
881.1215	1386.4275	65535	64632.3
881.2653	1388.2802	65535	64635.1
881.4092	1390.132	65535	64634.9
881.553	1391.9832	65535	64632.15
881.6968	1393.8336	65535	64628.45
881.8406	1395.6832	65535	64630.2
881.9844	1397.5322	65535	64631.9
882.1282	1399.3803	65535	64628.45
882.272	1401.2278	65535	64632.4
882.4158	1403.0745	65535	64634
882.5595	1404.9204	65535	64634.6
882.7033	1406.7656	65535	64633.65
882.847	1408.6101	65535	64631.6
882.9908	1410.4538	65535	64633.8
883.1345	1412.2968	65535	64634.35
883.2782	1414.139	65535	64633.45
883.4219	1415.9805	65535	64633.1
883.5656	1417.8213	65535	64627.65
883.7092	1419.6613	65535	64635.25
883.8529	1421.5006	65535	64632.55
883.9965	1423.3391	65535	64631.85
884.1402	1425.1769	65535	64632.9
884.2838	1427.0139	65535	64631.2
884.4274	1428.8502	65535	64631.85
884.571	1430.6858	65535	64632.3
884.7146	1432.5206	65535	64632.95
884.8582	1434.3547	65535	64632.5
885.0018	1436.188	65535	64633.9
885.1453	1438.0206	65535	64632.75
885.2889	1439.8524	65535	64633.9
885.4324	1441.6835	65535	64635.3
885.5759	1443.5139	65535	64631.3
885.7194	1445.3435	65535	64632.35
885.8629	1447.1724	65535	64635.2
886.0064	1449.0005	65535	64636.8
886.1499	1450.8279	65535	64633.4
886.2933	1452.6545	65535	64635.5
886.4368	1454.4804	65535	64634.35
886.5802	1456.3056	65535	64627.2
886.7237	1458.13	65535	64634.5
886.8671	1459.9536	65535	64631.5
887.0105	1461.7766	65535	64632.35
887.1539	1463.5987	65535	64631.9
887.2972	1465.4202	65535	64633.75
887.4406	1467.2409	65535	64632.55
887.584	1469.0608	65535	64633.8
887.7273	1470.88	65535	64633.9
887.8706	1472.6984	65535	64633.75
888.0139	1474.5161	65535	64631.4
888.1572	1476.3331	65535	64634.65
888.3005	1478.1493	65535	64633.35
888.4438	1479.9648	65535	64634.85
888.5871	1481.7795	65535	64633.95
888.7303	1483.5935	65535	64634.75
888.8736	1485.4067	65535	64637.35
889.0168	1487.2192	65535	64633.4
889.16	1489.031	65535	64632.35
889.3032	1490.842	65535	64636.05
889.4464	1492.6522	65535	64634.3
889.5896	1494.4618	65535	64633.2
889.7327	1496.2705	65535	64635.65
889.8759	1498.0785	65535	64635
890.019	1499.8858	65535	64635.05
890.1622	1501.6924	65535	64635.95
890.3053	1503.4981	65535	64632.4
890.4484	1505.3032	65535	64632.9
890.5914	1507.1075	65535	64633.9
890.7345	1508.911	65535	64634.35
890.8776	1510.7138	65535	64633.3
891.0206	1512.5159	65535	64634.1
891.1637	1514.3172	65535	64633.65
891.3067	1516.1178	65535	64636.1
891.4497	1517.9176	65535	64632.7
891.5927	1519.7166	65535	64633.9
891.7357	1521.515	65535	64628.95
891.8786	1523.3126	65535	64630.75
892.0216	1525.1094	65535	64632.15
892.1645	1526.9055	65535	64636.5
892.3074	1528.7008	65535	64634.85
892.4503	1530.4954	65535	64632.2
892.5932	1532.2893	65535	64634.9
892.7361	1534.0824	65535	64632.3
892.879	1535.8747	65535	64636.95
893.0218	1537.6663	65535	64635.75
893.1647	1539.4572	65535	64633.85
893.3075	1541.2473	65535	64633.75
893.4503	1543.0367	65535	64637.7
893.5931	1544.8253	65535	64633.9
893.7359	1546.6132	65535	64635.75
893.8787	1548.4003	65535	64628.6
894.0214	1550.1867	65535	64626.95
894.1642	1551.9723	65535	64631.25
894.3069	1553.7572	65535	64633.9
894.4496	1555.5414	65535	64635.3
894.5923	1557.3247	65535	64636.9
894.735	1559.1074	65535	64638.15
894.8777	1560.8893	65535	64637.2
895.0204	1562.6705	65535	64637.25
895.163	1564.4509	65535	64637.35
895.3056	1566.2305	65535	64638.45
895.4482	1568.0094	65535	64638.1
895.5908	1569.7876	65535	64635.6
895.7334	1571.565	65535	64635.1
895.876	1573.3417	65535	64638.25
896.0186	1575.1176	65535	64638.2
896.1611	1576.8928	65535	64637.75
896.3036	1578.6672	65535	64638.3
896.4461	1580.4409	65535	64640.9
896.5886	1582.2138	65535	64636.75
896.7311	1583.986	65535	64640.3
896.8736	1585.7575	65535	64637.45
897.0161	1587.5282	65535	64637.6
897.1585	1589.2981	65535	64638.85
897.3009	1591.0673	65535	64639.7
897.4433	1592.8358	65535	64639.6
897.5857	1594.6035	65535	64636.35
897.7281	1596.3704	65535	64636.85
897.8705	1598.1366	65535	64638
898.0128	1599.9021	65535	64638.9
898.1551	1601.6668	65535	64636.5
898.2975	1603.4308	65535	64635.05
898.4398	1605.194	65535	64634.6
898.5821	1606.9564	65535	64638.3
898.7243	1608.7182	65535	64635.55
898.8666	1610.4791	65535	64641.4
899.0088	1612.2394	65535	64642.15
899.1511	1613.9988	65535	64639.45
899.2933	1615.7576	65535	64641.05
899.4355	1617.5156	65535	64636.15
899.5776	1619.2728	65535	64638.3
899.7198	1621.0293	65535	64640.1
899.862	1622.785	65535	64634.35
900.0041	1624.54	65535	64634.45
900.1462	1626.2942	65535	64637.95
900.2883	1628.0477	65535	64638
900.4304	1629.8005	65535	64637.5
900.5725	1631.5525	65535	64638.6
900.7145	1633.3037	65535	64639.2
900.8566	1635.0542	65535	64641
900.9986	1636.804	65535	64639.8
901.1406	1638.553	65535	64550.6
901.2826	1640.3013	65535	64639.7
901.4245	1642.0488	65535	64639.7
901.5665	1643.7955	65535	64642.05
901.7085	1645.5416	65535	64639.95
901.8504	1647.2868	65535	64642.9
901.9923	1649.0313	65535	64640.75
902.1342	1650.7751	65535	64636.15
902.2761	1652.5181	65535	64639.95
902.4179	1654.2604	65535	64639.6
902.5598	1656.0019	65535	64641.45
902.7016	1657.7427	65535	64642.2
902.8434	1659.4828	65535	64640.5
902.9852	1661.222	65535	64639.15
903.127	1662.9606	65535	64641.55
903.2687	1664.6984	65535	64638.55
903.4105	1666.4354	65535	64638.9
903.5522	1668.1717	65535	64638.2
903.6939	1669.9072	65517.75	64622.6
903.8356	1671.642	65523.2	64624.5
903.9773	1673.3761	65516.55	64622.2
904.119	1675.1094	65513.8	64622.15
904.2606	1676.8419	65431.5	64537.85
904.4022	1678.5737	65498.25	64603.6
904.5439	1680.3048	65460	64566
904.6855	1682.0351	65412.95	64518.7
904.827	1683.7646	65370.1	64472.5
904.9686	1685.4934	65433.9	64539.1
905.1101	1687.2215	65195.85	64301.4
905.2517	1688.9488	65386.3	64492.55
905.3932	1690.6754	65008.4	64115.85
905.5347	1692.4012	65237.15	64342.25
905.6761	1694.1263	65307.05	64412.85
905.8176	1695.8506	65085.65	64190.05
905.9591	1697.5742	65112.45	64219.65
906.1005	1699.297	65050.2	64155.9
906.2419	1701.0191	65116.35	64223.7
906.3833	1702.7404	64867.2	63974.7
906.5246	1704.461	64787.1	63892.5
906.666	1706.1808	64983.1	64089.4
906.8073	1707.8999	64880.4	63986.6
906.9487	1709.6182	64820.95	63928.1
907.09	1711.3358	64795.8	63903.7
907.2313	1713.0527	64735.2	63844.9
907.3725	1714.7688	64761.5	63867.5
907.5138	1716.4841	64419.5	63525.9
907.655	1718.1987	64538.4	63641.05
907.7962	1719.9126	64481.8	63588.4
907.9374	1721.6257	64590.9	63696.45
908.0786	1723.338	64572.1	63678.85
908.2198	1725.0496	64190.3	63294.65
908.3609	1726.7605	64233.1	63339
908.502	1728.4706	64138	63242.7
908.6431	1730.18	64309.7	63413.15
908.7842	1731.8886	64117	63223.85
908.9253	1733.5964	63979.5	63081.6
909.0664	1735.3036	64177.7	63281.35
909.2074	1737.0099	64051.5	63158.1
909.3484	1738.7156	63873.95	62981.95
909.4894	1740.4204	63798.85	62903.8
909.6304	1742.1246	63855.65	62961.5
909.7714	1743.8279	63916.55	63025
909.9123	1745.5306	63893.3	62998.55
910.0532	1747.2325	63425.9	62534.2
910.1941	1748.9336	63419.5	62529.25
910.335	1750.634	63565.85	62670.85
910.4759	1752.3336	63705.1	62813.1
910.6168	1754.0325	63356	62466.2
910.7576	1755.7307	63629.15	62738.8
910.8984	1757.4281	63226.1	62334.35
911.0392	1759.1247	63534.65	62634.35
911.18	1760.8206	63087.95	62191.75
911.3208	1762.5158	63176.3	62279.05
911.4615	1764.2102	63255.3	62363.8
911.6022	1765.9039	63147.1	62254.6
911.7429	1767.5968	63030.1	62139.25
911.8836	1769.289	62957.95	62065.25
912.0243	1770.9804	63024.05	62130.05
912.1649	1772.6711	62942.4	62047.9
912.3056	1774.361	62834.8	61941.25
912.4462	1776.0502	62837.1	61942
912.5868	1777.7386	62356.15	61461.15
912.7274	1779.4263	62660.45	61767.3
912.8679	1781.1132	62673.35	61782.8
913.0084	1782.7994	62580.65	61687.25
913.149	1784.4849	62577.7	61687.55
913.2895	1786.1696	61854.95	60957.7
913.4299	1787.8535	62315.6	61422.85
913.5704	1789.5367	62381.5	61491
913.7108	1791.2192	61896.85	61005.3
913.8513	1792.9009	61535.5	60612.85
913.9917	1794.5818	62019.6	61125.75
914.132	1796.2621	61519.55	60627.35
914.2724	1797.9415	61586.1	60693.8
914.4128	1799.6202	61556.9	60665.3
914.5531	1801.2982	61516.65	60625.1
914.6934	1802.9755	60926.9	60034.05
914.8337	1804.6519	60770.05	59878.75
914.9739	1806.3277	61610.75	60719.95
915.1142	1808.0027	60255.2	59362.85
915.2544	1809.6769	60761.1	59866.75
915.3946	1811.3504	60834.9	59941.55
915.5348	1813.0231	59798.2	58905.2
915.675	1814.6951	60487.65	59596.1
915.8151	1816.3664	60100.8	59208.5
915.9553	1818.0369	60067.05	59174.9
916.0954	1819.7067	59756.45	58866.8
916.2355	1821.3757	60395	59500.3
916.3755	1823.044	59475.15	58583.25
916.5156	1824.7115	59010.05	58117.4
916.6556	1826.3783	59291.3	58400.65
916.7956	1828.0443	59353.15	58462.4
916.9356	1829.7096	59045.9	58154.15
917.0756	1831.3741	58330.8	57435.5
917.2155	1833.0379	58717.85	57827.5
917.3555	1834.701	58728.25	57837.05
917.4954	1836.3633	58187.95	57296.15
917.6353	1838.0248	58526.5	57632.85
917.7751	1839.6856	58301.5	57409.75
917.915	1841.3457	57783.15	56890.3
918.0548	1843.005	58377.5	57484.65
918.1946	1844.6636	57908.7	57018.2
918.3344	1846.3214	57181.45	56289.25
918.4742	1847.9785	57384.1	56492.5
918.6139	1849.6349	57351.6	56457.6
918.7537	1851.2904	57846.3	56945.6
918.8934	1852.9453	56978.95	56084.7
919.0331	1854.5994	57259.95	56366
919.1727	1856.2528	57206.4	56308.9
919.3124	1857.9054	56695.9	55804.05
919.452	1859.5572	56410.35	55519.4
919.5916	1861.2083	56650.65	55759.1
919.7312	1862.8587	57236.75	56344.85
919.8708	1864.5084	55828.15	54936.2
920.0103	1866.1572	56347.9	55454.9
920.1498	1867.8054	55654.65	54761.35
920.2893	1869.4528	56084.5	55193.25
920.4288	1871.0994	55526.95	54636.1
920.5683	1872.7453	55530.15	54635.8
920.7077	1874.3905	55675.55	54776
920.8471	1876.0349	55133.85	54241.2
920.9865	1877.6786	55550.4	54657.05
921.1259	1879.3215	55041.55	54151.95
921.2653	1880.9637	55482.1	54590.15
921.4046	1882.6051	54946.45	54056.2
921.5439	1884.2458	54695.8	53802.95
921.6832	1885.8858	54340.2	53449.55
921.8225	1887.525	54580.75	53688.95
921.9617	1889.1634	54438	53546.05
922.101	1890.8011	54182.85	53289.85
922.2402	1892.4381	53560.1	52667.75
922.3794	1894.0743	54134.85	53244.6
922.5185	1895.7098	53792.85	52900.5
922.6577	1897.3446	53396.35	52502.65
922.7968	1898.9786	53502.35	52607.7
922.9359	1900.6118	53222.85	52331.35
923.075	1902.2443	52866.3	51972.6
923.214	1903.8761	53165.35	52275.3
923.3531	1905.5071	52813.65	51920.55
923.4921	1907.1374	52141.45	51247.8
923.6311	1908.7669	52418.75	51525.8
923.77	1910.3957	52615.5	51724.9
923.909	1912.0237	51968.3	51075.95
924.0479	1913.651	51802.4	50910
924.1868	1915.2776	51596.95	50705.45
924.3257	1916.9034	51553.4	50663.85
924.4646	1918.5285	51281.75	50390.15
924.6034	1920.1528	51245.05	50353.4
924.7422	1921.7764	51092.25	50199.65
924.881	1923.3992	50916.25	50025.8
925.0198	1925.0213	50586.3	49695
925.1586	1926.6427	50218.9	49326.75
925.2973	1928.2633	50359.45	49387.4
925.436	1929.8832	50123.25	49229.3
925.5747	1931.5023	49943.2	49052.1
925.7134	1933.1207	49637.3	48746.2
925.852	1934.7383	49749.65	48859
925.9906	1936.3552	49407.6	48516.8
926.1292	1937.9714	49335	48442.95
926.2678	1939.5868	49259.9	48365.55
926.4064	1941.2015	48844.9	47954.55
926.5449	1942.8154	48534.15	47642.3
926.6834	1944.4286	48459.55	47566.65
926.8219	1946.041	48437.6	47528.25
926.9604	1947.6528	48095.85	47198.3
927.0988	1949.2637	47970	47078.9
927.2372	1950.8739	47776.4	46885.2
927.3756	1952.4834	47743.15	46852.55
927.514	1954.0921	47645.35	46754.3
927.6523	1955.7001	47372.1	46479.15
927.7907	1957.3074	47340.7	46449.95
927.929	1958.9139	47032.05	46143.2
928.0673	1960.5197	47012.5	46121.55
928.2055	1962.1247	46732.6	45843.6
928.3438	1963.729	46518.5	45629.1
928.482	1965.3325	46341.9	45429.55
928.6202	1966.9353	46319	45427.1
928.7584	1968.5374	46052.85	45163.4
928.8965	1970.1387	45966.65	45075.7
929.0346	1971.7393	45790.25	44899.55
929.1727	1973.3392	45672.9	44783.1
929.3108	1974.9383	45444.15	44554.1
929.4489	1976.5366	45243.8	44352.4
929.5869	1978.1342	45219.2	44328.95
929.7249	1979.7311	45107.85	44215.75
929.8629	1981.3273	44940.2	44047.9
930.0009	1982.9227	44757.15	43865.45
930.1388	1984.5173	44626.05	43736.6
930.2767	1986.1112	44421	43530.9
930.4146	1987.7044	44333.5	43444.55
930.5525	1989.2968	44075.2	43184.8
930.6904	1990.8885	44088.1	43193.4
930.8282	1992.4795	43932.3	43039.35
930.966	1994.0697	43824.5	42932.65
931.1038	1995.6592	43655.2	42764
931.2415	1997.2479	43433.85	42542
931.3793	1998.8359	43274.15	42384.3
931.517	2000.4232	43131.75	42242.8
931.6547	2002.0097	42994.25	42108.55
931.7923	2003.5955	42785.55	41897.95
931.93	2005.1805	42746.5	41853.55
932.0676	2006.7648	42676.1	41785.15
932.2052	2008.3484	42522.1	41628.2
932.3427	2009.9312	42518.6	41626.65
932.4803	2011.5133	42327.45	41439.5
932.6178	2013.0946	42177.6	41287.05
932.7553	2014.6752	42067.8	41178.8
932.8928	2016.2551	41983.7	41094.55
933.0302	2017.8342	41754.65	40867.75
933.1676	2019.4126	41615.5	40727.35
933.305	2020.9902	41415.05	40525.85
933.4424	2022.5672	41409.15	40519.75
933.5798	2024.1433	41301.25	40404.9
933.7171	2025.7188	41110.25	40220
933.8544	2027.2935	41008.85	40118.15
933.9917	2028.8674	40826.5	39939.8
934.129	2030.4406	40775.35	39887.95
934.2662	2032.0131	40523.7	39636.25
934.4034	2033.5849	40401.55	39507.3
934.5406	2035.1559	40338.25	39447.7
934.6778	2036.7261	40224.3	39334.7
934.8149	2038.2957	40130.1	39242.3
934.952	2039.8645	40007.1	39117.25
935.0891	2041.4325	40071.7	39177.65
935.2262	2042.9998	39799.15	38908.7
935.3632	2044.5664	39719.75	38829.05
935.5002	2046.1323	39604.1	38715.6
935.6372	2047.6974	39452.65	38562.8
935.7742	2049.2617	39361.45	38471.85
935.9111	2050.8254	39346	38451.25
936.048	2052.3883	39296.95	38406.9
936.1849	2053.9504	39163.7	38274.9
936.3218	2055.5118	38988.35	38096.15
936.4586	2057.0725	38749.7	37855.45
936.5955	2058.6325	38669.85	37779.1
936.7323	2060.1917	38552.1	37662.05
936.869	2061.7502	38500.35	37609.15
937.0058	2063.3079	38308.15	37420.15
937.1425	2064.8649	38178.85	37286.55
937.2792	2066.4212	38111.9	37221.6
937.4159	2067.9767	38038.15	37149.45
937.5525	2069.5315	37858.15	36967.35
937.6891	2071.0856	37625.9	36737.35
937.8257	2072.6389	37522.25	36632.25
937.9623	2074.1915	37329.5	36441.35
938.0989	2075.7433	37140.65	36249.15
938.2354	2077.2945	37066.2	36177.3
938.3719	2078.8448	36970.95	36081.6
938.5084	2080.3945	36848.6	35959.2
938.6448	2081.9434	36775.05	35888.65
938.7812	2083.4916	36689.85	35799.05
938.9176	2085.039	36515.15	35622.7
939.054	2086.5857	36468.4	35576.7
939.1903	2088.1317	36372.85	35481.65
939.3267	2089.677	36247.25	35357.8
939.463	2091.2215	36159.9	35270.8
939.5992	2092.7652	36005.15	35116.95
939.7355	2094.3083	35975.55	35083.35
939.8717	2095.8506	35898.7	35008.7
940.0079	2097.3921	35875.05	34984.6
940.1441	2098.933	35676.45	34786.3
940.2802	2100.4731	35538	34647.1
940.4163	2102.0124	35578	34682.45
940.5524	2103.5511	35471	34579.85
940.6885	2105.089	35428.45	34539.25
940.8245	2106.6261	35255.7	34365.1
940.9606	2108.1626	35134.25	34244.05
941.0965	2109.6983	35129.65	34211.6
941.2325	2111.2332	34981.8	34091.55
941.3684	2112.7675	34846.65	33956.8
941.5044	2114.301	34736.15	33844.6
941.6403	2115.8337	34711.85	33822.6
941.7761	2117.3657	34627.4	33736.8
941.912	2118.897	34527.45	33635.55
942.0478	2120.4276	34423.45	33527.05
942.1835	2121.9575	34247.75	33357.1
942.3193	2123.4866	34224.7	33320.55
942.455	2125.0149	34124.7	33230.35
942.5907	2126.5426	33933.95	33044.4
942.7264	2128.0695	33849	32955.45
942.8621	2129.5956	33733.7	32845.15
942.9977	2131.1211	33724.75	32832
943.1333	2132.6458	33584	32694.85
943.2689	2134.1698	33530.45	32640.65
943.4044	2135.693	33445.95	32553
943.54	2137.2155	33365.1	32470.4
943.6755	2138.7373	33271.3	32381
943.8109	2140.2584	33164.2	32272.9
943.9464	2141.7787	32995.45	32101.9
944.0818	2143.2983	32874.75	31986.9
944.2172	2144.8171	32695.1	31807.6
944.3526	2146.3353	32603.05	31712.35
944.4879	2147.8527	32457.45	31569.25
944.6232	2149.3693	32464	31573.8
944.7585	2150.8853	32315.4	31424.45
944.8938	2152.4005	32173.95	31286.05
945.029	2153.9149	32099.65	31208.4
945.1642	2155.4287	32019.9	31132.55
945.2994	2156.9417	31976.85	31086.45
945.4346	2158.454	31888.9	30996.2
945.5697	2159.9655	31779.15	30889.75
945.7048	2161.4764	31740	30852.2
945.8399	2162.9865	31599.25	30710.6
945.9749	2164.4958	31564.65	30674.95
946.1099	2166.0045	31396.6	30504.75
946.2449	2167.5124	31384.4	30494.5
946.3799	2169.0195	31306.6	30416.3
946.5148	2170.526	31253.95	30364.25
946.6498	2172.0317	31121.3	30232.55
946.7846	2173.5367	31005.2	30115.9
946.9195	2175.0409	30916.3	30025.9
947.0543	2176.5445	30901.3	30011.55
947.1891	2178.0473	30791.8	29900.9
947.3239	2179.5494	30647.75	29753.8
947.4587	2181.0507	30499.75	29609.45
947.5934	2182.5513	30428.6	29538.7
947.7281	2184.0512	30325.9	29435.9
947.8628	2185.5504	30232.7	29343.25
947.9974	2187.0488	30058.25	29168.05
948.132	2188.5465	29958.45	29068.75
948.2666	2190.0435	29861.95	28970.8
948.4012	2191.5397	29748.35	28861.2
948.5357	2193.0353	29701.55	28812.95
948.6702	2194.5301	29540.2	28650.4
948.8047	2196.0241	29453.5	28562.8
948.9392	2197.5175	29363.65	28476.6
949.0736	2199.0101	29264.25	28369.5
949.208	2200.502	29093.65	28204.7
949.3424	2201.9931	28985.65	28096.7
949.4767	2203.4835	28919.95	28029.75
949.611	2204.9733	28854.4	27958
949.7453	2206.4622	28827.35	27938.45
949.8796	2207.9505	28678.75	27788.5
950.0138	2209.438	28525.65	27637.85
950.148	2210.9248	28388.35	27498.7
950.2822	2212.4109	28311.5	27422.8
950.4164	2213.8962	28192.15	27299.2
950.5505	2215.3809	28135.9	27243.65
950.6846	2216.8648	28102.6	27211.2
950.8186	2218.3479	28014.05	27119.3
950.9527	2219.8304	27869.5	26975.9
951.0867	2221.3121	27743.55	26849.25
951.2207	2222.7931	27689.25	26800.1
951.3546	2224.2733	27541.45	26651.35
951.4886	2225.7529	27427.5	26537.35
951.6225	2227.2317	27352	26459.8
951.7563	2228.7098	27334.5	26444.7
951.8902	2230.1872	27196.1	26306.35
952.024	2231.6638	27143.85	26254.65
952.1578	2233.1397	27064.25	26170.65
952.2916	2234.6149	26978.9	26088.9
952.4253	2236.0894	26889.7	26000.45
952.559	2237.5632	26821.7	25929.7
952.6927	2239.0362	26681.9	25793.35
952.8263	2240.5085	26633.45	25741
952.9599	2241.9801	26459.2	25569.05
953.0935	2243.4509	26366.95	25477.25
953.2271	2244.921	26285.5	25394.85
953.3606	2246.3904	26186.55	25295.85
953.4941	2247.8591	26123.4	25235.6
953.6276	2249.3271	26039.35	25150.25
953.7611	2250.7943	25979.65	25089.2
953.8945	2252.2608	25861.95	24971.05
954.0279	2253.7266	25797.35	24907.9
954.1612	2255.1917	25713.45	24823.75
954.2946	2256.656	25606.15	24716.65
954.4279	2258.1197	25578.7	24689.5
954.5612	2259.5826	25475	24584.7
954.6944	2261.0447	25419.6	24530.15
954.8276	2262.5062	25281.8	24389.45
954.9608	2263.9669	25273.2	24380.95
955.094	2265.4269	25189.95	24302.7
955.2271	2266.8862	25073.8	24184
955.3602	2268.3448	25075.35	24185.3
955.4933	2269.8026	24988.95	24099.1
955.6264	2271.2598	24922.6	24032.8
955.7594	2272.7162	24824.4	23937.15
955.8924	2274.1719	24745.75	23857
956.0253	2275.6268	24657.4	23766.75
956.1583	2277.0811	24623.7	23732.65
956.2912	2278.5346	24547.65	23659.3
956.4241	2279.9874	24417.5	23527.15
956.5569	2281.4395	24430.55	23543
956.6897	2282.8908	24325.85	23432.95
956.8225	2284.3414	24296.05	23405.1
956.9553	2285.7914	24165.2	23277.25
957.088	2287.2406	24081.15	23189.85
957.2207	2288.689	24039	23149.85
957.3534	2290.1368	23956.15	23066.1
957.486	2291.5838	23835.2	22941.55
957.6186	2293.0302	23798.55	22905.25
957.7512	2294.4758	23631.95	22740.9
957.8838	2295.9206	23593.15	22702.3
958.0163	2297.3648	23493.15	22604.7
958.1488	2298.8082	23459.45	22569.55
958.2813	2300.251	23402.05	22511.85
958.4137	2301.693	23312.25	22421.05
958.5461	2303.1343	23335.65	22443.7
958.6785	2304.5748	23260.2	22369.4
958.8108	2306.0147	23165.55	22275.2
958.9432	2307.4538	23082	22190.95
959.0754	2308.8922	22964.65	22076.35
959.2077	2310.3299	22924	22035
959.3399	2311.7669	22809.65	21921.7
959.4721	2313.2031	22735.4	21846.1
959.6043	2314.6387	22648.4	21757.8
959.7365	2316.0735	22563.6	21673.35
959.8686	2317.5076	22535.95	21645.95
960.0006	2318.941	22473.75	21583.8
960.1327	2320.3737	22427.15	21536.2
960.2647	2321.8056	22347.9	21455
960.3967	2323.2369	22294.45	21402.95
960.5287	2324.6674	22171.35	21278.95
960.6606	2326.0972	22093.5	21204.05
960.7925	2327.5263	22039.3	21150.15
960.9244	2328.9547	21949.15	21058.05
961.0562	2330.3823	21892.15	21002.35
961.1881	2331.8092	21849.25	20957.45
961.3198	2333.2355	21733.7	20844.65
961.4516	2334.661	21729.7	20838.2
961.5833	2336.0858	21669.7	20776.9
961.715	2337.5098	21652.2	20759.6
961.8467	2338.9332	21561.6	20670.1
961.9783	2340.3558	21506.05	20614.15
962.1099	2341.7778	21397.7	20506.95
962.2415	2343.199	21306.2	20414.95
962.373	2344.6195	21254.55	20367.15
962.5045	2346.0393	21192.15	20305
962.636	2347.4583	21131.4	20241.7
962.7675	2348.8767	21072.95	20182.25
962.8989	2350.2943	21011.7	20121.05
963.0303	2351.7113	20976.4	20085.5
963.1617	2353.1275	20905.45	20014.8
963.293	2354.543	20830.6	19932.7
963.4243	2355.9578	20740.35	19850.8
963.5556	2357.3718	20602.2	19712.75
963.6868	2358.7852	20513.6	19620.55
963.818	2360.1978	20490.55	19599.9
963.9492	2361.6098	20401.5	19511.15
964.0803	2363.021	20337.6	19443.7
964.2114	2364.4315	20312.35	19422.95
964.3425	2365.8413	20235.4	19344.5
964.4736	2367.2504	20158.7	19271
964.6046	2368.6587	20068.25	19179.95
964.7356	2370.0664	19962.35	19074.35
964.8666	2371.4733	19911.5	19022
964.9975	2372.8795	19865.1	18974.5
965.1284	2374.285	19772.35	18882.5
965.2593	2375.6899	19731.7	18842.35
965.3901	2377.0939	19602.25	18712.2
965.5209	2378.4973	19523.8	18635.05
965.6517	2379.9	19462.5	18574.65
965.7825	2381.3019	19373.65	18485.75
965.9132	2382.7032	19352.8	18465.8
966.0439	2384.1037	19280.7	18392.2
966.1745	2385.5035	19209.1	18321.6
966.3051	2386.9027	19146.35	18258.3
966.4357	2388.3011	19097.5	18204.15
966.5663	2389.6987	19038.5	18148.85
966.6968	2391.0957	18978.55	18089
966.8273	2392.492	18878.65	17991.85
966.9578	2393.8876	18755.15	17863.45
967.0882	2395.2824	18699.9	17809.8
967.2186	2396.6765	18608.5	17720.2
967.349	2398.07	18505.95	17618.05
967.4793	2399.4627	18509.25	17619.2
967.6097	2400.8547	18421.5	17530.75
967.7399	2402.246	18363.55	17470.3
967.8702	2403.6366	18240.6	17351.85
968.0004	2405.0265	18155.95	17267.55
968.1306	2406.4156	18094.85	17202
968.2607	2407.8041	18037.7	17146.55
968.3909	2409.1918	17948.6	17058
968.521	2410.5789	17903.95	17013.15
968.651	2411.9652	17842.8	16951.6
968.781	2413.3508	17792.2	16903.85
968.911	2414.7358	17740.45	16851.5
969.041	2416.12	17659.1	16772.5
969.1709	2417.5035	17602	16714.7
969.3008	2418.8863	17553	16663.35
969.4307	2420.2684	17513.4	16624.5
969.5606	2421.6497	17369.75	16480.1
969.6904	2423.0304	17297.45	16409.55
969.8201	2424.4104	17189.35	16300.4
969.9499	2425.7896	17167.85	16276.7
970.0796	2427.1682	17139.35	16249.65
970.2093	2428.546	17076.5	16188.5
970.3389	2429.9232	17021.1	16129.6
970.4685	2431.2996	17012.95	16123.95
970.5981	2432.6753	16976.7	16085.95
970.7277	2434.0503	16928.55	16038.15
970.8572	2435.4246	16825.55	15937.5
970.9867	2436.7982	16765.05	15873.8
971.1161	2438.1711	16718.95	15831.75
971.2456	2439.5433	16695.65	15805.25
971.375	2440.9148	16605.65	15709.3
971.5043	2442.2856	16534.65	15645.1
971.6336	2443.6557	16469.45	15577.55
971.7629	2445.025	16417.4	15528.4
971.8922	2446.3937	16395.1	15504.3
972.0214	2447.7617	16303.1	15414.85
972.1506	2449.1289	16285.85	15397.7
972.2798	2450.4955	16252.5	15360.35
972.4089	2451.8613	16187.05	15298.6
972.538	2453.2265	16101.35	15210.4
972.6671	2454.5909	16071.1	15180.85
972.7961	2455.9546	16035.05	15145.7
972.9251	2457.3177	15950.7	15062.15
973.0541	2458.68	15924.4	15035.45
973.1831	2460.0416	15936.15	15046.15
973.312	2461.4025	15885.65	14994.45
973.4408	2462.7627	15815.8	14916.1
973.5697	2464.1222	15747.15	14858.15
973.6985	2465.4811	15704.85	14816.35
973.8273	2466.8392	15649.15	14760.05
973.956	2468.1966	15591.45	14699.15
974.0847	2469.5533	15586.85	14695.5
974.2134	2470.9093	15558	14666.95
974.3421	2472.2645	15492.05	14601.35
974.4707	2473.6191	15442.85	14555.1
974.5993	2474.973	15349.35	14459.65
974.7278	2476.3262	15316.2	14426.6
974.8563	2477.6787	15257.3	14368.75
974.9848	2479.0305	15171.45	14284.45
975.1132	2480.3816	15135.45	14246.75
975.2417	2481.7319	15089.15	14199.05
975.37	2483.0816	15017.4	14125.5
975.4984	2484.4306	14957.85	14066.35
975.6267	2485.7789	14904.3	14014.3
975.755	2487.1264	14812.65	13921.2
975.8833	2488.4733	14744	13855.15
976.0115	2489.8195	14701.55	13804.55
976.1397	2491.165	14680.2	13787.7
976.2678	2492.5097	14619.05	13728.4
976.3959	2493.8538	14531.1	13641.8
976.524	2495.1972	14469.05	13581.55
976.6521	2496.5398	14414.3	13523.45
976.7801	2497.8818	14396.9	13506.55
976.9081	2499.2231	14343.35	13453.45
977.036	2500.5637	14271.5	13380.5
977.164	2501.9035	14229.3	13338.4
977.2918	2503.2427	14146.8	13253.25
977.4197	2504.5812	14122.2	13234.65
977.5475	2505.919	14102.8	13212.25
977.6753	2507.256	14069.65	13182.2
977.8031	2508.5924	14017.1	13129.9
977.9308	2509.9281	13972.55	13077.15
978.0585	2511.2631	13905.4	13016
978.1861	2512.5974	13864.35	12975.25
978.3137	2513.9309	13817.85	12929.85
978.4413	2515.2638	13764.65	12850.85
978.5689	2516.596	13750.25	12860.7
978.6964	2517.9275	13660.3	12770.7
978.8239	2519.2583	13625.55	12736
978.9513	2520.5884	13544.9	12655.45
979.0788	2521.9178	13510.8	12622.5
979.2062	2523.2465	13467.9	12579.15
979.3335	2524.5745	13397.05	12509.35
979.4608	2525.9018	13334.7	12444.95
979.5881	2527.2284	13319.15	12431.45
979.7154	2528.5543	13292.4	12403.65
979.8426	2529.8796	13247.4	12359.55
979.9698	2531.2041	13216.85	12325.9
980.0969	2532.5279	13177.1	12289
980.224	2533.851	13155.85	12265.35
980.3511	2535.1735	13094.75	12206.3
980.4781	2536.4952	13060.9	12172.2
980.6052	2537.8163	13050.65	12160.2
980.7321	2539.1366	13021.05	12130.65
980.8591	2540.4562	12962.55	12071.05
980.986	2541.7752	12952.8	12065.5
981.1129	2543.0935	12926.4	12035.5
981.2397	2544.411	12849.05	11956.45
981.3665	2545.7279	12818.85	11927.95
981.4933	2547.0441	12804.75	11914.6
981.62	2548.3596	12771.25	11880.7
981.7467	2549.6744	12769.6	11881.1
981.8734	2550.9885	12711.85	11814.3
982.0001	2552.3019	12653.2	11765.4
982.1267	2553.6146	12621.4	11729.45
982.2532	2554.9266	12602.8	11712.45
982.3798	2556.2379	12553.15	11662.5
982.5063	2557.5485	12520.95	11631.35
982.6327	2558.8585	12487.2	11591.95
982.7592	2560.1677	12472.2	11578.25
982.8856	2561.4762	12450.5	11561.5
983.0119	2562.7841	12424.45	11531.85
983.1383	2564.0913	12399.95	11512.05
983.2646	2565.3977	12374.1	11486.6
983.3908	2566.7035	12318.3	11429.85
983.517	2568.0086	12308.2	11416.1
983.6432	2569.313	12270.55	11378.65
983.7694	2570.6167	12235.85	11341.35
983.8955	2571.9197	12192.6	11301.75
984.0216	2573.222	12173.05	11278.65
984.1476	2574.5236	12153.95	11262.9
984.2737	2575.8246	12105.45	11213.6
984.3996	2577.1248	12069.75	11177.55
984.5256	2578.4244	12081.1	11191.35
984.6515	2579.7232	12073.35	11184.4
984.7774	2581.0214	12052.25	11140
984.9032	2582.3189	11974.3	11084.65
985.029	2583.6157	11965.45	11071.35
985.1548	2584.9118	11923.9	11034.5
985.2806	2586.2072	11889.65	11002.55
985.4063	2587.5019	11864.15	10975.65
985.5319	2588.7959	11804.55	10914.85
985.6576	2590.0893	11816.45	10924.65
985.7832	2591.3819	11760.45	10871.15
985.9087	2592.6739	11733.3	10846.6
986.0343	2593.9652	11714.9	10824.25
986.1597	2595.2557	11629.85	10740.7
986.2852	2596.5456	11581.3	10689.2
986.4106	2597.8348	11508.3	10619.35
986.536	2599.1234	11494.4	10605.7
986.6614	2600.4112	11478.7	10589.85
986.7867	2601.6983	11410.75	10519.05
986.912	2602.9848	11355.7	10465.65
987.0372	2604.2705	11299.65	10402.1
987.1624	2605.5556	11314.6	10424.1
987.2876	2606.84	11257.6	10368.3
987.4128	2608.1237	11214.7	10324.4
987.5379	2609.4067	11148.45	10257.8
987.6629	2610.689	11133.05	10237.05
987.788	2611.9707	11086.45	10194.9
987.913	2613.2516	11043.65	10148.55
988.0379	2614.5319	10970.85	10082.35
988.1629	2615.8115	10944.05	10055.3
988.2878	2617.0903	10921.35	10031.85
988.4126	2618.3685	10867.65	9978.35
988.5375	2619.6461	10825.2	9936.05
988.6622	2620.9229	10800.5	9912.25
988.787	2622.199	10764.4	9875.4
988.9117	2623.4745	10748.8	9858.65
989.0364	2624.7493	10682.7	9793.85
989.161	2626.0234	10653.1	9766.05
989.2857	2627.2968	10621	9732.85
989.4102	2628.5695	10590.6	9700.95
989.5348	2629.8415	10543.5	9654.75
989.6593	2631.1128	10477.6	9586.25
989.7837	2632.3835	10433.3	9543.3
989.9082	2633.6535	10399.5	9509.55
990.0326	2634.9228	10370.35	9482.1
990.1569	2636.1914	10331.65	9444
990.2812	2637.4593	10312.3	9419.6
990.4055	2638.7265	10282.25	9393
990.5298	2639.9931	10212.6	9324.4
990.654	2641.259	10204.25	9313.2
990.7782	2642.5242	10166.05	9276.55
990.9023	2643.7887	10148.65	9260
991.0264	2645.0525	10127.15	9237.4
991.1505	2646.3156	10068.15	9175.7
991.2745	2647.5781	10035.4	9148.2
991.3985	2648.8398	10003.8	9116.35
991.5225	2650.1009	9998.7	9071.35
991.6464	2651.3613	9944.15	9053.75
991.7703	2652.6211	9934.05	9043.95
991.8942	2653.8801	9885.35	8997.75
992.018	2655.1385	9865.9	8972.35
992.1418	2656.3961	9853.85	8964.4
992.2655	2657.6531	9804.15	8912.55
992.3892	2658.9094	9748.65	8859.75
992.5129	2660.1651	9751.45	8863.55
992.6366	2661.42	9715	8825.1
992.7602	2662.6743	9698.85	8807.65
992.8837	2663.9279	9657	8766.25
993.0073	2665.1808	9626.25	8735.3
993.1307	2666.433	9600.6	8710.65
993.2542	2667.6846	9559.55	8669.25
993.3776	2668.9354	9546.35	8652.95
993.501	2670.1856	9517.6	8628.55
993.6244	2671.4351	9505.85	8617.65
993.7477	2672.6839	9482.35	8590.85
993.8709	2673.9321	9447.2	8557.85
993.9942	2675.1795	9380.4	8492.1
994.1174	2676.4263	9382.9	8493.75
994.2405	2677.6724	9342.75	8454.3
994.3637	2678.9179	9327.4	8437.8
994.4868	2680.1626	9271.2	8382.15
994.6098	2681.4067	9260.05	8371.75
994.7328	2682.6501	9242.45	8353.3
994.8558	2683.8928	9209.55	8320.35
994.9788	2685.1348	9170.6	8280.95
995.1017	2686.3761	9141.25	8251.35
995.2245	2687.6168	9107.9	8218.75
995.3474	2688.8568	9068.7	8180.6
995.4702	2690.0961	9041.6	8155.35
995.5929	2691.3348	9034.1	8145.05
995.7156	2692.5727	9007.8	8119.3
995.8383	2693.81	8970	8082.2
995.961	2695.0466	8927	8039.1
996.0836	2696.2826	8918.2	8026.7
996.2062	2697.5178	8882.35	7991.25
996.3287	2698.7524	8853.25	7963.1
996.4512	2699.9863	8843.55	7952.85
996.5737	2701.2195	8792.85	7906.2
996.6961	2702.452	8781.15	7890.2
996.8185	2703.6839	8761.8	7870.95
996.9408	2704.9151	8717.85	7829.8
997.0631	2706.1456	8697.85	7809.05
997.1854	2707.3755	8644.9	7754.7
997.3077	2708.6046	8628.2	7737.85
997.4299	2709.8331	8609.05	7719.5
997.552	2711.0609	8573.6	7685.2
997.6742	2712.2881	8552.9	7665.4
997.7963	2713.5145	8535.3	7643.3
997.9183	2714.7403	8534.35	7645.65
998.0403	2715.9654	8509.8	7621.6
998.1623	2717.1899	8472.95	7570.6
998.2842	2718.4136	8461.7	7574.15
998.4062	2719.6367	8425.25	7536.55
998.528	2720.8591	8414.75	7518.55
998.6498	2722.0809	8364.75	7473.7
998.7716	2723.3019	8349.05	7455.85
998.8934	2724.5223	8339.2	7449.75
999.0151	2725.7421	8317.6	7428.2
999.1368	2726.9611	8304.6	7414.8
999.2584	2728.1795	8272.45	7379.15
999.38	2729.3972	8233.2	7345.25
999.5016	2730.6142	8183.8	7291.3
999.6231	2731.8306	8140.5	7250.45
999.7446	2733.0462	8089.5	7200.15
999.8661	2734.2612	8039.7	7146.5
999.9875	2735.4756	8005.4	7116.45
1000.1089	2736.6892	7951.65	7062.55
1000.2302	2737.9022	7897.5	7010.8
1000.3515	2739.1145	7870.45	6983.9
1000.4728	2740.3262	7855.65	6958.8
1000.594	2741.5372	7798.7	6909.4
1000.7152	2742.7475	7782.05	6893
1000.8363	2743.9571	7753.25	6861.45
1000.9575	2745.1661	7715.25	6822.6
1001.0785	2746.3744	7699.2	6809.75
1001.1996	2747.582	7645.65	6758.9
1001.3206	2748.7889	7604.9	6715.7
1001.4415	2749.9952	7596.65	6707.5
1001.5625	2751.2008	7566.65	6675.4
1001.6833	2752.4057	7542.5	6650.7
1001.8042	2753.61	7490.6	6601.55
1001.925	2754.8136	7470.75	6578.8
1002.0458	2756.0165	7459.7	6571.15
1002.1665	2757.2188	7433.2	6545.05
1002.2872	2758.4204	7419.8	6531.15
1002.4078	2759.6213	7369.45	6478.2
1002.5285	2760.8215	7372.55	6479.3
1002.649	2762.0211	7330.75	6437.7
1002.7696	2763.22	7312.2	6420.55
1002.8901	2764.4182	7285.6	6396.8
1003.0106	2765.6158	7280.5	6391.65
1003.131	2766.8127	7244.6	6356.5
1003.2514	2768.009	7216.8	6328.85
1003.3717	2769.2045	7178.35	6287.65
1003.492	2770.3994	7182.95	6294.1
1003.6123	2771.5936	7143.9	6253.15
1003.7325	2772.7872	7132.6	6244.7
1003.8527	2773.9801	7066.95	6176.65
1003.9729	2775.1723	7057.1	6152.55
1004.093	2776.3639	7030.25	6143.1
1004.2131	2777.5548	6989.2	6097.5
1004.3331	2778.745	6968.5	6078.3
1004.4531	2779.9346	6982	6096.25
1004.5731	2781.1235	6963.75	6074.7
1004.693	2782.3117	6932.8	6043.8
1004.8129	2783.4992	6900	6011.8
1004.9328	2784.6861	6866.45	5977.75
1005.0526	2785.8723	6863.9	5974.85
1005.1723	2787.0579	6843.35	5951.85
1005.2921	2788.2428	6842.15	5956.55
1005.4118	2789.427	6816.3	5927
1005.5314	2790.6106	6791.4	5903.8
1005.651	2791.7935	6746.4	5857.85
1005.7706	2792.9757	6733.2	5845.9
1005.8902	2794.1573	6745.45	5854.1
1006.0097	2795.3382	6714.95	5826
1006.1291	2796.5184	6706.7	5818.9
1006.2485	2797.698	6693.8	5803.3
1006.3679	2798.8769	6684.5	5793.95
1006.4873	2800.0551	6671.1	5782
1006.6066	2801.2327	6662.8	5771.9
1006.7258	2802.4096	6666.25	5778.2
1006.8451	2803.5859	6643.5	5755.3
1006.9642	2804.7615	6644.85	5755.3
1007.0834	2805.9364	6633.75	5746.05
1007.2025	2807.1106	6656.4	5768.7
1007.3216	2808.2842	6648.25	5758.5
1007.4406	2809.4572	6656.35	5767.1
1007.5596	2810.6294	6671.25	5781.45
1007.6785	2811.801	6688.5	5802.25
1007.7975	2812.972	6713.85	5825.8
1007.9163	2814.1423	6730.15	5842.85
1008.0352	2815.3119	6761.25	5873.2
1008.154	2816.4808	6766.4	5879.25
1008.2727	2817.6491	6802.3	5911.8
1008.3914	2818.8167	6828.8	5940.9
1008.5101	2819.9837	6864.45	5971.3
1008.6288	2821.15	6859.75	5970.45
1008.7474	2822.3157	6886.2	5998.35
1008.8659	2823.4807	6940.15	6053.1
1008.9844	2824.645	6949.15	6060.1
1009.1029	2825.8086	7000.5	6113.1
1009.2214	2826.9716	7018.35	6131.25
1009.3398	2828.134	7044.9	6156.9
1009.4581	2829.2957	7091.9	6203.45
1009.5764	2830.4567	7081.5	6192.8
1009.6947	2831.617	7077.8	6189
1009.813	2832.7767	7082	6194.35
1009.9312	2833.9358	7072.5	6185.3
1010.0493	2835.0941	7044.35	6154.05
1010.1675	2836.2519	7043.45	6156.25
1010.2855	2837.4089	6985.85	6095.65
1010.4036	2838.5653	6971.45	6082.7
1010.5216	2839.7211	6961.55	6074.95
1010.6396	2840.8761	6940.4	6050.25
1010.7575	2842.0306	6954.7	6068.4
1010.8754	2843.1843	6968.85	6081.2
1010.9932	2844.3374	7012	6123.35
1011.111	2845.4899	7043.9	6154.1
1011.2288	2846.6417	7082.3	6192.85
1011.3465	2847.7928	7127.75	6239.6
1011.4642	2848.9433	7169.3	6280.55
1011.5818	2850.0931	7229.8	6341.95
1011.6995	2851.2422	7312.75	6423.65
1011.817	2852.3907	7341.55	6452.5
1011.9345	2853.5385	7400.85	6511.25
1012.052	2854.6857	7448.05	6543.95
1012.1695	2855.8323	7440.5	6552.7
1012.2869	2856.9781	7484	6596.9
1012.4042	2858.1233	7499.2	6611.9
1012.5216	2859.2679	7529.55	6642.9
1012.6389	2860.4118	7557.3	6668.7
1012.7561	2861.555	7565.65	6673.55
1012.8733	2862.6976	7576.65	6685.7
1012.9905	2863.8395	7577.5	6688.95
1013.1076	2864.9808	7607.65	6721.5
1013.2247	2866.1214	7591.05	6703.15
1013.3417	2867.2614	7609.05	6720.8
1013.4587	2868.4007	7602.05	6711.7
1013.5757	2869.5393	7568.3	6676.8
1013.6926	2870.6773	7585.05	6693.65
1013.8095	2871.8146	7555.35	6663.75
1013.9263	2872.9513	7546.85	6655.6
1014.0431	2874.0874	7533.9	6643.4
1014.1599	2875.2227	7493.45	6604.65
1014.2766	2876.3574	7459.75	6571.85
1014.3933	2877.4915	7435.35	6547.25
1014.51	2878.6249	7382.75	6496.25
1014.6266	2879.7577	7341	6452.05
1014.7431	2880.8898	7308.35	6409.5
1014.8596	2882.0212	7263.8	6377.4
1014.9761	2883.152	7254.15	6363.85
1015.0925	2884.2821	7207.5	6320.7
1015.2089	2885.4116	7161.05	6274.9
1015.3253	2886.5405	7182.05	6293.05
1015.4416	2887.6686	7152.45	6260.55
1015.5579	2888.7962	7146.95	6259.55
1015.6741	2889.923	7108.1	6219.6
1015.7903	2891.0493	7117.6	6229.8
1015.9065	2892.1748	7102.9	6212.8
1016.0226	2893.2997	7093.15	6202.2
1016.1387	2894.424	7068.9	6182.3
1016.2547	2895.5476	7089.1	6200.5
1016.3707	2896.6706	7093	6206.65
1016.4866	2897.7929	7104.4	6215.6
1016.6025	2898.9145	7122.3	6232.25
1016.7184	2900.0355	7109.8	6222.2
1016.8342	2901.1559	7126.45	6238.45
1016.95	2902.2756	7128.45	6240.35
1017.0658	2903.3946	7174.85	6286.5
1017.1815	2904.513	7167.4	6276.05
1017.2971	2905.6308	7149.55	6262.4
1017.4127	2906.7479	7153.15	6267.05
1017.5283	2907.8643	7169.9	6280.7
1017.6439	2908.9801	7180.3	6291.9
1017.7594	2910.0953	7179.7	6290.2
1017.8748	2911.2098	7129.1	6237.65
1017.9902	2912.3236	7135.4	6238.4
1018.1056	2913.4368	7088.9	6195.5
1018.2209	2914.5494	7058.6	6169.15
1018.3362	2915.6613	7014.25	6120.5
1018.4515	2916.7725	6972.55	6082.45
1018.5667	2917.8831	6941.65	6054.6
1018.6819	2918.9931	6914.25	6024.55
1018.797	2920.1024	6874.4	5984.95
1018.9121	2921.211	6838.05	5950.35
1019.0271	2922.319	6798.75	5910.05
1019.1421	2923.4264	6770	5880.8
1019.2571	2924.5331	6727.2	5841.35
1019.372	2925.6391	6720.7	5833.6
1019.4869	2926.7445	6709.15	5823.55
1019.6017	2927.8493	6689.4	5801.9
1019.7165	2928.9534	6687.15	5799.9
1019.8313	2930.0569	6663.75	5771.65
1019.946	2931.1597	6640.45	5749.5
1020.0606	2932.2619	6610.1	5722.55
1020.1753	2933.3634	6587	5699.65
1020.2899	2934.4643	6589.9	5695.45
1020.4044	2935.5645	6553	5658.8
1020.5189	2936.6641	6504.8	5612.1
1020.6334	2937.763	6462.55	5576.05
1020.7478	2938.8613	6388.2	5499.35
1020.8622	2939.959	6343.9	5450.1
1020.9765	2941.056	6253.45	5364.65
1021.0908	2942.1523	6175.55	5286.45
1021.2051	2943.248	6082.5	5195.3
1021.3193	2944.3431	5974.55	5085.75
1021.4334	2945.4375	5864.7	4977.1
1021.5476	2946.5313	5765.65	4878.6
1021.6617	2947.6244	5659.15	4770.55
1021.7757	2948.7169	5563.25	4674.85
1021.8897	2949.8087	5456.15	4567.9
1022.0037	2950.8999	5352.35	4465.25
1022.1176	2951.9904	5254.6	4367.45
1022.2315	2953.0803	5180.75	4291.7
1022.3453	2954.1696	5099.4	4211.9
1022.4591	2955.2582	5048.3	4161.7
1022.5728	2956.3462	4984.1	4097.7
1022.6865	2957.4335	4927.4	4039.8
1022.8002	2958.5202	4879.4	3989.15
1022.9138	2959.6062	4839.7	3952.15
1023.0274	2960.6916	4813.25	3925.95
1023.141	2961.7764	4775.25	3886.3
1023.2545	2962.8605	4742.6	3854.3
1023.3679	2963.9439	4727.65	3841.1
1023.4813	2965.0267	4699.8	3811.5
1023.5947	2966.1089	4681.15	3771.15
1023.708	2967.1905	4651.75	3763.8
1023.8213	2968.2714	4652.35	3766.15
1023.9346	2969.3516	4638.85	3751.8
1024.0478	2970.4312	4627.45	3732.6
1024.1609	2971.5102	4604.7	3715.8
1024.274	2972.5885	4593.75	3706.6
1024.3871	2973.6662	4597.4	3704.7
1024.5002	2974.7432	4571.25	3685.45
1024.6132	2975.8196	4544.85	3657.75
1024.7261	2976.8954	4525.85	3639.25
1024.839	2977.9705	4507.9	3620.05
1024.9519	2979.045	4490.4	3602.4
1025.0647	2980.1188	4458.55	3571.25
1025.1775	2981.192	4430.05	3543.45
1025.2902	2982.2645	4398.05	3509.25
1025.4029	2983.3364	4363.25	3475.15
1025.5156	2984.4077	4308.15	3421.9
1025.6282	2985.4783	4290.7	3396.8
1025.7407	2986.5483	4249.85	3362.65
1025.8532	2987.6177	4193.5	3306.25
1025.9657	2988.6864	4186.7	3298.45
1026.0782	2989.7545	4122.2	3232.45
1026.1906	2990.8219	4089.45	3201.3
1026.3029	2991.8887	4057.05	3166.25
1026.4152	2992.9548	4015.85	3126.5
1026.5275	2994.0204	3977.15	3089.85
1026.6397	2995.0852	3938.15	3051
1026.7519	2996.1495	3901.35	3011.7
1026.864	2997.2131	3856.5	2969.25
1026.9761	2998.276	3823.55	2936.2
1027.0882	2999.3383	3804.5	2916.9
1027.2002	3000.4	3780.2	2892.3
1027.3122	3001.4611	3759.6	2869.55
1027.4241	3002.5215	3733.85	2844.5
1027.536	3003.5812	3696.25	2808.95
1027.6478	3004.6404	3679.5	2792.55
1027.7596	3005.6989	3674.75	2786.35
1027.8714	3006.7567	3647.25	2759.7
1027.9831	3007.8139	3637.8	2729.2
1028.0947	3008.8705	3616.45	2728.1
1028.2064	3009.9264	3578.1	2686.85
1028.3179	3010.9818	3596.4	2709.75
1028.4295	3012.0364	3578.65	2689.6
1028.541	3013.0905	3544	2656.9
1028.6524	3014.1439	3542.9	2655.8
1028.7638	3015.1966	3540.7	2654.95
1028.8752	3016.2487	3540.05	2651.05
1028.9865	3017.3002	3524.2	2632.8
1029.0978	3018.3511	3507.8	2621.45
1029.209	3019.4013	3493.65	2606.65
1029.3202	3020.4509	3484.3	2598
1029.4314	3021.4998	3482.15	2593.35
1029.5425	3022.5481	3470.2	2581.55
1029.6535	3023.5958	3459.6	2571.55
1029.7645	3024.6428	3450.5	2562.4
1029.8755	3025.6892	3437.8	2550.55
1029.9864	3026.735	3438.05	2551.8
1030.0973	3027.7802	3416	2528.9
1030.2082	3028.8247	3406.5	2518
1030.319	3029.8685	3402.45	2515.95
1030.4297	3030.9118	3386.35	2497.3
1030.5404	3031.9544	3395.55	2509.05
1030.6511	3032.9963	3389.3	2502.15
1030.7617	3034.0376	3376.7	2488.5
1030.8723	3035.0783	3374.95	2485
1030.9829	3036.1184	3360.3	2471.25
1031.0934	3037.1578	3369.3	2484.2
1031.2038	3038.1966	3346.55	2459.65
1031.3142	3039.2348	3348.95	2462.05
1031.4246	3040.2723	3351.55	2456.85
1031.5349	3041.3092	3319.55	2433.55
1031.6452	3042.3455	3310.3	2420.4
1031.7554	3043.3811	3297.4	2410.65
1031.8656	3044.4161	3281.85	2392.3
1031.9758	3045.4505	3286	2398.7
1032.0859	3046.4842	3279.7	2391.05
1032.1959	3047.5173	3253.05	2366.75
1032.3059	3048.5498	3250.55	2363.9
1032.4159	3049.5816	3224.55	2335.65
1032.5258	3050.6128	3215.5	2326.65
1032.6357	3051.6434	3205.85	2317.05
1032.7455	3052.6734	3202.15	2313.55
1032.8553	3053.7027	3176.35	2287.65
1032.9651	3054.7314	3168.55	2280.35
1033.0748	3055.7594	3146.6	2259.9
1033.1845	3056.7868	3126.8	2236.55
1033.2941	3057.8136	3117.3	2228.85
1033.4037	3058.8398	3122.45	2235.6
1033.5132	3059.8653	3104.35	2219.3
1033.6227	3060.8902	3094.4	2207.8
1033.7321	3061.9145	3083.45	2196.3
1033.8415	3062.9381	3064.35	2177.15
1033.9509	3063.9612	3078.25	2176.1
1034.0602	3064.9835	3036.05	2147.25
1034.1694	3066.0053	3029.2	2139.15
1034.2787	3067.0264	3019.7	2132.4
1034.3878	3068.0469	3012.3	2123.8
1034.497	3069.0668	2997.95	2109.6
1034.6061	3070.086	2982.9	2094.2
1034.7151	3071.1046	2952.5	2065.05
1034.8241	3072.1226	2954	2064.4
1034.9331	3073.1399	2937.95	2050.6
1035.042	3074.1567	2925.45	2037.65
1035.1508	3075.1727	2900.1	2007.75
1035.2597	3076.1882	2884.8	1996.4
1035.3684	3077.203	2873.7	1988
1035.4772	3078.2173	2850.65	1962.15
1035.5859	3079.2308	2848.35	1957.9
1035.6945	3080.2438	2827.2	1938.1
1035.8031	3081.2561	2820.2	1932.7
1035.9117	3082.2678	2804.8	1918.25
1036.0202	3083.2789	2790.05	1901.6
1036.1286	3084.2893	2782.1	1893.45
1036.2371	3085.2991	2772.5	1884.75
1036.3454	3086.3083	2761.45	1869.05
1036.4538	3087.3169	2750.75	1863.4
1036.562	3088.3248	2730.15	1841.6
1036.6703	3089.3321	2727.75	1838.75
1036.7785	3090.3388	2697.3	1811.5
1036.8866	3091.3449	2704.65	1817.75
1036.9948	3092.3503	2693.55	1804.6
1037.1028	3093.3551	2665.7	1778.75
1037.2108	3094.3593	2663.6	1776.7
1037.3188	3095.3629	2649.55	1763.65
1037.4267	3096.3658	2642	1752.3
1037.5346	3097.3681	2634.1	1747.2
1037.6425	3098.3698	2635.6	1746.45
1037.7503	3099.3708	2634.7	1741
1037.858	3100.3713	2599.45	1714.1
1037.9657	3101.3711	2587.3	1698.4
1038.0734	3102.3702	2702.15	1677.55
1038.181	3103.3688	2583.95	1693.3
1038.2886	3104.3667	2556.85	1671.6
1038.3961	3105.364	2552.25	1665.9
1038.5036	3106.3607	2536.15	1647.9
1038.611	3107.3568	2532.2	1642.5
1038.7184	3108.3522	2517.2	1629.45
1038.8257	3109.347	2506.75	1618
1038.933	3110.3412	2508.35	1615.55
1039.0403	3111.3348	2497.4	1610.15
1039.1475	3112.3277	2481.75	1595.25
1039.2547	3113.32	2479.7	1594.7
1039.3618	3114.3117	2476.8	1590.85
1039.4689	3115.3028	2461.45	1574.15
1039.5759	3116.2932	2445.8	1557.65
1039.6829	3117.2831	2439.9	1547.6
1039.7898	3118.2723	2430.3	1541.2
1039.8967	3119.2608	2424.9	1536.4
1040.0035	3120.2488	2421.95	1534.6
1040.1103	3121.2361	2416.85	1529.5
1040.2171	3122.2229	2393.25	1507.6
1040.3238	3123.209	2390.8	1501.1
1040.4305	3124.1944	2385.2	1499.15
1040.5371	3125.1793	2368.8	1479.9
1040.6437	3126.1635	2366.6	1480.15
1040.7502	3127.1471	2364.45	1476.8
1040.8567	3128.1301	2358.7	1472.3
1040.9631	3129.1125	2346.8	1461.55
1041.0695	3130.0942	2337.8	1448.1
1041.1759	3131.0753	2340.65	1444.35
1041.2822	3132.0558	2319.55	1428.7
1041.3884	3133.0357	2310.45	1422.7
1041.4946	3134.015	2310.75	1423.1
1041.6008	3134.9936	2299.7	1411.35
1041.7069	3135.9716	2316.35	1406.45
1041.813	3136.949	2287.05	1398.95
1041.919	3137.9258	2292.25	1400.45
1042.025	3138.902	2285.4	1391.6
1042.1309	3139.8775	2267	1379.95
1042.2368	3140.8524	2271.45	1385.55
1042.3427	3141.8267	2268.5	1380.65
1042.4485	3142.8004	2258.8	1371.75
1042.5542	3143.7735	2253.85	1361.85
1042.6599	3144.7459	2242.75	1353.75
1042.7656	3145.7178	2232.7	1344.7
1042.8712	3146.689	2234.55	1348.85
1042.9768	3147.6596	2216.35	1328.3
1043.0823	3148.6295	2203.7	1316.35
1043.1878	3149.5989	2197.9	1309.6
1043.2932	3150.5676	2190.2	1303.8
1043.3986	3151.5357	2193.8	1309.3
1043.5039	3152.5032	2177.6	1290.15
1043.6092	3153.4701	2172.4	1285.75
1043.7145	3154.4364	2163.85	1276.4
1043.8197	3155.402	2167.35	1281.35
1043.9248	3156.367	2157.25	1270.15
1044.03	3157.3315	2180.55	1249.35
1044.135	3158.2952	2145.6	1255.7
1044.24	3159.2584	2132.55	1246.65
1044.345	3160.221	2117.15	1227.9
1044.4499	3161.1829	2120.1	1231.45
1044.5548	3162.1442	2108.1	1220.15
1044.6596	3163.105	2109.75	1220.35
1044.7644	3164.065	2094.2	1207.4
1044.8692	3165.0245	2096.75	1207.7
1044.9739	3165.9834	2088.65	1203.75
1045.0785	3166.9416	2081.95	1194.45
1045.1831	3167.8993	2072	1184.3
1045.2877	3168.8563	2074.35	1186.55
1045.3922	3169.8127	2054.15	1168.05
1045.4966	3170.7684	2042.8	1155.25
1045.6011	3171.7236	2042.85	1155.55
1045.7054	3172.6782	2045.95	1157.9
1045.8098	3173.6321	2042	1154.05
1045.914	3174.5854	2032.05	1142.6
1046.0183	3175.5381	2012.1	1125.05
1046.1224	3176.4902	2011.85	1124.2
1046.2266	3177.4417	2007.05	1120.2
1046.3307	3178.3926	1990.75	1104.35
1046.4347	3179.3428	1985.7	1099.55
1046.5387	3180.2924	1988.8	1103.4
1046.6427	3181.2415	1982.45	1094.2
1046.7466	3182.1899	1984.65	1096.9
1046.8504	3183.1377	1975.55	1087.85
1046.9542	3184.0848	1960.9	1071.1
1047.058	3185.0314	1963.8	1076.65
1047.1617	3185.9773	1961.2	1073.25
1047.2654	3186.9227	1946.4	1058.1
1047.369	3187.8674	1934.5	1046.4
1047.4726	3188.8115	1935.75	1043.7
1047.5761	3189.755	1934.2	1048.25
1047.6796	3190.6979	1927.4	1041.35
1047.783	3191.6402	1915.4	1030.25
1047.8864	3192.5818	1917.2	1030.45
1047.9898	3193.5229	1931.4	1020.55
1048.0931	3194.4633	1908.85	1021.25
1048.1963	3195.4031	1897.5	1010.2
1048.2995	3196.3423	1890.6	1004.1
1048.4027	3197.2809	1880.15	994.35
1048.5058	3198.2189	1885.75	998.35
1048.6089	3199.1563	1886.4	991.95
1048.7119	3200.0931	1870.6	983.9
1048.8148	3201.0292	1862.8	976.75
1048.9178	3201.9648	1861.3	976.15
1049.0206	3202.8997	1854.65	965.2
1049.1235	3203.834	1851.65	966.1
1049.2262	3204.7677	1850.7	962.7
1049.329	3205.7008	1847.9	959.1
1049.4317	3206.6333	1834.35	948.3
1049.5343	3207.5652	1840.5	949.45
1049.6369	3208.4964	1839.7	951.05
1049.7394	3209.4271	1827.55	939.45
1049.8419	3210.3571	1812.2	924
1049.9444	3211.2865	1812.15	925.9
1050.0468	3212.2154	1809.25	921.8
1050.1491	3213.1436	1805.2	916.1
1050.2514	3214.0712	1814.1	923.75
1050.3537	3214.9982	1798.85	910.9
1050.4559	3215.9246	1790.8	903.05
1050.5581	3216.8503	1788.9	903.35
1050.6602	3217.7755	1783.05	896
1050.7623	3218.7001	1773.85	888.5
1050.8643	3219.624	1781.05	893.55
1050.9663	3220.5473	1765.8	879.2
1051.0682	3221.4701	1765.15	878.55
1051.1701	3222.3922	1758.45	871
1051.2719	3223.3137	1751.6	866.15
1051.3737	3224.2346	1747.9	859.45
1051.4754	3225.1549	1745.45	859.95
1051.5771	3226.0746	1734.2	849.55
1051.6788	3226.9937	1731.35	844.55
1051.7804	3227.9121	1730.9	845.85
1051.8819	3228.83	1736.2	848.2
1051.9834	3229.7473	1724.9	837.45
1052.0849	3230.6639	1716.05	828.4
1052.1863	3231.5799	1709.35	822.1
1052.2876	3232.4954	1713.95	825.9
1052.3889	3233.4102	1701.25	815.3
1052.4902	3234.3244	1705.6	816.05
1052.5914	3235.238	1696.85	810.95
1052.6926	3236.151	1712.6	801.45
1052.7937	3237.0634	1684.55	799.15
1052.8948	3237.9752	1677.2	791
1052.9958	3238.8864	1674.8	788.35
1053.0968	3239.797	1674.1	789.3
1053.1977	3240.7069	1675.8	787.15
1053.2986	3241.6163	1660.45	772.15
1053.3994	3242.5251	1650.35	765.4
1053.5002	3243.4332	1650.35	765
1053.6009	3244.3408	1641.5	752.1
1053.7016	3245.2477	1642.55	756.8
1053.8022	3246.154	1641.95	754.2
1053.9028	3247.0598	1637.7	750.6
1054.0034	3247.9649	1624	736.85
1054.1039	3248.8694	1622.55	734.8
1054.2043	3249.7733	1625.3	739.15
1054.3047	3250.6766	1616.15	730.3
1054.4051	3251.5793	1611.55	723.5
1054.5054	3252.4814	1613.55	726.25
1054.6056	3253.3829	1605.1	717.4
1054.7058	3254.2838	1602.35	716
1054.806	3255.1841	1594.25	707.2
1054.9061	3256.0838	1580.55	694.6
1055.0061	3256.9829	1576.45	689.3
1055.1062	3257.8814	1576.05	687.7
1055.2061	3258.7792	1569.2	680.95
1055.306	3259.6765	1567.35	679.55
1055.4059	3260.5731	1563.1	676.3
1055.5057	3261.4692	1540.75	653.3
1055.6055	3262.3647	1536.05	650
1055.7052	3263.2595	1522.4	636.2
1055.8049	3264.1538	1520.75	633.75
1055.9045	3265.0474	1513.55	626.1
1056.0041	3265.9404	1506.95	619.1
1056.1036	3266.8329	1498.05	611
1056.2031	3267.7247	1496.8	598.7
1056.3025	3268.616	1467.95	581.05
1056.4019	3269.5066	1452.8	565.9
1056.5013	3270.3966	1436.55	548.55
1056.6005	3271.286	1416.55	530.2
