Software Version:	3.9.2.0
Unit SN:	10000200
Spectrometer SN:	6960
Date:	3/6/2024 9:40:08 AM
Data Line Index:	25
Spectral Points:	2048
Integration time (ms):	125
Averages:	20
Delay (ms):	30
Sequence Number:	1
Processing:	dark subtract
Laser Power (mW):	305
Laser Current (mA):	825
Laser Diode Temp (C):	25.1
Laser Case Temp (C):	24
System Temp (C):	23.8
Spectrometer Temp (C):	21.3
CCD Temp (C):	-0.031
Secondary Temp (C):	20.01
Heatsink Temp (C):	17.224
CCDPCB Temp (C):	30.504
SecondaryPCB Temp (C):	25.347

Wavelength	RamanShift	Raw Counts	Dark Subtracted
787.061	30.1047	462.65	56
787.2016	32.3739	465	60.65
787.3422	34.6426	465.5	59.3
787.4828	36.9109	476.5	68.2
787.6235	39.1787	481.05	71.15
787.7642	41.4461	491.85	76.05
787.9049	43.7131	497	77.65
788.0456	45.9796	507.95	87.6
788.1863	48.2456	516.2	91.8
788.3271	50.5112	521.95	92.35
788.4679	52.7764	529.3	96.55
788.6087	55.0411	541.85	106.55
788.7496	57.3054	551.55	110.75
788.8904	59.5692	562.8	119.5
789.0313	61.8326	570.9	124.4
789.1722	64.0955	584.4	134.8
789.3132	66.3579	600.8	147.55
789.4541	68.6199	614.9	158.75
789.5951	70.8815	646.25	183.85
789.7361	73.1426	716	250.05
789.8771	75.4032	865.3	395.55
790.0181	77.6634	1255.8	783.5
790.1592	79.9231	2152.95	1679.25
790.3003	82.1824	4098.85	3618.95
790.4414	84.4412	7505.9	7018.3
790.5825	86.6995	12162.5	11667.05
790.7237	88.9574	16707.9	16205.55
790.8648	91.2148	20053.35	19547.5
791.006	93.4717	21928.85	21414.65
791.1472	95.7282	22699.7	22184.1
791.2885	97.9842	23110.55	22594.35
791.4297	100.2398	23288.55	22769.1
791.571	102.4949	23358.25	22837.5
791.7123	104.7495	23386.05	22862.3
791.8536	107.0036	23330.4	22803.85
791.9949	109.2573	23393.15	22869.55
792.1363	111.5105	23375.05	22846.05
792.2777	113.7632	23378.9	22847.55
792.4191	116.0154	23374.65	22833
792.5605	118.2672	23495.15	22959.45
792.7019	120.5185	23498.45	22961
792.8434	122.7693	23581.85	23042.15
792.9849	125.0197	23618.85	23073.8
793.1264	127.2696	23587.35	23039.4
793.2679	129.519	23704.7	23151.4
793.4094	131.7679	23767.3	23215.9
793.551	134.0163	23816.85	23260.05
793.6926	136.2642	23860.8	23301.8
793.8342	138.5117	23891.1	23328.55
793.9758	140.7587	23900.05	23337.45
794.1175	143.0052	23953.6	23388.4
794.2591	145.2512	23931.9	23364.35
794.4008	147.4967	23922.4	23353.6
794.5425	149.7417	23902.55	23329.75
794.6842	151.9863	23894.1	23317.75
794.826	154.2304	23969.15	23388.55
794.9677	156.4739	23891.2	23303.35
795.1095	158.717	23950.85	23368
795.2513	160.9596	23989.25	23399.65
795.3931	163.2017	23958.6	23365.75
795.535	165.4433	24004.1	23409.5
795.6768	167.6844	23988.2	23390.15
795.8187	169.925	24001.8	23400.35
795.9606	172.1651	23953.8	23349.9
796.1025	174.4047	23994	23388.4
796.2445	176.6439	24000.75	23394.65
796.3864	178.8825	24004.25	23392.4
796.5284	181.1206	24043.25	23429.25
796.6704	183.3582	24035.65	23418
796.8124	185.5954	24078.65	23458.15
796.9544	187.832	24100.3	23476.05
797.0965	190.0681	24193.2	23564
797.2386	192.3037	24193.95	23560.8
797.3806	194.5388	24248.7	23616.3
797.5228	196.7734	24293.75	23661.35
797.6649	199.0075	24380.85	23745.6
797.807	201.2411	24465.1	23830.1
797.9492	203.4742	24516.65	23876.6
798.0914	205.7068	24595	23949.15
798.2336	207.9389	24651.2	24007.65
798.3758	210.1704	24726.45	24089.8
798.518	212.4015	24681.85	24055.15
798.6603	214.632	24789.6	24169.15
798.8025	216.862	24817.5	24196.2
798.9448	219.0915	24789.8	24168.4
799.0871	221.3205	24870.35	24245.9
799.2294	223.549	24934.6	24313.15
799.3718	225.777	24989.65	24367.25
799.5141	228.0044	25003	24370.65
799.6565	230.2314	25062.15	24427.7
799.7989	232.4578	25043.7	24404.3
799.9413	234.6837	25075.05	24429.6
800.0837	236.909	25138.55	24493.5
800.2262	239.1339	25172.95	24501.4
800.3687	241.3582	25154.1	24497.15
800.5111	243.582	25192.35	24505.05
800.6536	245.8053	25210.5	24533.8
800.7961	248.0281	25221.35	24552.35
800.9387	250.2503	25234.45	24561.2
801.0812	252.472	25271.95	24596.2
801.2238	254.6932	25311.25	24637.55
801.3664	256.9139	25303.55	24627.8
801.509	259.134	25350.6	24671.45
801.6516	261.3536	25361.5	24686.6
801.7942	263.5727	25469.1	24789.25
801.9369	265.7912	25423.25	24744.2
802.0795	268.0092	25466.25	24788.75
802.2222	270.2267	25492.15	24812.55
802.3649	272.4436	25539.95	24856.2
802.5076	274.6601	25549.9	24856
802.6504	276.8759	25574.1	24884.5
802.7931	279.0913	25580.2	24891.3
802.9359	281.3061	25613.35	24924.15
803.0787	283.5204	25654.4	24961.45
803.2215	285.7341	25707.35	25011.65
803.3643	287.9473	25760.15	25054.7
803.5071	290.16	25710.4	25010.65
803.6499	292.3721	25693.9	24999.55
803.7928	294.5837	25719.65	25023.75
803.9357	296.7947	25650.55	24956.1
804.0786	299.0052	25643.75	24945.8
804.2215	301.2152	25581.75	24884.5
804.3644	303.4246	25654.55	24957.25
804.5074	305.6334	25619.55	24920.15
804.6503	307.8418	25644.2	24942.45
804.7933	310.0495	25608.55	24906.15
804.9363	312.2568	25595.65	24891.2
805.0793	314.4635	25473.55	24769.7
805.2223	316.6696	25472.6	24765.25
805.3653	318.8752	25352.4	24637.4
805.5084	321.0802	25290.6	24582.25
805.6514	323.2847	25352.25	24639.6
805.7945	325.4887	25310.65	24597.3
805.9376	327.692	25303.15	24588.2
806.0807	329.8949	25352.35	24637.65
806.2238	332.0972	25389.45	24673.35
806.367	334.2989	25492.65	24773.35
806.5101	336.5001	25420.7	24699.6
806.6533	338.7007	25361.25	24641.95
806.7965	340.9008	25420	24698
806.9397	343.1003	25339.95	24615.7
807.0829	345.2992	25397.05	24671.35
807.2261	347.4976	25352.9	24624.1
807.3693	349.6955	25287.7	24554.7
807.5126	351.8927	25354.35	24622.95
807.6559	354.0895	25287.05	24544.7
807.7991	356.2856	25275.5	24541.4
807.9424	358.4812	25217.35	24480.6
808.0857	360.6763	25306.3	24572.25
808.2291	362.8707	25245.7	24507.25
808.3724	365.0646	25275.45	24532.3
808.5158	367.258	25246.4	24504.95
808.6591	369.4508	25198.25	24452.95
808.8025	371.643	25254.55	24508.2
808.9459	373.8346	25187.8	24440.55
809.0893	376.0257	25164.65	24414.45
809.2327	378.2162	25142.35	24396.2
809.3762	380.4062	25156.6	24408.95
809.5196	382.5956	25092.3	24346.15
809.6631	384.7844	25070.05	24326.75
809.8066	386.9726	24990.05	24246.55
809.9501	389.1603	24956.35	24213.6
810.0936	391.3474	24963.75	24171.2
810.2371	393.5339	24915.95	24170.55
810.3806	395.7199	24844.95	24103.2
810.5241	397.9052	24860.4	24115.9
810.6677	400.09	24829.35	24082.75
810.8113	402.2743	24867.8	24118.65
810.9548	404.4579	24835.6	24085.1
811.0984	406.641	24896	24143.65
811.2421	408.8235	24926.15	24170.85
811.3857	411.0054	24971.55	24216.6
811.5293	413.1868	25060.2	24301.5
811.673	415.3675	25069	24310.25
811.8166	417.5477	25120.05	24359.65
811.9603	419.7273	25051.7	24289.15
812.104	421.9064	24888.55	24117.95
812.2477	424.0848	24813.95	24048.05
812.3914	426.2627	24691.6	23925.65
812.5351	428.4399	24650.35	23883.05
812.6788	430.6166	24542.65	23771.8
812.8226	432.7928	24525	23751.35
812.9663	434.9683	24399.55	23628.6
813.1101	437.1432	24396.35	23622.65
813.2539	439.3176	24244.85	23471.25
813.3977	441.4914	24194.75	23422.75
813.5415	443.6645	24180.6	23406.55
813.6853	445.8371	24108.45	23334.8
813.8291	448.0091	24014.85	23241.35
813.973	450.1806	23976.1	23200.8
814.1168	452.3514	23909.1	23130
814.2607	454.5216	23889.8	23103.5
814.4046	456.6913	23756.45	22979.2
814.5485	458.8603	23828.8	23049.4
814.6924	461.0288	23815.25	23038.75
814.8363	463.1967	23752.4	22973.6
814.9802	465.3639	23762.75	22982.5
815.1241	467.5306	23704.85	22923.4
815.2681	469.6967	23664.85	22885.5
815.412	471.8622	23641.45	22861
815.556	474.0271	23588.15	22808
815.7	476.1914	23584.55	22801
815.844	478.3551	23553.35	22769.45
815.988	480.5182	23607.6	22821.65
816.132	482.6807	23579.5	22794.55
816.276	484.8426	23588.15	22805.7
816.4201	487.0039	23608.7	22824.6
816.5641	489.1647	23658.6	22870.7
816.7082	491.3248	23721.8	22935.85
816.8522	493.4843	23684.7	22899.3
816.9963	495.6432	23645.15	22855.9
817.1404	497.8015	23611.05	22820.7
817.2845	499.9592	23636.55	22846.65
817.4286	502.1163	23547.95	22756.95
817.5727	504.2728	23470	22677
817.7168	506.4287	23515.85	22725.05
817.861	508.5839	23418.45	22628.2
818.0051	510.7386	23389.75	22599.3
818.1493	512.8927	23425.4	22626.25
818.2935	515.0461	23403.4	22607.95
818.4377	517.199	23367.85	22575.25
818.5818	519.3512	23396.6	22603.95
818.726	521.5029	23421.45	22621
818.8703	523.6539	23425.05	22628.55
819.0145	525.8043	23401.2	22602
819.1587	527.9541	23385.45	22585.75
819.303	530.1033	23286.4	22485.85
819.4472	532.2519	23257.3	22458.7
819.5915	534.3999	23205.05	22401.3
819.7357	536.5472	23178.4	22378.35
819.88	538.694	23182.15	22382.9
820.0243	540.8401	23208.9	22406.2
820.1686	542.9856	23206	22403.25
820.3129	545.1305	23179.6	22375.1
820.4572	547.2748	23223.6	22419.55
820.6016	549.4185	23189.8	22383.45
820.7459	551.5615	23104.35	22298.8
820.8902	553.704	23104.1	22297.55
821.0346	555.8458	23090.6	22284.2
821.1789	557.987	23078.15	22273.2
821.3233	560.1276	23040.8	22233.65
821.4677	562.2675	23148.7	22344.75
821.6121	564.4069	23115.35	22310.7
821.7565	566.5456	23108.85	22302.05
821.9009	568.6837	23085.1	22280.85
822.0453	570.8212	22965.9	22158.5
822.1897	572.958	22885	22076.55
822.3342	575.0942	22848.55	22041.6
822.4786	577.2299	22770.7	21962.8
822.6231	579.3648	22686.85	21878.2
822.7675	581.4992	22552.85	21745.3
822.912	583.6329	22488.4	21681.3
823.0565	585.766	22497.75	21690.15
823.201	587.8985	22497.75	21689.45
823.3454	590.0304	22443.45	21620.2
823.4899	592.1616	22370.2	21554.75
823.6345	594.2922	22371.25	21559.9
823.779	596.4222	22300.95	21485.95
823.9235	598.5515	22241.15	21425.4
824.068	600.6802	22170.25	21355.55
824.2126	602.8083	22011.2	21197.15
824.3571	604.9358	22048.45	21233.25
824.5017	607.0626	21980.9	21166.2
824.6462	609.1888	21937.25	21122.15
824.7908	611.3144	21933.65	21116.1
824.9354	613.4393	21897.4	21080.2
825.08	615.5636	21895.8	21079
825.2246	617.6873	21922.45	21107
825.3692	619.8103	21972.65	21152.35
825.5138	621.9327	21942.8	21120.9
825.6584	624.0544	21887.8	21070.4
825.803	626.1756	21843.7	21025.35
825.9477	628.2961	21778.9	20959.5
826.0923	630.4159	21735.25	20916.3
826.237	632.5351	21722.45	20901.8
826.3816	634.6537	21675.2	20853.6
826.5263	636.7716	21624.85	20799.3
826.6709	638.8889	21622.15	20797.7
826.8156	641.0056	21661.4	20836.35
826.9603	643.1216	21602	20775
827.105	645.237	21687.85	20863.35
827.2497	647.3518	21584.55	20759.8
827.3944	649.4659	21559.95	20736.25
827.5391	651.5793	21512.3	20687.95
827.6838	653.6922	21479.75	20657.4
827.8285	655.8043	21449.85	20625.8
827.9733	657.9159	21422.6	20596.5
828.118	660.0268	21385.45	20557.2
828.2627	662.137	21312.3	20484.9
828.4075	664.2466	21349.6	20519.35
828.5522	666.3556	21292.75	20464.65
828.697	668.4639	21238.45	20408.75
828.8418	670.5716	21244.8	20417.95
828.9865	672.6786	21225.15	20394.05
829.1313	674.785	21153.35	20321.9
829.2761	676.8907	21087.65	20256.65
829.4209	678.9958	21086.3	20259.15
829.5657	681.1002	20971.3	20140.35
829.7105	683.204	20993.2	20160.5
829.8553	685.3072	20952.25	20120.15
830.0001	687.4097	20937.7	20106.5
830.1449	689.5115	20898.7	20065.1
830.2898	691.6127	20933.3	20100.65
830.4346	693.7132	20854.4	20021.55
830.5794	695.8131	20896.9	20056.4
830.7243	697.9123	20892.45	20057.15
830.8691	700.0109	20823.95	19990.2
831.014	702.1089	20770.25	19936.9
831.1588	704.2061	20785.9	19950.9
831.3037	706.3028	20798.35	19964.2
831.4486	708.3987	20782.1	19947.7
831.5935	710.4941	20740.85	19907.6
831.7383	712.5887	20737.05	19898.4
831.8832	714.6827	20712.95	19873.1
832.0281	716.7761	20714.35	19876.9
832.173	718.8688	20683.4	19846.45
832.3179	720.9608	20650.3	19809.5
832.4628	723.0522	20664.5	19823.45
832.6077	725.1429	20619.4	19780
832.7527	727.233	20602.85	19765.2
832.8976	729.3224	20671.25	19830.9
833.0425	731.4112	20585.85	19747.65
833.1874	733.4993	20590.05	19749.6
833.3324	735.5867	20483.4	19644.55
833.4773	737.6735	20436	19595.45
833.6222	739.7596	20399.75	19558.35
833.7672	741.845	20376.75	19534.85
833.9122	743.9298	20327.6	19484.15
834.0571	746.014	20281.85	19442.9
834.2021	748.0974	20239.9	19397.35
834.347	750.1802	20189.1	19347.25
834.492	752.2624	20131.3	19290
834.637	754.3439	20045.65	19201.1
834.782	756.4247	19989	19138.75
834.9269	758.5048	19941.25	19097.2
835.0719	760.5843	19901.75	19058.2
835.2169	762.6631	19847.3	19005.05
835.3619	764.7413	19863.25	19021.65
835.5069	766.8188	19891.9	19044.8
835.6519	768.8956	19831.55	18987.4
835.7969	770.9718	19890.15	19045
835.9419	773.0473	19799.05	18955
836.0869	775.1221	19759.4	18915.1
836.232	777.1962	19700.8	18855.25
836.377	779.2697	19686.65	18840.3
836.522	781.3426	19709.9	18843.15
836.667	783.4147	19696.2	18849.65
836.8121	785.4862	19657.1	18811.05
836.9571	787.557	19616.6	18768.05
837.1021	789.6271	19521.75	18672.95
837.2472	791.6966	19382.2	18535.85
837.3922	793.7654	19283.1	18435.75
837.5373	795.8335	19261.6	18412.9
837.6823	797.901	19205.1	18358.75
837.8274	799.9678	19173.85	18325.3
837.9724	802.0339	19126.05	18281.9
838.1175	804.0993	19124.7	18265.2
838.2626	806.1641	19092.65	18241.4
838.4076	808.2282	19012.95	18163.5
838.5527	810.2916	19002.6	18150.15
838.6978	812.3544	18978.75	18131.5
838.8428	814.4164	18926.85	18079
838.9879	816.4778	18955.75	18104.55
839.133	818.5385	18866.45	18016.3
839.2781	820.5986	18915.5	18067.25
839.4232	822.658	18916.95	18064.65
839.5682	824.7166	18883.55	18035.8
839.7133	826.7747	18972.2	18122.8
839.8584	828.832	18951.7	18101.15
840.0035	830.8886	18893.6	18039.25
840.1486	832.9446	18908.8	18056.95
840.2937	834.9999	18825.45	17975.35
840.4388	837.0545	18820.55	17964.9
840.5839	839.1085	18735.3	17884.05
840.729	841.1618	18657.85	17802.3
840.8741	843.2143	18597.5	17743.9
841.0192	845.2662	18527.45	17676.75
841.1643	847.3175	18511.85	17660.4
841.3095	849.368	18439.65	17587.45
841.4546	851.4179	18465.25	17613.25
841.5997	853.467	18342	17489.4
841.7448	855.5155	18368.9	17517.1
841.8899	857.5633	18309.3	17457.9
842.0351	859.6105	18263.05	17409.55
842.1802	861.6569	18223.6	17370.95
842.3253	863.7027	18205.8	17351.25
842.4704	865.7478	18214.65	17359.4
842.6156	867.7922	18163.5	17309.95
842.7607	869.8359	18139.65	17285.35
842.9058	871.8789	18086.1	17231
843.0509	873.9212	18092.75	17206.8
843.1961	875.9629	18009.3	17152.3
843.3412	878.0039	18041.6	17183.15
843.4863	880.0441	18009.1	17154.15
843.6315	882.0837	18008.25	17151.35
843.7766	884.1226	18006	17146.85
843.9218	886.1609	18007.3	17152.15
844.0669	888.1984	18033.65	17179.9
844.212	890.2352	18078.65	17223
844.3572	892.2714	18067.05	17208.1
844.5023	894.3069	18053.55	17198.15
844.6475	896.3416	17964	17108.65
844.7926	898.3757	17918.2	17060.8
844.9377	900.4091	17861.15	17005.6
845.0829	902.4418	17812.45	16951.75
845.228	904.4739	17785.85	16926.3
845.3732	906.5052	17759.9	16901
845.5183	908.5358	17772.5	16914.95
845.6635	910.5658	17717.7	16858.15
845.8086	912.595	17670.4	16813.95
845.9538	914.6236	17606.15	16747.9
846.0989	916.6515	17565.2	16707.5
846.2441	918.6786	17506.65	16646.1
846.3892	920.7051	17483.65	16620.7
846.5344	922.7309	17478.3	16618.95
846.6795	924.756	17406.7	16547.1
846.8246	926.7804	17411.2	16550.4
846.9698	928.8041	17286.05	16425.55
847.1149	930.8272	17335.7	16475.5
847.2601	932.8495	17246.7	16385.9
847.4052	934.8711	17254.9	16393.3
847.5504	936.892	17236.75	16377.65
847.6955	938.9123	17159.95	16298.2
847.8407	940.9318	17115.5	16253.7
847.9858	942.9506	17088.65	16226.5
848.131	944.9688	17016	16154.85
848.2761	946.9862	17019.05	16158.9
848.4213	949.003	16914.6	16052.65
848.5664	951.019	16838.5	15978.3
848.7115	953.0344	16795	15933.55
848.8567	955.0491	16797.15	15934.1
849.0018	957.063	16773.55	15912.1
849.147	959.0763	16790.35	15927.4
849.2921	961.0888	16703.1	15838.6
849.4373	963.1007	16684.15	15822.65
849.5824	965.1119	16682.8	15822.7
849.7275	967.1223	16665.25	15802.8
849.8727	969.1321	16616.65	15757.1
850.0178	971.1412	16593	15731.15
850.1629	973.1495	16560.7	15697.85
850.3081	975.1572	16557	15648.75
850.4532	977.1641	16510.5	15648.35
850.5983	979.1704	16446.2	15582.8
850.7435	981.1759	16440.2	15574.95
850.8886	983.1808	16423.75	15559.55
851.0337	985.1849	16346.45	15471.8
851.1788	987.1884	16331.6	15466.3
851.324	989.1911	16274.9	15407.6
851.4691	991.1932	16244.6	15379.5
851.6142	993.1945	16192.25	15330
851.7593	995.1951	16137.85	15273.3
851.9045	997.1951	16121.6	15250.85
852.0496	999.1943	16067.45	15206.3
852.1947	1001.1928	15998.5	15134.3
852.3398	1003.1906	15946.25	15083.1
852.4849	1005.1877	15895.25	15030
852.63	1007.1841	15865.85	15001.95
852.7751	1009.1798	15833.8	14969.4
852.9202	1011.1748	15787.55	14922.6
853.0653	1013.1691	15753.95	14886.7
853.2104	1015.1627	15670.45	14804.95
853.3555	1017.1556	15574.85	14709.95
853.5006	1019.1477	15520.3	14654.9
853.6457	1021.1392	15402	14540.6
853.7908	1023.1299	15368.95	14503.65
853.9359	1025.12	15329.95	14463.7
854.081	1027.1093	15255.25	14392.3
854.2261	1029.0979	15212.25	14349.15
854.3712	1031.0859	15205.65	14341.7
854.5163	1033.0731	15169	14303.75
854.6613	1035.0596	15125.95	14261.75
854.8064	1037.0454	15071.1	14204.9
854.9515	1039.0304	15019.45	14152.75
855.0965	1041.0148	14927.6	14061.7
855.2416	1042.9985	14883.1	14015.4
855.3867	1044.9814	14852.15	13987.7
855.5317	1046.9636	14802.2	13934.45
855.6768	1048.9452	14762.05	13898.1
855.8219	1050.926	14771.4	13907.6
855.9669	1052.9061	14729.15	13862.3
856.112	1054.8855	14680.75	13814.3
856.257	1056.8642	14673.15	13806.2
856.4021	1058.8421	14667.4	13796.5
856.5471	1060.8194	14580.55	13714.35
856.6921	1062.7959	14567.3	13701.8
856.8372	1064.7717	14525.3	13658.45
856.9822	1066.7469	14504.6	13636.1
857.1272	1068.7213	14474	13603.65
857.2723	1070.695	14471.05	13607.15
857.4173	1072.6679	14397.85	13528.25
857.5623	1074.6402	14430.95	13562.7
857.7073	1076.6117	14450.85	13578.95
857.8523	1078.5826	14400.25	13532.5
857.9973	1080.5527	14362.75	13494.45
858.1423	1082.5221	14276.45	13410.1
858.2873	1084.4908	14256.45	13390.7
858.4323	1086.4587	14197.35	13328.75
858.5773	1088.426	14153.3	13285
858.7223	1090.3925	14120.25	13247.35
858.8673	1092.3584	14104.2	13234.8
859.0123	1094.3235	14043.15	13176.4
859.1573	1096.2879	14043.4	13173.15
859.3022	1098.2515	14016.85	13150
859.4472	1100.2145	14052.2	13184.65
859.5922	1102.1767	13984.55	13113.6
859.7371	1104.1382	13982.6	13113.75
859.8821	1106.099	14005.05	13134.45
860.027	1108.0591	13966.2	13095.55
860.172	1110.0185	13978.2	13107.4
860.3169	1111.9771	13989.7	13120.75
860.4619	1113.9351	13975.5	13105.4
860.6068	1115.8923	13969.9	13099.3
860.7517	1117.8488	13968.9	13098.05
860.8967	1119.8045	13904.6	13035.5
861.0416	1121.7596	13833.25	12964.55
861.1865	1123.7139	13715.9	12849.55
861.3314	1125.6675	13636.5	12768.1
861.4763	1127.6204	13649.15	12779.65
861.6212	1129.5726	13590	12719
861.7661	1131.524	13586.95	12715.85
861.911	1133.4748	13545.3	12674.05
862.0559	1135.4248	13487.4	12615.55
862.2008	1137.3741	13398.1	12527.85
862.3457	1139.3226	13369.15	12497.15
862.4905	1141.2705	13385.85	12516.15
862.6354	1143.2176	13316.15	12440.4
862.7803	1145.164	13292.05	12421.65
862.9251	1147.1097	13262.75	12391.1
863.07	1149.0546	13266.8	12395
863.2148	1150.9989	13244.2	12372.45
863.3597	1152.9424	13204.95	12334.4
863.5045	1154.8852	13152.15	12281.5
863.6493	1156.8272	13132.4	12260.75
863.7942	1158.7686	13163.85	12285.35
863.939	1160.7092	13116.3	12245.1
864.0838	1162.6491	13077.15	12202.25
864.2286	1164.5883	13070.05	12200.3
864.3734	1166.5267	13051.1	12180.1
864.5182	1168.4644	13028.65	12158.25
864.663	1170.4014	13043.4	12167.15
864.8078	1172.3377	13036.1	12166.25
864.9526	1174.2732	13082.55	12211.95
865.0974	1176.2081	13114	12242.7
865.2421	1178.1421	13198.05	12323.1
865.3869	1180.0755	13239.55	12368.65
865.5317	1182.0082	13233.15	12361.8
865.6764	1183.9401	13197.3	12324.75
865.8212	1185.8713	13127.45	12256.25
865.9659	1187.8017	13007.4	12135.45
866.1106	1189.7315	12951.75	12083.15
866.2554	1191.6605	12820.65	11950.55
866.4001	1193.5888	12746.75	11873.65
866.5448	1195.5163	12688.55	11818.55
866.6895	1197.4432	12645.3	11772.05
866.8342	1199.3693	12594.5	11723.35
866.9789	1201.2947	12560.65	11689.15
867.1236	1203.2193	12482.2	11608.65
867.2683	1205.1432	12469.05	11598.05
867.413	1207.0664	12421.25	11549.05
867.5576	1208.9889	12399.7	11524.65
867.7023	1210.9106	12351.85	11477.65
867.847	1212.8316	12319.1	11446.3
867.9916	1214.7519	12293.65	11412.9
868.1363	1216.6715	12262.5	11392.95
868.2809	1218.5903	12250	11375.8
868.4255	1220.5084	12241.4	11369.25
868.5701	1222.4257	12213.6	11340.85
868.7148	1224.3424	12157.9	11286
868.8594	1226.2583	12191.75	11314.05
869.004	1228.1735	12199.3	11324.55
869.1486	1230.0879	12146	11273.35
869.2932	1232.0016	12149.65	11275.5
869.4377	1233.9146	12150.15	11275.15
869.5823	1235.8269	12094.65	11222.8
869.7269	1237.7384	12117.9	11244.8
869.8715	1239.6492	12041.7	11168.9
870.016	1241.5592	12076.5	11202.95
870.1606	1243.4686	12071.05	11199
870.3051	1245.3772	12123.85	11250.05
870.4496	1247.285	12136.45	11261.8
870.5941	1249.1922	12121.35	11248.3
870.7387	1251.0986	12188.05	11315.05
870.8832	1253.0042	12169.5	11296.3
871.0277	1254.9092	12223.35	11347.55
871.1722	1256.8134	12231.45	11358.1
871.3167	1258.7169	12310.75	11436.5
871.4611	1260.6196	12294.1	11421.95
871.6056	1262.5216	12313	11437.9
871.7501	1264.4229	12268.05	11396.95
871.8945	1266.3234	12243.6	11369.7
872.039	1268.2232	12161.95	11286.6
872.1834	1270.1223	12144.9	11269.2
872.3278	1272.0207	12099.05	11224.1
872.4723	1273.9183	12073.9	11193.7
872.6167	1275.8151	12026.7	11153
872.7611	1277.7113	12016.75	11142.15
872.9055	1279.6067	12064.2	11190.75
873.0499	1281.5014	12122.95	11245.25
873.1943	1283.3953	12221.75	11346.45
873.3386	1285.2885	12341.75	11466.7
873.483	1287.181	12433	11557.45
873.6274	1289.0727	12514.7	11642.6
873.7717	1290.9637	12436.7	11561.35
873.9161	1292.854	12353.35	11477.1
874.0604	1294.7435	12240.9	11365.65
874.2047	1296.6323	12151.95	11277.6
874.349	1298.5204	12106.6	11228.05
874.4933	1300.4077	12025.7	11151.65
874.6376	1302.2943	11991.55	11118.2
874.7819	1304.1802	11970.05	11098.15
874.9262	1306.0653	11940.8	11063.75
875.0705	1307.9497	11887.15	11011.7
875.2147	1309.8333	11838.65	10964.1
875.359	1311.7162	11840.35	10965.1
875.5032	1313.5984	11793.55	10915.55
875.6475	1315.4798	11742.45	10856.8
875.7917	1317.3605	11728.2	10838.5
875.9359	1319.2405	11728.45	10851.5
876.0801	1321.1197	11679	10801.05
876.2243	1322.9982	11630.55	10750.35
876.3685	1324.876	11596.05	10720.2
876.5127	1326.753	11523.4	10645.5
876.6569	1328.6293	11432.15	10556.45
876.801	1330.5048	11394.85	10518.45
876.9452	1332.3796	11295.25	10420.2
877.0893	1334.2537	11303.85	10404.2
877.2335	1336.127	11206.2	10330.55
877.3776	1337.9996	11199.9	10323.95
877.5217	1339.8714	11142.65	10267.85
877.6658	1341.7426	11147	10228.5
877.8099	1343.6129	11094.65	10219.35
877.954	1345.4826	11059.8	10182.4
878.0981	1347.3515	11050.95	10172.2
878.2422	1349.2196	11011.3	10134.9
878.3862	1351.087	11027.4	10152.7
878.5303	1352.9537	10970.25	10095.95
878.6743	1354.8197	10998.35	10122.6
878.8184	1356.6849	11001	10125.5
878.9624	1358.5493	10971.9	10097.9
879.1064	1360.4131	10984.3	10109.6
879.2504	1362.276	10989	10115.95
879.3944	1364.1383	10980	10105.5
879.5384	1365.9998	10945.2	10063.55
879.6823	1367.8606	10917.85	10040.85
879.8263	1369.7206	10895.3	10019.45
879.9702	1371.5799	10900.45	10022.75
880.1142	1373.4384	10849.85	9973.25
880.2581	1375.2962	10823.9	9946.1
880.402	1377.1533	10739.95	9864.85
880.5459	1379.0096	10662.05	9785.65
880.6898	1380.8652	10644.3	9767.25
880.8337	1382.7201	10580.05	9704.6
880.9776	1384.5742	10506.65	9629.4
881.1215	1386.4275	10462.3	9585.1
881.2653	1388.2802	10410.5	9534.4
881.4092	1390.132	10370.1	9493.25
881.553	1391.9832	10373.35	9495.55
881.6968	1393.8336	10297.3	9421.05
881.8406	1395.6832	10284.9	9406
881.9844	1397.5322	10253.4	9377
882.1282	1399.3803	10223.05	9343.2
882.272	1401.2278	10165.6	9289.15
882.4158	1403.0745	10133.1	9254.65
882.5595	1404.9204	10081.45	9206.45
882.7033	1406.7656	10081.1	9203.15
882.847	1408.6101	10054	9175.5
882.9908	1410.4538	9991.55	9114.2
883.1345	1412.2968	9975.5	9098
883.2782	1414.139	9947.35	9071.95
883.4219	1415.9805	9930.8	9054.6
883.5656	1417.8213	9901.1	9003.95
883.7092	1419.6613	9902.6	9027.45
883.8529	1421.5006	9858.7	8979.95
883.9965	1423.3391	9869.7	8992.4
884.1402	1425.1769	9889.45	9013.25
884.2838	1427.0139	9886.6	9010.4
884.4274	1428.8502	9942.85	9064.25
884.571	1430.6858	9977.55	9101.8
884.7146	1432.5206	9966.6	9090
884.8582	1434.3547	9951.6	9075.85
885.0018	1436.188	9926.1	9049.9
885.1453	1438.0206	9898.55	9020.85
885.2889	1439.8524	9863.6	8985.45
885.4324	1441.6835	9840.9	8964.7
885.5759	1443.5139	9836.3	8956.25
885.7194	1445.3435	9796.7	8920.4
885.8629	1447.1724	9800.85	8925.6
886.0064	1449.0005	9792.9	8916.35
886.1499	1450.8279	9751.65	8874.05
886.2933	1452.6545	9745.25	8868.45
886.4368	1454.4804	9737.45	8860.95
886.5802	1456.3056	9707.9	8823.2
886.7237	1458.13	9692.45	8816.5
886.8671	1459.9536	9669	8791.35
887.0105	1461.7766	9615.25	8739.15
887.1539	1463.5987	9592.85	8714.4
887.2972	1465.4202	9554.05	8677.55
887.4406	1467.2409	9498	8621.1
887.584	1469.0608	9493.55	8617.35
887.7273	1470.88	9424.75	8546.5
887.8706	1472.6984	9394.55	8518.35
888.0139	1474.5161	9342.75	8464.15
888.1572	1476.3331	9308	8432.4
888.3005	1478.1493	9303.35	8425.55
888.4438	1479.9648	9288.45	8412.45
888.5871	1481.7795	9261.05	8382
888.7303	1483.5935	9249.2	8371.35
888.8736	1485.4067	9243.75	8365.9
889.0168	1487.2192	9232.4	8356.85
889.16	1489.031	9227.65	8348.35
889.3032	1490.842	9177.4	8301.1
889.4464	1492.6522	9189.2	8311.85
889.5896	1494.4618	9170.65	8292.85
889.7327	1496.2705	9130.95	8255.3
889.8759	1498.0785	9115.5	8237.2
890.019	1499.8858	9085.2	8206.55
890.1622	1501.6924	9047	8169.6
890.3053	1503.4981	9055.1	8176.4
890.4484	1505.3032	9022.1	8145.15
890.5914	1507.1075	8993.05	8114.6
890.7345	1508.911	8962.1	8084.25
890.8776	1510.7138	8951.6	8074.4
891.0206	1512.5159	8909.6	8033.3
891.1637	1514.3172	8879.7	8003.25
891.3067	1516.1178	8848.45	7973.95
891.4497	1517.9176	8844.6	7965.85
891.5927	1519.7166	8814.75	7939.3
891.7357	1521.515	8807.95	7924.9
891.8786	1523.3126	8759.25	7880.05
892.0216	1525.1094	8728.4	7850.4
892.1645	1526.9055	8715.9	7839.85
892.3074	1528.7008	8680.1	7803.6
892.4503	1530.4954	8630.4	7751.6
892.5932	1532.2893	8610.75	7734.4
892.7361	1534.0824	8559.05	7676.2
892.879	1535.8747	8569.65	7692
893.0218	1537.6663	8537.75	7660
893.1647	1539.4572	8468.75	7590.3
893.3075	1541.2473	8470.85	7592.8
893.4503	1543.0367	8440.1	7563.75
893.5931	1544.8253	8386.3	7505.3
893.7359	1546.6132	8383.8	7504.25
893.8787	1548.4003	8363.05	7476.35
894.0214	1550.1867	8339.8	7453.75
894.1642	1551.9723	8346.7	7465.1
894.3069	1553.7572	8326.4	7446.4
894.4496	1555.5414	8293.2	7413.85
894.5923	1557.3247	8312.95	7434.9
894.735	1559.1074	8314.75	7439.6
894.8777	1560.8893	8292.95	7416.9
895.0204	1562.6705	8276.6	7400.3
895.163	1564.4509	8280.55	7403.8
895.3056	1566.2305	8287.9	7411.95
895.4482	1568.0094	8263.9	7387.25
895.5908	1569.7876	8242.2	7365.7
895.7334	1571.565	8220.45	7342.55
895.876	1573.3417	8211.95	7335.85
896.0186	1575.1176	8193.1	7317.55
896.1611	1576.8928	8172.15	7295.25
896.3036	1578.6672	8147.2	7271.7
896.4461	1580.4409	8149.1	7274.85
896.5886	1582.2138	8161.55	7281.8
896.7311	1583.986	8152.55	7275.8
896.8736	1585.7575	8164.55	7287.3
897.0161	1587.5282	8166.25	7291.75
897.1585	1589.2981	8184.6	7306.7
897.3009	1591.0673	8146.2	7269.55
897.4433	1592.8358	8131.1	7256.3
897.5857	1594.6035	8115.55	7238.55
897.7281	1596.3704	8077.45	7200.9
897.8705	1598.1366	8071.2	7195.45
898.0128	1599.9021	8002.15	7125.25
898.1551	1601.6668	7933.45	7055.45
898.2975	1603.4308	7896.45	7020.45
898.4398	1605.194	7893.25	7011.4
898.5821	1606.9564	7885.7	7009.9
898.7243	1608.7182	7900.15	7020.45
898.8666	1610.4791	7936.65	7062.55
899.0088	1612.2394	7958.65	7086.8
899.1511	1613.9988	8012.35	7137.3
899.2933	1615.7576	8057.5	7182.4
899.4355	1617.5156	8092.6	7211.5
899.5776	1619.2728	8050.3	7173.9
899.7198	1621.0293	7971.1	7094.35
899.862	1622.785	7882.7	7003.6
900.0041	1624.54	7749.1	6869.65
900.1462	1626.2942	7642.2	6765.1
900.2883	1628.0477	7544.25	6665.8
900.4304	1629.8005	7452.5	6572.55
900.5725	1631.5525	7395.55	6518.8
900.7145	1633.3037	7330.85	6452.5
900.8566	1635.0542	7312.05	6436.35
900.9986	1636.804	7237.2	6361.35
901.1406	1638.553	7258.2	6299.05
901.2826	1640.3013	7166.75	6290.45
901.4245	1642.0488	7141.6	6265.35
901.5665	1643.7955	7097.45	6221
901.7085	1645.5416	7087.95	6209.9
901.8504	1647.2868	7031.9	6156
901.9923	1649.0313	7015.3	6139.35
902.1342	1650.7751	6989.85	6111.1
902.2761	1652.5181	6985.95	6111.05
902.4179	1654.2604	6933.2	6057.1
902.5598	1656.0019	6929.1	6054.4
902.7016	1657.7427	6911.1	6034.15
902.8434	1659.4828	6917.65	6041.75
902.9852	1661.222	6923.4	6044.2
903.127	1662.9606	6929.2	6053.05
903.2687	1664.6984	6921.15	6043.5
903.4105	1666.4354	6896.65	6018.3
903.5522	1668.1717	6889.3	6011.9
903.6939	1669.9072	6823.65	5946.5
903.8356	1671.642	6770	5890.4
903.9773	1673.3761	6731.6	5855.85
904.119	1675.1094	6685.75	5809.4
904.2606	1676.8419	6639.9	5762.3
904.4022	1678.5737	6613.3	5735.8
904.5439	1680.3048	6582.5	5704.6
904.6855	1682.0351	6538.9	5662.9
904.827	1683.7646	6502.3	5623.95
904.9686	1685.4934	6489.9	5613.65
905.1101	1687.2215	6444.7	5568.2
905.2517	1688.9488	6432.45	5554.85
905.3932	1690.6754	6400.65	5524.3
905.5347	1692.4012	6390.2	5512.3
905.6761	1694.1263	6362.95	5484.9
905.8176	1695.8506	6361.95	5484.65
905.9591	1697.5742	6315.85	5439.4
906.1005	1699.297	6290.2	5415.75
906.2419	1701.0191	6250.25	5372.95
906.3833	1702.7404	6228.3	5354.3
906.5246	1704.461	6208.2	5331.95
906.666	1706.1808	6182.45	5303.55
906.8073	1707.8999	6159.85	5282.5
906.9487	1709.6182	6136.8	5258.45
907.09	1711.3358	6125.4	5249.55
907.2313	1713.0527	6121.05	5247.35
907.3725	1714.7688	6097.35	5214.35
907.5138	1716.4841	6071.4	5196.1
907.655	1718.1987	6057.5	5172.95
907.7962	1719.9126	6048.4	5174.3
907.9374	1721.6257	6038.9	5162.8
908.0786	1723.338	6028.85	5150.95
908.2198	1725.0496	5998.8	5122
908.3609	1726.7605	5989.6	5111.15
908.502	1728.4706	5971	5091.9
908.6431	1730.18	5937.4	5060.45
908.7842	1731.8886	5938.6	5061.05
908.9253	1733.5964	5939.4	5042.3
909.0664	1735.3036	5937.1	5056.8
909.2074	1737.0099	5916.2	5039.25
909.3484	1738.7156	5911.65	5036.6
909.4894	1740.4204	5892.55	5011.25
909.6304	1742.1246	5881.15	5003.45
909.7714	1743.8279	5868.05	4992.95
909.9123	1745.5306	5866.25	4989.2
910.0532	1747.2325	5856.9	4981.9
910.1941	1748.9336	5836.9	4961.2
910.335	1750.634	5814.6	4936.65
910.4759	1752.3336	5811	4935.35
910.6168	1754.0325	5801.4	4926.8
910.7576	1755.7307	5805.8	4932.2
910.8984	1757.4281	5793.9	4917.7
911.0392	1759.1247	5799.2	4915.15
911.18	1760.8206	5786.6	4907.65
911.3208	1762.5158	5797.95	4917.45
911.4615	1764.2102	5762.35	4888.6
911.6022	1765.9039	5728	4851
911.7429	1767.5968	5714.65	4838.3
911.8836	1769.289	5697.25	4820.15
912.0243	1770.9804	5704.4	4825.3
912.1649	1772.6711	5699.4	4822.8
912.3056	1774.361	5677.95	4799.9
912.4462	1776.0502	5663.8	4786.8
912.5868	1777.7386	5665.45	4787.2
912.7274	1779.4263	5656.55	4779.6
912.8679	1781.1132	5660.55	4784.8
913.0084	1782.7994	5625.05	4746.9
913.149	1784.4849	5610.8	4736.2
913.2895	1786.1696	5615.55	4720.55
913.4299	1787.8535	5597.8	4722.6
913.5704	1789.5367	5566.7	4690.4
913.7108	1791.2192	5565.4	4686.9
913.8513	1792.9009	5576.35	4681.05
913.9917	1794.5818	5556.25	4678.95
914.132	1796.2621	5536.05	4660.35
914.2724	1797.9415	5507.35	4630.75
914.4128	1799.6202	5506.85	4629.7
914.5531	1801.2982	5487.05	4610.35
914.6934	1802.9755	5503.75	4626.85
914.8337	1804.6519	5471.7	4592.8
914.9739	1806.3277	5457.2	4580.9
915.1142	1808.0027	5425.05	4550.05
915.2544	1809.6769	5433.5	4556.25
915.3946	1811.3504	5396	4519.35
915.5348	1813.0231	5407.95	4528
915.675	1814.6951	5399.25	4522.45
915.8151	1816.3664	5393.25	4512.75
915.9553	1818.0369	5386.8	4509.35
916.0954	1819.7067	5353.45	4478.65
916.2355	1821.3757	5359.25	4478.65
916.3755	1823.044	5340.1	4466.8
916.5156	1824.7115	5340	4463.4
916.6556	1826.3783	5320.85	4445.35
916.7956	1828.0443	5307.1	4430.75
916.9356	1829.7096	5283.95	4405.7
917.0756	1831.3741	5290.4	4411.35
917.2155	1833.0379	5288.8	4414.85
917.3555	1834.701	5277.45	4398.8
917.4954	1836.3633	5279.5	4402.8
917.6353	1838.0248	5234.65	4355.95
917.7751	1839.6856	5249.2	4372.5
917.915	1841.3457	5219.6	4345.5
918.0548	1843.005	5231.25	4352.45
918.1946	1844.6636	5213.05	4338.55
918.3344	1846.3214	5219.8	4342.05
918.4742	1847.9785	5221.2	4346.3
918.6139	1849.6349	5192.6	4317
918.7537	1851.2904	5197.4	4312.4
918.8934	1852.9453	5163	4287.65
919.0331	1854.5994	5136.15	4256.25
919.1727	1856.2528	5157.1	4274.9
919.3124	1857.9054	5127.3	4249.25
919.452	1859.5572	5120.05	4243.75
919.5916	1861.2083	5123.7	4245.6
919.7312	1862.8587	5115.95	4240.45
919.8708	1864.5084	5075.05	4197.2
920.0103	1866.1572	5095.55	4221.25
920.1498	1867.8054	5084.5	4205.5
920.2893	1869.4528	5062.65	4185.3
920.4288	1871.0994	5049.5	4174.25
920.5683	1872.7453	5040.05	4161.3
920.7077	1874.3905	5038.9	4154.25
920.8471	1876.0349	5018.9	4142.45
920.9865	1877.6786	5009.6	4131.8
921.1259	1879.3215	5014.6	4137.75
921.2653	1880.9637	5011.55	4132.2
921.4046	1882.6051	5010.05	4135.85
921.5439	1884.2458	4983.25	4104.4
921.6832	1885.8858	4962.9	4088.2
921.8225	1887.525	4977.1	4098.5
921.9617	1889.1634	4951	4072.05
922.101	1890.8011	4937.2	4063.15
922.2402	1892.4381	4935.7	4058.8
922.3794	1894.0743	4915.3	4039.75
922.5185	1895.7098	4912.1	4037.15
922.6577	1897.3446	4899.4	4022.85
922.7968	1898.9786	4893.25	4013.1
922.9359	1900.6118	4873.15	3997.4
923.075	1902.2443	4863.05	3982.9
923.214	1903.8761	4847.9	3970.35
923.3531	1905.5071	4818.95	3939.8
923.4921	1907.1374	4846.1	3968.9
923.6311	1908.7669	4822.1	3944.45
923.77	1910.3957	4791.25	3913.95
923.909	1912.0237	4773.1	3895.2
924.0479	1913.651	4769.55	3893.65
924.1868	1915.2776	4769.35	3894.6
924.3257	1916.9034	4748.15	3873.2
924.4646	1918.5285	4734.5	3859.75
924.6034	1920.1528	4702.85	3825.85
924.7422	1921.7764	4693.35	3816.2
924.881	1923.3992	4691.2	3815.55
925.0198	1925.0213	4688.6	3812.25
925.1586	1926.6427	4663.35	3788.25
925.2973	1928.2633	4843.9	3750.45
925.436	1929.8832	4682.05	3801.15
925.5747	1931.5023	4636.25	3760.95
925.7134	1933.1207	4636.6	3758.7
925.852	1934.7383	4614.15	3736.45
925.9906	1936.3552	4613.75	3736.95
926.1292	1937.9714	4592.85	3715.95
926.2678	1939.5868	4575.15	3696.15
926.4064	1941.2015	4570.5	3694.95
926.5449	1942.8154	4553.3	3677.65
926.6834	1944.4286	4550.5	3675.5
926.8219	1946.041	4536.75	3636.4
926.9604	1947.6528	4527.35	3645.65
927.0988	1949.2637	4512.05	3638.85
927.2372	1950.8739	4492.25	3614.9
927.3756	1952.4834	4491.25	3614.45
927.514	1954.0921	4490.2	3612.75
927.6523	1955.7001	4476	3596.75
927.7907	1957.3074	4444.5	3569.4
927.929	1958.9139	4426	3552.15
928.0673	1960.5197	4432.3	3554.25
928.2055	1962.1247	4425.3	3548.7
928.3438	1963.729	4418.4	3543.25
928.482	1965.3325	4413.65	3514.55
928.6202	1966.9353	4387.4	3513.3
928.7584	1968.5374	4381.9	3505.1
928.8965	1970.1387	4370.1	3493.25
929.0346	1971.7393	4354.9	3479.15
929.1727	1973.3392	4340.55	3465.2
929.3108	1974.9383	4316.25	3441.8
929.4489	1976.5366	4322.6	3446.55
929.5869	1978.1342	4314.15	3437.4
929.7249	1979.7311	4311.35	3435.65
929.8629	1981.3273	4301.65	3424.05
930.0009	1982.9227	4283.5	3404.9
930.1388	1984.5173	4278.55	3404.4
930.2767	1986.1112	4261.85	3387.45
930.4146	1987.7044	4264.85	3389.8
930.5525	1989.2968	4243.75	3366.4
930.6904	1990.8885	4258.45	3380.95
930.8282	1992.4795	4238.75	3362.95
930.966	1994.0697	4233.4	3358.05
931.1038	1995.6592	4216.25	3339.9
931.2415	1997.2479	4209	3332.55
931.3793	1998.8359	4207.85	3332.45
931.517	2000.4232	4197.65	3321.55
931.6547	2002.0097	4179	3305.3
931.7923	2003.5955	4164.65	3287.75
931.93	2005.1805	4163.75	3285.85
932.0676	2006.7648	4163.8	3287.75
932.2052	2008.3484	4166	3288.4
932.3427	2009.9312	4179	3302.2
932.4803	2011.5133	4140	3265.75
932.6178	2013.0946	4133.75	3259.05
932.7553	2014.6752	4124.1	3249
932.8928	2016.2551	4120.5	3242.9
933.0302	2017.8342	4109	3235.25
933.1676	2019.4126	4092	3216.35
933.305	2020.9902	4097.65	3221.6
933.4424	2022.5672	4073.15	3196.75
933.5798	2024.1433	4083.4	3204.2
933.7171	2025.7188	4055.5	3180.65
933.8544	2027.2935	4045.4	3169.3
933.9917	2028.8674	4041.15	3166.35
934.129	2030.4406	4032.6	3157.4
934.2662	2032.0131	4017.05	3142.85
934.4034	2033.5849	4019.85	3140.9
934.5406	2035.1559	4017.55	3141.3
934.6778	2036.7261	4016.95	3143.9
934.8149	2038.2957	4004.45	3128.95
934.952	2039.8645	4004.25	3129.6
935.0891	2041.4325	4005.05	3127.5
935.2262	2042.9998	3993.6	3118.9
935.3632	2044.5664	3979.95	3102.9
935.5002	2046.1323	3973.3	3099.5
935.6372	2047.6974	3963.8	3089.2
935.7742	2049.2617	3964.2	3089.45
935.9111	2050.8254	3985.75	3088.75
936.048	2052.3883	3950.95	3075.5
936.1849	2053.9504	3944	3068.35
936.3218	2055.5118	3946	3069.9
936.4586	2057.0725	3935.3	3055.15
936.5955	2058.6325	3920.05	3043.95
936.7323	2060.1917	3922.8	3047.7
936.869	2061.7502	3914.2	3037.5
937.0058	2063.3079	3890.75	3015.7
937.1425	2064.8649	3892.5	3015.9
937.2792	2066.4212	3888.75	3011.65
937.4159	2067.9767	3879.95	3006.45
937.5525	2069.5315	3877.15	3002.55
937.6891	2071.0856	3868.65	2992.65
937.8257	2072.6389	3859.3	2984.95
937.9623	2074.1915	3857	2983.55
938.0989	2075.7433	3842.6	2964.25
938.2354	2077.2945	3830.95	2955.4
938.3719	2078.8448	3823.25	2947.95
938.5084	2080.3945	3810.95	2936.15
938.6448	2081.9434	3809.8	2934.4
938.7812	2083.4916	3814.95	2940.25
938.9176	2085.039	3793.05	2915.6
939.054	2086.5857	3781.1	2904.7
939.1903	2088.1317	3786.85	2910.6
939.3267	2089.677	3777.5	2900.35
939.463	2091.2215	3783.3	2907.6
939.5992	2092.7652	3768.1	2890.5
939.7355	2094.3083	3758.75	2881.15
939.8717	2095.8506	3756.4	2881.85
940.0079	2097.3921	3754.6	2879.95
940.1441	2098.933	3761.9	2887.1
940.2802	2100.4731	3756.1	2880.9
940.4163	2102.0124	3761.3	2867.85
940.5524	2103.5511	3753.5	2879.65
940.6885	2105.089	3741.1	2865.15
940.8245	2106.6261	3731.55	2855.65
940.9606	2108.1626	3722.75	2846.6
941.0965	2109.6983	3736.15	2831.85
941.2325	2111.2332	3703.3	2828.6
941.3684	2112.7675	3707.35	2830.75
941.5044	2114.301	3692.25	2814.7
941.6403	2115.8337	3695.5	2820.8
941.7761	2117.3657	3689.45	2813.65
941.912	2118.897	3699.9	2825
942.0478	2120.4276	3690.55	2809.5
942.1835	2121.9575	3673.1	2796.55
942.3193	2123.4866	3691.7	2814.7
942.455	2125.0149	3673.2	2794.75
942.5907	2126.5426	3645.05	2769.8
942.7264	2128.0695	3664.5	2785.65
942.8621	2129.5956	3648.5	2773.6
942.9977	2131.1211	3638.95	2758.65
943.1333	2132.6458	3636.45	2762.6
943.2689	2134.1698	3626.15	2752.3
943.4044	2135.693	3630.15	2751.9
943.54	2137.2155	3607.45	2728.45
943.6755	2138.7373	3610.3	2735.4
943.8109	2140.2584	3613.95	2738.55
943.9464	2141.7787	3604.7	2722.25
944.0818	2143.2983	3591.15	2716.75
944.2172	2144.8171	3577.2	2701.95
944.3526	2146.3353	3574.7	2699.95
944.4879	2147.8527	3566	2690.8
944.6232	2149.3693	3559.6	2684.5
944.7585	2150.8853	3548.55	2671.4
944.8938	2152.4005	3534.15	2657.25
945.029	2153.9149	3543.9	2668.05
945.1642	2155.4287	3521.15	2646.2
945.2994	2156.9417	3523.1	2646.45
945.4346	2158.454	3530.8	2653.55
945.5697	2159.9655	3514.4	2639.65
945.7048	2161.4764	3504.25	2630.05
945.8399	2162.9865	3497.25	2623.15
945.9749	2164.4958	3482.95	2605.2
946.1099	2166.0045	3494.95	2617.85
946.2449	2167.5124	3492.5	2617.2
946.3799	2169.0195	3473.5	2598.4
946.5148	2170.526	3484.3	2608
946.6498	2172.0317	3476.8	2597.4
946.7846	2173.5367	3471.8	2595.95
946.9195	2175.0409	3454.95	2579.65
947.0543	2176.5445	3444.1	2569.9
947.1891	2178.0473	3438	2563.25
947.3239	2179.5494	3424.5	2545
947.4587	2181.0507	3412	2537.4
947.5934	2182.5513	3416.15	2540.4
947.7281	2184.0512	3417.45	2542.5
947.8628	2185.5504	3407.85	2532.35
947.9974	2187.0488	3387	2511.75
948.132	2188.5465	3387.15	2511.55
948.2666	2190.0435	3383.4	2507.8
948.4012	2191.5397	3363.55	2487.45
948.5357	2193.0353	3361.4	2486.6
948.6702	2194.5301	3356.05	2480
948.8047	2196.0241	3333.65	2456.15
948.9392	2197.5175	3335.1	2460.3
949.0736	2199.0101	3341.55	2462.65
949.208	2200.502	3310.8	2437.5
949.3424	2201.9931	3309.7	2434.1
949.4767	2203.4835	3303.7	2426.8
949.611	2204.9733	3303.1	2421.85
949.7453	2206.4622	3276.6	2402.95
949.8796	2207.9505	3279.15	2400.15
950.0138	2209.438	3277.3	2402
950.148	2210.9248	3259.15	2381.3
950.2822	2212.4109	3256.25	2381.5
950.4164	2213.8962	3253.45	2375.75
950.5505	2215.3809	3254.05	2377.25
950.6846	2216.8648	3238.85	2361.9
950.8186	2218.3479	3237.9	2358
950.9527	2219.8304	3231.25	2354.1
951.0867	2221.3121	3228.75	2351.8
951.2207	2222.7931	3220.6	2345.95
951.3546	2224.2733	3204.2	2328.5
951.4886	2225.7529	3186.6	2311.15
951.6225	2227.2317	3190.6	2312.7
951.7563	2228.7098	3195.6	2320.55
951.8902	2230.1872	3172.25	2297
952.024	2231.6638	3169.45	2293.85
952.1578	2233.1397	3158.05	2276.4
952.2916	2234.6149	3164.75	2290.7
952.4253	2236.0894	3147.75	2271.5
952.559	2237.5632	3149.45	2265.75
952.6927	2239.0362	3124.35	2248.95
952.8263	2240.5085	3120	2244.75
952.9599	2241.9801	3120.1	2243
953.0935	2243.4509	3116	2242.05
953.2271	2244.921	3106.8	2231.4
953.3606	2246.3904	3102.7	2224.6
953.4941	2247.8591	3102.05	2226.85
953.6276	2249.3271	3081.7	2206.5
953.7611	2250.7943	3084.75	2208.4
953.8945	2252.2608	3059.35	2184.3
954.0279	2253.7266	3065.15	2189.85
954.1612	2255.1917	3057.1	2182.65
954.2946	2256.656	3044.7	2168.3
954.4279	2258.1197	3045.55	2169.5
954.5612	2259.5826	3033.05	2155.2
954.6944	2261.0447	3023.75	2146
954.8276	2262.5062	3019.75	2141.8
954.9608	2263.9669	3007.4	2130.65
955.094	2265.4269	3012.45	2135.2
955.2271	2266.8862	3004.8	2129.75
955.3602	2268.3448	3005.05	2129.05
955.4933	2269.8026	2986.6	2110.2
955.6264	2271.2598	2989.6	2113.7
955.7594	2272.7162	2984.6	2109
955.8924	2274.1719	2981.05	2106.7
956.0253	2275.6268	2972.35	2096.8
956.1583	2277.0811	2976.2	2099.1
956.2912	2278.5346	2967	2093.05
956.4241	2279.9874	2952.5	2078.05
956.5569	2281.4395	2949.75	2074.8
956.6897	2282.8908	2949.15	2069.85
956.8225	2284.3414	2949.5	2071.3
956.9553	2285.7914	2942.6	2066.3
957.088	2287.2406	2934	2056.7
957.2207	2288.689	2922.25	2047.1
957.3534	2290.1368	2918.55	2042.65
957.486	2291.5838	2914.25	2036.6
957.6186	2293.0302	2899.3	2021.9
957.7512	2294.4758	2888.85	2013
957.8838	2295.9206	2879.4	2001.35
958.0163	2297.3648	2879.1	2001.75
958.1488	2298.8082	2878.4	2002
958.2813	2300.251	2874.2	1999.35
958.4137	2301.693	2874.35	1995.5
958.5461	2303.1343	2869.05	1990.7
958.6785	2304.5748	2854.75	1980.25
958.8108	2306.0147	2833.35	1957.65
958.9432	2307.4538	2831.7	1952.9
959.0754	2308.8922	2822.9	1948.75
959.2077	2310.3299	2824.45	1947.85
959.3399	2311.7669	2821.05	1947.2
959.4721	2313.2031	2810.25	1934.6
959.6043	2314.6387	2805.75	1929.45
959.7365	2316.0735	2809.25	1931.65
959.8686	2317.5076	2793.5	1917.2
960.0006	2318.941	2795.95	1919.8
960.1327	2320.3737	2785.5	1908.4
960.2647	2321.8056	2786.25	1911.7
960.3967	2323.2369	2782.6	1904.05
960.5287	2324.6674	2785.2	1908.75
960.6606	2326.0972	2770.9	1892.1
960.7925	2327.5263	2768.9	1893.9
960.9244	2328.9547	2750.35	1874.95
961.0562	2330.3823	2744.65	1868.5
961.1881	2331.8092	2745.35	1867.45
961.3198	2333.2355	2741.25	1865.3
961.4516	2334.661	2739.2	1863.3
961.5833	2336.0858	2719.5	1842.2
961.715	2337.5098	2721.75	1845
961.8467	2338.9332	2721.65	1845.35
961.9783	2340.3558	2705.15	1825.45
962.1099	2341.7778	2698.6	1822.8
962.2415	2343.199	2706.2	1827.4
962.373	2344.6195	2696.6	1822
962.5045	2346.0393	2673.65	1798
962.636	2347.4583	2682.85	1807.95
962.7675	2348.8767	2668.9	1793
962.8989	2350.2943	2660.1	1783.15
963.0303	2351.7113	2673.9	1797.9
963.1617	2353.1275	2656.95	1781.9
963.293	2354.543	2655.85	1773.4
963.4243	2355.9578	2640.25	1763
963.5556	2357.3718	2632.5	1755.75
963.6868	2358.7852	2618.5	1741.05
963.818	2360.1978	2622.9	1744.65
963.9492	2361.6098	2621.65	1746.1
964.0803	2363.021	2620.9	1742.65
964.2114	2364.4315	2609.45	1733.55
964.3425	2365.8413	2618.25	1736.55
964.4736	2367.2504	2585	1710.45
964.6046	2368.6587	2578.2	1702
964.7356	2370.0664	2571.8	1694.25
964.8666	2371.4733	2581	1702.05
964.9975	2372.8795	2562.25	1686.8
965.1284	2374.285	2554.55	1677.5
965.2593	2375.6899	2546.7	1671.7
965.3901	2377.0939	2528.9	1653.35
965.5209	2378.4973	2531.35	1653.75
965.6517	2379.9	2530.1	1652.55
965.7825	2381.3019	2525.95	1649.75
965.9132	2382.7032	2522	1645.85
966.0439	2384.1037	2525.5	1650.9
966.1745	2385.5035	2510.3	1633.9
966.3051	2386.9027	2503.05	1628.6
966.4357	2388.3011	2500.95	1621.8
966.5663	2389.6987	2495.25	1620.5
966.6968	2391.0957	2486.9	1611.7
966.8273	2392.492	2476.8	1598.9
966.9578	2393.8876	2467.55	1591
967.0882	2395.2824	2456.05	1579.8
967.2186	2396.6765	2449.85	1573.7
967.349	2398.07	2447.95	1570.7
967.4793	2399.4627	2442.8	1565.05
967.6097	2400.8547	2438.45	1563.5
967.7399	2402.246	2433.75	1551.4
967.8702	2403.6366	2427.25	1549.8
968.0004	2405.0265	2410.95	1536.45
968.1306	2406.4156	2411.4	1530.05
968.2607	2407.8041	2402.3	1522.5
968.3909	2409.1918	2388.7	1509.2
968.521	2410.5789	2391.2	1514.35
968.651	2411.9652	2392.25	1511.35
968.781	2413.3508	2389.25	1512.4
968.911	2414.7358	2374.35	1499.5
969.041	2416.12	2366.75	1491.65
969.1709	2417.5035	2354.55	1477.6
969.3008	2418.8863	2352.75	1474
969.4307	2420.2684	2350.2	1474
969.5606	2421.6497	2340.75	1462.85
969.6904	2423.0304	2327.3	1450.4
969.8201	2424.4104	2333.45	1456.5
969.9499	2425.7896	2325.45	1446.2
970.0796	2427.1682	2316.9	1442.2
970.2093	2428.546	2320.75	1443.95
970.3389	2429.9232	2310.4	1433.05
970.4685	2431.2996	2308.5	1432.4
970.5981	2432.6753	2306.55	1432.7
970.7277	2434.0503	2305.6	1429.9
970.8572	2435.4246	2296.05	1419.8
970.9867	2436.7982	2281.5	1403
971.1161	2438.1711	2278.3	1403.4
971.2456	2439.5433	2274.45	1398.7
971.375	2440.9148	2278.6	1398.95
971.5043	2442.2856	2275.55	1399.2
971.6336	2443.6557	2265.4	1385.8
971.7629	2445.025	2258.85	1381.4
971.8922	2446.3937	2252.8	1375.75
972.0214	2447.7617	2246.3	1370.3
972.1506	2449.1289	2247.3	1370.35
972.2798	2450.4955	2246.4	1364.4
972.4089	2451.8613	2241.15	1365.2
972.538	2453.2265	2227.05	1349.7
972.6671	2454.5909	2220.3	1344
972.7961	2455.9546	2226.05	1352.05
972.9251	2457.3177	2215.95	1339.8
973.0541	2458.68	2219.85	1341.7
973.1831	2460.0416	2214.8	1338.5
973.312	2461.4025	2196.25	1318.75
973.4408	2462.7627	2211.45	1322
973.5697	2464.1222	2201.7	1326.75
973.6985	2465.4811	2198.6	1322.3
973.8273	2466.8392	2186.8	1310.3
973.956	2468.1966	2192.4	1312.3
974.0847	2469.5533	2185.55	1304.7
974.2134	2470.9093	2179.25	1303.2
974.3421	2472.2645	2173.7	1293.75
974.4707	2473.6191	2172	1295.6
974.5993	2474.973	2166.2	1289.65
974.7278	2476.3262	2170.2	1293.05
974.8563	2477.6787	2161.8	1286.85
974.9848	2479.0305	2146.75	1271.05
975.1132	2480.3816	2148.5	1270.45
975.2417	2481.7319	2147.85	1270.3
975.37	2483.0816	2137.75	1258.95
975.4984	2484.4306	2127.45	1251.9
975.6267	2485.7789	2130.25	1255.6
975.755	2487.1264	2126.25	1249.1
975.8833	2488.4733	2112.75	1236.5
976.0115	2489.8195	2112.6	1230.35
976.1397	2491.165	2106.85	1226.9
976.2678	2492.5097	2099.05	1219.6
976.3959	2493.8538	2095.05	1219.05
976.524	2495.1972	2091.6	1216.7
976.6521	2496.5398	2081.75	1201.9
976.7801	2497.8818	2085.9	1208.2
976.9081	2499.2231	2074.2	1197.65
977.036	2500.5637	2065.3	1187.15
977.164	2501.9035	2070.3	1192.65
977.2918	2503.2427	2078.1	1198.35
977.4197	2504.5812	2059.7	1182.45
977.5475	2505.919	2059.3	1179.2
977.6753	2507.256	2053.25	1177.25
977.8031	2508.5924	2048.3	1172.05
977.9308	2509.9281	2042.4	1159.55
978.0585	2511.2631	2053.3	1177.7
978.1861	2512.5974	2031.45	1155.2
978.3137	2513.9309	2023	1146.6
978.4413	2515.2638	2054.75	1150.9
978.5689	2516.596	2025.35	1149.7
978.6964	2517.9275	2019.75	1141.5
978.8239	2519.2583	2016.55	1140.05
978.9513	2520.5884	2008.05	1130.15
979.0788	2521.9178	2000	1123.3
979.2062	2523.2465	1994.45	1118.8
979.3335	2524.5745	1991.3	1116.65
979.4608	2525.9018	1994.55	1119.15
979.5881	2527.2284	1988.6	1114.3
979.7154	2528.5543	1982.25	1108.25
979.8426	2529.8796	1978.25	1101.3
979.9698	2531.2041	1981	1105.7
980.0969	2532.5279	1978.25	1102.75
980.224	2533.851	1970.95	1095.15
980.3511	2535.1735	1952.5	1077.6
980.4781	2536.4952	1960.35	1084.05
980.6052	2537.8163	1960.1	1082.25
980.7321	2539.1366	1950.9	1074.1
980.8591	2540.4562	1955.3	1079.15
980.986	2541.7752	1954.7	1079.5
981.1129	2543.0935	1946.25	1070.7
981.2397	2544.411	1948.25	1070.35
981.3665	2545.7279	1942.7	1066.65
981.4933	2547.0441	1936.4	1061.65
981.62	2548.3596	1941.6	1061.35
981.7467	2549.6744	1934.25	1059.8
981.8734	2550.9885	1941.75	1058.15
982.0001	2552.3019	1936.25	1060.05
982.1267	2553.6146	1920.1	1043.4
982.2532	2554.9266	1917.45	1040.5
982.3798	2556.2379	1909.55	1031.7
982.5063	2557.5485	1921.55	1047.9
982.6327	2558.8585	1921.95	1038.45
982.7592	2560.1677	1912.3	1033.85
982.8856	2561.4762	1903.25	1027.3
983.0119	2562.7841	1901.05	1023.7
983.1383	2564.0913	1899.95	1025.4
983.2646	2565.3977	1892.6	1015.65
983.3908	2566.7035	1896.2	1019.3
983.517	2568.0086	1892.85	1015.95
983.6432	2569.313	1878.1	1001.95
983.7694	2570.6167	1889.65	1010
983.8955	2571.9197	1886.25	1009.5
984.0216	2573.222	1873.55	993.6
984.1476	2574.5236	1886.75	1009.9
984.2737	2575.8246	1877.6	997.9
984.3996	2577.1248	1877.9	998.3
984.5256	2578.4244	1871.45	995.1
984.6515	2579.7232	1878.3	1002.65
984.7774	2581.0214	1885.55	987.35
984.9032	2582.3189	1858.8	983.65
985.029	2583.6157	1866.85	984.7
985.1548	2584.9118	1861.8	984.55
985.2806	2586.2072	1859.8	983.9
985.4063	2587.5019	1856.05	979.45
985.5319	2588.7959	1852.4	975.2
985.6576	2590.0893	1842.4	963.3
985.7832	2591.3819	1847.45	971.75
985.9087	2592.6739	1833.45	959.5
986.0343	2593.9652	1840.2	963.3
986.1597	2595.2557	1833.35	956.85
986.2852	2596.5456	1828.8	950.55
986.4106	2597.8348	1817.9	941.8
986.536	2599.1234	1825.25	949.4
986.6614	2600.4112	1811.6	934
986.7867	2601.6983	1809.05	929.25
986.912	2602.9848	1800.25	924.45
987.0372	2604.2705	1803.15	919.55
987.1624	2605.5556	1799.25	923.2
987.2876	2606.84	1800.1	923.9
987.4128	2608.1237	1788.95	910.95
987.5379	2609.4067	1782.55	905
987.6629	2610.689	1798.2	910.9
987.788	2611.9707	1782.5	902.9
987.913	2613.2516	1779.25	900.2
988.0379	2614.5319	1765.75	889.45
988.1629	2615.8115	1758.7	881.6
988.2878	2617.0903	1766	888.9
988.4126	2618.3685	1759.45	883.3
988.5375	2619.6461	1753.6	879.35
988.6622	2620.9229	1746.9	871.65
988.787	2622.199	1755.25	878.85
988.9117	2623.4745	1751.95	874.8
989.0364	2624.7493	1748	871.1
989.161	2626.0234	1734.7	861.45
989.2857	2627.2968	1734.35	858.85
989.4102	2628.5695	1739.8	863.8
989.5348	2629.8415	1722.85	846.15
989.6593	2631.1128	1720.75	842.4
989.7837	2632.3835	1718.3	841.65
989.9082	2633.6535	1712.85	835.05
990.0326	2634.9228	1712.1	836.85
990.1569	2636.1914	1710.55	835.35
990.2812	2637.4593	1709.1	826.7
990.4055	2638.7265	1703.25	827.9
990.5298	2639.9931	1708.15	829.55
990.654	2641.259	1696.45	819.5
990.7782	2642.5242	1689.65	811.2
990.9023	2643.7887	1688	812.15
991.0264	2645.0525	1688.15	810.45
991.1505	2646.3156	1689.4	812.2
991.2745	2647.5781	1680.4	805.7
991.3985	2648.8398	1683.1	806.4
991.5225	2650.1009	1677.85	792.85
991.6464	2651.3613	1671.45	796.05
991.7703	2652.6211	1666.85	788.8
991.8942	2653.8801	1657.2	780.95
992.018	2655.1385	1660.9	781.7
992.1418	2656.3961	1664.7	788.3
992.2655	2657.6531	1650.5	774.8
992.3892	2658.9094	1656.05	780.1
992.5129	2660.1651	1649.3	774.95
992.6366	2661.42	1655.05	776.95
992.7602	2662.6743	1652.95	774.9
992.8837	2663.9279	1645.75	769.35
993.0073	2665.1808	1640.35	765
993.1307	2666.433	1636.1	759.95
993.2542	2667.6846	1634.35	758.45
993.3776	2668.9354	1635.85	755.95
993.501	2670.1856	1633.6	756.25
993.6244	2671.4351	1628.2	750.2
993.7477	2672.6839	1630.15	753.7
993.8709	2673.9321	1624.45	749.2
993.9942	2675.1795	1621.35	746.5
994.1174	2676.4263	1612.05	738.45
994.2405	2677.6724	1607.05	732.45
994.3637	2678.9179	1602.1	726.5
994.4868	2680.1626	1604.65	728.85
994.6098	2681.4067	1608.5	732.05
994.7328	2682.6501	1605.65	729
994.8558	2683.8928	1597	720.95
994.9788	2685.1348	1596.4	721.7
995.1017	2686.3761	1593.6	717.1
995.2245	2687.6168	1591.85	715.25
995.3474	2688.8568	1582.2	707
995.4702	2690.0961	1580.85	703.35
995.5929	2691.3348	1578.35	703.55
995.7156	2692.5727	1574.7	700.3
995.8383	2693.81	1570.75	694.2
995.961	2695.0466	1576.35	701.9
996.0836	2696.2826	1576.1	697.85
996.2062	2697.5178	1593.85	695
996.3287	2698.7524	1578.35	701.1
996.4512	2699.9863	1571.9	693.8
996.5737	2701.2195	1552.7	677.9
996.6961	2702.452	1563.7	687.1
996.8185	2703.6839	1557.9	679.9
996.9408	2704.9151	1556.8	680.95
997.0631	2706.1456	1548.65	672.2
997.1854	2707.3755	1552.85	675.5
997.3077	2708.6046	1543.6	665.6
997.4299	2709.8331	1547	666.75
997.552	2711.0609	1543.55	669.5
997.6742	2712.2881	1542.65	667.4
997.7963	2713.5145	1543.35	664.7
997.9183	2714.7403	1534.95	659.95
998.0403	2715.9654	1530.85	653.35
998.1623	2717.1899	1534.2	646.4
998.2842	2718.4136	1526.15	649.9
998.4062	2719.6367	1525.25	647.5
998.528	2720.8591	1535.35	651.95
998.6498	2722.0809	1530.85	655.75
998.7716	2723.3019	1519.2	639.65
998.8934	2724.5223	1518.1	640.1
999.0151	2725.7421	1513.8	636
999.1368	2726.9611	1514.15	637
999.2584	2728.1795	1513.8	632.7
999.38	2729.3972	1506.55	630.95
999.5016	2730.6142	1517.65	629.15
999.6231	2731.8306	1505.9	629.1
999.7446	2733.0462	1498.05	620.35
999.8661	2734.2612	1494.3	612.75
999.9875	2735.4756	1491.25	613.1
1000.1089	2736.6892	1482.25	605.45
1000.2302	2737.9022	1478.95	604.1
1000.3515	2739.1145	1479.1	602.2
1000.4728	2740.3262	1487.45	602.9
1000.594	2741.5372	1470.65	596.5
1000.7152	2742.7475	1473.2	596.9
1000.8363	2743.9571	1467.7	589.75
1000.9575	2745.1661	1466.55	584
1001.0785	2746.3744	1459.3	583.1
1001.1996	2747.582	1461.9	585.85
1001.3206	2748.7889	1455.5	579.2
1001.4415	2749.9952	1455.9	581.25
1001.5625	2751.2008	1449	572.5
1001.6833	2752.4057	1445.25	565.95
1001.8042	2753.61	1450	572.85
1001.925	2754.8136	1448.6	572.2
1002.0458	2756.0165	1436.75	560.35
1002.1665	2757.2188	1441.8	567.55
1002.2872	2758.4204	1431.25	557.75
1002.4078	2759.6213	1441.95	565.1
1002.5285	2760.8215	1439.7	560
1002.649	2762.0211	1425.85	547.3
1002.7696	2763.22	1430.85	551
1002.8901	2764.4182	1431.45	554.55
1003.0106	2765.6158	1432.25	554.55
1003.131	2766.8127	1417.75	541.1
1003.2514	2768.009	1415.5	539.05
1003.3717	2769.2045	1415.45	538.5
1003.492	2770.3994	1416.85	539.05
1003.6123	2771.5936	1407.15	530
1003.7325	2772.7872	1409.25	533.75
1003.8527	2773.9801	1404.15	528.35
1003.9729	2775.1723	1414.5	521.3
1004.093	2776.3639	1405.05	530.2
1004.2131	2777.5548	1407	530.05
1004.3331	2778.745	1405.45	527.65
1004.4531	2779.9346	1397.45	521.85
1004.5731	2781.1235	1397.95	520.7
1004.693	2782.3117	1387.2	512.8
1004.8129	2783.4992	1386.9	511.6
1004.9328	2784.6861	1383.75	507.9
1005.0526	2785.8723	1386.5	509
1005.1723	2787.0579	1377.65	500
1005.2921	2788.2428	1375.15	499.2
1005.4118	2789.427	1378.65	503.1
1005.5314	2790.6106	1379.6	504.45
1005.651	2791.7935	1382.25	506.45
1005.7706	2792.9757	1368.9	493.75
1005.8902	2794.1573	1374.4	497.1
1006.0097	2795.3382	1374.95	497.7
1006.1291	2796.5184	1368.75	494.3
1006.2485	2797.698	1360.6	482.25
1006.3679	2798.8769	1360.05	486.1
1006.4873	2800.0551	1356.45	480.85
1006.6066	2801.2327	1361.3	483.55
1006.7258	2802.4096	1352.05	476.8
1006.8451	2803.5859	1351.3	475.85
1006.9642	2804.7615	1353.05	475.6
1007.0834	2805.9364	1348.2	474.1
1007.2025	2807.1106	1349.9	474.15
1007.3216	2808.2842	1345.4	469.75
1007.4406	2809.4572	1352.25	475.25
1007.5596	2810.6294	1351.7	473.15
1007.6785	2811.801	1348.05	470.75
1007.7975	2812.972	1345.1	470.5
1007.9163	2814.1423	1343.95	468.6
1008.0352	2815.3119	1343.95	467.8
1008.154	2816.4808	1339.2	464.75
1008.2727	2817.6491	1344.15	467.9
1008.3914	2818.8167	1344.2	470.75
1008.5101	2819.9837	1353	472.3
1008.6288	2821.15	1348.1	470.85
1008.7474	2822.3157	1347.3	472.95
1008.8659	2823.4807	1357.35	481.75
1008.9844	2824.645	1364.3	488.4
1009.1029	2825.8086	1362.55	488.7
1009.2214	2826.9716	1365.05	489.1
1009.3398	2828.134	1376.2	501.85
1009.4581	2829.2957	1383.9	509.55
1009.5764	2830.4567	1377.95	502.6
1009.6947	2831.617	1384.05	506.65
1009.813	2832.7767	1381.55	507.95
1009.9312	2833.9358	1386.95	512.3
1010.0493	2835.0941	1378.15	500
1010.1675	2836.2519	1381.9	507.45
1010.2855	2837.4089	1374.45	498.8
1010.4036	2838.5653	1365.7	490
1010.5216	2839.7211	1361.75	486.7
1010.6396	2840.8761	1362	486.15
1010.7575	2842.0306	1357.25	481.7
1010.8754	2843.1843	1357.35	481.4
1010.9932	2844.3374	1363.2	487.1
1011.111	2845.4899	1361.4	483.8
1011.2288	2846.6417	1360.15	484.65
1011.3465	2847.7928	1355.25	480.6
1011.4642	2848.9433	1355.1	480.2
1011.5818	2850.0931	1360.75	486.05
1011.6995	2851.2422	1359.45	482.95
1011.817	2852.3907	1360.05	484.3
1011.9345	2853.5385	1363.1	486.35
1012.052	2854.6857	1364.95	479.05
1012.1695	2855.8323	1349.35	474.6
1012.2869	2856.9781	1358.6	483.1
1012.4042	2858.1233	1357.65	482.3
1012.5216	2859.2679	1359.05	485.4
1012.6389	2860.4118	1362.85	489.95
1012.7561	2861.555	1373.25	493.7
1012.8733	2862.6976	1358.2	480.45
1012.9905	2863.8395	1361.6	484.95
1013.1076	2864.9808	1367.5	494.3
1013.2247	2866.1214	1365.65	491.55
1013.3417	2867.2614	1360.2	482.5
1013.4587	2868.4007	1362.25	484.45
1013.5757	2869.5393	1363.9	485.35
1013.6926	2870.6773	1364.7	486.95
1013.8095	2871.8146	1363.3	482.05
1013.9263	2872.9513	1359.35	483.55
1014.0431	2874.0874	1359.15	483.65
1014.1599	2875.2227	1353.85	479.55
1014.2766	2876.3574	1365.6	489
1014.3933	2877.4915	1361	484.65
1014.51	2878.6249	1351.15	474.95
1014.6266	2879.7577	1362.4	485.3
1014.7431	2880.8898	1371.15	485.4
1014.8596	2882.0212	1363	488.1
1014.9761	2883.152	1352.65	475.6
1015.0925	2884.2821	1356	479.95
1015.2089	2885.4116	1358.95	486.95
1015.3253	2886.5405	1354.85	480.5
1015.4416	2887.6686	1353.55	474.9
1015.5579	2888.7962	1356.8	481.65
1015.6741	2889.923	1349.75	473.5
1015.7903	2891.0493	1353.2	477.9
1015.9065	2892.1748	1353.3	478.9
1016.0226	2893.2997	1349.75	473.25
1016.1387	2894.424	1343	467.3
1016.2547	2895.5476	1341.2	467.6
1016.3707	2896.6706	1343.3	469.05
1016.4866	2897.7929	1344.8	468.65
1016.6025	2898.9145	1340.5	466.45
1016.7184	2900.0355	1339.25	462.05
1016.8342	2901.1559	1338.85	460.8
1016.95	2902.2756	1336.85	460.55
1017.0658	2903.3946	1332.2	456.7
1017.1815	2904.513	1338.15	461.4
1017.2971	2905.6308	1333.85	459.45
1017.4127	2906.7479	1326.15	450.15
1017.5283	2907.8643	1329.35	453.55
1017.6439	2908.9801	1329.25	453.15
1017.7594	2910.0953	1323.2	448.05
1017.8748	2911.2098	1329.6	451.3
1017.9902	2912.3236	1328.25	444.7
1018.1056	2913.4368	1318.25	438.65
1018.2209	2914.5494	1324.05	447.75
1018.3362	2915.6613	1318.6	438.85
1018.4515	2916.7725	1314.6	437.3
1018.5667	2917.8831	1303.2	429.25
1018.6819	2918.9931	1306.35	428.1
1018.797	2920.1024	1308.4	431.05
1018.9121	2921.211	1295.3	420.8
1019.0271	2922.319	1295.05	419.1
1019.1421	2923.4264	1293.9	419.2
1019.2571	2924.5331	1290.55	416
1019.372	2925.6391	1291.15	416.55
1019.4869	2926.7445	1292.75	418.85
1019.6017	2927.8493	1285.4	410.85
1019.7165	2928.9534	1293.1	417.15
1019.8313	2930.0569	1290.65	410.55
1019.946	2931.1597	1288.45	411.95
1020.0606	2932.2619	1285.6	410.9
1020.1753	2933.3634	1288.1	413.1
1020.2899	2934.4643	1303.4	421.1
1020.4044	2935.5645	1294.45	412.95
1020.5189	2936.6641	1290	410.15
1020.6334	2937.763	1289.55	413.9
1020.7478	2938.8613	1283.15	406.9
1020.8622	2939.959	1283.25	403.75
1020.9765	2941.056	1278.9	406.35
1021.0908	2942.1523	1276.35	399.15
1021.2051	2943.248	1259.85	383.15
1021.3193	2944.3431	1263.4	387.3
1021.4334	2945.4375	1250.85	375.25
1021.5476	2946.5313	1239.9	364.6
1021.6617	2947.6244	1238.95	362.65
1021.7757	2948.7169	1227.75	353.2
1021.8897	2949.8087	1224.35	350.65
1022.0037	2950.8999	1214.85	336.7
1022.1176	2951.9904	1210.2	334.85
1022.2315	2953.0803	1208.3	330.1
1022.3453	2954.1696	1197.95	322.5
1022.4591	2955.2582	1191.45	316.55
1022.5728	2956.3462	1193.6	318.6
1022.6865	2957.4335	1185.65	309.7
1022.8002	2958.5202	1191.45	313.1
1022.9138	2959.6062	1184.2	308.7
1023.0274	2960.6916	1186.15	310.15
1023.141	2961.7764	1186.7	310.35
1023.2545	2962.8605	1187.3	310.7
1023.3679	2963.9439	1182.4	305.85
1023.4813	2965.0267	1182.5	306.05
1023.5947	2966.1089	1199.95	303.3
1023.708	2967.1905	1176.8	303.6
1023.8213	2968.2714	1180.9	306.15
1023.9346	2969.3516	1172.45	297.6
1024.0478	2970.4312	1178.8	294.75
1024.1609	2971.5102	1174.6	300.15
1024.274	2972.5885	1170.35	295.9
1024.3871	2973.6662	1169.25	288.4
1024.5002	2974.7432	1166.25	291.1
1024.6132	2975.8196	1164.7	288.5
1024.7261	2976.8954	1169.7	294.65
1024.839	2977.9705	1166	292.6
1024.9519	2979.045	1158.45	283.55
1025.0647	2980.1188	1161.6	287.65
1025.1775	2981.192	1164.25	290.95
1025.2902	2982.2645	1161.6	284.8
1025.4029	2983.3364	1155.95	279.95
1025.5156	2984.4077	1154.65	279.7
1025.6282	2985.4783	1159.2	278.15
1025.7407	2986.5483	1153.2	278.15
1025.8532	2987.6177	1146.6	271.75
1025.9657	2988.6864	1142.85	266.9
1026.0782	2989.7545	1142.1	267.75
1026.1906	2990.8219	1137.4	262.2
1026.3029	2991.8887	1134.5	256.25
1026.4152	2992.9548	1126.45	248.8
1026.5275	2994.0204	1125.45	249.95
1026.6397	2995.0852	1124.65	250.65
1026.7519	2996.1495	1125.75	248.55
1026.864	2997.2131	1124.65	249.4
1026.9761	2998.276	1119.65	244.75
1027.0882	2999.3383	1120.05	243.1
1027.2002	3000.4	1112.35	236.95
1027.3122	3001.4611	1104.45	227.95
1027.4241	3002.5215	1110.6	234.75
1027.536	3003.5812	1105.8	228.6
1027.6478	3004.6404	1104.3	228.25
1027.7596	3005.6989	1103.75	226.05
1027.8714	3006.7567	1100.2	224.75
1027.9831	3007.8139	1123.95	226.6
1028.0947	3008.8705	1103.15	228.4
1028.2064	3009.9264	1101.9	222.4
1028.3179	3010.9818	1098.05	222.45
1028.4295	3012.0364	1099.3	222.85
1028.541	3013.0905	1089.65	213.95
1028.6524	3014.1439	1093.85	217.1
1028.7638	3015.1966	1091.05	216.75
1028.8752	3016.2487	1091	215.1
1028.9865	3017.3002	1098.25	214.9
1029.0978	3018.3511	1087.1	212.9
1029.209	3019.4013	1094.5	218.9
1029.3202	3020.4509	1088.7	214.1
1029.4314	3021.4998	1090.45	215.75
1029.5425	3022.5481	1091.3	215.35
1029.6535	3023.5958	1086.4	213
1029.7645	3024.6428	1079.8	202.4
1029.8755	3025.6892	1082.05	208.9
1029.9864	3026.735	1081.9	206.3
1030.0973	3027.7802	1079.35	203.1
1030.2082	3028.8247	1080.75	203.6
1030.319	3029.8685	1077.85	203.55
1030.4297	3030.9118	1078.3	204.15
1030.5404	3031.9544	1075.15	201
1030.6511	3032.9963	1073.65	196.95
1030.7617	3034.0376	1070.55	194.25
1030.8723	3035.0783	1074.7	196.35
1030.9829	3036.1184	1072.3	196.15
1031.0934	3037.1578	1069.5	194.8
1031.2038	3038.1966	1066.45	188.15
1031.3142	3039.2348	1070.2	197.05
1031.4246	3040.2723	1076.5	191.7
1031.5349	3041.3092	1069.3	193.95
1031.6452	3042.3455	1072.35	198.2
1031.7554	3043.3811	1067.75	193.8
1031.8656	3044.4161	1067.55	192.05
1031.9758	3045.4505	1062.8	187
1032.0859	3046.4842	1065.9	191.35
1032.1959	3047.5173	1061.95	188.1
1032.3059	3048.5498	1058.9	184.3
1032.4159	3049.5816	1066.6	189.95
1032.5258	3050.6128	1064.45	188.6
1032.6357	3051.6434	1063	185.75
1032.7455	3052.6734	1062.1	186.6
1032.8553	3053.7027	1062.8	189
1032.9651	3054.7314	1060.6	188.3
1033.0748	3055.7594	1059.5	185.1
1033.1845	3056.7868	1059.15	182.95
1033.2941	3057.8136	1058	182.95
1033.4037	3058.8398	1060.7	186.6
1033.5132	3059.8653	1059.7	183.95
1033.6227	3060.8902	1055.75	179.8
1033.7321	3061.9145	1061	185.4
1033.8415	3062.9381	1053.25	177.85
1033.9509	3063.9612	1069.65	177.8
1034.0602	3064.9835	1055.6	181.55
1034.1694	3066.0053	1057.35	179.55
1034.2787	3067.0264	1053.9	179.25
1034.3878	3068.0469	1054.65	176.45
1034.497	3069.0668	1057.25	178.95
1034.6061	3070.086	1050.9	175.1
1034.7151	3071.1046	1046.7	172.05
1034.8241	3072.1226	1050.8	174.25
1034.9331	3073.1399	1049.2	173.75
1035.042	3074.1567	1051.75	175.1
1035.1508	3075.1727	1048.15	172.75
1035.2597	3076.1882	1046.75	172.35
1035.3684	3077.203	1044.35	167.85
1035.4772	3078.2173	1045.45	168.6
1035.5859	3079.2308	1044.65	164.3
1035.6945	3080.2438	1045.5	167.35
1035.8031	3081.2561	1039.35	164.45
1035.9117	3082.2678	1042.45	167.65
1036.0202	3083.2789	1039.45	164.4
1036.1286	3084.2893	1035.7	159.6
1036.2371	3085.2991	1039.5	163.6
1036.3454	3086.3083	1035.9	156.45
1036.4538	3087.3169	1042.6	164.15
1036.562	3088.3248	1038.1	160.65
1036.6703	3089.3321	1033.05	156.05
1036.7785	3090.3388	1032.05	156.7
1036.8866	3091.3449	1031.6	157.55
1036.9948	3092.3503	1035.35	158.7
1037.1028	3093.3551	1028	155.35
1037.2108	3094.3593	1031.2	156.7
1037.3188	3095.3629	1027.6	153.5
1037.4267	3096.3658	1029.15	153.15
1037.5346	3097.3681	1026.2	150.8
1037.6425	3098.3698	1028.55	151.25
1037.7503	3099.3708	1035.3	154.85
1037.858	3100.3713	1018.35	142.6
1037.9657	3101.3711	1022.9	148
1038.0734	3102.3702	1158	143.6
1038.181	3103.3688	1024.35	149.1
1038.2886	3104.3667	1020.2	144.75
1038.3961	3105.364	1017.5	141.05
1038.5036	3106.3607	1020.35	143.5
1038.611	3107.3568	1018.1	141.85
1038.7184	3108.3522	1015.85	141.3
1038.8257	3109.347	1017.55	142.15
1038.933	3110.3412	1021.55	143.4
1039.0403	3111.3348	1014.7	139.8
1039.1475	3112.3277	1009.85	135.8
1039.2547	3113.32	1010.2	137.35
1039.3618	3114.3117	1011.25	136.15
1039.4689	3115.3028	1013.25	136.2
1039.5759	3116.2932	1014.9	138.45
1039.6829	3117.2831	1020.25	138.45
1039.7898	3118.2723	1006.9	132.8
1039.8967	3119.2608	1008.75	132.75
1040.0035	3120.2488	1011.2	135.6
1040.1103	3121.2361	1008.7	133.7
1040.2171	3122.2229	1005.4	127.05
1040.3238	3123.209	1005.85	131
1040.4305	3124.1944	1003.55	130.5
1040.5371	3125.1793	1008.85	132.95
1040.6437	3126.1635	998.5	123.35
1040.7502	3127.1471	1001.3	126.4
1040.8567	3128.1301	998.85	124.15
1040.9631	3129.1125	999.3	122.9
1041.0695	3130.0942	998.8	123.3
1041.1759	3131.0753	1009.55	125.95
1041.2822	3132.0558	999.25	123.3
1041.3884	3133.0357	998.65	123.55
1041.4946	3134.015	998.15	121.7
1041.6008	3134.9936	1001.4	125.5
1041.7069	3135.9716	1018.7	123.85
1041.813	3136.949	999.65	124.35
1041.919	3137.9258	998.05	117.3
1042.025	3138.902	1004.65	122.95
1042.1309	3139.8775	995.1	119.55
1042.2368	3140.8524	995.85	120.05
1042.3427	3141.8267	994.1	115.85
1042.4485	3142.8004	992.1	116.2
1042.5542	3143.7735	998.8	117.45
1042.6599	3144.7459	994	118.3
1042.7656	3145.7178	992.75	117.05
1042.8712	3146.689	989.05	116.15
1042.9768	3147.6596	989.6	110.85
1043.0823	3148.6295	988.05	112.2
1043.1878	3149.5989	987.5	111.4
1043.2932	3150.5676	988.95	114.75
1043.3986	3151.5357	983.1	108.35
1043.5039	3152.5032	985.95	111.35
1043.6092	3153.4701	983.6	109.4
1043.7145	3154.4364	988.75	111.6
1043.8197	3155.402	987.75	114.25
1043.9248	3156.367	986.45	110.55
1044.03	3157.3315	1022.85	108.35
1044.135	3158.2952	983.55	107.55
1044.24	3159.2584	981.8	105.5
1044.345	3160.221	983.75	107.55
1044.4499	3161.1829	980.3	104.55
1044.5548	3162.1442	979.15	103.45
1044.6596	3163.105	980.3	104.1
1044.7644	3164.065	982.05	106.95
1044.8692	3165.0245	983.7	105.2
1044.9739	3165.9834	976.85	104.5
1045.0785	3166.9416	979	105.95
1045.1831	3167.8993	975.85	101.8
1045.2877	3168.8563	976.95	99.9
1045.3922	3169.8127	975	101.4
1045.4966	3170.7684	977.35	103.05
1045.6011	3171.7236	974.95	99.05
1045.7054	3172.6782	973.9	98.85
1045.8098	3173.6321	974.35	99.25
1045.914	3174.5854	977.65	99.55
1046.0183	3175.5381	974.15	98.4
1046.1224	3176.4902	977.65	100.8
1046.2266	3177.4417	970.8	96.3
1046.3307	3178.3926	969.25	95.25
1046.4347	3179.3428	972.3	98.7
1046.5387	3180.2924	967.9	94.35
1046.6427	3181.2415	970.6	94.8
1046.7466	3182.1899	970.25	93.05
1046.8504	3183.1377	969.85	96.05
1046.9542	3184.0848	969.9	91.9
1047.058	3185.0314	966.45	91.3
1047.1617	3185.9773	970.6	94.3
1047.2654	3186.9227	969.7	95.35
1047.369	3187.8674	968.1	93.7
1047.4726	3188.8115	971.55	94.1
1047.5761	3189.755	964.7	90
1047.6796	3190.6979	965.5	89.95
1047.783	3191.6402	965.55	91
1047.8864	3192.5818	963.2	88.45
1047.9898	3193.5229	970.9	92.55
1048.0931	3194.4633	965.05	90.95
1048.1963	3195.4031	962.9	87.3
1048.2995	3196.3423	963.8	89.75
1048.4027	3197.2809	964.4	87.45
1048.5058	3198.2189	959	84.35
1048.6089	3199.1563	966.9	86.5
1048.7119	3200.0931	962.6	87.7
1048.8148	3201.0292	960.2	88.5
1048.9178	3201.9648	959.4	84.75
1049.0206	3202.8997	960.45	82.95
1049.1235	3203.834	957.1	81.3
1049.2262	3204.7677	960.35	86.9
1049.329	3205.7008	959.4	81.95
1049.4317	3206.6333	956.35	81.4
1049.5343	3207.5652	958.8	81.45
1049.6369	3208.4964	954.95	79.1
1049.7394	3209.4271	956.2	81.25
1049.8419	3210.3571	955.25	81.95
1049.9444	3211.2865	955.7	78.4
1050.0468	3212.2154	953.65	79.2
1050.1491	3213.1436	955.65	78.25
1050.2514	3214.0712	962.45	78.5
1050.3537	3214.9982	953.9	78.35
1050.4559	3215.9246	953.75	78
1050.5581	3216.8503	954.05	79.3
1050.6602	3217.7755	954.8	79.7
1050.7623	3218.7001	953.65	78.4
1050.8643	3219.624	951.5	74.9
1050.9663	3220.5473	950.4	76.25
1051.0682	3221.4701	951.6	76.4
1051.1701	3222.3922	949.3	73
1051.2719	3223.3137	950.45	73.55
1051.3737	3224.2346	951.75	75.3
1051.4754	3225.1549	948.55	74.35
1051.5771	3226.0746	943.5	67.75
1051.6788	3226.9937	948.2	74.6
1051.7804	3227.9121	947.8	74.4
1051.8819	3228.83	946.5	71.1
1051.9834	3229.7473	947.55	73.45
1052.0849	3230.6639	948.55	73.3
1052.1863	3231.5799	942.7	70
1052.2876	3232.4954	946.5	69.25
1052.3889	3233.4102	943.95	71.3
1052.4902	3234.3244	944.6	71.05
1052.5914	3235.238	945.9	72.1
1052.6926	3236.151	968	69.25
1052.7937	3237.0634	942.05	68.95
1052.8948	3237.9752	943.85	65.85
1052.9958	3238.8864	942.65	66
1053.0968	3239.797	943.7	69.55
1053.1977	3240.7069	941.95	68.35
1053.2986	3241.6163	940.85	65.55
1053.3994	3242.5251	941.9	67.35
1053.5002	3243.4332	943.1	69.6
1053.6009	3244.3408	939.25	63.5
1053.7016	3245.2477	940.3	67.1
1053.8022	3246.154	941.45	65.85
1053.9028	3247.0598	939.3	62.45
1054.0034	3247.9649	941.55	65.5
1054.1039	3248.8694	938.75	64.55
1054.2043	3249.7733	936.9	61.65
1054.3047	3250.6766	939.4	63.8
1054.4051	3251.5793	939.2	62.55
1054.5054	3252.4814	937.3	61.95
1054.6056	3253.3829	936.8	62.3
1054.7058	3254.2838	938.75	63.9
1054.806	3255.1841	936.85	61.9
1054.9061	3256.0838	934.8	58.3
1055.0061	3256.9829	936.2	62.7
1055.1062	3257.8814	934.4	56.05
1055.2061	3258.7792	936.5	59.4
1055.306	3259.6765	933.2	58.6
1055.4059	3260.5731	933.1	58.65
1055.5057	3261.4692	931.2	57.4
1055.6055	3262.3647	932.4	56.15
1055.7052	3263.2595	928.9	54.5
1055.8049	3264.1538	927.6	52.8
1055.9045	3265.0474	929.5	53.6
1056.0041	3265.9404	929.65	55
1056.1036	3266.8329	925.6	50.55
1056.2031	3267.7247	936.3	50.8
1056.3025	3268.616	925	51.6
1056.4019	3269.5066	922.55	47.35
1056.5013	3270.3966	925.1	49.55
1056.6005	3271.286	919.95	45.15
