Software Version:	3.9.2.0
Unit SN:	10000200
Spectrometer SN:	6960
Date:	3/6/2024 9:36:19 AM
Data Line Index:	25
Spectral Points:	2048
Integration time (ms):	125
Averages:	20
Delay (ms):	30
Sequence Number:	1
Processing:	dark subtract
Laser Power (mW):	300
Laser Current (mA):	823
Laser Diode Temp (C):	25
Laser Case Temp (C):	23.9
System Temp (C):	23.7
Spectrometer Temp (C):	21.3
CCD Temp (C):	-0.041
Secondary Temp (C):	20.004
Heatsink Temp (C):	17.416
CCDPCB Temp (C):	30.66
SecondaryPCB Temp (C):	25.569

Wavelength	RamanShift	Raw Counts	Dark Subtracted
787.061	30.1047	499.55	92.75
787.2016	32.3739	503.9	97.9
787.3422	34.6426	509.75	102.9
787.4828	36.9109	517.05	109.25
787.6235	39.1787	526.55	113.75
787.7642	41.4461	538.55	122.3
787.9049	43.7131	547.2	129.15
788.0456	45.9796	557.5	135.75
788.1863	48.2456	567.9	142.8
788.3271	50.5112	584.9	154.3
788.4679	52.7764	593.85	159.9
788.6087	55.0411	605.15	168.6
788.7496	57.3054	622.65	181.25
788.8904	59.5692	631.55	186.95
789.0313	61.8326	652.1	205.05
789.1722	64.0955	665.05	217.45
789.3132	66.3579	688.7	234.9
789.4541	68.6199	711.9	255.85
789.5951	70.8815	757.4	295.35
789.7361	73.1426	860	393.15
789.8771	75.4032	1100.8	631.6
790.0181	77.6634	1690.05	1217.1
790.1592	79.9231	3119.8	2646.35
790.3003	82.1824	6224.75	5747.55
790.4414	84.4412	11690.8	11207.1
790.5825	86.6995	19032.45	18541.1
790.7237	88.9574	26118.8	25621.9
790.8648	91.2148	31223	30723.1
791.006	93.4717	33923.75	33419.2
791.1472	95.7282	35098.05	34589.75
791.2885	97.9842	35760.7	35252.65
791.4297	100.2398	35944.65	35434.2
791.571	102.4949	36082.6	35569.45
791.7123	104.7495	36149.85	35633.05
791.8536	107.0036	36158.4	35640.85
791.9949	109.2573	36208.9	35691.55
792.1363	111.5105	36231.75	35713.85
792.2777	113.7632	36253.55	35729.45
792.4191	116.0154	36336.45	35803.35
792.5605	118.2672	36492.15	35964.2
792.7019	120.5185	36512.8	35983.45
792.8434	122.7693	36625.9	36091.9
792.9849	125.0197	36691.85	36155.05
793.1264	127.2696	36691.35	36151.5
793.2679	129.519	36952.2	36408.55
793.4094	131.7679	37053.4	36508.35
793.551	134.0163	37050.05	36503.55
793.6926	136.2642	37132.3	36581.65
793.8342	138.5117	37245.15	36692.55
793.9758	140.7587	37265.1	36710.75
794.1175	143.0052	37321.6	36764.8
794.2591	145.2512	37337.65	36779.2
794.4008	147.4967	37345.25	36784.2
794.5425	149.7417	37342.05	36777.95
794.6842	151.9863	37355.95	36788
794.826	154.2304	37399.45	36828.45
794.9677	156.4739	37320.7	36741.55
795.1095	158.717	37455.45	36878
795.2513	160.9596	37506	36925.15
795.3931	163.2017	37487.8	36904.6
795.535	165.4433	37598.65	37013.55
795.6768	167.6844	37559.35	36971.2
795.8187	169.925	37637.55	37047.55
795.9606	172.1651	37536.55	36941.75
796.1025	174.4047	37607.15	37008.2
796.2445	176.6439	37615.85	37015.65
796.3864	178.8825	37654.45	37051.8
796.5284	181.1206	37729.5	37123.65
796.6704	183.3582	37807.25	37194.9
796.8124	185.5954	37796.2	37183.5
796.9544	187.832	37861.35	37243.2
797.0965	190.0681	37984.85	37365.05
797.2386	192.3037	38068.45	37443.8
797.3806	194.5388	38209.1	37582.7
797.5228	196.7734	38182.05	37555.75
797.6649	199.0075	38376.6	37748.3
797.807	201.2411	38544.15	37914.25
797.9492	203.4742	38626.05	37994.75
798.0914	205.7068	38800.1	38163.9
798.2336	207.9389	38821.1	38185.75
798.3758	210.1704	38921.25	38289.15
798.518	212.4015	38955.9	38335.65
798.6603	214.632	39013.8	38398.15
798.8025	216.862	39109.3	38497.25
798.9448	219.0915	39148.7	38533.8
799.0871	221.3205	39222.7	38603.75
799.2294	223.549	39345.45	38733.05
799.3718	225.777	39415.85	38801.95
799.5141	228.0044	39500.2	38879.3
799.6565	230.2314	39646.35	39023
799.7989	232.4578	39601.7	38974.75
799.9413	234.6837	39679.6	39043.1
800.0837	236.909	39791.6	39153.35
800.2262	239.1339	39755.1	39094.2
800.3687	241.3582	39823.85	39172.8
800.5111	243.582	39847.7	39168.15
800.6536	245.8053	39981.3	39314.5
800.7961	248.0281	39945.25	39287
800.9387	250.2503	39937.2	39272.25
801.0812	252.472	39994.4	39328.7
801.2238	254.6932	40114.05	39447.8
801.3664	256.9139	40044.85	39376.55
801.509	259.134	40210	39537.25
801.6516	261.3536	40134.55	39465.5
801.7942	263.5727	40308.05	39634.95
801.9369	265.7912	40287.8	39617
802.0795	268.0092	40397.55	39726.05
802.2222	270.2267	40428.35	39755.25
802.3649	272.4436	40477.5	39801.4
802.5076	274.6601	40531.7	39847.25
802.6504	276.8759	40572.75	39889.3
802.7931	279.0913	40653.05	39971.95
802.9359	281.3061	40635.4	39950
803.0787	283.5204	40746.55	40060.8
803.2215	285.7341	40820.1	40132
803.3643	287.9473	40902.65	40204.25
803.5071	290.16	40846	40152.15
803.6499	292.3721	40889.15	40203
803.7928	294.5837	40721.95	40032.65
803.9357	296.7947	40718.2	40029.6
804.0786	299.0052	40733.7	40045.05
804.2215	301.2152	40658.75	39966.9
804.3644	303.4246	40767.2	40078.65
804.5074	305.6334	40756.75	40064.8
804.6503	307.8418	40729.6	40034.5
804.7933	310.0495	40739.6	40040.3
804.9363	312.2568	40704.95	40007.65
805.0793	314.4635	40565.9	39866.1
805.2223	316.6696	40505.15	39805.15
805.3653	318.8752	40405.15	39693.7
805.5084	321.0802	40315.05	39613
805.6514	323.2847	40356.7	39651.65
805.7945	325.4887	40288.85	39585.6
805.9376	327.692	40291.2	39584.6
806.0807	329.8949	40457.9	39749.5
806.2238	332.0972	40437.3	39728.35
806.367	334.2989	40525.05	39811.55
806.5101	336.5001	40520	39805.55
806.6533	338.7007	40507.05	39793.8
806.7965	340.9008	40577.15	39863.35
806.9397	343.1003	40476.75	39758
807.0829	345.2992	40517.15	39798.45
807.2261	347.4976	40407.05	39688.85
807.3693	349.6955	40393.3	39670.5
807.5126	351.8927	40498.5	39774.9
807.6559	354.0895	40375.45	39638.75
807.7991	356.2856	40398.9	39671.65
807.9424	358.4812	40385.55	39657.8
808.0857	360.6763	40429.1	39698.4
808.2291	362.8707	40322	39592.95
808.3724	365.0646	40427.65	39693.3
808.5158	367.258	40368.6	39631.6
808.6591	369.4508	40251.1	39511.2
808.8025	371.643	40359.45	39618.8
808.9459	373.8346	40208.1	39465.85
809.0893	376.0257	40221.8	39477.1
809.2327	378.2162	40193.55	39451.1
809.3762	380.4062	40279.4	39538.8
809.5196	382.5956	40212.35	39472.15
809.6631	384.7844	40139.65	39405.05
809.8066	386.9726	40048.65	39310.2
809.9501	389.1603	39984.45	39248.95
810.0936	391.3474	39961.65	39175.4
810.2371	393.5339	39963.75	39226.1
810.3806	395.7199	39770.25	39035.85
810.5241	397.9052	39802.5	39066.4
810.6677	400.09	39840.85	39101.75
810.8113	402.2743	39849.4	39107.4
810.9548	404.4579	39814.6	39073.5
811.0984	406.641	39914	39170.65
811.2421	408.8235	39936	39190.25
811.3857	411.0054	39991.55	39243.6
811.5293	413.1868	40125.2	39372.9
811.673	415.3675	40065.85	39310.75
811.8166	417.5477	40085.55	39329.5
811.9603	419.7273	40022.45	39264.45
812.104	421.9064	39844.3	39079.55
812.2477	424.0848	39697.6	38937.15
812.3914	426.2627	39620.05	38860.15
812.5351	428.4399	39511.95	38750.75
812.6788	430.6166	39420	38654
812.8226	432.7928	39307.1	38542
812.9663	434.9683	39193.95	38427.25
813.1101	437.1432	39138.8	38370.85
813.2539	439.3176	39009.25	38240.95
813.3977	441.4914	38874.45	38108.35
813.5415	443.6645	38853.15	38082.7
813.6853	445.8371	38703.9	37934.7
813.8291	448.0091	38566.3	37797.3
813.973	450.1806	38442.6	37672.95
814.1168	452.3514	38338.55	37566.55
814.2607	454.5216	38407.75	37625.9
814.4046	456.6913	38164.55	37390.2
814.5485	458.8603	38189.5	37416.35
814.6924	461.0288	38188.7	37416.95
814.8363	463.1967	38163.05	37391.65
814.9802	465.3639	38152.15	37375.95
815.1241	467.5306	38108.35	37333.05
815.2681	469.6967	38009.9	37233.95
815.412	471.8622	37932.95	37157.25
815.556	474.0271	37938.1	37164.1
815.7	476.1914	37893.7	37114.75
815.844	478.3551	37841.7	37062.7
815.988	480.5182	37897.95	37120.2
816.132	482.6807	37939.05	37160.35
816.276	484.8426	37984.2	37205.85
816.4201	487.0039	38011.8	37231.95
816.5641	489.1647	38057.65	37276.35
816.7082	491.3248	38138.85	37359.35
816.8522	493.4843	38041.9	37261.1
816.9963	495.6432	37979.55	37198.25
817.1404	497.8015	37889.05	37101.15
817.2845	499.9592	37914.45	37132
817.4286	502.1163	37829.2	37043.35
817.5727	504.2728	37701.7	36913.9
817.7168	506.4287	37794.75	37008.8
817.861	508.5839	37677.05	36890.6
818.0051	510.7386	37645.8	36860.05
818.1493	512.8927	37659.75	36863.85
818.2935	515.0461	37665	36874.65
818.4377	517.199	37618.6	36827.6
818.5818	519.3512	37615.2	36825.15
818.726	521.5029	37621.65	36824.8
818.8703	523.6539	37638.2	36844.85
819.0145	525.8043	37633.8	36840.9
819.1587	527.9541	37576.1	36781.05
819.303	530.1033	37460.95	36664.75
819.4472	532.2519	37342.6	36546.15
819.5915	534.3999	37339.3	36539.55
819.7357	536.5472	37278.55	36481.25
819.88	538.694	37286.55	36492.4
820.0243	540.8401	37269.95	36472.75
820.1686	542.9856	37304.8	36504.6
820.3129	545.1305	37239.3	36439.15
820.4572	547.2748	37309.85	36508.1
820.6016	549.4185	37265.5	36462.15
820.7459	551.5615	37204.7	36402.6
820.8902	553.704	37180.1	36379.9
821.0346	555.8458	37110.3	36310.55
821.1789	557.987	37091.85	36292.7
821.3233	560.1276	37143.75	36342.5
821.4677	562.2675	37153.45	36352.95
821.6121	564.4069	37143.1	36343.15
821.7565	566.5456	37106.45	36303.85
821.9009	568.6837	37121.2	36320.45
822.0453	570.8212	36942.5	36139.8
822.1897	572.958	36733.55	35929
822.3342	575.0942	36654.85	35853.2
822.4786	577.2299	36536.5	35734.15
822.6231	579.3648	36427.1	35624.5
822.7675	581.4992	36281.3	35478.8
822.912	583.6329	36173	35369.45
823.0565	585.766	36136	35332.35
823.201	587.8985	36117.7	35312.7
823.3454	590.0304	36033.5	35214.1
823.4899	592.1616	35969.75	35159.5
823.6345	594.2922	35911.2	35101.25
823.779	596.4222	35811.35	35001.85
823.9235	598.5515	35736.1	34925.65
824.068	600.6802	35621.25	34811.15
824.2126	602.8083	35403.6	34592
824.3571	604.9358	35396.9	34584.15
824.5017	607.0626	35297.1	34485.55
824.6462	609.1888	35239.25	34426.45
824.7908	611.3144	35230.55	34417.9
824.9354	613.4393	35196.35	34383.95
825.08	615.5636	35154.5	34341.1
825.2246	617.6873	35135.85	34321.25
825.3692	619.8103	35248.1	34432.1
825.5138	621.9327	35143.2	34324.5
825.6584	624.0544	35153.25	34336.95
825.803	626.1756	35055.2	34238.9
825.9477	628.2961	34907.3	34091.9
826.0923	630.4159	34784.4	33968.45
826.237	632.5351	34840.3	34021.55
826.3816	634.6537	34763.25	33944.7
826.5263	636.7716	34759.75	33939.85
826.6709	638.8889	34728	33907.95
826.8156	641.0056	34799	33980.6
826.9603	643.1216	34729.05	33907.85
827.105	645.237	34744.3	33923.15
827.2497	647.3518	34624.5	33804.95
827.3944	649.4659	34590.5	33770.1
827.5391	651.5793	34502.55	33681.2
827.6838	653.6922	34438.9	33619.4
827.8285	655.8043	34417.45	33597.2
827.9733	657.9159	34398.55	33575
828.118	660.0268	34290.25	33464.5
828.2627	662.137	34168.3	33342.9
828.4075	664.2466	34198.35	33371.65
828.5522	666.3556	34167.25	33342.5
828.697	668.4639	34036	33208.3
828.8418	670.5716	34080	33254.25
828.9865	672.6786	34055	33229.4
829.1313	674.785	33925.05	33097.7
829.2761	676.8907	33805.2	32976.3
829.4209	678.9958	33861.8	33037.8
829.5657	681.1002	33716	32887.45
829.7105	683.204	33671.65	32840.8
829.8553	685.3072	33630.75	32799.75
830.0001	687.4097	33528.55	32699.25
830.1449	689.5115	33586.95	32757
830.2898	691.6127	33552.3	32725.35
830.4346	693.7132	33470.4	32639.6
830.5794	695.8131	33476.7	32626.3
830.7243	697.9123	33464	32632.2
830.8691	700.0109	33390.45	32558.75
831.014	702.1089	33338.85	32507.65
831.1588	704.2061	33285.25	32456.45
831.3037	706.3028	33320.5	32487.75
831.4486	708.3987	33292.05	32458.55
831.5935	710.4941	33221.4	32388.15
831.7383	712.5887	33195.7	32362.05
831.8832	714.6827	33197.7	32361.75
832.0281	716.7761	33180.1	32345.6
832.173	718.8688	33148.9	32314.7
832.3179	720.9608	33011.35	32172.45
832.4628	723.0522	33045.85	32206.75
832.6077	725.1429	33018.95	32183.8
832.7527	727.233	32992.9	32157.6
832.8976	729.3224	33029.6	32192.75
833.0425	731.4112	32952.55	32116.1
833.1874	733.4993	32914.55	32078.55
833.3324	735.5867	32758	31918.45
833.4773	737.6735	32680	31840.7
833.6222	739.7596	32572.35	31731.8
833.7672	741.845	32523	31683.45
833.9122	743.9298	32416.4	31574.65
834.0571	746.014	32397	31561.2
834.2021	748.0974	32363.5	31523.85
834.347	750.1802	32246.95	31407.75
834.492	752.2624	32136.7	31297
834.637	754.3439	32008.9	31168.35
834.782	756.4247	31943.5	31093.95
834.9269	758.5048	31837.95	30996.75
835.0719	760.5843	31793.55	30952.7
835.2169	762.6631	31725.1	30883.2
835.3619	764.7413	31705.7	30864.75
835.5069	766.8188	31755.3	30912.45
835.6519	768.8956	31690.7	30848.2
835.7969	770.9718	31758.15	30916.7
835.9419	773.0473	31590.95	30749.3
836.0869	775.1221	31556.65	30715.75
836.232	777.1962	31421.45	30578.8
836.377	779.2697	31453.5	30609.65
836.522	781.3426	31454.4	30591.5
836.667	783.4147	31415.3	30568.9
836.8121	785.4862	31387.6	30546.1
836.9571	787.557	31277.45	30432.7
837.1021	789.6271	31122.35	30278.4
837.2472	791.6966	30969.9	30126.2
837.3922	793.7654	30781.1	29938.6
837.5373	795.8335	30790.55	29945.5
837.6823	797.901	30639.75	29795.65
837.8274	799.9678	30593.95	29748.2
837.9724	802.0339	30518.75	29675.6
838.1175	804.0993	30490.75	29634.55
838.2626	806.1641	30398.05	29548.7
838.4076	808.2282	30312.15	29465.9
838.5527	810.2916	30295.7	29446.7
838.6978	812.3544	30257.6	29412.75
838.8428	814.4164	30143.85	29298.25
838.9879	816.4778	30172.7	29325.3
839.133	818.5385	30141.8	29295.35
839.2781	820.5986	30146.05	29298.6
839.4232	822.658	30122.2	29272.6
839.5682	824.7166	30086.85	29241.6
839.7133	826.7747	30168.95	29322.75
839.8584	828.832	30191.85	29344.95
840.0035	830.8886	30060.05	29211.7
840.1486	832.9446	30117.8	29268.7
840.2937	834.9999	29998.8	29150.85
840.4388	837.0545	29929.25	29077.35
840.5839	839.1085	29822.4	28972
840.729	841.1618	29676.05	28824
840.8741	843.2143	29612.5	28763.95
841.0192	845.2662	29501.15	28650.5
841.1643	847.3175	29449.2	28601.5
841.3095	849.368	29394.05	28545.1
841.4546	851.4179	29321.05	28471.6
841.5997	853.467	29206.7	28354.75
841.7448	855.5155	29177.55	28327.85
841.8899	857.5633	29123.8	28272.5
842.0351	859.6105	29038.75	28187.5
842.1802	861.6569	29037.2	28185.15
842.3253	863.7027	28979.75	28128.2
842.4704	865.7478	28970.9	28119.7
842.6156	867.7922	28896.2	28045.35
842.7607	869.8359	28820.05	27966.25
842.9058	871.8789	28825.8	27973.2
843.0509	873.9212	28810.45	27927.3
843.1961	875.9629	28681.1	27826.9
843.3412	878.0039	28702.35	27850.15
843.4863	880.0441	28668.25	27817
843.6315	882.0837	28680.15	27825.95
843.7766	884.1226	28645.35	27790.1
843.9218	886.1609	28633.5	27781.05
844.0669	888.1984	28628.55	27775.6
844.212	890.2352	28734.45	27881.7
844.3572	892.2714	28666.6	27808.65
844.5023	894.3069	28654.6	27800.6
844.6475	896.3416	28523	27668.5
844.7926	898.3757	28474.2	27618.6
844.9377	900.4091	28398	27544.6
845.0829	902.4418	28319	27460.55
845.228	904.4739	28254.95	27396.85
845.3732	906.5052	28249.35	27393.85
845.5183	908.5358	28224.75	27368.9
845.6635	910.5658	28141	27283.2
845.8086	912.595	28118.1	27261.55
845.9538	914.6236	27947.25	27092.65
846.0989	916.6515	27939.15	27084.45
846.2441	918.6786	27823.8	26967.75
846.3892	920.7051	27786.95	26929.5
846.5344	922.7309	27796.45	26936.55
846.6795	924.756	27668.5	26811.75
846.8246	926.7804	27750.05	26890.7
846.9698	928.8041	27491.8	26632.2
847.1149	930.8272	27522.05	26664.15
847.2601	932.8495	27379.75	26520.05
847.4052	934.8711	27386.5	26527.4
847.5504	936.892	27291.25	26435.15
847.6955	938.9123	27229.75	26369.15
847.8407	940.9318	27230.25	26372.95
847.9858	942.9506	27122.5	26263.65
848.131	944.9688	27026.75	26168.4
848.2761	946.9862	27010.6	26151.7
848.4213	949.003	26830.65	25970.35
848.5664	951.019	26752.9	25894.35
848.7115	953.0344	26718.65	25858.4
848.8567	955.0491	26633.25	25773.6
849.0018	957.063	26628.8	25766.95
849.147	959.0763	26646.6	25787.85
849.2921	961.0888	26534	25673.25
849.4373	963.1007	26529.25	25668.6
849.5824	965.1119	26465.3	25604.2
849.7275	967.1223	26373.5	25511.35
849.8727	969.1321	26339.3	25479.55
850.0178	971.1412	26336.55	25476.85
850.1629	973.1495	26268.3	25408.15
850.3081	975.1572	26248.8	25343.15
850.4532	977.1641	26223.45	25362.8
850.5983	979.1704	26150.95	25290.15
850.7435	981.1759	26025.15	25161.25
850.8886	983.1808	26005.55	25142.6
851.0337	985.1849	25964.85	25097
851.1788	987.1884	25912.45	25048.1
851.324	989.1911	25879.15	25015.8
851.4691	991.1932	25850.3	24988.75
851.6142	993.1945	25731.3	24871
851.7593	995.1951	25598.5	24737.95
851.9045	997.1951	25587.2	24719.35
852.0496	999.1943	25490.7	24627
852.1947	1001.1928	25387.65	24525.25
852.3398	1003.1906	25316.05	24454.3
852.4849	1005.1877	25284.95	24419.9
852.63	1007.1841	25185.9	24322.35
852.7751	1009.1798	25111.75	24249.7
852.9202	1011.1748	25042.05	24178.2
853.0653	1013.1691	24960.05	24098.05
853.2104	1015.1627	24871.5	24006.6
853.3555	1017.1556	24678.15	23815.1
853.5006	1019.1477	24607.35	23743.65
853.6457	1021.1392	24494.1	23629.75
853.7908	1023.1299	24411.15	23547.25
853.9359	1025.12	24319.8	23454.8
854.081	1027.1093	24217.45	23354.55
854.2261	1029.0979	24184.25	23322.4
854.3712	1031.0859	24115.5	23251.3
854.5163	1033.0731	24057.45	23192.6
854.6613	1035.0596	24022.4	23160.35
854.8064	1037.0454	23867.5	23002.6
854.9515	1039.0304	23844.15	22979.9
855.0965	1041.0148	23700.85	22834.55
855.2416	1042.9985	23589.95	22721.9
855.3867	1044.9814	23580.55	22717.4
855.5317	1046.9636	23489.35	22622.95
855.6768	1048.9452	23452.05	22587.1
855.8219	1050.926	23437.75	22571
855.9669	1052.9061	23348.25	22485.5
856.112	1054.8855	23293.6	22428.1
856.257	1056.8642	23262.9	22400.1
856.4021	1058.8421	23260.95	22390.25
856.5471	1060.8194	23149.05	22282.8
856.6921	1062.7959	23155.2	22291.1
856.8372	1064.7717	23079.1	22212.35
856.9822	1066.7469	23049.25	22179.25
857.1272	1068.7213	23015.2	22146.5
857.2723	1070.695	22994.85	22126.9
857.4173	1072.6679	22890.6	22025.3
857.5623	1074.6402	22883.85	22017.1
857.7073	1076.6117	22865.25	21994.95
857.8523	1078.5826	22865.9	21997.55
857.9973	1080.5527	22793.2	21923.4
858.1423	1082.5221	22636.4	21768.2
858.2873	1084.4908	22624.5	21758.3
858.4323	1086.4587	22559.6	21690.2
858.5773	1088.426	22449.65	21579.75
858.7223	1090.3925	22397.5	21524.8
858.8673	1092.3584	22384.1	21517.3
859.0123	1094.3235	22313.7	21447.95
859.1573	1096.2879	22281.6	21414.55
859.3022	1098.2515	22210.5	21341.45
859.4472	1100.2145	22284.25	21415.6
859.5922	1102.1767	22196.15	21328.1
859.7371	1104.1382	22206.4	21337.6
859.8821	1106.099	22197.85	21327.85
860.027	1108.0591	22179.8	21311.55
860.172	1110.0185	22176.25	21306.25
860.3169	1111.9771	22174.55	21306.15
860.4619	1113.9351	22133.8	21266.85
860.6068	1115.8923	22134.3	21265.2
860.7517	1117.8488	22096.1	21225.55
860.8967	1119.8045	22019	21150.1
861.0416	1121.7596	21910.55	21040.85
861.1865	1123.7139	21771.7	20903.8
861.3314	1125.6675	21657.8	20787.9
861.4763	1127.6204	21614.05	20744.85
861.6212	1129.5726	21615	20746.35
861.7661	1131.524	21550.75	20683.35
861.911	1133.4748	21549.45	20681.45
862.0559	1135.4248	21395.95	20527
862.2008	1137.3741	21331.95	20464.05
862.3457	1139.3226	21208.65	20339.05
862.4905	1141.2705	21273.1	20403.45
862.6354	1143.2176	21148.45	20272.45
862.7803	1145.164	21147.15	20275.35
862.9251	1147.1097	21117.7	20248
863.07	1149.0546	21035.3	20164.15
863.2148	1150.9989	21021.45	20149.9
863.3597	1152.9424	21019.65	20149.4
863.5045	1154.8852	20969.45	20099.4
863.6493	1156.8272	20931.75	20061.85
863.7942	1158.7686	20901.4	20026.4
863.939	1160.7092	20856.3	19986.3
864.0838	1162.6491	20753.35	19879.65
864.2286	1164.5883	20757.7	19888
864.3734	1166.5267	20772.1	19902.05
864.5182	1168.4644	20742.45	19872.5
864.663	1170.4014	20738.95	19862.75
864.8078	1172.3377	20774.9	19905.55
864.9526	1174.2732	20741.8	19869
865.0974	1176.2081	20833.65	19962.9
865.2421	1178.1421	20921.7	20047.1
865.3869	1180.0755	21006.9	20136.4
865.5317	1182.0082	20986.35	20116.1
865.6764	1183.9401	20931.9	20060.25
865.8212	1185.8713	20807.75	19935.85
865.9659	1187.8017	20698.95	19828.15
866.1106	1189.7315	20583.8	19712.35
866.2554	1191.6605	20392.85	19523.2
866.4001	1193.5888	20273.2	19402.15
866.5448	1195.5163	20217.05	19347.05
866.6895	1197.4432	20110.35	19237.8
866.8342	1199.3693	20038.9	19166.9
866.9789	1201.2947	19938.3	19064.25
867.1236	1203.2193	19857.85	18985.25
867.2683	1205.1432	19854.05	18982.25
867.413	1207.0664	19773.35	18901.9
867.5576	1208.9889	19721.55	18846.6
867.7023	1210.9106	19637.75	18766.1
867.847	1212.8316	19582.3	18710.7
867.9916	1214.7519	19587.6	18707.55
868.1363	1216.6715	19524.05	18652.9
868.2809	1218.5903	19513.65	18640.65
868.4255	1220.5084	19482.65	18610.8
868.5701	1222.4257	19499.9	18628.6
868.7148	1224.3424	19388.45	18518.4
868.8594	1226.2583	19364.8	18486.45
869.004	1228.1735	19377.9	18506.1
869.1486	1230.0879	19296.2	18422.9
869.2932	1232.0016	19302.35	18430.05
869.4377	1233.9146	19307.15	18433.55
869.5823	1235.8269	19227.95	18356.9
869.7269	1237.7384	19236.25	18362.65
869.8715	1239.6492	19185.7	18313.85
870.016	1241.5592	19219.1	18344.6
870.1606	1243.4686	19148.85	18276.1
870.3051	1245.3772	19188.85	18317.4
870.4496	1247.285	19225.75	18352.2
870.5941	1249.1922	19317.5	18443.45
870.7387	1251.0986	19315.75	18443.75
870.8832	1253.0042	19314.85	18442.5
871.0277	1254.9092	19358.95	18486.4
871.1722	1256.8134	19378.7	18505.8
871.3167	1258.7169	19498.75	18623.9
871.4611	1260.6196	19509.55	18636.1
871.6056	1262.5216	19501.15	18626.05
871.7501	1264.4229	19439.2	18565
871.8945	1266.3234	19402.95	18529.75
872.039	1268.2232	19339.95	18464.95
872.1834	1270.1223	19263.05	18387
872.3278	1272.0207	19198.7	18325.5
872.4723	1273.9183	19136.35	18257.15
872.6167	1275.8151	19095.45	18221.65
872.7611	1277.7113	19118.95	18243.05
872.9055	1279.6067	19142.15	18268.3
873.0499	1281.5014	19221.2	18344.3
873.1943	1283.3953	19394.1	18517.55
873.3386	1285.2885	19569.7	18696.35
873.483	1287.181	19693.15	18819.05
873.6274	1289.0727	19775.1	18901.1
873.7717	1290.9637	19665.3	18788.9
873.9161	1292.854	19598.8	18725.8
874.0604	1294.7435	19389.65	18515
874.2047	1296.6323	19277.55	18403
874.349	1298.5204	19158	18279.2
874.4933	1300.4077	19050.55	18174.8
874.6376	1302.2943	19025.65	18151.05
874.7819	1304.1802	18991.45	18117.05
874.9262	1306.0653	18890.15	18012.6
875.0705	1307.9497	18823.55	17947.6
875.2147	1309.8333	18807.95	17933.5
875.359	1311.7162	18764.35	17890.95
875.5032	1313.5984	18714.75	17836.15
875.6475	1315.4798	18605.1	17729.2
875.7917	1317.3605	18594.45	17713.55
875.9359	1319.2405	18627.25	17752.45
876.0801	1321.1197	18565.75	17686.75
876.2243	1322.9982	18454.35	17574.25
876.3685	1324.876	18395.65	17521.2
876.5127	1326.753	18289.3	17412.65
876.6569	1328.6293	18205.8	17330.1
876.801	1330.5048	18121.9	17244.2
876.9452	1332.3796	17984.75	17110.5
877.0893	1334.2537	17922.4	17023.35
877.2335	1336.127	17858.75	16983.95
877.3776	1337.9996	17787.6	16910.1
877.5217	1339.8714	17748.2	16873.4
877.6658	1341.7426	17729.6	16809.55
877.8099	1343.6129	17698.85	16821.95
877.954	1345.4826	17609.7	16733.65
878.0981	1347.3515	17594.35	16716.4
878.2422	1349.2196	17550.55	16675.4
878.3862	1351.087	17521.3	16646.65
878.5303	1352.9537	17480.6	16603.7
878.6743	1354.8197	17506.7	16632.7
878.8184	1356.6849	17513.45	16637.45
878.9624	1358.5493	17491.15	16615.35
879.1064	1360.4131	17462	16587.1
879.2504	1362.276	17444.9	16569.35
879.3944	1364.1383	17422.25	16547.55
879.5384	1365.9998	17386.5	16505.95
879.6823	1367.8606	17377.45	16501.15
879.8263	1369.7206	17374	16500.15
879.9702	1371.5799	17310.15	16431.95
880.1142	1373.4384	17261.2	16385.6
880.2581	1375.2962	17248.75	16371.55
880.402	1377.1533	17099.1	16223.95
880.5459	1379.0096	16952.6	16075.25
880.6898	1380.8652	16922	16045.4
880.8337	1382.7201	16864.55	15987.9
880.9776	1384.5742	16748.7	15873.85
881.1215	1386.4275	16660	15781.6
881.2653	1388.2802	16604.95	15729
881.4092	1390.132	16549.55	15673.25
881.553	1391.9832	16540.8	15661.9
881.6968	1393.8336	16432.5	15554.85
881.8406	1395.6832	16394.15	15514.65
881.9844	1397.5322	16341.55	15465.15
882.1282	1399.3803	16290.8	15410
882.272	1401.2278	16182.2	15306.1
882.4158	1403.0745	16154.25	15278.35
882.5595	1404.9204	16104	15227.55
882.7033	1406.7656	16046.25	15169.45
882.847	1408.6101	15979.7	15100.8
882.9908	1410.4538	15938.6	15061
883.1345	1412.2968	15890.65	15012.6
883.2782	1414.139	15835.1	14959.35
883.4219	1415.9805	15854	14977.6
883.5656	1417.8213	15772.85	14874.4
883.7092	1419.6613	15726.95	14853.45
883.8529	1421.5006	15745.75	14868.15
883.9965	1423.3391	15743.35	14866.35
884.1402	1425.1769	15704.8	14828.25
884.2838	1427.0139	15779.55	14902.55
884.4274	1428.8502	15828.85	14951.65
884.571	1430.6858	15869.25	14991.7
884.7146	1432.5206	15818.5	14943.4
884.8582	1434.3547	15839.4	14961.35
885.0018	1436.188	15792.15	14914.25
885.1453	1438.0206	15750.15	14872.75
885.2889	1439.8524	15677.45	14800.4
885.4324	1441.6835	15668.65	14790.25
885.5759	1443.5139	15625.55	14745.2
885.7194	1445.3435	15593.15	14715.75
885.8629	1447.1724	15588.2	14709
886.0064	1449.0005	15553.5	14679.05
886.1499	1450.8279	15520.6	14642.5
886.2933	1452.6545	15536.6	14660.5
886.4368	1454.4804	15505.1	14628.5
886.5802	1456.3056	15464.05	14579.5
886.7237	1458.13	15421.2	14544.65
886.8671	1459.9536	15421.5	14543.6
887.0105	1461.7766	15358.35	14481.6
887.1539	1463.5987	15285.1	14407
887.2972	1465.4202	15219.2	14340.5
887.4406	1467.2409	15115.85	14239.65
887.584	1469.0608	15094.75	14217.9
887.7273	1470.88	15042.1	14163.85
887.8706	1472.6984	14979.65	14102.15
888.0139	1474.5161	14920.8	14041.55
888.1572	1476.3331	14880.1	14003.25
888.3005	1478.1493	14811.4	13934.2
888.4438	1479.9648	14839	13961.65
888.5871	1481.7795	14767.9	13890.5
888.7303	1483.5935	14735.25	13857.8
888.8736	1485.4067	14738.5	13863.25
889.0168	1487.2192	14719.95	13843.7
889.16	1489.031	14732.4	13852.1
889.3032	1490.842	14673	13796
889.4464	1492.6522	14650.7	13773.1
889.5896	1494.4618	14614.85	13736.8
889.7327	1496.2705	14610.35	13733.3
889.8759	1498.0785	14566.25	13688.65
890.019	1499.8858	14551.95	13672.7
890.1622	1501.6924	14458.9	13580.4
890.3053	1503.4981	14442.15	13563.95
890.4484	1505.3032	14406.35	13529.5
890.5914	1507.1075	14364.9	13485.45
890.7345	1508.911	14352.9	13474.55
890.8776	1510.7138	14318.05	13438.75
891.0206	1512.5159	14273.8	13397.1
891.1637	1514.3172	14258.15	13381
891.3067	1516.1178	14182.6	13305.9
891.4497	1517.9176	14160.6	13279.2
891.5927	1519.7166	14096.7	13220.25
891.7357	1521.515	14085.1	13199.1
891.8786	1523.3126	13999.75	13121.9
892.0216	1525.1094	13943.95	13063.95
892.1645	1526.9055	13937.25	13059.55
892.3074	1528.7008	13869.2	12993.75
892.4503	1530.4954	13816.85	12938.8
892.5932	1532.2893	13784.65	12908
892.7361	1534.0824	13738.05	12854.5
892.879	1535.8747	13722.6	12846
893.0218	1537.6663	13641.65	12760.95
893.1647	1539.4572	13560.4	12681.3
893.3075	1541.2473	13562.4	12681.6
893.4503	1543.0367	13526.05	12648.95
893.5931	1544.8253	13466.6	12582.8
893.7359	1546.6132	13463.65	12584.2
893.8787	1548.4003	13401.7	12511.8
894.0214	1550.1867	13379.6	12494.5
894.1642	1551.9723	13365.3	12482.9
894.3069	1553.7572	13342.55	12462.85
894.4496	1555.5414	13310.85	12430.45
894.5923	1557.3247	13285.7	12406.35
894.735	1559.1074	13304.8	12425.8
894.8777	1560.8893	13298.2	12422.55
895.0204	1562.6705	13286.05	12408.7
895.163	1564.4509	13270.75	12394.65
895.3056	1566.2305	13225.55	12349
895.4482	1568.0094	13246.65	12371.65
895.5908	1569.7876	13202.6	12325
895.7334	1571.565	13204.3	12325.55
895.876	1573.3417	13166.95	12290.8
896.0186	1575.1176	13136.55	12259.55
896.1611	1576.8928	13104.2	12225.3
896.3036	1578.6672	13082.8	12205.7
896.4461	1580.4409	13056.85	12181.65
896.5886	1582.2138	13047.4	12167.15
896.7311	1583.986	13075.55	12197.9
896.8736	1585.7575	13095.75	12218.3
897.0161	1587.5282	13072.4	12195.3
897.1585	1589.2981	13095.75	12219.15
897.3009	1591.0673	13057.9	12178.65
897.4433	1592.8358	13044.4	12167.1
897.5857	1594.6035	13008.3	12128.5
897.7281	1596.3704	12939.65	12062.85
897.8705	1598.1366	12867.75	11987.1
898.0128	1599.9021	12834.65	11957.5
898.1551	1601.6668	12748.3	11867.5
898.2975	1603.4308	12688.45	11811.2
898.4398	1605.194	12648	11762.1
898.5821	1606.9564	12640.15	11762.85
898.7243	1608.7182	12709.05	11827
898.8666	1610.4791	12692.35	11813.15
899.0088	1612.2394	12766.9	11888.85
899.1511	1613.9988	12827.95	11946.9
899.2933	1615.7576	12908.1	12031.8
899.4355	1617.5156	12941.55	12060.5
899.5776	1619.2728	12880.6	12004
899.7198	1621.0293	12786.1	11907.65
899.862	1622.785	12612.6	11731.7
900.0041	1624.54	12437.7	11556.6
900.1462	1626.2942	12294.6	11414.7
900.2883	1628.0477	12131	11251.15
900.4304	1629.8005	12037.3	11155.3
900.5725	1631.5525	11928	11049.7
900.7145	1633.3037	11835.1	10955.55
900.8566	1635.0542	11774.1	10896.75
900.9986	1636.804	11683.8	10806
901.1406	1638.553	11672	10702.65
901.2826	1640.3013	11559.8	10681.45
901.4245	1642.0488	11468.5	10588.55
901.5665	1643.7955	11412.6	10535.85
901.7085	1645.5416	11396.4	10517.6
901.8504	1647.2868	11387.55	10510
901.9923	1649.0313	11335.45	10458.1
902.1342	1650.7751	11298.7	10415.5
902.2761	1652.5181	11268.65	10392.55
902.4179	1654.2604	11204.9	10326.35
902.5598	1656.0019	11182.75	10304.15
902.7016	1657.7427	11158.6	10280.4
902.8434	1659.4828	11161.1	10282.35
902.9852	1661.222	11156.3	10276.8
903.127	1662.9606	11158.9	10280.95
903.2687	1664.6984	11174.1	10295.8
903.4105	1666.4354	11183.5	10305.7
903.5522	1668.1717	11096.95	10221.25
903.6939	1669.9072	11045.05	10168
903.8356	1671.642	10947.05	10065.85
903.9773	1673.3761	10892	10014.95
904.119	1675.1094	10823.8	9944.7
904.2606	1676.8419	10750.7	9873.55
904.4022	1678.5737	10692.8	9814.15
904.5439	1680.3048	10648.8	9769.95
904.6855	1682.0351	10601.7	9724.7
904.827	1683.7646	10530.3	9649.85
904.9686	1685.4934	10518.95	9642.25
905.1101	1687.2215	10441.2	9564.25
905.2517	1688.9488	10402.15	9525.1
905.3932	1690.6754	10351.15	9474.45
905.5347	1692.4012	10330.1	9452.05
905.6761	1694.1263	10291.75	9414.5
905.8176	1695.8506	10247.25	9369.35
905.9591	1697.5742	10229.1	9350.85
906.1005	1699.297	10191	9310.95
906.2419	1701.0191	10129.45	9251.35
906.3833	1702.7404	10099.35	9221.9
906.5246	1704.461	10051.95	9171.7
906.666	1706.1808	10000.95	9121.4
906.8073	1707.8999	9977.45	9097.9
906.9487	1709.6182	9952.85	9074.6
907.09	1711.3358	9924.3	9046.25
907.2313	1713.0527	9892.85	9015.6
907.3725	1714.7688	9838.2	8954.8
907.5138	1716.4841	9819.25	8938.85
907.655	1718.1987	9813.8	8932.6
907.7962	1719.9126	9775.4	8898.05
907.9374	1721.6257	9733.2	8852.05
908.0786	1723.338	9723.1	8843.7
908.2198	1725.0496	9694.3	8815.5
908.3609	1726.7605	9691.45	8812.9
908.502	1728.4706	9649.55	8771.2
908.6431	1730.18	9632.75	8751.25
908.7842	1731.8886	9601.65	8725
908.9253	1733.5964	9583.65	8683.55
909.0664	1735.3036	9558.15	8678
909.2074	1737.0099	9543.25	8661.8
909.3484	1738.7156	9528.1	8651.35
909.4894	1740.4204	9493.35	8610.7
909.6304	1742.1246	9494.6	8615.75
909.7714	1743.8279	9484.35	8605.8
909.9123	1745.5306	9485.25	8606.5
910.0532	1747.2325	9467.9	8587.4
910.1941	1748.9336	9452.15	8574.15
910.335	1750.634	9404.75	8525.25
910.4759	1752.3336	9380.65	8505.55
910.6168	1754.0325	9367.6	8491
910.7576	1755.7307	9363.65	8485.8
910.8984	1757.4281	9352.65	8473.8
911.0392	1759.1247	9340.75	8453.65
911.18	1760.8206	9324.15	8442.1
911.3208	1762.5158	9304.3	8422.4
911.4615	1764.2102	9246.3	8368.25
911.6022	1765.9039	9221.35	8343
911.7429	1767.5968	9219.85	8339.9
911.8836	1769.289	9203.65	8325.5
912.0243	1770.9804	9167.25	8288.7
912.1649	1772.6711	9169.65	8291.95
912.3056	1774.361	9156.25	8278.3
912.4462	1776.0502	9123.7	8244.85
912.5868	1777.7386	9116.7	8235.15
912.7274	1779.4263	9085.55	8206.8
912.8679	1781.1132	9088.1	8207.7
913.0084	1782.7994	9043.9	8162.7
913.149	1784.4849	9041.8	8164.2
913.2895	1786.1696	8992	8092.4
913.4299	1787.8535	8992.85	8116.15
913.5704	1789.5367	8959.65	8079.55
913.7108	1791.2192	8956.95	8080.45
913.8513	1792.9009	8926.65	8030.9
913.9917	1794.5818	8915.55	8037.05
914.132	1796.2621	8879.6	8002
914.2724	1797.9415	8850.5	7970.35
914.4128	1799.6202	8819.65	7942.35
914.5531	1801.2982	8828.2	7948.05
914.6934	1802.9755	8785.75	7906.25
914.8337	1804.6519	8786.95	7909.95
914.9739	1806.3277	8739.4	7862.75
915.1142	1808.0027	8720.15	7842.15
915.2544	1809.6769	8699.6	7821.9
915.3946	1811.3504	8688.25	7809
915.5348	1813.0231	8691.75	7813.2
915.675	1814.6951	8663.2	7785.2
915.8151	1816.3664	8664.7	7783.55
915.9553	1818.0369	8624.55	7746
916.0954	1819.7067	8586.9	7708.75
916.2355	1821.3757	8591.1	7709.35
916.3755	1823.044	8583	7705.3
916.5156	1824.7115	8548.2	7670.35
916.6556	1826.3783	8537.5	7660.1
916.7956	1828.0443	8525.85	7646.75
916.9356	1829.7096	8490.45	7610.2
917.0756	1831.3741	8498.3	7616.8
917.2155	1833.0379	8465.4	7587.7
917.3555	1834.701	8437.05	7556.15
917.4954	1836.3633	8426.5	7549.4
917.6353	1838.0248	8393.2	7513.35
917.7751	1839.6856	8384.95	7507.35
917.915	1841.3457	8365.45	7488.7
918.0548	1843.005	8338.35	7459.05
918.1946	1844.6636	8307.7	7431.15
918.3344	1846.3214	8306.75	7427.2
918.4742	1847.9785	8302.45	7424
918.6139	1849.6349	8275.6	7395.4
918.7537	1851.2904	8266.2	7379.15
918.8934	1852.9453	8246.95	7368.7
919.0331	1854.5994	8197.55	7317.05
919.1727	1856.2528	8227.5	7342.95
919.3124	1857.9054	8206.25	7327.65
919.452	1859.5572	8190.75	7312.55
919.5916	1861.2083	8177.15	7296.45
919.7312	1862.8587	8169.65	7291
919.8708	1864.5084	8168	7289
920.0103	1866.1572	8127.2	7246.9
920.1498	1867.8054	8099.7	7221.2
920.2893	1869.4528	8093.8	7217.3
920.4288	1871.0994	8060.95	7182.8
920.5683	1872.7453	8073.2	7192.8
920.7077	1874.3905	8032.8	7147.95
920.8471	1876.0349	7993.5	7115.9
920.9865	1877.6786	8003.3	7122.8
921.1259	1879.3215	8009.05	7132.7
921.2653	1880.9637	7996.25	7116.65
921.4046	1882.6051	7965.2	7087.9
921.5439	1884.2458	7952.75	7071.7
921.6832	1885.8858	7911.85	7032.7
921.8225	1887.525	7906.75	7026.85
921.9617	1889.1634	7875.5	6997.05
922.101	1890.8011	7853.15	6972.75
922.2402	1892.4381	7836.1	6958.5
922.3794	1894.0743	7833.8	6955.15
922.5185	1895.7098	7788.75	6909.6
922.6577	1897.3446	7820.95	6942.25
922.7968	1898.9786	7792.4	6906.85
922.9359	1900.6118	7791.05	6912.65
923.075	1902.2443	7744.6	6864.85
923.214	1903.8761	7741.1	6864.25
923.3531	1905.5071	7679.55	6799.85
923.4921	1907.1374	7677.7	6797.25
923.6311	1908.7669	7663.05	6785.25
923.77	1910.3957	7647.05	6768.15
923.909	1912.0237	7620.4	6740.15
924.0479	1913.651	7600.2	6721.25
924.1868	1915.2776	7569.85	6690.25
924.3257	1916.9034	7546.25	6667.5
924.4646	1918.5285	7532.95	6656.35
924.6034	1920.1528	7497.8	6618.55
924.7422	1921.7764	7482.75	6605.1
924.881	1923.3992	7459.45	6582
925.0198	1925.0213	7419.75	6539.55
925.1586	1926.6427	7388.05	6511.35
925.2973	1928.2633	7538.45	6449.6
925.436	1929.8832	7410.15	6529.8
925.5747	1931.5023	7345.1	6467.15
925.7134	1933.1207	7322.05	6443.65
925.852	1934.7383	7334.3	6455
925.9906	1936.3552	7279.5	6401.45
926.1292	1937.9714	7291.65	6410.95
926.2678	1939.5868	7263.15	6382.3
926.4064	1941.2015	7245.4	6366.05
926.5449	1942.8154	7192.05	6313.9
926.6834	1944.4286	7179.65	6299.9
926.8219	1946.041	7172.8	6273.25
926.9604	1947.6528	7113.35	6229.1
927.0988	1949.2637	7117.2	6240.2
927.2372	1950.8739	7086.2	6205.85
927.3756	1952.4834	7070.3	6191.35
927.514	1954.0921	7075.35	6195.3
927.6523	1955.7001	7047.35	6163.5
927.7907	1957.3074	7067.35	6191.05
927.929	1958.9139	7037.85	6161.55
928.0673	1960.5197	7003.1	6122.4
928.2055	1962.1247	6979.85	6102.4
928.3438	1963.729	6953.9	6077.85
928.482	1965.3325	6946.85	6046
928.6202	1966.9353	6922.6	6044
928.7584	1968.5374	6880.6	6001.6
928.8965	1970.1387	6852.2	5972.75
929.0346	1971.7393	6841.85	5962.55
929.1727	1973.3392	6811.8	5931.7
929.3108	1974.9383	6819.3	5942.35
929.4489	1976.5366	6772.55	5893.95
929.5869	1978.1342	6777.05	5898.7
929.7249	1979.7311	6778.55	5899.95
929.8629	1981.3273	6783.35	5903.8
930.0009	1982.9227	6722.95	5843.4
930.1388	1984.5173	6691.05	5814.25
930.2767	1986.1112	6699.1	5821.2
930.4146	1987.7044	6667.1	5791.2
930.5525	1989.2968	6670.05	5788.9
930.6904	1990.8885	6665	5782.6
930.8282	1992.4795	6634.45	5754.55
930.966	1994.0697	6622.45	5743.35
931.1038	1995.6592	6605.95	5726.7
931.2415	1997.2479	6593.55	5716
931.3793	1998.8359	6585.45	5708.15
931.517	2000.4232	6552.05	5674.35
931.6547	2002.0097	6534.4	5657.55
931.7923	2003.5955	6505.85	5626.35
931.93	2005.1805	6502.1	5623.2
932.0676	2006.7648	6480.25	5602.75
932.2052	2008.3484	6470.35	5590.2
932.3427	2009.9312	6480.15	5600.05
932.4803	2011.5133	6438.8	5562.15
932.6178	2013.0946	6434.65	5555.05
932.7553	2014.6752	6417.35	5540.4
932.8928	2016.2551	6391.7	5512.45
933.0302	2017.8342	6382.4	5503.7
933.1676	2019.4126	6360.7	5484
933.305	2020.9902	6354.85	5478.7
933.4424	2022.5672	6315.85	5436.45
933.5798	2024.1433	6337.2	5452.65
933.7171	2025.7188	6314.25	5436.25
933.8544	2027.2935	6299.25	5420.2
933.9917	2028.8674	6272.55	5393.85
934.129	2030.4406	6267.95	5390.85
934.2662	2032.0131	6251.7	5373.65
934.4034	2033.5849	6228.95	5345.4
934.5406	2035.1559	6226.65	5348.2
934.6778	2036.7261	6213.4	5334.4
934.8149	2038.2957	6197.25	5316.9
934.952	2039.8645	6203.5	5326.55
935.0891	2041.4325	6196.9	5317
935.2262	2042.9998	6165.9	5287.2
935.3632	2044.5664	6161.1	5281.8
935.5002	2046.1323	6147.6	5268.3
935.6372	2047.6974	6144.95	5266.2
935.7742	2049.2617	6129.5	5249.4
935.9111	2050.8254	6132.1	5234.2
936.048	2052.3883	6102.75	5224.1
936.1849	2053.9504	6096.45	5218.8
936.3218	2055.5118	6080.3	5201.5
936.4586	2057.0725	6059.8	5175.85
936.5955	2058.6325	6047.65	5171.9
936.7323	2060.1917	6030.85	5152.65
936.869	2061.7502	6030.45	5149.3
937.0058	2063.3079	6004.75	5126.75
937.1425	2064.8649	5990.5	5108.1
937.2792	2066.4212	5990.5	5112.6
937.4159	2067.9767	5978.65	5101.35
937.5525	2069.5315	5968.25	5089.95
937.6891	2071.0856	5939.9	5060.4
937.8257	2072.6389	5928.25	5049.6
937.9623	2074.1915	5907.3	5030.65
938.0989	2075.7433	5892.9	5012.2
938.2354	2077.2945	5899.65	5024.95
938.3719	2078.8448	5865.25	4986.95
938.5084	2080.3945	5851.35	4974.1
938.6448	2081.9434	5830.8	4951.85
938.7812	2083.4916	5821.25	4942.3
938.9176	2085.039	5807.25	4926.75
939.054	2086.5857	5796.45	4916.05
939.1903	2088.1317	5780.1	4902.8
939.3267	2089.677	5762.75	4884.4
939.463	2091.2215	5775	4896.6
939.5992	2092.7652	5785.6	4907.5
939.7355	2094.3083	5757.45	4879.05
939.8717	2095.8506	5735.15	4858.05
940.0079	2097.3921	5748.1	4870.8
940.1441	2098.933	5730.2	4850.65
940.2802	2100.4731	5719.55	4842.7
940.4163	2102.0124	5723.5	4827.25
940.5524	2103.5511	5716.25	4839.5
940.6885	2105.089	5701.1	4821.85
940.8245	2106.6261	5694.1	4816.5
940.9606	2108.1626	5669.35	4791.5
941.0965	2109.6983	5681.95	4776.2
941.2325	2111.2332	5668.45	4790.4
941.3684	2112.7675	5653.8	4774.2
941.5044	2114.301	5623	4741.55
941.6403	2115.8337	5641.05	4762.9
941.7761	2117.3657	5608.3	4730.1
941.912	2118.897	5613.9	4734.75
942.0478	2120.4276	5594.2	4709.35
942.1835	2121.9575	5582.15	4704.95
942.3193	2123.4866	5578.95	4699.1
942.455	2125.0149	5543.55	4661.5
942.5907	2126.5426	5536.1	4657.2
942.7264	2128.0695	5537.05	4653.5
942.8621	2129.5956	5521.4	4643.6
942.9977	2131.1211	5526.2	4644.55
943.1333	2132.6458	5505.95	4627.65
943.2689	2134.1698	5484.1	4603.95
943.4044	2135.693	5494.7	4613.75
943.54	2137.2155	5465.2	4584.55
943.6755	2138.7373	5469.35	4591.15
943.8109	2140.2584	5446.55	4568.4
943.9464	2141.7787	5440.45	4556.2
944.0818	2143.2983	5437.95	4562.25
944.2172	2144.8171	5395.8	4519.8
944.3526	2146.3353	5381.6	4500.5
944.4879	2147.8527	5360.1	4482.05
944.6232	2149.3693	5380.7	4500.8
944.7585	2150.8853	5380.75	4500.45
944.8938	2152.4005	5336.3	4457.1
945.029	2153.9149	5316.8	4439
945.1642	2155.4287	5295.85	4417.95
945.2994	2156.9417	5297.85	4417.4
945.4346	2158.454	5288.45	4407.7
945.5697	2159.9655	5265.25	4388.25
945.7048	2161.4764	5268.2	4389.5
945.8399	2162.9865	5265.75	4387.75
945.9749	2164.4958	5245.25	4366.55
946.1099	2166.0045	5227.2	4346.3
946.2449	2167.5124	5219.6	4340.95
946.3799	2169.0195	5225.2	4345.55
946.5148	2170.526	5225.75	4347.75
946.6498	2172.0317	5207.75	4327.7
946.7846	2173.5367	5179.3	4300.05
946.9195	2175.0409	5181.45	4303.65
947.0543	2176.5445	5174.6	4296.8
947.1891	2178.0473	5150.6	4272.3
947.3239	2179.5494	5137.45	4256.35
947.4587	2181.0507	5126.7	4248.8
947.5934	2182.5513	5121.2	4243.05
947.7281	2184.0512	5098.1	4220.6
947.8628	2185.5504	5079.05	4200.9
947.9974	2187.0488	5086.15	4205.55
948.132	2188.5465	5045.4	4165
948.2666	2190.0435	5043.05	4165.15
948.4012	2191.5397	5015.85	4138.95
948.5357	2193.0353	5018.4	4140.25
948.6702	2194.5301	4993.85	4112.95
948.8047	2196.0241	4991.25	4114.85
948.9392	2197.5175	4965.25	4087
949.0736	2199.0101	4961.4	4078.8
949.208	2200.502	4944.4	4067.75
949.3424	2201.9931	4921.9	4045.8
949.4767	2203.4835	4915	4035.5
949.611	2204.9733	4917.65	4033.25
949.7453	2206.4622	4896.85	4019.65
949.8796	2207.9505	4874.2	3993.75
950.0138	2209.438	4883.65	4007.9
950.148	2210.9248	4855.35	3975.65
950.2822	2212.4109	4836.05	3958.6
950.4164	2213.8962	4827.9	3944.45
950.5505	2215.3809	4811.5	3930.5
950.6846	2216.8648	4803	3925.05
950.8186	2218.3479	4790.4	3907.4
950.9527	2219.8304	4790.3	3910.45
951.0867	2221.3121	4756.2	3876.95
951.2207	2222.7931	4748.8	3869.75
951.3546	2224.2733	4741.45	3863.2
951.4886	2225.7529	4715.15	3835.95
951.6225	2227.2317	4703.85	3822.7
951.7563	2228.7098	4705.8	3827.7
951.8902	2230.1872	4695.5	3818.35
952.024	2231.6638	4692.15	3814.15
952.1578	2233.1397	4687	3802.8
952.2916	2234.6149	4669.2	3792.1
952.4253	2236.0894	4651.45	3771.2
952.559	2237.5632	4630.5	3750.6
952.6927	2239.0362	4619.25	3739.05
952.8263	2240.5085	4599.35	3721.6
952.9599	2241.9801	4594.95	3714.65
953.0935	2243.4509	4571.2	3695.1
953.2271	2244.921	4570.3	3692.25
953.3606	2246.3904	4556.8	3677
953.4941	2247.8591	4542.25	3663.6
953.6276	2249.3271	4525.35	3648.85
953.7611	2250.7943	4516.8	3637.4
953.8945	2252.2608	4508.15	3631.55
954.0279	2253.7266	4500.2	3621.45
954.1612	2255.1917	4500.7	3622.8
954.2946	2256.656	4473.1	3594.8
954.4279	2258.1197	4457.15	3578.55
954.5612	2259.5826	4444.35	3564.2
954.6944	2261.0447	4431.2	3552.15
954.8276	2262.5062	4417.95	3537.9
954.9608	2263.9669	4412.45	3532.5
955.094	2265.4269	4409.7	3532.25
955.2271	2266.8862	4402.8	3524.95
955.3602	2268.3448	4410.1	3531.5
955.4933	2269.8026	4396.65	3516.95
955.6264	2271.2598	4387.85	3511.85
955.7594	2272.7162	4360	3484.1
955.8924	2274.1719	4364.05	3484.65
956.0253	2275.6268	4333.4	3455.75
956.1583	2277.0811	4313.2	3433.8
956.2912	2278.5346	4336.45	3460.15
956.4241	2279.9874	4322.85	3445
956.5569	2281.4395	4323.1	3445.5
956.6897	2282.8908	4298.15	3415.45
956.8225	2284.3414	4288.9	3411.05
956.9553	2285.7914	4269.55	3393.4
957.088	2287.2406	4244.75	3363.1
957.2207	2288.689	4248.7	3370.65
957.3534	2290.1368	4245.25	3366.7
957.486	2291.5838	4241.9	3362.85
957.6186	2293.0302	4226.05	3346.3
957.7512	2294.4758	4210.45	3332.4
957.8838	2295.9206	4202.9	3321.8
958.0163	2297.3648	4197.65	3321.4
958.1488	2298.8082	4185.75	3307.6
958.2813	2300.251	4171.4	3293.95
958.4137	2301.693	4166.45	3283.45
958.5461	2303.1343	4165.45	3286.9
958.6785	2304.5748	4139.1	3259.75
958.8108	2306.0147	4131.85	3251.7
958.9432	2307.4538	4130	3247.55
959.0754	2308.8922	4113.5	3236.65
959.2077	2310.3299	4099.25	3220.65
959.3399	2311.7669	4085.4	3207.45
959.4721	2313.2031	4079.05	3201.75
959.6043	2314.6387	4063.7	3185.1
959.7365	2316.0735	4045.85	3166
959.8686	2317.5076	4058.9	3180.45
960.0006	2318.941	4052.7	3175.25
960.1327	2320.3737	4031.2	3152.35
960.2647	2321.8056	4029.25	3147.75
960.3967	2323.2369	4024.3	3146.3
960.5287	2324.6674	4001.5	3121.25
960.6606	2326.0972	4001.1	3119.45
960.7925	2327.5263	3978.65	3101.85
960.9244	2328.9547	3974.8	3095.35
961.0562	2330.3823	3966.25	3087.45
961.1881	2331.8092	3971.2	3091.2
961.3198	2333.2355	3943.1	3064.9
961.4516	2334.661	3929.85	3051.5
961.5833	2336.0858	3926.95	3045.45
961.715	2337.5098	3924.05	3045.5
961.8467	2338.9332	3902.7	3022.45
961.9783	2340.3558	3909.7	3027.05
962.1099	2341.7778	3901.35	3021.95
962.2415	2343.199	3872.75	2990.8
962.373	2344.6195	3857.95	2980.75
962.5045	2346.0393	3862.1	2984.65
962.636	2347.4583	3847.5	2966.05
962.7675	2348.8767	3839.95	2961.35
962.8989	2350.2943	3831.6	2952.55
963.0303	2351.7113	3837.15	2956.4
963.1617	2353.1275	3816.25	2936.95
963.293	2354.543	3807.65	2919.95
963.4243	2355.9578	3803.1	2923.75
963.5556	2357.3718	3784.6	2908.05
963.6868	2358.7852	3772	2891.35
963.818	2360.1978	3762.05	2882.1
963.9492	2361.6098	3750.1	2869.7
964.0803	2363.021	3740.25	2857
964.2114	2364.4315	3727.85	2849.9
964.3425	2365.8413	3707.35	2823.2
964.4736	2367.2504	3709.95	2831.7
964.6046	2368.6587	3675.9	2797.15
964.7356	2370.0664	3688.3	2807.8
964.8666	2371.4733	3674	2796.1
964.9975	2372.8795	3661.5	2783.55
965.1284	2374.285	3652.35	2776
965.2593	2375.6899	3651.75	2773.35
965.3901	2377.0939	3630.55	2754.4
965.5209	2378.4973	3613.7	2737.35
965.6517	2379.9	3618.05	2737.35
965.7825	2381.3019	3600.25	2722.6
965.9132	2382.7032	3590.05	2712
966.0439	2384.1037	3580.3	2702.4
966.1745	2385.5035	3573.85	2695.7
966.3051	2386.9027	3564.3	2685.55
966.4357	2388.3011	3561.9	2679.8
966.5663	2389.6987	3554.25	2677.6
966.6968	2391.0957	3534.35	2655.8
966.8273	2392.492	3522	2641.15
966.9578	2393.8876	3510.05	2631.55
967.0882	2395.2824	3499.5	2621.35
967.2186	2396.6765	3500.65	2624.4
967.349	2398.07	3492.3	2613.45
967.4793	2399.4627	3479.05	2599.75
967.6097	2400.8547	3470.05	2592.3
967.7399	2402.246	3459.8	2574.1
967.8702	2403.6366	3428.45	2548.6
968.0004	2405.0265	3425.45	2545.4
968.1306	2406.4156	3419.25	2535.8
968.2607	2407.8041	3400.45	2517.75
968.3909	2409.1918	3393.4	2511.1
968.521	2410.5789	3385.95	2507.9
968.651	2411.9652	3375.2	2492.45
968.781	2413.3508	3377.4	2499.45
968.911	2414.7358	3356.95	2478
969.041	2416.12	3346.55	2469.25
969.1709	2417.5035	3343.95	2466.25
969.3008	2418.8863	3321.75	2440.85
969.4307	2420.2684	3313.65	2435.2
969.5606	2421.6497	3314.75	2436
969.6904	2423.0304	3294.2	2415.1
969.8201	2424.4104	3291.6	2413.05
969.9499	2425.7896	3280.75	2400.75
970.0796	2427.1682	3265.9	2385.9
970.2093	2428.546	3254.45	2375.8
970.3389	2429.9232	3258.65	2378.85
970.4685	2431.2996	3243.55	2364.7
970.5981	2432.6753	3252.05	2371.85
970.7277	2434.0503	3232.05	2353.35
970.8572	2435.4246	3228.8	2350.15
970.9867	2436.7982	3201	2320.9
971.1161	2438.1711	3212.5	2335.4
971.2456	2439.5433	3200.05	2316.7
971.375	2440.9148	3189.25	2305.15
971.5043	2442.2856	3169.45	2290.1
971.6336	2443.6557	3171.6	2291.2
971.7629	2445.025	3171.35	2294
971.8922	2446.3937	3158.1	2278.4
972.0214	2447.7617	3162.3	2284.35
972.1506	2449.1289	3147.35	2267.5
972.2798	2450.4955	3134.2	2249.25
972.4089	2451.8613	3129.1	2249.95
972.538	2453.2265	3135.8	2256.15
972.6671	2454.5909	3122.8	2243.5
972.7961	2455.9546	3118.25	2240.3
972.9251	2457.3177	3096.55	2217.85
973.0541	2458.68	3093.85	2213.35
973.1831	2460.0416	3098.15	2219.9
973.312	2461.4025	3090.2	2209.25
973.4408	2462.7627	3076.3	2187.95
973.5697	2464.1222	3072.05	2194.95
973.6985	2465.4811	3069.6	2189.75
973.8273	2466.8392	3052.75	2172
973.956	2468.1966	3040.45	2160.2
974.0847	2469.5533	3044.5	2163.1
974.2134	2470.9093	3049.65	2170.9
974.3421	2472.2645	3024.2	2141.75
974.4707	2473.6191	3020.65	2142.9
974.5993	2474.973	3011.4	2133
974.7278	2476.3262	3004.55	2125.05
974.8563	2477.6787	3001.85	2124.45
974.9848	2479.0305	2981.55	2103.75
975.1132	2480.3816	2975.85	2096.1
975.2417	2481.7319	2979.55	2100.6
975.37	2483.0816	2958.05	2076.2
975.4984	2484.4306	2962.25	2082.4
975.6267	2485.7789	2944.7	2065.05
975.755	2487.1264	2945.5	2066.8
975.8833	2488.4733	2930.1	2052.75
976.0115	2489.8195	2918.2	2032.75
976.1397	2491.165	2915.35	2035.35
976.2678	2492.5097	2919.85	2040.15
976.3959	2493.8538	2894.15	2016.75
976.524	2495.1972	2892.3	2010.5
976.6521	2496.5398	2881.25	2000.4
976.7801	2497.8818	2882.05	2002.15
976.9081	2499.2231	2876.35	1997.5
977.036	2500.5637	2847.6	1967.25
977.164	2501.9035	2842.55	1962.7
977.2918	2503.2427	2850.2	1965.05
977.4197	2504.5812	2821.1	1944.35
977.5475	2505.919	2833.6	1951.7
977.6753	2507.256	2825.5	1947.7
977.8031	2508.5924	2817.5	1938.8
977.9308	2509.9281	2818.5	1931.15
978.0585	2511.2631	2800.8	1922.4
978.1861	2512.5974	2798.35	1918.6
978.3137	2513.9309	2794.1	1914.8
978.4413	2515.2638	2790.55	1884.2
978.5689	2516.596	2780.75	1904.5
978.6964	2517.9275	2753.4	1872.95
978.8239	2519.2583	2756.5	1877.4
978.9513	2520.5884	2750.05	1870.35
979.0788	2521.9178	2732.75	1852.2
979.2062	2523.2465	2732.45	1854.45
979.3335	2524.5745	2726.35	1849.15
979.4608	2525.9018	2714.25	1834.5
979.5881	2527.2284	2716.3	1836.95
979.7154	2528.5543	2703.1	1822.7
979.8426	2529.8796	2718.7	1838.8
979.9698	2531.2041	2694.85	1815.8
980.0969	2532.5279	2702.6	1824.55
980.224	2533.851	2709.25	1829.5
980.3511	2535.1735	2691.25	1811.1
980.4781	2536.4952	2661.75	1782.25
980.6052	2537.8163	2661.6	1783.5
980.7321	2539.1366	2665.55	1786.45
980.8591	2540.4562	2656.6	1776.75
980.986	2541.7752	2673.9	1796.25
981.1129	2543.0935	2638.45	1759.25
981.2397	2544.411	2651.4	1770.8
981.3665	2545.7279	2651.2	1771.9
981.4933	2547.0441	2633.95	1755.85
981.62	2548.3596	2632.05	1751.25
981.7467	2549.6744	2620.4	1741.25
981.8734	2550.9885	2633.35	1747.25
982.0001	2552.3019	2615.75	1739.35
982.1267	2553.6146	2613.65	1735.7
982.2532	2554.9266	2604.65	1726.85
982.3798	2556.2379	2597.6	1715.8
982.5063	2557.5485	2598.35	1719.55
982.6327	2558.8585	2596.1	1710.15
982.7592	2560.1677	2594.4	1710.8
982.8856	2561.4762	2583.3	1704.75
983.0119	2562.7841	2583.1	1702.65
983.1383	2564.0913	2564.8	1686.7
983.2646	2565.3977	2571	1691.15
983.3908	2566.7035	2566.1	1688.1
983.517	2568.0086	2558.9	1679.75
983.6432	2569.313	2558.35	1680.05
983.7694	2570.6167	2549.4	1667
983.8955	2571.9197	2552.45	1678.2
984.0216	2573.222	2543.8	1661.45
984.1476	2574.5236	2544	1663.6
984.2737	2575.8246	2530.6	1648
984.3996	2577.1248	2538.6	1657.4
984.5256	2578.4244	2528.45	1648.8
984.6515	2579.7232	2516.65	1639.2
984.7774	2581.0214	2527.85	1625.15
984.9032	2582.3189	2522.9	1645.05
985.029	2583.6157	2521.45	1638.15
985.1548	2584.9118	2500.6	1621.85
985.2806	2586.2072	2503.35	1624.05
985.4063	2587.5019	2480.2	1601.25
985.5319	2588.7959	2488.65	1610.05
985.6576	2590.0893	2481.35	1600.55
985.7832	2591.3819	2474.3	1597
985.9087	2592.6739	2462.6	1584.3
986.0343	2593.9652	2460.05	1579.75
986.1597	2595.2557	2458.15	1582.15
986.2852	2596.5456	2449.3	1567.35
986.4106	2597.8348	2438.6	1562.35
986.536	2599.1234	2443.65	1564.25
986.6614	2600.4112	2432.5	1555.1
986.7867	2601.6983	2430.95	1549.3
986.912	2602.9848	2423.6	1543.95
987.0372	2604.2705	2417.1	1530.1
987.1624	2605.5556	2403.75	1524.7
987.2876	2606.84	2404.95	1523.5
987.4128	2608.1237	2396.75	1516.2
987.5379	2609.4067	2386.6	1509.35
987.6629	2610.689	2391.85	1504.4
987.788	2611.9707	2373.15	1492.45
987.913	2613.2516	2368.35	1484.4
988.0379	2614.5319	2349.85	1470.35
988.1629	2615.8115	2345.9	1464.9
988.2878	2617.0903	2348.5	1468.2
988.4126	2618.3685	2342.45	1464.3
988.5375	2619.6461	2337.65	1458.15
988.6622	2620.9229	2317.35	1439.85
988.787	2622.199	2324.1	1444.7
988.9117	2623.4745	2318.65	1437
989.0364	2624.7493	2313.1	1435.15
989.161	2626.0234	2312.45	1434.05
989.2857	2627.2968	2299.5	1421
989.4102	2628.5695	2296.25	1414.8
989.5348	2629.8415	2285.95	1407.8
989.6593	2631.1128	2286.15	1404.7
989.7837	2632.3835	2274.05	1394.1
989.9082	2633.6535	2266.1	1387.35
990.0326	2634.9228	2261.65	1384.35
990.1569	2636.1914	2255.85	1378.6
990.2812	2637.4593	2256.1	1374.4
990.4055	2638.7265	2242.7	1363.2
990.5298	2639.9931	2239.7	1361.25
990.654	2641.259	2239.95	1359.45
990.7782	2642.5242	2229.7	1351.95
990.9023	2643.7887	2232	1352.75
991.0264	2645.0525	2228.15	1349.85
991.1505	2646.3156	2213.75	1333.45
991.2745	2647.5781	2211.8	1332.95
991.3985	2648.8398	2197.2	1319.75
991.5225	2650.1009	2218.45	1331.55
991.6464	2651.3613	2191.5	1311.85
991.7703	2652.6211	2184.2	1303.7
991.8942	2653.8801	2186.15	1307.6
992.018	2655.1385	2177	1296.35
992.1418	2656.3961	2181.9	1302.2
992.2655	2657.6531	2181.6	1303
992.3892	2658.9094	2179.2	1300
992.5129	2660.1651	2172.85	1294.5
992.6366	2661.42	2167.45	1289.7
992.7602	2662.6743	2160	1279.9
992.8837	2663.9279	2156.4	1278.3
993.0073	2665.1808	2146.1	1265.25
993.1307	2666.433	2145.5	1265.25
993.2542	2667.6846	2144.4	1264.9
993.3776	2668.9354	2142.85	1261.3
993.501	2670.1856	2130.25	1251.45
993.6244	2671.4351	2134.6	1256.1
993.7477	2672.6839	2132.15	1252.4
993.8709	2673.9321	2119.15	1239.05
993.9942	2675.1795	2114.8	1235.45
994.1174	2676.4263	2111.55	1232.1
994.2405	2677.6724	2099.9	1221.6
994.3637	2678.9179	2111.65	1232.3
994.4868	2680.1626	2101.9	1223.7
994.6098	2681.4067	2096.55	1216.25
994.7328	2682.6501	2097.05	1218.3
994.8558	2683.8928	2097.65	1218.1
994.9788	2685.1348	2077.5	1201.8
995.1017	2686.3761	2070.8	1193.9
995.2245	2687.6168	2077.45	1196.05
995.3474	2688.8568	2055.1	1177.05
995.4702	2690.0961	2055.9	1178.2
995.5929	2691.3348	2057.3	1178.05
995.7156	2692.5727	2042.55	1165.05
995.8383	2693.81	2040.6	1161.3
995.961	2695.0466	2038.85	1162.35
996.0836	2696.2826	2051.4	1172.25
996.2062	2697.5178	2032	1151.1
996.3287	2698.7524	2030.95	1153.2
996.4512	2699.9863	2024.1	1144.75
996.5737	2701.2195	2015.8	1139.4
996.6961	2702.452	2018.4	1139.15
996.8185	2703.6839	2010.3	1132.1
996.9408	2704.9151	2007.45	1131
997.0631	2706.1456	2000.25	1123.25
997.1854	2707.3755	1995.9	1115.5
997.3077	2708.6046	1996.05	1115.35
997.4299	2709.8331	1990.5	1110.3
997.552	2711.0609	1987.3	1107.9
997.6742	2712.2881	1982.45	1104.8
997.7963	2713.5145	1986.2	1104.4
997.9183	2714.7403	1976.95	1099.3
998.0403	2715.9654	1961.3	1080.45
998.1623	2717.1899	1984.95	1092.75
998.2842	2718.4136	1961.05	1083
998.4062	2719.6367	1957.65	1077.5
998.528	2720.8591	1970.65	1083.9
998.6498	2722.0809	1944.85	1066.55
998.7716	2723.3019	1949.7	1067.6
998.8934	2724.5223	1944.85	1066.3
999.0151	2725.7421	1930.95	1049.7
999.1368	2726.9611	1935.95	1055.95
999.2584	2728.1795	1941.8	1057.95
999.38	2729.3972	1917	1039.2
999.5016	2730.6142	1935.45	1044.65
999.6231	2731.8306	1922.05	1043.1
999.7446	2733.0462	1909.6	1028.15
999.8661	2734.2612	1911.4	1027.55
999.9875	2735.4756	1887.65	1006.7
1000.1089	2736.6892	1881.15	1001.4
1000.2302	2737.9022	1884.1	1008.55
1000.3515	2739.1145	1879.3	1001.2
1000.4728	2740.3262	1891.25	1003.55
1000.594	2741.5372	1874.4	996.35
1000.7152	2742.7475	1870.75	990.8
1000.8363	2743.9571	1860.4	979.85
1000.9575	2745.1661	1861.05	977.85
1001.0785	2746.3744	1851.25	971.65
1001.1996	2747.582	1844.9	965.9
1001.3206	2748.7889	1844.15	964.1
1001.4415	2749.9952	1842.7	964.65
1001.5625	2751.2008	1837.2	957.55
1001.6833	2752.4057	1836.95	956.75
1001.8042	2753.61	1826.65	945.05
1001.925	2754.8136	1831.75	950.75
1002.0458	2756.0165	1825.85	947.1
1002.1665	2757.2188	1820.65	942.55
1002.2872	2758.4204	1813.7	937
1002.4078	2759.6213	1810.8	929.1
1002.5285	2760.8215	1818.7	935.05
1002.649	2762.0211	1802.35	924.1
1002.7696	2763.22	1801.25	918.4
1002.8901	2764.4182	1793.95	915.1
1003.0106	2765.6158	1790.75	911.1
1003.131	2766.8127	1792.7	914.05
1003.2514	2768.009	1776.4	899.5
1003.3717	2769.2045	1782.15	902.2
1003.492	2770.3994	1785.7	906.25
1003.6123	2771.5936	1769.05	889.2
1003.7325	2772.7872	1774.35	896.85
1003.8527	2773.9801	1756.2	877.05
1003.9729	2775.1723	1776.75	879.7
1004.093	2776.3639	1760.75	882.9
1004.2131	2777.5548	1759.35	878.25
1004.3331	2778.745	1746.65	866.25
1004.4531	2779.9346	1744.65	865.75
1004.5731	2781.1235	1736.15	854.55
1004.693	2782.3117	1738.75	860.8
1004.8129	2783.4992	1738.4	860.4
1004.9328	2784.6861	1734.25	855.7
1005.0526	2785.8723	1737.55	857.55
1005.1723	2787.0579	1719.9	839.45
1005.2921	2788.2428	1720.95	842.55
1005.4118	2789.427	1720.7	840.15
1005.5314	2790.6106	1709.75	830.35
1005.651	2791.7935	1707	827.85
1005.7706	2792.9757	1703.6	825.6
1005.8902	2794.1573	1706.6	825.25
1006.0097	2795.3382	1700.65	823.1
1006.1291	2796.5184	1690.05	811.3
1006.2485	2797.698	1692.7	811.6
1006.3679	2798.8769	1687.45	808.7
1006.4873	2800.0551	1682.05	802.3
1006.6066	2801.2327	1684.55	800.75
1006.7258	2802.4096	1678.5	800.35
1006.8451	2803.5859	1680.4	799.9
1006.9642	2804.7615	1681.55	802.05
1007.0834	2805.9364	1679.95	802.4
1007.2025	2807.1106	1668.1	790.8
1007.3216	2808.2842	1667.1	787.45
1007.4406	2809.4572	1655.9	778.5
1007.5596	2810.6294	1661.25	781.7
1007.6785	2811.801	1663.15	785.35
1007.7975	2812.972	1665.15	787.85
1007.9163	2814.1423	1658.3	779.75
1008.0352	2815.3119	1652.55	773.1
1008.154	2816.4808	1653.75	776
1008.2727	2817.6491	1660.55	779.8
1008.3914	2818.8167	1657.55	782.25
1008.5101	2819.9837	1673.45	790.15
1008.6288	2821.15	1668.15	791.45
1008.7474	2822.3157	1655.15	778.5
1008.8659	2823.4807	1668.5	788.1
1008.9844	2824.645	1686.45	806.6
1009.1029	2825.8086	1685.25	806.6
1009.2214	2826.9716	1693.15	815.35
1009.3398	2828.134	1699.5	822.05
1009.4581	2829.2957	1703.15	823.4
1009.5764	2830.4567	1716.3	839.6
1009.6947	2831.617	1706.55	827.45
1009.813	2832.7767	1713.7	835
1009.9312	2833.9358	1709.35	830.6
1010.0493	2835.0941	1709.15	829.2
1010.1675	2836.2519	1694.95	817.9
1010.2855	2837.4089	1709.3	831.25
1010.4036	2838.5653	1691.2	812.9
1010.5216	2839.7211	1684.3	807.1
1010.6396	2840.8761	1684	803.6
1010.7575	2842.0306	1670.4	791.1
1010.8754	2843.1843	1672.6	793.9
1010.9932	2844.3374	1676.05	796.1
1011.111	2845.4899	1677.1	797.65
1011.2288	2846.6417	1686.5	808.65
1011.3465	2847.7928	1681.3	804.55
1011.4642	2848.9433	1675.15	796.8
1011.5818	2850.0931	1674	795.75
1011.6995	2851.2422	1674.6	794.2
1011.817	2852.3907	1674.2	796.45
1011.9345	2853.5385	1670.15	789.5
1012.052	2854.6857	1682.55	796.2
1012.1695	2855.8323	1672.9	795.15
1012.2869	2856.9781	1663.5	785
1012.4042	2858.1233	1676.4	798
1012.5216	2859.2679	1674.8	794.5
1012.6389	2860.4118	1668.5	789.3
1012.7561	2861.555	1677.1	793.4
1012.8733	2862.6976	1685.3	805.5
1012.9905	2863.8395	1678.45	799.15
1013.1076	2864.9808	1678.7	799.6
1013.2247	2866.1214	1666.65	789.05
1013.3417	2867.2614	1674.65	794.25
1013.4587	2868.4007	1670.35	788.8
1013.5757	2869.5393	1668	788.2
1013.6926	2870.6773	1671.7	791.1
1013.8095	2871.8146	1675.85	795.7
1013.9263	2872.9513	1664	784.55
1014.0431	2874.0874	1657.15	778.95
1014.1599	2875.2227	1673.65	793.9
1014.2766	2876.3574	1668.95	789.55
1014.3933	2877.4915	1656.4	779.7
1014.51	2878.6249	1661.9	782.9
1014.6266	2879.7577	1658.75	778.9
1014.7431	2880.8898	1674.45	787.25
1014.8596	2882.0212	1665.2	788.2
1014.9761	2883.152	1662	782.6
1015.0925	2884.2821	1661.2	783
1015.2089	2885.4116	1658.25	779.9
1015.3253	2886.5405	1663.65	786.15
1015.4416	2887.6686	1660.2	780.55
1015.5579	2888.7962	1658.5	781.8
1015.6741	2889.923	1659.7	782.75
1015.7903	2891.0493	1652.2	775.55
1015.9065	2892.1748	1641.7	763.75
1016.0226	2893.2997	1653.9	773.85
1016.1387	2894.424	1647.15	769.35
1016.2547	2895.5476	1645.45	766.1
1016.3707	2896.6706	1636	759.7
1016.4866	2897.7929	1643.75	765.5
1016.6025	2898.9145	1637.2	760.15
1016.7184	2900.0355	1636.65	757.75
1016.8342	2901.1559	1633	752.45
1016.95	2902.2756	1634.65	756.25
1017.0658	2903.3946	1613.15	734.25
1017.1815	2904.513	1611.1	730.6
1017.2971	2905.6308	1621.35	743.85
1017.4127	2906.7479	1612.65	732.35
1017.5283	2907.8643	1608.75	729.8
1017.6439	2908.9801	1616.25	738.5
1017.7594	2910.0953	1598.35	720.8
1017.8748	2911.2098	1598.65	715.8
1017.9902	2912.3236	1610.05	723.8
1018.1056	2913.4368	1595.7	714.85
1018.2209	2914.5494	1592.1	711.25
1018.3362	2915.6613	1602.45	717.65
1018.4515	2916.7725	1592.55	711.8
1018.5667	2917.8831	1577.8	695.75
1018.6819	2918.9931	1575.4	693.55
1018.797	2920.1024	1574.95	696
1018.9121	2921.211	1562.75	683
1019.0271	2922.319	1560.6	682.65
1019.1421	2923.4264	1556.85	678.2
1019.2571	2924.5331	1550.85	674.9
1019.372	2925.6391	1552.65	675.3
1019.4869	2926.7445	1545.15	669.7
1019.6017	2927.8493	1543.95	664.05
1019.7165	2928.9534	1546.15	667.55
1019.8313	2930.0569	1553.9	673.3
1019.946	2931.1597	1546.15	666.95
1020.0606	2932.2619	1543.1	664
1020.1753	2933.3634	1556.5	678.3
1020.2899	2934.4643	1552.8	668.95
1020.4044	2935.5645	1557.4	671.45
1020.5189	2936.6641	1550.7	666.8
1020.6334	2937.763	1542.25	666.7
1020.7478	2938.8613	1544.75	664.85
1020.8622	2939.959	1544.35	659.65
1020.9765	2941.056	1529.95	653.95
1021.0908	2942.1523	1522.2	641.3
1021.2051	2943.248	1514.6	635.3
1021.3193	2944.3431	1491.9	614.3
1021.4334	2945.4375	1483.2	603.75
1021.5476	2946.5313	1471.1	593.7
1021.6617	2947.6244	1463.55	584.5
1021.7757	2948.7169	1456.65	575.75
1021.8897	2949.8087	1438.45	560
1022.0037	2950.8999	1437.9	559.85
1022.1176	2951.9904	1429.2	550.95
1022.2315	2953.0803	1413.15	535.15
1022.3453	2954.1696	1410.65	533
1022.4591	2955.2582	1414.5	537
1022.5728	2956.3462	1407	528.6
1022.6865	2957.4335	1403.35	522.95
1022.8002	2958.5202	1388.45	508.85
1022.9138	2959.6062	1398.6	519.45
1023.0274	2960.6916	1383.85	504.85
1023.141	2961.7764	1386.6	506.55
1023.2545	2962.8605	1383.6	505.4
1023.3679	2963.9439	1389.4	512.2
1023.4813	2965.0267	1385.05	505.8
1023.5947	2966.1089	1402.45	500.2
1023.708	2967.1905	1379.15	502.25
1023.8213	2968.2714	1376.8	498.7
1023.9346	2969.3516	1368.75	489.7
1024.0478	2970.4312	1381	492.65
1024.1609	2971.5102	1368.75	490
1024.274	2972.5885	1359.2	481.25
1024.3871	2973.6662	1362.85	480.5
1024.5002	2974.7432	1359.95	480.5
1024.6132	2975.8196	1363.25	485.55
1024.7261	2976.8954	1353.7	475.8
1024.839	2977.9705	1359.35	482.05
1024.9519	2979.045	1354.05	476.8
1025.0647	2980.1188	1351.2	472.3
1025.1775	2981.192	1351.05	472.55
1025.2902	2982.2645	1355.05	474.85
1025.4029	2983.3364	1347.35	468.6
1025.5156	2984.4077	1341.2	464.2
1025.6282	2985.4783	1343.1	459.05
1025.7407	2986.5483	1324.25	447.95
1025.8532	2987.6177	1321.05	442.65
1025.9657	2988.6864	1316.35	438
1026.0782	2989.7545	1319.8	439.05
1026.1906	2990.8219	1312.15	434.15
1026.3029	2991.8887	1306.95	427.6
1026.4152	2992.9548	1306.45	428.8
1026.5275	2994.0204	1298.95	421.3
1026.6397	2995.0852	1298.25	422.35
1026.7519	2996.1495	1292.15	412.75
1026.864	2997.2131	1291.05	413.3
1026.9761	2998.276	1283.35	406.45
1027.0882	2999.3383	1282.1	402.6
1027.2002	3000.4	1275.15	396.35
1027.3122	3001.4611	1265.45	386.6
1027.4241	3002.5215	1271.35	393.35
1027.536	3003.5812	1261.75	384.15
1027.6478	3004.6404	1262.5	385.15
1027.7596	3005.6989	1263.05	383.4
1027.8714	3006.7567	1258.5	379.95
1027.9831	3007.8139	1283.8	382.2
1028.0947	3008.8705	1256.75	378.9
1028.2064	3009.9264	1253.6	370.6
1028.3179	3010.9818	1254.75	376.5
1028.4295	3012.0364	1247.9	368.2
1028.541	3013.0905	1237.25	357.7
1028.6524	3014.1439	1242.8	364.9
1028.7638	3015.1966	1238.65	362.7
1028.8752	3016.2487	1234.95	356.25
1028.9865	3017.3002	1242.2	361.1
1029.0978	3018.3511	1234.55	359.3
1029.209	3019.4013	1232.7	353.95
1029.3202	3020.4509	1237.65	360.15
1029.4314	3021.4998	1227.65	347.55
1029.5425	3022.5481	1231.85	352.3
1029.6535	3023.5958	1226.15	347.7
1029.7645	3024.6428	1225.2	343.25
1029.8755	3025.6892	1224.35	348.65
1029.9864	3026.735	1223.75	345.65
1030.0973	3027.7802	1220.15	343.05
1030.2082	3028.8247	1214.65	336.1
1030.319	3029.8685	1215.85	337.5
1030.4297	3030.9118	1221.35	342.2
1030.5404	3031.9544	1208.85	332.2
1030.6511	3032.9963	1214.65	335.4
1030.7617	3034.0376	1207.25	329.75
1030.8723	3035.0783	1212.35	332.05
1030.9829	3036.1184	1210.7	330.55
1031.0934	3037.1578	1200.15	324.6
1031.2038	3038.1966	1209.5	331.25
1031.3142	3039.2348	1205.3	328.65
1031.4246	3040.2723	1211.7	327.95
1031.5349	3041.3092	1201.05	323.75
1031.6452	3042.3455	1199.15	319
1031.7554	3043.3811	1197.95	319.05
1031.8656	3044.4161	1197.35	319.05
1031.9758	3045.4505	1196.85	320.2
1032.0859	3046.4842	1199.2	320.75
1032.1959	3047.5173	1191.5	312.35
1032.3059	3048.5498	1189.5	311.25
1032.4159	3049.5816	1191.75	314.45
1032.5258	3050.6128	1192.05	314.5
1032.6357	3051.6434	1195.5	315.5
1032.7455	3052.6734	1190.65	312.5
1032.8553	3053.7027	1187.9	309.2
1032.9651	3054.7314	1189.55	312.55
1033.0748	3055.7594	1182.45	304.35
1033.1845	3056.7868	1187.2	308.9
1033.2941	3057.8136	1182.4	303.85
1033.4037	3058.8398	1183.35	306.15
1033.5132	3059.8653	1179.45	301
1033.6227	3060.8902	1180.1	303.1
1033.7321	3061.9145	1176.2	299.35
1033.8415	3062.9381	1182.4	303.75
1033.9509	3063.9612	1191.15	296.55
1034.0602	3064.9835	1177.7	298.9
1034.1694	3066.0053	1180.4	299.35
1034.2787	3067.0264	1174.25	296.1
1034.3878	3068.0469	1180.25	300.15
1034.497	3069.0668	1170.8	288
1034.6061	3070.086	1170.3	294.75
1034.7151	3071.1046	1171.65	292.15
1034.8241	3072.1226	1166.9	286.4
1034.9331	3073.1399	1167.15	289.5
1035.042	3074.1567	1167.15	287.6
1035.1508	3075.1727	1160.8	281.3
1035.2597	3076.1882	1166.35	290.35
1035.3684	3077.203	1161.6	285.25
1035.4772	3078.2173	1157.4	276.5
1035.5859	3079.2308	1159.95	279.4
1035.6945	3080.2438	1157.05	277.05
1035.8031	3081.2561	1146.75	268.5
1035.9117	3082.2678	1152.35	274.25
1036.0202	3083.2789	1153.95	275
1036.1286	3084.2893	1146.8	267.6
1036.2371	3085.2991	1143.1	264.85
1036.3454	3086.3083	1150.45	268.6
1036.4538	3087.3169	1146.6	268.25
1036.562	3088.3248	1146.75	267.95
1036.6703	3089.3321	1145.5	264.3
1036.7785	3090.3388	1141.15	262.6
1036.8866	3091.3449	1137.65	258.8
1036.9948	3092.3503	1139.65	258.85
1037.1028	3093.3551	1132.9	254.4
1037.2108	3094.3593	1140.05	263.25
1037.3188	3095.3629	1134.1	257.05
1037.4267	3096.3658	1138.75	259.3
1037.5346	3097.3681	1130.95	253.15
1037.6425	3098.3698	1126.25	245.75
1037.7503	3099.3708	1134.1	251.8
1037.858	3100.3713	1125.4	247.2
1037.9657	3101.3711	1128.3	250.2
1038.0734	3102.3702	1259.05	243.4
1038.181	3103.3688	1124.95	245.2
1038.2886	3104.3667	1121.3	245.15
1038.3961	3105.364	1120.1	241.5
1038.5036	3106.3607	1116.6	236.15
1038.611	3107.3568	1112.15	231.15
1038.7184	3108.3522	1116.25	239.8
1038.8257	3109.347	1117.25	239.3
1038.933	3110.3412	1120.45	238.45
1039.0403	3111.3348	1111	232.6
1039.1475	3112.3277	1111.05	234
1039.2547	3113.32	1107.8	230.75
1039.3618	3114.3117	1106.75	227.65
1039.4689	3115.3028	1104.95	226.65
1039.5759	3116.2932	1109.2	229.6
1039.6829	3117.2831	1107.85	222.75
1039.7898	3118.2723	1096.9	219.6
1039.8967	3119.2608	1102.8	224.4
1040.0035	3120.2488	1100.7	221.45
1040.1103	3121.2361	1098.6	219.45
1040.2171	3122.2229	1096.75	217.75
1040.3238	3123.209	1098.15	219.1
1040.4305	3124.1944	1095.35	218.3
1040.5371	3125.1793	1093.15	213.95
1040.6437	3126.1635	1091.65	214.85
1040.7502	3127.1471	1089.1	210
1040.8567	3128.1301	1087.4	209.2
1040.9631	3129.1125	1083.2	205.2
1041.0695	3130.0942	1089.2	210.75
1041.1759	3131.0753	1092.25	204.3
1041.2822	3132.0558	1086.25	204.55
1041.3884	3133.0357	1081.1	201.15
1041.4946	3134.015	1083	203.4
1041.6008	3134.9936	1082.7	203.05
1041.7069	3135.9716	1104.4	204.55
1041.813	3136.949	1080.55	203
1041.919	3137.9258	1084.3	200.3
1042.025	3138.902	1083.2	199.2
1042.1309	3139.8775	1081.6	202.05
1042.2368	3140.8524	1077.4	199.8
1042.3427	3141.8267	1076.6	195.35
1042.4485	3142.8004	1074.85	196.75
1042.5542	3143.7735	1082.5	198.2
1042.6599	3144.7459	1077.05	199.05
1042.7656	3145.7178	1073	194.6
1042.8712	3146.689	1072.6	193.2
1042.9768	3147.6596	1072	191.4
1043.0823	3148.6295	1071.45	193.8
1043.1878	3149.5989	1073.75	195.9
1043.2932	3150.5676	1067.65	191.45
1043.3986	3151.5357	1062.85	187.1
1043.5039	3152.5032	1064.45	188.2
1043.6092	3153.4701	1063.4	187.25
1043.7145	3154.4364	1067.05	187.6
1043.8197	3155.402	1065.55	188.4
1043.9248	3156.367	1063.95	184.4
1044.03	3157.3315	1095.6	181.75
1044.135	3158.2952	1060.3	180.7
1044.24	3159.2584	1058.2	180.2
1044.345	3160.221	1056	176.05
1044.4499	3161.1829	1058.5	179.85
1044.5548	3162.1442	1054.8	177.25
1044.6596	3163.105	1051	173.35
1044.7644	3164.065	1053.3	176.7
1044.8692	3165.0245	1053.65	171.4
1044.9739	3165.9834	1051.7	172.85
1045.0785	3166.9416	1043.3	165.15
1045.1831	3167.8993	1052.15	173.6
1045.2877	3168.8563	1049.55	167.3
1045.3922	3169.8127	1046.4	168.2
1045.4966	3170.7684	1047.4	170.55
1045.6011	3171.7236	1045.45	165.75
1045.7054	3172.6782	1046.55	167.25
1045.8098	3173.6321	1044.25	164.3
1045.914	3174.5854	1045.95	163.4
1046.0183	3175.5381	1042.55	166.35
1046.1224	3176.4902	1038.9	161
1046.2266	3177.4417	1038.5	160.35
1046.3307	3178.3926	1036.35	157.65
1046.4347	3179.3428	1038.85	163.2
1046.5387	3180.2924	1035.8	156.6
1046.6427	3181.2415	1036.75	157.25
1046.7466	3182.1899	1038.8	158.85
1046.8504	3183.1377	1032.4	155
1046.9542	3184.0848	1036.05	158.95
1047.058	3185.0314	1031	153.9
1047.1617	3185.9773	1035.4	156.45
1047.2654	3186.9227	1031.45	151.9
1047.369	3187.8674	1030.4	152.3
1047.4726	3188.8115	1030.55	145.35
1047.5761	3189.755	1031.3	153.9
1047.6796	3190.6979	1028.25	151.1
1047.783	3191.6402	1023.5	144.05
1047.8864	3192.5818	1023.75	147.5
1047.9898	3193.5229	1033.35	148.6
1048.0931	3194.4633	1027.2	151.05
1048.1963	3195.4031	1027.2	149.15
1048.2995	3196.3423	1023.2	145.8
1048.4027	3197.2809	1024.35	146.15
1048.5058	3198.2189	1023.55	143.15
1048.6089	3199.1563	1030.45	146.45
1048.7119	3200.0931	1021.15	144
1048.8148	3201.0292	1015.8	137.55
1048.9178	3201.9648	1019.65	139.55
1049.0206	3202.8997	1019.85	140.35
1049.1235	3203.834	1017.2	138.25
1049.2262	3204.7677	1014.95	137.85
1049.329	3205.7008	1014.95	134.85
1049.4317	3206.6333	1013.3	137.05
1049.5343	3207.5652	1016.95	134.85
1049.6369	3208.4964	1016.05	136.15
1049.7394	3209.4271	1010.8	132.05
1049.8419	3210.3571	1010.95	133.2
1049.9444	3211.2865	1011.6	133.55
1050.0468	3212.2154	1011.1	131.35
1050.1491	3213.1436	1015.25	133.45
1050.2514	3214.0712	1020	135.35
1050.3537	3214.9982	1003.95	124.2
1050.4559	3215.9246	1011.05	132.25
1050.5581	3216.8503	1007.55	129.15
1050.6602	3217.7755	1008.05	126.9
1050.7623	3218.7001	1004.95	126.6
1050.8643	3219.624	1004.2	126.2
1050.9663	3220.5473	1005.6	129.75
1051.0682	3221.4701	1005.9	127.05
1051.1701	3222.3922	1008.2	127.7
1051.2719	3223.3137	1004.5	124.8
1051.3737	3224.2346	1006.4	129.4
1051.4754	3225.1549	999.55	122.3
1051.5771	3226.0746	1001.85	123.25
1051.6788	3226.9937	1002	123.35
1051.7804	3227.9121	1000.15	123.25
1051.8819	3228.83	995.35	118.6
1051.9834	3229.7473	1000.45	123.8
1052.0849	3230.6639	999.15	121.8
1052.1863	3231.5799	994.3	116.35
1052.2876	3232.4954	994.75	116.2
1052.3889	3233.4102	995	118.45
1052.4902	3234.3244	995.25	118.55
1052.5914	3235.238	995.65	117.75
1052.6926	3236.151	1016.15	114.8
1052.7937	3237.0634	992	115.35
1052.8948	3237.9752	989.75	110
1052.9958	3238.8864	992.65	112.95
1053.0968	3239.797	989.85	113.1
1053.1977	3240.7069	990	109.95
1053.2986	3241.6163	989.7	111.25
1053.3994	3242.5251	987.6	110.6
1053.5002	3243.4332	986.85	110.1
1053.6009	3244.3408	990.85	113.6
1053.7016	3245.2477	988.2	110.75
1053.8022	3246.154	986.45	107.3
1053.9028	3247.0598	987.7	108.15
1054.0034	3247.9649	988.05	109.8
1054.1039	3248.8694	983.6	104.85
1054.2043	3249.7733	983.35	105.2
1054.3047	3250.6766	982.1	104.15
1054.4051	3251.5793	984.6	105.75
1054.5054	3252.4814	983.05	104.6
1054.6056	3253.3829	980.9	103.2
1054.7058	3254.2838	980.55	102.65
1054.806	3255.1841	980.95	102.8
1054.9061	3256.0838	980.35	101.25
1055.0061	3256.9829	976.1	98.05
1055.1062	3257.8814	975.75	98.15
1055.2061	3258.7792	977	97.5
1055.306	3259.6765	979.55	101.6
1055.4059	3260.5731	971.05	93.75
1055.5057	3261.4692	971.9	93.45
1055.6055	3262.3647	974.05	97.35
1055.7052	3263.2595	971.3	91.45
1055.8049	3264.1538	969.55	91.65
1055.9045	3265.0474	967.35	89.55
1056.0041	3265.9404	964.25	87
1056.1036	3266.8329	962.2	87.2
1056.2031	3267.7247	976.45	87.45
1056.3025	3268.616	961.15	84.9
1056.4019	3269.5066	958.95	80.3
1056.5013	3270.3966	956.4	75.4
1056.6005	3271.286	955.1	77.15
