Software Version:	3.9.2.0
Unit SN:	10000200
Spectrometer SN:	6960
Date:	3/6/2024 10:13:24 AM
Data Line Index:	25
Spectral Points:	2048
Integration time (ms):	125
Averages:	20
Delay (ms):	30
Sequence Number:	1
Processing:	dark subtract
Laser Power (mW):	305
Laser Current (mA):	826
Laser Diode Temp (C):	25.1
Laser Case Temp (C):	24.9
System Temp (C):	24.7
Spectrometer Temp (C):	22.3
CCD Temp (C):	0.002
Secondary Temp (C):	20.007
Heatsink Temp (C):	18.469
CCDPCB Temp (C):	31.171
SecondaryPCB Temp (C):	25.858

Wavelength	RamanShift	Raw Counts	Dark Subtracted
787.061	30.1047	1002.5	593.1
787.2016	32.3739	1022.15	614.75
787.3422	34.6426	1060.95	651.85
787.4828	36.9109	1104.2	693.7
787.6235	39.1787	1158	744.05
787.7642	41.4461	1201.3	783.15
787.9049	43.7131	1247.55	823.9
788.0456	45.9796	1300.55	876.95
788.1863	48.2456	1359.55	931.7
788.3271	50.5112	1417.3	984.7
788.4679	52.7764	1475.45	1038.45
788.6087	55.0411	1536.25	1096.45
788.7496	57.3054	1604.5	1159.4
788.8904	59.5692	1677.55	1231.65
789.0313	61.8326	1759.25	1310.8
789.1722	64.0955	1846.75	1396.1
789.3132	66.3579	1962.4	1508.85
789.4541	68.6199	2089.3	1629
789.5951	70.8815	2301.2	1836.65
789.7361	73.1426	2777.65	2309.7
789.8771	75.4032	4002.25	3529.15
790.0181	77.6634	7149.8	6672.95
790.1592	79.9231	15216.4	14735.95
790.3003	82.1824	46801.8	46310
790.4414	84.4412	65535	65023.7
790.5825	86.6995	65535	65003.6
790.7237	88.9574	65535	64985.55
790.8648	91.2148	65535	64969.9
791.006	93.4717	65535	64961.25
791.1472	95.7282	65535	64955.5
791.2885	97.9842	65535	64955.8
791.4297	100.2398	65535	64950.4
791.571	102.4949	65535	64946.35
791.7123	104.7495	65535	64945.95
791.8536	107.0036	65535	64945.25
791.9949	109.2573	65535	64942.7
792.1363	111.5105	65535	64941.35
792.2777	113.7632	65535	64939.95
792.4191	116.0154	65535	64929.55
792.5605	118.2672	65535	64934.35
792.7019	120.5185	65535	64933.5
792.8434	122.7693	65535	64927.15
792.9849	125.0197	65535	64925.35
793.1264	127.2696	65535	64923.25
793.2679	129.519	65535	64919.35
793.4094	131.7679	65535	64916.85
793.551	134.0163	65535	64913.7
793.6926	136.2642	65535	64908.25
793.8342	138.5117	65535	64905.7
793.9758	140.7587	65535	64906.35
794.1175	143.0052	65535	64904.8
794.2591	145.2512	65535	64904.95
794.4008	147.4967	65535	64901.25
794.5425	149.7417	65535	64899.35
794.6842	151.9863	65535	64895.85
794.826	154.2304	65535	64890.4
794.9677	156.4739	65535	64883.8
795.1095	158.717	65535	64888.95
795.2513	160.9596	65535	64879.8
795.3931	163.2017	65535	64877.65
795.535	165.4433	65535	64878.85
795.6768	167.6844	65535	64875.4
795.8187	169.925	65535	64875.65
795.9606	172.1651	65535	64873.25
796.1025	174.4047	65535	64865.65
796.2445	176.6439	65535	64863
796.3864	178.8825	65535	64859.85
796.5284	181.1206	65535	64858.05
796.6704	183.3582	65535	64856.8
796.8124	185.5954	65535	64850.3
796.9544	187.832	65535	64845.25
797.0965	190.0681	65535	64845.6
797.2386	192.3037	65535	64841.45
797.3806	194.5388	65535	64838.35
797.5228	196.7734	65535	64840.4
797.6649	199.0075	65535	64836.9
797.807	201.2411	65535	64835.55
797.9492	203.4742	65535	64834.1
798.0914	205.7068	65535	64830.85
798.2336	207.9389	65535	64825.65
798.3758	210.1704	65535	64832
798.518	212.4015	65535	64841.25
798.6603	214.632	65535	64848.8
798.8025	216.862	65535	64853.1
798.9448	219.0915	65535	64848.35
799.0871	221.3205	65535	64846
799.2294	223.549	65535	64851.7
799.3718	225.777	65535	64849.7
799.5141	228.0044	65535	64845.45
799.6565	230.2314	65535	64840.75
799.7989	232.4578	65535	64835.6
799.9413	234.6837	65535	64830.45
800.0837	236.909	65535	64825.1
800.2262	239.1339	65535	64802.25
800.3687	241.3582	65535	64815.4
800.5111	243.582	65535	64788.45
800.6536	245.8053	65535	64800.9
800.7961	248.0281	65535	64804.6
800.9387	250.2503	65535	64802.55
801.0812	252.472	65535	64800.45
801.2238	254.6932	65535	64801.65
801.3664	256.9139	65535	64799.65
801.509	259.134	65535	64794.45
801.6516	261.3536	65535	64793.2
801.7942	263.5727	65535	64797.15
801.9369	265.7912	65535	64795.5
802.0795	268.0092	65535	64793.8
802.2222	270.2267	65535	64793.35
802.3649	272.4436	65535	64790.65
802.5076	274.6601	65535	64785.6
802.6504	276.8759	65535	64785.65
802.7931	279.0913	65535	64786.8
802.9359	281.3061	65535	64785.95
803.0787	283.5204	65535	64785.3
803.2215	285.7341	65535	64780.25
803.3643	287.9473	65535	64767.85
803.5071	290.16	65535	64778.9
803.6499	292.3721	65535	64780.55
803.7928	294.5837	65535	64782.3
803.9357	296.7947	65535	64778.6
804.0786	299.0052	65535	64779.35
804.2215	301.2152	65535	64778.3
804.3644	303.4246	65535	64779.65
804.5074	305.6334	65535	64780.85
804.6503	307.8418	65535	64777.25
804.7933	310.0495	65535	64773.2
804.9363	312.2568	65535	64771.7
805.0793	314.4635	65535	64768.45
805.2223	316.6696	65535	64768.35
805.3653	318.8752	65535	64759.45
805.5084	321.0802	65535	64768
805.6514	323.2847	65535	64767.7
805.7945	325.4887	65535	64764.05
805.9376	327.692	65535	64766.05
806.0807	329.8949	65535	64760.45
806.2238	332.0972	65535	64761.2
806.367	334.2989	65535	64757.3
806.5101	336.5001	65535	64757.85
806.6533	338.7007	65535	64759.05
806.7965	340.9008	65535	64757.45
806.9397	343.1003	65535	64757.1
807.0829	345.2992	65535	64757.7
807.2261	347.4976	65535	64755.45
807.3693	349.6955	65535	64748.75
807.5126	351.8927	65535	64749.05
807.6559	354.0895	65535	64734.45
807.7991	356.2856	65535	64745.3
807.9424	358.4812	65535	64745.7
808.0857	360.6763	65535	64745.8
808.2291	362.8707	65535	64741.95
808.3724	365.0646	65535	64737.3
808.5158	367.258	65535	64736.85
808.6591	369.4508	65535	64735.45
808.8025	371.643	65535	64735.5
808.9459	373.8346	65535	64728.7
809.0893	376.0257	65535	64728.15
809.2327	378.2162	65535	64733.8
809.3762	380.4062	65535	64727.35
809.5196	382.5956	65535	64732
809.6631	384.7844	65535	64738.3
809.8066	386.9726	65535	64736.8
809.9501	389.1603	65535	64739.95
810.0936	391.3474	65535	64696.95
810.2371	393.5339	65535	64736.6
810.3806	395.7199	65535	64740.3
810.5241	397.9052	65535	64739.75
810.6677	400.09	65535	64737.55
810.8113	402.2743	65535	64737.6
810.9548	404.4579	65535	64738.75
811.0984	406.641	65535	64734.2
811.2421	408.8235	65535	64733.6
811.3857	411.0054	65535	64729.95
811.5293	413.1868	65535	64724.65
811.673	415.3675	65535	64724.3
811.8166	417.5477	65535	64721.45
811.9603	419.7273	65535	64718.85
812.104	421.9064	65535	64714.4
812.2477	424.0848	65535	64718.4
812.3914	426.2627	65535	64717.2
812.5351	428.4399	65535	64715.95
812.6788	430.6166	65535	64715.85
812.8226	432.7928	65535	64710.15
812.9663	434.9683	65535	64712.25
813.1101	437.1432	65535	64712.15
813.2539	439.3176	65535	64715.75
813.3977	441.4914	65535	64715.75
813.5415	443.6645	65535	64712.25
813.6853	445.8371	65535	64710.6
813.8291	448.0091	65535	64713.1
813.973	450.1806	65535	64710.7
814.1168	452.3514	65535	64708.15
814.2607	454.5216	65535	64698.5
814.4046	456.6913	65535	64708.9
814.5485	458.8603	65535	64708.8
814.6924	461.0288	65535	64708.4
814.8363	463.1967	65535	64707.45
814.9802	465.3639	65535	64707.45
815.1241	467.5306	65535	64703.4
815.2681	469.6967	65535	64707.85
815.412	471.8622	65535	64707
815.556	474.0271	65535	64706.55
815.7	476.1914	65535	64704.95
815.844	478.3551	65535	64703.4
815.988	480.5182	65535	64706.6
816.132	482.6807	65535	64704.95
816.276	484.8426	65535	64706.75
816.4201	487.0039	65535	64705.35
816.5641	489.1647	65535	64704.15
816.7082	491.3248	65535	64704.15
816.8522	493.4843	65535	64703.35
816.9963	495.6432	65535	64700.15
817.1404	497.8015	65535	64697.1
817.2845	499.9592	65535	64700.05
817.4286	502.1163	65535	64699.15
817.5727	504.2728	65535	64694
817.7168	506.4287	65535	64701.85
817.861	508.5839	65535	64700
818.0051	510.7386	65535	64699.5
818.1493	512.8927	65535	64695.35
818.2935	515.0461	65535	64695.25
818.4377	517.199	65535	64696.25
818.5818	519.3512	65535	64694.4
818.726	521.5029	65535	64687.65
818.8703	523.6539	65535	64693.9
819.0145	525.8043	65535	64690.85
819.1587	527.9541	65535	64689.05
819.303	530.1033	65535	64693.85
819.4472	532.2519	65535	64689.55
819.5915	534.3999	65535	64689
819.7357	536.5472	65535	64691.1
819.88	538.694	65535	64691.95
820.0243	540.8401	65535	64689.35
820.1686	542.9856	65535	64689.6
820.3129	545.1305	65535	64687.45
820.4572	547.2748	65535	64684.75
820.6016	549.4185	65535	64686.3
820.7459	551.5615	65535	64687.85
820.8902	553.704	65535	64686.65
821.0346	555.8458	65535	64689.65
821.1789	557.987	65535	64691.85
821.3233	560.1276	65535	64682.55
821.4677	562.2675	65535	64687.85
821.6121	564.4069	65535	64687.6
821.7565	566.5456	65535	64687.65
821.9009	568.6837	65535	64689.15
822.0453	570.8212	65535	64685.15
822.1897	572.958	65535	64681.65
822.3342	575.0942	65535	64684.55
822.4786	577.2299	65535	64686.35
822.6231	579.3648	65535	64687.95
822.7675	581.4992	65535	64687.3
822.912	583.6329	65535	64688.35
823.0565	585.766	65535	64686.55
823.201	587.8985	65535	64684.6
823.3454	590.0304	65535	64660.5
823.4899	592.1616	65535	64679.55
823.6345	594.2922	65535	64681
823.779	596.4222	65535	64678.9
823.9235	598.5515	65535	64676.9
824.068	600.6802	65535	64679.75
824.2126	602.8083	65535	64680.35
824.3571	604.9358	65535	64675.9
824.5017	607.0626	65535	64678.85
824.6462	609.1888	65535	64677.35
824.7908	611.3144	65535	64677.35
824.9354	613.4393	65535	64679.05
825.08	615.5636	65535	64678.1
825.2246	617.6873	65535	64678.4
825.3692	619.8103	65535	64674.7
825.5138	621.9327	65535	64674.9
825.6584	624.0544	65535	64678.2
825.803	626.1756	65535	64676.85
825.9477	628.2961	65535	64676.4
826.0923	630.4159	65535	64676.3
826.237	632.5351	65535	64672.1
826.3816	634.6537	65535	64675.95
826.5263	636.7716	65535	64668.95
826.6709	638.8889	65535	64672.25
826.8156	641.0056	65535	64673.3
826.9603	643.1216	65535	64670.9
827.105	645.237	65535	64671.25
827.2497	647.3518	65535	64669.95
827.3944	649.4659	65535	64674.6
827.5391	651.5793	65535	64673.65
827.6838	653.6922	65535	64673.35
827.8285	655.8043	65535	64670.65
827.9733	657.9159	65535	64671.15
828.118	660.0268	65535	64670.45
828.2627	662.137	65535	64671.45
828.4075	664.2466	65535	64667.75
828.5522	666.3556	65535	64668.9
828.697	668.4639	65535	64668.95
828.8418	670.5716	65535	64669.3
828.9865	672.6786	65535	64668.3
829.1313	674.785	65535	64667.6
829.2761	676.8907	65535	64669.55
829.4209	678.9958	65535	64667.25
829.5657	681.1002	65535	64667.9
829.7105	683.204	65535	64663.3
829.8553	685.3072	65535	64663.95
830.0001	687.4097	65535	64668
830.1449	689.5115	65535	64661.75
830.2898	691.6127	65535	64667.85
830.4346	693.7132	65535	64668.4
830.5794	695.8131	65535	64647.75
830.7243	697.9123	65535	64666.2
830.8691	700.0109	65535	64662.9
831.014	702.1089	65535	64667.7
831.1588	704.2061	65535	64663.9
831.3037	706.3028	65535	64666.5
831.4486	708.3987	65535	64664.25
831.5935	710.4941	65535	64664.65
831.7383	712.5887	65535	64661.35
831.8832	714.6827	65535	64658.15
832.0281	716.7761	65535	64662.4
832.173	718.8688	65535	64661.05
832.3179	720.9608	65535	64657.4
832.4628	723.0522	65535	64655.15
832.6077	725.1429	65535	64659.75
832.7527	727.233	65535	64661
832.8976	729.3224	65535	64660.7
833.0425	731.4112	65535	64661
833.1874	733.4993	65535	64657.2
833.3324	735.5867	65535	64658.1
833.4773	737.6735	65535	64659.8
833.6222	739.7596	65535	64658
833.7672	741.845	65535	64658.55
833.9122	743.9298	65535	64655.7
834.0571	746.014	65535	64660.3
834.2021	748.0974	65535	64658.45
834.347	750.1802	65535	64656.25
834.492	752.2624	65535	64659.7
834.637	754.3439	65535	64656.95
834.782	756.4247	65535	64647.55
834.9269	758.5048	65535	64657.65
835.0719	760.5843	65535	64660.95
835.2169	762.6631	65535	64657.35
835.3619	764.7413	65535	64658.2
835.5069	766.8188	65535	64657.15
835.6519	768.8956	65535	64654.75
835.7969	770.9718	65535	64659.3
835.9419	773.0473	65535	64655.35
836.0869	775.1221	65535	64656.8
836.232	777.1962	65535	64658.1
836.377	779.2697	65535	64655.55
836.522	781.3426	65535	64634.25
836.667	783.4147	65535	64654.95
836.8121	785.4862	65535	64657.4
836.9571	787.557	65535	64656.6
837.1021	789.6271	65535	64660.2
837.2472	791.6966	65535	64655.6
837.3922	793.7654	65535	64652.5
837.5373	795.8335	65535	64652.75
837.6823	797.901	65535	64658.05
837.8274	799.9678	65535	64651.15
837.9724	802.0339	65535	64656.75
838.1175	804.0993	65535	64644.4
838.2626	806.1641	65535	64652.6
838.4076	808.2282	65535	64654.9
838.5527	810.2916	65535	64648.6
838.6978	812.3544	65535	64657.65
838.8428	814.4164	65535	64656.3
838.9879	816.4778	65535	64653.3
839.133	818.5385	65535	64653.7
839.2781	820.5986	65535	64653.25
839.4232	822.658	65535	64650.35
839.5682	824.7166	65535	64654.8
839.7133	826.7747	65535	64656
839.8584	828.832	65535	64655.45
840.0035	830.8886	65535	64651.3
840.1486	832.9446	65535	64651.55
840.2937	834.9999	65535	64652.05
840.4388	837.0545	65535	64648.1
840.5839	839.1085	65535	64652.25
840.729	841.1618	65535	64649.45
840.8741	843.2143	65535	64651.25
841.0192	845.2662	65535	64651.25
841.1643	847.3175	65535	64652.95
841.3095	849.368	65535	64651.85
841.4546	851.4179	65535	64651.65
841.5997	853.467	65535	64652.7
841.7448	855.5155	65535	64651.55
841.8899	857.5633	65535	64650.05
842.0351	859.6105	65535	64650.75
842.1802	861.6569	65535	64651.05
842.3253	863.7027	65535	64649.2
842.4704	865.7478	65535	64652.6
842.6156	867.7922	65535	64652.3
842.7607	869.8359	65535	64650.05
842.9058	871.8789	65535	64654.65
843.0509	873.9212	65535	64621.4
843.1961	875.9629	65535	64651
843.3412	878.0039	65535	64648.25
843.4863	880.0441	65535	64651.7
843.6315	882.0837	65535	64649.3
843.7766	884.1226	65535	64648.95
843.9218	886.1609	65535	64654.85
844.0669	888.1984	65535	64651.15
844.212	890.2352	65535	64650.6
844.3572	892.2714	65535	64646
844.5023	894.3069	65535	64647.2
844.6475	896.3416	65535	64649.15
844.7926	898.3757	65535	64649.75
844.9377	900.4091	65535	64651.75
845.0829	902.4418	65535	64643.9
845.228	904.4739	65535	64648.4
845.3732	906.5052	65535	64648.9
845.5183	908.5358	65535	64647.2
845.6635	910.5658	65535	64647.35
845.8086	912.595	65535	64649.65
845.9538	914.6236	65535	64651.05
846.0989	916.6515	65535	64650.8
846.2441	918.6786	65535	64646
846.3892	920.7051	65535	64645.8
846.5344	922.7309	65535	64645.85
846.6795	924.756	65535	64648.25
846.8246	926.7804	65535	64643.65
846.9698	928.8041	65535	64645.5
847.1149	930.8272	65535	64650.55
847.2601	932.8495	65535	64649.2
847.4052	934.8711	65535	64645.7
847.5504	936.892	65535	64647.25
847.6955	938.9123	65535	64645.55
847.8407	940.9318	65535	64647.25
847.9858	942.9506	65535	64646.6
848.131	944.9688	65535	64647.95
848.2761	946.9862	65535	64649.7
848.4213	949.003	65535	64645.5
848.5664	951.019	65535	64647.7
848.7115	953.0344	65535	64646.85
848.8567	955.0491	65535	64650.5
849.0018	957.063	65535	64649.55
849.147	959.0763	65535	64648.6
849.2921	961.0888	65535	64644.55
849.4373	963.1007	65535	64648.45
849.5824	965.1119	65535	64650.65
849.7275	967.1223	65535	64649.45
849.8727	969.1321	65535	64649.9
850.0178	971.1412	65535	64650.2
850.1629	973.1495	65535	64649.3
850.3081	975.1572	65535	64614.45
850.4532	977.1641	65535	64646.15
850.5983	979.1704	65535	64643.75
850.7435	981.1759	65535	64644.2
850.8886	983.1808	65535	64644.6
851.0337	985.1849	65535	64635.6
851.1788	987.1884	65535	64643.45
851.324	989.1911	65535	64643.7
851.4691	991.1932	65535	64645.05
851.6142	993.1945	65535	64646.05
851.7593	995.1951	65535	64646.5
851.9045	997.1951	65535	64639.25
852.0496	999.1943	65535	64645.25
852.1947	1001.1928	65535	64644.75
852.3398	1003.1906	65535	64647.1
852.4849	1005.1877	65535	64644.75
852.63	1007.1841	65535	64647.15
852.7751	1009.1798	65535	64645.4
852.9202	1011.1748	65535	64645.65
853.0653	1013.1691	65535	64643.2
853.2104	1015.1627	65535	64643.75
853.3555	1017.1556	65535	64645.8
853.5006	1019.1477	65535	64644.85
853.6457	1021.1392	65535	64647.7
853.7908	1023.1299	65535	64649.35
853.9359	1025.12	65535	64648.4
854.081	1027.1093	65535	64650.25
854.2261	1029.0979	65535	64651.35
854.3712	1031.0859	65535	64651
854.5163	1033.0731	65535	64648.85
854.6613	1035.0596	65535	64649.5
854.8064	1037.0454	65535	64648.65
854.9515	1039.0304	65535	64646.65
855.0965	1041.0148	65535	64647.25
855.2416	1042.9985	65535	64645.55
855.3867	1044.9814	65535	64648.35
855.5317	1046.9636	65535	64645.9
855.6768	1048.9452	65535	64648.65
855.8219	1050.926	65535	64645.05
855.9669	1052.9061	65535	64647.65
856.112	1054.8855	65535	64646.25
856.257	1056.8642	65535	64645.9
856.4021	1058.8421	65535	64643.5
856.5471	1060.8194	65535	64644.7
856.6921	1062.7959	65535	64648.65
856.8372	1064.7717	65535	64644.7
856.9822	1066.7469	65535	64644.95
857.1272	1068.7213	65535	64642.6
857.2723	1070.695	65535	64646.4
857.4173	1072.6679	65535	64646.4
857.5623	1074.6402	65535	64645.2
857.7073	1076.6117	65535	64639.25
857.8523	1078.5826	65535	64645.05
857.9973	1080.5527	65535	64644.25
858.1423	1082.5221	65535	64648.4
858.2873	1084.4908	65535	64646.3
858.4323	1086.4587	65535	64647.5
858.5773	1088.426	65535	64644.1
858.7223	1090.3925	65535	64642.15
858.8673	1092.3584	65535	64647.75
859.0123	1094.3235	65535	64645.8
859.1573	1096.2879	65535	64645.6
859.3022	1098.2515	65535	64646.8
859.4472	1100.2145	65535	64648.4
859.5922	1102.1767	65535	64644.45
859.7371	1104.1382	65535	64645.05
859.8821	1106.099	65535	64643.2
860.027	1108.0591	65535	64645.85
860.172	1110.0185	65535	64645.6
860.3169	1111.9771	65535	64648.2
860.4619	1113.9351	65535	64647.45
860.6068	1115.8923	65535	64645.7
860.7517	1117.8488	65535	64643.15
860.8967	1119.8045	65535	64644.65
861.0416	1121.7596	65535	64642.5
861.1865	1123.7139	65535	64648.25
861.3314	1125.6675	65535	64648.6
861.4763	1127.6204	65535	64647.5
861.6212	1129.5726	65535	64643.75
861.7661	1131.524	65535	64645.75
861.911	1133.4748	65535	64644.3
862.0559	1135.4248	65535	64642.95
862.2008	1137.3741	65535	64645.6
862.3457	1139.3226	65535	64645.15
862.4905	1141.2705	65535	64646.35
862.6354	1143.2176	65535	64642.85
862.7803	1145.164	65535	64644.1
862.9251	1147.1097	65535	64647.85
863.07	1149.0546	65535	64642.6
863.2148	1150.9989	65535	64645.7
863.3597	1152.9424	65535	64642.85
863.5045	1154.8852	65535	64648.5
863.6493	1156.8272	65535	64647.3
863.7942	1158.7686	65535	64638.9
863.939	1160.7092	65535	64641.7
864.0838	1162.6491	65535	64642.95
864.2286	1164.5883	65535	64645.25
864.3734	1166.5267	65535	64645.15
864.5182	1168.4644	65535	64646.75
864.663	1170.4014	65535	64640.85
864.8078	1172.3377	65535	64648.3
864.9526	1174.2732	65535	64646.2
865.0974	1176.2081	65535	64647.8
865.2421	1178.1421	65535	64642.95
865.3869	1180.0755	65535	64644.75
865.5317	1182.0082	65535	64644.5
865.6764	1183.9401	65535	64644
865.8212	1185.8713	65535	64646.75
865.9659	1187.8017	65535	64645.65
866.1106	1189.7315	65535	64649.1
866.2554	1191.6605	65535	64621
866.4001	1193.5888	65535	64647
866.5448	1195.5163	65535	64646.85
866.6895	1197.4432	65535	64644.5
866.8342	1199.3693	65535	64646.25
866.9789	1201.2947	65535	64643.9
867.1236	1203.2193	65535	64646.4
867.2683	1205.1432	65535	64642.7
867.413	1207.0664	65535	64644.9
867.5576	1208.9889	65535	64642.25
867.7023	1210.9106	65535	64647.3
867.847	1212.8316	65535	64645.85
867.9916	1214.7519	65535	64638.4
868.1363	1216.6715	65535	64646.65
868.2809	1218.5903	65535	64646.15
868.4255	1220.5084	65535	64643.5
868.5701	1222.4257	65535	64646.9
868.7148	1224.3424	65535	64645.95
868.8594	1226.2583	65535	64642.65
869.004	1228.1735	65535	64643.65
869.1486	1230.0879	65535	64644.85
869.2932	1232.0016	65535	64645.75
869.4377	1233.9146	65535	64643.95
869.5823	1235.8269	65535	64645.7
869.7269	1237.7384	65535	64645.75
869.8715	1239.6492	65535	64647.8
870.016	1241.5592	65535	64645.5
870.1606	1243.4686	65535	64646.9
870.3051	1245.3772	65535	64646.2
870.4496	1247.285	65535	64644.05
870.5941	1249.1922	65535	64646.6
870.7387	1251.0986	65535	64644.3
870.8832	1253.0042	65535	64645.85
871.0277	1254.9092	65535	64646.15
871.1722	1256.8134	65535	64648.55
871.3167	1258.7169	65535	64644.85
871.4611	1260.6196	65535	64648.75
871.6056	1262.5216	65535	64643.65
871.7501	1264.4229	65535	64646.6
871.8945	1266.3234	65535	64646.15
872.039	1268.2232	65535	64645.9
872.1834	1270.1223	65535	64644.7
872.3278	1272.0207	65535	64643.35
872.4723	1273.9183	65535	64640.55
872.6167	1275.8151	65535	64645.9
872.7611	1277.7113	65535	64645.4
872.9055	1279.6067	65535	64645.7
873.0499	1281.5014	65535	64643.5
873.1943	1283.3953	65535	64644.5
873.3386	1285.2885	65535	64647.75
873.483	1287.181	65535	64645.65
873.6274	1289.0727	65535	64647.45
873.7717	1290.9637	65535	64643.8
873.9161	1292.854	65535	64646.15
874.0604	1294.7435	65535	64645.95
874.2047	1296.6323	65535	64646.85
874.349	1298.5204	65535	64644.2
874.4933	1300.4077	65535	64643.25
874.6376	1302.2943	65535	64647.1
874.7819	1304.1802	65535	64645.15
874.9262	1306.0653	65535	64643.05
875.0705	1307.9497	65535	64645.8
875.2147	1309.8333	65535	64645.45
875.359	1311.7162	65535	64647
875.5032	1313.5984	65535	64645
875.6475	1315.4798	65535	64632.35
875.7917	1317.3605	65535	64629.1
875.9359	1319.2405	65535	64644.35
876.0801	1321.1197	65535	64643.45
876.2243	1322.9982	65535	64643.75
876.3685	1324.876	65535	64647.5
876.5127	1326.753	65535	64645.65
876.6569	1328.6293	65535	64643.5
876.801	1330.5048	65535	64643.25
876.9452	1332.3796	65535	64645
877.0893	1334.2537	65535	64619.85
877.2335	1336.127	65535	64644.6
877.3776	1337.9996	65535	64646.05
877.5217	1339.8714	65535	64645.35
877.6658	1341.7426	65535	64600.3
877.8099	1343.6129	65535	64645.85
877.954	1345.4826	65535	64644.95
878.0981	1347.3515	65535	64640.95
878.2422	1349.2196	65535	64643.85
878.3862	1351.087	65535	64646.4
878.5303	1352.9537	65535	64645.2
878.6743	1354.8197	65535	64646.3
878.8184	1356.6849	65535	64644.75
878.9624	1358.5493	65535	64644.05
879.1064	1360.4131	65535	64644.85
879.2504	1362.276	65535	64646.35
879.3944	1364.1383	65535	64646.55
879.5384	1365.9998	65535	64641.15
879.6823	1367.8606	65535	64646.1
879.8263	1369.7206	65535	64646.3
879.9702	1371.5799	65535	64644.1
880.1142	1373.4384	65535	64642.7
880.2581	1375.2962	65535	64643.3
880.402	1377.1533	65535	64645.15
880.5459	1379.0096	65535	64647.05
880.6898	1380.8652	65535	64646.05
880.8337	1382.7201	65535	64646.1
880.9776	1384.5742	65535	64647.15
881.1215	1386.4275	65535	64646.5
881.2653	1388.2802	65535	64647.85
881.4092	1390.132	65535	64646.25
881.553	1391.9832	65535	64644.85
881.6968	1393.8336	65535	64646.1
881.8406	1395.6832	65535	64646.05
881.9844	1397.5322	65535	64645.2
882.1282	1399.3803	65535	64642.9
882.272	1401.2278	65535	64647.35
882.4158	1403.0745	65535	64648
882.5595	1404.9204	65535	64644.5
882.7033	1406.7656	65535	64647.45
882.847	1408.6101	65535	64643.8
882.9908	1410.4538	65535	64644.15
883.1345	1412.2968	65535	64645.2
883.2782	1414.139	65535	64642.45
883.4219	1415.9805	65535	64647
883.5656	1417.8213	65535	64640.45
883.7092	1419.6613	65535	64646.25
883.8529	1421.5006	65535	64644.8
883.9965	1423.3391	65535	64645.2
884.1402	1425.1769	65535	64643.35
884.2838	1427.0139	65535	64646.85
884.4274	1428.8502	65535	64647.15
884.571	1430.6858	65535	64646.7
884.7146	1432.5206	65535	64642.9
884.8582	1434.3547	65535	64646.35
885.0018	1436.188	65535	64645.2
885.1453	1438.0206	65535	64644.45
885.2889	1439.8524	65535	64644.85
885.4324	1441.6835	65535	64642.4
885.5759	1443.5139	65535	64642.55
885.7194	1445.3435	65535	64646
885.8629	1447.1724	65535	64647.3
886.0064	1449.0005	65535	64648.2
886.1499	1450.8279	65535	64645.75
886.2933	1452.6545	65535	64645.85
886.4368	1454.4804	65535	64646.4
886.5802	1456.3056	65535	64638.75
886.7237	1458.13	65535	64647.2
886.8671	1459.9536	65535	64643.85
887.0105	1461.7766	65535	64647.1
887.1539	1463.5987	65535	64646.1
887.2972	1465.4202	65535	64646
887.4406	1467.2409	65535	64646.7
887.584	1469.0608	65535	64645.7
887.7273	1470.88	65535	64646.2
887.8706	1472.6984	65535	64645.7
888.0139	1474.5161	65535	64645.6
888.1572	1476.3331	65535	64648.2
888.3005	1478.1493	65535	64644.5
888.4438	1479.9648	65535	64646.1
888.5871	1481.7795	65535	64645.65
888.7303	1483.5935	65535	64646.95
888.8736	1485.4067	65535	64645.6
889.0168	1487.2192	65535	64648.15
889.16	1489.031	65535	64646.6
889.3032	1490.842	65535	64646.45
889.4464	1492.6522	65535	64646.35
889.5896	1494.4618	65535	64647.55
889.7327	1496.2705	65535	64645.75
889.8759	1498.0785	65535	64645.7
890.019	1499.8858	65535	64644.95
890.1622	1501.6924	65535	64646.85
890.3053	1503.4981	65535	64647.5
890.4484	1505.3032	65535	64644.95
890.5914	1507.1075	65535	64647.2
890.7345	1508.911	65535	64649.4
890.8776	1510.7138	65535	64644.65
891.0206	1512.5159	65535	64645.5
891.1637	1514.3172	65535	64646.7
891.3067	1516.1178	65535	64645.95
891.4497	1517.9176	65535	64644.15
891.5927	1519.7166	65535	64648.15
891.7357	1521.515	65535	64641.15
891.8786	1523.3126	65535	64646.6
892.0216	1525.1094	65535	64644.25
892.1645	1526.9055	65535	64647.55
892.3074	1528.7008	65535	64646.6
892.4503	1530.4954	65535	64645.5
892.5932	1532.2893	65535	64648.2
892.7361	1534.0824	65535	64644.3
892.879	1535.8747	65535	64647.95
893.0218	1537.6663	65535	64647.35
893.1647	1539.4572	65535	64645
893.3075	1541.2473	65535	64647.75
893.4503	1543.0367	65535	64646.55
893.5931	1544.8253	65535	64644.15
893.7359	1546.6132	65535	64645.8
893.8787	1548.4003	65535	64638.25
894.0214	1550.1867	65535	64639.35
894.1642	1551.9723	65535	64644.15
894.3069	1553.7572	65535	64646.7
894.4496	1555.5414	65535	64648
894.5923	1557.3247	65528.3	64641.05
894.735	1559.1074	65535	64651.7
894.8777	1560.8893	65535	64648.6
895.0204	1562.6705	65535	64648.25
895.163	1564.4509	65534.5	64651.2
895.3056	1566.2305	65535	64649.9
895.4482	1568.0094	65535	64649.25
895.5908	1569.7876	65535	64649.8
895.7334	1571.565	65535	64649.1
895.876	1573.3417	65535	64650.4
896.0186	1575.1176	65535	64649
896.1611	1576.8928	65534.85	64646.85
896.3036	1578.6672	65525.3	64640.1
896.4461	1580.4409	65533.15	64647.05
896.5886	1582.2138	65517.65	64631.65
896.7311	1583.986	65526.4	64641.1
896.8736	1585.7575	65512.9	64630.4
897.0161	1587.5282	65526.1	64641.35
897.1585	1589.2981	65525.55	64643.4
897.3009	1591.0673	65512	64625.6
897.4433	1592.8358	65482.15	64596.9
897.5857	1594.6035	65514.45	64625.1
897.7281	1596.3704	65515.7	64628.3
897.8705	1598.1366	65468.9	64585.95
898.0128	1599.9021	65446.25	64560.75
898.1551	1601.6668	65503.25	64617.6
898.2975	1603.4308	65465.7	64578.55
898.4398	1605.194	65461.3	64571.65
898.5821	1606.9564	65389.95	64506.45
898.7243	1608.7182	65455.55	64568.55
898.8666	1610.4791	65404.7	64523.85
899.0088	1612.2394	65465.3	64582.45
899.1511	1613.9988	65379.85	64493.5
899.2933	1615.7576	65460.8	64575.9
899.4355	1617.5156	65444.7	64554.2
899.5776	1619.2728	65504	64617.55
899.7198	1621.0293	65380.95	64497.5
899.862	1622.785	65386.05	64497.2
900.0041	1624.54	65420.2	64533.5
900.1462	1626.2942	65336.15	64452
900.2883	1628.0477	65233.65	64348.1
900.4304	1629.8005	65148.9	64261.05
900.5725	1631.5525	65286.65	64401.25
900.7145	1633.3037	65120.8	64237.25
900.8566	1635.0542	65098.05	64214.95
900.9986	1636.804	65204.65	64321.4
901.1406	1638.553	64989.55	64023.8
901.2826	1640.3013	65098.45	64215.2
901.4245	1642.0488	64951.75	64068
901.5665	1643.7955	65081.05	64202.05
901.7085	1645.5416	64975.8	64090.45
901.8504	1647.2868	64865.8	63983.8
901.9923	1649.0313	65082.6	64200.05
902.1342	1650.7751	64953.45	64066.1
902.2761	1652.5181	64856.55	63975.45
902.4179	1654.2604	64862.7	63978.35
902.5598	1656.0019	64886.65	64003.9
902.7016	1657.7427	64813.5	63930.75
902.8434	1659.4828	64918.85	64035.4
902.9852	1661.222	64789.55	63906.15
903.127	1662.9606	64964.25	64079.1
903.2687	1664.6984	64753.45	63870.55
903.4105	1666.4354	64837.4	63953.1
903.5522	1668.1717	64619.8	63736.9
903.6939	1669.9072	64414.25	63529.6
903.8356	1671.642	64414.1	63528.25
903.9773	1673.3761	64337.3	63455.65
904.119	1675.1094	64305.55	63423.25
904.2606	1676.8419	64058.25	63175.9
904.4022	1678.5737	64151.65	63267.75
904.5439	1680.3048	64060.1	63175.7
904.6855	1682.0351	63912	63030.1
904.827	1683.7646	63789.85	62903.1
904.9686	1685.4934	63943.2	63061.5
905.1101	1687.2215	63327.5	62443.9
905.2517	1688.9488	63799.8	62918.65
905.3932	1690.6754	62838.25	61956.3
905.5347	1692.4012	63373.75	62490.7
905.6761	1694.1263	63441.45	62558.5
905.8176	1695.8506	63012.45	62130.1
905.9591	1697.5742	63118.3	62235.2
906.1005	1699.297	62948.1	62067.05
906.2419	1701.0191	63018.7	62136.55
906.3833	1702.7404	62476	61595.2
906.5246	1704.461	62318.75	61436.75
906.666	1706.1808	62691	61807.85
906.8073	1707.8999	62444.6	61558.45
906.9487	1709.6182	62311.95	61431.4
907.09	1711.3358	62247.55	61364.55
907.2313	1713.0527	62130.7	61248.7
907.3725	1714.7688	62194.2	61307.1
907.5138	1716.4841	61523.85	60641.3
907.655	1718.1987	61772.8	60886.25
907.7962	1719.9126	61602.45	60720.15
907.9374	1721.6257	61734.25	60849.55
908.0786	1723.338	61749	60865.2
908.2198	1725.0496	60942.7	60061.05
908.3609	1726.7605	61037.1	60152.25
908.502	1728.4706	60812.25	59929.65
908.6431	1730.18	61120.95	60238.25
908.7842	1731.8886	60724.65	59843.4
908.9253	1733.5964	60491.95	59604.8
909.0664	1735.3036	60875.75	59991.35
909.2074	1737.0099	60541	59658.3
909.3484	1738.7156	60236.9	59357.65
909.4894	1740.4204	60138.4	59254
909.6304	1742.1246	60297.25	59413.3
909.7714	1743.8279	60354.95	59474.7
909.9123	1745.5306	60252.35	59370.9
910.0532	1747.2325	59185.6	58305.2
910.1941	1748.9336	59237.1	58357.3
910.335	1750.634	59482.3	58599.8
910.4759	1752.3336	59787.2	58903.95
910.6168	1754.0325	59011.55	58130.55
910.7576	1755.7307	59723.25	58840.8
910.8984	1757.4281	58734.95	57851.8
911.0392	1759.1247	59417.6	58525.35
911.18	1760.8206	58399.1	57513.55
911.3208	1762.5158	58504.1	57618.85
911.4615	1764.2102	58687.75	57807.35
911.6022	1765.9039	58416.3	57532.9
911.7429	1767.5968	58197.25	57316.7
911.8836	1769.289	58018.35	57136.85
912.0243	1770.9804	58203.15	57319.7
912.1649	1772.6711	58012.95	57128.85
912.3056	1774.361	57847.65	56965.9
912.4462	1776.0502	57799.75	56915.5
912.5868	1777.7386	57151.45	56267.1
912.7274	1779.4263	57421.25	56538.5
912.8679	1781.1132	57477.9	56593.35
913.0084	1782.7994	57233.35	56352.2
913.149	1784.4849	57290.8	56406.85
913.2895	1786.1696	56412.85	55525.15
913.4299	1787.8535	56886.95	56006.2
913.5704	1789.5367	56999.05	56119.75
913.7108	1791.2192	56387.8	55509.15
913.8513	1792.9009	56065.65	55152.65
913.9917	1794.5818	56421.2	55538.15
914.132	1796.2621	55929.4	55049.45
914.2724	1797.9415	55977.25	55094.35
914.4128	1799.6202	55832.75	54952.35
914.5531	1801.2982	55862.8	54980.45
914.6934	1802.9755	55406.85	54524.4
914.8337	1804.6519	55298.95	54416.8
914.9739	1806.3277	55821.15	54941.1
915.1142	1808.0027	54768.45	53887.7
915.2544	1809.6769	55116.4	54234.15
915.3946	1811.3504	55200.4	54319
915.5348	1813.0231	54431.5	53549.55
915.675	1814.6951	54858	53977.25
915.8151	1816.3664	54556.7	53673
915.9553	1818.0369	54600.1	53718.75
916.0954	1819.7067	54314.95	53434.05
916.2355	1821.3757	54694.6	53811
916.3755	1823.044	54013.4	53130.6
916.5156	1824.7115	53806.8	52925.15
916.6556	1826.3783	53907.55	53027.65
916.7956	1828.0443	53842.85	52962.6
916.9356	1829.7096	53560.9	52679.2
917.0756	1831.3741	53179.55	52294.4
917.2155	1833.0379	53332.2	52450.85
917.3555	1834.701	53231.35	52348.75
917.4954	1836.3633	52874.15	51994
917.6353	1838.0248	53033.4	52149.15
917.7751	1839.6856	52904.1	52022.45
917.915	1841.3457	52571.3	51691.25
918.0548	1843.005	52909.65	52028
918.1946	1844.6636	52601.65	51721.15
918.3344	1846.3214	52213.6	51333.7
918.4742	1847.9785	52261.55	51382.6
918.6139	1849.6349	52153.9	51270.55
918.7537	1851.2904	52341.7	51450.55
918.8934	1852.9453	51800.9	50918.15
919.0331	1854.5994	51860.15	50975.3
919.1727	1856.2528	51965.9	51078.85
919.3124	1857.9054	51572.15	50689.7
919.452	1859.5572	51450.1	50569.8
919.5916	1861.2083	51494.15	50612.8
919.7312	1862.8587	51785.9	50906
919.8708	1864.5084	51028.75	50148
920.0103	1866.1572	51208.1	50328.1
920.1498	1867.8054	50760.75	49880.65
920.2893	1869.4528	50995.4	50113.5
920.4288	1871.0994	50572.45	49691.8
920.5683	1872.7453	50555.3	49674.4
920.7077	1874.3905	50573.7	49687.05
920.8471	1876.0349	50225.75	49344.15
920.9865	1877.6786	50370.7	49487.95
921.1259	1879.3215	50140.2	49259.9
921.2653	1880.9637	50297.05	49411.9
921.4046	1882.6051	49994.25	49114.4
921.5439	1884.2458	49816	48932.95
921.6832	1885.8858	49566.15	48684.65
921.8225	1887.525	49600.9	48718.05
921.9617	1889.1634	49372.8	48491.95
922.101	1890.8011	49251.6	48371.5
922.2402	1892.4381	48942.95	48063
922.3794	1894.0743	49246.8	48366.95
922.5185	1895.7098	48995.35	48116.75
922.6577	1897.3446	48774.2	47891.2
922.7968	1898.9786	48749.65	47863.85
922.9359	1900.6118	48543.5	47662.65
923.075	1902.2443	48233.75	47350.2
923.214	1903.8761	48323.45	47442.65
923.3531	1905.5071	48026.7	47144.2
923.4921	1907.1374	47694.7	46811.75
923.6311	1908.7669	47745.5	46865.05
923.77	1910.3957	47833.75	46951.45
923.909	1912.0237	47380.55	46498.75
924.0479	1913.651	47265.55	46383.95
924.1868	1915.2776	47144.4	46263.55
924.3257	1916.9034	47005.85	46126.7
924.4646	1918.5285	46748.15	45869.5
924.6034	1920.1528	46658.05	45775.7
924.7422	1921.7764	46590.15	45708.7
924.881	1923.3992	46384.65	45505.95
925.0198	1925.0213	46166.55	45285.3
925.1586	1926.6427	45896	45014.9
925.2973	1928.2633	46029.45	44939.2
925.436	1929.8832	45703.6	44819.85
925.5747	1931.5023	45452.15	44572.25
925.7134	1933.1207	45318.95	44438.3
925.852	1934.7383	45317.75	44437.45
925.9906	1936.3552	45090.15	44210
926.1292	1937.9714	45013.25	44133.25
926.2678	1939.5868	44859.05	43976.75
926.4064	1941.2015	44579.6	43698.2
926.5449	1942.8154	44383.65	43503.45
926.6834	1944.4286	44229.25	43348.2
926.8219	1946.041	44113.2	43214.05
926.9604	1947.6528	43907.35	43021.15
927.0988	1949.2637	43825.55	42945.4
927.2372	1950.8739	43646.95	42763.8
927.3756	1952.4834	43570.75	42689.9
927.514	1954.0921	43507.9	42628.65
927.6523	1955.7001	43363.05	42476.3
927.7907	1957.3074	43225.3	42344.4
927.929	1958.9139	42966.15	42087.25
928.0673	1960.5197	42873.9	41991.4
928.2055	1962.1247	42606.6	41725.45
928.3438	1963.729	42453.3	41574.9
928.482	1965.3325	42344.6	41438.7
928.6202	1966.9353	42258.95	41380.75
928.7584	1968.5374	42111.3	41229.5
928.8965	1970.1387	41911.35	41032.7
929.0346	1971.7393	41746.3	40864.4
929.1727	1973.3392	41662.65	40782.45
929.3108	1974.9383	41467.55	40586.95
929.4489	1976.5366	41287.7	40408.35
929.5869	1978.1342	41247.55	40366.55
929.7249	1979.7311	41126.55	40244.2
929.8629	1981.3273	41035.95	40155.75
930.0009	1982.9227	40903.3	40021.15
930.1388	1984.5173	40782.65	39901.7
930.2767	1986.1112	40608.75	39726.7
930.4146	1987.7044	40550.65	39671.2
930.5525	1989.2968	40350.1	39469
930.6904	1990.8885	40291.5	39407.1
930.8282	1992.4795	40157.2	39276.3
930.966	1994.0697	39991.1	39112.7
931.1038	1995.6592	39853.7	38974.2
931.2415	1997.2479	39712.9	38835.25
931.3793	1998.8359	39661.7	38782.05
931.517	2000.4232	39501.3	38621.95
931.6547	2002.0097	39397.55	38518.1
931.7923	2003.5955	39234.15	38353.45
931.93	2005.1805	39156	38275.05
932.0676	2006.7648	39015.4	38135.35
932.2052	2008.3484	38885.1	38003.7
932.3427	2009.9312	38923.8	38043.85
932.4803	2011.5133	38752.95	37877.1
932.6178	2013.0946	38620.15	37740.2
932.7553	2014.6752	38481.45	37603.55
932.8928	2016.2551	38416.1	37534.5
933.0302	2017.8342	38234	37355.9
933.1676	2019.4126	38147.55	37267.25
933.305	2020.9902	37907.3	37028.05
933.4424	2022.5672	37858.95	36978.25
933.5798	2024.1433	37819.65	36936.3
933.7171	2025.7188	37694.8	36817.25
933.8544	2027.2935	37531.65	36651.95
933.9917	2028.8674	37394.55	36517.4
934.129	2030.4406	37301	36423.6
934.2662	2032.0131	37099.2	36221.45
934.4034	2033.5849	37003.85	36115.3
934.5406	2035.1559	36932.8	36053.75
934.6778	2036.7261	36895.5	36017
934.8149	2038.2957	36721.3	35842.35
934.952	2039.8645	36628.65	35749.3
935.0891	2041.4325	36681.4	35800.75
935.2262	2042.9998	36487.25	35607.6
935.3632	2044.5664	36359.25	35478.95
935.5002	2046.1323	36255.5	35377.2
935.6372	2047.6974	36203.25	35323.45
935.7742	2049.2617	36019	35138.6
935.9111	2050.8254	35999.2	35115.6
936.048	2052.3883	36006.45	35123.65
936.1849	2053.9504	35836.05	34957.3
936.3218	2055.5118	35750.75	34870.65
936.4586	2057.0725	35555.75	34671.4
936.5955	2058.6325	35504.95	34626.75
936.7323	2060.1917	35355.1	34475.9
936.869	2061.7502	35251.6	34369.5
937.0058	2063.3079	35141.9	34264.95
937.1425	2064.8649	35016.5	34134.05
937.2792	2066.4212	34927.95	34046.15
937.4159	2067.9767	34863.1	33983.35
937.5525	2069.5315	34702.65	33825.9
937.6891	2071.0856	34506.5	33625.7
937.8257	2072.6389	34400.9	33520.25
937.9623	2074.1915	34186.85	33309.55
938.0989	2075.7433	34065.8	33184.5
938.2354	2077.2945	33982.45	33104.45
938.3719	2078.8448	33867.45	32989
938.5084	2080.3945	33711.15	32831.7
938.6448	2081.9434	33742.25	32862.75
938.7812	2083.4916	33584.25	32704.95
938.9176	2085.039	33455.65	32574.2
939.054	2086.5857	33424.8	32542.8
939.1903	2088.1317	33360.15	32479.9
939.3267	2089.677	33251.85	32371
939.463	2091.2215	33153.3	32273.65
939.5992	2092.7652	33054.85	32171.55
939.7355	2094.3083	32976.7	32095.8
939.8717	2095.8506	32932.45	32054.05
940.0079	2097.3921	32914.15	32035.15
940.1441	2098.933	32757.3	31874.15
940.2802	2100.4731	32675.5	31797.65
940.4163	2102.0124	32641.2	31742.5
940.5524	2103.5511	32524.8	31645.55
940.6885	2105.089	32476.35	31594.9
940.8245	2106.6261	32328.45	31447.2
940.9606	2108.1626	32306.5	31425.25
941.0965	2109.6983	32235.9	31328.35
941.2325	2111.2332	32103.1	31222.35
941.3684	2112.7675	31992.45	31112.65
941.5044	2114.301	31917.6	31036.85
941.6403	2115.8337	31881.2	30997.75
941.7761	2117.3657	31800.6	30921.05
941.912	2118.897	31668.55	30787.45
942.0478	2120.4276	31581.15	30696.9
942.1835	2121.9575	31363.5	30483.25
942.3193	2123.4866	31440.25	30547.1
942.455	2125.0149	31334.75	30452.15
942.5907	2126.5426	31157.6	30277.7
942.7264	2128.0695	31106.2	30222.75
942.8621	2129.5956	31050.85	30172.25
942.9977	2131.1211	30984.65	30100.55
943.1333	2132.6458	30885	30006.1
943.2689	2134.1698	30797.25	29916.85
943.4044	2135.693	30714.6	29833.7
943.54	2137.2155	30656.45	29774.15
943.6755	2138.7373	30589.85	29710.1
943.8109	2140.2584	30465.75	29587.9
943.9464	2141.7787	30350.3	29464.75
944.0818	2143.2983	30204.7	29326.1
944.2172	2144.8171	30094.1	29215.1
944.3526	2146.3353	30026.3	29144.85
944.4879	2147.8527	29919.75	29042.25
944.6232	2149.3693	29841.65	28960.7
944.7585	2150.8853	29730.9	28850.3
944.8938	2152.4005	29600.85	28722.25
945.029	2153.9149	29571.85	28694.4
945.1642	2155.4287	29464.35	28586.05
945.2994	2156.9417	29426.5	28543.4
945.4346	2158.454	29324.15	28441.4
945.5697	2159.9655	29235.9	28356.2
945.7048	2161.4764	29171.8	28291.7
945.8399	2162.9865	29056.75	28178.1
945.9749	2164.4958	28981.8	28100.65
946.1099	2166.0045	28861.4	27980.15
946.2449	2167.5124	28822.8	27943.35
946.3799	2169.0195	28786.8	27907.7
946.5148	2170.526	28742.1	27863.15
946.6498	2172.0317	28629.95	27750.75
946.7846	2173.5367	28519.85	27638.2
946.9195	2175.0409	28424.7	27546
947.0543	2176.5445	28423.15	27545.7
947.1891	2178.0473	28276.3	27397
947.3239	2179.5494	28154.75	27268.7
947.4587	2181.0507	28047.35	27166.65
947.5934	2182.5513	28031	27149.85
947.7281	2184.0512	27962.6	27083.15
947.8628	2185.5504	27864.45	26983.1
947.9974	2187.0488	27688.8	26809.65
948.132	2188.5465	27612.9	26734.05
948.2666	2190.0435	27486.55	26607.45
948.4012	2191.5397	27384.95	26506.1
948.5357	2193.0353	27344.25	26466.35
948.6702	2194.5301	27197.1	26316.45
948.8047	2196.0241	27082.65	26202.9
948.9392	2197.5175	27010.95	26131.5
949.0736	2199.0101	26885.95	26002.85
949.208	2200.502	26775.1	25897.7
949.3424	2201.9931	26719.3	25839.65
949.4767	2203.4835	26583.55	25701.75
949.611	2204.9733	26532.95	25647.9
949.7453	2206.4622	26458.15	25580.4
949.8796	2207.9505	26385.95	25503.45
950.0138	2209.438	26243.15	25364.05
950.148	2210.9248	26156.3	25274.5
950.2822	2212.4109	26045.6	25166.9
950.4164	2213.8962	25976.9	25092.8
950.5505	2215.3809	25893.8	25015.45
950.6846	2216.8648	25870.05	24988.65
950.8186	2218.3479	25756.4	24871.1
950.9527	2219.8304	25637.55	24755.95
951.0867	2221.3121	25570.7	24687.75
951.2207	2222.7931	25513.15	24633.75
951.3546	2224.2733	25386.15	24508.75
951.4886	2225.7529	25293.45	24414
951.6225	2227.2317	25240.4	24359.5
951.7563	2228.7098	25193.8	24314.1
951.8902	2230.1872	24997.15	24117.45
952.024	2231.6638	25011.05	24131.7
952.1578	2233.1397	24925.25	24040.4
952.2916	2234.6149	24830.5	23952.2
952.4253	2236.0894	24761.5	23881.2
952.559	2237.5632	24727.9	23846.8
952.6927	2239.0362	24572.9	23692
952.8263	2240.5085	24488.15	23607.6
952.9599	2241.9801	24413.25	23533.5
953.0935	2243.4509	24328.95	23449.35
953.2271	2244.921	24227.15	23348.25
953.3606	2246.3904	24116	23232.4
953.4941	2247.8591	24071.6	23191.7
953.6276	2249.3271	24020.65	23140.35
953.7611	2250.7943	23923.7	23043
953.8945	2252.2608	23869.3	22990.2
954.0279	2253.7266	23795.8	22917.55
954.1612	2255.1917	23714.3	22834.3
954.2946	2256.656	23608.95	22729
954.4279	2258.1197	23534.45	22653.6
954.5612	2259.5826	23484.95	22603.25
954.6944	2261.0447	23438.7	22557.25
954.8276	2262.5062	23330.4	22448.4
954.9608	2263.9669	23306.15	22424.4
955.094	2265.4269	23239.5	22361.3
955.2271	2266.8862	23172.55	22291.7
955.3602	2268.3448	23108.85	22227.6
955.4933	2269.8026	23065.35	22185.2
955.6264	2271.2598	22963.25	22083.9
955.7594	2272.7162	22889.3	22009.6
955.8924	2274.1719	22849.35	21968.1
956.0253	2275.6268	22752.6	21875.4
956.1583	2277.0811	22681.35	21799.75
956.2912	2278.5346	22650.1	21771.6
956.4241	2279.9874	22581.7	21701.45
956.5569	2281.4395	22542	21664.5
956.6897	2282.8908	22442.15	21557.9
956.8225	2284.3414	22398.3	21514.4
956.9553	2285.7914	22299.35	21420.95
957.088	2287.2406	22218.25	21338.15
957.2207	2288.689	22202	21320.75
957.3534	2290.1368	22107.1	21227.8
957.486	2291.5838	22034.75	21152.7
957.6186	2293.0302	22010.35	21127.3
957.7512	2294.4758	21895.9	21017.85
957.8838	2295.9206	21796.15	20912.5
958.0163	2297.3648	21760.75	20882.7
958.1488	2298.8082	21714.55	20832.65
958.2813	2300.251	21660.55	20779.85
958.4137	2301.693	21516.9	20634.95
958.5461	2303.1343	21530.55	20650
958.6785	2304.5748	21447.7	20567.45
958.8108	2306.0147	21336.2	20453.05
958.9432	2307.4538	21305.6	20423.35
959.0754	2308.8922	21249.35	20370
959.2077	2310.3299	21190	20311.7
959.3399	2311.7669	21137.15	20258.5
959.4721	2313.2031	21005.55	20125.6
959.6043	2314.6387	20931.05	20048.45
959.7365	2316.0735	20882.9	20003.45
959.8686	2317.5076	20830.75	19948.25
960.0006	2318.941	20810.25	19931.55
960.1327	2320.3737	20728.45	19848.85
960.2647	2321.8056	20650	19767.9
960.3967	2323.2369	20572.6	19693.05
960.5287	2324.6674	20499.65	19616.35
960.6606	2326.0972	20452.05	19571.3
960.7925	2327.5263	20348.25	19469.15
960.9244	2328.9547	20310.05	19429.35
961.0562	2330.3823	20269.75	19390.8
961.1881	2331.8092	20228.15	19343.6
961.3198	2333.2355	20102.75	19223.8
961.4516	2334.661	20108.95	19228.3
961.5833	2336.0858	20022.6	19141
961.715	2337.5098	19975.75	19095.7
961.8467	2338.9332	19951	19071.65
961.9783	2340.3558	19847.45	18962.1
962.1099	2341.7778	19767.5	18889.2
962.2415	2343.199	19720.95	18839.95
962.373	2344.6195	19645.35	18767.8
962.5045	2346.0393	19609.15	18727.7
962.636	2347.4583	19577.1	18696.1
962.7675	2348.8767	19485.5	18604.45
962.8989	2350.2943	19451.2	18571.2
963.0303	2351.7113	19423.65	18542.2
963.1617	2353.1275	19304.15	18423.8
963.293	2354.543	19281.6	18390.8
963.4243	2355.9578	19188.3	18307.55
963.5556	2357.3718	19092.15	18213.8
963.6868	2358.7852	19002.5	18118.7
963.818	2360.1978	18932.3	18052.3
963.9492	2361.6098	18912.2	18034.2
964.0803	2363.021	18872.6	17990.65
964.2114	2364.4315	18792	17912.5
964.3425	2365.8413	18738.05	17856.4
964.4736	2367.2504	18657.7	17778.2
964.6046	2368.6587	18576.55	17698.15
964.7356	2370.0664	18493.95	17613.7
964.8666	2371.4733	18471.2	17589.1
964.9975	2372.8795	18407.85	17529.15
965.1284	2374.285	18330.75	17452.9
965.2593	2375.6899	18234.45	17355.15
965.3901	2377.0939	18173.45	17296.85
965.5209	2378.4973	18115.55	17234.6
965.6517	2379.9	18009.7	17129.45
965.7825	2381.3019	17964.95	17085
965.9132	2382.7032	17913.05	17033.05
966.0439	2384.1037	17914.25	17036.65
966.1745	2385.5035	17830.55	16950.75
966.3051	2386.9027	17764.45	16887.2
966.4357	2388.3011	17744.05	16859.75
966.5663	2389.6987	17675.2	16793.95
966.6968	2391.0957	17600.6	16722.25
966.8273	2392.492	17540.35	16661.7
966.9578	2393.8876	17432.45	16551.8
967.0882	2395.2824	17397.95	16518.6
967.2186	2396.6765	17297.95	16418.6
967.349	2398.07	17225.55	16348
967.4793	2399.4627	17199.05	16317.9
967.6097	2400.8547	17123.25	16243.3
967.7399	2402.246	17070.2	16186
967.8702	2403.6366	16987.95	16107.45
968.0004	2405.0265	16895.45	16017.05
968.1306	2406.4156	16861.3	15977.85
968.2607	2407.8041	16777.4	15895.1
968.3909	2409.1918	16696.05	15814.7
968.521	2410.5789	16639	15758.35
968.651	2411.9652	16588.3	15707.9
968.781	2413.3508	16529.6	15648.75
968.911	2414.7358	16447.05	15565.7
969.041	2416.12	16399.2	15522.85
969.1709	2417.5035	16375.85	15496.4
969.3008	2418.8863	16281.3	15400.9
969.4307	2420.2684	16226.75	15347.5
969.5606	2421.6497	16162.8	15283.35
969.6904	2423.0304	16077.55	15199.2
969.8201	2424.4104	16050.15	15169.75
969.9499	2425.7896	15989.55	15107.15
970.0796	2427.1682	15932.9	15051.8
970.2093	2428.546	15934.65	15053.3
970.3389	2429.9232	15851.95	14971
970.4685	2431.2996	15841	14960.5
970.5981	2432.6753	15790.75	14911.4
970.7277	2434.0503	15733.9	14853.1
970.8572	2435.4246	15673.2	14794.65
970.9867	2436.7982	15602.55	14721
971.1161	2438.1711	15576.25	14696.5
971.2456	2439.5433	15495.8	14615.2
971.375	2440.9148	15466	14584.75
971.5043	2442.2856	15376.15	14498.2
971.6336	2443.6557	15297.6	14417.65
971.7629	2445.025	15257.6	14379.15
971.8922	2446.3937	15223.55	14342.9
972.0214	2447.7617	15152.75	14273.55
972.1506	2449.1289	15133.25	14252.1
972.2798	2450.4955	15123.45	14243.1
972.4089	2451.8613	15020.3	14141.6
972.538	2453.2265	15002.9	14123.2
972.6671	2454.5909	14975.15	14094.6
972.7961	2455.9546	14928.6	14050.4
972.9251	2457.3177	14862.2	13984.15
973.0541	2458.68	14822.5	13940.65
973.1831	2460.0416	14797.35	13917.05
973.312	2461.4025	14772.75	13890.25
973.4408	2462.7627	14720.05	13828.8
973.5697	2464.1222	14643.45	13765.65
973.6985	2465.4811	14626.5	13748.15
973.8273	2466.8392	14556.9	13677.35
973.956	2468.1966	14530.55	13647.05
974.0847	2469.5533	14507.3	13624.35
974.2134	2470.9093	14471.25	13593.05
974.3421	2472.2645	14409.45	13529.25
974.4707	2473.6191	14342.75	13464.3
974.5993	2474.973	14266.3	13386.75
974.7278	2476.3262	14262.2	13378.95
974.8563	2477.6787	14191.55	13312.1
974.9848	2479.0305	14083.95	13205.35
975.1132	2480.3816	14065.8	13184.8
975.2417	2481.7319	14033	13153.55
975.37	2483.0816	13965.65	13084.35
975.4984	2484.4306	13929.45	13048.75
975.6267	2485.7789	13889.4	13009.9
975.755	2487.1264	13810.35	12929.5
975.8833	2488.4733	13784.9	12906.6
976.0115	2489.8195	13708.8	12823.1
976.1397	2491.165	13636.25	12753.5
976.2678	2492.5097	13599.95	12719.6
976.3959	2493.8538	13546.85	12668.05
976.524	2495.1972	13487.3	12607.7
976.6521	2496.5398	13415.4	12533.15
976.7801	2497.8818	13417.5	12536.35
976.9081	2499.2231	13319.9	12439.8
977.036	2500.5637	13288.65	12406.3
977.164	2501.9035	13278.2	12398.3
977.2918	2503.2427	13244.55	12358.85
977.4197	2504.5812	13186.55	12308.8
977.5475	2505.919	13136.5	12254.35
977.6753	2507.256	13112.95	12232.75
977.8031	2508.5924	13043.3	12163.6
977.9308	2509.9281	13008.6	12122.05
978.0585	2511.2631	12955.55	12075.75
978.1861	2512.5974	12913.3	12034.35
978.3137	2513.9309	12872.7	11991.8
978.4413	2515.2638	12827.75	11920.65
978.5689	2516.596	12804.25	11925.15
978.6964	2517.9275	12728.1	11846.05
978.8239	2519.2583	12681.85	11801.3
978.9513	2520.5884	12625.85	11743.05
979.0788	2521.9178	12599.6	11721.15
979.2062	2523.2465	12561.05	11681.2
979.3335	2524.5745	12501.95	11623.8
979.4608	2525.9018	12437.6	11557.6
979.5881	2527.2284	12439.85	11560.9
979.7154	2528.5543	12387.25	11508.65
979.8426	2529.8796	12359.4	11480
979.9698	2531.2041	12304.2	11421.8
980.0969	2532.5279	12282.55	11404.85
980.224	2533.851	12253.15	11371.6
980.3511	2535.1735	12226.9	11348.45
980.4781	2536.4952	12191.1	11313.55
980.6052	2537.8163	12168.35	11289.2
980.7321	2539.1366	12113.45	11234.25
980.8591	2540.4562	12074.75	11194.25
980.986	2541.7752	12056.4	11179
981.1129	2543.0935	12034.2	11153.3
981.2397	2544.411	11988.75	11109.35
981.3665	2545.7279	11970.3	11090.95
981.4933	2547.0441	11951	11070.75
981.62	2548.3596	11934.7	11052.9
981.7467	2549.6744	11917.7	11039.45
981.8734	2550.9885	11851.8	10963.75
982.0001	2552.3019	11821.6	10942.95
982.1267	2553.6146	11800.05	10921.8
982.2532	2554.9266	11760.25	10882
982.3798	2556.2379	11722.45	10842.4
982.5063	2557.5485	11711.15	10832
982.6327	2558.8585	11651.05	10767.2
982.7592	2560.1677	11602.05	10718.2
982.8856	2561.4762	11586.05	10707.85
983.0119	2562.7841	11588.15	10704.45
983.1383	2564.0913	11562.15	10680.05
983.2646	2565.3977	11534.65	10655.8
983.3908	2566.7035	11487.15	10606.9
983.517	2568.0086	11485.05	10603.05
983.6432	2569.313	11445.35	10566.2
983.7694	2570.6167	11435.7	10551.95
983.8955	2571.9197	11409.55	10529.9
984.0216	2573.222	11387.85	10506.3
984.1476	2574.5236	11352	10474.15
984.2737	2575.8246	11322.7	10440.55
984.3996	2577.1248	11302.2	10420
984.5256	2578.4244	11282.35	10403.25
984.6515	2579.7232	11253.75	10373.15
984.7774	2581.0214	11231.75	10329.55
984.9032	2582.3189	11195.5	10317.55
985.029	2583.6157	11163.25	10278.5
985.1548	2584.9118	11136.5	10258.5
985.2806	2586.2072	11096.95	10218.3
985.4063	2587.5019	11049.6	10172.65
985.5319	2588.7959	11038.35	10158.1
985.6576	2590.0893	11005	10122.45
985.7832	2591.3819	10992.5	10112.8
985.9087	2592.6739	10944.85	10064.55
986.0343	2593.9652	10910.5	10029.15
986.1597	2595.2557	10866.8	9988.25
986.2852	2596.5456	10814.25	9933.4
986.4106	2597.8348	10768.55	9890.6
986.536	2599.1234	10732.2	9852.75
986.6614	2600.4112	10694.4	9814.05
986.7867	2601.6983	10679.15	9795.55
986.912	2602.9848	10612.35	9733.15
987.0372	2604.2705	10603.8	9719.7
987.1624	2605.5556	10561.85	9682.4
987.2876	2606.84	10515.95	9634.75
987.4128	2608.1237	10489.1	9610.25
987.5379	2609.4067	10440	9557.85
987.6629	2610.689	10420.05	9533.65
987.788	2611.9707	10379.55	9499.15
987.913	2613.2516	10341.5	9458.25
988.0379	2614.5319	10271.6	9393.7
988.1629	2615.8115	10229.95	9349.3
988.2878	2617.0903	10195.6	9316.7
988.4126	2618.3685	10162.9	9283.25
988.5375	2619.6461	10130.55	9251.45
988.6622	2620.9229	10091.4	9212.5
988.787	2622.199	10076.1	9195.25
988.9117	2623.4745	10049.65	9170.05
989.0364	2624.7493	10008.45	9130.4
989.161	2626.0234	9975.95	9096.6
989.2857	2627.2968	9931.25	9050.3
989.4102	2628.5695	9886.55	9005.2
989.5348	2629.8415	9830.65	8952.3
989.6593	2631.1128	9795.45	8914.1
989.7837	2632.3835	9756.6	8876.95
989.9082	2633.6535	9695.9	8817.9
990.0326	2634.9228	9698.95	8821.4
990.1569	2636.1914	9666.6	8788.35
990.2812	2637.4593	9636.2	8750.05
990.4055	2638.7265	9599.55	8718.1
990.5298	2639.9931	9540.6	8662.55
990.654	2641.259	9532.6	8650.4
990.7782	2642.5242	9526	8644
990.9023	2643.7887	9478.85	8599.1
991.0264	2645.0525	9461.9	8582.95
991.1505	2646.3156	9400.45	8518.5
991.2745	2647.5781	9373.55	8493.95
991.3985	2648.8398	9345.1	8467.3
991.5225	2650.1009	9313.6	8396.1
991.6464	2651.3613	9277.2	8398.15
991.7703	2652.6211	9253.9	8374.45
991.8942	2653.8801	9239.6	8359.35
992.018	2655.1385	9217.6	8336.9
992.1418	2656.3961	9190	8310.6
992.2655	2657.6531	9176.25	8297.5
992.3892	2658.9094	9151.2	8270.9
992.5129	2660.1651	9098.15	8219.75
992.6366	2661.42	9100.05	8220.45
992.7602	2662.6743	9085.6	8204.75
992.8837	2663.9279	9061.95	8182.5
993.0073	2665.1808	8998.4	8120.05
993.1307	2666.433	8965.2	8082.3
993.2542	2667.6846	8949.55	8069
993.3776	2668.9354	8960.25	8076.75
993.501	2670.1856	8887.15	8006.3
993.6244	2671.4351	8887.4	8008.95
993.7477	2672.6839	8853.6	7974.5
993.8709	2673.9321	8812.6	7935
993.9942	2675.1795	8810.45	7931.75
994.1174	2676.4263	8772.75	7891.95
994.2405	2677.6724	8752.1	7874.5
994.3637	2678.9179	8725.6	7844.6
994.4868	2680.1626	8700.25	7822.95
994.6098	2681.4067	8682.85	7805
994.7328	2682.6501	8628.45	7748.4
994.8558	2683.8928	8619.3	7739.1
994.9788	2685.1348	8595.5	7716.15
995.1017	2686.3761	8549	7670.45
995.2245	2687.6168	8523.15	7644.6
995.3474	2688.8568	8485.95	7606
995.4702	2690.0961	8431.25	7552.1
995.5929	2691.3348	8430.55	7550.85
995.7156	2692.5727	8409.05	7529.15
995.8383	2693.81	8371.5	7494.3
995.961	2695.0466	8358.9	7481.75
996.0836	2696.2826	8338.7	7460
996.2062	2697.5178	8311.6	7431.6
996.3287	2698.7524	8283.4	7404.25
996.4512	2699.9863	8271.8	7391
996.5737	2701.2195	8216.9	7337.95
996.6961	2702.452	8233	7351.8
996.8185	2703.6839	8196.05	7316.95
996.9408	2704.9151	8172.65	7294.8
997.0631	2706.1456	8135.05	7256.95
997.1854	2707.3755	8102.45	7222.7
997.3077	2708.6046	8088.25	7206.8
997.4299	2709.8331	8063.05	7185.9
997.552	2711.0609	8026.85	7147.65
997.6742	2712.2881	8004.7	7127.1
997.7963	2713.5145	7987.05	7104.55
997.9183	2714.7403	7973.5	7098
998.0403	2715.9654	7924.25	7043.45
998.1623	2717.1899	7914.45	7032.55
998.2842	2718.4136	7896.2	7016.95
998.4062	2719.6367	7886.75	7009.85
998.528	2720.8591	7851.9	6966.2
998.6498	2722.0809	7816.1	6935.85
998.7716	2723.3019	7803.6	6921.55
998.8934	2724.5223	7774.6	6892.3
999.0151	2725.7421	7768.05	6887.35
999.1368	2726.9611	7737	6855.35
999.2584	2728.1795	7704.05	6819.5
999.38	2729.3972	7662.65	6782.75
999.5016	2730.6142	7636.65	6752.45
999.6231	2731.8306	7590.4	6709.05
999.7446	2733.0462	7567.95	6689.1
999.8661	2734.2612	7547	6664.65
999.9875	2735.4756	7475	6594.7
1000.1089	2736.6892	7446.95	6566.8
1000.2302	2737.9022	7412.3	6534.7
1000.3515	2739.1145	7372.8	6494.05
1000.4728	2740.3262	7356.6	6470.9
1000.594	2741.5372	7306.35	6428.05
1000.7152	2742.7475	7301.9	6422.15
1000.8363	2743.9571	7264.15	6383.25
1000.9575	2745.1661	7248.5	6364.25
1001.0785	2746.3744	7201.4	6320.45
1001.1996	2747.582	7182.45	6303.65
1001.3206	2748.7889	7154.3	6272.2
1001.4415	2749.9952	7119.8	6242.3
1001.5625	2751.2008	7072.95	6191.95
1001.6833	2752.4057	7080.2	6199.45
1001.8042	2753.61	7041.1	6158.65
1001.925	2754.8136	7023.2	6141.4
1002.0458	2756.0165	6973	6092.7
1002.1665	2757.2188	6955.85	6075.9
1002.2872	2758.4204	6928.45	6047.95
1002.4078	2759.6213	6932.05	6050.35
1002.5285	2760.8215	6913.95	6030.85
1002.649	2762.0211	6874.5	5992
1002.7696	2763.22	6861.6	5977.2
1002.8901	2764.4182	6819.3	5939.4
1003.0106	2765.6158	6802.3	5924.2
1003.131	2766.8127	6767.65	5889.35
1003.2514	2768.009	6744.8	5866.6
1003.3717	2769.2045	6739.7	5858.7
1003.492	2770.3994	6714.2	5834.95
1003.6123	2771.5936	6703.15	5823.95
1003.7325	2772.7872	6659.75	5780.65
1003.8527	2773.9801	6632.95	5752.2
1003.9729	2775.1723	6619.65	5725.2
1004.093	2776.3639	6600.55	5723.1
1004.2131	2777.5548	6554.75	5673.35
1004.3331	2778.745	6541.4	5660.25
1004.4531	2779.9346	6528.5	5649.65
1004.5731	2781.1235	6517.9	5637.55
1004.693	2782.3117	6505.4	5628.2
1004.8129	2783.4992	6482	5603
1004.9328	2784.6861	6473.2	5593.9
1005.0526	2785.8723	6441.35	5560.75
1005.1723	2787.0579	6412.2	5531.5
1005.2921	2788.2428	6382.8	5504.8
1005.4118	2789.427	6376.65	5498.7
1005.5314	2790.6106	6375.2	5495.55
1005.651	2791.7935	6343.6	5464.45
1005.7706	2792.9757	6326.05	5449.9
1005.8902	2794.1573	6292.2	5412.8
1006.0097	2795.3382	6279.55	5401.1
1006.1291	2796.5184	6260.2	5381.45
1006.2485	2797.698	6249.15	5371.35
1006.3679	2798.8769	6257.1	5377.2
1006.4873	2800.0551	6225.1	5344.95
1006.6066	2801.2327	6199.2	5319.35
1006.7258	2802.4096	6197.25	5318.35
1006.8451	2803.5859	6200.35	5321.6
1006.9642	2804.7615	6160.75	5280.3
1007.0834	2805.9364	6178.4	5299.7
1007.2025	2807.1106	6165.95	5289
1007.3216	2808.2842	6169.75	5289.7
1007.4406	2809.4572	6162.05	5286.15
1007.5596	2810.6294	6182.75	5302.55
1007.6785	2811.801	6192.05	5316.4
1007.7975	2812.972	6182.85	5304.65
1007.9163	2814.1423	6200.6	5320.4
1008.0352	2815.3119	6227.4	5347.6
1008.154	2816.4808	6244.6	5366.7
1008.2727	2817.6491	6248.85	5367.45
1008.3914	2818.8167	6294.75	5417.7
1008.5101	2819.9837	6308.1	5424
1008.6288	2821.15	6317.7	5439.85
1008.7474	2822.3157	6332.05	5453.95
1008.8659	2823.4807	6388.45	5509.5
1008.9844	2824.645	6403.7	5523.35
1009.1029	2825.8086	6430.55	5552.55
1009.2214	2826.9716	6446.8	5569.7
1009.3398	2828.134	6478.95	5601.5
1009.4581	2829.2957	6487.3	5609.1
1009.5764	2830.4567	6522.95	5646.15
1009.6947	2831.617	6514.8	5638.05
1009.813	2832.7767	6535.1	5656.85
1009.9312	2833.9358	6483.75	5606.35
1010.0493	2835.0941	6468.95	5587.45
1010.1675	2836.2519	6451.95	5574.85
1010.2855	2837.4089	6427.05	5546.4
1010.4036	2838.5653	6399.3	5521.8
1010.5216	2839.7211	6389.7	5511.4
1010.6396	2840.8761	6378.95	5497.65
1010.7575	2842.0306	6374.2	5497.15
1010.8754	2843.1843	6384.3	5506.15
1010.9932	2844.3374	6389.9	5512.4
1011.111	2845.4899	6411.3	5531.45
1011.2288	2846.6417	6435.15	5556.15
1011.3465	2847.7928	6471.75	5595.3
1011.4642	2848.9433	6507.75	5631.45
1011.5818	2850.0931	6531.3	5652.25
1011.6995	2851.2422	6585.25	5703.5
1011.817	2852.3907	6614.9	5735.7
1011.9345	2853.5385	6637.75	5755.95
1012.052	2854.6857	6680.6	5792.2
1012.1695	2855.8323	6684.35	5806.9
1012.2869	2856.9781	6714.6	5835
1012.4042	2858.1233	6728.3	5850.65
1012.5216	2859.2679	6759.65	5880.45
1012.6389	2860.4118	6764	5886.45
1012.7561	2861.555	6780.45	5896.9
1012.8733	2862.6976	6807.2	5926.75
1012.9905	2863.8395	6821.1	5944.65
1013.1076	2864.9808	6804.95	5924.75
1013.2247	2866.1214	6808.65	5930.45
1013.3417	2867.2614	6795.4	5916.8
1013.4587	2868.4007	6809.6	5930.35
1013.5757	2869.5393	6794.75	5915.5
1013.6926	2870.6773	6780.9	5898.45
1013.8095	2871.8146	6787.05	5906
1013.9263	2872.9513	6767.15	5885.9
1014.0431	2874.0874	6744.65	5866.55
1014.1599	2875.2227	6711.55	5831.45
1014.2766	2876.3574	6666.75	5788.15
1014.3933	2877.4915	6629.5	5750.6
1014.51	2878.6249	6586.95	5709.05
1014.6266	2879.7577	6551.7	5673.4
1014.7431	2880.8898	6534.65	5645.35
1014.8596	2882.0212	6508.95	5630.6
1014.9761	2883.152	6484.85	5607.25
1015.0925	2884.2821	6445.75	5566.9
1015.2089	2885.4116	6415.05	5538.3
1015.3253	2886.5405	6409.05	5531.55
1015.4416	2887.6686	6380.9	5499.45
1015.5579	2888.7962	6377.05	5500.45
1015.6741	2889.923	6365.8	5487.05
1015.7903	2891.0493	6366.1	5488.75
1015.9065	2892.1748	6350	5470.5
1016.0226	2893.2997	6334.5	5456.4
1016.1387	2894.424	6319.45	5440.35
1016.2547	2895.5476	6333.1	5455.2
1016.3707	2896.6706	6324.25	5448.5
1016.4866	2897.7929	6333.25	5453
1016.6025	2898.9145	6322.4	5444.25
1016.7184	2900.0355	6334.05	5454
1016.8342	2901.1559	6347.55	5467.7
1016.95	2902.2756	6325.35	5445.85
1017.0658	2903.3946	6350.65	5472.75
1017.1815	2904.513	6341.6	5460.65
1017.2971	2905.6308	6345.55	5467.95
1017.4127	2906.7479	6336.55	5459.8
1017.5283	2907.8643	6359.45	5478.8
1017.6439	2908.9801	6346.1	5465.9
1017.7594	2910.0953	6322.45	5444.15
1017.8748	2911.2098	6330.25	5448.75
1017.9902	2912.3236	6311.95	5424.05
1018.1056	2913.4368	6288	5404.9
1018.2209	2914.5494	6244.85	5365.8
1018.3362	2915.6613	6217.5	5331.25
1018.4515	2916.7725	6193.35	5312.7
1018.5667	2917.8831	6144.25	5265.95
1018.6819	2918.9931	6110.1	5228.2
1018.797	2920.1024	6084.5	5206.3
1018.9121	2921.211	6050.9	5172.7
1019.0271	2922.319	6013.45	5134.7
1019.1421	2923.4264	5999	5120.65
1019.2571	2924.5331	5979.95	5102.4
1019.372	2925.6391	5962.1	5083.2
1019.4869	2926.7445	5951.45	5071.1
1019.6017	2927.8493	5945.4	5066.45
1019.7165	2928.9534	5931.55	5053
1019.8313	2930.0569	5903	5022.75
1019.946	2931.1597	5885.6	5006.8
1020.0606	2932.2619	5882.6	5005.25
1020.1753	2933.3634	5885.6	5005.1
1020.2899	2934.4643	5879.5	4995.5
1020.4044	2935.5645	5858.85	4974.75
1020.5189	2936.6641	5837.85	4956.05
1020.6334	2937.763	5778.55	4900.3
1020.7478	2938.8613	5738.15	4860.3
1020.8622	2939.959	5681.65	4796.8
1020.9765	2941.056	5620.65	4745
1021.0908	2942.1523	5573.65	4693.55
1021.2051	2943.248	5486.75	4609.5
1021.3193	2944.3431	5392.2	4516.05
1021.4334	2945.4375	5305.55	4425.7
1021.5476	2946.5313	5224.25	4348.5
1021.6617	2947.6244	5125.6	4245.6
1021.7757	2948.7169	5060.15	4180.7
1021.8897	2949.8087	4965.6	4086.55
1022.0037	2950.8999	4899.9	4021.35
1022.1176	2951.9904	4805.5	3930.5
1022.2315	2953.0803	4741.8	3862
1022.3453	2954.1696	4685.2	3807.65
1022.4591	2955.2582	4650.7	3772.85
1022.5728	2956.3462	4596.4	3720.6
1022.6865	2957.4335	4530.9	3650.2
1022.8002	2958.5202	4493.85	3612.1
1022.9138	2959.6062	4453.2	3575.05
1023.0274	2960.6916	4434.75	3556.1
1023.141	2961.7764	4427.7	3547.4
1023.2545	2962.8605	4365.4	3488.75
1023.3679	2963.9439	4350.15	3473.65
1023.4813	2965.0267	4339.5	3458.85
1023.5947	2966.1089	4338.15	3436.1
1023.708	2967.1905	4298.95	3421.65
1023.8213	2968.2714	4291.25	3412.05
1023.9346	2969.3516	4282.3	3403.6
1024.0478	2970.4312	4267.5	3379.85
1024.1609	2971.5102	4249.55	3372.1
1024.274	2972.5885	4238.4	3361.35
1024.3871	2973.6662	4231.8	3348.05
1024.5002	2974.7432	4202.25	3323.45
1024.6132	2975.8196	4194.7	3316.75
1024.7261	2976.8954	4167.5	3291.2
1024.839	2977.9705	4162.85	3285.75
1024.9519	2979.045	4154.65	3275.95
1025.0647	2980.1188	4123.7	3246
1025.1775	2981.192	4103.95	3226.2
1025.2902	2982.2645	4071.2	3194.05
1025.4029	2983.3364	4051.55	3173.15
1025.5156	2984.4077	3996.35	3118.9
1025.6282	2985.4783	3991.2	3109
1025.7407	2986.5483	3956.15	3077.4
1025.8532	2987.6177	3932.85	3055.35
1025.9657	2988.6864	3885.3	3007.05
1026.0782	2989.7545	3852.65	2973.95
1026.1906	2990.8219	3827.9	2949.05
1026.3029	2991.8887	3794.3	2913.1
1026.4152	2992.9548	3753.8	2875.05
1026.5275	2994.0204	3726.25	2849.95
1026.6397	2995.0852	3683.4	2804.3
1026.7519	2996.1495	3656.45	2777.65
1026.864	2997.2131	3629.05	2747.65
1026.9761	2998.276	3602.4	2725.55
1027.0882	2999.3383	3583	2701.75
1027.2002	3000.4	3544.4	2665.4
1027.3122	3001.4611	3528.85	2649
1027.4241	3002.5215	3501.2	2621.65
1027.536	3003.5812	3474.85	2595.9
1027.6478	3004.6404	3467.3	2589.65
1027.7596	3005.6989	3457.35	2576.45
1027.8714	3006.7567	3443.1	2565.5
1027.9831	3007.8139	3446.3	2535.6
1028.0947	3008.8705	3407.85	2530.85
1028.2064	3009.9264	3380.85	2500.3
1028.3179	3010.9818	3367.9	2488.75
1028.4295	3012.0364	3354.25	2475.3
1028.541	3013.0905	3348.15	2469.15
1028.6524	3014.1439	3345.85	2465.95
1028.7638	3015.1966	3318.15	2440.5
1028.8752	3016.2487	3307.6	2430.7
1028.9865	3017.3002	3300.2	2420.6
1029.0978	3018.3511	3295	2419.55
1029.209	3019.4013	3269.25	2391
1029.3202	3020.4509	3262	2384.7
1029.4314	3021.4998	3253.7	2374.45
1029.5425	3022.5481	3246.25	2367.6
1029.6535	3023.5958	3239.7	2360.95
1029.7645	3024.6428	3223.85	2345.45
1029.8755	3025.6892	3209.1	2332.25
1029.9864	3026.735	3213.9	2336.75
1030.0973	3027.7802	3191.65	2315.4
1030.2082	3028.8247	3177.3	2301.15
1030.319	3029.8685	3174.25	2297.15
1030.4297	3030.9118	3163.35	2283.5
1030.5404	3031.9544	3165.3	2288.55
1030.6511	3032.9963	3156.7	2277.85
1030.7617	3034.0376	3146.7	2269.75
1030.8723	3035.0783	3134.85	2253.7
1030.9829	3036.1184	3123.9	2245.2
1031.0934	3037.1578	3131.15	2254
1031.2038	3038.1966	3115.45	2235.85
1031.3142	3039.2348	3118.8	2243.35
1031.4246	3040.2723	3099.75	2212.75
1031.5349	3041.3092	3091.35	2215.95
1031.6452	3042.3455	3080.75	2202.55
1031.7554	3043.3811	3068.7	2190.95
1031.8656	3044.4161	3074.7	2197.9
1031.9758	3045.4505	3053.55	2175.95
1032.0859	3046.4842	3050.9	2171.8
1032.1959	3047.5173	3031.7	2156.7
1032.3059	3048.5498	3021.65	2144.3
1032.4159	3049.5816	3018.25	2140.3
1032.5258	3050.6128	3014	2132.9
1032.6357	3051.6434	3006.95	2129.25
1032.7455	3052.6734	2985.75	2107.45
1032.8553	3053.7027	2976.15	2098.15
1032.9651	3054.7314	2954.75	2078.65
1033.0748	3055.7594	2942.45	2064.6
1033.1845	3056.7868	2951.95	2073.3
1033.2941	3057.8136	2934.75	2057.1
1033.4037	3058.8398	2931.6	2052.15
1033.5132	3059.8653	2916.05	2039.75
1033.6227	3060.8902	2897.05	2019.15
1033.7321	3061.9145	2896.9	2019.9
1033.8415	3062.9381	2883.4	2005.9
1033.9509	3063.9612	2900.45	2007.2
1034.0602	3064.9835	2875.05	1998
1034.1694	3066.0053	2864.55	1985
1034.2787	3067.0264	2845.3	1966.25
1034.3878	3068.0469	2844.8	1966.8
1034.497	3069.0668	2834	1952.85
1034.6061	3070.086	2814.05	1936.55
1034.7151	3071.1046	2800.4	1923.25
1034.8241	3072.1226	2794.55	1915.7
1034.9331	3073.1399	2763.45	1887.8
1035.042	3074.1567	2757.3	1878.65
1035.1508	3075.1727	2754.6	1873.65
1035.2597	3076.1882	2741.45	1862.8
1035.3684	3077.203	2723.25	1846.3
1035.4772	3078.2173	2713.7	1833.85
1035.5859	3079.2308	2712.3	1830.95
1035.6945	3080.2438	2687.9	1808.95
1035.8031	3081.2561	2686.4	1810
1035.9117	3082.2678	2660.65	1783.75
1036.0202	3083.2789	2670.65	1792.15
1036.1286	3084.2893	2642	1762.8
1036.2371	3085.2991	2644.6	1765.55
1036.3454	3086.3083	2627.3	1743.8
1036.4538	3087.3169	2614.05	1734
1036.562	3088.3248	2599.5	1720.75
1036.6703	3089.3321	2590.15	1710.55
1036.7785	3090.3388	2597.1	1720.6
1036.8866	3091.3449	2591.45	1714
1036.9948	3092.3503	2570.5	1690.4
1037.1028	3093.3551	2553.6	1677
1037.2108	3094.3593	2555.3	1678.5
1037.3188	3095.3629	2540.25	1661.35
1037.4267	3096.3658	2523.6	1646.6
1037.5346	3097.3681	2521.5	1644.15
1037.6425	3098.3698	2512.95	1635.25
1037.7503	3099.3708	2512.8	1628.7
1037.858	3100.3713	2496.8	1618.65
1037.9657	3101.3711	2482.9	1606.6
1038.0734	3102.3702	2593.3	1580.65
1038.181	3103.3688	2477.5	1598.05
1038.2886	3104.3667	2442.85	1565.2
1038.3961	3105.364	2443.4	1566.05
1038.5036	3106.3607	2428.1	1549.85
1038.611	3107.3568	2413.2	1533.65
1038.7184	3108.3522	2419.1	1542.7
1038.8257	3109.347	2401.95	1522.5
1038.933	3110.3412	2403.7	1521.35
1039.0403	3111.3348	2381.85	1504.3
1039.1475	3112.3277	2371.15	1493.7
1039.2547	3113.32	2372.25	1496.85
1039.3618	3114.3117	2366.6	1490.05
1039.4689	3115.3028	2347.75	1469.35
1039.5759	3116.2932	2339.1	1460.35
1039.6829	3117.2831	2341.05	1457
1039.7898	3118.2723	2326.45	1447.55
1039.8967	3119.2608	2316.65	1438.3
1040.0035	3120.2488	2317.25	1439.2
1040.1103	3121.2361	2301.65	1424.2
1040.2171	3122.2229	2283.7	1406.05
1040.3238	3123.209	2277.25	1398.7
1040.4305	3124.1944	2268.9	1392.85
1040.5371	3125.1793	2269.95	1389.95
1040.6437	3126.1635	2261.2	1386
1040.7502	3127.1471	2261.35	1384.55
1040.8567	3128.1301	2253.65	1375.55
1040.9631	3129.1125	2246.4	1370.3
1041.0695	3130.0942	2247.1	1369.3
1041.1759	3131.0753	2244.4	1359.25
1041.2822	3132.0558	2232.5	1354.25
1041.3884	3133.0357	2220.3	1342.5
1041.4946	3134.015	2216.65	1338.7
1041.6008	3134.9936	2210.9	1332.35
1041.7069	3135.9716	2207.2	1310.25
1041.813	3136.949	2189.25	1311.3
1041.919	3137.9258	2188.55	1302.9
1042.025	3138.902	2188.1	1305.45
1042.1309	3139.8775	2173.9	1297.6
1042.2368	3140.8524	2173.8	1296.65
1042.3427	3141.8267	2162.55	1283.5
1042.4485	3142.8004	2163.25	1284.95
1042.5542	3143.7735	2163.6	1278
1042.6599	3144.7459	2158.5	1277.75
1042.7656	3145.7178	2152.6	1275.25
1042.8712	3146.689	2136.05	1260.9
1042.9768	3147.6596	2134.2	1256.55
1043.0823	3148.6295	2117.4	1239.4
1043.1878	3149.5989	2113.2	1236.65
1043.2932	3150.5676	2105.85	1228.45
1043.3986	3151.5357	2093.4	1218.2
1043.5039	3152.5032	2101.4	1224.5
1043.6092	3153.4701	2099.5	1222.95
1043.7145	3154.4364	2083	1200.35
1043.8197	3155.402	2066.2	1189.15
1043.9248	3156.367	2069.1	1189
1044.03	3157.3315	2100.65	1185.9
1044.135	3158.2952	2055.05	1175.6
1044.24	3159.2584	2050.95	1173.05
1044.345	3160.221	2039.9	1163.5
1044.4499	3161.1829	2029.05	1150.95
1044.5548	3162.1442	2026.65	1147.85
1044.6596	3163.105	2013.55	1137.55
1044.7644	3164.065	2009.55	1130.85
1044.8692	3165.0245	2012.2	1129.95
1044.9739	3165.9834	2003.1	1126.6
1045.0785	3166.9416	1996.95	1119.05
1045.1831	3167.8993	1986.25	1106.8
1045.2877	3168.8563	1983.5	1106.55
1045.3922	3169.8127	1963.05	1085.2
1045.4966	3170.7684	1968.85	1091.85
1045.6011	3171.7236	1966.25	1088.3
1045.7054	3172.6782	1957.9	1081.6
1045.8098	3173.6321	1959.6	1081.6
1045.914	3174.5854	1952.6	1069.35
1046.0183	3175.5381	1941.25	1063.15
1046.1224	3176.4902	1926.6	1050.5
1046.2266	3177.4417	1924.2	1047.6
1046.3307	3178.3926	1921.3	1044.7
1046.4347	3179.3428	1904.7	1028.15
1046.5387	3180.2924	1912.8	1035.95
1046.6427	3181.2415	1903.35	1025.9
1046.7466	3182.1899	1897.6	1017.85
1046.8504	3183.1377	1896	1019.25
1046.9542	3184.0848	1885.55	1004.3
1047.058	3185.0314	1881.3	1002.65
1047.1617	3185.9773	1882.85	1005.65
1047.2654	3186.9227	1876.9	1000.35
1047.369	3187.8674	1856.6	980.2
1047.4726	3188.8115	1863.75	983.6
1047.5761	3189.755	1853.7	975.8
1047.6796	3190.6979	1846.5	967.75
1047.783	3191.6402	1844.6	967.15
1047.8864	3192.5818	1851.05	974.75
1047.9898	3193.5229	1858.6	964.95
1048.0931	3194.4633	1838.75	962.1
1048.1963	3195.4031	1832.5	953.75
1048.2995	3196.3423	1822.9	943.7
1048.4027	3197.2809	1810	933.6
1048.5058	3198.2189	1815.75	938.25
1048.6089	3199.1563	1833.7	939.75
1048.7119	3200.0931	1804.25	929.05
1048.8148	3201.0292	1796.2	918.6
1048.9178	3201.9648	1792.65	914.95
1049.0206	3202.8997	1793.1	912.8
1049.1235	3203.834	1784.1	907.5
1049.2262	3204.7677	1782.35	906.95
1049.329	3205.7008	1782.1	902.55
1049.4317	3206.6333	1760.05	884.3
1049.5343	3207.5652	1766.35	886.3
1049.6369	3208.4964	1765.3	887.7
1049.7394	3209.4271	1750.7	873.1
1049.8419	3210.3571	1753.5	873.6
1049.9444	3211.2865	1745.9	867.7
1050.0468	3212.2154	1740.8	862.1
1050.1491	3213.1436	1743.85	863.5
1050.2514	3214.0712	1746.7	864.35
1050.3537	3214.9982	1735.8	858.4
1050.4559	3215.9246	1728.2	848.9
1050.5581	3216.8503	1723.05	847
1050.6602	3217.7755	1711.1	832.85
1050.7623	3218.7001	1714.65	837.15
1050.8643	3219.624	1712.65	835.35
1050.9663	3220.5473	1706.8	829.15
1051.0682	3221.4701	1697.5	819.3
1051.1701	3222.3922	1704.65	824.7
1051.2719	3223.3137	1696.15	819.15
1051.3737	3224.2346	1685.35	806.05
1051.4754	3225.1549	1687.85	812.35
1051.5771	3226.0746	1683.8	804.8
1051.6788	3226.9937	1675.3	796.65
1051.7804	3227.9121	1670.15	793.75
1051.8819	3228.83	1667	788.95
1051.9834	3229.7473	1662.75	784.55
1052.0849	3230.6639	1660.25	781.75
1052.1863	3231.5799	1653.45	776.15
1052.2876	3232.4954	1647	769.35
1052.3889	3233.4102	1638.35	761.1
1052.4902	3234.3244	1639.75	762.25
1052.5914	3235.238	1630.6	754.65
1052.6926	3236.151	1650.25	748.55
1052.7937	3237.0634	1620.45	743.75
1052.8948	3237.9752	1620.85	743
1052.9958	3238.8864	1622.25	743.7
1053.0968	3239.797	1609.05	732.25
1053.1977	3240.7069	1612.5	733.3
1053.2986	3241.6163	1608.75	731.6
1053.3994	3242.5251	1599.95	723.5
1053.5002	3243.4332	1595.7	718.4
1053.6009	3244.3408	1591.2	714.2
1053.7016	3245.2477	1589.2	711.55
1053.8022	3246.154	1583.2	706.8
1053.9028	3247.0598	1582.45	703.25
1054.0034	3247.9649	1571.4	693.05
1054.1039	3248.8694	1567.85	689.7
1054.2043	3249.7733	1558.9	682.7
1054.3047	3250.6766	1558.4	681.2
1054.4051	3251.5793	1550.2	671.65
1054.5054	3252.4814	1552.85	677.2
1054.6056	3253.3829	1544	668.45
1054.7058	3254.2838	1550	672.15
1054.806	3255.1841	1542.6	666.05
1054.9061	3256.0838	1535.75	657.8
1055.0061	3256.9829	1529.05	652.8
1055.1062	3257.8814	1528.5	647.25
1055.2061	3258.7792	1515.7	635.85
1055.306	3259.6765	1512.75	633
1055.4059	3260.5731	1507.4	630.7
1055.5057	3261.4692	1487.6	610.45
1055.6055	3262.3647	1489	612.3
1055.7052	3263.2595	1482.5	603.7
1055.8049	3264.1538	1465.4	587.8
1055.9045	3265.0474	1462.55	583.85
1056.0041	3265.9404	1451.35	572.65
1056.1036	3266.8329	1447.4	571.2
1056.2031	3267.7247	1448.35	559
1056.3025	3268.616	1426.2	549.6
1056.4019	3269.5066	1405.35	528.05
1056.5013	3270.3966	1402.15	522.6
1056.6005	3271.286	1370.95	494.9
