Software Version:	3.9.2.0
Unit SN:	10000200
Spectrometer SN:	6960
Date:	3/6/2024 10:56:20 AM
Data Line Index:	25
Spectral Points:	2048
Integration time (ms):	125
Averages:	20
Delay (ms):	30
Sequence Number:	1
Processing:	dark subtract
Laser Power (mW):	300
Laser Current (mA):	821
Laser Diode Temp (C):	25.1
Laser Case Temp (C):	27.9
System Temp (C):	27.8
Spectrometer Temp (C):	25.2
CCD Temp (C):	0.001
Secondary Temp (C):	20.004
Heatsink Temp (C):	23.603
CCDPCB Temp (C):	37.007
SecondaryPCB Temp (C):	34.684

Wavelength	RamanShift	Raw Counts	Dark Subtracted
787.061	30.1047	1106.3	694.35
787.2016	32.3739	1126.7	715.9
787.3422	34.6426	1185.95	773.75
787.4828	36.9109	1229.1	813.85
787.6235	39.1787	1280	862.8
787.7642	41.4461	1340.05	917.2
787.9049	43.7131	1404.3	977.75
788.0456	45.9796	1468.15	1036.4
788.1863	48.2456	1531.2	1097.15
788.3271	50.5112	1602.25	1162.95
788.4679	52.7764	1665.9	1226.75
788.6087	55.0411	1753.35	1309.25
788.7496	57.3054	1828.9	1378.6
788.8904	59.5692	1912.55	1460.45
789.0313	61.8326	2022.65	1566
789.1722	64.0955	2118.6	1659.7
789.3132	66.3579	2243.45	1779.55
789.4541	68.6199	2386.3	1918.2
789.5951	70.8815	2638.55	2168.3
789.7361	73.1426	3127.1	2650.65
789.8771	75.4032	4357.1	3876.4
790.0181	77.6634	7555.85	7069.3
790.1592	79.9231	15767.3	15277.5
790.3003	82.1824	51340.55	50841.1
790.4414	84.4412	65535	65017.45
790.5825	86.6995	65535	64995.35
790.7237	88.9574	65535	64974.7
790.8648	91.2148	65535	64959.15
791.006	93.4717	65535	64947.15
791.1472	95.7282	65535	64941.95
791.2885	97.9842	65535	64937.75
791.4297	100.2398	65535	64938.15
791.571	102.4949	65535	64931.5
791.7123	104.7495	65535	64928.55
791.8536	107.0036	65535	64927.8
791.9949	109.2573	65535	64927.65
792.1363	111.5105	65535	64927.4
792.2777	113.7632	65535	64924.05
792.4191	116.0154	65535	64914
792.5605	118.2672	65535	64921.95
792.7019	120.5185	65535	64919.8
792.8434	122.7693	65535	64919.05
792.9849	125.0197	65535	64911.7
793.1264	127.2696	65535	64911.2
793.2679	129.519	65535	64907.3
793.4094	131.7679	65535	64906.6
793.551	134.0163	65535	64902.45
793.6926	136.2642	65535	64898.4
793.8342	138.5117	65535	64886.1
793.9758	140.7587	65535	64893.3
794.1175	143.0052	65535	64889.95
794.2591	145.2512	65535	64890.9
794.4008	147.4967	65535	64886
794.5425	149.7417	65535	64881.25
794.6842	151.9863	65535	64882.95
794.826	154.2304	65535	64879.8
794.9677	156.4739	65535	64872.45
795.1095	158.717	65535	64874.7
795.2513	160.9596	65535	64874.8
795.3931	163.2017	65535	64870.2
795.535	165.4433	65535	64862.7
795.6768	167.6844	65535	64865.8
795.8187	169.925	65535	64859.5
795.9606	172.1651	65535	64860.6
796.1025	174.4047	65535	64854.6
796.2445	176.6439	65535	64853.4
796.3864	178.8825	65535	64854.15
796.5284	181.1206	65535	64847.1
796.6704	183.3582	65535	64841.85
796.8124	185.5954	65535	64840.05
796.9544	187.832	65535	64836.15
797.0965	190.0681	65535	64836.15
797.2386	192.3037	65535	64835.45
797.3806	194.5388	65535	64824.9
797.5228	196.7734	65535	64827
797.6649	199.0075	65535	64821.3
797.807	201.2411	65535	64824.4
797.9492	203.4742	65535	64817.8
798.0914	205.7068	65535	64819.15
798.2336	207.9389	65535	64818.45
798.3758	210.1704	65535	64818.1
798.518	212.4015	65535	64811.65
798.6603	214.632	65535	64819.4
798.8025	216.862	65535	64824.85
798.9448	219.0915	65535	64828.65
799.0871	221.3205	65535	64833.45
799.2294	223.549	65535	64835.3
799.3718	225.777	65535	64833.85
799.5141	228.0044	65535	64830.45
799.6565	230.2314	65535	64835.6
799.7989	232.4578	65535	64833.05
799.9413	234.6837	65535	64825.05
800.0837	236.909	65535	64822.15
800.2262	239.1339	65535	64798.85
800.3687	241.3582	65535	64813.2
800.5111	243.582	65535	64781.65
800.6536	245.8053	65535	64794.5
800.7961	248.0281	65535	64796.55
800.9387	250.2503	65535	64796
801.0812	252.472	65535	64789.6
801.2238	254.6932	65535	64788.2
801.3664	256.9139	65535	64789.15
801.509	259.134	65535	64781.75
801.6516	261.3536	65535	64785.7
801.7942	263.5727	65535	64783.75
801.9369	265.7912	65535	64785.3
802.0795	268.0092	65535	64786.1
802.2222	270.2267	65535	64785.1
802.3649	272.4436	65535	64779.8
802.5076	274.6601	65535	64774.85
802.6504	276.8759	65535	64779.85
802.7931	279.0913	65535	64776.75
802.9359	281.3061	65535	64773.25
803.0787	283.5204	65535	64771.95
803.2215	285.7341	65535	64768.9
803.3643	287.9473	65535	64756
803.5071	290.16	65535	64763
803.6499	292.3721	65535	64767.7
803.7928	294.5837	65535	64767.4
803.9357	296.7947	65535	64767.6
804.0786	299.0052	65535	64767.5
804.2215	301.2152	65535	64761
804.3644	303.4246	65535	64766
804.5074	305.6334	65535	64769.2
804.6503	307.8418	65535	64765.95
804.7933	310.0495	65535	64758.7
804.9363	312.2568	65535	64763.95
805.0793	314.4635	65535	64760.5
805.2223	316.6696	65535	64755.75
805.3653	318.8752	65535	64749.85
805.5084	321.0802	65535	64758.1
805.6514	323.2847	65535	64755.55
805.7945	325.4887	65535	64754.2
805.9376	327.692	65535	64753.55
806.0807	329.8949	65535	64750.25
806.2238	332.0972	65535	64748.45
806.367	334.2989	65535	64744.15
806.5101	336.5001	65535	64748.75
806.6533	338.7007	65535	64747.45
806.7965	340.9008	65535	64744.3
806.9397	343.1003	65535	64741.35
807.0829	345.2992	65535	64741.5
807.2261	347.4976	65535	64745
807.3693	349.6955	65535	64738.2
807.5126	351.8927	65535	64737.65
807.6559	354.0895	65535	64723.75
807.7991	356.2856	65535	64734.55
807.9424	358.4812	65535	64735.75
808.0857	360.6763	65535	64731
808.2291	362.8707	65535	64735.75
808.3724	365.0646	65535	64734
808.5158	367.258	65535	64728.1
808.6591	369.4508	65535	64726.5
808.8025	371.643	65535	64726.55
808.9459	373.8346	65535	64721.65
809.0893	376.0257	65535	64721.95
809.2327	378.2162	65535	64721.8
809.3762	380.4062	65535	64721.2
809.5196	382.5956	65535	64717
809.6631	384.7844	65535	64718.55
809.8066	386.9726	65535	64717.1
809.9501	389.1603	65535	64720.7
810.0936	391.3474	65535	64677.8
810.2371	393.5339	65535	64721.6
810.3806	395.7199	65535	64724.7
810.5241	397.9052	65535	64726.5
810.6677	400.09	65535	64728.05
810.8113	402.2743	65535	64728.05
810.9548	404.4579	65535	64726.95
811.0984	406.641	65535	64728.9
811.2421	408.8235	65535	64722.7
811.3857	411.0054	65535	64723.55
811.5293	413.1868	65535	64718.15
811.673	415.3675	65535	64718.3
811.8166	417.5477	65535	64719.1
811.9603	419.7273	65535	64717.65
812.104	421.9064	65535	64706.95
812.2477	424.0848	65535	64711.4
812.3914	426.2627	65535	64709.5
812.5351	428.4399	65535	64704.4
812.6788	430.6166	65535	64706.85
812.8226	432.7928	65535	64704.2
812.9663	434.9683	65535	64703.45
813.1101	437.1432	65535	64702.55
813.2539	439.3176	65535	64702.5
813.3977	441.4914	65535	64699.6
813.5415	443.6645	65535	64696.25
813.6853	445.8371	65535	64699.7
813.8291	448.0091	65535	64700.7
813.973	450.1806	65535	64701.15
814.1168	452.3514	65535	64698.4
814.2607	454.5216	65535	64689.25
814.4046	456.6913	65535	64697.35
814.5485	458.8603	65535	64696.3
814.6924	461.0288	65535	64699.7
814.8363	463.1967	65535	64697.1
814.9802	465.3639	65535	64698.35
815.1241	467.5306	65535	64694.45
815.2681	469.6967	65535	64694.75
815.412	471.8622	65535	64696.55
815.556	474.0271	65535	64696
815.7	476.1914	65535	64694.45
815.844	478.3551	65535	64696.1
815.988	480.5182	65535	64691.2
816.132	482.6807	65535	64695.85
816.276	484.8426	65535	64696.5
816.4201	487.0039	65535	64693.45
816.5641	489.1647	65535	64689.95
816.7082	491.3248	65535	64691.05
816.8522	493.4843	65535	64691.95
816.9963	495.6432	65535	64691.3
817.1404	497.8015	65535	64683.95
817.2845	499.9592	65535	64687.6
817.4286	502.1163	65535	64688.85
817.5727	504.2728	65535	64685.3
817.7168	506.4287	65535	64691.2
817.861	508.5839	65535	64687.35
818.0051	510.7386	65535	64687.35
818.1493	512.8927	65535	64682.3
818.2935	515.0461	65535	64685.35
818.4377	517.199	65535	64683.75
818.5818	519.3512	65535	64687.45
818.726	521.5029	65535	64679.1
818.8703	523.6539	65535	64682.35
819.0145	525.8043	65535	64683.35
819.1587	527.9541	65535	64680.2
819.303	530.1033	65535	64682.55
819.4472	532.2519	65535	64680.5
819.5915	534.3999	65535	64677.95
819.7357	536.5472	65535	64681.9
819.88	538.694	65535	64680.7
820.0243	540.8401	65535	64676.75
820.1686	542.9856	65535	64675.9
820.3129	545.1305	65535	64676
820.4572	547.2748	65535	64677.25
820.6016	549.4185	65535	64672.75
820.7459	551.5615	65535	64675.35
820.8902	553.704	65535	64674.45
821.0346	555.8458	65535	64676.6
821.1789	557.987	65535	64674.9
821.3233	560.1276	65535	64673.75
821.4677	562.2675	65535	64675.65
821.6121	564.4069	65535	64673.5
821.7565	566.5456	65535	64676.9
821.9009	568.6837	65535	64676.25
822.0453	570.8212	65535	64676.1
822.1897	572.958	65535	64671.65
822.3342	575.0942	65535	64677.05
822.4786	577.2299	65535	64674.45
822.6231	579.3648	65535	64677.5
822.7675	581.4992	65535	64676.45
822.912	583.6329	65535	64675.6
823.0565	585.766	65535	64674.9
823.201	587.8985	65535	64676.8
823.3454	590.0304	65535	64647.7
823.4899	592.1616	65535	64671.35
823.6345	594.2922	65535	64671.4
823.779	596.4222	65535	64669.2
823.9235	598.5515	65535	64667.25
824.068	600.6802	65535	64671.8
824.2126	602.8083	65535	64666.6
824.3571	604.9358	65535	64667.6
824.5017	607.0626	65535	64669.3
824.6462	609.1888	65535	64669.6
824.7908	611.3144	65535	64665.15
824.9354	613.4393	65535	64666.8
825.08	615.5636	65535	64667.6
825.2246	617.6873	65535	64666.55
825.3692	619.8103	65535	64666.3
825.5138	621.9327	65535	64661.4
825.6584	624.0544	65535	64668.25
825.803	626.1756	65535	64664.8
825.9477	628.2961	65535	64666.3
826.0923	630.4159	65535	64665.8
826.237	632.5351	65535	64667.5
826.3816	634.6537	65535	64662.8
826.5263	636.7716	65535	64664.35
826.6709	638.8889	65535	64660.7
826.8156	641.0056	65535	64661.75
826.9603	643.1216	65535	64657.65
827.105	645.237	65535	64659.75
827.2497	647.3518	65535	64663.05
827.3944	649.4659	65535	64663.25
827.5391	651.5793	65535	64662.35
827.6838	653.6922	65535	64660.85
827.8285	655.8043	65535	64658.85
827.9733	657.9159	65535	64660.35
828.118	660.0268	65535	64656.6
828.2627	662.137	65535	64662.55
828.4075	664.2466	65535	64658.8
828.5522	666.3556	65535	64660.35
828.697	668.4639	65535	64656.25
828.8418	670.5716	65535	64658.65
828.9865	672.6786	65535	64654.3
829.1313	674.785	65535	64656.15
829.2761	676.8907	65535	64657.6
829.4209	678.9958	65535	64657.35
829.5657	681.1002	65535	64657.6
829.7105	683.204	65535	64653.9
829.8553	685.3072	65535	64655.9
830.0001	687.4097	65535	64661
830.1449	689.5115	65535	64651.55
830.2898	691.6127	65535	64657.15
830.4346	693.7132	65535	64654.95
830.5794	695.8131	65535	64642.25
830.7243	697.9123	65535	64654.4
830.8691	700.0109	65535	64653.15
831.014	702.1089	65535	64653.9
831.1588	704.2061	65535	64652.95
831.3037	706.3028	65535	64650.7
831.4486	708.3987	65535	64655.75
831.5935	710.4941	65535	64654.85
831.7383	712.5887	65535	64654.95
831.8832	714.6827	65535	64647.75
832.0281	716.7761	65535	64653.25
832.173	718.8688	65535	64653.8
832.3179	720.9608	65535	64649.3
832.4628	723.0522	65535	64648.65
832.6077	725.1429	65535	64651.85
832.7527	727.233	65535	64654.9
832.8976	729.3224	65535	64652.15
833.0425	731.4112	65535	64651.1
833.1874	733.4993	65535	64645.65
833.3324	735.5867	65535	64645.8
833.4773	737.6735	65535	64650.2
833.6222	739.7596	65535	64647.3
833.7672	741.845	65535	64650.45
833.9122	743.9298	65535	64646.3
834.0571	746.014	65535	64648.5
834.2021	748.0974	65535	64650.2
834.347	750.1802	65535	64647.5
834.492	752.2624	65535	64647.55
834.637	754.3439	65535	64646.3
834.782	756.4247	65535	64638.6
834.9269	758.5048	65535	64648.65
835.0719	760.5843	65535	64646.3
835.2169	762.6631	65535	64647.3
835.3619	764.7413	65535	64649.9
835.5069	766.8188	65535	64645.65
835.6519	768.8956	65535	64646.2
835.7969	770.9718	65535	64649.85
835.9419	773.0473	65535	64649.9
836.0869	775.1221	65535	64646.4
836.232	777.1962	65535	64646.55
836.377	779.2697	65535	64646.35
836.522	781.3426	65535	64626.1
836.667	783.4147	65535	64643.9
836.8121	785.4862	65535	64648.6
836.9571	787.557	65535	64649.55
837.1021	789.6271	65535	64644.85
837.2472	791.6966	65535	64646.45
837.3922	793.7654	65535	64646.65
837.5373	795.8335	65535	64644.6
837.6823	797.901	65535	64646
837.8274	799.9678	65535	64644.3
837.9724	802.0339	65535	64647.3
838.1175	804.0993	65535	64635.2
838.2626	806.1641	65535	64642.55
838.4076	808.2282	65535	64645
838.5527	810.2916	65535	64643.8
838.6978	812.3544	65535	64648.3
838.8428	814.4164	65535	64644.9
838.9879	816.4778	65535	64643.25
839.133	818.5385	65535	64645.25
839.2781	820.5986	65535	64643.2
839.4232	822.658	65535	64643.35
839.5682	824.7166	65535	64643.9
839.7133	826.7747	65535	64646.3
839.8584	828.832	65535	64645.75
840.0035	830.8886	65535	64641.7
840.1486	832.9446	65535	64640.75
840.2937	834.9999	65535	64644.5
840.4388	837.0545	65535	64644.2
840.5839	839.1085	65535	64643.75
840.729	841.1618	65535	64641
840.8741	843.2143	65535	64641.4
841.0192	845.2662	65535	64647.7
841.1643	847.3175	65535	64644.9
841.3095	849.368	65535	64644.8
841.4546	851.4179	65535	64643.45
841.5997	853.467	65535	64642.2
841.7448	855.5155	65535	64643.4
841.8899	857.5633	65535	64642.4
842.0351	859.6105	65535	64643.2
842.1802	861.6569	65535	64643.35
842.3253	863.7027	65535	64641
842.4704	865.7478	65535	64642
842.6156	867.7922	65535	64643.7
842.7607	869.8359	65535	64642.35
842.9058	871.8789	65535	64641
843.0509	873.9212	65535	64608.9
843.1961	875.9629	65535	64642.55
843.3412	878.0039	65535	64639.7
843.4863	880.0441	65535	64642.95
843.6315	882.0837	65535	64640.75
843.7766	884.1226	65535	64638.35
843.9218	886.1609	65535	64643.4
844.0669	888.1984	65535	64641.45
844.212	890.2352	65535	64642.1
844.3572	892.2714	65535	64636.95
844.5023	894.3069	65535	64639.8
844.6475	896.3416	65535	64639.7
844.7926	898.3757	65535	64640.85
844.9377	900.4091	65535	64639.5
845.0829	902.4418	65535	64634.95
845.228	904.4739	65535	64635.05
845.3732	906.5052	65535	64639.85
845.5183	908.5358	65535	64641.2
845.6635	910.5658	65535	64637.9
845.8086	912.595	65535	64641.75
845.9538	914.6236	65535	64637.35
846.0989	916.6515	65535	64640.8
846.2441	918.6786	65535	64638.2
846.3892	920.7051	65535	64636.75
846.5344	922.7309	65535	64640.6
846.6795	924.756	65535	64638.8
846.8246	926.7804	65535	64636.05
846.9698	928.8041	65535	64633.25
847.1149	930.8272	65535	64638.9
847.2601	932.8495	65535	64638.5
847.4052	934.8711	65535	64637.65
847.5504	936.892	65535	64636.7
847.6955	938.9123	65535	64639.5
847.8407	940.9318	65535	64637.05
847.9858	942.9506	65535	64637.65
848.131	944.9688	65535	64638.7
848.2761	946.9862	65535	64639.95
848.4213	949.003	65535	64640.55
848.5664	951.019	65535	64639.5
848.7115	953.0344	65535	64637.35
848.8567	955.0491	65535	64638.3
849.0018	957.063	65535	64638.45
849.147	959.0763	65535	64638.45
849.2921	961.0888	65535	64634.1
849.4373	963.1007	65535	64637.15
849.5824	965.1119	65535	64638.1
849.7275	967.1223	65535	64640.5
849.8727	969.1321	65535	64640.3
850.0178	971.1412	65535	64638.8
850.1629	973.1495	65535	64638.6
850.3081	975.1572	65535	64605.4
850.4532	977.1641	65535	64639.4
850.5983	979.1704	65535	64637.5
850.7435	981.1759	65535	64632.05
850.8886	983.1808	65535	64637.2
851.0337	985.1849	65535	64626.05
851.1788	987.1884	65535	64635.95
851.324	989.1911	65535	64635.35
851.4691	991.1932	65535	64635
851.6142	993.1945	65535	64638.15
851.7593	995.1951	65535	64637.45
851.9045	997.1951	65535	64632.1
852.0496	999.1943	65535	64639.55
852.1947	1001.1928	65535	64636.3
852.3398	1003.1906	65535	64638.65
852.4849	1005.1877	65535	64633.65
852.63	1007.1841	65535	64635.25
852.7751	1009.1798	65535	64637.35
852.9202	1011.1748	65535	64636.25
853.0653	1013.1691	65535	64637.2
853.2104	1015.1627	65535	64641.45
853.3555	1017.1556	65535	64637.95
853.5006	1019.1477	65535	64638
853.6457	1021.1392	65535	64638.8
853.7908	1023.1299	65535	64638.65
853.9359	1025.12	65535	64636.5
854.081	1027.1093	65535	64638.75
854.2261	1029.0979	65535	64639.4
854.3712	1031.0859	65535	64639.75
854.5163	1033.0731	65535	64637.25
854.6613	1035.0596	65535	64639.15
854.8064	1037.0454	65535	64636
854.9515	1039.0304	65535	64637.3
855.0965	1041.0148	65535	64638.25
855.2416	1042.9985	65535	64634.5
855.3867	1044.9814	65535	64638.9
855.5317	1046.9636	65535	64635.2
855.6768	1048.9452	65535	64638.45
855.8219	1050.926	65535	64636.45
855.9669	1052.9061	65535	64640
856.112	1054.8855	65535	64636.2
856.257	1056.8642	65535	64636.2
856.4021	1058.8421	65535	64635.2
856.5471	1060.8194	65535	64636.15
856.6921	1062.7959	65535	64636.15
856.8372	1064.7717	65535	64635.6
856.9822	1066.7469	65535	64637.15
857.1272	1068.7213	65535	64633.05
857.2723	1070.695	65535	64638.9
857.4173	1072.6679	65535	64634.2
857.5623	1074.6402	65535	64637.9
857.7073	1076.6117	65535	64631.45
857.8523	1078.5826	65535	64636.15
857.9973	1080.5527	65535	64632.2
858.1423	1082.5221	65535	64635.55
858.2873	1084.4908	65535	64638.2
858.4323	1086.4587	65535	64636.3
858.5773	1088.426	65535	64635.25
858.7223	1090.3925	65535	64634
858.8673	1092.3584	65535	64636.2
859.0123	1094.3235	65535	64637.35
859.1573	1096.2879	65535	64636.3
859.3022	1098.2515	65535	64635.55
859.4472	1100.2145	65535	64636.55
859.5922	1102.1767	65535	64632.2
859.7371	1104.1382	65535	64633.65
859.8821	1106.099	65535	64633.6
860.027	1108.0591	65535	64635.1
860.172	1110.0185	65535	64636.15
860.3169	1111.9771	65535	64637.2
860.4619	1113.9351	65535	64637.55
860.6068	1115.8923	65535	64635.8
860.7517	1117.8488	65535	64634.15
860.8967	1119.8045	65535	64636.2
861.0416	1121.7596	65535	64635.85
861.1865	1123.7139	65535	64635
861.3314	1125.6675	65535	64637.6
861.4763	1127.6204	65535	64637.6
861.6212	1129.5726	65535	64635.6
861.7661	1131.524	65535	64636.5
861.911	1133.4748	65535	64633.65
862.0559	1135.4248	65535	64634.05
862.2008	1137.3741	65535	64637.35
862.3457	1139.3226	65535	64634.65
862.4905	1141.2705	65535	64636.85
862.6354	1143.2176	65535	64630.2
862.7803	1145.164	65535	64630.85
862.9251	1147.1097	65535	64635.35
863.07	1149.0546	65535	64633.85
863.2148	1150.9989	65535	64636.7
863.3597	1152.9424	65535	64634.75
863.5045	1154.8852	65535	64634.4
863.6493	1156.8272	65535	64637.45
863.7942	1158.7686	65535	64630.35
863.939	1160.7092	65535	64635.1
864.0838	1162.6491	65535	64635.25
864.2286	1164.5883	65535	64636.05
864.3734	1166.5267	65535	64636.4
864.5182	1168.4644	65535	64634.55
864.663	1170.4014	65535	64629.8
864.8078	1172.3377	65535	64638.3
864.9526	1174.2732	65535	64637.8
865.0974	1176.2081	65535	64636.5
865.2421	1178.1421	65535	64633.3
865.3869	1180.0755	65535	64637
865.5317	1182.0082	65535	64638.55
865.6764	1183.9401	65535	64634.6
865.8212	1185.8713	65535	64637
865.9659	1187.8017	65535	64637.15
866.1106	1189.7315	65535	64636.7
866.2554	1191.6605	65535	64609.15
866.4001	1193.5888	65535	64636.7
866.5448	1195.5163	65535	64637.4
866.6895	1197.4432	65535	64635.85
866.8342	1199.3693	65535	64635.85
866.9789	1201.2947	65535	64633.85
867.1236	1203.2193	65535	64636.3
867.2683	1205.1432	65535	64634.45
867.413	1207.0664	65535	64637.15
867.5576	1208.9889	65535	64632.9
867.7023	1210.9106	65535	64635.6
867.847	1212.8316	65535	64635.55
867.9916	1214.7519	65535	64626.4
868.1363	1216.6715	65535	64636.85
868.2809	1218.5903	65535	64636.2
868.4255	1220.5084	65535	64637
868.5701	1222.4257	65535	64635.65
868.7148	1224.3424	65535	64637.35
868.8594	1226.2583	65535	64631.65
869.004	1228.1735	65535	64632.4
869.1486	1230.0879	65535	64636.05
869.2932	1232.0016	65535	64638.05
869.4377	1233.9146	65535	64634.85
869.5823	1235.8269	65535	64635.9
869.7269	1237.7384	65535	64638.05
869.8715	1239.6492	65535	64637.9
870.016	1241.5592	65535	64637.25
870.1606	1243.4686	65535	64637.6
870.3051	1245.3772	65535	64634.65
870.4496	1247.285	65535	64633.9
870.5941	1249.1922	65535	64632.85
870.7387	1251.0986	65535	64635.7
870.8832	1253.0042	65535	64633.8
871.0277	1254.9092	65535	64636.05
871.1722	1256.8134	65535	64637.3
871.3167	1258.7169	65535	64633.7
871.4611	1260.6196	65535	64635.35
871.6056	1262.5216	65535	64636.3
871.7501	1264.4229	65535	64635.75
871.8945	1266.3234	65535	64637.65
872.039	1268.2232	65535	64635.5
872.1834	1270.1223	65535	64635.1
872.3278	1272.0207	65535	64635.75
872.4723	1273.9183	65535	64629.95
872.6167	1275.8151	65535	64638
872.7611	1277.7113	65535	64633.75
872.9055	1279.6067	65535	64635.25
873.0499	1281.5014	65535	64634.1
873.1943	1283.3953	65535	64634.75
873.3386	1285.2885	65535	64637.85
873.483	1287.181	65535	64635.7
873.6274	1289.0727	65535	64637.35
873.7717	1290.9637	65535	64637.85
873.9161	1292.854	65535	64634.8
874.0604	1294.7435	65535	64635.3
874.2047	1296.6323	65535	64634.85
874.349	1298.5204	65535	64633.55
874.4933	1300.4077	65535	64634.1
874.6376	1302.2943	65535	64637.55
874.7819	1304.1802	65535	64638.55
874.9262	1306.0653	65535	64634.85
875.0705	1307.9497	65535	64636.4
875.2147	1309.8333	65535	64633.7
875.359	1311.7162	65535	64637.1
875.5032	1313.5984	65535	64632.8
875.6475	1315.4798	65535	64633.65
875.7917	1317.3605	65535	64619.75
875.9359	1319.2405	65535	64633.95
876.0801	1321.1197	65535	64634.85
876.2243	1322.9982	65535	64633.35
876.3685	1324.876	65535	64636.05
876.5127	1326.753	65535	64636.5
876.6569	1328.6293	65535	64634.55
876.801	1330.5048	65535	64632.85
876.9452	1332.3796	65535	64636.95
877.0893	1334.2537	65535	64607.85
877.2335	1336.127	65535	64634.85
877.3776	1337.9996	65535	64635.4
877.5217	1339.8714	65535	64635.55
877.6658	1341.7426	65535	64591.5
877.8099	1343.6129	65535	64634.7
877.954	1345.4826	65535	64635.85
878.0981	1347.3515	65535	64631.85
878.2422	1349.2196	65535	64633.8
878.3862	1351.087	65535	64636.05
878.5303	1352.9537	65535	64634.75
878.6743	1354.8197	65535	64637.75
878.8184	1356.6849	65535	64637.25
878.9624	1358.5493	65535	64635.65
879.1064	1360.4131	65535	64636.8
879.2504	1362.276	65535	64636.5
879.3944	1364.1383	65535	64634.4
879.5384	1365.9998	65535	64629.3
879.6823	1367.8606	65535	64634.85
879.8263	1369.7206	65535	64635.75
879.9702	1371.5799	65535	64633.5
880.1142	1373.4384	65535	64635.15
880.2581	1375.2962	65535	64634
880.402	1377.1533	65535	64635.45
880.5459	1379.0096	65535	64635.15
880.6898	1380.8652	65535	64636.35
880.8337	1382.7201	65535	64634.5
880.9776	1384.5742	65535	64635.3
881.1215	1386.4275	65535	64634.8
881.2653	1388.2802	65535	64637
881.4092	1390.132	65535	64636.3
881.553	1391.9832	65535	64633.3
881.6968	1393.8336	65535	64634.75
881.8406	1395.6832	65535	64634.3
881.9844	1397.5322	65535	64636.45
882.1282	1399.3803	65535	64631.6
882.272	1401.2278	65535	64634.7
882.4158	1403.0745	65535	64636.75
882.5595	1404.9204	65535	64636.5
882.7033	1406.7656	65535	64635.9
882.847	1408.6101	65535	64635.25
882.9908	1410.4538	65535	64633.1
883.1345	1412.2968	65535	64636.95
883.2782	1414.139	65535	64636.05
883.4219	1415.9805	65535	64635.3
883.5656	1417.8213	65535	64632.85
883.7092	1419.6613	65535	64635.15
883.8529	1421.5006	65535	64636.05
883.9965	1423.3391	65535	64635
884.1402	1425.1769	65535	64632.4
884.2838	1427.0139	65535	64633.25
884.4274	1428.8502	65535	64633.6
884.571	1430.6858	65535	64635.85
884.7146	1432.5206	65535	64637.35
884.8582	1434.3547	65535	64633.65
885.0018	1436.188	65535	64637.25
885.1453	1438.0206	65535	64635.95
885.2889	1439.8524	65535	64636.5
885.4324	1441.6835	65535	64635.7
885.5759	1443.5139	65535	64630.75
885.7194	1445.3435	65535	64635.55
885.8629	1447.1724	65535	64636.9
886.0064	1449.0005	65535	64635.2
886.1499	1450.8279	65535	64636.3
886.2933	1452.6545	65535	64636.95
886.4368	1454.4804	65535	64639.7
886.5802	1456.3056	65535	64629.15
886.7237	1458.13	65535	64635.1
886.8671	1459.9536	65535	64637
887.0105	1461.7766	65535	64635.95
887.1539	1463.5987	65535	64634.3
887.2972	1465.4202	65535	64635.6
887.4406	1467.2409	65535	64634.9
887.584	1469.0608	65535	64634.15
887.7273	1470.88	65535	64635.55
887.8706	1472.6984	65535	64636.5
888.0139	1474.5161	65535	64632.55
888.1572	1476.3331	65535	64637.15
888.3005	1478.1493	65535	64634.65
888.4438	1479.9648	65535	64637.6
888.5871	1481.7795	65535	64635.05
888.7303	1483.5935	65535	64636.4
888.8736	1485.4067	65535	64634.8
889.0168	1487.2192	65535	64634.95
889.16	1489.031	65535	64635.2
889.3032	1490.842	65535	64635.85
889.4464	1492.6522	65535	64637.5
889.5896	1494.4618	65535	64634.25
889.7327	1496.2705	65535	64634.25
889.8759	1498.0785	65535	64636.2
890.019	1499.8858	65535	64637
890.1622	1501.6924	65535	64639.55
890.3053	1503.4981	65535	64635.45
890.4484	1505.3032	65535	64636.2
890.5914	1507.1075	65535	64636.5
890.7345	1508.911	65535	64635.2
890.8776	1510.7138	65535	64635.6
891.0206	1512.5159	65535	64635.45
891.1637	1514.3172	65534.55	64634.9
891.3067	1516.1178	65535	64637.3
891.4497	1517.9176	65535	64635.35
891.5927	1519.7166	65535	64636.9
891.7357	1521.515	65535	64628.15
891.8786	1523.3126	65524	64625
892.0216	1525.1094	65535	64633.35
892.1645	1526.9055	65528.7	64632.2
892.3074	1528.7008	65530.6	64632.95
892.4503	1530.4954	65510.7	64605.95
892.5932	1532.2893	65531.3	64635.35
892.7361	1534.0824	65507.15	64603.25
892.879	1535.8747	65461.4	64562.85
893.0218	1537.6663	65530.75	64630.5
893.1647	1539.4572	65359.15	64459.55
893.3075	1541.2473	65452.85	64554
893.4503	1543.0367	65435.45	64538.3
893.5931	1544.8253	65410.45	64506.2
893.7359	1546.6132	65442.05	64541.1
893.8787	1548.4003	65353.85	64446.65
894.0214	1550.1867	65336.8	64429.25
894.1642	1551.9723	65301.75	64399.45
894.3069	1553.7572	65313.25	64414.45
894.4496	1555.5414	65365.15	64468.05
894.5923	1557.3247	64925.95	64028.15
894.735	1559.1074	65322.35	64425.25
894.8777	1560.8893	65186.6	64290.05
895.0204	1562.6705	65236.7	64337.2
895.163	1564.4509	64975.15	64080.65
895.3056	1566.2305	65130.75	64235.55
895.4482	1568.0094	65260.85	64364.95
895.5908	1569.7876	65146.7	64250.75
895.7334	1571.565	64915.55	64016.15
895.876	1573.3417	65074.75	64177.55
896.0186	1575.1176	65009.5	64113.15
896.1611	1576.8928	64876.9	63978.8
896.3036	1578.6672	64526.85	63632.55
896.4461	1580.4409	64727.2	63831.95
896.5886	1582.2138	64202.55	63302.65
896.7311	1583.986	64342.9	63445.2
896.8736	1585.7575	63809.3	62911.9
897.0161	1587.5282	63960.7	63066.35
897.1585	1589.2981	63967.95	63072.05
897.3009	1591.0673	63417.65	62523.6
897.4433	1592.8358	62997.45	62102.8
897.5857	1594.6035	63406.7	62508.4
897.7281	1596.3704	63454.45	62558.9
897.8705	1598.1366	62619.4	61723.85
898.0128	1599.9021	62243.25	61348.9
898.1551	1601.6668	62885.5	61988.1
898.2975	1603.4308	62512.6	61615.35
898.4398	1605.194	62599.9	61699.3
898.5821	1606.9564	61563.6	60667.4
898.7243	1608.7182	62118.6	61219.2
898.8666	1610.4791	61650.05	60755.8
899.0088	1612.2394	62108	61215.65
899.1511	1613.9988	61548.2	60653.55
899.2933	1615.7576	62230.4	61336.1
899.4355	1617.5156	62180.65	61280.5
899.5776	1619.2728	62878.6	61983.05
899.7198	1621.0293	61802.9	60908.35
899.862	1622.785	61783.7	60886.75
900.0041	1624.54	62159.4	61259.65
900.1462	1626.2942	61537.75	60640.9
900.2883	1628.0477	60522.4	59621.65
900.4304	1629.8005	59874	58977.05
900.5725	1631.5525	60476.2	59579.4
900.7145	1633.3037	59321.6	58427.15
900.8566	1635.0542	59273.45	58378
900.9986	1636.804	59565.05	58669.9
901.1406	1638.553	58580.15	57578.25
901.2826	1640.3013	58797.2	57900
901.4245	1642.0488	58141.35	57244.9
901.5665	1643.7955	58516.2	57623.6
901.7085	1645.5416	57995.8	57100.7
901.8504	1647.2868	57669.95	56775.4
901.9923	1649.0313	58325.75	57430.9
902.1342	1650.7751	57929.8	57032.25
902.2761	1652.5181	57586.9	56692
902.4179	1654.2604	57671.1	56776.3
902.5598	1656.0019	58154.55	57260.7
902.7016	1657.7427	57929.7	57034.8
902.8434	1659.4828	58466.05	57572.25
902.9852	1661.222	58158.6	57263.25
903.127	1662.9606	58440.65	57546.9
903.2687	1664.6984	57807.15	56911.65
903.4105	1666.4354	57797.1	56902.5
903.5522	1668.1717	56780.55	55885.05
903.6939	1669.9072	56070.1	55173.75
903.8356	1671.642	55670.75	54774
903.9773	1673.3761	55391.45	54497.9
904.119	1675.1094	55008.8	54113.05
904.2606	1676.8419	54540.45	53646.25
904.4022	1678.5737	54297.4	53400.95
904.5439	1680.3048	54064.05	53169.35
904.6855	1682.0351	53723.8	52831.15
904.827	1683.7646	53327.85	52430.35
904.9686	1685.4934	53379.45	52484.9
905.1101	1687.2215	52653.5	51757.05
905.2517	1688.9488	52905.9	52011.35
905.3932	1690.6754	52016.3	51124.15
905.5347	1692.4012	52228.85	51336.85
905.6761	1694.1263	52042.4	51147.65
905.8176	1695.8506	51841.55	50945.3
905.9591	1697.5742	51680.25	50785.7
906.1005	1699.297	51437.6	50542.1
906.2419	1701.0191	51148.4	50255.65
906.3833	1702.7404	50865.05	49973.15
906.5246	1704.461	50605.2	49710.95
906.666	1706.1808	50451.5	49557.1
906.8073	1707.8999	50369.35	49474
906.9487	1709.6182	50144.05	49249.7
907.09	1711.3358	49977.4	49083.1
907.2313	1713.0527	49786.75	48894.5
907.3725	1714.7688	49571.5	48671.45
907.5138	1716.4841	49244.95	48350
907.655	1718.1987	49256.35	48359.65
907.7962	1719.9126	49051.4	48157.55
907.9374	1721.6257	48888.45	47993.8
908.0786	1723.338	48892.2	47998.1
908.2198	1725.0496	48376.35	47481.7
908.3609	1726.7605	48292.45	47397.15
908.502	1728.4706	48173.65	47276.55
908.6431	1730.18	47860.4	46964.85
908.7842	1731.8886	47724.15	46831.1
908.9253	1733.5964	47622.75	46709.7
909.0664	1735.3036	47544.4	46647.75
909.2074	1737.0099	47359.2	46466.25
909.3484	1738.7156	47188.5	46296.9
909.4894	1740.4204	46947.4	46050.2
909.6304	1742.1246	46848.8	45955.4
909.7714	1743.8279	46760.5	45866.05
909.9123	1745.5306	46686.15	45792.6
910.0532	1747.2325	46338.75	45446.25
910.1941	1748.9336	46221.9	45330.4
910.335	1750.634	46009.45	45115.15
910.4759	1752.3336	45945.9	45054.65
910.6168	1754.0325	45835.25	44942.95
910.7576	1755.7307	45667.25	44775.15
910.8984	1757.4281	45652.25	44758.4
911.0392	1759.1247	45559.35	44658.75
911.18	1760.8206	45371.4	44473.45
911.3208	1762.5158	45382.75	44486.75
911.4615	1764.2102	45055.35	44163.55
911.6022	1765.9039	44905.35	44012.7
911.7429	1767.5968	44826.1	43933.95
911.8836	1769.289	44633.3	43739.9
912.0243	1770.9804	44509.2	43614.1
912.1649	1772.6711	44477.45	43584.35
912.3056	1774.361	44315.7	43420.95
912.4462	1776.0502	44220.6	43326.75
912.5868	1777.7386	44093.25	43196.75
912.7274	1779.4263	43927.35	43032.6
912.8679	1781.1132	43896.5	43004.05
913.0084	1782.7994	43672.7	42780.05
913.149	1784.4849	43616.25	42726.55
913.2895	1786.1696	43373.95	42475.35
913.4299	1787.8535	43301.45	42408.55
913.5704	1789.5367	43108.2	42215.35
913.7108	1791.2192	43104.75	42212
913.8513	1792.9009	42861.65	41937.25
913.9917	1794.5818	42773	41877.7
914.132	1796.2621	42699.95	41807.65
914.2724	1797.9415	42501.8	41609.4
914.4128	1799.6202	42402.55	41511.05
914.5531	1801.2982	42289.4	41398
914.6934	1802.9755	42178.3	41285
914.8337	1804.6519	42033.7	41140.9
914.9739	1806.3277	41842.8	40949.25
915.1142	1808.0027	41674.7	40782.7
915.2544	1809.6769	41610.65	40717.9
915.3946	1811.3504	41477.45	40584.15
915.5348	1813.0231	41342.05	40448.65
915.675	1814.6951	41288.45	40396.35
915.8151	1816.3664	41303.5	40408.4
915.9553	1818.0369	41211.75	40318.25
916.0954	1819.7067	40978.45	40086.9
916.2355	1821.3757	40944.15	40049.35
916.3755	1823.044	40799.7	39905.55
916.5156	1824.7115	40699.15	39804.55
916.6556	1826.3783	40494.05	39603.55
916.7956	1828.0443	40366.8	39475.15
916.9356	1829.7096	40183.65	39292.1
917.0756	1831.3741	40198.3	39302.7
917.2155	1833.0379	40030.55	39138.7
917.3555	1834.701	39915.75	39021.05
917.4954	1836.3633	39830.65	38937.6
917.6353	1838.0248	39733.75	38840.85
917.7751	1839.6856	39662.3	38770.15
917.915	1841.3457	39559.95	38667.35
918.0548	1843.005	39400.35	38507.5
918.1946	1844.6636	39334.2	38442.45
918.3344	1846.3214	39261.65	38368.6
918.4742	1847.9785	39130.35	38239.35
918.6139	1849.6349	38953.25	38059.45
918.7537	1851.2904	38958.15	38056.75
918.8934	1852.9453	38805.75	37912.5
919.0331	1854.5994	38675.95	37778.7
919.1727	1856.2528	38658.8	37760.9
919.3124	1857.9054	38558	37664
919.452	1859.5572	38497.65	37606.35
919.5916	1861.2083	38341.7	37450.45
919.7312	1862.8587	38320.15	37426.3
919.8708	1864.5084	38237.2	37346.35
920.0103	1866.1572	38068.3	37174.6
920.1498	1867.8054	37875.45	36983.05
920.2893	1869.4528	37831.15	36939.85
920.4288	1871.0994	37641.7	36748.6
920.5683	1872.7453	37608.75	36715.4
920.7077	1874.3905	37533.75	36635.75
920.8471	1876.0349	37368.7	36474.5
920.9865	1877.6786	37349.4	36455.95
921.1259	1879.3215	37270.6	36376.5
921.2653	1880.9637	37149.75	36255.75
921.4046	1882.6051	37103.95	36212.75
921.5439	1884.2458	36955.1	36061.8
921.6832	1885.8858	36828.15	35935.25
921.8225	1887.525	36708.4	35814.3
921.9617	1889.1634	36482.45	35591.05
922.101	1890.8011	36383.05	35490.7
922.2402	1892.4381	36314.6	35421.9
922.3794	1894.0743	36229.2	35336.15
922.5185	1895.7098	36146.15	35254.95
922.6577	1897.3446	36039.7	35146.9
922.7968	1898.9786	35939.3	35042.6
922.9359	1900.6118	35863.9	34972.9
923.075	1902.2443	35685.2	34789.55
923.214	1903.8761	35575.55	34682.75
923.3531	1905.5071	35340.15	34444.8
923.4921	1907.1374	35232.2	34338.55
923.6311	1908.7669	35189.85	34296.8
923.77	1910.3957	35081.35	34189.2
923.909	1912.0237	34878.4	33983.5
924.0479	1913.651	34802.4	33907.2
924.1868	1915.2776	34684.1	33794.8
924.3257	1916.9034	34520.15	33628.55
924.4646	1918.5285	34348.2	33456.7
924.6034	1920.1528	34182.05	33287.9
924.7422	1921.7764	34151.45	33258.35
924.881	1923.3992	34004.05	33113
925.0198	1925.0213	33741.2	32848.7
925.1586	1926.6427	33659.9	32769.1
925.2973	1928.2633	33662.4	32659.2
925.436	1929.8832	33455.45	32562.3
925.5747	1931.5023	33304.4	32413.4
925.7134	1933.1207	33233.5	32341.25
925.852	1934.7383	33193.5	32301.7
925.9906	1936.3552	33011.8	32120.85
926.1292	1937.9714	32899	32007.2
926.2678	1939.5868	32746.55	31852.8
926.4064	1941.2015	32542.15	31649.1
926.5449	1942.8154	32436.95	31544.05
926.6834	1944.4286	32302.45	31409.35
926.8219	1946.041	32146.75	31234.35
926.9604	1947.6528	31971.15	31074.3
927.0988	1949.2637	31914.25	31020.85
927.2372	1950.8739	31753.8	30863.05
927.3756	1952.4834	31687.95	30794.65
927.514	1954.0921	31643.75	30749.95
927.6523	1955.7001	31528.5	30633.05
927.7907	1957.3074	31419.1	30528.4
927.929	1958.9139	31258.95	30367.65
928.0673	1960.5197	31195.85	30302.8
928.2055	1962.1247	31031.45	30140.6
928.3438	1963.729	30860.8	29968
928.482	1965.3325	30748.85	29832.95
928.6202	1966.9353	30619.15	29727.35
928.7584	1968.5374	30486.35	29594.45
928.8965	1970.1387	30434	29541.4
929.0346	1971.7393	30292.95	29400.7
929.1727	1973.3392	30196.75	29305.5
929.3108	1974.9383	30093.1	29202.45
929.4489	1976.5366	29937.45	29045.85
929.5869	1978.1342	29962.55	29071.65
929.7249	1979.7311	29804.75	28911.15
929.8629	1981.3273	29740.15	28846.85
930.0009	1982.9227	29587.85	28695.3
930.1388	1984.5173	29464.8	28573.95
930.2767	1986.1112	29294.95	28403.7
930.4146	1987.7044	29289.55	28400.15
930.5525	1989.2968	29138.55	28245.8
930.6904	1990.8885	29086.6	28192.6
930.8282	1992.4795	29014.5	28121.85
930.966	1994.0697	28911.1	28017.8
931.1038	1995.6592	28799	27907.4
931.2415	1997.2479	28677	27784.9
931.3793	1998.8359	28580.85	27689.4
931.517	2000.4232	28447.15	27555.9
931.6547	2002.0097	28357.6	27467.4
931.7923	2003.5955	28153.25	27260.65
931.93	2005.1805	28153.2	27259.25
932.0676	2006.7648	28093.7	27202.3
932.2052	2008.3484	28002.05	27107.65
932.3427	2009.9312	28007.45	27112.95
932.4803	2011.5133	27831.6	26942.1
932.6178	2013.0946	27745.45	26854.85
932.7553	2014.6752	27609.65	26719.45
932.8928	2016.2551	27547.85	26654.15
933.0302	2017.8342	27454.05	26563.25
933.1676	2019.4126	27314.95	26422.65
933.305	2020.9902	27219.25	26330.2
933.4424	2022.5672	27178.45	26285.8
933.5798	2024.1433	27099.25	26200.4
933.7171	2025.7188	26999.2	26107.6
933.8544	2027.2935	26904.5	26011.6
933.9917	2028.8674	26796.55	25905.95
934.129	2030.4406	26734.9	25844.85
934.2662	2032.0131	26580.05	25689.15
934.4034	2033.5849	26494.2	25597.9
934.5406	2035.1559	26407.75	25517.55
934.6778	2036.7261	26337.75	25448.5
934.8149	2038.2957	26329.25	25437.1
934.952	2039.8645	26220.25	25329.6
935.0891	2041.4325	26185.5	25291.65
935.2262	2042.9998	26061.15	25169.6
935.3632	2044.5664	25955.1	25061.1
935.5002	2046.1323	25878.6	24987.25
935.6372	2047.6974	25810.6	24919.55
935.7742	2049.2617	25713.55	24823.35
935.9111	2050.8254	25733.5	24822.2
936.048	2052.3883	25681.95	24789.55
936.1849	2053.9504	25536.5	24645.4
936.3218	2055.5118	25455.1	24564.05
936.4586	2057.0725	25302.8	24410.2
936.5955	2058.6325	25246.5	24353.5
936.7323	2060.1917	25153.1	24261.95
936.869	2061.7502	25096.65	24201
937.0058	2063.3079	25024	24132.15
937.1425	2064.8649	24949.85	24055.7
937.2792	2066.4212	24840.15	23946.8
937.4159	2067.9767	24790.3	23901.9
937.5525	2069.5315	24677.15	23786
937.6891	2071.0856	24587.6	23696.4
937.8257	2072.6389	24487.45	23595.25
937.9623	2074.1915	24316.35	23425.3
938.0989	2075.7433	24161	23267.1
938.2354	2077.2945	24125.05	23234.85
938.3719	2078.8448	24051.95	23159.85
938.5084	2080.3945	23958.75	23068.75
938.6448	2081.9434	23972.7	23081.2
938.7812	2083.4916	23853.65	22961.15
938.9176	2085.039	23738.05	22843.2
939.054	2086.5857	23712.5	22818.35
939.1903	2088.1317	23639.8	22747.4
939.3267	2089.677	23563.85	22672
939.463	2091.2215	23487.05	22596.95
939.5992	2092.7652	23368.85	22474.15
939.7355	2094.3083	23326.05	22432.7
939.8717	2095.8506	23291.15	22399.4
940.0079	2097.3921	23267.05	22374.9
940.1441	2098.933	23186.8	22295.1
940.2802	2100.4731	23130.35	22237.15
940.4163	2102.0124	23044.7	22148.1
940.5524	2103.5511	22990.35	22100.45
940.6885	2105.089	22919.65	22029.35
940.8245	2106.6261	22855.95	21963.7
940.9606	2108.1626	22770.3	21877.25
941.0965	2109.6983	22746.45	21825.1
941.2325	2111.2332	22639.5	21746.4
941.3684	2112.7675	22532.4	21638.5
941.5044	2114.301	22465.35	21573.35
941.6403	2115.8337	22461	21567
941.7761	2117.3657	22382.3	21490.85
941.912	2118.897	22342.05	21450.8
942.0478	2120.4276	22231.45	21332.8
942.1835	2121.9575	22126.65	21235.75
942.3193	2123.4866	22141.7	21235.1
942.455	2125.0149	22061.3	21166.85
942.5907	2126.5426	21904.95	21013.4
942.7264	2128.0695	21848.65	20953.3
942.8621	2129.5956	21808.8	20917.1
942.9977	2131.1211	21767.9	20871.4
943.1333	2132.6458	21679.1	20785.5
943.2689	2134.1698	21598.3	20706.45
943.4044	2135.693	21572.05	20677.3
943.54	2137.2155	21505.7	20611.65
943.6755	2138.7373	21494.45	20602
943.8109	2140.2584	21370.95	20477.85
943.9464	2141.7787	21296.65	20400.35
944.0818	2143.2983	21183.4	20292.65
944.2172	2144.8171	21092.35	20201.3
944.3526	2146.3353	21026.5	20133.8
944.4879	2147.8527	20955.3	20063.25
944.6232	2149.3693	20957.55	20065.75
944.7585	2150.8853	20824.7	19929.9
944.8938	2152.4005	20731.05	19838.95
945.029	2153.9149	20695.95	19804.65
945.1642	2155.4287	20611.9	19720
945.2994	2156.9417	20572.7	19680.05
945.4346	2158.454	20484.85	19589.2
945.5697	2159.9655	20473.2	19581.6
945.7048	2161.4764	20446.2	19554.2
945.8399	2162.9865	20342.9	19449.75
945.9749	2164.4958	20266.6	19373.95
946.1099	2166.0045	20196.15	19301.05
946.2449	2167.5124	20185.55	19294.9
946.3799	2169.0195	20108.8	19217.35
946.5148	2170.526	20071.05	19177.3
946.6498	2172.0317	19994.1	19101.1
946.7846	2173.5367	19917.6	19023.3
946.9195	2175.0409	19852.95	18961.15
947.0543	2176.5445	19880.75	18990.85
947.1891	2178.0473	19778.65	18887.65
947.3239	2179.5494	19658.95	18763.6
947.4587	2181.0507	19578.7	18684.7
947.5934	2182.5513	19550.45	18658.45
947.7281	2184.0512	19499.95	18608.25
947.8628	2185.5504	19424.4	18532.85
947.9974	2187.0488	19310.85	18419.15
948.132	2188.5465	19214.6	18323.65
948.2666	2190.0435	19173.3	18282.75
948.4012	2191.5397	19102.55	18211.5
948.5357	2193.0353	19047.25	18155.75
948.6702	2194.5301	18938.8	18044.85
948.8047	2196.0241	18864.05	17970.8
948.9392	2197.5175	18822.2	17930.75
949.0736	2199.0101	18759.5	17863.7
949.208	2200.502	18626.95	17735.35
949.3424	2201.9931	18556.7	17664.4
949.4767	2203.4835	18487.95	17596.4
949.611	2204.9733	18412.9	17515.9
949.7453	2206.4622	18408.85	17517.2
949.8796	2207.9505	18313.2	17418.8
950.0138	2209.438	18231	17341.05
950.148	2210.9248	18179.2	17286.2
950.2822	2212.4109	18125.8	17234.4
950.4164	2213.8962	18075.85	17181.5
950.5505	2215.3809	18013.9	17119.55
950.6846	2216.8648	17973.05	17079.4
950.8186	2218.3479	17926.3	17032.25
950.9527	2219.8304	17822.5	16925.75
951.0867	2221.3121	17754.15	16859.75
951.2207	2222.7931	17685.55	16793.1
951.3546	2224.2733	17633.95	16741.3
951.4886	2225.7529	17588.15	16695.45
951.6225	2227.2317	17512.5	16617.8
951.7563	2228.7098	17471.95	16580.75
951.8902	2230.1872	17375.05	16483.65
952.024	2231.6638	17340.1	16447.45
952.1578	2233.1397	17257.25	16359.9
952.2916	2234.6149	17196.9	16303.8
952.4253	2236.0894	17131.85	16236.8
952.559	2237.5632	17125.3	16224.65
952.6927	2239.0362	16984.15	16092.85
952.8263	2240.5085	16989.65	16099.9
952.9599	2241.9801	16905.35	16013.2
953.0935	2243.4509	16840.45	15949.15
953.2271	2244.921	16744.6	15853.1
953.3606	2246.3904	16716.85	15820.95
953.4941	2247.8591	16694.75	15801.95
953.6276	2249.3271	16639.5	15747.95
953.7611	2250.7943	16547.75	15656.3
953.8945	2252.2608	16477.7	15587.35
954.0279	2253.7266	16450.1	15557.7
954.1612	2255.1917	16415.4	15523.85
954.2946	2256.656	16336.45	15443.55
954.4279	2258.1197	16273.1	15380.2
954.5612	2259.5826	16220.95	15327.9
954.6944	2261.0447	16196.6	15302.75
954.8276	2262.5062	16118.35	15224.8
954.9608	2263.9669	16099.35	15203.4
955.094	2265.4269	16056.45	15163.8
955.2271	2266.8862	15970.95	15081.1
955.3602	2268.3448	15918.75	15024.5
955.4933	2269.8026	15892.8	15001.3
955.6264	2271.2598	15853.7	14962.65
955.7594	2272.7162	15807.45	14914.75
955.8924	2274.1719	15737.5	14845.65
956.0253	2275.6268	15648.8	14755.55
956.1583	2277.0811	15616.9	14724.25
956.2912	2278.5346	15594.2	14702.35
956.4241	2279.9874	15558.75	14667.7
956.5569	2281.4395	15525.8	14634.75
956.6897	2282.8908	15439.25	14542.85
956.8225	2284.3414	15435.6	14542.4
956.9553	2285.7914	15351.2	14459.1
957.088	2287.2406	15276.55	14384.9
957.2207	2288.689	15273.35	14382.35
957.3534	2290.1368	15210.5	14316.65
957.486	2291.5838	15142.55	14247.5
957.6186	2293.0302	15083.45	14188.95
957.7512	2294.4758	15040.05	14148.55
957.8838	2295.9206	14961.2	14067.4
958.0163	2297.3648	14923.65	14031.7
958.1488	2298.8082	14905.3	14011.95
958.2813	2300.251	14883.25	13991.9
958.4137	2301.693	14808.65	13913.4
958.5461	2303.1343	14792.7	13900.2
958.6785	2304.5748	14744.2	13850.05
958.8108	2306.0147	14648.3	13754.8
958.9432	2307.4538	14619	13726.2
959.0754	2308.8922	14564.4	13672.25
959.2077	2310.3299	14516.1	13624.65
959.3399	2311.7669	14456.2	13563
959.4721	2313.2031	14421.3	13529.5
959.6043	2314.6387	14388.3	13497.45
959.7365	2316.0735	14301.7	13411.55
959.8686	2317.5076	14282.75	13390
960.0006	2318.941	14240.25	13348.85
960.1327	2320.3737	14165.65	13272.75
960.2647	2321.8056	14145.45	13249.9
960.3967	2323.2369	14096.25	13201.15
960.5287	2324.6674	14080.75	13187.4
960.6606	2326.0972	14014.45	13121.45
960.7925	2327.5263	13926.45	13034.95
960.9244	2328.9547	13870.9	12978.15
961.0562	2330.3823	13833	12940.55
961.1881	2331.8092	13858.65	12964.05
961.3198	2333.2355	13755	12861.5
961.4516	2334.661	13757.2	12863.25
961.5833	2336.0858	13717.55	12824.6
961.715	2337.5098	13683	12790.4
961.8467	2338.9332	13640.3	12747.45
961.9783	2340.3558	13578.8	12682.3
962.1099	2341.7778	13534.8	12641.4
962.2415	2343.199	13491.75	12597.45
962.373	2344.6195	13429.8	12536.75
962.5045	2346.0393	13409.95	12518.95
962.636	2347.4583	13392.05	12498
962.7675	2348.8767	13313	12418.2
962.8989	2350.2943	13288.15	12394.95
963.0303	2351.7113	13252.95	12357.9
963.1617	2353.1275	13171.1	12278.75
963.293	2354.543	13152	12237.8
963.4243	2355.9578	13129.45	12237.1
963.5556	2357.3718	12992.9	12101.1
963.6868	2358.7852	12936.9	12040.65
963.818	2360.1978	12905.3	12013.25
963.9492	2361.6098	12855.55	11962.75
964.0803	2363.021	12851.9	11956.05
964.2114	2364.4315	12809.95	11918.05
964.3425	2365.8413	12781.6	11884.6
964.4736	2367.2504	12700.35	11809.15
964.6046	2368.6587	12625.9	11734.7
964.7356	2370.0664	12581.95	11689.9
964.8666	2371.4733	12554.6	11664.85
964.9975	2372.8795	12513.1	11620.95
965.1284	2374.285	12464.65	11573.1
965.2593	2375.6899	12379.1	11488.9
965.3901	2377.0939	12306.4	11412.9
965.5209	2378.4973	12275.8	11385.9
965.6517	2379.9	12250.9	11361.25
965.7825	2381.3019	12188.3	11297.9
965.9132	2382.7032	12156.85	11265.6
966.0439	2384.1037	12128.4	11236.4
966.1745	2385.5035	12080.9	11190.25
966.3051	2386.9027	12037.7	11146
966.4357	2388.3011	11996.55	11100.85
966.5663	2389.6987	11957.8	11066.8
966.6968	2391.0957	11910.7	11018.45
966.8273	2392.492	11858.45	10969.2
966.9578	2393.8876	11798.05	10907.85
967.0882	2395.2824	11769	10876.6
967.2186	2396.6765	11702.65	10811.4
967.349	2398.07	11636.35	10746.15
967.4793	2399.4627	11608.55	10716.85
967.6097	2400.8547	11571.65	10681.85
967.7399	2402.246	11517.35	10619.25
967.8702	2403.6366	11455.05	10562.45
968.0004	2405.0265	11430.4	10537.9
968.1306	2406.4156	11376.65	10481.5
968.2607	2407.8041	11334.9	10440.7
968.3909	2409.1918	11280.8	10387.25
968.521	2410.5789	11236.45	10344.95
968.651	2411.9652	11203.6	10307.85
968.781	2413.3508	11159.7	10268.85
968.911	2414.7358	11120.9	10229.2
969.041	2416.12	11079.25	10189.25
969.1709	2417.5035	11053.15	10162.1
969.3008	2418.8863	11030.8	10138.75
969.4307	2420.2684	10960.8	10068.95
969.5606	2421.6497	10909.2	10017.9
969.6904	2423.0304	10840.2	9950.3
969.8201	2424.4104	10838.2	9946.3
969.9499	2425.7896	10792.55	9894.15
970.0796	2427.1682	10774.4	9880.9
970.2093	2428.546	10754.9	9861.05
970.3389	2429.9232	10713.45	9821.9
970.4685	2431.2996	10675.15	9783.65
970.5981	2432.6753	10630.3	9739.8
970.7277	2434.0503	10585.85	9694
970.8572	2435.4246	10548.65	9659.15
970.9867	2436.7982	10495.65	9600.75
971.1161	2438.1711	10483.35	9592.9
971.2456	2439.5433	10451.75	9558.8
971.375	2440.9148	10382.8	9489.7
971.5043	2442.2856	10355.55	9465.35
971.6336	2443.6557	10338.5	9445.1
971.7629	2445.025	10297.6	9407.1
971.8922	2446.3937	10280.4	9388.85
972.0214	2447.7617	10236.75	9346.65
972.1506	2449.1289	10210.5	9317.75
972.2798	2450.4955	10185.95	9289.35
972.4089	2451.8613	10135.7	9244.85
972.538	2453.2265	10135.7	9244.1
972.6671	2454.5909	10096.25	9203.95
972.7961	2455.9546	10073.95	9182.7
972.9251	2457.3177	10000.3	9109.25
973.0541	2458.68	9989.9	9096.45
973.1831	2460.0416	9997.3	9105.65
973.312	2461.4025	9971.95	9079.25
973.4408	2462.7627	9941.3	9038.65
973.5697	2464.1222	9893.5	9001.9
973.6985	2465.4811	9851.65	8958.2
973.8273	2466.8392	9826.15	8932.65
973.956	2468.1966	9806.4	8909.35
974.0847	2469.5533	9791.6	8900.1
974.2134	2470.9093	9760.2	8867
974.3421	2472.2645	9726.6	8830.95
974.4707	2473.6191	9670.8	8780.85
974.5993	2474.973	9621.45	8728.5
974.7278	2476.3262	9611.6	8718.55
974.8563	2477.6787	9562.35	8671
974.9848	2479.0305	9512.6	8620.4
975.1132	2480.3816	9486.95	8592.35
975.2417	2481.7319	9450.95	8556.9
975.37	2483.0816	9403.55	8509.75
975.4984	2484.4306	9395.2	8501.25
975.6267	2485.7789	9342.25	8450.5
975.755	2487.1264	9300.3	8408.05
975.8833	2488.4733	9262.75	8371.15
976.0115	2489.8195	9235.1	8337.55
976.1397	2491.165	9205.25	8310.35
976.2678	2492.5097	9147.8	8254.05
976.3959	2493.8538	9107.25	8215.65
976.524	2495.1972	9087	8194.3
976.6521	2496.5398	9045.15	8152.5
976.7801	2497.8818	9018.7	8124.35
976.9081	2499.2231	8987.4	8093.5
977.036	2500.5637	8960.05	8066.35
977.164	2501.9035	8924.45	8031.65
977.2918	2503.2427	8919.7	8023.9
977.4197	2504.5812	8873.55	7982
977.5475	2505.919	8856.8	7963.6
977.6753	2507.256	8823.2	7932.05
977.8031	2508.5924	8791.35	7899.9
977.9308	2509.9281	8783.85	7885.55
978.0585	2511.2631	8706.65	7815.2
978.1861	2512.5974	8696.7	7805
978.3137	2513.9309	8671.05	7779.25
978.4413	2515.2638	8658.75	7732.45
978.5689	2516.596	8610.45	7717.1
978.6964	2517.9275	8544.65	7651.35
978.8239	2519.2583	8529.75	7636.8
978.9513	2520.5884	8506.75	7613.85
979.0788	2521.9178	8471.1	7577.85
979.2062	2523.2465	8444.35	7553.2
979.3335	2524.5745	8412.4	7521.2
979.4608	2525.9018	8378.95	7487.7
979.5881	2527.2284	8368.85	7478
979.7154	2528.5543	8349.15	7459.3
979.8426	2529.8796	8298.85	7404.85
979.9698	2531.2041	8271.1	7378.3
980.0969	2532.5279	8278	7386.3
980.224	2533.851	8256.6	7364.7
980.3511	2535.1735	8206.5	7313.9
980.4781	2536.4952	8203.35	7310.95
980.6052	2537.8163	8192.1	7300.05
980.7321	2539.1366	8154.85	7263.3
980.8591	2540.4562	8106.05	7212.3
980.986	2541.7752	8116.95	7223.3
981.1129	2543.0935	8103.1	7211.2
981.2397	2544.411	8080.4	7188
981.3665	2545.7279	8054.65	7163.25
981.4933	2547.0441	8042.9	7152.4
981.62	2548.3596	8008.55	7113.9
981.7467	2549.6744	7998.4	7106.9
981.8734	2550.9885	7961.9	7069.8
982.0001	2552.3019	7950.7	7058.75
982.1267	2553.6146	7913.6	7020.75
982.2532	2554.9266	7890.5	6998.1
982.3798	2556.2379	7881.45	6988.3
982.5063	2557.5485	7844.85	6954.15
982.6327	2558.8585	7829.8	6929.75
982.7592	2560.1677	7810.7	6914.8
982.8856	2561.4762	7790.2	6898.2
983.0119	2562.7841	7771.95	6876.8
983.1383	2564.0913	7777.4	6887.2
983.2646	2565.3977	7731	6839
983.3908	2566.7035	7712.5	6820.8
983.517	2568.0086	7713	6820.85
983.6432	2569.313	7679.85	6786.25
983.7694	2570.6167	7675.5	6780.8
983.8955	2571.9197	7644.6	6751.15
984.0216	2573.222	7628.15	6733.55
984.1476	2574.5236	7586.9	6693.9
984.2737	2575.8246	7559.2	6664.7
984.3996	2577.1248	7567.4	6674.05
984.5256	2578.4244	7568.05	6674.65
984.6515	2579.7232	7562.5	6671.85
984.7774	2581.0214	7558.3	6640.25
984.9032	2582.3189	7500.25	6607.9
985.029	2583.6157	7495.9	6600.2
985.1548	2584.9118	7488.95	6596.85
985.2806	2586.2072	7451.75	6560.5
985.4063	2587.5019	7439.2	6548.35
985.5319	2588.7959	7401.6	6511.2
985.6576	2590.0893	7419.85	6526.15
985.7832	2591.3819	7375.25	6486.5
985.9087	2592.6739	7356.65	6465.9
986.0343	2593.9652	7317.85	6424.85
986.1597	2595.2557	7309.45	6416.85
986.2852	2596.5456	7288.4	6394.55
986.4106	2597.8348	7265.7	6372.85
986.536	2599.1234	7233.35	6343.5
986.6614	2600.4112	7204.35	6314.2
986.7867	2601.6983	7181.6	6287.45
986.912	2602.9848	7156.5	6263.3
987.0372	2604.2705	7129.2	6228.85
987.1624	2605.5556	7103.55	6211.15
987.2876	2606.84	7095.3	6202.75
987.4128	2608.1237	7060.2	6167.4
987.5379	2609.4067	7028.55	6137.85
987.6629	2610.689	7011.75	6111.15
987.788	2611.9707	6989.25	6094.5
987.913	2613.2516	6955.8	6059.15
988.0379	2614.5319	6935.2	6040.85
988.1629	2615.8115	6886.9	5994.95
988.2878	2617.0903	6874	5981.15
988.4126	2618.3685	6870.5	5975.85
988.5375	2619.6461	6816.6	5924.1
988.6622	2620.9229	6811.6	5921.55
988.787	2622.199	6821.2	5929.6
988.9117	2623.4745	6784.85	5892.1
989.0364	2624.7493	6744.1	5852.5
989.161	2626.0234	6732.35	5840.25
989.2857	2627.2968	6726.15	5834.65
989.4102	2628.5695	6696.4	5803.15
989.5348	2629.8415	6648.35	5757.95
989.6593	2631.1128	6611.8	5716.85
989.7837	2632.3835	6609.1	5717.2
989.9082	2633.6535	6547.7	5655.35
990.0326	2634.9228	6551.65	5661
990.1569	2636.1914	6507.4	5616.15
990.2812	2637.4593	6507.65	5609
990.4055	2638.7265	6488.2	5596.05
990.5298	2639.9931	6479.4	5587.55
990.654	2641.259	6443.05	5548.3
990.7782	2642.5242	6419.6	5526.8
990.9023	2643.7887	6394.5	5501.8
991.0264	2645.0525	6398.25	5506.55
991.1505	2646.3156	6369.05	5475.65
991.2745	2647.5781	6331.75	5441.9
991.3985	2648.8398	6317.4	5425.45
991.5225	2650.1009	6296.45	5392.8
991.6464	2651.3613	6272.75	5380.55
991.7703	2652.6211	6284.2	5392.85
991.8942	2653.8801	6237.85	5346.4
992.018	2655.1385	6237.25	5343.25
992.1418	2656.3961	6211.55	5318.85
992.2655	2657.6531	6204.85	5312.2
992.3892	2658.9094	6164.75	5272.85
992.5129	2660.1651	6162.75	5271.95
992.6366	2661.42	6129.55	5235.95
992.7602	2662.6743	6125.45	5232.1
992.8837	2663.9279	6125.75	5234.05
993.0073	2665.1808	6118.15	5224.9
993.1307	2666.433	6097.5	5203.4
993.2542	2667.6846	6066.4	5174.55
993.3776	2668.9354	6065.3	5168.25
993.501	2670.1856	6039.6	5145.9
993.6244	2671.4351	6024.6	5133.05
993.7477	2672.6839	6016.85	5122.65
993.8709	2673.9321	5984.8	5092.1
993.9942	2675.1795	5981	5090.9
994.1174	2676.4263	5970.3	5077.7
994.2405	2677.6724	5948.5	5056.9
994.3637	2678.9179	5922.9	5030.65
994.4868	2680.1626	5919.55	5028.15
994.6098	2681.4067	5892.6	5000.1
994.7328	2682.6501	5883.5	4992.1
994.8558	2683.8928	5864.85	4972.9
994.9788	2685.1348	5821.4	4928.45
995.1017	2686.3761	5809.95	4917.8
995.2245	2687.6168	5796.55	4904.5
995.3474	2688.8568	5783.6	4891.5
995.4702	2690.0961	5752.25	4860.2
995.5929	2691.3348	5736.25	4843.85
995.7156	2692.5727	5715.8	4824
995.8383	2693.81	5705.1	4812.8
995.961	2695.0466	5680.9	4788.45
996.0836	2696.2826	5666.85	4773.45
996.2062	2697.5178	5649.45	4753.9
996.3287	2698.7524	5635.35	4744.6
996.4512	2699.9863	5633.7	4741
996.5737	2701.2195	5612.95	4723.05
996.6961	2702.452	5608.65	4714.05
996.8185	2703.6839	5588.05	4695.15
996.9408	2704.9151	5566.15	4675.3
997.0631	2706.1456	5553.8	4662.45
997.1854	2707.3755	5516.85	4624.95
997.3077	2708.6046	5505.65	4610.55
997.4299	2709.8331	5521.45	4629.3
997.552	2711.0609	5493	4601.95
997.6742	2712.2881	5489.45	4597.45
997.7963	2713.5145	5483.45	4587.25
997.9183	2714.7403	5469.65	4577.15
998.0403	2715.9654	5462.5	4569.15
998.1623	2717.1899	5454.35	4546.25
998.2842	2718.4136	5428.6	4538.2
998.4062	2719.6367	5434.7	4543.3
998.528	2720.8591	5428.1	4528.9
998.6498	2722.0809	5418.45	4526.4
998.7716	2723.3019	5419.25	4523.8
998.8934	2724.5223	5393.7	4500.45
999.0151	2725.7421	5369.35	4475.5
999.1368	2726.9611	5378.55	4484.25
999.2584	2728.1795	5370.05	4473.05
999.38	2729.3972	5345.25	4452.75
999.5016	2730.6142	5317.85	4419.85
999.6231	2731.8306	5270.2	4376.6
999.7446	2733.0462	5239.7	4347
999.8661	2734.2612	5205.5	4308.85
999.9875	2735.4756	5167.75	4272.8
1000.1089	2736.6892	5136.1	4244.6
1000.2302	2737.9022	5096.3	4204.1
1000.3515	2739.1145	5068.65	4175.95
1000.4728	2740.3262	5056.35	4156.95
1000.594	2741.5372	5036.85	4144.15
1000.7152	2742.7475	5008	4117.5
1000.8363	2743.9571	4980	4086.45
1000.9575	2745.1661	4946.55	4050.25
1001.0785	2746.3744	4930.25	4038
1001.1996	2747.582	4905.7	4014.15
1001.3206	2748.7889	4900.85	4008.9
1001.4415	2749.9952	4884.15	3992.5
1001.5625	2751.2008	4847.8	3955
1001.6833	2752.4057	4843.25	3949.5
1001.8042	2753.61	4839.2	3945.15
1001.925	2754.8136	4806.75	3912.45
1002.0458	2756.0165	4780.3	3889.6
1002.1665	2757.2188	4774.1	3882.4
1002.2872	2758.4204	4768.55	3878.65
1002.4078	2759.6213	4762.9	3868.85
1002.5285	2760.8215	4749.5	3855.3
1002.649	2762.0211	4727.65	3832.1
1002.7696	2763.22	4702.6	3806.05
1002.8901	2764.4182	4679.55	3787.35
1003.0106	2765.6158	4673.6	3780.6
1003.131	2766.8127	4648.8	3757.9
1003.2514	2768.009	4632.2	3740.55
1003.3717	2769.2045	4634.4	3743.15
1003.492	2770.3994	4607.6	3711.05
1003.6123	2771.5936	4594.4	3700.95
1003.7325	2772.7872	4576.2	3685.55
1003.8527	2773.9801	4556.75	3663.35
1003.9729	2775.1723	4564.15	3653.95
1004.093	2776.3639	4538.05	3647.25
1004.2131	2777.5548	4519.6	3624.45
1004.3331	2778.745	4503.3	3609.25
1004.4531	2779.9346	4503.65	3610.85
1004.5731	2781.1235	4505.55	3611.65
1004.693	2782.3117	4469.6	3580.2
1004.8129	2783.4992	4463.45	3570
1004.9328	2784.6861	4444.35	3552.8
1005.0526	2785.8723	4456.95	3564.5
1005.1723	2787.0579	4443.25	3550.35
1005.2921	2788.2428	4432.35	3541.8
1005.4118	2789.427	4428.25	3538.2
1005.5314	2790.6106	4416	3525.2
1005.651	2791.7935	4414.25	3523.65
1005.7706	2792.9757	4392.5	3501.3
1005.8902	2794.1573	4410.7	3518.8
1006.0097	2795.3382	4413.2	3520.35
1006.1291	2796.5184	4409.1	3518.7
1006.2485	2797.698	4416.4	3522.35
1006.3679	2798.8769	4407	3513.95
1006.4873	2800.0551	4429.4	3535.5
1006.6066	2801.2327	4412.2	3518.2
1006.7258	2802.4096	4432.95	3540.85
1006.8451	2803.5859	4435.1	3544.15
1006.9642	2804.7615	4451.1	3557.2
1007.0834	2805.9364	4460.3	3570.35
1007.2025	2807.1106	4468.45	3576.85
1007.3216	2808.2842	4493.95	3599.65
1007.4406	2809.4572	4502.4	3610.1
1007.5596	2810.6294	4544.9	3649.2
1007.6785	2811.801	4569.75	3680.25
1007.7975	2812.972	4594.3	3702.6
1007.9163	2814.1423	4625.2	3733.6
1008.0352	2815.3119	4658.85	3766.4
1008.154	2816.4808	4707.1	3816.15
1008.2727	2817.6491	4735.1	3843.05
1008.3914	2818.8167	4770.05	3878.3
1008.5101	2819.9837	4824.3	3929.1
1008.6288	2821.15	4842.1	3951.05
1008.7474	2822.3157	4886.55	3996.55
1008.8659	2823.4807	4924.45	4032.4
1008.9844	2824.645	4947.2	4054.3
1009.1029	2825.8086	4978.45	4086.65
1009.2214	2826.9716	5004.65	4114.35
1009.3398	2828.134	5051.3	4160.05
1009.4581	2829.2957	5078.8	4188.5
1009.5764	2830.4567	5083.1	4193.5
1009.6947	2831.617	5091.9	4200.8
1009.813	2832.7767	5117.25	4227.3
1009.9312	2833.9358	5086.05	4195.9
1010.0493	2835.0941	5085.95	4194.35
1010.1675	2836.2519	5054.15	4162.15
1010.2855	2837.4089	5036.35	4142.75
1010.4036	2838.5653	5036.4	4143.25
1010.5216	2839.7211	5019.7	4128.2
1010.6396	2840.8761	5013.9	4120.9
1010.7575	2842.0306	5034.15	4145.45
1010.8754	2843.1843	5071.15	4180.6
1010.9932	2844.3374	5108.65	4219.55
1011.111	2845.4899	5161.25	4268.3
1011.2288	2846.6417	5220.85	4328.1
1011.3465	2847.7928	5299.1	4409.8
1011.4642	2848.9433	5342	4450.55
1011.5818	2850.0931	5443.85	4552.65
1011.6995	2851.2422	5488.45	4595.8
1011.817	2852.3907	5573.55	4682.95
1011.9345	2853.5385	5635.9	4741.65
1012.052	2854.6857	5703.2	4784.8
1012.1695	2855.8323	5711.1	4820.65
1012.2869	2856.9781	5753.3	4861.85
1012.4042	2858.1233	5797.35	4904.5
1012.5216	2859.2679	5830.45	4941.2
1012.6389	2860.4118	5858.6	4967.8
1012.7561	2861.555	5902.1	5005.25
1012.8733	2862.6976	5921.5	5027.5
1012.9905	2863.8395	5940.05	5047.5
1013.1076	2864.9808	5955.45	5064.3
1013.2247	2866.1214	5962.5	5071.6
1013.3417	2867.2614	5963.8	5073.55
1013.4587	2868.4007	5971.1	5078.3
1013.5757	2869.5393	5949.4	5057.2
1013.6926	2870.6773	5961.55	5067.15
1013.8095	2871.8146	5965.15	5068.3
1013.9263	2872.9513	5967.45	5074.7
1014.0431	2874.0874	5956.1	5065.3
1014.1599	2875.2227	5939.75	5047.3
1014.2766	2876.3574	5911.9	5022.65
1014.3933	2877.4915	5844.75	4952.9
1014.51	2878.6249	5821.35	4931.1
1014.6266	2879.7577	5787.65	4894.1
1014.7431	2880.8898	5784.05	4880.35
1014.8596	2882.0212	5727.15	4838.2
1014.9761	2883.152	5725.3	4830.4
1015.0925	2884.2821	5698.1	4807.3
1015.2089	2885.4116	5671.55	4780.45
1015.3253	2886.5405	5659.25	4767.4
1015.4416	2887.6686	5668.6	4772.6
1015.5579	2888.7962	5663.8	4774.05
1015.6741	2889.923	5644.4	4753.75
1015.7903	2891.0493	5666.5	4773.9
1015.9065	2892.1748	5645.4	4752.15
1016.0226	2893.2997	5642.95	4751.6
1016.1387	2894.424	5658.9	4767.55
1016.2547	2895.5476	5676.55	4784.7
1016.3707	2896.6706	5696.15	4805.05
1016.4866	2897.7929	5708.3	4814.9
1016.6025	2898.9145	5716.75	4825.95
1016.7184	2900.0355	5752.45	4860.85
1016.8342	2901.1559	5777.6	4886.6
1016.95	2902.2756	5797.25	4901.5
1017.0658	2903.3946	5822.65	4931.15
1017.1815	2904.513	5834.2	4941.2
1017.2971	2905.6308	5850	4958.95
1017.4127	2906.7479	5864.55	4973.75
1017.5283	2907.8643	5883.5	4992.45
1017.6439	2908.9801	5889.65	4998.15
1017.7594	2910.0953	5871.75	4979.5
1017.8748	2911.2098	5858.9	4963.85
1017.9902	2912.3236	5844.7	4944.95
1018.1056	2913.4368	5825.7	4930.6
1018.2209	2914.5494	5826.35	4933.1
1018.3362	2915.6613	5771.05	4873.5
1018.4515	2916.7725	5726	4833.85
1018.5667	2917.8831	5712.15	4820.35
1018.6819	2918.9931	5663.7	4770.15
1018.797	2920.1024	5633.35	4740.95
1018.9121	2921.211	5604.25	4712.9
1019.0271	2922.319	5579	4687.65
1019.1421	2923.4264	5561.2	4672.2
1019.2571	2924.5331	5514.95	4623.75
1019.372	2925.6391	5506.55	4615.65
1019.4869	2926.7445	5485.6	4597.1
1019.6017	2927.8493	5458.1	4567.85
1019.7165	2928.9534	5468.9	4576.2
1019.8313	2930.0569	5456.75	4560.95
1019.946	2931.1597	5421.1	4527.7
1020.0606	2932.2619	5395.45	4503.9
1020.1753	2933.3634	5409.65	4518.85
1020.2899	2934.4643	5402.15	4505.6
1020.4044	2935.5645	5372.75	4474.65
1020.5189	2936.6641	5326.6	4433
1020.6334	2937.763	5257.5	4368.5
1020.7478	2938.8613	5206	4314.75
1020.8622	2939.959	5134.3	4236.7
1020.9765	2941.056	5044	4154.05
1021.0908	2942.1523	4973.45	4081.75
1021.2051	2943.248	4880.9	3988.15
1021.3193	2944.3431	4776.55	3887.3
1021.4334	2945.4375	4632.25	3740.4
1021.5476	2946.5313	4537.7	3648.05
1021.6617	2947.6244	4434.85	3542.3
1021.7757	2948.7169	4331.3	3439.35
1021.8897	2949.8087	4230.35	3339.6
1022.0037	2950.8999	4133	3239.7
1022.1176	2951.9904	4031.3	3141.15
1022.2315	2953.0803	3949.1	3054.95
1022.3453	2954.1696	3887.7	2994.25
1022.4591	2955.2582	3833.85	2942.5
1022.5728	2956.3462	3760.45	2870.65
1022.6865	2957.4335	3739.15	2846.8
1022.8002	2958.5202	3679.85	2787.95
1022.9138	2959.6062	3639.7	2747.5
1023.0274	2960.6916	3592.9	2702.55
1023.141	2961.7764	3576.1	2684.7
1023.2545	2962.8605	3552.45	2660.2
1023.3679	2963.9439	3539.85	2648.25
1023.4813	2965.0267	3519.8	2628.05
1023.5947	2966.1089	3519.85	2607.25
1023.708	2967.1905	3491.15	2601.4
1023.8213	2968.2714	3484.35	2594.85
1023.9346	2969.3516	3459.35	2570.35
1024.0478	2970.4312	3466.3	2568
1024.1609	2971.5102	3453.45	2561.45
1024.274	2972.5885	3446.3	2553.85
1024.3871	2973.6662	3440.95	2544.1
1024.5002	2974.7432	3430.75	2539.5
1024.6132	2975.8196	3428.2	2537.35
1024.7261	2976.8954	3402.65	2511.65
1024.839	2977.9705	3387.25	2498.2
1024.9519	2979.045	3366.05	2475
1025.0647	2980.1188	3346.25	2455.85
1025.1775	2981.192	3311.8	2420.7
1025.2902	2982.2645	3283.9	2392.8
1025.4029	2983.3364	3258.05	2366.65
1025.5156	2984.4077	3220.95	2329.45
1025.6282	2985.4783	3193.05	2296.65
1025.7407	2986.5483	3156.3	2263.05
1025.8532	2987.6177	3103.5	2214.6
1025.9657	2988.6864	3060.85	2170.9
1026.0782	2989.7545	3029.25	2134.75
1026.1906	2990.8219	2989.95	2099.45
1026.3029	2991.8887	2963.45	2067.4
1026.4152	2992.9548	2930.75	2039.7
1026.5275	2994.0204	2886.55	1997.95
1026.6397	2995.0852	2849.75	1961.2
1026.7519	2996.1495	2830.8	1938.8
1026.864	2997.2131	2789.1	1896.25
1026.9761	2998.276	2767.45	1877.75
1027.0882	2999.3383	2742.4	1850.05
1027.2002	3000.4	2718.05	1826.35
1027.3122	3001.4611	2689.65	1798.75
1027.4241	3002.5215	2678.45	1787.55
1027.536	3003.5812	2672.9	1781.1
1027.6478	3004.6404	2656.15	1767.05
1027.7596	3005.6989	2632.1	1739.55
1027.8714	3006.7567	2622.6	1733.15
1027.9831	3007.8139	2621.75	1708.7
1028.0947	3008.8705	2591.65	1700.75
1028.2064	3009.9264	2596.65	1702
1028.3179	3010.9818	2585	1694.65
1028.4295	3012.0364	2570.75	1677.7
1028.541	3013.0905	2555.05	1665.15
1028.6524	3014.1439	2554	1661.3
1028.7638	3015.1966	2545.7	1655.3
1028.8752	3016.2487	2537.25	1645.35
1028.9865	3017.3002	2525.5	1629.65
1029.0978	3018.3511	2524.1	1634.45
1029.209	3019.4013	2521.05	1630.8
1029.3202	3020.4509	2517.15	1626.55
1029.4314	3021.4998	2511.9	1620.4
1029.5425	3022.5481	2508.1	1617.2
1029.6535	3023.5958	2509.05	1617.55
1029.7645	3024.6428	2509.05	1617.85
1029.8755	3025.6892	2504.2	1613.35
1029.9864	3026.735	2496.8	1605.7
1030.0973	3027.7802	2500.4	1609.95
1030.2082	3028.8247	2484.5	1593.55
1030.319	3029.8685	2481.9	1591.15
1030.4297	3030.9118	2480.65	1589.7
1030.5404	3031.9544	2477.2	1586.65
1030.6511	3032.9963	2487.35	1595.15
1030.7617	3034.0376	2478.5	1587.95
1030.8723	3035.0783	2481.45	1588.7
1030.9829	3036.1184	2479.4	1588.15
1031.0934	3037.1578	2479.35	1589.75
1031.2038	3038.1966	2474.7	1582.7
1031.3142	3039.2348	2475.35	1586
1031.4246	3040.2723	2478.65	1580.35
1031.5349	3041.3092	2465.65	1574.75
1031.6452	3042.3455	2460	1569.65
1031.7554	3043.3811	2448.65	1556.9
1031.8656	3044.4161	2436.75	1545.9
1031.9758	3045.4505	2425	1535.5
1032.0859	3046.4842	2416	1523.45
1032.1959	3047.5173	2411.6	1520.1
1032.3059	3048.5498	2397.35	1504.55
1032.4159	3049.5816	2382.7	1491.1
1032.5258	3050.6128	2369.5	1477.35
1032.6357	3051.6434	2362.8	1470.1
1032.7455	3052.6734	2354.75	1461
1032.8553	3053.7027	2340.35	1448.2
1032.9651	3054.7314	2336.4	1445.35
1033.0748	3055.7594	2322.65	1431.65
1033.1845	3056.7868	2306.7	1413.95
1033.2941	3057.8136	2314.45	1422.05
1033.4037	3058.8398	2295.9	1406.6
1033.5132	3059.8653	2282.4	1392.45
1033.6227	3060.8902	2272	1383.4
1033.7321	3061.9145	2267.75	1376.1
1033.8415	3062.9381	2250.5	1358.6
1033.9509	3063.9612	2264.25	1357.25
1034.0602	3064.9835	2232.05	1341.7
1034.1694	3066.0053	2219.6	1327.3
1034.2787	3067.0264	2206.5	1316.25
1034.3878	3068.0469	2201.7	1312.15
1034.497	3069.0668	2195.65	1303.95
1034.6061	3070.086	2187.15	1297.15
1034.7151	3071.1046	2167.25	1275.25
1034.8241	3072.1226	2156.5	1263.15
1034.9331	3073.1399	2139.45	1246.95
1035.042	3074.1567	2127.85	1236.3
1035.1508	3075.1727	2115.2	1221.6
1035.2597	3076.1882	2099.85	1208.45
1035.3684	3077.203	2081.5	1191.75
1035.4772	3078.2173	2084.2	1192.15
1035.5859	3079.2308	2063.5	1170.05
1035.6945	3080.2438	2055.8	1161.25
1035.8031	3081.2561	2041.25	1150.25
1035.9117	3082.2678	2027.3	1135.2
1036.0202	3083.2789	2025.4	1134.45
1036.1286	3084.2893	2016.35	1127.15
1036.2371	3085.2991	1993.95	1103.2
1036.3454	3086.3083	2004	1106.7
1036.4538	3087.3169	1985.85	1094.85
1036.562	3088.3248	1974.05	1082.5
1036.6703	3089.3321	1970.6	1078.9
1036.7785	3090.3388	1959.5	1069.85
1036.8866	3091.3449	1951.3	1062.45
1036.9948	3092.3503	1947.5	1053.35
1037.1028	3093.3551	1943.2	1054.35
1037.2108	3094.3593	1934.45	1045.5
1037.3188	3095.3629	1916	1024.55
1037.4267	3096.3658	1921.95	1029.15
1037.5346	3097.3681	1910.3	1019.9
1037.6425	3098.3698	1899.8	1006.75
1037.7503	3099.3708	1906.8	1011.5
1037.858	3100.3713	1887.2	997.8
1037.9657	3101.3711	1886.7	995.7
1038.0734	3102.3702	1984.75	980.3
1038.181	3103.3688	1877	983.8
1038.2886	3104.3667	1864.2	975.1
1038.3961	3105.364	1853.15	964.85
1038.5036	3106.3607	1853.8	960
1038.611	3107.3568	1837.2	943.75
1038.7184	3108.3522	1828.45	939.2
1038.8257	3109.347	1835.95	945.65
1038.933	3110.3412	1831.5	936.45
1039.0403	3111.3348	1827.9	937.7
1039.1475	3112.3277	1815.7	924.85
1039.2547	3113.32	1809.35	920.95
1039.3618	3114.3117	1806.05	913.5
1039.4689	3115.3028	1805.5	916.15
1039.5759	3116.2932	1799	907.6
1039.6829	3117.2831	1783.8	887.15
1039.7898	3118.2723	1771.4	880.7
1039.8967	3119.2608	1777.35	887.3
1040.0035	3120.2488	1774.4	885.7
1040.1103	3121.2361	1770.05	880.15
1040.2171	3122.2229	1767.25	875.85
1040.3238	3123.209	1766.25	874.65
1040.4305	3124.1944	1762.85	871.85
1040.5371	3125.1793	1749.5	856
1040.6437	3126.1635	1732.2	843.2
1040.7502	3127.1471	1733.75	841.95
1040.8567	3128.1301	1732.55	842.45
1040.9631	3129.1125	1729.7	838.35
1041.0695	3130.0942	1719.25	826.45
1041.1759	3131.0753	1726.05	828.1
1041.2822	3132.0558	1727.05	834.3
1041.3884	3133.0357	1714	823.5
1041.4946	3134.015	1704.15	812.95
1041.6008	3134.9936	1709.35	817.25
1041.7069	3135.9716	1723.05	811.5
1041.813	3136.949	1705.65	814.65
1041.919	3137.9258	1695.85	799.15
1042.025	3138.902	1697.8	800.7
1042.1309	3139.8775	1691	798.4
1042.2368	3140.8524	1676	786.2
1042.3427	3141.8267	1686	792.85
1042.4485	3142.8004	1674.9	784.6
1042.5542	3143.7735	1687.4	790.15
1042.6599	3144.7459	1683.75	789.4
1042.7656	3145.7178	1668.55	777.85
1042.8712	3146.689	1662.45	770.6
1042.9768	3147.6596	1659.95	768
1043.0823	3148.6295	1658.1	767.05
1043.1878	3149.5989	1647.7	758.2
1043.2932	3150.5676	1637.9	750.4
1043.3986	3151.5357	1632.8	743.9
1043.5039	3152.5032	1627.05	739.85
1043.6092	3153.4701	1622.6	731.4
1043.7145	3154.4364	1620.3	726.7
1043.8197	3155.402	1615.35	726.85
1043.9248	3156.367	1615.6	725.1
1044.03	3157.3315	1652.2	719.35
1044.135	3158.2952	1615.85	725.35
1044.24	3159.2584	1605.25	714.7
1044.345	3160.221	1602.5	710.6
1044.4499	3161.1829	1596.9	706.7
1044.5548	3162.1442	1579.05	690.05
1044.6596	3163.105	1583.75	693.4
1044.7644	3164.065	1584.95	693.35
1044.8692	3165.0245	1582.5	691.85
1044.9739	3165.9834	1576.95	690.25
1045.0785	3166.9416	1569	679.5
1045.1831	3167.8993	1573.05	683.1
1045.2877	3168.8563	1559.55	669.6
1045.3922	3169.8127	1557	665.7
1045.4966	3170.7684	1554.4	664.7
1045.6011	3171.7236	1548.65	656.55
1045.7054	3172.6782	1541	650.45
1045.8098	3173.6321	1551.5	659.25
1045.914	3174.5854	1551.15	657.2
1046.0183	3175.5381	1539.85	650.4
1046.1224	3176.4902	1529.8	640.3
1046.2266	3177.4417	1526.7	636.4
1046.3307	3178.3926	1524.95	635.8
1046.4347	3179.3428	1521.1	630.9
1046.5387	3180.2924	1514.3	624.9
1046.6427	3181.2415	1510.75	621.75
1046.7466	3182.1899	1512.25	619.15
1046.8504	3183.1377	1504.85	615.2
1046.9542	3184.0848	1500.3	607.5
1047.058	3185.0314	1495	604.4
1047.1617	3185.9773	1499.05	608.05
1047.2654	3186.9227	1493.6	601.6
1047.369	3187.8674	1490.5	600.65
1047.4726	3188.8115	1483.95	589
1047.5761	3189.755	1484	595.5
1047.6796	3190.6979	1481.65	594.75
1047.783	3191.6402	1477.15	587.85
1047.8864	3192.5818	1479.05	591.1
1047.9898	3193.5229	1495.85	580.85
1048.0931	3194.4633	1472.9	582.75
1048.1963	3195.4031	1474.85	584.2
1048.2995	3196.3423	1460.2	572.1
1048.4027	3197.2809	1458.2	570.1
1048.5058	3198.2189	1460.65	569.65
1048.6089	3199.1563	1461.8	564.6
1048.7119	3200.0931	1454.15	562.3
1048.8148	3201.0292	1445.5	555.55
1048.9178	3201.9648	1453	562.3
1049.0206	3202.8997	1445.95	552.8
1049.1235	3203.834	1443	552
1049.2262	3204.7677	1433.3	544.05
1049.329	3205.7008	1432.75	542.05
1049.4317	3206.6333	1427.1	537.65
1049.5343	3207.5652	1432.25	540.5
1049.6369	3208.4964	1426	536.4
1049.7394	3209.4271	1428.3	539.05
1049.8419	3210.3571	1419.45	528.45
1049.9444	3211.2865	1418.3	527.15
1050.0468	3212.2154	1423.95	533.2
1050.1491	3213.1436	1422	530.1
1050.2514	3214.0712	1415.55	518.8
1050.3537	3214.9982	1414.25	524.15
1050.4559	3215.9246	1400.9	510.15
1050.5581	3216.8503	1402.25	514.45
1050.6602	3217.7755	1401.4	511.15
1050.7623	3218.7001	1403.7	514.6
1050.8643	3219.624	1395.25	501.65
1050.9663	3220.5473	1389.75	499.2
1051.0682	3221.4701	1386.3	493.95
1051.1701	3222.3922	1391.1	499.15
1051.2719	3223.3137	1384.65	494
1051.3737	3224.2346	1377.85	486.9
1051.4754	3225.1549	1373.5	484.8
1051.5771	3226.0746	1377.1	488.75
1051.6788	3226.9937	1373	483.95
1051.7804	3227.9121	1375.2	485.05
1051.8819	3228.83	1372.7	482.2
1051.9834	3229.7473	1372	480.65
1052.0849	3230.6639	1369.7	477.65
1052.1863	3231.5799	1364.4	474.5
1052.2876	3232.4954	1356.25	464.95
1052.3889	3233.4102	1357.6	467.4
1052.4902	3234.3244	1351.6	461.65
1052.5914	3235.238	1351.15	460.75
1052.6926	3236.151	1377.4	465.8
1052.7937	3237.0634	1343.5	453.8
1052.8948	3237.9752	1342.3	452.85
1052.9958	3238.8864	1338.4	447.85
1053.0968	3239.797	1337.65	450.45
1053.1977	3240.7069	1335.55	443.6
1053.2986	3241.6163	1334.15	442.55
1053.3994	3242.5251	1326.4	438.45
1053.5002	3243.4332	1322.85	432.3
1053.6009	3244.3408	1326.5	434.2
1053.7016	3245.2477	1317.8	429.65
1053.8022	3246.154	1315.4	427.05
1053.9028	3247.0598	1313.05	423.55
1054.0034	3247.9649	1316.35	427.3
1054.1039	3248.8694	1315.2	425.7
1054.2043	3249.7733	1307.25	417.4
1054.3047	3250.6766	1309.8	420.65
1054.4051	3251.5793	1306.15	414.6
1054.5054	3252.4814	1303.45	413.6
1054.6056	3253.3829	1299.1	410.7
1054.7058	3254.2838	1301.1	412.15
1054.806	3255.1841	1292.35	403.6
1054.9061	3256.0838	1290.3	400.95
1055.0061	3256.9829	1284.75	395.6
1055.1062	3257.8814	1281.1	390.95
1055.2061	3258.7792	1277.15	384.3
1055.306	3259.6765	1277.55	386.25
1055.4059	3260.5731	1268.65	378.05
1055.5057	3261.4692	1268.6	377.85
1055.6055	3262.3647	1266.75	376.8
1055.7052	3263.2595	1262.05	372
1055.8049	3264.1538	1251.1	362.35
1055.9045	3265.0474	1248.45	360
1056.0041	3265.9404	1241.65	353.35
1056.1036	3266.8329	1234	346.5
1056.2031	3267.7247	1236.95	337.4
1056.3025	3268.616	1226.05	338.8
1056.4019	3269.5066	1211.25	321.4
1056.5013	3270.3966	1210.65	319.5
1056.6005	3271.286	1195	306.85
