Software Version:	3.9.2.0
Unit SN:	10000200
Spectrometer SN:	6960
Date:	3/6/2024 10:47:18 AM
Data Line Index:	25
Spectral Points:	2048
Integration time (ms):	125
Averages:	20
Delay (ms):	30
Sequence Number:	1
Processing:	dark subtract
Laser Power (mW):	305
Laser Current (mA):	822
Laser Diode Temp (C):	25.1
Laser Case Temp (C):	27.4
System Temp (C):	27.2
Spectrometer Temp (C):	24.6
CCD Temp (C):	-0.003
Secondary Temp (C):	20.004
Heatsink Temp (C):	22.859
CCDPCB Temp (C):	36.44
SecondaryPCB Temp (C):	34.284

Wavelength	RamanShift	Raw Counts	Dark Subtracted
787.061	30.1047	1139.3	725.25
787.2016	32.3739	1165	753.5
787.3422	34.6426	1207.7	794.75
787.4828	36.9109	1256.05	842.45
787.6235	39.1787	1316.4	898.1
787.7642	41.4461	1381.5	960.7
787.9049	43.7131	1444.45	1016.4
788.0456	45.9796	1505.9	1074.9
788.1863	48.2456	1566.15	1131.5
788.3271	50.5112	1653	1214.7
788.4679	52.7764	1722.5	1282
788.6087	55.0411	1803.65	1360.15
788.7496	57.3054	1878.55	1429.15
788.8904	59.5692	1974.4	1523
789.0313	61.8326	2079.2	1625.55
789.1722	64.0955	2177.8	1718.3
789.3132	66.3579	2309.25	1844.55
789.4541	68.6199	2464.25	1998.65
789.5951	70.8815	2713.6	2244
789.7361	73.1426	3227.75	2754.05
789.8771	75.4032	4544.05	4065.2
790.0181	77.6634	7901.25	7415.05
790.1592	79.9231	16677.7	16187.8
790.3003	82.1824	54701.85	54205.35
790.4414	84.4412	65535	65018.75
790.5825	86.6995	65535	64992.4
790.7237	88.9574	65535	64970.05
790.8648	91.2148	65535	64950.55
791.006	93.4717	65535	64944.85
791.1472	95.7282	65535	64936.05
791.2885	97.9842	65535	64934.75
791.4297	100.2398	65535	64932.6
791.571	102.4949	65535	64928.1
791.7123	104.7495	65535	64923.85
791.8536	107.0036	65535	64924.95
791.9949	109.2573	65535	64925.1
792.1363	111.5105	65535	64924.6
792.2777	113.7632	65535	64919.6
792.4191	116.0154	65535	64910.75
792.5605	118.2672	65535	64917.45
792.7019	120.5185	65535	64916.3
792.8434	122.7693	65535	64914.9
792.9849	125.0197	65535	64909.9
793.1264	127.2696	65535	64903.45
793.2679	129.519	65535	64903.65
793.4094	131.7679	65535	64898.95
793.551	134.0163	65535	64894.7
793.6926	136.2642	65535	64893.3
793.8342	138.5117	65535	64880.35
793.9758	140.7587	65535	64887.4
794.1175	143.0052	65535	64886.9
794.2591	145.2512	65535	64886.1
794.4008	147.4967	65535	64884.6
794.5425	149.7417	65535	64883.45
794.6842	151.9863	65535	64878.35
794.826	154.2304	65535	64877
794.9677	156.4739	65535	64866.05
795.1095	158.717	65535	64871.05
795.2513	160.9596	65535	64862.65
795.3931	163.2017	65535	64864.05
795.535	165.4433	65535	64860.4
795.6768	167.6844	65535	64862.6
795.8187	169.925	65535	64860
795.9606	172.1651	65535	64854.3
796.1025	174.4047	65535	64850.7
796.2445	176.6439	65535	64849.3
796.3864	178.8825	65535	64847.75
796.5284	181.1206	65535	64841.1
796.6704	183.3582	65535	64837.85
796.8124	185.5954	65535	64838.4
796.9544	187.832	65535	64832.9
797.0965	190.0681	65535	64830.1
797.2386	192.3037	65535	64828
797.3806	194.5388	65535	64823.45
797.5228	196.7734	65535	64820.25
797.6649	199.0075	65535	64820.25
797.807	201.2411	65535	64816.45
797.9492	203.4742	65535	64819.3
798.0914	205.7068	65535	64817.2
798.2336	207.9389	65535	64810.6
798.3758	210.1704	65535	64807.1
798.518	212.4015	65535	64810.25
798.6603	214.632	65535	64818.9
798.8025	216.862	65535	64825.4
798.9448	219.0915	65535	64831.2
799.0871	221.3205	65535	64828.95
799.2294	223.549	65535	64833.15
799.3718	225.777	65535	64834.5
799.5141	228.0044	65535	64829.5
799.6565	230.2314	65535	64826.05
799.7989	232.4578	65535	64827.05
799.9413	234.6837	65535	64817.25
800.0837	236.909	65535	64815.55
800.2262	239.1339	65535	64793.65
800.3687	241.3582	65535	64805.25
800.5111	243.582	65535	64777.05
800.6536	245.8053	65535	64786.3
800.7961	248.0281	65535	64793
800.9387	250.2503	65535	64789.05
801.0812	252.472	65535	64785.3
801.2238	254.6932	65535	64781.6
801.3664	256.9139	65535	64785.55
801.509	259.134	65535	64780.95
801.6516	261.3536	65535	64778.55
801.7942	263.5727	65535	64780.55
801.9369	265.7912	65535	64782.9
802.0795	268.0092	65535	64777.45
802.2222	270.2267	65535	64777.3
802.3649	272.4436	65535	64777.7
802.5076	274.6601	65535	64768.7
802.6504	276.8759	65535	64771.5
802.7931	279.0913	65535	64768.2
802.9359	281.3061	65535	64769.2
803.0787	283.5204	65535	64767.05
803.2215	285.7341	65535	64762.15
803.3643	287.9473	65535	64751.4
803.5071	290.16	65535	64756.85
803.6499	292.3721	65535	64764.8
803.7928	294.5837	65535	64766.5
803.9357	296.7947	65535	64764.05
804.0786	299.0052	65535	64762.8
804.2215	301.2152	65535	64759.55
804.3644	303.4246	65535	64765.65
804.5074	305.6334	65535	64762.1
804.6503	307.8418	65535	64760.65
804.7933	310.0495	65535	64755.8
804.9363	312.2568	65535	64759.95
805.0793	314.4635	65535	64756.25
805.2223	316.6696	65535	64754.55
805.3653	318.8752	65535	64750.7
805.5084	321.0802	65535	64750.75
805.6514	323.2847	65535	64751.45
805.7945	325.4887	65535	64750.9
805.9376	327.692	65535	64750.7
806.0807	329.8949	65535	64750.3
806.2238	332.0972	65535	64745.1
806.367	334.2989	65535	64739.95
806.5101	336.5001	65535	64741.8
806.6533	338.7007	65535	64742.8
806.7965	340.9008	65535	64741.45
806.9397	343.1003	65535	64736.65
807.0829	345.2992	65535	64737.6
807.2261	347.4976	65535	64738.45
807.3693	349.6955	65535	64734.4
807.5126	351.8927	65535	64733
807.6559	354.0895	65535	64721.45
807.7991	356.2856	65535	64731.3
807.9424	358.4812	65535	64733.25
808.0857	360.6763	65535	64727.9
808.2291	362.8707	65535	64729.75
808.3724	365.0646	65535	64722.6
808.5158	367.258	65535	64725
808.6591	369.4508	65535	64718.25
808.8025	371.643	65535	64720
808.9459	373.8346	65535	64718.4
809.0893	376.0257	65535	64715.4
809.2327	378.2162	65535	64715.55
809.3762	380.4062	65535	64714.7
809.5196	382.5956	65535	64712.7
809.6631	384.7844	65535	64719.35
809.8066	386.9726	65535	64714.85
809.9501	389.1603	65535	64724.05
810.0936	391.3474	65535	64678.15
810.2371	393.5339	65535	64723.1
810.3806	395.7199	65535	64723.1
810.5241	397.9052	65535	64725.35
810.6677	400.09	65535	64724.15
810.8113	402.2743	65535	64722.1
810.9548	404.4579	65535	64720.4
811.0984	406.641	65535	64719.75
811.2421	408.8235	65535	64720.1
811.3857	411.0054	65535	64718.85
811.5293	413.1868	65535	64716.9
811.673	415.3675	65535	64714.65
811.8166	417.5477	65535	64710.1
811.9603	419.7273	65535	64707.3
812.104	421.9064	65535	64704.15
812.2477	424.0848	65535	64702.65
812.3914	426.2627	65535	64704.2
812.5351	428.4399	65535	64705.05
812.6788	430.6166	65535	64700.85
812.8226	432.7928	65535	64700.45
812.9663	434.9683	65535	64700.65
813.1101	437.1432	65535	64696.8
813.2539	439.3176	65535	64698.05
813.3977	441.4914	65535	64698.5
813.5415	443.6645	65535	64697.2
813.6853	445.8371	65535	64694.3
813.8291	448.0091	65535	64697.9
813.973	450.1806	65535	64698.15
814.1168	452.3514	65535	64694.8
814.2607	454.5216	65535	64685.85
814.4046	456.6913	65535	64693.6
814.5485	458.8603	65535	64694
814.6924	461.0288	65535	64695.2
814.8363	463.1967	65535	64695
814.9802	465.3639	65535	64691.7
815.1241	467.5306	65535	64691.45
815.2681	469.6967	65535	64692.45
815.412	471.8622	65535	64695.8
815.556	474.0271	65535	64695.6
815.7	476.1914	65535	64688.85
815.844	478.3551	65535	64690.95
815.988	480.5182	65535	64690
816.132	482.6807	65535	64692.3
816.276	484.8426	65535	64693.35
816.4201	487.0039	65535	64690
816.5641	489.1647	65535	64687.1
816.7082	491.3248	65535	64687.25
816.8522	493.4843	65535	64690.3
816.9963	495.6432	65535	64689.9
817.1404	497.8015	65535	64683.45
817.2845	499.9592	65535	64685.15
817.4286	502.1163	65535	64683.4
817.5727	504.2728	65535	64685.3
817.7168	506.4287	65535	64688.2
817.861	508.5839	65535	64685.9
818.0051	510.7386	65535	64684.9
818.1493	512.8927	65535	64679.4
818.2935	515.0461	65535	64683
818.4377	517.199	65535	64684.95
818.5818	519.3512	65535	64683.6
818.726	521.5029	65535	64676.1
818.8703	523.6539	65535	64680.15
819.0145	525.8043	65535	64680.25
819.1587	527.9541	65535	64678.95
819.303	530.1033	65535	64678.05
819.4472	532.2519	65535	64676.2
819.5915	534.3999	65535	64672.05
819.7357	536.5472	65535	64674.4
819.88	538.694	65535	64682.1
820.0243	540.8401	65535	64675.65
820.1686	542.9856	65535	64673.3
820.3129	545.1305	65535	64669.25
820.4572	547.2748	65535	64670.85
820.6016	549.4185	65535	64668.95
820.7459	551.5615	65535	64671
820.8902	553.704	65535	64667.65
821.0346	555.8458	65535	64672
821.1789	557.987	65535	64674.45
821.3233	560.1276	65535	64670.7
821.4677	562.2675	65535	64671.05
821.6121	564.4069	65535	64673.1
821.7565	566.5456	65535	64672.25
821.9009	568.6837	65535	64674.1
822.0453	570.8212	65535	64671.45
822.1897	572.958	65535	64669.7
822.3342	575.0942	65535	64675.35
822.4786	577.2299	65535	64671.3
822.6231	579.3648	65535	64671.6
822.7675	581.4992	65535	64675.5
822.912	583.6329	65535	64674.2
823.0565	585.766	65535	64674.2
823.201	587.8985	65535	64672.35
823.3454	590.0304	65535	64649.45
823.4899	592.1616	65535	64666.35
823.6345	594.2922	65535	64665.55
823.779	596.4222	65535	64667.4
823.9235	598.5515	65535	64664.95
824.068	600.6802	65535	64667.65
824.2126	602.8083	65535	64667.1
824.3571	604.9358	65535	64664.65
824.5017	607.0626	65535	64662.1
824.6462	609.1888	65535	64660.9
824.7908	611.3144	65535	64663.45
824.9354	613.4393	65535	64663.9
825.08	615.5636	65535	64664.1
825.2246	617.6873	65535	64661.55
825.3692	619.8103	65535	64662.45
825.5138	621.9327	65535	64659.2
825.6584	624.0544	65535	64661.1
825.803	626.1756	65535	64662.5
825.9477	628.2961	65535	64661.45
826.0923	630.4159	65535	64660.25
826.237	632.5351	65535	64661.6
826.3816	634.6537	65535	64660.6
826.5263	636.7716	65535	64659.65
826.6709	638.8889	65535	64659
826.8156	641.0056	65535	64657.35
826.9603	643.1216	65535	64658.6
827.105	645.237	65535	64657.15
827.2497	647.3518	65535	64661.35
827.3944	649.4659	65535	64659.7
827.5391	651.5793	65535	64657.8
827.6838	653.6922	65535	64658.45
827.8285	655.8043	65535	64658.25
827.9733	657.9159	65535	64658
828.118	660.0268	65535	64655.8
828.2627	662.137	65535	64656.6
828.4075	664.2466	65535	64654
828.5522	666.3556	65535	64655.3
828.697	668.4639	65535	64654.55
828.8418	670.5716	65535	64659
828.9865	672.6786	65535	64653.95
829.1313	674.785	65535	64651.25
829.2761	676.8907	65535	64652.8
829.4209	678.9958	65535	64657.55
829.5657	681.1002	65535	64656.8
829.7105	683.204	65535	64653.3
829.8553	685.3072	65535	64653.55
830.0001	687.4097	65535	64651.2
830.1449	689.5115	65535	64649.1
830.2898	691.6127	65535	64650.45
830.4346	693.7132	65535	64652.8
830.5794	695.8131	65535	64642.2
830.7243	697.9123	65535	64649.5
830.8691	700.0109	65535	64650.25
831.014	702.1089	65535	64652.3
831.1588	704.2061	65535	64649.65
831.3037	706.3028	65535	64651.05
831.4486	708.3987	65535	64650.4
831.5935	710.4941	65535	64651.45
831.7383	712.5887	65535	64651.6
831.8832	714.6827	65535	64647.95
832.0281	716.7761	65535	64654.15
832.173	718.8688	65535	64649.55
832.3179	720.9608	65535	64646.55
832.4628	723.0522	65535	64644.9
832.6077	725.1429	65535	64647.85
832.7527	727.233	65535	64646.15
832.8976	729.3224	65535	64645.85
833.0425	731.4112	65535	64646.25
833.1874	733.4993	65535	64644.25
833.3324	735.5867	65535	64645.65
833.4773	737.6735	65535	64645.95
833.6222	739.7596	65535	64645.25
833.7672	741.845	65535	64649.55
833.9122	743.9298	65535	64645.2
834.0571	746.014	65535	64646.4
834.2021	748.0974	65535	64642.3
834.347	750.1802	65535	64645.9
834.492	752.2624	65535	64644.15
834.637	754.3439	65535	64644.85
834.782	756.4247	65535	64636.75
834.9269	758.5048	65535	64643.55
835.0719	760.5843	65535	64644.25
835.2169	762.6631	65535	64643.2
835.3619	764.7413	65535	64645.5
835.5069	766.8188	65535	64643.85
835.6519	768.8956	65535	64642.2
835.7969	770.9718	65535	64644.75
835.9419	773.0473	65535	64645.9
836.0869	775.1221	65535	64642.5
836.232	777.1962	65535	64645.1
836.377	779.2697	65535	64641.2
836.522	781.3426	65535	64623.65
836.667	783.4147	65535	64642.55
836.8121	785.4862	65535	64644.3
836.9571	787.557	65535	64644.3
837.1021	789.6271	65535	64641.2
837.2472	791.6966	65535	64643.75
837.3922	793.7654	65535	64641.1
837.5373	795.8335	65535	64644.1
837.6823	797.901	65535	64643.15
837.8274	799.9678	65535	64641.9
837.9724	802.0339	65535	64643.35
838.1175	804.0993	65535	64630.8
838.2626	806.1641	65535	64637.95
838.4076	808.2282	65535	64641.15
838.5527	810.2916	65535	64640.55
838.6978	812.3544	65535	64645
838.8428	814.4164	65535	64642.55
838.9879	816.4778	65535	64641.65
839.133	818.5385	65535	64637.95
839.2781	820.5986	65535	64639.5
839.4232	822.658	65535	64638.6
839.5682	824.7166	65535	64640.55
839.7133	826.7747	65535	64639.45
839.8584	828.832	65535	64639.75
840.0035	830.8886	65535	64641.4
840.1486	832.9446	65535	64635.5
840.2937	834.9999	65535	64640.65
840.4388	837.0545	65535	64636.65
840.5839	839.1085	65535	64636.9
840.729	841.1618	65535	64636.65
840.8741	843.2143	65535	64640.2
841.0192	845.2662	65535	64640
841.1643	847.3175	65535	64639.4
841.3095	849.368	65535	64640.55
841.4546	851.4179	65535	64638.55
841.5997	853.467	65535	64640.7
841.7448	855.5155	65535	64639.8
841.8899	857.5633	65535	64641.1
842.0351	859.6105	65535	64638.3
842.1802	861.6569	65535	64637
842.3253	863.7027	65535	64636.85
842.4704	865.7478	65535	64639.55
842.6156	867.7922	65535	64640.55
842.7607	869.8359	65535	64637.9
842.9058	871.8789	65535	64636.65
843.0509	873.9212	65535	64607.35
843.1961	875.9629	65535	64637.35
843.3412	878.0039	65535	64636.95
843.4863	880.0441	65535	64640
843.6315	882.0837	65535	64637.9
843.7766	884.1226	65535	64635.7
843.9218	886.1609	65535	64638.05
844.0669	888.1984	65535	64639.95
844.212	890.2352	65535	64636.9
844.3572	892.2714	65535	64633.95
844.5023	894.3069	65535	64637.55
844.6475	896.3416	65535	64636.8
844.7926	898.3757	65535	64635.4
844.9377	900.4091	65535	64636.95
845.0829	902.4418	65535	64632.75
845.228	904.4739	65535	64632.1
845.3732	906.5052	65535	64635.25
845.5183	908.5358	65535	64636.95
845.6635	910.5658	65535	64636.95
845.8086	912.595	65535	64637.1
845.9538	914.6236	65535	64636
846.0989	916.6515	65535	64638.65
846.2441	918.6786	65535	64633.45
846.3892	920.7051	65535	64631.8
846.5344	922.7309	65535	64636.95
846.6795	924.756	65535	64634.25
846.8246	926.7804	65535	64633.55
846.9698	928.8041	65535	64630.8
847.1149	930.8272	65535	64634.15
847.2601	932.8495	65535	64634.15
847.4052	934.8711	65535	64635.65
847.5504	936.892	65535	64633.9
847.6955	938.9123	65535	64632
847.8407	940.9318	65535	64634.9
847.9858	942.9506	65535	64633.35
848.131	944.9688	65535	64636.5
848.2761	946.9862	65535	64633.7
848.4213	949.003	65535	64637.1
848.5664	951.019	65535	64635.9
848.7115	953.0344	65535	64634.05
848.8567	955.0491	65535	64632.5
849.0018	957.063	65535	64634.75
849.147	959.0763	65535	64633.9
849.2921	961.0888	65535	64631.85
849.4373	963.1007	65535	64633.25
849.5824	965.1119	65535	64637.9
849.7275	967.1223	65535	64636.6
849.8727	969.1321	65535	64638.2
850.0178	971.1412	65535	64635.45
850.1629	973.1495	65535	64637.4
850.3081	975.1572	65535	64600.35
850.4532	977.1641	65535	64634.5
850.5983	979.1704	65535	64635.85
850.7435	981.1759	65535	64628.35
850.8886	983.1808	65535	64632.3
851.0337	985.1849	65535	64623.3
851.1788	987.1884	65535	64631.9
851.324	989.1911	65535	64631.9
851.4691	991.1932	65535	64630.55
851.6142	993.1945	65535	64636.1
851.7593	995.1951	65535	64632.75
851.9045	997.1951	65535	64629.25
852.0496	999.1943	65535	64636.85
852.1947	1001.1928	65535	64633.85
852.3398	1003.1906	65535	64636.4
852.4849	1005.1877	65535	64632.75
852.63	1007.1841	65535	64632.95
852.7751	1009.1798	65535	64633.55
852.9202	1011.1748	65535	64633.55
853.0653	1013.1691	65535	64631.6
853.2104	1015.1627	65535	64635.6
853.3555	1017.1556	65535	64634.4
853.5006	1019.1477	65535	64631.8
853.6457	1021.1392	65535	64632.9
853.7908	1023.1299	65535	64635.45
853.9359	1025.12	65535	64633
854.081	1027.1093	65535	64636.65
854.2261	1029.0979	65535	64640.25
854.3712	1031.0859	65535	64636.05
854.5163	1033.0731	65535	64635.35
854.6613	1035.0596	65535	64632.8
854.8064	1037.0454	65535	64635.25
854.9515	1039.0304	65535	64633.15
855.0965	1041.0148	65535	64633.1
855.2416	1042.9985	65535	64632.05
855.3867	1044.9814	65535	64636.35
855.5317	1046.9636	65535	64631.85
855.6768	1048.9452	65535	64634.45
855.8219	1050.926	65535	64636.85
855.9669	1052.9061	65535	64636.25
856.112	1054.8855	65535	64633.5
856.257	1056.8642	65535	64635.15
856.4021	1058.8421	65535	64627.65
856.5471	1060.8194	65535	64634.15
856.6921	1062.7959	65535	64633.2
856.8372	1064.7717	65535	64630.2
856.9822	1066.7469	65535	64632.95
857.1272	1068.7213	65535	64632.25
857.2723	1070.695	65535	64633.6
857.4173	1072.6679	65535	64633.6
857.5623	1074.6402	65535	64632.7
857.7073	1076.6117	65535	64628.6
857.8523	1078.5826	65535	64632.4
857.9973	1080.5527	65535	64631.8
858.1423	1082.5221	65535	64632.1
858.2873	1084.4908	65535	64634
858.4323	1086.4587	65535	64633.9
858.5773	1088.426	65535	64634.75
858.7223	1090.3925	65535	64630.3
858.8673	1092.3584	65535	64633.8
859.0123	1094.3235	65535	64634
859.1573	1096.2879	65535	64632.9
859.3022	1098.2515	65535	64634.75
859.4472	1100.2145	65535	64632.5
859.5922	1102.1767	65535	64632.4
859.7371	1104.1382	65535	64636
859.8821	1106.099	65535	64630.65
860.027	1108.0591	65535	64632.3
860.172	1110.0185	65535	64632.65
860.3169	1111.9771	65535	64633.95
860.4619	1113.9351	65535	64634.25
860.6068	1115.8923	65535	64633.6
860.7517	1117.8488	65535	64629.9
860.8967	1119.8045	65535	64634.3
861.0416	1121.7596	65535	64634.2
861.1865	1123.7139	65535	64633.2
861.3314	1125.6675	65535	64633.35
861.4763	1127.6204	65535	64633.05
861.6212	1129.5726	65535	64630.45
861.7661	1131.524	65535	64635.1
861.911	1133.4748	65535	64632.85
862.0559	1135.4248	65535	64633.45
862.2008	1137.3741	65535	64634.45
862.3457	1139.3226	65535	64634.7
862.4905	1141.2705	65535	64631.7
862.6354	1143.2176	65535	64626.85
862.7803	1145.164	65535	64628.95
862.9251	1147.1097	65535	64632.2
863.07	1149.0546	65535	64630.65
863.2148	1150.9989	65535	64632.65
863.3597	1152.9424	65535	64634.55
863.5045	1154.8852	65535	64632.7
863.6493	1156.8272	65535	64634.7
863.7942	1158.7686	65535	64626.25
863.939	1160.7092	65535	64631.6
864.0838	1162.6491	65535	64630.9
864.2286	1164.5883	65535	64633
864.3734	1166.5267	65535	64633.8
864.5182	1168.4644	65535	64635.2
864.663	1170.4014	65535	64628.05
864.8078	1172.3377	65535	64633.3
864.9526	1174.2732	65535	64634.8
865.0974	1176.2081	65535	64633.15
865.2421	1178.1421	65535	64629.7
865.3869	1180.0755	65535	64634.35
865.5317	1182.0082	65535	64636.05
865.6764	1183.9401	65535	64628.65
865.8212	1185.8713	65535	64631.5
865.9659	1187.8017	65535	64635.1
866.1106	1189.7315	65535	64636.65
866.2554	1191.6605	65535	64606.25
866.4001	1193.5888	65535	64634.45
866.5448	1195.5163	65535	64631.8
866.6895	1197.4432	65535	64630.85
866.8342	1199.3693	65535	64634.7
866.9789	1201.2947	65535	64631.75
867.1236	1203.2193	65535	64631.95
867.2683	1205.1432	65535	64633.6
867.413	1207.0664	65535	64633.3
867.5576	1208.9889	65535	64630.15
867.7023	1210.9106	65535	64632.35
867.847	1212.8316	65535	64634.3
867.9916	1214.7519	65535	64622.3
868.1363	1216.6715	65535	64635.65
868.2809	1218.5903	65535	64632.3
868.4255	1220.5084	65535	64634.8
868.5701	1222.4257	65535	64633.05
868.7148	1224.3424	65535	64633.35
868.8594	1226.2583	65535	64629.55
869.004	1228.1735	65535	64630.8
869.1486	1230.0879	65535	64631.75
869.2932	1232.0016	65535	64632.15
869.4377	1233.9146	65535	64633.3
869.5823	1235.8269	65535	64632.8
869.7269	1237.7384	65535	64632.8
869.8715	1239.6492	65535	64633.7
870.016	1241.5592	65535	64632.15
870.1606	1243.4686	65535	64634.45
870.3051	1245.3772	65535	64632.85
870.4496	1247.285	65535	64632
870.5941	1249.1922	65535	64633.25
870.7387	1251.0986	65535	64634.45
870.8832	1253.0042	65535	64632
871.0277	1254.9092	65535	64631.85
871.1722	1256.8134	65535	64635.65
871.3167	1258.7169	65535	64632.7
871.4611	1260.6196	65535	64633
871.6056	1262.5216	65535	64633.6
871.7501	1264.4229	65535	64635.45
871.8945	1266.3234	65535	64633.45
872.039	1268.2232	65535	64632.95
872.1834	1270.1223	65535	64632.1
872.3278	1272.0207	65535	64634.2
872.4723	1273.9183	65535	64628.45
872.6167	1275.8151	65535	64631.95
872.7611	1277.7113	65535	64635
872.9055	1279.6067	65535	64635.2
873.0499	1281.5014	65535	64633.35
873.1943	1283.3953	65535	64628.8
873.3386	1285.2885	65535	64635.15
873.483	1287.181	65535	64632.25
873.6274	1289.0727	65535	64631.75
873.7717	1290.9637	65535	64632.65
873.9161	1292.854	65535	64634.35
874.0604	1294.7435	65535	64632.5
874.2047	1296.6323	65535	64634.45
874.349	1298.5204	65535	64631.15
874.4933	1300.4077	65535	64633.2
874.6376	1302.2943	65535	64633.9
874.7819	1304.1802	65535	64633.85
874.9262	1306.0653	65535	64631.85
875.0705	1307.9497	65535	64634.7
875.2147	1309.8333	65535	64635.45
875.359	1311.7162	65535	64632.8
875.5032	1313.5984	65535	64631.2
875.6475	1315.4798	65535	64620.3
875.7917	1317.3605	65535	64619.75
875.9359	1319.2405	65535	64632.7
876.0801	1321.1197	65535	64629.75
876.2243	1322.9982	65535	64628.25
876.3685	1324.876	65535	64635.35
876.5127	1326.753	65535	64633.8
876.6569	1328.6293	65535	64633.95
876.801	1330.5048	65535	64630.5
876.9452	1332.3796	65535	64634.05
877.0893	1334.2537	65535	64607.55
877.2335	1336.127	65535	64629.75
877.3776	1337.9996	65535	64632.05
877.5217	1339.8714	65535	64633.8
877.6658	1341.7426	65535	64591.75
877.8099	1343.6129	65535	64634.6
877.954	1345.4826	65535	64633.65
878.0981	1347.3515	65535	64630.15
878.2422	1349.2196	65535	64632.35
878.3862	1351.087	65535	64634.85
878.5303	1352.9537	65535	64635
878.6743	1354.8197	65535	64632.85
878.8184	1356.6849	65535	64633.65
878.9624	1358.5493	65535	64632.4
879.1064	1360.4131	65535	64633.25
879.2504	1362.276	65535	64635.1
879.3944	1364.1383	65535	64635.1
879.5384	1365.9998	65535	64627.6
879.6823	1367.8606	65535	64631.2
879.8263	1369.7206	65535	64632.3
879.9702	1371.5799	65535	64631.5
880.1142	1373.4384	65535	64633.45
880.2581	1375.2962	65535	64633.1
880.402	1377.1533	65535	64632.55
880.5459	1379.0096	65535	64632.6
880.6898	1380.8652	65535	64631.4
880.8337	1382.7201	65535	64635.3
880.9776	1384.5742	65535	64631.6
881.1215	1386.4275	65535	64632.25
881.2653	1388.2802	65535	64632.3
881.4092	1390.132	65535	64632.5
881.553	1391.9832	65535	64633.45
881.6968	1393.8336	65535	64632.6
881.8406	1395.6832	65535	64632.55
881.9844	1397.5322	65535	64634.85
882.1282	1399.3803	65535	64627.25
882.272	1401.2278	65535	64632.15
882.4158	1403.0745	65535	64634.9
882.5595	1404.9204	65535	64633.85
882.7033	1406.7656	65535	64633.8
882.847	1408.6101	65535	64633.8
882.9908	1410.4538	65535	64634.2
883.1345	1412.2968	65535	64632.6
883.2782	1414.139	65535	64632.6
883.4219	1415.9805	65535	64634
883.5656	1417.8213	65535	64626.3
883.7092	1419.6613	65535	64634.7
883.8529	1421.5006	65535	64631.65
883.9965	1423.3391	65535	64634.75
884.1402	1425.1769	65535	64634.5
884.2838	1427.0139	65535	64635
884.4274	1428.8502	65535	64632.8
884.571	1430.6858	65535	64633.45
884.7146	1432.5206	65535	64633
884.8582	1434.3547	65535	64631.85
885.0018	1436.188	65535	64633.45
885.1453	1438.0206	65535	64634.1
885.2889	1439.8524	65535	64634.75
885.4324	1441.6835	65535	64633.1
885.5759	1443.5139	65535	64632.6
885.7194	1445.3435	65535	64635.4
885.8629	1447.1724	65535	64635.55
886.0064	1449.0005	65535	64634.05
886.1499	1450.8279	65535	64632.3
886.2933	1452.6545	65535	64635.9
886.4368	1454.4804	65535	64634.1
886.5802	1456.3056	65535	64626.05
886.7237	1458.13	65535	64634.2
886.8671	1459.9536	65535	64633.45
887.0105	1461.7766	65535	64636.9
887.1539	1463.5987	65535	64633.2
887.2972	1465.4202	65535	64634.45
887.4406	1467.2409	65535	64634.7
887.584	1469.0608	65535	64635.1
887.7273	1470.88	65535	64634.3
887.8706	1472.6984	65535	64634.7
888.0139	1474.5161	65535	64630.55
888.1572	1476.3331	65535	64633.45
888.3005	1478.1493	65535	64634.95
888.4438	1479.9648	65535	64633.05
888.5871	1481.7795	65535	64633.7
888.7303	1483.5935	65535	64634.8
888.8736	1485.4067	65535	64636
889.0168	1487.2192	65535	64632.55
889.16	1489.031	65535	64631.75
889.3032	1490.842	65535	64634
889.4464	1492.6522	65535	64635.25
889.5896	1494.4618	65535	64635.25
889.7327	1496.2705	65535	64635.4
889.8759	1498.0785	65535	64632.6
890.019	1499.8858	65535	64632.95
890.1622	1501.6924	65535	64635.4
890.3053	1503.4981	65535	64633.35
890.4484	1505.3032	65535	64633.9
890.5914	1507.1075	65535	64634.6
890.7345	1508.911	65535	64634.9
890.8776	1510.7138	65535	64633.65
891.0206	1512.5159	65535	64635.35
891.1637	1514.3172	65535	64633.5
891.3067	1516.1178	65535	64634.05
891.4497	1517.9176	65535	64631.6
891.5927	1519.7166	65535	64634.8
891.7357	1521.515	65535	64628.95
891.8786	1523.3126	65535	64633.9
892.0216	1525.1094	65535	64634.7
892.1645	1526.9055	65535	64637.1
892.3074	1528.7008	65535	64637.15
892.4503	1530.4954	65535	64629.05
892.5932	1532.2893	65535	64637
892.7361	1534.0824	65535	64632.55
892.879	1535.8747	65535	64632.5
893.0218	1537.6663	65535	64635.3
893.1647	1539.4572	65535	64634
893.3075	1541.2473	65535	64636.25
893.4503	1543.0367	65535	64635.75
893.5931	1544.8253	65535	64631.2
893.7359	1546.6132	65535	64632.75
893.8787	1548.4003	65535	64625.45
894.0214	1550.1867	65535	64625.15
894.1642	1551.9723	65535	64631.1
894.3069	1553.7572	65535	64632.9
894.4496	1555.5414	65535	64636.75
894.5923	1557.3247	65515.55	64616.65
894.735	1559.1074	65535	64638.25
894.8777	1560.8893	65533.1	64635.65
895.0204	1562.6705	65535	64636
895.163	1564.4509	65520.05	64620.1
895.3056	1566.2305	65531.95	64636.1
895.4482	1568.0094	65535	64639.6
895.5908	1569.7876	65532.65	64632.35
895.7334	1571.565	65518.2	64621.55
895.876	1573.3417	65521.95	64623.8
896.0186	1575.1176	65522.1	64625.25
896.1611	1576.8928	65519.85	64622.5
896.3036	1578.6672	65482.85	64587.05
896.4461	1580.4409	65511	64616.2
896.5886	1582.2138	65445.25	64547.35
896.7311	1583.986	65471.3	64574
896.8736	1585.7575	65375.5	64477.45
897.0161	1587.5282	65414.2	64516.6
897.1585	1589.2981	65415.95	64519.75
897.3009	1591.0673	65325.05	64426.8
897.4433	1592.8358	65150	64252.1
897.5857	1594.6035	65308.5	64410.5
897.7281	1596.3704	65340	64442.1
897.8705	1598.1366	65014.6	64119.9
898.0128	1599.9021	64755.05	63858.05
898.1551	1601.6668	65145.25	64247.25
898.2975	1603.4308	64967.5	64068.6
898.4398	1605.194	64969.1	64067.3
898.5821	1606.9564	64347.5	63448.35
898.7243	1608.7182	64711.95	63813.1
898.8666	1610.4791	64326.2	63429.55
899.0088	1612.2394	64702.95	63807.85
899.1511	1613.9988	64130.4	63233.35
899.2933	1615.7576	64734.35	63839.45
899.4355	1617.5156	64726.8	63823
899.5776	1619.2728	65124.9	64227.2
899.7198	1621.0293	64346.85	63450.05
899.862	1622.785	64370.1	63471.2
900.0041	1624.54	64702.95	63805.2
900.1462	1626.2942	64154.2	63256.3
900.2883	1628.0477	63293.35	62394.35
900.4304	1629.8005	62561.85	61663
900.5725	1631.5525	63331.7	62437.05
900.7145	1633.3037	62129.25	61232.65
900.8566	1635.0542	61965.05	61069.7
900.9986	1636.804	62468.25	61571.55
901.1406	1638.553	61337.4	60360.15
901.2826	1640.3013	61685.6	60786
901.4245	1642.0488	60959.95	60061.85
901.5665	1643.7955	61441.2	60547.35
901.7085	1645.5416	60902.95	60005.6
901.8504	1647.2868	60424.4	59530.85
901.9923	1649.0313	61240.1	60344
902.1342	1650.7751	60741.3	59842.25
902.2761	1652.5181	60388.7	59493.15
902.4179	1654.2604	60467.6	59570.1
902.5598	1656.0019	60899.05	60004
902.7016	1657.7427	60601.7	59704.15
902.8434	1659.4828	61251.5	60357
902.9852	1661.222	60826.35	59931.55
903.127	1662.9606	61371.9	60476.8
903.2687	1664.6984	60466.5	59571.85
903.4105	1666.4354	60676.05	59777.85
903.5522	1668.1717	59516.9	58620.75
903.6939	1669.9072	58689.45	57792.1
903.8356	1671.642	58418.45	57519.6
903.9773	1673.3761	58075.9	57181.7
904.119	1675.1094	57757.8	56862.4
904.2606	1676.8419	57162.9	56268
904.4022	1678.5737	57037	56141.8
904.5439	1680.3048	56709.55	55811.5
904.6855	1682.0351	56356.8	55461.7
904.827	1683.7646	56047.6	55148.7
904.9686	1685.4934	56209.25	55316.5
905.1101	1687.2215	55196	54301.15
905.2517	1688.9488	55748.4	54854.25
905.3932	1690.6754	54366	53472.15
905.5347	1692.4012	54900.65	54005.8
905.6761	1694.1263	54742.2	53846.6
905.8176	1695.8506	54321.6	53425.8
905.9591	1697.5742	54266.25	53369.5
906.1005	1699.297	54014.15	53119.05
906.2419	1701.0191	53816.75	52922.65
906.3833	1702.7404	53358.25	52464.7
906.5246	1704.461	53073.95	52176.15
906.666	1706.1808	53033.8	52138.6
906.8073	1707.8999	52860.35	51965.65
906.9487	1709.6182	52594.75	51702.1
907.09	1711.3358	52512.2	51619.1
907.2313	1713.0527	52277.25	51383.1
907.3725	1714.7688	52266.75	51366.85
907.5138	1716.4841	51649.4	50751.3
907.655	1718.1987	51722.35	50821.65
907.7962	1719.9126	51511.3	50618.7
907.9374	1721.6257	51348.15	50453.15
908.0786	1723.338	51359.05	50465.65
908.2198	1725.0496	50743.75	49849.85
908.3609	1726.7605	50686.75	49789.75
908.502	1728.4706	50536.65	49640.15
908.6431	1730.18	50308.15	49410.75
908.7842	1731.8886	50157.6	49266.45
908.9253	1733.5964	49996.4	49081.4
909.0664	1735.3036	49937.1	49038.35
909.2074	1737.0099	49827.85	48937.15
909.3484	1738.7156	49558.55	48665.65
909.4894	1740.4204	49313.75	48417.4
909.6304	1742.1246	49254.6	48358.75
909.7714	1743.8279	49051.75	48157.9
909.9123	1745.5306	49070	48175.4
910.0532	1747.2325	48704.3	47810.55
910.1941	1748.9336	48540.1	47646
910.335	1750.634	48327.6	47432.5
910.4759	1752.3336	48303.85	47411.95
910.6168	1754.0325	48164.35	47271.1
910.7576	1755.7307	48063.65	47169.95
910.8984	1757.4281	47962.2	47069.3
911.0392	1759.1247	47892.5	46990.8
911.18	1760.8206	47679.1	46781
911.3208	1762.5158	47567.7	46670.9
911.4615	1764.2102	47398.3	46504.8
911.6022	1765.9039	47219.4	46325.4
911.7429	1767.5968	47106.6	46212.95
911.8836	1769.289	46990.7	46097.4
912.0243	1770.9804	46816.5	45921.25
912.1649	1772.6711	46747.75	45853.4
912.3056	1774.361	46551.15	45656.3
912.4462	1776.0502	46452.75	45557.7
912.5868	1777.7386	46268.95	45372.45
912.7274	1779.4263	46143.25	45251.85
912.8679	1781.1132	46102.3	45208.6
913.0084	1782.7994	45902.4	45008.3
913.149	1784.4849	45765.45	44872.35
913.2895	1786.1696	45609.8	44711.5
913.4299	1787.8535	45517.7	44624.45
913.5704	1789.5367	45379.45	44487.55
913.7108	1791.2192	45303.05	44410.65
913.8513	1792.9009	45064.8	44143.7
913.9917	1794.5818	44956.15	44060.75
914.132	1796.2621	44863.95	43971.75
914.2724	1797.9415	44711.9	43818.85
914.4128	1799.6202	44517.25	43622
914.5531	1801.2982	44424	43532.85
914.6934	1802.9755	44291.1	43397.55
914.8337	1804.6519	44238	43344.85
914.9739	1806.3277	44055.25	43162.4
915.1142	1808.0027	43812.75	42922.15
915.2544	1809.6769	43752.3	42860.3
915.3946	1811.3504	43635.6	42742.55
915.5348	1813.0231	43484	42591.4
915.675	1814.6951	43435	42542.2
915.8151	1816.3664	43433.5	42537.85
915.9553	1818.0369	43263.35	42370.8
916.0954	1819.7067	43042.1	42148.6
916.2355	1821.3757	42936.4	42041.55
916.3755	1823.044	42851.45	41958.35
916.5156	1824.7115	42714.55	41822.45
916.6556	1826.3783	42545.9	41653.4
916.7956	1828.0443	42384.65	41492.15
916.9356	1829.7096	42251.9	41356.9
917.0756	1831.3741	42254.85	41358.9
917.2155	1833.0379	42085.4	41193.6
917.3555	1834.701	41911.15	41015.4
917.4954	1836.3633	41845.4	40948.8
917.6353	1838.0248	41688.3	40790.6
917.7751	1839.6856	41583.7	40691.25
917.915	1841.3457	41558.5	40667.5
918.0548	1843.005	41443.5	40551.85
918.1946	1844.6636	41411.5	40519.2
918.3344	1846.3214	41237.65	40342.3
918.4742	1847.9785	41161.85	40269.55
918.6139	1849.6349	40983.75	40087.2
918.7537	1851.2904	40875.45	39969.55
918.8934	1852.9453	40791.35	39899.45
919.0331	1854.5994	40660.45	39764.7
919.1727	1856.2528	40691.1	39793.05
919.3124	1857.9054	40483.15	39591.85
919.452	1859.5572	40429	39537.1
919.5916	1861.2083	40326.6	39432.15
919.7312	1862.8587	40250.65	39356.9
919.8708	1864.5084	40078	39181.9
920.0103	1866.1572	39996.6	39103.75
920.1498	1867.8054	39808.25	38914.65
920.2893	1869.4528	39720.75	38828.45
920.4288	1871.0994	39566.1	38672.55
920.5683	1872.7453	39531.75	38636.35
920.7077	1874.3905	39417.6	38516.9
920.8471	1876.0349	39259	38363.5
920.9865	1877.6786	39301.8	38405.9
921.1259	1879.3215	39167.8	38274.1
921.2653	1880.9637	39055.2	38160.75
921.4046	1882.6051	38968.65	38076.9
921.5439	1884.2458	38820.6	37925.05
921.6832	1885.8858	38721.25	37828.95
921.8225	1887.525	38597.65	37702.9
921.9617	1889.1634	38388.35	37493.9
922.101	1890.8011	38250.05	37355.9
922.2402	1892.4381	38168.8	37274.35
922.3794	1894.0743	38117.8	37226.25
922.5185	1895.7098	38009.55	37114.95
922.6577	1897.3446	37868.75	36974.55
922.7968	1898.9786	37727.4	36831.45
922.9359	1900.6118	37694.5	36801.7
923.075	1902.2443	37469.05	36573.85
923.214	1903.8761	37374.9	36481.9
923.3531	1905.5071	37176.45	36282.65
923.4921	1907.1374	37009.85	36116.8
923.6311	1908.7669	36970.65	36076.3
923.77	1910.3957	36864.8	35973.25
923.909	1912.0237	36627.05	35734.75
924.0479	1913.651	36582.2	35686.6
924.1868	1915.2776	36458.4	35567.3
924.3257	1916.9034	36318.2	35426.35
924.4646	1918.5285	36124.2	35233.2
924.6034	1920.1528	35894.35	35000.05
924.7422	1921.7764	35865.4	34971.95
924.881	1923.3992	35772.5	34880.45
925.0198	1925.0213	35522.8	34630.85
925.1586	1926.6427	35355	34462.55
925.2973	1928.2633	35346.75	34339.95
925.436	1929.8832	35137.05	34239.75
925.5747	1931.5023	34977.5	34084.4
925.7134	1933.1207	34938.5	34045.35
925.852	1934.7383	34851.8	33957.05
925.9906	1936.3552	34668.15	33775.15
926.1292	1937.9714	34584.9	33690.9
926.2678	1939.5868	34382.45	33486.7
926.4064	1941.2015	34219.5	33326.7
926.5449	1942.8154	34076.75	33182.45
926.6834	1944.4286	33930.25	33039.5
926.8219	1946.041	33784.9	32872.25
926.9604	1947.6528	33591.2	32692.75
927.0988	1949.2637	33503.25	32611.55
927.2372	1950.8739	33398.1	32503.4
927.3756	1952.4834	33321.4	32429.05
927.514	1954.0921	33239.3	32344.95
927.6523	1955.7001	33069	32171.3
927.7907	1957.3074	33031.75	32139.55
927.929	1958.9139	32825.3	31932.95
928.0673	1960.5197	32799.2	31906.15
928.2055	1962.1247	32545.15	31653.35
928.3438	1963.729	32374.65	31483.3
928.482	1965.3325	32327.9	31413.95
928.6202	1966.9353	32189.7	31297.45
928.7584	1968.5374	32080.7	31187.15
928.8965	1970.1387	31936.25	31044.35
929.0346	1971.7393	31787.5	30892.5
929.1727	1973.3392	31736.2	30845.05
929.3108	1974.9383	31605.9	30712.7
929.4489	1976.5366	31423.4	30532.75
929.5869	1978.1342	31392.35	30500.8
929.7249	1979.7311	31325.4	30432.75
929.8629	1981.3273	31211.95	30319.45
930.0009	1982.9227	31109.75	30215.15
930.1388	1984.5173	30950.45	30059.65
930.2767	1986.1112	30797.25	29905.45
930.4146	1987.7044	30747.8	29857.05
930.5525	1989.2968	30615.25	29722.95
930.6904	1990.8885	30556.6	29659.8
930.8282	1992.4795	30451.1	29556.1
930.966	1994.0697	30333.9	29442.85
931.1038	1995.6592	30225.35	29334.75
931.2415	1997.2479	30137.7	29244.8
931.3793	1998.8359	29992.6	29100.7
931.517	2000.4232	29900.2	29009.1
931.6547	2002.0097	29754	28863
931.7923	2003.5955	29670.45	28778.8
931.93	2005.1805	29584.1	28690.3
932.0676	2006.7648	29491.6	28598.7
932.2052	2008.3484	29391.75	28498.25
932.3427	2009.9312	29385.35	28490.9
932.4803	2011.5133	29222.55	28331.15
932.6178	2013.0946	29170.6	28278.25
932.7553	2014.6752	29099.65	28208.7
932.8928	2016.2551	28947.6	28056.4
933.0302	2017.8342	28805	27913.25
933.1676	2019.4126	28703.9	27814.35
933.305	2020.9902	28557.3	27665.85
933.4424	2022.5672	28537.2	27645.1
933.5798	2024.1433	28471.9	27573.9
933.7171	2025.7188	28322.5	27432.55
933.8544	2027.2935	28224.45	27332.9
933.9917	2028.8674	28095.6	27204.85
934.129	2030.4406	28016.7	27127.45
934.2662	2032.0131	27896.3	27004.9
934.4034	2033.5849	27788.25	26893.15
934.5406	2035.1559	27765.3	26875.55
934.6778	2036.7261	27699.55	26806.1
934.8149	2038.2957	27586.75	26694.3
934.952	2039.8645	27478.35	26586.9
935.0891	2041.4325	27563.7	26671.7
935.2262	2042.9998	27390.65	26501
935.3632	2044.5664	27335.05	26440.65
935.5002	2046.1323	27203.45	26312.85
935.6372	2047.6974	27121.9	26230.7
935.7742	2049.2617	27061.65	26171.15
935.9111	2050.8254	26991.95	26079
936.048	2052.3883	26954.55	26061.05
936.1849	2053.9504	26802.8	25909.3
936.3218	2055.5118	26734.05	25842.5
936.4586	2057.0725	26589.9	25695
936.5955	2058.6325	26539.75	25648.4
936.7323	2060.1917	26465.05	25573.85
936.869	2061.7502	26437.5	25544.05
937.0058	2063.3079	26283.9	25391.9
937.1425	2064.8649	26159.6	25263.25
937.2792	2066.4212	26094.15	25201.55
937.4159	2067.9767	26041.95	25150.55
937.5525	2069.5315	25904.05	25014.35
937.6891	2071.0856	25749.55	24856.9
937.8257	2072.6389	25645.35	24752.6
937.9623	2074.1915	25517.85	24626.7
938.0989	2075.7433	25372.3	24479.3
938.2354	2077.2945	25316.3	24426.9
938.3719	2078.8448	25251.45	24361.3
938.5084	2080.3945	25162.15	24271.35
938.6448	2081.9434	25134.75	24243.85
938.7812	2083.4916	25021.05	24129.75
938.9176	2085.039	24941.65	24048.75
939.054	2086.5857	24905.1	24011.85
939.1903	2088.1317	24806.85	23915.55
939.3267	2089.677	24736.15	23843.6
939.463	2091.2215	24631.75	23741.15
939.5992	2092.7652	24587.95	23693.85
939.7355	2094.3083	24510.85	23620.4
939.8717	2095.8506	24462.85	23572.5
940.0079	2097.3921	24422.2	23531.1
940.1441	2098.933	24267.9	23375.9
940.2802	2100.4731	24255.75	23365.2
940.4163	2102.0124	24191.45	23292.15
940.5524	2103.5511	24116.1	23224.45
940.6885	2105.089	24078.1	23184.95
940.8245	2106.6261	24000.45	23107.65
940.9606	2108.1626	23920.2	23027.4
941.0965	2109.6983	23879.6	22957.1
941.2325	2111.2332	23801.05	22908.15
941.3684	2112.7675	23737.95	22845.95
941.5044	2114.301	23642.75	22749.25
941.6403	2115.8337	23598.2	22706.25
941.7761	2117.3657	23480.8	22589.25
941.912	2118.897	23426.55	22531.85
942.0478	2120.4276	23371.45	22472.95
942.1835	2121.9575	23227.5	22334.8
942.3193	2123.4866	23257.65	22352.9
942.455	2125.0149	23181.2	22287.2
942.5907	2126.5426	23034.3	22143.25
942.7264	2128.0695	22970.45	22075.55
942.8621	2129.5956	22924.5	22034.25
942.9977	2131.1211	22898.15	22004.15
943.1333	2132.6458	22784.2	21892.65
943.2689	2134.1698	22749.65	21858.05
943.4044	2135.693	22652.85	21757.95
943.54	2137.2155	22589.65	21695.7
943.6755	2138.7373	22534.7	21643.55
943.8109	2140.2584	22432.5	21540.85
943.9464	2141.7787	22375.9	21480.15
944.0818	2143.2983	22257.15	21366.5
944.2172	2144.8171	22134.3	21244.25
944.3526	2146.3353	22086.8	21193.15
944.4879	2147.8527	21968.3	21077.2
944.6232	2149.3693	21977.75	21086.2
944.7585	2150.8853	21849.55	20957.15
944.8938	2152.4005	21724.15	20831.1
945.029	2153.9149	21721.35	20828.9
945.1642	2155.4287	21668.4	20775.6
945.2994	2156.9417	21610.3	20715.55
945.4346	2158.454	21507.9	20611.95
945.5697	2159.9655	21465.35	20573.45
945.7048	2161.4764	21428.8	20537.45
945.8399	2162.9865	21345.7	20455.15
945.9749	2164.4958	21280.9	20387.8
946.1099	2166.0045	21188.25	20293.45
946.2449	2167.5124	21136.05	20243.3
946.3799	2169.0195	21127.5	20235.65
946.5148	2170.526	21127.1	20233.1
946.6498	2172.0317	20998.7	20106.75
946.7846	2173.5367	20951.8	20059.45
946.9195	2175.0409	20825.95	19934.25
947.0543	2176.5445	20847.05	19956.25
947.1891	2178.0473	20721.55	19830.1
947.3239	2179.5494	20631.05	19734.9
947.4587	2181.0507	20539.25	19647.65
947.5934	2182.5513	20492.6	19599.35
947.7281	2184.0512	20438	19544.6
947.8628	2185.5504	20340.2	19447.45
947.9974	2187.0488	20230.65	19339.6
948.132	2188.5465	20223.65	19330.7
948.2666	2190.0435	20123.25	19232.2
948.4012	2191.5397	20017.8	19125.75
948.5357	2193.0353	20010.9	19119.55
948.6702	2194.5301	19863.25	18969.1
948.8047	2196.0241	19817.75	18923.1
948.9392	2197.5175	19756.9	18864.05
949.0736	2199.0101	19670.55	18774.9
949.208	2200.502	19535.25	18645.05
949.3424	2201.9931	19472.7	18581.75
949.4767	2203.4835	19377.85	18483.45
949.611	2204.9733	19380.4	18484
949.7453	2206.4622	19309.9	18419
949.8796	2207.9505	19219.45	18325.4
950.0138	2209.438	19147.55	18256.05
950.148	2210.9248	19080.1	18186.5
950.2822	2212.4109	19004.35	18113.5
950.4164	2213.8962	18888.65	17994.3
950.5505	2215.3809	18914.45	18020.35
950.6846	2216.8648	18851	17958.4
950.8186	2218.3479	18775.4	17877.35
950.9527	2219.8304	18665.55	17769.5
951.0867	2221.3121	18590.5	17693.7
951.2207	2222.7931	18560.45	17669.65
951.3546	2224.2733	18461.5	17569.25
951.4886	2225.7529	18410.95	17518
951.6225	2227.2317	18304.1	17408.75
951.7563	2228.7098	18289.1	17396.8
951.8902	2230.1872	18190.1	17295.4
952.024	2231.6638	18194.95	17302.7
952.1578	2233.1397	18087	17187.1
952.2916	2234.6149	18041.3	17147.8
952.4253	2236.0894	17961.5	17069.95
952.559	2237.5632	17927.75	17025.65
952.6927	2239.0362	17862.5	16971
952.8263	2240.5085	17777.25	16884.2
952.9599	2241.9801	17731.1	16838.25
953.0935	2243.4509	17688.65	16796.75
953.2271	2244.921	17627.1	16735.3
953.3606	2246.3904	17511.75	16616.85
953.4941	2247.8591	17446	16552.65
953.6276	2249.3271	17422.1	16529.55
953.7611	2250.7943	17362.75	16469.95
953.8945	2252.2608	17256.95	16364.45
954.0279	2253.7266	17223.3	16333.75
954.1612	2255.1917	17209.6	16316.7
954.2946	2256.656	17099.4	16208.6
954.4279	2258.1197	17083.2	16191.4
954.5612	2259.5826	16985.55	16090.5
954.6944	2261.0447	16972.25	16078.3
954.8276	2262.5062	16871.25	15975.85
954.9608	2263.9669	16859.65	15964.7
955.094	2265.4269	16835.4	15943.75
955.2271	2266.8862	16766.2	15873.2
955.3602	2268.3448	16716.65	15822.2
955.4933	2269.8026	16669.05	15777.65
955.6264	2271.2598	16575.6	15684.55
955.7594	2272.7162	16541.55	15649.1
955.8924	2274.1719	16464.35	15570.1
956.0253	2275.6268	16410.5	15518.6
956.1583	2277.0811	16407.3	15514.45
956.2912	2278.5346	16323.6	15430.9
956.4241	2279.9874	16295.1	15401.25
956.5569	2281.4395	16254.4	15361.5
956.6897	2282.8908	16207.15	15311.9
956.8225	2284.3414	16182.25	15288.05
956.9553	2285.7914	16099.85	15209.3
957.088	2287.2406	16041.1	15147.8
957.2207	2288.689	15964.8	15072.35
957.3534	2290.1368	15910	15018.25
957.486	2291.5838	15875	14977.95
957.6186	2293.0302	15843.05	14946.95
957.7512	2294.4758	15739.05	14847.8
957.8838	2295.9206	15697.8	14803.85
958.0163	2297.3648	15674.2	14783.35
958.1488	2298.8082	15651.1	14757.6
958.2813	2300.251	15609.35	14716.6
958.4137	2301.693	15509.35	14613.4
958.5461	2303.1343	15486.85	14593.55
958.6785	2304.5748	15427.5	14534.25
958.8108	2306.0147	15367.6	14474.85
958.9432	2307.4538	15320.45	14424.7
959.0754	2308.8922	15256.2	14367.3
959.2077	2310.3299	15211.6	14320.05
959.3399	2311.7669	15147.7	14256.2
959.4721	2313.2031	15112	14219.6
959.6043	2314.6387	15049.05	14156
959.7365	2316.0735	14999	14106.65
959.8686	2317.5076	14985.6	14092.05
960.0006	2318.941	14915.65	14022.6
960.1327	2320.3737	14864.7	13973.45
960.2647	2321.8056	14798.85	13903.95
960.3967	2323.2369	14753.8	13859.5
960.5287	2324.6674	14742.95	13847.1
960.6606	2326.0972	14676.1	13780.8
960.7925	2327.5263	14606.2	13713.2
960.9244	2328.9547	14565.35	13671.85
961.0562	2330.3823	14505.5	13612.1
961.1881	2331.8092	14490.35	13595.2
961.3198	2333.2355	14404.6	13512.2
961.4516	2334.661	14394.95	13501.85
961.5833	2336.0858	14360.1	13465.1
961.715	2337.5098	14318.55	13426.75
961.8467	2338.9332	14293	13399.5
961.9783	2340.3558	14236.95	13339.75
962.1099	2341.7778	14153.2	13260.2
962.2415	2343.199	14088.8	13194.15
962.373	2344.6195	14062.6	13171.1
962.5045	2346.0393	14034.85	13144.4
962.636	2347.4583	13984.25	13090.05
962.7675	2348.8767	13931.9	13038.45
962.8989	2350.2943	13928.55	13036.35
963.0303	2351.7113	13898.6	13005.35
963.1617	2353.1275	13836.45	12942.4
963.293	2354.543	13779.15	12877.6
963.4243	2355.9578	13699.3	12807.45
963.5556	2357.3718	13610.4	12718.15
963.6868	2358.7852	13585.4	12688.55
963.818	2360.1978	13544.75	12649.95
963.9492	2361.6098	13508.65	12616.5
964.0803	2363.021	13465.8	12570.25
964.2114	2364.4315	13403.7	12509.2
964.3425	2365.8413	13364.55	12470.7
964.4736	2367.2504	13320.5	12428.85
964.6046	2368.6587	13244	12351.4
964.7356	2370.0664	13208.35	12316.75
964.8666	2371.4733	13150.75	12257.95
964.9975	2372.8795	13081.2	12189
965.1284	2374.285	13041.55	12149.8
965.2593	2375.6899	12985.05	12094.05
965.3901	2377.0939	12910.9	12019.75
965.5209	2378.4973	12837.5	11946.4
965.6517	2379.9	12784.05	11890.7
965.7825	2381.3019	12751.8	11859.45
965.9132	2382.7032	12702.8	11811
966.0439	2384.1037	12681.45	11790.4
966.1745	2385.5035	12646.25	11755.05
966.3051	2386.9027	12595.6	11704.75
966.4357	2388.3011	12581.7	11686.9
966.5663	2389.6987	12542.7	11648.6
966.6968	2391.0957	12489.3	11596.2
966.8273	2392.492	12421	11531.55
966.9578	2393.8876	12329.9	11436.8
967.0882	2395.2824	12280.55	11388.65
967.2186	2396.6765	12228.2	11338.2
967.349	2398.07	12163.25	11273.15
967.4793	2399.4627	12175.15	11283.95
967.6097	2400.8547	12107.65	11215.65
967.7399	2402.246	12074.75	11175.45
967.8702	2403.6366	12026.8	11136.05
968.0004	2405.0265	11944.9	11055.5
968.1306	2406.4156	11929.75	11036.6
968.2607	2407.8041	11869.9	10975.9
968.3909	2409.1918	11828.15	10935.7
968.521	2410.5789	11774.05	10883.2
968.651	2411.9652	11724.05	10830.95
968.781	2413.3508	11675.55	10784.4
968.911	2414.7358	11649.35	10756.05
969.041	2416.12	11604.45	10716.35
969.1709	2417.5035	11558.1	10667.6
969.3008	2418.8863	11504.95	10612.45
969.4307	2420.2684	11506.15	10612.6
969.5606	2421.6497	11412.5	10518.55
969.6904	2423.0304	11345.8	10454.6
969.8201	2424.4104	11334.85	10442.8
969.9499	2425.7896	11294.1	10400.35
970.0796	2427.1682	11243.05	10352.85
970.2093	2428.546	11218.85	10325.9
970.3389	2429.9232	11196.5	10301.8
970.4685	2431.2996	11177.3	10285.85
970.5981	2432.6753	11169.25	10278.8
970.7277	2434.0503	11085	10192.85
970.8572	2435.4246	11037.15	10145.9
970.9867	2436.7982	11015.1	10122
971.1161	2438.1711	10971.35	10079.65
971.2456	2439.5433	10922.95	10029.6
971.375	2440.9148	10857.65	9966.75
971.5043	2442.2856	10841	9950.35
971.6336	2443.6557	10782.65	9888.15
971.7629	2445.025	10734.75	9842.15
971.8922	2446.3937	10719.4	9828.35
972.0214	2447.7617	10700.35	9807.9
972.1506	2449.1289	10678.6	9785.9
972.2798	2450.4955	10653.85	9756.85
972.4089	2451.8613	10622.9	9731.55
972.538	2453.2265	10590.7	9699.45
972.6671	2454.5909	10553.3	9661.05
972.7961	2455.9546	10517.15	9625.15
972.9251	2457.3177	10470.2	9578.7
973.0541	2458.68	10456.55	9562.75
973.1831	2460.0416	10428.3	9537.35
973.312	2461.4025	10417	9523.05
973.4408	2462.7627	10374.1	9467.75
973.5697	2464.1222	10343.35	9452.15
973.6985	2465.4811	10303.05	9410.7
973.8273	2466.8392	10264.5	9374.25
973.956	2468.1966	10257.6	9362.8
974.0847	2469.5533	10241.2	9347.4
974.2134	2470.9093	10190.2	9297.55
974.3421	2472.2645	10162.5	9270.2
974.4707	2473.6191	10125.6	9235.5
974.5993	2474.973	10084.6	9191.95
974.7278	2476.3262	10057.4	9164.2
974.8563	2477.6787	9995.55	9104
974.9848	2479.0305	9941.3	9049.45
975.1132	2480.3816	9902.9	9008.6
975.2417	2481.7319	9890.6	8998.9
975.37	2483.0816	9852.55	8957.45
975.4984	2484.4306	9795.8	8904.65
975.6267	2485.7789	9754.9	8862.5
975.755	2487.1264	9712.65	8820.15
975.8833	2488.4733	9677.1	8786.25
976.0115	2489.8195	9664.25	8754.9
976.1397	2491.165	9642.75	8748.45
976.2678	2492.5097	9567.2	8671.2
976.3959	2493.8538	9519.55	8628.35
976.524	2495.1972	9489.95	8598.9
976.6521	2496.5398	9456.5	8561.75
976.7801	2497.8818	9432.85	8537.15
976.9081	2499.2231	9394.25	8502.95
977.036	2500.5637	9362.25	8469.8
977.164	2501.9035	9321.2	8428.35
977.2918	2503.2427	9302.6	8407.05
977.4197	2504.5812	9259.3	8366.5
977.5475	2505.919	9247.4	8354.05
977.6753	2507.256	9238.4	8346.45
977.8031	2508.5924	9195.4	8304.45
977.9308	2509.9281	9147.25	8249.55
978.0585	2511.2631	9097	8207
978.1861	2512.5974	9092.85	8200.1
978.3137	2513.9309	9050.75	8158.1
978.4413	2515.2638	9026.65	8102.8
978.5689	2516.596	8970.1	8076.85
978.6964	2517.9275	8944.3	8051.65
978.8239	2519.2583	8916.2	8023.4
978.9513	2520.5884	8856.95	7961.75
979.0788	2521.9178	8848.15	7955.25
979.2062	2523.2465	8816.4	7925.95
979.3335	2524.5745	8766.4	7875.65
979.4608	2525.9018	8764.85	7872.85
979.5881	2527.2284	8722.75	7831.25
979.7154	2528.5543	8714.3	7824.25
979.8426	2529.8796	8686.1	7796.15
979.9698	2531.2041	8667	7775.7
980.0969	2532.5279	8646.65	7756.55
980.224	2533.851	8614.8	7721.35
980.3511	2535.1735	8587.5	7695.95
980.4781	2536.4952	8562.15	7669.4
980.6052	2537.8163	8542.3	7650.05
980.7321	2539.1366	8509.45	7617.4
980.8591	2540.4562	8479.7	7585
980.986	2541.7752	8479.45	7589.3
981.1129	2543.0935	8453.45	7563.5
981.2397	2544.411	8442.35	7547.75
981.3665	2545.7279	8419.65	7527.85
981.4933	2547.0441	8395.4	7503.05
981.62	2548.3596	8394.5	7499.95
981.7467	2549.6744	8358.3	7465.9
981.8734	2550.9885	8329.2	7433.65
982.0001	2552.3019	8296.3	7405.15
982.1267	2553.6146	8262.05	7370.65
982.2532	2554.9266	8236.3	7344.65
982.3798	2556.2379	8227.15	7333.95
982.5063	2557.5485	8213.55	7322.8
982.6327	2558.8585	8182.85	7284.85
982.7592	2560.1677	8144.15	7244.85
982.8856	2561.4762	8143.75	7253.5
983.0119	2562.7841	8116.8	7223.3
983.1383	2564.0913	8114.7	7222.25
983.2646	2565.3977	8075.75	7186
983.3908	2566.7035	8031.45	7139.25
983.517	2568.0086	8058.45	7164.9
983.6432	2569.313	8042.95	7148.8
983.7694	2570.6167	8003.7	7106.2
983.8955	2571.9197	7977.8	7086.3
984.0216	2573.222	7961.85	7066.35
984.1476	2574.5236	7951.8	7058.1
984.2737	2575.8246	7926	7033.5
984.3996	2577.1248	7893.2	6997.8
984.5256	2578.4244	7878	6986.9
984.6515	2579.7232	7907.2	7016.75
984.7774	2581.0214	7883.75	6968.15
984.9032	2582.3189	7832.4	6940.85
985.029	2583.6157	7825.85	6929.6
985.1548	2584.9118	7798.4	6905.35
985.2806	2586.2072	7791.35	6898.4
985.4063	2587.5019	7759.1	6868.2
985.5319	2588.7959	7751.85	6858.85
985.6576	2590.0893	7733.4	6838.9
985.7832	2591.3819	7699.95	6809.6
985.9087	2592.6739	7660.95	6769.25
986.0343	2593.9652	7646.45	6750.9
986.1597	2595.2557	7621.45	6731.9
986.2852	2596.5456	7587.75	6693.7
986.4106	2597.8348	7577.45	6685.65
986.536	2599.1234	7524.6	6633.4
986.6614	2600.4112	7507	6612.55
986.7867	2601.6983	7502.65	6606.95
986.912	2602.9848	7476.35	6582.9
987.0372	2604.2705	7449.5	6548.95
987.1624	2605.5556	7436.9	6546.45
987.2876	2606.84	7380.2	6488.95
987.4128	2608.1237	7364.05	6471
987.5379	2609.4067	7328.3	6434.9
987.6629	2610.689	7303.05	6400.05
987.788	2611.9707	7289.2	6394
987.913	2613.2516	7265.25	6366.6
988.0379	2614.5319	7236.15	6343.35
988.1629	2615.8115	7195.9	6303.55
988.2878	2617.0903	7148.4	6253.75
988.4126	2618.3685	7162.95	6269.7
988.5375	2619.6461	7126.4	6234.65
988.6622	2620.9229	7099.75	6208.5
988.787	2622.199	7081.25	6187.05
988.9117	2623.4745	7052.2	6157.05
989.0364	2624.7493	7016.4	6125
989.161	2626.0234	7004.5	6113.6
989.2857	2627.2968	6994.7	6101.35
989.4102	2628.5695	6939.05	6044.4
989.5348	2629.8415	6914.8	6023.2
989.6593	2631.1128	6893.8	6000.3
989.7837	2632.3835	6857.15	5964.45
989.9082	2633.6535	6848.6	5955.4
990.0326	2634.9228	6826.3	5935.3
990.1569	2636.1914	6809.3	5918.6
990.2812	2637.4593	6790.4	5892.5
990.4055	2638.7265	6761.35	5867.5
990.5298	2639.9931	6730.05	5835.85
990.654	2641.259	6711.85	5817.2
990.7782	2642.5242	6693.35	5800.65
990.9023	2643.7887	6647.1	5757.35
991.0264	2645.0525	6656.75	5764.05
991.1505	2646.3156	6629	5736.3
991.2745	2647.5781	6606.3	5713.7
991.3985	2648.8398	6581.2	5689.15
991.5225	2650.1009	6568.95	5666.8
991.6464	2651.3613	6523.3	5628.2
991.7703	2652.6211	6508.65	5616.95
991.8942	2653.8801	6498.55	5606.95
992.018	2655.1385	6481.75	5587.95
992.1418	2656.3961	6465.25	5574.45
992.2655	2657.6531	6483.2	5590.65
992.3892	2658.9094	6448.4	5554.45
992.5129	2660.1651	6405.6	5513.8
992.6366	2661.42	6407.05	5514.4
992.7602	2662.6743	6398.1	5503.55
992.8837	2663.9279	6396.95	5505.75
993.0073	2665.1808	6356.95	5464.75
993.1307	2666.433	6342	5449.2
993.2542	2667.6846	6326.35	5433.4
993.3776	2668.9354	6315.8	5420.9
993.501	2670.1856	6296.6	5403.05
993.6244	2671.4351	6277.75	5384.1
993.7477	2672.6839	6260.35	5365.35
993.8709	2673.9321	6249.55	5359.45
993.9942	2675.1795	6234.05	5341.9
994.1174	2676.4263	6232.1	5341
994.2405	2677.6724	6186.4	5294.9
994.3637	2678.9179	6182.5	5289.7
994.4868	2680.1626	6164.75	5273.15
994.6098	2681.4067	6166.25	5272.95
994.7328	2682.6501	6120.5	5226.85
994.8558	2683.8928	6091.65	5200.35
994.9788	2685.1348	6071.6	5181.2
995.1017	2686.3761	6058.25	5165.65
995.2245	2687.6168	6030.9	5138.8
995.3474	2688.8568	6023.35	5131.65
995.4702	2690.0961	5994.95	5104.1
995.5929	2691.3348	5985.4	5093.9
995.7156	2692.5727	5964.2	5069.8
995.8383	2693.81	5918.35	5024.6
995.961	2695.0466	5913.75	5022.05
996.0836	2696.2826	5899.5	5004.55
996.2062	2697.5178	5892.3	4999.3
996.3287	2698.7524	5866.85	4974.8
996.4512	2699.9863	5851.55	4958.2
996.5737	2701.2195	5843.4	4952.15
996.6961	2702.452	5819.65	4927.15
996.8185	2703.6839	5810	4915
996.9408	2704.9151	5775.1	4883.75
997.0631	2706.1456	5777.95	4886.8
997.1854	2707.3755	5769.05	4876.1
997.3077	2708.6046	5760.45	4865.9
997.4299	2709.8331	5737.65	4845.75
997.552	2711.0609	5709.4	4819.05
997.6742	2712.2881	5694.95	4802.6
997.7963	2713.5145	5698.05	4804.9
997.9183	2714.7403	5676.25	4785.3
998.0403	2715.9654	5664.5	4771.65
998.1623	2717.1899	5658.15	4751.3
998.2842	2718.4136	5656.85	4763.5
998.4062	2719.6367	5648.95	4757.85
998.528	2720.8591	5645.05	4746.45
998.6498	2722.0809	5628.2	4736
998.7716	2723.3019	5600.35	4705.75
998.8934	2724.5223	5603.9	4710.9
999.0151	2725.7421	5591.4	4698.15
999.1368	2726.9611	5576.5	4683.65
999.2584	2728.1795	5561.9	4665.2
999.38	2729.3972	5527.4	4634.2
999.5016	2730.6142	5518.65	4618.2
999.6231	2731.8306	5455.15	4563.1
999.7446	2733.0462	5436.7	4543.55
999.8661	2734.2612	5411.4	4514.6
999.9875	2735.4756	5380	4486.25
1000.1089	2736.6892	5333.35	4440.9
1000.2302	2737.9022	5307.9	4417.45
1000.3515	2739.1145	5284.85	4393.4
1000.4728	2740.3262	5252.05	4351.7
1000.594	2741.5372	5215.6	4323.4
1000.7152	2742.7475	5202.15	4312.55
1000.8363	2743.9571	5167.45	4273.65
1000.9575	2745.1661	5162.65	4265.7
1001.0785	2746.3744	5142.45	4248.75
1001.1996	2747.582	5108.05	4217.55
1001.3206	2748.7889	5083.35	4190.25
1001.4415	2749.9952	5063.25	4172.05
1001.5625	2751.2008	5033.35	4140.4
1001.6833	2752.4057	5036.4	4141.15
1001.8042	2753.61	5005.15	4109.9
1001.925	2754.8136	4997.6	4102.1
1002.0458	2756.0165	4990.4	4099.15
1002.1665	2757.2188	4948	4056.05
1002.2872	2758.4204	4942.45	4050.75
1002.4078	2759.6213	4928.15	4032.85
1002.5285	2760.8215	4914.05	4016.65
1002.649	2762.0211	4905.9	4012
1002.7696	2763.22	4886	3990.75
1002.8901	2764.4182	4875.85	3980.5
1003.0106	2765.6158	4850.05	3957.55
1003.131	2766.8127	4836.3	3944.5
1003.2514	2768.009	4823.95	3933.05
1003.3717	2769.2045	4806.25	3913.5
1003.492	2770.3994	4788.95	3894.35
1003.6123	2771.5936	4780.8	3887.6
1003.7325	2772.7872	4755.65	3863.9
1003.8527	2773.9801	4724.25	3829.35
1003.9729	2775.1723	4737.85	3828.05
1004.093	2776.3639	4703	3811.5
1004.2131	2777.5548	4690.1	3796.35
1004.3331	2778.745	4692.5	3800.1
1004.4531	2779.9346	4667.05	3776.55
1004.5731	2781.1235	4669.25	3775.3
1004.693	2782.3117	4626.4	3737.55
1004.8129	2783.4992	4627.4	3735.95
1004.9328	2784.6861	4622.05	3730.05
1005.0526	2785.8723	4625.9	3731.85
1005.1723	2787.0579	4595.85	3704.05
1005.2921	2788.2428	4599.6	3707.65
1005.4118	2789.427	4601.35	3712.05
1005.5314	2790.6106	4580.05	3686.25
1005.651	2791.7935	4581.4	3688.25
1005.7706	2792.9757	4573.6	3682.45
1005.8902	2794.1573	4584.4	3690.85
1006.0097	2795.3382	4564.75	3671.5
1006.1291	2796.5184	4558.8	3669.6
1006.2485	2797.698	4578.45	3686.05
1006.3679	2798.8769	4569.9	3677.25
1006.4873	2800.0551	4573.75	3681.95
1006.6066	2801.2327	4575.35	3680.9
1006.7258	2802.4096	4588	3695.8
1006.8451	2803.5859	4590.4	3697.5
1006.9642	2804.7615	4592.25	3699.65
1007.0834	2805.9364	4601.5	3710.9
1007.2025	2807.1106	4616	3725.4
1007.3216	2808.2842	4627.25	3735.05
1007.4406	2809.4572	4636.75	3745.65
1007.5596	2810.6294	4694.6	3801.6
1007.6785	2811.801	4703.05	3811.6
1007.7975	2812.972	4733.05	3843.05
1007.9163	2814.1423	4770	3878
1008.0352	2815.3119	4800.4	3908.3
1008.154	2816.4808	4840.15	3949.9
1008.2727	2817.6491	4901.1	4007.15
1008.3914	2818.8167	4912.35	4022.75
1008.5101	2819.9837	4966.2	4068.9
1008.6288	2821.15	4985.25	4093.3
1008.7474	2822.3157	5027.05	4135.05
1008.8659	2823.4807	5062.8	4172.15
1008.9844	2824.645	5113.55	4220.9
1009.1029	2825.8086	5133.5	4240.75
1009.2214	2826.9716	5138.8	4246.1
1009.3398	2828.134	5182.55	4289.65
1009.4581	2829.2957	5215.4	4322.75
1009.5764	2830.4567	5247.65	4357.05
1009.6947	2831.617	5245.45	4353.85
1009.813	2832.7767	5245.75	4354.6
1009.9312	2833.9358	5238.35	4347.85
1010.0493	2835.0941	5223.45	4332.25
1010.1675	2836.2519	5198.1	4305.9
1010.2855	2837.4089	5177.85	4285.05
1010.4036	2838.5653	5159.45	4267.5
1010.5216	2839.7211	5163.45	4274.6
1010.6396	2840.8761	5164.85	4270.9
1010.7575	2842.0306	5182.15	4291.75
1010.8754	2843.1843	5207.5	4315.55
1010.9932	2844.3374	5248.55	4356.7
1011.111	2845.4899	5276.75	4382.15
1011.2288	2846.6417	5362.8	4470.35
1011.3465	2847.7928	5419.9	4528.8
1011.4642	2848.9433	5499	4608
1011.5818	2850.0931	5577.15	4686.1
1011.6995	2851.2422	5627.75	4733.25
1011.817	2852.3907	5709.45	4816.65
1011.9345	2853.5385	5786.95	4893.5
1012.052	2854.6857	5837.25	4917.3
1012.1695	2855.8323	5842.85	4948.65
1012.2869	2856.9781	5890.35	4999.35
1012.4042	2858.1233	5939.25	5048.35
1012.5216	2859.2679	5961.35	5072.85
1012.6389	2860.4118	5999.9	5108.65
1012.7561	2861.555	6028.35	5130
1012.8733	2862.6976	6059	5165.85
1012.9905	2863.8395	6068	5175
1013.1076	2864.9808	6093.95	5202.2
1013.2247	2866.1214	6064.55	5172.8
1013.3417	2867.2614	6080.35	5189.2
1013.4587	2868.4007	6087.5	5194.3
1013.5757	2869.5393	6093.95	5202.25
1013.6926	2870.6773	6106.7	5211.2
1013.8095	2871.8146	6096.05	5200.15
1013.9263	2872.9513	6098.15	5206
1014.0431	2874.0874	6053.9	5161.4
1014.1599	2875.2227	6026.9	5135.85
1014.2766	2876.3574	6001.8	5109
1014.3933	2877.4915	5989.35	5097.7
1014.51	2878.6249	5960.3	5069.35
1014.6266	2879.7577	5914.7	5021.35
1014.7431	2880.8898	5893.7	4992.35
1014.8596	2882.0212	5846.9	4955.2
1014.9761	2883.152	5840.65	4948.5
1015.0925	2884.2821	5812.7	4920.2
1015.2089	2885.4116	5774.6	4884.6
1015.3253	2886.5405	5783.75	4892.7
1015.4416	2887.6686	5789.65	4895.55
1015.5579	2888.7962	5764.8	4874.3
1015.6741	2889.923	5775.6	4885.45
1015.7903	2891.0493	5759.5	4869.4
1015.9065	2892.1748	5773.8	4883.65
1016.0226	2893.2997	5780.5	4889.6
1016.1387	2894.424	5785.1	4895.7
1016.2547	2895.5476	5783.2	4890.8
1016.3707	2896.6706	5792.6	4902.25
1016.4866	2897.7929	5801.75	4907.6
1016.6025	2898.9145	5838.35	4945.4
1016.7184	2900.0355	5850.8	4957
1016.8342	2901.1559	5874.85	4981.85
1016.95	2902.2756	5918.8	5028
1017.0658	2903.3946	5941.4	5051.1
1017.1815	2904.513	5947.45	5053.3
1017.2971	2905.6308	5947.25	5055.2
1017.4127	2906.7479	5959.3	5068.35
1017.5283	2907.8643	5968.6	5078.05
1017.6439	2908.9801	5981.3	5089.55
1017.7594	2910.0953	5987.75	5094.95
1017.8748	2911.2098	5977.15	5081.25
1017.9902	2912.3236	5974.15	5073.6
1018.1056	2913.4368	5943.1	5047.4
1018.2209	2914.5494	5906.1	5015.15
1018.3362	2915.6613	5878.25	4982.45
1018.4515	2916.7725	5837.9	4942.9
1018.5667	2917.8831	5804.85	4911.65
1018.6819	2918.9931	5774.75	4879.25
1018.797	2920.1024	5722.15	4831.7
1018.9121	2921.211	5696.25	4805.2
1019.0271	2922.319	5687.85	4796.45
1019.1421	2923.4264	5656.05	4765.25
1019.2571	2924.5331	5631.1	4739.8
1019.372	2925.6391	5610.55	4718.85
1019.4869	2926.7445	5586.6	4696
1019.6017	2927.8493	5576.2	4684.3
1019.7165	2928.9534	5560.8	4669.05
1019.8313	2930.0569	5544.75	4650.95
1019.946	2931.1597	5520.8	4628.55
1020.0606	2932.2619	5491.3	4599.55
1020.1753	2933.3634	5493.7	4602.8
1020.2899	2934.4643	5488.7	4590.7
1020.4044	2935.5645	5457.5	4559.9
1020.5189	2936.6641	5413.4	4517.35
1020.6334	2937.763	5353.55	4462.3
1020.7478	2938.8613	5299.1	4406.9
1020.8622	2939.959	5235.1	4339.2
1020.9765	2941.056	5155.95	4265.95
1021.0908	2942.1523	5057.1	4166.1
1021.2051	2943.248	4947.4	4055.35
1021.3193	2944.3431	4851.55	3960.45
1021.4334	2945.4375	4744.65	3852.95
1021.5476	2946.5313	4626.95	3735.3
1021.6617	2947.6244	4526.35	3635.6
1021.7757	2948.7169	4421.1	3528.3
1021.8897	2949.8087	4324.55	3433.2
1022.0037	2950.8999	4206.85	3314.8
1022.1176	2951.9904	4133.95	3241.75
1022.2315	2953.0803	4048.2	3156.55
1022.3453	2954.1696	3971	3080.65
1022.4591	2955.2582	3924.75	3033.45
1022.5728	2956.3462	3858.8	2966.7
1022.6865	2957.4335	3808.65	2917.55
1022.8002	2958.5202	3765.3	2871.35
1022.9138	2959.6062	3727.55	2834.75
1023.0274	2960.6916	3703.85	2813.6
1023.141	2961.7764	3678.15	2786.95
1023.2545	2962.8605	3641.4	2750.35
1023.3679	2963.9439	3630.7	2742.4
1023.4813	2965.0267	3611.55	2718.6
1023.5947	2966.1089	3607.4	2693.95
1023.708	2967.1905	3572.9	2682
1023.8213	2968.2714	3569.9	2680.75
1023.9346	2969.3516	3555.3	2664.95
1024.0478	2970.4312	3568.45	2671
1024.1609	2971.5102	3536.3	2645.15
1024.274	2972.5885	3523.65	2633.3
1024.3871	2973.6662	3526.75	2629.45
1024.5002	2974.7432	3519	2626.45
1024.6132	2975.8196	3502.9	2612.5
1024.7261	2976.8954	3468.6	2578.35
1024.839	2977.9705	3464.2	2574.7
1024.9519	2979.045	3449.2	2559.4
1025.0647	2980.1188	3425.3	2534.5
1025.1775	2981.192	3398.15	2509.05
1025.2902	2982.2645	3369.85	2477.1
1025.4029	2983.3364	3332.5	2441.95
1025.5156	2984.4077	3298.95	2409.3
1025.6282	2985.4783	3273.55	2376.2
1025.7407	2986.5483	3232.65	2342.9
1025.8532	2987.6177	3186.65	2297.4
1025.9657	2988.6864	3137.65	2245.6
1026.0782	2989.7545	3109.95	2218.05
1026.1906	2990.8219	3083.8	2193.3
1026.3029	2991.8887	3028.8	2135.85
1026.4152	2992.9548	3001.5	2108.4
1026.5275	2994.0204	2960.25	2070.75
1026.6397	2995.0852	2916.7	2026.9
1026.7519	2996.1495	2913.9	2020.8
1026.864	2997.2131	2869.05	1979
1026.9761	2998.276	2839.1	1946.8
1027.0882	2999.3383	2811.3	1917.9
1027.2002	3000.4	2777.15	1884.45
1027.3122	3001.4611	2773.3	1880.9
1027.4241	3002.5215	2760.25	1870.45
1027.536	3003.5812	2731.15	1839.85
1027.6478	3004.6404	2721.8	1832.3
1027.7596	3005.6989	2696.6	1802.05
1027.8714	3006.7567	2691.2	1800.05
1027.9831	3007.8139	2688.45	1775.75
1028.0947	3008.8705	2670.5	1779.2
1028.2064	3009.9264	2653.55	1759.15
1028.3179	3010.9818	2653.5	1763.6
1028.4295	3012.0364	2635.05	1742.6
1028.541	3013.0905	2632.75	1739.8
1028.6524	3014.1439	2611.5	1720.4
1028.7638	3015.1966	2623.5	1732.9
1028.8752	3016.2487	2615.45	1725.45
1028.9865	3017.3002	2607.8	1709.5
1029.0978	3018.3511	2591.15	1701.55
1029.209	3019.4013	2581.45	1689.3
1029.3202	3020.4509	2583.05	1693.15
1029.4314	3021.4998	2594.25	1702.75
1029.5425	3022.5481	2575.1	1684.75
1029.6535	3023.5958	2576.05	1686.75
1029.7645	3024.6428	2564.2	1673.25
1029.8755	3025.6892	2567.75	1677.4
1029.9864	3026.735	2568.65	1676.15
1030.0973	3027.7802	2551.25	1660.25
1030.2082	3028.8247	2552.5	1662.25
1030.319	3029.8685	2541.65	1650.45
1030.4297	3030.9118	2549.6	1658.75
1030.5404	3031.9544	2547.05	1658.6
1030.6511	3032.9963	2551.8	1660.9
1030.7617	3034.0376	2541.1	1650.2
1030.8723	3035.0783	2544.45	1649.8
1030.9829	3036.1184	2548.9	1655.5
1031.0934	3037.1578	2539.05	1648.05
1031.2038	3038.1966	2536.3	1644.3
1031.3142	3039.2348	2532.15	1641.2
1031.4246	3040.2723	2542.05	1644.35
1031.5349	3041.3092	2528.15	1638.5
1031.6452	3042.3455	2521.45	1631.1
1031.7554	3043.3811	2497.85	1607.65
1031.8656	3044.4161	2494.7	1603.4
1031.9758	3045.4505	2482.4	1591.45
1032.0859	3046.4842	2476.7	1584.55
1032.1959	3047.5173	2468.4	1577.95
1032.3059	3048.5498	2450.35	1559.5
1032.4159	3049.5816	2443.65	1552.15
1032.5258	3050.6128	2436.4	1546.2
1032.6357	3051.6434	2423.25	1531
1032.7455	3052.6734	2409.8	1517
1032.8553	3053.7027	2393.65	1502.05
1032.9651	3054.7314	2393.5	1503.8
1033.0748	3055.7594	2371.85	1481.95
1033.1845	3056.7868	2365.25	1473.3
1033.2941	3057.8136	2361.6	1472.7
1033.4037	3058.8398	2341.75	1450.55
1033.5132	3059.8653	2344.55	1452.8
1033.6227	3060.8902	2322.1	1431.45
1033.7321	3061.9145	2323.2	1432.95
1033.8415	3062.9381	2310.4	1419.75
1033.9509	3063.9612	2317.1	1410.25
1034.0602	3064.9835	2300.1	1408.5
1034.1694	3066.0053	2289.9	1398
1034.2787	3067.0264	2265.15	1374.75
1034.3878	3068.0469	2261.55	1371.85
1034.497	3069.0668	2235.3	1341.65
1034.6061	3070.086	2231.25	1341.15
1034.7151	3071.1046	2216.95	1326.45
1034.8241	3072.1226	2200.65	1308.3
1034.9331	3073.1399	2194.65	1303.5
1035.042	3074.1567	2178.95	1287.95
1035.1508	3075.1727	2165.6	1270.9
1035.2597	3076.1882	2151.2	1261.1
1035.3684	3077.203	2138.7	1248.5
1035.4772	3078.2173	2123.7	1233.15
1035.5859	3079.2308	2126.75	1232.95
1035.6945	3080.2438	2118.25	1224.8
1035.8031	3081.2561	2096.4	1204.8
1035.9117	3082.2678	2091.45	1202.55
1036.0202	3083.2789	2073.55	1181.75
1036.1286	3084.2893	2062.25	1171.55
1036.2371	3085.2991	2048.1	1156.1
1036.3454	3086.3083	2045.85	1150.9
1036.4538	3087.3169	2041.35	1147.95
1036.562	3088.3248	2036.65	1145.05
1036.6703	3089.3321	2012.05	1118.4
1036.7785	3090.3388	2007.25	1117.1
1036.8866	3091.3449	2005.55	1115.2
1036.9948	3092.3503	1999.65	1107.1
1037.1028	3093.3551	1985.95	1097.95
1037.2108	3094.3593	1977.25	1086.6
1037.3188	3095.3629	1969.95	1079.5
1037.4267	3096.3658	1971.35	1080.65
1037.5346	3097.3681	1964.55	1073.95
1037.6425	3098.3698	1956.8	1064.1
1037.7503	3099.3708	1950.4	1053.75
1037.858	3100.3713	1928.05	1037.55
1037.9657	3101.3711	1932.5	1042.5
1038.0734	3102.3702	2036.4	1027.95
1038.181	3103.3688	1930.15	1037.1
1038.2886	3104.3667	1910.6	1019.9
1038.3961	3105.364	1908.9	1018.8
1038.5036	3106.3607	1894.7	1003.05
1038.611	3107.3568	1886.55	994.85
1038.7184	3108.3522	1884.05	995.6
1038.8257	3109.347	1887.4	996.4
1038.933	3110.3412	1869.5	973.5
1039.0403	3111.3348	1856	963.85
1039.1475	3112.3277	1853	962.8
1039.2547	3113.32	1851.65	962.15
1039.3618	3114.3117	1843.8	953.25
1039.4689	3115.3028	1851.45	960.4
1039.5759	3116.2932	1833.7	942.75
1039.6829	3117.2831	1834.95	940.15
1039.7898	3118.2723	1828.75	938.45
1039.8967	3119.2608	1818.35	928.4
1040.0035	3120.2488	1814.4	923.55
1040.1103	3121.2361	1803.75	912.85
1040.2171	3122.2229	1804.4	913.2
1040.3238	3123.209	1806.05	914.55
1040.4305	3124.1944	1791.2	902.4
1040.5371	3125.1793	1791.75	899.95
1040.6437	3126.1635	1774.5	884.45
1040.7502	3127.1471	1778.9	890.4
1040.8567	3128.1301	1770.9	880.55
1040.9631	3129.1125	1770.7	881.25
1041.0695	3130.0942	1765.7	874.7
1041.1759	3131.0753	1768.65	869.75
1041.2822	3132.0558	1756.3	859.7
1041.3884	3133.0357	1751	859.5
1041.4946	3134.015	1750.4	857.95
1041.6008	3134.9936	1743.9	852.4
1041.7069	3135.9716	1763.55	851.45
1041.813	3136.949	1734.2	845.05
1041.919	3137.9258	1740.9	846.15
1042.025	3138.902	1728.1	830.95
1042.1309	3139.8775	1719.4	828.2
1042.2368	3140.8524	1723.7	834.35
1042.3427	3141.8267	1726.5	832.7
1042.4485	3142.8004	1712.75	823
1042.5542	3143.7735	1721.35	824.65
1042.6599	3144.7459	1709.4	814.2
1042.7656	3145.7178	1703.75	814.1
1042.8712	3146.689	1699.7	811.6
1042.9768	3147.6596	1687.85	796.8
1043.0823	3148.6295	1692.55	800.05
1043.1878	3149.5989	1678.35	789.55
1043.2932	3150.5676	1680.8	790.55
1043.3986	3151.5357	1680.1	790.35
1043.5039	3152.5032	1673.95	783.3
1043.6092	3153.4701	1664.75	776.35
1043.7145	3154.4364	1662.6	770.85
1043.8197	3155.402	1658.7	770.15
1043.9248	3156.367	1654	764.25
1044.03	3157.3315	1689.7	754.65
1044.135	3158.2952	1645.9	757.05
1044.24	3159.2584	1631.55	741.2
1044.345	3160.221	1631.55	741.7
1044.4499	3161.1829	1630.45	741.3
1044.5548	3162.1442	1618.2	727.7
1044.6596	3163.105	1615.25	724.4
1044.7644	3164.065	1611.9	720.1
1044.8692	3165.0245	1609.1	716.5
1044.9739	3165.9834	1603.8	715.1
1045.0785	3166.9416	1600.4	710.7
1045.1831	3167.8993	1600.45	709.05
1045.2877	3168.8563	1592.45	701.6
1045.3922	3169.8127	1595	705.95
1045.4966	3170.7684	1582.2	692.55
1045.6011	3171.7236	1578.8	687.1
1045.7054	3172.6782	1576.45	685.5
1045.8098	3173.6321	1579.75	688.35
1045.914	3174.5854	1577.55	682.75
1046.0183	3175.5381	1568.75	677.55
1046.1224	3176.4902	1564	672.75
1046.2266	3177.4417	1560.8	672.6
1046.3307	3178.3926	1558.95	670.7
1046.4347	3179.3428	1546.45	655.4
1046.5387	3180.2924	1546.95	655.5
1046.6427	3181.2415	1544.85	652.85
1046.7466	3182.1899	1544.35	653.2
1046.8504	3183.1377	1537.35	649.1
1046.9542	3184.0848	1531.95	639.2
1047.058	3185.0314	1527.3	637.6
1047.1617	3185.9773	1525.6	635.4
1047.2654	3186.9227	1527.8	636.8
1047.369	3187.8674	1517.7	626.5
1047.4726	3188.8115	1519.3	623.45
1047.5761	3189.755	1516.9	628.55
1047.6796	3190.6979	1511.35	622.6
1047.783	3191.6402	1506.8	616.75
1047.8864	3192.5818	1494.85	603.1
1047.9898	3193.5229	1514.85	610.3
1048.0931	3194.4633	1499.5	608.75
1048.1963	3195.4031	1499.75	608.75
1048.2995	3196.3423	1490.9	601.55
1048.4027	3197.2809	1483.2	596.25
1048.5058	3198.2189	1490.7	601.6
1048.6089	3199.1563	1489.65	594.1
1048.7119	3200.0931	1481.85	593.3
1048.8148	3201.0292	1478.6	589.65
1048.9178	3201.9648	1478.45	588.45
1049.0206	3202.8997	1476	583.9
1049.1235	3203.834	1465.7	575.25
1049.2262	3204.7677	1463.8	575.25
1049.329	3205.7008	1461.35	567.55
1049.4317	3206.6333	1458.15	570.75
1049.5343	3207.5652	1458.85	565.75
1049.6369	3208.4964	1444.65	554.9
1049.7394	3209.4271	1452.25	563.6
1049.8419	3210.3571	1442.3	553.25
1049.9444	3211.2865	1449	558.05
1050.0468	3212.2154	1437.05	545.7
1050.1491	3213.1436	1442.1	549.6
1050.2514	3214.0712	1445.85	548
1050.3537	3214.9982	1428.5	537.7
1050.4559	3215.9246	1426.35	535.1
1050.5581	3216.8503	1426.4	538.15
1050.6602	3217.7755	1420.4	532.4
1050.7623	3218.7001	1427.15	536.9
1050.8643	3219.624	1422.75	533.75
1050.9663	3220.5473	1419.5	531.3
1051.0682	3221.4701	1415.8	524.65
1051.1701	3222.3922	1409.8	519.15
1051.2719	3223.3137	1413.1	522.35
1051.3737	3224.2346	1407.8	518.1
1051.4754	3225.1549	1401.2	512.05
1051.5771	3226.0746	1403.4	514.2
1051.6788	3226.9937	1394.8	505.85
1051.7804	3227.9121	1401.8	512.65
1051.8819	3228.83	1392.5	504.2
1051.9834	3229.7473	1390.7	501.5
1052.0849	3230.6639	1387.4	496.45
1052.1863	3231.5799	1385.5	495.75
1052.2876	3232.4954	1381.55	491.55
1052.3889	3233.4102	1378.9	490.45
1052.4902	3234.3244	1383.75	492
1052.5914	3235.238	1371.55	481.3
1052.6926	3236.151	1390.3	479.2
1052.7937	3237.0634	1366.85	478.7
1052.8948	3237.9752	1365.05	476.3
1052.9958	3238.8864	1368.6	479.65
1053.0968	3239.797	1364.45	474.85
1053.1977	3240.7069	1357.05	465.3
1053.2986	3241.6163	1351.4	459.6
1053.3994	3242.5251	1355.5	466.15
1053.5002	3243.4332	1343.55	455.05
1053.6009	3244.3408	1340.5	450.8
1053.7016	3245.2477	1341.8	451.9
1053.8022	3246.154	1341.35	449.3
1053.9028	3247.0598	1339.3	447.65
1054.0034	3247.9649	1336.1	446.45
1054.1039	3248.8694	1329.6	439.35
1054.2043	3249.7733	1328.15	438.5
1054.3047	3250.6766	1324.35	434.4
1054.4051	3251.5793	1322.85	433.05
1054.5054	3252.4814	1326.2	436.15
1054.6056	3253.3829	1318.2	428.85
1054.7058	3254.2838	1316.05	427.2
1054.806	3255.1841	1318.45	429.45
1054.9061	3256.0838	1310.95	420.9
1055.0061	3256.9829	1302.3	413.6
1055.1062	3257.8814	1306.85	415.2
1055.2061	3258.7792	1298.35	405.65
1055.306	3259.6765	1294.3	404.4
1055.4059	3260.5731	1288.35	397.55
1055.5057	3261.4692	1282.45	392.6
1055.6055	3262.3647	1283.2	391.25
1055.7052	3263.2595	1267.4	376.45
1055.8049	3264.1538	1263.35	374.05
1055.9045	3265.0474	1261.5	371.55
1056.0041	3265.9404	1251.4	363.1
1056.1036	3266.8329	1253.75	366.55
1056.2031	3267.7247	1258	358.55
1056.3025	3268.616	1239.9	350.55
1056.4019	3269.5066	1225.95	337.65
1056.5013	3270.3966	1224.3	332.05
1056.6005	3271.286	1205.25	317.9
