Software Version:	3.9.2.0
Unit SN:	10000200
Spectrometer SN:	6960
Date:	3/6/2024 10:13:59 AM
Data Line Index:	25
Spectral Points:	2048
Integration time (ms):	125
Averages:	20
Delay (ms):	30
Sequence Number:	1
Processing:	dark subtract
Laser Power (mW):	305
Laser Current (mA):	825
Laser Diode Temp (C):	25.1
Laser Case Temp (C):	24.9
System Temp (C):	24.8
Spectrometer Temp (C):	22.3
CCD Temp (C):	0.002
Secondary Temp (C):	20.014
Heatsink Temp (C):	18.757
CCDPCB Temp (C):	32.794
SecondaryPCB Temp (C):	26.014

Wavelength	RamanShift	Raw Counts	Dark Subtracted
787.061	30.1047	1035.6	626.75
787.2016	32.3739	1059.55	652.65
787.3422	34.6426	1091.15	683.8
787.4828	36.9109	1133.75	725.9
787.6235	39.1787	1185.7	771.7
787.7642	41.4461	1231.4	813.25
787.9049	43.7131	1294.5	873.95
788.0456	45.9796	1340.95	916.85
788.1863	48.2456	1406.65	980.4
788.3271	50.5112	1464.95	1034
788.4679	52.7764	1518.6	1084.95
788.6087	55.0411	1596.75	1158.5
788.7496	57.3054	1664.05	1218.45
788.8904	59.5692	1745.45	1299.35
789.0313	61.8326	1829.1	1378.95
789.1722	64.0955	1911.15	1461.4
789.3132	66.3579	2025.35	1569.45
789.4541	68.6199	2159.45	1701.55
789.5951	70.8815	2393.9	1930.95
789.7361	73.1426	2902.25	2432.6
789.8771	75.4032	4176.05	3704.3
790.0181	77.6634	7463.45	6987.15
790.1592	79.9231	16080.8	15600.15
790.3003	82.1824	49895.1	49403.1
790.4414	84.4412	65535	65026.2
790.5825	86.6995	65535	65004.4
790.7237	88.9574	65535	64984.4
790.8648	91.2148	65535	64971.45
791.006	93.4717	65535	64961.6
791.1472	95.7282	65535	64955.5
791.2885	97.9842	65535	64955.45
791.4297	100.2398	65535	64950.5
791.571	102.4949	65535	64950.35
791.7123	104.7495	65535	64946.85
791.8536	107.0036	65535	64944.3
791.9949	109.2573	65535	64943.2
792.1363	111.5105	65535	64941.25
792.2777	113.7632	65535	64938.95
792.4191	116.0154	65535	64931.6
792.5605	118.2672	65535	64939.45
792.7019	120.5185	65535	64935.35
792.8434	122.7693	65535	64931.2
792.9849	125.0197	65535	64923.4
793.1264	127.2696	65535	64921.2
793.2679	129.519	65535	64918.9
793.4094	131.7679	65535	64918.15
793.551	134.0163	65535	64919.05
793.6926	136.2642	65535	64912.05
793.8342	138.5117	65535	64912
793.9758	140.7587	65535	64910.35
794.1175	143.0052	65535	64908.5
794.2591	145.2512	65535	64906.65
794.4008	147.4967	65535	64902.65
794.5425	149.7417	65535	64902.65
794.6842	151.9863	65535	64898.4
794.826	154.2304	65535	64892.75
794.9677	156.4739	65535	64884.75
795.1095	158.717	65535	64888
795.2513	160.9596	65535	64883.15
795.3931	163.2017	65535	64884.05
795.535	165.4433	65535	64880.95
795.6768	167.6844	65535	64877.65
795.8187	169.925	65535	64875.75
795.9606	172.1651	65535	64871.8
796.1025	174.4047	65535	64867.4
796.2445	176.6439	65535	64865.3
796.3864	178.8825	65535	64863.75
796.5284	181.1206	65535	64858.5
796.6704	183.3582	65535	64854.65
796.8124	185.5954	65535	64855.4
796.9544	187.832	65535	64848.3
797.0965	190.0681	65535	64847.15
797.2386	192.3037	65535	64845.1
797.3806	194.5388	65535	64840.7
797.5228	196.7734	65535	64840.35
797.6649	199.0075	65535	64839.25
797.807	201.2411	65535	64840.5
797.9492	203.4742	65535	64837.85
798.0914	205.7068	65535	64831
798.2336	207.9389	65535	64829.1
798.3758	210.1704	65535	64836.45
798.518	212.4015	65535	64846
798.6603	214.632	65535	64850.7
798.8025	216.862	65535	64856.75
798.9448	219.0915	65535	64852.45
799.0871	221.3205	65535	64849.4
799.2294	223.549	65535	64853.6
799.3718	225.777	65535	64854.75
799.5141	228.0044	65535	64848.45
799.6565	230.2314	65535	64847.65
799.7989	232.4578	65535	64838.05
799.9413	234.6837	65535	64831.6
800.0837	236.909	65535	64829.8
800.2262	239.1339	65535	64807.65
800.3687	241.3582	65535	64821.05
800.5111	243.582	65535	64791
800.6536	245.8053	65535	64805.45
800.7961	248.0281	65535	64808.9
800.9387	250.2503	65535	64804.5
801.0812	252.472	65535	64799.65
801.2238	254.6932	65535	64801.95
801.3664	256.9139	65535	64803.1
801.509	259.134	65535	64791.15
801.6516	261.3536	65535	64801.35
801.7942	263.5727	65535	64798.15
801.9369	265.7912	65535	64797
802.0795	268.0092	65535	64796.4
802.2222	270.2267	65535	64798.35
802.3649	272.4436	65535	64798.05
802.5076	274.6601	65535	64788.75
802.6504	276.8759	65535	64791.1
802.7931	279.0913	65535	64785.9
802.9359	281.3061	65535	64788.15
803.0787	283.5204	65535	64783.85
803.2215	285.7341	65535	64783.8
803.3643	287.9473	65535	64770.3
803.5071	290.16	65535	64778.2
803.6499	292.3721	65535	64785.65
803.7928	294.5837	65535	64786.75
803.9357	296.7947	65535	64786.2
804.0786	299.0052	65535	64782.6
804.2215	301.2152	65535	64780.05
804.3644	303.4246	65535	64781.55
804.5074	305.6334	65535	64784.05
804.6503	307.8418	65535	64777.1
804.7933	310.0495	65535	64774.4
804.9363	312.2568	65535	64773.45
805.0793	314.4635	65535	64775
805.2223	316.6696	65535	64774.3
805.3653	318.8752	65535	64762.6
805.5084	321.0802	65535	64770.85
805.6514	323.2847	65535	64766.65
805.7945	325.4887	65535	64768.45
805.9376	327.692	65535	64766.1
806.0807	329.8949	65535	64767.4
806.2238	332.0972	65535	64763.95
806.367	334.2989	65535	64759.15
806.5101	336.5001	65535	64763.8
806.6533	338.7007	65535	64762.4
806.7965	340.9008	65535	64757.5
806.9397	343.1003	65535	64754.05
807.0829	345.2992	65535	64755.3
807.2261	347.4976	65535	64755.05
807.3693	349.6955	65535	64751
807.5126	351.8927	65535	64748.6
807.6559	354.0895	65535	64737.6
807.7991	356.2856	65535	64748.35
807.9424	358.4812	65535	64749.7
808.0857	360.6763	65535	64744.3
808.2291	362.8707	65535	64743.4
808.3724	365.0646	65535	64742.2
808.5158	367.258	65535	64742
808.6591	369.4508	65535	64740.55
808.8025	371.643	65535	64734.95
808.9459	373.8346	65535	64732.8
809.0893	376.0257	65535	64733.65
809.2327	378.2162	65535	64733.05
809.3762	380.4062	65535	64734.05
809.5196	382.5956	65535	64734.85
809.6631	384.7844	65535	64741.4
809.8066	386.9726	65535	64740.3
809.9501	389.1603	65535	64743.4
810.0936	391.3474	65535	64697.35
810.2371	393.5339	65535	64740.15
810.3806	395.7199	65535	64742.35
810.5241	397.9052	65535	64744.35
810.6677	400.09	65535	64741.2
810.8113	402.2743	65535	64740.75
810.9548	404.4579	65535	64738.85
811.0984	406.641	65535	64740.6
811.2421	408.8235	65535	64735.95
811.3857	411.0054	65535	64730.7
811.5293	413.1868	65535	64733.2
811.673	415.3675	65535	64727.95
811.8166	417.5477	65535	64726
811.9603	419.7273	65535	64725.1
812.104	421.9064	65535	64714
812.2477	424.0848	65535	64721.6
812.3914	426.2627	65535	64720.95
812.5351	428.4399	65535	64718.85
812.6788	430.6166	65535	64718.7
812.8226	432.7928	65535	64712.7
812.9663	434.9683	65535	64714.9
813.1101	437.1432	65535	64713.75
813.2539	439.3176	65535	64717.7
813.3977	441.4914	65535	64716.4
813.5415	443.6645	65535	64710.95
813.6853	445.8371	65535	64714.95
813.8291	448.0091	65535	64711.5
813.973	450.1806	65535	64711.65
814.1168	452.3514	65535	64709.65
814.2607	454.5216	65535	64700
814.4046	456.6913	65535	64708.9
814.5485	458.8603	65535	64709.85
814.6924	461.0288	65535	64715.55
814.8363	463.1967	65535	64714
814.9802	465.3639	65535	64709.85
815.1241	467.5306	65535	64709.7
815.2681	469.6967	65535	64712
815.412	471.8622	65535	64708.1
815.556	474.0271	65535	64710.35
815.7	476.1914	65535	64706.75
815.844	478.3551	65535	64709.75
815.988	480.5182	65535	64708.2
816.132	482.6807	65535	64706.6
816.276	484.8426	65535	64709.4
816.4201	487.0039	65535	64709.3
816.5641	489.1647	65535	64703.25
816.7082	491.3248	65535	64704.65
816.8522	493.4843	65535	64704.8
816.9963	495.6432	65535	64704.25
817.1404	497.8015	65535	64700.9
817.2845	499.9592	65535	64701.85
817.4286	502.1163	65535	64699.8
817.5727	504.2728	65535	64699
817.7168	506.4287	65535	64704.1
817.861	508.5839	65535	64699.6
818.0051	510.7386	65535	64698.35
818.1493	512.8927	65535	64694.05
818.2935	515.0461	65535	64697.3
818.4377	517.199	65535	64697.75
818.5818	519.3512	65535	64697.45
818.726	521.5029	65535	64689.2
818.8703	523.6539	65535	64695.7
819.0145	525.8043	65535	64692.3
819.1587	527.9541	65535	64688
819.303	530.1033	65535	64691.25
819.4472	532.2519	65535	64693.25
819.5915	534.3999	65535	64689.35
819.7357	536.5472	65535	64690.1
819.88	538.694	65535	64689.2
820.0243	540.8401	65535	64686.1
820.1686	542.9856	65535	64689.5
820.3129	545.1305	65535	64688.1
820.4572	547.2748	65535	64689.2
820.6016	549.4185	65535	64687.6
820.7459	551.5615	65535	64689.2
820.8902	553.704	65535	64686.55
821.0346	555.8458	65535	64689.4
821.1789	557.987	65535	64690.55
821.3233	560.1276	65535	64688.3
821.4677	562.2675	65535	64691.25
821.6121	564.4069	65535	64689.1
821.7565	566.5456	65535	64689.8
821.9009	568.6837	65535	64690.35
822.0453	570.8212	65535	64690
822.1897	572.958	65535	64687.7
822.3342	575.0942	65535	64688.9
822.4786	577.2299	65535	64686.8
822.6231	579.3648	65535	64687.25
822.7675	581.4992	65535	64691.1
822.912	583.6329	65535	64687.6
823.0565	585.766	65535	64685.6
823.201	587.8985	65535	64685.4
823.3454	590.0304	65535	64662.2
823.4899	592.1616	65535	64683.45
823.6345	594.2922	65535	64686.55
823.779	596.4222	65535	64682.75
823.9235	598.5515	65535	64681.25
824.068	600.6802	65535	64682.45
824.2126	602.8083	65535	64681.6
824.3571	604.9358	65535	64680.3
824.5017	607.0626	65535	64680.55
824.6462	609.1888	65535	64680.55
824.7908	611.3144	65535	64678.85
824.9354	613.4393	65535	64680.3
825.08	615.5636	65535	64680.7
825.2246	617.6873	65535	64678.8
825.3692	619.8103	65535	64676.55
825.5138	621.9327	65535	64676.1
825.6584	624.0544	65535	64678.2
825.803	626.1756	65535	64678.7
825.9477	628.2961	65535	64675.55
826.0923	630.4159	65535	64676.7
826.237	632.5351	65535	64680.1
826.3816	634.6537	65535	64675.3
826.5263	636.7716	65535	64674.65
826.6709	638.8889	65535	64675.2
826.8156	641.0056	65535	64674.45
826.9603	643.1216	65535	64675.4
827.105	645.237	65535	64672.55
827.2497	647.3518	65535	64675
827.3944	649.4659	65535	64674.5
827.5391	651.5793	65535	64675.45
827.6838	653.6922	65535	64676.1
827.8285	655.8043	65535	64673.75
827.9733	657.9159	65535	64671.75
828.118	660.0268	65535	64669.3
828.2627	662.137	65535	64672.5
828.4075	664.2466	65535	64670.55
828.5522	666.3556	65535	64672.75
828.697	668.4639	65535	64670.4
828.8418	670.5716	65535	64672.95
828.9865	672.6786	65535	64669.9
829.1313	674.785	65535	64667.2
829.2761	676.8907	65535	64668.7
829.4209	678.9958	65535	64672.5
829.5657	681.1002	65535	64669.8
829.7105	683.204	65535	64666.25
829.8553	685.3072	65535	64666.7
830.0001	687.4097	65535	64667.55
830.1449	689.5115	65535	64670.75
830.2898	691.6127	65535	64668.25
830.4346	693.7132	65535	64669.75
830.5794	695.8131	65535	64649.85
830.7243	697.9123	65535	64669
830.8691	700.0109	65535	64667.1
831.014	702.1089	65535	64668.7
831.1588	704.2061	65535	64666.75
831.3037	706.3028	65535	64666.55
831.4486	708.3987	65535	64664.3
831.5935	710.4941	65535	64669.1
831.7383	712.5887	65535	64667.85
831.8832	714.6827	65535	64660.55
832.0281	716.7761	65535	64667.2
832.173	718.8688	65535	64662.8
832.3179	720.9608	65535	64661.55
832.4628	723.0522	65535	64660.35
832.6077	725.1429	65535	64665.75
832.7527	727.233	65535	64662.5
832.8976	729.3224	65535	64663.4
833.0425	731.4112	65535	64661.55
833.1874	733.4993	65535	64661.25
833.3324	735.5867	65535	64663.2
833.4773	737.6735	65535	64660
833.6222	739.7596	65535	64659.95
833.7672	741.845	65535	64661.5
833.9122	743.9298	65535	64659.45
834.0571	746.014	65535	64663.3
834.2021	748.0974	65535	64659.5
834.347	750.1802	65535	64660.6
834.492	752.2624	65535	64663.75
834.637	754.3439	65535	64655.55
834.782	756.4247	65535	64653.35
834.9269	758.5048	65535	64662.8
835.0719	760.5843	65535	64660.65
835.2169	762.6631	65535	64658.5
835.3619	764.7413	65535	64658.45
835.5069	766.8188	65535	64658.1
835.6519	768.8956	65535	64658.8
835.7969	770.9718	65535	64659.4
835.9419	773.0473	65535	64660.95
836.0869	775.1221	65535	64659.55
836.232	777.1962	65535	64659.95
836.377	779.2697	65535	64658.25
836.522	781.3426	65535	64641.4
836.667	783.4147	65535	64658.6
836.8121	785.4862	65535	64657.65
836.9571	787.557	65535	64656.95
837.1021	789.6271	65535	64656.85
837.2472	791.6966	65535	64655.3
837.3922	793.7654	65535	64659.55
837.5373	795.8335	65535	64659.9
837.6823	797.901	65535	64657.6
837.8274	799.9678	65535	64656.6
837.9724	802.0339	65535	64659.85
838.1175	804.0993	65535	64649.15
838.2626	806.1641	65535	64660.2
838.4076	808.2282	65535	64657.55
838.5527	810.2916	65535	64654.6
838.6978	812.3544	65535	64659.5
838.8428	814.4164	65535	64657.2
838.9879	816.4778	65535	64655.55
839.133	818.5385	65535	64658.15
839.2781	820.5986	65535	64659
839.4232	822.658	65535	64654.25
839.5682	824.7166	65535	64659.9
839.7133	826.7747	65535	64658.25
839.8584	828.832	65535	64655.65
840.0035	830.8886	65535	64654.9
840.1486	832.9446	65535	64655.3
840.2937	834.9999	65535	64656.3
840.4388	837.0545	65535	64651.55
840.5839	839.1085	65535	64655.3
840.729	841.1618	65535	64653.1
840.8741	843.2143	65535	64653.1
841.0192	845.2662	65535	64653.25
841.1643	847.3175	65535	64657.65
841.3095	849.368	65535	64654.8
841.4546	851.4179	65535	64652.1
841.5997	853.467	65535	64657.15
841.7448	855.5155	65535	64656.5
841.8899	857.5633	65535	64653.1
842.0351	859.6105	65535	64654.35
842.1802	861.6569	65535	64655.3
842.3253	863.7027	65535	64651.85
842.4704	865.7478	65535	64655.3
842.6156	867.7922	65535	64654.65
842.7607	869.8359	65535	64653.75
842.9058	871.8789	65535	64651.95
843.0509	873.9212	65535	64623.5
843.1961	875.9629	65535	64653.8
843.3412	878.0039	65535	64653.65
843.4863	880.0441	65535	64655.45
843.6315	882.0837	65535	64650.1
843.7766	884.1226	65535	64654.65
843.9218	886.1609	65535	64653.75
844.0669	888.1984	65535	64656.2
844.212	890.2352	65535	64654.85
844.3572	892.2714	65535	64648.65
844.5023	894.3069	65535	64653.1
844.6475	896.3416	65535	64651.4
844.7926	898.3757	65535	64653.7
844.9377	900.4091	65535	64650.85
845.0829	902.4418	65535	64647.7
845.228	904.4739	65535	64651.35
845.3732	906.5052	65535	64650.25
845.5183	908.5358	65535	64654.1
845.6635	910.5658	65535	64651.45
845.8086	912.595	65535	64650.1
845.9538	914.6236	65535	64652.9
846.0989	916.6515	65535	64652.5
846.2441	918.6786	65535	64650.9
846.3892	920.7051	65535	64648.5
846.5344	922.7309	65535	64652.1
846.6795	924.756	65535	64651.6
846.8246	926.7804	65535	64648.95
846.9698	928.8041	65535	64647.3
847.1149	930.8272	65535	64651.8
847.2601	932.8495	65535	64649.95
847.4052	934.8711	65535	64651.8
847.5504	936.892	65535	64653.2
847.6955	938.9123	65535	64651.45
847.8407	940.9318	65535	64652.95
847.9858	942.9506	65535	64650.25
848.131	944.9688	65535	64647.75
848.2761	946.9862	65535	64650.65
848.4213	949.003	65535	64650.9
848.5664	951.019	65535	64651.65
848.7115	953.0344	65535	64651.2
848.8567	955.0491	65535	64648.7
849.0018	957.063	65535	64650.45
849.147	959.0763	65535	64654.6
849.2921	961.0888	65535	64650.8
849.4373	963.1007	65535	64651.3
849.5824	965.1119	65535	64652.95
849.7275	967.1223	65535	64651.75
849.8727	969.1321	65535	64650.75
850.0178	971.1412	65535	64650.15
850.1629	973.1495	65535	64650.9
850.3081	975.1572	65535	64616.75
850.4532	977.1641	65535	64648.5
850.5983	979.1704	65535	64648.6
850.7435	981.1759	65535	64648.35
850.8886	983.1808	65535	64648.45
851.0337	985.1849	65535	64638.75
851.1788	987.1884	65535	64648.25
851.324	989.1911	65535	64646.05
851.4691	991.1932	65535	64648.15
851.6142	993.1945	65535	64653.75
851.7593	995.1951	65535	64648
851.9045	997.1951	65535	64642.05
852.0496	999.1943	65535	64651.15
852.1947	1001.1928	65535	64649.85
852.3398	1003.1906	65535	64649.1
852.4849	1005.1877	65535	64645.9
852.63	1007.1841	65535	64647.1
852.7751	1009.1798	65535	64651.55
852.9202	1011.1748	65535	64649.6
853.0653	1013.1691	65535	64651.2
853.2104	1015.1627	65535	64648
853.3555	1017.1556	65535	64649.2
853.5006	1019.1477	65535	64649.9
853.6457	1021.1392	65535	64651.35
853.7908	1023.1299	65535	64651.7
853.9359	1025.12	65535	64649
854.081	1027.1093	65535	64651.55
854.2261	1029.0979	65535	64652.7
854.3712	1031.0859	65535	64652.5
854.5163	1033.0731	65535	64647.7
854.6613	1035.0596	65535	64651
854.8064	1037.0454	65535	64649.5
854.9515	1039.0304	65535	64649.35
855.0965	1041.0148	65535	64650.95
855.2416	1042.9985	65535	64648.5
855.3867	1044.9814	65535	64648.8
855.5317	1046.9636	65535	64646.3
855.6768	1048.9452	65535	64649.45
855.8219	1050.926	65535	64651.9
855.9669	1052.9061	65535	64649.9
856.112	1054.8855	65535	64646.85
856.257	1056.8642	65535	64649
856.4021	1058.8421	65535	64643.45
856.5471	1060.8194	65535	64647.25
856.6921	1062.7959	65535	64650.75
856.8372	1064.7717	65535	64647.85
856.9822	1066.7469	65535	64646.2
857.1272	1068.7213	65535	64643.4
857.2723	1070.695	65535	64649.1
857.4173	1072.6679	65535	64648.15
857.5623	1074.6402	65535	64650.2
857.7073	1076.6117	65535	64643.2
857.8523	1078.5826	65535	64650.9
857.9973	1080.5527	65535	64645.15
858.1423	1082.5221	65535	64647.4
858.2873	1084.4908	65535	64648
858.4323	1086.4587	65535	64646.95
858.5773	1088.426	65535	64648.6
858.7223	1090.3925	65535	64642.85
858.8673	1092.3584	65535	64651.6
859.0123	1094.3235	65535	64647.5
859.1573	1096.2879	65535	64645.45
859.3022	1098.2515	65535	64651.25
859.4472	1100.2145	65535	64649.45
859.5922	1102.1767	65535	64645
859.7371	1104.1382	65535	64648.35
859.8821	1106.099	65535	64643.7
860.027	1108.0591	65535	64649.15
860.172	1110.0185	65535	64646.9
860.3169	1111.9771	65535	64652.05
860.4619	1113.9351	65535	64648.2
860.6068	1115.8923	65535	64648.4
860.7517	1117.8488	65535	64647
860.8967	1119.8045	65535	64649.3
861.0416	1121.7596	65535	64647.5
861.1865	1123.7139	65535	64648.05
861.3314	1125.6675	65535	64648.9
861.4763	1127.6204	65535	64649.9
861.6212	1129.5726	65535	64646.5
861.7661	1131.524	65535	64646.55
861.911	1133.4748	65535	64649.6
862.0559	1135.4248	65535	64648.8
862.2008	1137.3741	65535	64649.05
862.3457	1139.3226	65535	64647.75
862.4905	1141.2705	65535	64647.45
862.6354	1143.2176	65535	64643.55
862.7803	1145.164	65535	64647.8
862.9251	1147.1097	65535	64647.75
863.07	1149.0546	65535	64647.4
863.2148	1150.9989	65535	64648.9
863.3597	1152.9424	65535	64648.55
863.5045	1154.8852	65535	64649.25
863.6493	1156.8272	65535	64648.6
863.7942	1158.7686	65535	64640.65
863.939	1160.7092	65535	64649.2
864.0838	1162.6491	65535	64646.35
864.2286	1164.5883	65535	64647.2
864.3734	1166.5267	65535	64647.35
864.5182	1168.4644	65535	64651.8
864.663	1170.4014	65535	64641.75
864.8078	1172.3377	65535	64648.6
864.9526	1174.2732	65535	64649.35
865.0974	1176.2081	65535	64646.5
865.2421	1178.1421	65535	64645.65
865.3869	1180.0755	65535	64650.4
865.5317	1182.0082	65535	64648.6
865.6764	1183.9401	65535	64648.45
865.8212	1185.8713	65535	64647.55
865.9659	1187.8017	65535	64649.15
866.1106	1189.7315	65535	64651.9
866.2554	1191.6605	65535	64622.6
866.4001	1193.5888	65535	64648.2
866.5448	1195.5163	65535	64648.25
866.6895	1197.4432	65535	64645.95
866.8342	1199.3693	65535	64648.75
866.9789	1201.2947	65535	64645.9
867.1236	1203.2193	65535	64650.5
867.2683	1205.1432	65535	64647.2
867.413	1207.0664	65535	64649.3
867.5576	1208.9889	65535	64646.7
867.7023	1210.9106	65535	64648.05
867.847	1212.8316	65535	64649.8
867.9916	1214.7519	65535	64638.75
868.1363	1216.6715	65535	64647.85
868.2809	1218.5903	65535	64649.2
868.4255	1220.5084	65535	64648.65
868.5701	1222.4257	65535	64647.3
868.7148	1224.3424	65535	64650.6
868.8594	1226.2583	65535	64641.05
869.004	1228.1735	65535	64643.65
869.1486	1230.0879	65535	64646.3
869.2932	1232.0016	65535	64648.7
869.4377	1233.9146	65535	64646.05
869.5823	1235.8269	65535	64648.5
869.7269	1237.7384	65535	64647.8
869.8715	1239.6492	65535	64649.1
870.016	1241.5592	65535	64644.7
870.1606	1243.4686	65535	64647.1
870.3051	1245.3772	65535	64648.65
870.4496	1247.285	65535	64648.4
870.5941	1249.1922	65535	64647.9
870.7387	1251.0986	65535	64649.65
870.8832	1253.0042	65535	64648.6
871.0277	1254.9092	65535	64649.35
871.1722	1256.8134	65535	64648.35
871.3167	1258.7169	65535	64647.4
871.4611	1260.6196	65535	64649.2
871.6056	1262.5216	65535	64646
871.7501	1264.4229	65535	64646.95
871.8945	1266.3234	65535	64648.3
872.039	1268.2232	65535	64649.85
872.1834	1270.1223	65535	64647.2
872.3278	1272.0207	65535	64647.95
872.4723	1273.9183	65535	64643.6
872.6167	1275.8151	65535	64648.95
872.7611	1277.7113	65535	64649.4
872.9055	1279.6067	65535	64650.2
873.0499	1281.5014	65535	64647.05
873.1943	1283.3953	65535	64646.9
873.3386	1285.2885	65535	64650.35
873.483	1287.181	65535	64646.4
873.6274	1289.0727	65535	64648.05
873.7717	1290.9637	65535	64647.95
873.9161	1292.854	65535	64649.55
874.0604	1294.7435	65535	64647.65
874.2047	1296.6323	65535	64646.9
874.349	1298.5204	65535	64644.7
874.4933	1300.4077	65535	64647.65
874.6376	1302.2943	65535	64649.15
874.7819	1304.1802	65535	64648.05
874.9262	1306.0653	65535	64647.85
875.0705	1307.9497	65535	64645.2
875.2147	1309.8333	65535	64648.2
875.359	1311.7162	65535	64645.85
875.5032	1313.5984	65535	64647.25
875.6475	1315.4798	65535	64637.75
875.7917	1317.3605	65535	64633.55
875.9359	1319.2405	65535	64647.2
876.0801	1321.1197	65535	64648.95
876.2243	1322.9982	65535	64644.25
876.3685	1324.876	65535	64649.95
876.5127	1326.753	65535	64648.55
876.6569	1328.6293	65535	64645.8
876.801	1330.5048	65535	64646.85
876.9452	1332.3796	65535	64649.45
877.0893	1334.2537	65535	64622.15
877.2335	1336.127	65535	64647.7
877.3776	1337.9996	65535	64647.5
877.5217	1339.8714	65535	64648.75
877.6658	1341.7426	65535	64607.2
877.8099	1343.6129	65535	64650.45
877.954	1345.4826	65535	64645.35
878.0981	1347.3515	65535	64646.75
878.2422	1349.2196	65535	64646
878.3862	1351.087	65535	64646.9
878.5303	1352.9537	65535	64645.9
878.6743	1354.8197	65535	64649.2
878.8184	1356.6849	65535	64647.7
878.9624	1358.5493	65535	64647.55
879.1064	1360.4131	65535	64647.5
879.2504	1362.276	65535	64649
879.3944	1364.1383	65535	64647.65
879.5384	1365.9998	65535	64640.55
879.6823	1367.8606	65535	64645.6
879.8263	1369.7206	65535	64648.95
879.9702	1371.5799	65535	64646.45
880.1142	1373.4384	65535	64646.05
880.2581	1375.2962	65535	64647.55
880.402	1377.1533	65535	64647.5
880.5459	1379.0096	65535	64648.1
880.6898	1380.8652	65535	64647.05
880.8337	1382.7201	65535	64649.9
880.9776	1384.5742	65535	64648.9
881.1215	1386.4275	65535	64646.75
881.2653	1388.2802	65535	64647.4
881.4092	1390.132	65535	64648.7
881.553	1391.9832	65535	64648.85
881.6968	1393.8336	65535	64649.8
881.8406	1395.6832	65535	64646.15
881.9844	1397.5322	65535	64647.95
882.1282	1399.3803	65535	64643.3
882.272	1401.2278	65535	64647.3
882.4158	1403.0745	65535	64647.6
882.5595	1404.9204	65535	64649
882.7033	1406.7656	65535	64647.4
882.847	1408.6101	65535	64646.2
882.9908	1410.4538	65535	64648.2
883.1345	1412.2968	65535	64648.4
883.2782	1414.139	65535	64649.4
883.4219	1415.9805	65535	64649.3
883.5656	1417.8213	65535	64642.45
883.7092	1419.6613	65535	64650.15
883.8529	1421.5006	65535	64648.65
883.9965	1423.3391	65535	64648.75
884.1402	1425.1769	65535	64647.1
884.2838	1427.0139	65535	64648.6
884.4274	1428.8502	65535	64648.55
884.571	1430.6858	65535	64648.4
884.7146	1432.5206	65535	64649
884.8582	1434.3547	65535	64647.2
885.0018	1436.188	65535	64648
885.1453	1438.0206	65535	64648.2
885.2889	1439.8524	65535	64646.05
885.4324	1441.6835	65535	64647.05
885.5759	1443.5139	65535	64644.85
885.7194	1445.3435	65535	64648.85
885.8629	1447.1724	65535	64649.7
886.0064	1449.0005	65535	64648.6
886.1499	1450.8279	65535	64645.6
886.2933	1452.6545	65535	64650.4
886.4368	1454.4804	65535	64651.55
886.5802	1456.3056	65535	64641
886.7237	1458.13	65535	64647.5
886.8671	1459.9536	65535	64647.4
887.0105	1461.7766	65535	64649.95
887.1539	1463.5987	65535	64645.75
887.2972	1465.4202	65535	64647.4
887.4406	1467.2409	65535	64645.85
887.584	1469.0608	65535	64647.9
887.7273	1470.88	65535	64649.9
887.8706	1472.6984	65535	64650.4
888.0139	1474.5161	65535	64646.7
888.1572	1476.3331	65535	64649.75
888.3005	1478.1493	65535	64649.6
888.4438	1479.9648	65535	64648.75
888.5871	1481.7795	65535	64646.15
888.7303	1483.5935	65535	64650
888.8736	1485.4067	65535	64648.7
889.0168	1487.2192	65535	64647.45
889.16	1489.031	65535	64647.95
889.3032	1490.842	65535	64648.5
889.4464	1492.6522	65535	64650.3
889.5896	1494.4618	65535	64646.8
889.7327	1496.2705	65535	64649.6
889.8759	1498.0785	65535	64646.65
890.019	1499.8858	65535	64649.35
890.1622	1501.6924	65535	64651.15
890.3053	1503.4981	65535	64649.1
890.4484	1505.3032	65535	64649.7
890.5914	1507.1075	65535	64647.3
890.7345	1508.911	65535	64650.65
890.8776	1510.7138	65535	64648.8
891.0206	1512.5159	65535	64648.7
891.1637	1514.3172	65535	64650.15
891.3067	1516.1178	65535	64649.9
891.4497	1517.9176	65535	64644.6
891.5927	1519.7166	65535	64647.85
891.7357	1521.515	65535	64642.9
891.8786	1523.3126	65535	64650.1
892.0216	1525.1094	65535	64648.05
892.1645	1526.9055	65535	64651.25
892.3074	1528.7008	65535	64650.45
892.4503	1530.4954	65535	64647.3
892.5932	1532.2893	65535	64651.4
892.7361	1534.0824	65535	64644.35
892.879	1535.8747	65535	64650.25
893.0218	1537.6663	65535	64648.5
893.1647	1539.4572	65534.7	64648.35
893.3075	1541.2473	65535	64647.15
893.4503	1543.0367	65535	64651.5
893.5931	1544.8253	65535	64643.8
893.7359	1546.6132	65535	64647.2
893.8787	1548.4003	65535	64637.65
894.0214	1550.1867	65535	64640.6
894.1642	1551.9723	65535	64643.55
894.3069	1553.7572	65535	64648.95
894.4496	1555.5414	65535	64650.4
894.5923	1557.3247	65502.7	64615.25
894.735	1559.1074	65535	64651.15
894.8777	1560.8893	65528	64644.6
895.0204	1562.6705	65533.4	64648.1
895.163	1564.4509	65510	64628.4
895.3056	1566.2305	65522.95	64638.25
895.4482	1568.0094	65535	64651.25
895.5908	1569.7876	65523.65	64639.1
895.7334	1571.565	65513.1	64628.2
895.876	1573.3417	65521.65	64637.05
896.0186	1575.1176	65519.45	64635.55
896.1611	1576.8928	65511.65	64626.8
896.3036	1578.6672	65481.15	64598.75
896.4461	1580.4409	65510	64628.8
896.5886	1582.2138	65453.85	64567.15
896.7311	1583.986	65488.3	64605.45
896.8736	1585.7575	65430.5	64544.4
897.0161	1587.5282	65455.25	64573.55
897.1585	1589.2981	65442.15	64559.9
897.3009	1591.0673	65410.05	64525.85
897.4433	1592.8358	65381.6	64498.4
897.5857	1594.6035	65444.7	64560.25
897.7281	1596.3704	65456.4	64573.9
897.8705	1598.1366	65360.35	64476.8
898.0128	1599.9021	65302.3	64418.8
898.1551	1601.6668	65409.15	64523.75
898.2975	1603.4308	65354.7	64470.05
898.4398	1605.194	65362.35	64471.75
898.5821	1606.9564	65245.05	64362.75
898.7243	1608.7182	65327.2	64442.95
898.8666	1610.4791	65271.55	64389.8
899.0088	1612.2394	65322.2	64439
899.1511	1613.9988	65223.4	64341.25
899.2933	1615.7576	65318.6	64436.75
899.4355	1617.5156	65318.5	64429.55
899.5776	1619.2728	65396.5	64513.15
899.7198	1621.0293	65206.85	64325.2
899.862	1622.785	65206.45	64319.25
900.0041	1624.54	65266.95	64380.95
900.1462	1626.2942	65164.3	64279.95
900.2883	1628.0477	65017.7	64132.65
900.4304	1629.8005	64919.75	64033.25
900.5725	1631.5525	65084.9	64201.35
900.7145	1633.3037	64881.1	63999.35
900.8566	1635.0542	64880.85	63996.4
900.9986	1636.804	64992.8	64110.55
901.1406	1638.553	64820.8	63855.9
901.2826	1640.3013	64882.85	63999.6
901.4245	1642.0488	64777.15	63893.9
901.5665	1643.7955	64868.5	63985.6
901.7085	1645.5416	64781.05	63899.6
901.8504	1647.2868	64690	63807.7
901.9923	1649.0313	64835.2	63953.35
902.1342	1650.7751	64757.95	63871.85
902.2761	1652.5181	64679.2	63798.6
902.4179	1654.2604	64704.5	63820.6
902.5598	1656.0019	64734.75	63856.3
902.7016	1657.7427	64660.35	63777.15
902.8434	1659.4828	64729.9	63848.25
902.9852	1661.222	64659.25	63776.05
903.127	1662.9606	64733.55	63853
903.2687	1664.6984	64632.8	63749.3
903.4105	1666.4354	64655.45	63771.3
903.5522	1668.1717	64507.4	63624.35
903.6939	1669.9072	64394.85	63513.2
903.8356	1671.642	64382.75	63498.2
903.9773	1673.3761	64341.65	63460.85
904.119	1675.1094	64290.45	63409.3
904.2606	1676.8419	64153.5	63271.5
904.4022	1678.5737	64200.75	63320.15
904.5439	1680.3048	64150.55	63269.7
904.6855	1682.0351	64077.2	63194.05
904.827	1683.7646	63982.85	63098.05
904.9686	1685.4934	64055.35	63173.65
905.1101	1687.2215	63599.85	62717.5
905.2517	1688.9488	63953.25	63071.4
905.3932	1690.6754	63211.55	62329.8
905.5347	1692.4012	63618.4	62738.35
905.6761	1694.1263	63685.8	62805.4
905.8176	1695.8506	63308.95	62427.3
905.9591	1697.5742	63373.15	62493.05
906.1005	1699.297	63319.6	62436.5
906.2419	1701.0191	63347.9	62467
906.3833	1702.7404	62974.75	62093.25
906.5246	1704.461	62857.2	61971.05
906.666	1706.1808	63043.65	62160.35
906.8073	1707.8999	62914.45	62031.9
906.9487	1709.6182	62832.8	61952
907.09	1711.3358	62791.7	61912.1
907.2313	1713.0527	62689.05	61807.95
907.3725	1714.7688	62759	61872.55
907.5138	1716.4841	62320.4	61436.45
907.655	1718.1987	62464.25	61578.2
907.7962	1719.9126	62299.85	61418.2
907.9374	1721.6257	62399.75	61516
908.0786	1723.338	62434.15	61552.8
908.2198	1725.0496	61920.35	61036
908.3609	1726.7605	62008.3	61125.35
908.502	1728.4706	61782.9	60901.65
908.6431	1730.18	61960.05	61076.4
908.7842	1731.8886	61751.8	60870.95
908.9253	1733.5964	61567.3	60679.3
909.0664	1735.3036	61819.6	60937.3
909.2074	1737.0099	61625	60743
909.3484	1738.7156	61400.65	60520.45
909.4894	1740.4204	61309.55	60423.85
909.6304	1742.1246	61399.75	60517.4
909.7714	1743.8279	61452.15	60571.95
909.9123	1745.5306	61434.2	60552.65
910.0532	1747.2325	60845.15	59963.2
910.1941	1748.9336	60847.85	59968.05
910.335	1750.634	60918.75	60036.1
910.4759	1752.3336	61059.65	60179.4
910.6168	1754.0325	60673.4	59793.95
910.7576	1755.7307	61021.3	60141.7
910.8984	1757.4281	60511.2	59631.25
911.0392	1759.1247	60849.85	59959.2
911.18	1760.8206	60295.35	59411.1
911.3208	1762.5158	60359.75	59474.55
911.4615	1764.2102	60453.75	59572.2
911.6022	1765.9039	60306.6	59425.8
911.7429	1767.5968	60163.85	59281.75
911.8836	1769.289	60049.35	59168.45
912.0243	1770.9804	60168.55	59286.9
912.1649	1772.6711	60021.15	59139.55
912.3056	1774.361	59902.7	59021
912.4462	1776.0502	59864.05	58982
912.5868	1777.7386	59264.4	58380.65
912.7274	1779.4263	59623	58738.8
912.8679	1781.1132	59553.05	58673.15
913.0084	1782.7994	59401	58518.15
913.149	1784.4849	59479.25	58597.3
913.2895	1786.1696	58689.05	57800.8
913.4299	1787.8535	59103.15	58223.5
913.5704	1789.5367	59196.7	58316.85
913.7108	1791.2192	58722.2	57841.8
913.8513	1792.9009	58424.5	57513.15
913.9917	1794.5818	58722.5	57841.35
914.132	1796.2621	58284.35	57404.95
914.2724	1797.9415	58349.6	57468.35
914.4128	1799.6202	58241.6	57359.1
914.5531	1801.2982	58268.25	57385.2
914.6934	1802.9755	57814.8	56932.35
914.8337	1804.6519	57710.2	56829
914.9739	1806.3277	58241.95	57360.05
915.1142	1808.0027	57269.9	56390.55
915.2544	1809.6769	57617.4	56736.55
915.3946	1811.3504	57657.8	56775.1
915.5348	1813.0231	56912.6	56032.1
915.675	1814.6951	57346.5	56465.3
915.8151	1816.3664	57079.1	56196.3
915.9553	1818.0369	57054.3	56174
916.0954	1819.7067	56885.85	56006.55
916.2355	1821.3757	57190.8	56308.25
916.3755	1823.044	56593.85	55713.55
916.5156	1824.7115	56331.5	55452
916.6556	1826.3783	56480.8	55601.05
916.7956	1828.0443	56464.7	55586.85
916.9356	1829.7096	56233.5	55350.8
917.0756	1831.3741	55733	54851
917.2155	1833.0379	55939.65	55059.35
917.3555	1834.701	55933.45	55051.95
917.4954	1836.3633	55575.8	54695.4
917.6353	1838.0248	55745.95	54863.1
917.7751	1839.6856	55619.7	54739.35
917.915	1841.3457	55192.55	54314.55
918.0548	1843.005	55594.1	54714.05
918.1946	1844.6636	55316.3	54437.45
918.3344	1846.3214	54751.75	53870.8
918.4742	1847.9785	54860.05	53981.8
918.6139	1849.6349	54758.8	53877.55
918.7537	1851.2904	55137.45	54246.15
918.8934	1852.9453	54433.9	53552.2
919.0331	1854.5994	54688.2	53806
919.1727	1856.2528	54667.15	53780.5
919.3124	1857.9054	54186.55	53305.1
919.452	1859.5572	54055.15	53175.25
919.5916	1861.2083	54213.9	53331.4
919.7312	1862.8587	54633.95	53753.6
919.8708	1864.5084	53447.05	52566.05
920.0103	1866.1572	53867.3	52986.55
920.1498	1867.8054	53258.65	52379.85
920.2893	1869.4528	53616.55	52734.65
920.4288	1871.0994	53110	52230.15
920.5683	1872.7453	53102.95	52222.85
920.7077	1874.3905	53227.5	52338.75
920.8471	1876.0349	52756.85	51876.05
920.9865	1877.6786	53079.6	52198.8
921.1259	1879.3215	52637.95	51757.05
921.2653	1880.9637	52987.2	52107.35
921.4046	1882.6051	52570.55	51690.8
921.5439	1884.2458	52350.45	51467.65
921.6832	1885.8858	52054.95	51174.75
921.8225	1887.525	52177.15	51295.9
921.9617	1889.1634	52028.4	51148.4
922.101	1890.8011	51810.7	50930.95
922.2402	1892.4381	51350.5	50470.15
922.3794	1894.0743	51815.65	50936.35
922.5185	1895.7098	51466.75	50587.2
922.6577	1897.3446	51164.1	50283.6
922.7968	1898.9786	51219.4	50335.2
922.9359	1900.6118	50996.65	50117.4
923.075	1902.2443	50715.15	49831.8
923.214	1903.8761	50869.15	49989.9
923.3531	1905.5071	50562.6	49680.9
923.4921	1907.1374	49949.75	49067.75
923.6311	1908.7669	50183.6	49302.2
923.77	1910.3957	50318.15	49438.05
923.909	1912.0237	49845	48964.85
924.0479	1913.651	49623.55	48743.6
924.1868	1915.2776	49441.15	48562.3
924.3257	1916.9034	49420.75	48543.55
924.4646	1918.5285	49182.15	48302.9
924.6034	1920.1528	49034.35	48155.25
924.7422	1921.7764	48938.95	48058.25
924.881	1923.3992	48803.6	47923.3
925.0198	1925.0213	48429	47548.15
925.1586	1926.6427	48136.5	47257.8
925.2973	1928.2633	48385.35	47297.5
925.436	1929.8832	48077.5	47194.1
925.5747	1931.5023	47896	47015.95
925.7134	1933.1207	47623.9	46743.55
925.852	1934.7383	47721.15	46841.35
925.9906	1936.3552	47390.85	46513.7
926.1292	1937.9714	47325.85	46446.7
926.2678	1939.5868	47218.2	46337
926.4064	1941.2015	46871.35	45991
926.5449	1942.8154	46643.95	45763.25
926.6834	1944.4286	46485.9	45607.55
926.8219	1946.041	46448.45	45547.7
926.9604	1947.6528	46186.05	45301.25
927.0988	1949.2637	46036.2	45154.7
927.2372	1950.8739	45841	44959.65
927.3756	1952.4834	45866.85	44986.8
927.514	1954.0921	45738	44858.65
927.6523	1955.7001	45473.75	44591.15
927.7907	1957.3074	45409.95	44531.4
927.929	1958.9139	45122.35	44242.85
928.0673	1960.5197	45115	44234.6
928.2055	1962.1247	44834.9	43955.6
928.3438	1963.729	44616.25	43737.65
928.482	1965.3325	44512.4	43611.3
928.6202	1966.9353	44459.85	43581.85
928.7584	1968.5374	44156.7	43274.2
928.8965	1970.1387	44047.85	43167.75
929.0346	1971.7393	43915.35	43033.9
929.1727	1973.3392	43786.1	42905.9
929.3108	1974.9383	43607.75	42730.6
929.4489	1976.5366	43427.65	42548.4
929.5869	1978.1342	43381.5	42500.9
929.7249	1979.7311	43257.35	42377.6
929.8629	1981.3273	43095.9	42216.95
930.0009	1982.9227	42944.7	42064.5
930.1388	1984.5173	42825	41944.9
930.2767	1986.1112	42676.4	41796.7
930.4146	1987.7044	42576.4	41698.5
930.5525	1989.2968	42299.25	41418.2
930.6904	1990.8885	42318.5	41434.6
930.8282	1992.4795	42197.2	41317.45
930.966	1994.0697	42006.35	41125.45
931.1038	1995.6592	41894.5	41013.9
931.2415	1997.2479	41770.15	40889.95
931.3793	1998.8359	41682.55	40802.25
931.517	2000.4232	41497.05	40619.25
931.6547	2002.0097	41324.35	40448.4
931.7923	2003.5955	41214.65	40335.4
931.93	2005.1805	41154.8	40273.05
932.0676	2006.7648	41059.8	40180.9
932.2052	2008.3484	40881.6	40001.75
932.3427	2009.9312	40886.55	40003.2
932.4803	2011.5133	40690.45	39812.85
932.6178	2013.0946	40585.1	39705.35
932.7553	2014.6752	40448.45	39569.2
932.8928	2016.2551	40316.65	39435.1
933.0302	2017.8342	40194.85	39316.4
933.1676	2019.4126	40042.4	39163.6
933.305	2020.9902	39880.1	39000.9
933.4424	2022.5672	39831.65	38952.05
933.5798	2024.1433	39685.25	38800.85
933.7171	2025.7188	39576.1	38698.8
933.8544	2027.2935	39446.15	38567
933.9917	2028.8674	39260.8	38381.65
934.129	2030.4406	39189.8	38309.3
934.2662	2032.0131	39019.45	38140.75
934.4034	2033.5849	38886.45	38001.75
934.5406	2035.1559	38772.65	37894.25
934.6778	2036.7261	38712.3	37832.9
934.8149	2038.2957	38655.9	37778.3
934.952	2039.8645	38502.95	37623.05
935.0891	2041.4325	38529.3	37648.1
935.2262	2042.9998	38315.5	37434.5
935.3632	2044.5664	38237.25	37357.25
935.5002	2046.1323	38122	37243.55
935.6372	2047.6974	38031.5	37152.2
935.7742	2049.2617	37866.55	36986.6
935.9111	2050.8254	37851.45	36968.8
936.048	2052.3883	37757.65	36877
936.1849	2053.9504	37642.6	36763.9
936.3218	2055.5118	37489.45	36608.45
936.4586	2057.0725	37278.45	36397.75
936.5955	2058.6325	37247.9	36368.3
936.7323	2060.1917	37130.4	36252.95
936.869	2061.7502	36993.05	36111.15
937.0058	2063.3079	36849.7	35971.35
937.1425	2064.8649	36733.85	35851.4
937.2792	2066.4212	36654.9	35773.2
937.4159	2067.9767	36605.75	35726.95
937.5525	2069.5315	36385.2	35506.9
937.6891	2071.0856	36217.9	35338.45
937.8257	2072.6389	36114.6	35233.75
937.9623	2074.1915	35991.5	35114.75
938.0989	2075.7433	35735.4	34853.7
938.2354	2077.2945	35716.3	34837.6
938.3719	2078.8448	35582.75	34703.05
938.5084	2080.3945	35462.65	34583.6
938.6448	2081.9434	35434.4	34554.7
938.7812	2083.4916	35311.95	34433.1
938.9176	2085.039	35170.6	34290.85
939.054	2086.5857	35089.55	34208.8
939.1903	2088.1317	35025.85	34148
939.3267	2089.677	34935.75	34055.95
939.463	2091.2215	34788.1	33908.1
939.5992	2092.7652	34720.3	33839.65
939.7355	2094.3083	34620.45	33741.6
939.8717	2095.8506	34559.85	33680.5
940.0079	2097.3921	34519.2	33640.75
940.1441	2098.933	34379.9	33497.85
940.2802	2100.4731	34297.4	33419.25
940.4163	2102.0124	34245.1	33349.85
940.5524	2103.5511	34157.65	33279.15
940.6885	2105.089	34070.8	33191.65
940.8245	2106.6261	34011.85	33134.55
940.9606	2108.1626	33911.9	33031.85
941.0965	2109.6983	33853.05	32945.95
941.2325	2111.2332	33723.15	32843.4
941.3684	2112.7675	33624.8	32744.9
941.5044	2114.301	33534.35	32650.85
941.6403	2115.8337	33536.3	32658.55
941.7761	2117.3657	33388.2	32508.85
941.912	2118.897	33292	32411.8
942.0478	2120.4276	33137.35	32253.25
942.1835	2121.9575	32997.2	32119
942.3193	2123.4866	33029	32135.15
942.455	2125.0149	32950.55	32068.35
942.5907	2126.5426	32752.3	31872.35
942.7264	2128.0695	32667.1	31785.35
942.8621	2129.5956	32585.8	31708
942.9977	2131.1211	32465.7	31580.9
943.1333	2132.6458	32421.25	31544.55
943.2689	2134.1698	32357.95	31478.8
943.4044	2135.693	32224.35	31343.4
943.54	2137.2155	32164.85	31282.4
943.6755	2138.7373	32078.1	31198.9
943.8109	2140.2584	31949.5	31069.8
943.9464	2141.7787	31877.2	30991.95
944.0818	2143.2983	31717.55	30839.4
944.2172	2144.8171	31595.15	30716.2
944.3526	2146.3353	31507.2	30625.25
944.4879	2147.8527	31348.2	30469.85
944.6232	2149.3693	31362.85	30483.9
944.7585	2150.8853	31203.9	30323.45
944.8938	2152.4005	31082.1	30203.1
945.029	2153.9149	31027.6	30147.5
945.1642	2155.4287	30946	30067.55
945.2994	2156.9417	30875	29993.25
945.4346	2158.454	30769.05	29884.85
945.5697	2159.9655	30700.55	29822.35
945.7048	2161.4764	30636.35	29757.05
945.8399	2162.9865	30534.5	29654.4
945.9749	2164.4958	30392.65	29513.45
946.1099	2166.0045	30268.4	29385.2
946.2449	2167.5124	30285.05	29405.9
946.3799	2169.0195	30159	29278.3
946.5148	2170.526	30172.3	29290.5
946.6498	2172.0317	30012.4	29132.9
946.7846	2173.5367	29944.55	29063
946.9195	2175.0409	29869.55	28991.55
947.0543	2176.5445	29840.5	28963.8
947.1891	2178.0473	29688.05	28809.15
947.3239	2179.5494	29569.3	28685.9
947.4587	2181.0507	29411.95	28532.15
947.5934	2182.5513	29364.7	28485.4
947.7281	2184.0512	29322.95	28441.25
947.8628	2185.5504	29214.75	28334.2
947.9974	2187.0488	29038.6	28160.25
948.132	2188.5465	28925.5	28045.95
948.2666	2190.0435	28878.1	27998.1
948.4012	2191.5397	28731.85	27853.05
948.5357	2193.0353	28635.4	27757.6
948.6702	2194.5301	28520.7	27639.9
948.8047	2196.0241	28381.2	27501.2
948.9392	2197.5175	28384.55	27505.95
949.0736	2199.0101	28250.2	27367.15
949.208	2200.502	28104.95	27226.65
949.3424	2201.9931	27963.75	27081.7
949.4767	2203.4835	27897.6	27017.95
949.611	2204.9733	27835.7	26951.1
949.7453	2206.4622	27802.05	26922.9
949.8796	2207.9505	27709.95	26828.2
950.0138	2209.438	27537.9	26659.9
950.148	2210.9248	27492.45	26612.1
950.2822	2212.4109	27386.25	26507.35
950.4164	2213.8962	27253.2	26372.55
950.5505	2215.3809	27190.2	26310.8
950.6846	2216.8648	27143.05	26261.9
950.8186	2218.3479	27023.2	26140.15
950.9527	2219.8304	26932.4	26049.95
951.0867	2221.3121	26819.35	25937
951.2207	2222.7931	26742.2	25865.8
951.3546	2224.2733	26646.15	25765.9
951.4886	2225.7529	26537.25	25656.45
951.6225	2227.2317	26440.65	25558.5
951.7563	2228.7098	26463.7	25585.3
951.8902	2230.1872	26285.35	25405.25
952.024	2231.6638	26236	25357.65
952.1578	2233.1397	26133.65	25248.2
952.2916	2234.6149	26076.85	25199
952.4253	2236.0894	25970.8	25092.8
952.559	2237.5632	25878.85	24997
952.6927	2239.0362	25765.35	24884.9
952.8263	2240.5085	25706.35	24826.8
952.9599	2241.9801	25589.8	24711.95
953.0935	2243.4509	25509.4	24630.3
953.2271	2244.921	25447.15	24566.55
953.3606	2246.3904	25291.7	24411.45
953.4941	2247.8591	25228.8	24349.7
953.6276	2249.3271	25154.9	24277.3
953.7611	2250.7943	25072.4	24193.65
953.8945	2252.2608	25022.2	24142.3
954.0279	2253.7266	24948.35	24071
954.1612	2255.1917	24919.6	24039.9
954.2946	2256.656	24752.65	23871.55
954.4279	2258.1197	24686.8	23808.25
954.5612	2259.5826	24670.35	23789.8
954.6944	2261.0447	24604.45	23725.45
954.8276	2262.5062	24451.8	23569.7
954.9608	2263.9669	24411.9	23529.6
955.094	2265.4269	24383.7	23503.5
955.2271	2266.8862	24307.4	23428.5
955.3602	2268.3448	24225.2	23345.45
955.4933	2269.8026	24178.65	23300.6
955.6264	2271.2598	24089.25	23211.75
955.7594	2272.7162	24036.45	23158.15
955.8924	2274.1719	23916.1	23035.2
956.0253	2275.6268	23845.65	22967.1
956.1583	2277.0811	23785.5	22905.3
956.2912	2278.5346	23731.45	22851.95
956.4241	2279.9874	23673.8	22794.5
956.5569	2281.4395	23669.45	22791.2
956.6897	2282.8908	23542.6	22657.65
956.8225	2284.3414	23516.9	22637.25
956.9553	2285.7914	23432.5	22554.3
957.088	2287.2406	23304.75	22424.85
957.2207	2288.689	23275.75	22395.65
957.3534	2290.1368	23197.5	22316.85
957.486	2291.5838	23114.5	22235.35
957.6186	2293.0302	23042.6	22162.05
957.7512	2294.4758	22927.5	22050.45
957.8838	2295.9206	22840.65	21958.2
958.0163	2297.3648	22788.4	21910
958.1488	2298.8082	22749.1	21870.55
958.2813	2300.251	22677.25	21797.6
958.4137	2301.693	22577.8	21695
958.5461	2303.1343	22548.3	21667.35
958.6785	2304.5748	22488.3	21609.75
958.8108	2306.0147	22391.4	21510.35
958.9432	2307.4538	22361.75	21480.95
959.0754	2308.8922	22248.35	21370.95
959.2077	2310.3299	22159.8	21281.9
959.3399	2311.7669	22122.95	21244.35
959.4721	2313.2031	22020.8	21140.65
959.6043	2314.6387	21921	21042.25
959.7365	2316.0735	21877.15	20997.85
959.8686	2317.5076	21846.5	20967.4
960.0006	2318.941	21777.3	20899.1
960.1327	2320.3737	21717.6	20837.05
960.2647	2321.8056	21639.7	20759.25
960.3967	2323.2369	21589.6	20709.95
960.5287	2324.6674	21514.4	20632.85
960.6606	2326.0972	21427.7	20545.3
960.7925	2327.5263	21313.1	20433.95
960.9244	2328.9547	21254.05	20374
961.0562	2330.3823	21196.45	20317.05
961.1881	2331.8092	21213.45	20331.05
961.3198	2333.2355	21078.75	20199.85
961.4516	2334.661	21058.6	20177.25
961.5833	2336.0858	20999.5	20117.9
961.715	2337.5098	20981.6	20101.55
961.8467	2338.9332	20879.25	19999.9
961.9783	2340.3558	20813	19930.55
962.1099	2341.7778	20749.65	19870
962.2415	2343.199	20681.35	19799.05
962.373	2344.6195	20622.5	19742.2
962.5045	2346.0393	20559.45	19681.05
962.636	2347.4583	20512.3	19633.3
962.7675	2348.8767	20397.3	19516.65
962.8989	2350.2943	20389.65	19508.4
963.0303	2351.7113	20345.1	19466.05
963.1617	2353.1275	20249.55	19368.75
963.293	2354.543	20168.3	19278.9
963.4243	2355.9578	20106	19226.9
963.5556	2357.3718	19970.3	19090.95
963.6868	2358.7852	19905.5	19021.35
963.818	2360.1978	19866.05	18986.85
963.9492	2361.6098	19853	18975.1
964.0803	2363.021	19747.35	18862.95
964.2114	2364.4315	19728.15	18847.65
964.3425	2365.8413	19633.9	18752.1
964.4736	2367.2504	19555.05	18675.75
964.6046	2368.6587	19496.45	18616.75
964.7356	2370.0664	19363.2	18485.5
964.8666	2371.4733	19337.6	18457.95
964.9975	2372.8795	19282.5	18404.65
965.1284	2374.285	19146.35	18269.05
965.2593	2375.6899	19081.75	18203.35
965.3901	2377.0939	19018.85	18139.8
965.5209	2378.4973	18946.8	18069.3
965.6517	2379.9	18913.15	18032.5
965.7825	2381.3019	18844.1	17967.15
965.9132	2382.7032	18811.1	17933.4
966.0439	2384.1037	18761.8	17882.75
966.1745	2385.5035	18649.9	17771.15
966.3051	2386.9027	18591.5	17713.15
966.4357	2388.3011	18547.65	17664.3
966.5663	2389.6987	18489.35	17610.1
966.6968	2391.0957	18415.8	17536.45
966.8273	2392.492	18355.95	17478.25
966.9578	2393.8876	18224.6	17347.55
967.0882	2395.2824	18165.95	17285.4
967.2186	2396.6765	18117.4	17240.15
967.349	2398.07	17997	17119.05
967.4793	2399.4627	18002.45	17123.05
967.6097	2400.8547	17973.75	17094.4
967.7399	2402.246	17885.45	17000.95
967.8702	2403.6366	17746.05	16865.8
968.0004	2405.0265	17707	16828.1
968.1306	2406.4156	17626.5	16743.65
968.2607	2407.8041	17568.35	16684.3
968.3909	2409.1918	17490.8	16608.85
968.521	2410.5789	17442.75	16562.85
968.651	2411.9652	17352.3	16470.4
968.781	2413.3508	17312.85	16434
968.911	2414.7358	17211.6	16332.7
969.041	2416.12	17156.9	16279.15
969.1709	2417.5035	17128.55	16250.7
969.3008	2418.8863	17029.3	16148.85
969.4307	2420.2684	17000.95	16122.75
969.5606	2421.6497	16918.2	16037.3
969.6904	2423.0304	16812.4	15934.15
969.8201	2424.4104	16771.35	15891.85
969.9499	2425.7896	16749.7	15867.7
970.0796	2427.1682	16694.8	15816.85
970.2093	2428.546	16659.3	15779.3
970.3389	2429.9232	16608.5	15728.35
970.4685	2431.2996	16538.85	15660.25
970.5981	2432.6753	16496.7	15618.4
970.7277	2434.0503	16467.3	15586.75
970.8572	2435.4246	16361.45	15483.3
970.9867	2436.7982	16288.8	15407.5
971.1161	2438.1711	16268.8	15392.3
971.2456	2439.5433	16216.5	15336.2
971.375	2440.9148	16105	15225.5
971.5043	2442.2856	16038.2	15159.7
971.6336	2443.6557	16020.1	15139.7
971.7629	2445.025	15983.95	15105.7
971.8922	2446.3937	15931.4	15052.55
972.0214	2447.7617	15853.6	14973.65
972.1506	2449.1289	15821.95	14941.95
972.2798	2450.4955	15784.2	14901.2
972.4089	2451.8613	15734.15	14856.75
972.538	2453.2265	15721.85	14842.4
972.6671	2454.5909	15687.6	14808.05
972.7961	2455.9546	15636.15	14756.6
972.9251	2457.3177	15526.35	14649
973.0541	2458.68	15483.3	14602.05
973.1831	2460.0416	15476.2	14596.8
973.312	2461.4025	15479.5	14599.25
973.4408	2462.7627	15395.15	14502.65
973.5697	2464.1222	15337.45	14459.75
973.6985	2465.4811	15308.05	14427.45
973.8273	2466.8392	15245.25	14363.5
973.956	2468.1966	15160.85	14280.7
974.0847	2469.5533	15159.25	14278.7
974.2134	2470.9093	15122	14242.15
974.3421	2472.2645	15074.15	14192.6
974.4707	2473.6191	15037.5	14159.85
974.5993	2474.973	14933.35	14051.9
974.7278	2476.3262	14907.55	14025.7
974.8563	2477.6787	14851.5	13973.1
974.9848	2479.0305	14788.55	13910.75
975.1132	2480.3816	14715.85	13834.1
975.2417	2481.7319	14654.4	13775.35
975.37	2483.0816	14599.1	13717.15
975.4984	2484.4306	14523.45	13643.25
975.6267	2485.7789	14506.8	13626.7
975.755	2487.1264	14411.2	13532.65
975.8833	2488.4733	14394.65	13517.7
976.0115	2489.8195	14349.8	13464.2
976.1397	2491.165	14279.05	13398.35
976.2678	2492.5097	14234.45	13354.05
976.3959	2493.8538	14192.4	13314.15
976.524	2495.1972	14129.2	13250.3
976.6521	2496.5398	14074.85	13193.2
976.7801	2497.8818	14017.7	13138.75
976.9081	2499.2231	13978.55	13099.6
977.036	2500.5637	13909.85	13029.6
977.164	2501.9035	13860.2	12979.55
977.2918	2503.2427	13827	12942.75
977.4197	2504.5812	13776.8	12898.45
977.5475	2505.919	13761	12880.85
977.6753	2507.256	13723.35	12843.4
977.8031	2508.5924	13653.1	12774.4
977.9308	2509.9281	13606.5	12720.85
978.0585	2511.2631	13556.95	12680.05
978.1861	2512.5974	13533.15	12655.15
978.3137	2513.9309	13458.6	12579.8
978.4413	2515.2638	13400.6	12491.65
978.5689	2516.596	13349.6	12472.2
978.6964	2517.9275	13331.1	12451.6
978.8239	2519.2583	13259.1	12376.95
978.9513	2520.5884	13199.6	12318.4
979.0788	2521.9178	13137.6	12257.55
979.2062	2523.2465	13115.25	12235.75
979.3335	2524.5745	13056.75	12178.15
979.4608	2525.9018	12976.45	12095.25
979.5881	2527.2284	13016.7	12138.75
979.7154	2528.5543	12973.4	12096.4
979.8426	2529.8796	12909.3	12030.35
979.9698	2531.2041	12877.6	11997.85
980.0969	2532.5279	12833.4	11954.1
980.224	2533.851	12832.15	11953.8
980.3511	2535.1735	12787.6	11907.9
980.4781	2536.4952	12757.6	11878.35
980.6052	2537.8163	12724.35	11845.1
980.7321	2539.1366	12658.8	11782.1
980.8591	2540.4562	12631.15	11750.9
980.986	2541.7752	12607.65	11728.45
981.1129	2543.0935	12581.2	11702.7
981.2397	2544.411	12548.55	11668.4
981.3665	2545.7279	12527.5	11648.7
981.4933	2547.0441	12496.4	11617.8
981.62	2548.3596	12484.5	11602.55
981.7467	2549.6744	12467.15	11589.7
981.8734	2550.9885	12404.1	11517.2
982.0001	2552.3019	12350.05	11472.15
982.1267	2553.6146	12342.35	11462.35
982.2532	2554.9266	12296.75	11418.15
982.3798	2556.2379	12254.4	11372
982.5063	2557.5485	12253.8	11377.7
982.6327	2558.8585	12197.65	11311.75
982.7592	2560.1677	12182.9	11301.45
982.8856	2561.4762	12141	11263.6
983.0119	2562.7841	12107.3	11223.6
983.1383	2564.0913	12067.1	11188.65
983.2646	2565.3977	12061.35	11181.9
983.3908	2566.7035	12025.85	11145.75
983.517	2568.0086	11995	11115.3
983.6432	2569.313	11973.45	11094.8
983.7694	2570.6167	11940.7	11058.65
983.8955	2571.9197	11921.4	11045.35
984.0216	2573.222	11898.95	11015.9
984.1476	2574.5236	11862.3	10983.9
984.2737	2575.8246	11812.55	10930.4
984.3996	2577.1248	11816.3	10934.05
984.5256	2578.4244	11771.55	10893.35
984.6515	2579.7232	11752.1	10872.65
984.7774	2581.0214	11736.3	10832.5
984.9032	2582.3189	11722.25	10844.65
985.029	2583.6157	11658.5	10772.85
985.1548	2584.9118	11657.9	10779.15
985.2806	2586.2072	11594.85	10714.55
985.4063	2587.5019	11539.35	10660.85
985.5319	2588.7959	11514.15	10635.35
985.6576	2590.0893	11537.3	10656.65
985.7832	2591.3819	11491.45	10615.45
985.9087	2592.6739	11456.85	10578.35
986.0343	2593.9652	11395.65	10515.65
986.1597	2595.2557	11349.1	10470.85
986.2852	2596.5456	11296.35	10416.4
986.4106	2597.8348	11273.3	10395.3
986.536	2599.1234	11188.4	10309.05
986.6614	2600.4112	11194.75	10315.5
986.7867	2601.6983	11165.95	10284.5
986.912	2602.9848	11114.3	10236
987.0372	2604.2705	11055.4	10169.15
987.1624	2605.5556	11036.35	10157.5
987.2876	2606.84	10984.6	10106.3
987.4128	2608.1237	10945.4	10067.3
987.5379	2609.4067	10917.5	10039.15
987.6629	2610.689	10879.75	9991.05
987.788	2611.9707	10830.4	9949.05
987.913	2613.2516	10791.3	9908.6
988.0379	2614.5319	10728.5	9850.85
988.1629	2615.8115	10672.3	9791.3
988.2878	2617.0903	10661.55	9781.4
988.4126	2618.3685	10624.65	9744.5
988.5375	2619.6461	10564.9	9687.05
988.6622	2620.9229	10526.95	9646.65
988.787	2622.199	10514.7	9635.4
988.9117	2623.4745	10464.6	9585.45
989.0364	2624.7493	10458.15	9579.45
989.161	2626.0234	10389.15	9511.2
989.2857	2627.2968	10354.85	9476.05
989.4102	2628.5695	10313.25	9432.05
989.5348	2629.8415	10263.6	9386.5
989.6593	2631.1128	10206.1	9325.8
989.7837	2632.3835	10172.15	9293.05
989.9082	2633.6535	10134.7	9255
990.0326	2634.9228	10099.3	9220.95
990.1569	2636.1914	10045.7	9166.55
990.2812	2637.4593	10049.4	9164.75
990.4055	2638.7265	10003.85	9124.15
990.5298	2639.9931	9983.6	9103.05
990.654	2641.259	9923.5	9042.8
990.7782	2642.5242	9933.8	9055.25
990.9023	2643.7887	9888.95	9009.55
991.0264	2645.0525	9875.05	8997.45
991.1505	2646.3156	9832.65	8954.3
991.2745	2647.5781	9788.45	8910.7
991.3985	2648.8398	9756.5	8879.9
991.5225	2650.1009	9727	8810.5
991.6464	2651.3613	9706.05	8828.2
991.7703	2652.6211	9693.5	8815.65
991.8942	2653.8801	9622.2	8745.4
992.018	2655.1385	9617.95	8734.3
992.1418	2656.3961	9580.85	8703.2
992.2655	2657.6531	9582.55	8704.75
992.3892	2658.9094	9526.95	8647.95
992.5129	2660.1651	9517.85	8640.3
992.6366	2661.42	9460.75	8580.45
992.7602	2662.6743	9463.05	8584.6
992.8837	2663.9279	9431.45	8554.25
993.0073	2665.1808	9387.6	8507.8
993.1307	2666.433	9366.2	8486
993.2542	2667.6846	9356.35	8476.4
993.3776	2668.9354	9314.35	8432.65
993.501	2670.1856	9302.8	8421.95
993.6244	2671.4351	9265.75	8387.85
993.7477	2672.6839	9266.2	8386.2
993.8709	2673.9321	9216.3	8336.9
993.9942	2675.1795	9174.6	8295.2
994.1174	2676.4263	9149.2	8269.5
994.2405	2677.6724	9125.45	8246.25
994.3637	2678.9179	9109.15	8229.55
994.4868	2680.1626	9078.85	8201.7
994.6098	2681.4067	9053.4	8174.8
994.7328	2682.6501	9025.4	8147.35
994.8558	2683.8928	8988.8	8110.5
994.9788	2685.1348	8943.6	8067.75
995.1017	2686.3761	8911.05	8034.35
995.2245	2687.6168	8880.2	7999.1
995.3474	2688.8568	8845.2	7966.35
995.4702	2690.0961	8816.6	7937.6
995.5929	2691.3348	8806.15	7926.85
995.7156	2692.5727	8787.65	7907.05
995.8383	2693.81	8747.7	7868.3
995.961	2695.0466	8727.7	7848.85
996.0836	2696.2826	8673.7	7793.5
996.2062	2697.5178	8680.05	7800.3
996.3287	2698.7524	8641.3	7762.6
996.4512	2699.9863	8652.6	7771.9
996.5737	2701.2195	8592.65	7713
996.6961	2702.452	8564.45	7687.05
996.8185	2703.6839	8534.6	7653.15
996.9408	2704.9151	8518.1	7641.85
997.0631	2706.1456	8485.95	7605.75
997.1854	2707.3755	8447.2	7566
997.3077	2708.6046	8430	7549.1
997.4299	2709.8331	8413.7	7535.9
997.552	2711.0609	8368.6	7489.3
997.6742	2712.2881	8339.8	7462.3
997.7963	2713.5145	8304.6	7423.85
997.9183	2714.7403	8316.5	7438.55
998.0403	2715.9654	8273.2	7393.9
998.1623	2717.1899	8250	7371.4
998.2842	2718.4136	8215	7335.45
998.4062	2719.6367	8221.05	7341.85
998.528	2720.8591	8198.45	7312.6
998.6498	2722.0809	8172.45	7294.55
998.7716	2723.3019	8146.65	7265.3
998.8934	2724.5223	8117.6	7239.4
999.0151	2725.7421	8091.45	7211.6
999.1368	2726.9611	8058.35	7177.3
999.2584	2728.1795	8025.25	7142.3
999.38	2729.3972	8013.3	7134.3
999.5016	2730.6142	7968.25	7082.3
999.6231	2731.8306	7909.9	7030.65
999.7446	2733.0462	7861.5	6980.1
999.8661	2734.2612	7872	6989.55
999.9875	2735.4756	7807.7	6926.15
1000.1089	2736.6892	7757.25	6876.95
1000.2302	2737.9022	7712.35	6834.8
1000.3515	2739.1145	7691.85	6812
1000.4728	2740.3262	7673.6	6786.5
1000.594	2741.5372	7603.95	6727.65
1000.7152	2742.7475	7561.6	6682.1
1000.8363	2743.9571	7566.1	6686.7
1000.9575	2745.1661	7545.1	6662.85
1001.0785	2746.3744	7520.55	6641.7
1001.1996	2747.582	7457.9	6579.65
1001.3206	2748.7889	7457.45	6577.55
1001.4415	2749.9952	7420.8	6542.2
1001.5625	2751.2008	7386.75	6507.45
1001.6833	2752.4057	7377.75	6496.55
1001.8042	2753.61	7318.3	6437.5
1001.925	2754.8136	7309.2	6431.3
1002.0458	2756.0165	7255.45	6376.5
1002.1665	2757.2188	7239.2	6360.9
1002.2872	2758.4204	7223.9	6343.4
1002.4078	2759.6213	7216.8	6335.55
1002.5285	2760.8215	7198.2	6317
1002.649	2762.0211	7161.35	6279.55
1002.7696	2763.22	7111.85	6231.1
1002.8901	2764.4182	7113.2	6233.5
1003.0106	2765.6158	7090.45	6212.2
1003.131	2766.8127	7082.75	6203.55
1003.2514	2768.009	7017.85	6137.05
1003.3717	2769.2045	7018.1	6138.2
1003.492	2770.3994	6985.8	6105.7
1003.6123	2771.5936	6976.8	6098.45
1003.7325	2772.7872	6932.6	6055.7
1003.8527	2773.9801	6892.3	6011.7
1003.9729	2775.1723	6898.6	6004.05
1004.093	2776.3639	6851.9	5975.95
1004.2131	2777.5548	6849.4	5967.7
1004.3331	2778.745	6807.15	5928.2
1004.4531	2779.9346	6802.15	5923.4
1004.5731	2781.1235	6797.85	5918.45
1004.693	2782.3117	6775.7	5897.45
1004.8129	2783.4992	6736.35	5858.55
1004.9328	2784.6861	6702.5	5824.55
1005.0526	2785.8723	6704.35	5824.75
1005.1723	2787.0579	6681.25	5803
1005.2921	2788.2428	6669.4	5790.25
1005.4118	2789.427	6635.15	5756.45
1005.5314	2790.6106	6630.7	5752.05
1005.651	2791.7935	6592.7	5712.55
1005.7706	2792.9757	6579.1	5700.8
1005.8902	2794.1573	6559	5679
1006.0097	2795.3382	6546.15	5667.35
1006.1291	2796.5184	6508.5	5632.4
1006.2485	2797.698	6506.5	5627
1006.3679	2798.8769	6503.2	5625
1006.4873	2800.0551	6474.8	5594.05
1006.6066	2801.2327	6456.55	5574.15
1006.7258	2802.4096	6444.3	5566.35
1006.8451	2803.5859	6429.05	5548.55
1006.9642	2804.7615	6435.55	5555.55
1007.0834	2805.9364	6421.9	5544.25
1007.2025	2807.1106	6426.65	5547.25
1007.3216	2808.2842	6406.5	5527.45
1007.4406	2809.4572	6429.5	5550.35
1007.5596	2810.6294	6424.15	5545.05
1007.6785	2811.801	6436.05	5559
1007.7975	2812.972	6453.5	5576.95
1007.9163	2814.1423	6466.45	5586.4
1008.0352	2815.3119	6468.9	5590.25
1008.154	2816.4808	6483.85	5606.15
1008.2727	2817.6491	6523.95	5644.45
1008.3914	2818.8167	6533.85	5658.25
1008.5101	2819.9837	6533.85	5650.9
1008.6288	2821.15	6564.3	5686.3
1008.7474	2822.3157	6593.7	5715.35
1008.8659	2823.4807	6627	5748.5
1008.9844	2824.645	6670.15	5790.7
1009.1029	2825.8086	6667.65	5790.95
1009.2214	2826.9716	6680.75	5800.8
1009.3398	2828.134	6736.9	5859.7
1009.4581	2829.2957	6762.5	5883.3
1009.5764	2830.4567	6751.65	5876.4
1009.6947	2831.617	6784.85	5905.6
1009.813	2832.7767	6764.45	5887.95
1009.9312	2833.9358	6747.15	5869.4
1010.0493	2835.0941	6730.15	5849.9
1010.1675	2836.2519	6724.35	5846.55
1010.2855	2837.4089	6678.5	5799.15
1010.4036	2838.5653	6671.5	5793.35
1010.5216	2839.7211	6648.6	5773.5
1010.6396	2840.8761	6612.6	5733
1010.7575	2842.0306	6619.65	5743.4
1010.8754	2843.1843	6618	5740.1
1010.9932	2844.3374	6634.25	5756.5
1011.111	2845.4899	6667.4	5786.7
1011.2288	2846.6417	6689.2	5812.2
1011.3465	2847.7928	6717.05	5841.1
1011.4642	2848.9433	6773	5894.85
1011.5818	2850.0931	6796.75	5920.4
1011.6995	2851.2422	6831.6	5950.85
1011.817	2852.3907	6881.8	6000.75
1011.9345	2853.5385	6908.05	6028.65
1012.052	2854.6857	6922.25	6034.4
1012.1695	2855.8323	6938.95	6063.9
1012.2869	2856.9781	6952.45	6073.25
1012.4042	2858.1233	6976.75	6097.4
1012.5216	2859.2679	7002.95	6125.4
1012.6389	2860.4118	7019.65	6141.9
1012.7561	2861.555	7033.75	6150.2
1012.8733	2862.6976	7055.85	6178.05
1012.9905	2863.8395	7037.75	6158.85
1013.1076	2864.9808	7065.9	6188.9
1013.2247	2866.1214	7046.75	6167.85
1013.3417	2867.2614	7046.45	6168.85
1013.4587	2868.4007	7060.4	6181.35
1013.5757	2869.5393	7044.85	6164.2
1013.6926	2870.6773	7036.55	6156.9
1013.8095	2871.8146	7019.25	6135.65
1013.9263	2872.9513	6998.75	6116.1
1014.0431	2874.0874	6979.5	6102.35
1014.1599	2875.2227	6948	6067.8
1014.2766	2876.3574	6924.25	6044.95
1014.3933	2877.4915	6871.9	5993.5
1014.51	2878.6249	6843.15	5967.85
1014.6266	2879.7577	6802.9	5922.2
1014.7431	2880.8898	6782.75	5893.85
1014.8596	2882.0212	6753	5877.55
1014.9761	2883.152	6718.9	5840.1
1015.0925	2884.2821	6678.65	5800.65
1015.2089	2885.4116	6670.95	5794
1015.3253	2886.5405	6625.55	5744.5
1015.4416	2887.6686	6624.9	5743.7
1015.5579	2888.7962	6606.45	5730
1015.6741	2889.923	6593.75	5715.9
1015.7903	2891.0493	6595.25	5718.95
1015.9065	2892.1748	6583.5	5704.75
1016.0226	2893.2997	6577.6	5699.85
1016.1387	2894.424	6555	5679
1016.2547	2895.5476	6565.5	5687.05
1016.3707	2896.6706	6548.6	5670.2
1016.4866	2897.7929	6538.4	5658.4
1016.6025	2898.9145	6557.45	5678.95
1016.7184	2900.0355	6563.2	5682.4
1016.8342	2901.1559	6550.05	5673.1
1016.95	2902.2756	6562.65	5686.1
1017.0658	2903.3946	6581.15	5703.05
1017.1815	2904.513	6581.65	5698.3
1017.2971	2905.6308	6580.5	5703.25
1017.4127	2906.7479	6575.4	5696.05
1017.5283	2907.8643	6600.6	5722.3
1017.6439	2908.9801	6598.75	5719.35
1017.7594	2910.0953	6573.05	5695.5
1017.8748	2911.2098	6550.45	5670.6
1017.9902	2912.3236	6516.4	5630.65
1018.1056	2913.4368	6498.65	5617.8
1018.2209	2914.5494	6483	5605.15
1018.3362	2915.6613	6438.15	5554.3
1018.4515	2916.7725	6394.35	5512.8
1018.5667	2917.8831	6380.45	5500.9
1018.6819	2918.9931	6336.6	5456.85
1018.797	2920.1024	6301.8	5420.65
1018.9121	2921.211	6281.15	5402.65
1019.0271	2922.319	6256.15	5378.65
1019.1421	2923.4264	6221.95	5344
1019.2571	2924.5331	6185.65	5310.35
1019.372	2925.6391	6161.2	5284.3
1019.4869	2926.7445	6160.85	5285.2
1019.6017	2927.8493	6141.05	5262.65
1019.7165	2928.9534	6124.75	5247.45
1019.8313	2930.0569	6120	5239.35
1019.946	2931.1597	6102.1	5223.6
1020.0606	2932.2619	6098.2	5219.15
1020.1753	2933.3634	6097.3	5220.05
1020.2899	2934.4643	6113.75	5230.15
1020.4044	2935.5645	6048.4	5163.8
1020.5189	2936.6641	6011.8	5129.95
1020.6334	2937.763	5976.4	5099.45
1020.7478	2938.8613	5926.25	5047.4
1020.8622	2939.959	5898.4	5014.45
1020.9765	2941.056	5826.85	4951
1021.0908	2942.1523	5735.85	4856.05
1021.2051	2943.248	5677.75	4797.9
1021.3193	2944.3431	5592.5	4716.1
1021.4334	2945.4375	5498.15	4620.15
1021.5476	2946.5313	5420.55	4542.5
1021.6617	2947.6244	5327.85	4448.65
1021.7757	2948.7169	5232.35	4354.2
1021.8897	2949.8087	5147.15	4266.2
1022.0037	2950.8999	5040.05	4163.1
1022.1176	2951.9904	4972.65	4093.65
1022.2315	2953.0803	4912.3	4035.5
1022.3453	2954.1696	4837.65	3958.95
1022.4591	2955.2582	4780.55	3902.25
1022.5728	2956.3462	4737.4	3859.65
1022.6865	2957.4335	4696.5	3818.25
1022.8002	2958.5202	4660.65	3777.8
1022.9138	2959.6062	4620.6	3743.8
1023.0274	2960.6916	4584.15	3707.3
1023.141	2961.7764	4570.45	3691.8
1023.2545	2962.8605	4542.85	3664.75
1023.3679	2963.9439	4503.35	3625.35
1023.4813	2965.0267	4489.95	3612.55
1023.5947	2966.1089	4487.25	3587.15
1023.708	2967.1905	4449.1	3572.05
1023.8213	2968.2714	4449.55	3571.65
1023.9346	2969.3516	4412.9	3535.35
1024.0478	2970.4312	4412.6	3525.75
1024.1609	2971.5102	4392.05	3514.05
1024.274	2972.5885	4393.15	3515.35
1024.3871	2973.6662	4375.65	3493.25
1024.5002	2974.7432	4351.65	3473.25
1024.6132	2975.8196	4351.75	3473.9
1024.7261	2976.8954	4341.6	3463.75
1024.839	2977.9705	4319.85	3440.2
1024.9519	2979.045	4286.2	3411.1
1025.0647	2980.1188	4258.7	3379.85
1025.1775	2981.192	4231	3353.85
1025.2902	2982.2645	4207.9	3329.45
1025.4029	2983.3364	4180.05	3301.55
1025.5156	2984.4077	4143.45	3264.95
1025.6282	2985.4783	4107.95	3225
1025.7407	2986.5483	4075.45	3199.75
1025.8532	2987.6177	4045.3	3166.55
1025.9657	2988.6864	4025	3145.75
1026.0782	2989.7545	3984.3	3104.1
1026.1906	2990.8219	3936.1	3058.35
1026.3029	2991.8887	3916.15	3035.4
1026.4152	2992.9548	3876.7	2998.4
1026.5275	2994.0204	3844.95	2965.85
1026.6397	2995.0852	3825.6	2949.65
1026.7519	2996.1495	3782.55	2904.4
1026.864	2997.2131	3759.15	2884.05
1026.9761	2998.276	3724.9	2846.45
1027.0882	2999.3383	3703.7	2824.5
1027.2002	3000.4	3669.5	2790.55
1027.3122	3001.4611	3643.05	2764
1027.4241	3002.5215	3626.1	2749.15
1027.536	3003.5812	3602	2723.95
1027.6478	3004.6404	3579.5	2701.9
1027.7596	3005.6989	3562.8	2683.35
1027.8714	3006.7567	3543.75	2665.1
1027.9831	3007.8139	3547.6	2638.4
1028.0947	3008.8705	3515.75	2639.2
1028.2064	3009.9264	3511.65	2629.75
1028.3179	3010.9818	3500.55	2623.35
1028.4295	3012.0364	3473.05	2593.7
1028.541	3013.0905	3449.55	2572.85
1028.6524	3014.1439	3434.05	2555.6
1028.7638	3015.1966	3438.05	2559.55
1028.8752	3016.2487	3422.6	2545.15
1028.9865	3017.3002	3397.85	2514.85
1029.0978	3018.3511	3385.4	2507.8
1029.209	3019.4013	3377.95	2500.3
1029.3202	3020.4509	3378.85	2502.75
1029.4314	3021.4998	3357.15	2477.25
1029.5425	3022.5481	3354.25	2476.5
1029.6535	3023.5958	3352.8	2474.7
1029.7645	3024.6428	3329.9	2454.75
1029.8755	3025.6892	3326.45	2450.05
1029.9864	3026.735	3310.15	2431.7
1030.0973	3027.7802	3313.85	2437.75
1030.2082	3028.8247	3298.3	2420.7
1030.319	3029.8685	3279.05	2402.2
1030.4297	3030.9118	3276.3	2396.2
1030.5404	3031.9544	3268	2391.7
1030.6511	3032.9963	3246.65	2368.75
1030.7617	3034.0376	3254.6	2378.4
1030.8723	3035.0783	3252.2	2370.6
1030.9829	3036.1184	3236.8	2356.65
1031.0934	3037.1578	3220.8	2343.85
1031.2038	3038.1966	3224.75	2346
1031.3142	3039.2348	3208.6	2332.45
1031.4246	3040.2723	3222.6	2337.1
1031.5349	3041.3092	3217.05	2339.7
1031.6452	3042.3455	3183.3	2306
1031.7554	3043.3811	3182.75	2303.55
1031.8656	3044.4161	3168.5	2289.05
1031.9758	3045.4505	3160.25	2285.3
1032.0859	3046.4842	3154.4	2274.05
1032.1959	3047.5173	3133.55	2256.3
1032.3059	3048.5498	3133.3	2254.25
1032.4159	3049.5816	3109.2	2231.95
1032.5258	3050.6128	3124.8	2245
1032.6357	3051.6434	3110.5	2232.5
1032.7455	3052.6734	3086	2205.2
1032.8553	3053.7027	3073.55	2197.35
1032.9651	3054.7314	3073.5	2195.15
1033.0748	3055.7594	3054.65	2177.9
1033.1845	3056.7868	3050.1	2172.25
1033.2941	3057.8136	3031.9	2155.6
1033.4037	3058.8398	3026.6	2150.85
1033.5132	3059.8653	3003.85	2127.85
1033.6227	3060.8902	2995.5	2118.1
1033.7321	3061.9145	2986	2107.9
1033.8415	3062.9381	2978.3	2100.55
1033.9509	3063.9612	2970.95	2075.85
1034.0602	3064.9835	2961.15	2083.3
1034.1694	3066.0053	2954.35	2075.45
1034.2787	3067.0264	2938.2	2062.75
1034.3878	3068.0469	2920.55	2039.75
1034.497	3069.0668	2914.55	2034.7
1034.6061	3070.086	2908.7	2031.65
1034.7151	3071.1046	2895.25	2018.1
1034.8241	3072.1226	2879.1	2000.3
1034.9331	3073.1399	2856.5	1978.7
1035.042	3074.1567	2861.6	1983.85
1035.1508	3075.1727	2829.25	1947.95
1035.2597	3076.1882	2817.1	1940.2
1035.3684	3077.203	2813.1	1936.95
1035.4772	3078.2173	2812.4	1934.7
1035.5859	3079.2308	2795.9	1916.7
1035.6945	3080.2438	2771.75	1890.8
1035.8031	3081.2561	2764.65	1888.1
1035.9117	3082.2678	2758.2	1881.95
1036.0202	3083.2789	2730.3	1852.5
1036.1286	3084.2893	2735.95	1859.15
1036.2371	3085.2991	2713.2	1833.2
1036.3454	3086.3083	2699.9	1816.1
1036.4538	3087.3169	2698	1819.3
1036.562	3088.3248	2689.75	1810.65
1036.6703	3089.3321	2680.15	1800.4
1036.7785	3090.3388	2668.35	1790.35
1036.8866	3091.3449	2654.3	1775.6
1036.9948	3092.3503	2649.55	1770.65
1037.1028	3093.3551	2630.85	1754.3
1037.2108	3094.3593	2622.15	1746
1037.3188	3095.3629	2610.2	1733.2
1037.4267	3096.3658	2603.4	1723.8
1037.5346	3097.3681	2595.05	1716.65
1037.6425	3098.3698	2598.35	1718.05
1037.7503	3099.3708	2581.8	1698.25
1037.858	3100.3713	2560.5	1682.8
1037.9657	3101.3711	2556.15	1677.6
1038.0734	3102.3702	2663.3	1648.3
1038.181	3103.3688	2550.2	1671.15
1038.2886	3104.3667	2523.5	1645.45
1038.3961	3105.364	2505.85	1627.95
1038.5036	3106.3607	2505.2	1625.65
1038.611	3107.3568	2497.55	1619.3
1038.7184	3108.3522	2469.7	1593.8
1038.8257	3109.347	2482.75	1604
1038.933	3110.3412	2468.7	1585.05
1039.0403	3111.3348	2453.65	1576.5
1039.1475	3112.3277	2447.65	1571.95
1039.2547	3113.32	2443.8	1569.1
1039.3618	3114.3117	2429.55	1549.7
1039.4689	3115.3028	2420.05	1543.7
1039.5759	3116.2932	2405.9	1524.6
1039.6829	3117.2831	2400.9	1521
1039.7898	3118.2723	2390	1511.65
1039.8967	3119.2608	2377.9	1500.25
1040.0035	3120.2488	2369.4	1492.65
1040.1103	3121.2361	2366.85	1488.45
1040.2171	3122.2229	2354.7	1476.75
1040.3238	3123.209	2346.7	1467.55
1040.4305	3124.1944	2327.35	1449.8
1040.5371	3125.1793	2339.25	1460.75
1040.6437	3126.1635	2334.25	1458.7
1040.7502	3127.1471	2313.65	1435.6
1040.8567	3128.1301	2307.5	1431.35
1040.9631	3129.1125	2306.35	1427.45
1041.0695	3130.0942	2287.7	1409.95
1041.1759	3131.0753	2301.1	1414.95
1041.2822	3132.0558	2293.75	1411.55
1041.3884	3133.0357	2277.85	1399.3
1041.4946	3134.015	2270.75	1391.3
1041.6008	3134.9936	2265.9	1386.35
1041.7069	3135.9716	2285	1386.4
1041.813	3136.949	2266.95	1389.55
1041.919	3137.9258	2256.75	1373.75
1042.025	3138.902	2255.55	1372.45
1042.1309	3139.8775	2230.2	1354.3
1042.2368	3140.8524	2236.25	1358.8
1042.3427	3141.8267	2232.1	1350.55
1042.4485	3142.8004	2222.55	1344.6
1042.5542	3143.7735	2216.15	1332.45
1042.6599	3144.7459	2198.85	1319.9
1042.7656	3145.7178	2201.85	1323.35
1042.8712	3146.689	2184.15	1307.65
1042.9768	3147.6596	2183.5	1305.55
1043.0823	3148.6295	2169.7	1291.05
1043.1878	3149.5989	2170.25	1294.2
1043.2932	3150.5676	2158.55	1283.35
1043.3986	3151.5357	2149.15	1274.4
1043.5039	3152.5032	2146.95	1270.25
1043.6092	3153.4701	2140.4	1264.6
1043.7145	3154.4364	2144.45	1263.2
1043.8197	3155.402	2129.95	1253.5
1043.9248	3156.367	2136.6	1256.75
1044.03	3157.3315	2147.3	1231
1044.135	3158.2952	2098.85	1221.85
1044.24	3159.2584	2104.4	1227.5
1044.345	3160.221	2089.75	1210.25
1044.4499	3161.1829	2085.15	1206.15
1044.5548	3162.1442	2075.95	1199.7
1044.6596	3163.105	2066.2	1190.55
1044.7644	3164.065	2072	1193.7
1044.8692	3165.0245	2055.25	1174.3
1044.9739	3165.9834	2054.75	1177.35
1045.0785	3166.9416	2037	1160.1
1045.1831	3167.8993	2048.35	1171.2
1045.2877	3168.8563	2032.6	1153.6
1045.3922	3169.8127	2022.6	1146.35
1045.4966	3170.7684	2029.35	1152.35
1045.6011	3171.7236	2017.5	1139.6
1045.7054	3172.6782	2009.4	1131.9
1045.8098	3173.6321	2008.55	1131.7
1045.914	3174.5854	2000.8	1120.1
1046.0183	3175.5381	2001.9	1123.9
1046.1224	3176.4902	1981.7	1106.5
1046.2266	3177.4417	1974.5	1095.75
1046.3307	3178.3926	1974.8	1100.55
1046.4347	3179.3428	1962.45	1085.45
1046.5387	3180.2924	1961.55	1084.65
1046.6427	3181.2415	1948.95	1070.25
1046.7466	3182.1899	1940.25	1059.55
1046.8504	3183.1377	1939.05	1062.9
1046.9542	3184.0848	1944.8	1063.5
1047.058	3185.0314	1928.05	1053
1047.1617	3185.9773	1918.55	1041.7
1047.2654	3186.9227	1921.35	1043.8
1047.369	3187.8674	1913.6	1033.65
1047.4726	3188.8115	1917.4	1036.15
1047.5761	3189.755	1909.8	1032.45
1047.6796	3190.6979	1891.95	1015.8
1047.783	3191.6402	1891.2	1014.15
1047.8864	3192.5818	1888.75	1009.8
1047.9898	3193.5229	1902.15	1008.15
1048.0931	3194.4633	1875.25	998.5
1048.1963	3195.4031	1865.95	988.75
1048.2995	3196.3423	1865.95	988
1048.4027	3197.2809	1859.3	982.55
1048.5058	3198.2189	1860.1	980.9
1048.6089	3199.1563	1860.8	967.95
1048.7119	3200.0931	1843.3	968.6
1048.8148	3201.0292	1837.2	958.75
1048.9178	3201.9648	1830.8	952.55
1049.0206	3202.8997	1831.15	949.45
1049.1235	3203.834	1832.8	954.35
1049.2262	3204.7677	1825	949.4
1049.329	3205.7008	1825.75	945.65
1049.4317	3206.6333	1814.1	937.75
1049.5343	3207.5652	1808.35	929.7
1049.6369	3208.4964	1795.3	916.75
1049.7394	3209.4271	1793.7	916.7
1049.8419	3210.3571	1791.85	915.5
1049.9444	3211.2865	1795	915.65
1050.0468	3212.2154	1785.1	907.85
1050.1491	3213.1436	1780.65	900.65
1050.2514	3214.0712	1786.55	903.55
1050.3537	3214.9982	1772	893.8
1050.4559	3215.9246	1779.85	901.7
1050.5581	3216.8503	1760.85	884.35
1050.6602	3217.7755	1769.4	889.95
1050.7623	3218.7001	1757.8	881.6
1050.8643	3219.624	1752.25	874.65
1050.9663	3220.5473	1742	864.85
1051.0682	3221.4701	1741.35	864.7
1051.1701	3222.3922	1737.25	857.2
1051.2719	3223.3137	1733.1	856
1051.3737	3224.2346	1731.35	854.05
1051.4754	3225.1549	1724.65	844.9
1051.5771	3226.0746	1719.4	843.1
1051.6788	3226.9937	1711.8	831.75
1051.7804	3227.9121	1709.05	832.85
1051.8819	3228.83	1699.1	822.4
1051.9834	3229.7473	1698.95	822.4
1052.0849	3230.6639	1693.35	815.65
1052.1863	3231.5799	1688.1	810.1
1052.2876	3232.4954	1673.45	796.15
1052.3889	3233.4102	1680.15	802.85
1052.4902	3234.3244	1677.4	799.5
1052.5914	3235.238	1661.55	785.9
1052.6926	3236.151	1689	786.15
1052.7937	3237.0634	1659.5	781.8
1052.8948	3237.9752	1654.05	775.75
1052.9958	3238.8864	1652.9	775.25
1053.0968	3239.797	1640.4	762.55
1053.1977	3240.7069	1644.8	767.25
1053.2986	3241.6163	1644.6	764.85
1053.3994	3242.5251	1619.8	743.95
1053.5002	3243.4332	1623.3	746.4
1053.6009	3244.3408	1626.7	749.2
1053.7016	3245.2477	1622.3	746.05
1053.8022	3246.154	1610.4	730.25
1053.9028	3247.0598	1610.4	731.8
1054.0034	3247.9649	1608.45	730
1054.1039	3248.8694	1599.25	722.35
1054.2043	3249.7733	1602.55	724.5
1054.3047	3250.6766	1588.25	710.45
1054.4051	3251.5793	1581.1	702.85
1054.5054	3252.4814	1584.05	707.3
1054.6056	3253.3829	1583.1	706.05
1054.7058	3254.2838	1570.9	692.5
1054.806	3255.1841	1572.85	696.8
1054.9061	3256.0838	1565.4	688.5
1055.0061	3256.9829	1565.25	689
1055.1062	3257.8814	1552.9	675.3
1055.2061	3258.7792	1546.65	667.65
1055.306	3259.6765	1538.8	660
1055.4059	3260.5731	1534.25	658.15
1055.5057	3261.4692	1523.05	645.5
1055.6055	3262.3647	1521.55	644.9
1055.7052	3263.2595	1500.6	621.6
1055.8049	3264.1538	1500.25	620.75
1055.9045	3265.0474	1492.8	617.1
1056.0041	3265.9404	1481.95	605.35
1056.1036	3266.8329	1473.7	596.55
1056.2031	3267.7247	1471.95	584.35
1056.3025	3268.616	1449.4	574.1
1056.4019	3269.5066	1429.2	551.85
1056.5013	3270.3966	1425.3	544.85
1056.6005	3271.286	1395.6	519.6
