Software Version:	3.9.2.0
Unit SN:	10000200
Spectrometer SN:	6960
Date:	3/6/2024 10:02:10 AM
Data Line Index:	25
Spectral Points:	2048
Integration time (ms):	125
Averages:	20
Delay (ms):	30
Sequence Number:	1
Processing:	dark subtract
Laser Power (mW):	305
Laser Current (mA):	825
Laser Diode Temp (C):	25.1
Laser Case Temp (C):	24.7
System Temp (C):	24.5
Spectrometer Temp (C):	22.2
CCD Temp (C):	0
Secondary Temp (C):	20.007
Heatsink Temp (C):	18.425
CCDPCB Temp (C):	31.371
SecondaryPCB Temp (C):	26.247

Wavelength	RamanShift	Raw Counts	Dark Subtracted
787.061	30.1047	724	316.9
787.2016	32.3739	747.65	339.3
787.3422	34.6426	755.8	348.75
787.4828	36.9109	782.75	373.05
787.6235	39.1787	811.85	399.4
787.7642	41.4461	839.7	422.25
787.9049	43.7131	869.2	449.25
788.0456	45.9796	899.55	474.15
788.1863	48.2456	929.55	502.95
788.3271	50.5112	962.45	529.6
788.4679	52.7764	996.35	561.1
788.6087	55.0411	1027.5	587.4
788.7496	57.3054	1073.6	628.2
788.8904	59.5692	1105.15	658.35
789.0313	61.8326	1158.6	709.15
789.1722	64.0955	1213.15	762.8
789.3132	66.3579	1268	811.2
789.4541	68.6199	1341.55	881.65
789.5951	70.8815	1473.9	1011.15
789.7361	73.1426	1754.6	1285.2
789.8771	75.4032	2479.7	2006.7
790.0181	77.6634	4311.75	3835.35
790.1592	79.9231	8900.85	8419.75
790.3003	82.1824	22102.25	21611.85
790.4414	84.4412	42857.75	42350.6
790.5825	86.6995	54933.7	54407.05
790.7237	88.9574	59296.35	58753.65
790.8648	91.2148	61760.3	61206.6
791.006	93.4717	62364.8	61801.05
791.1472	95.7282	62674.15	62105.25
791.2885	97.9842	62852.25	62279.3
791.4297	100.2398	62834.85	62261.6
791.571	102.4949	62847.55	62270.3
791.7123	104.7495	62856.2	62274.1
791.8536	107.0036	62766.45	62185.6
791.9949	109.2573	62934.05	62354.05
792.1363	111.5105	62838.6	62256.35
792.2777	113.7632	62888.15	62304.95
792.4191	116.0154	62959.7	62364.05
792.5605	118.2672	63052.6	62461.95
792.7019	120.5185	63062.7	62469.05
792.8434	122.7693	63081.9	62487.65
792.9849	125.0197	62931.25	62331.75
793.1264	127.2696	63193.7	62591.5
793.2679	129.519	63145.15	62535.65
793.4094	131.7679	63271.7	62660.8
793.551	134.0163	63020.75	62411.4
793.6926	136.2642	63142.85	62527.3
793.8342	138.5117	63277.05	62658.85
793.9758	140.7587	63217.55	62599.35
794.1175	143.0052	63227.9	62605.1
794.2591	145.2512	63098.25	62476.85
794.4008	147.4967	63279.3	62654.6
794.5425	149.7417	63221.35	62595.6
794.6842	151.9863	63228.2	62596.95
794.826	154.2304	63158.15	62521
794.9677	156.4739	63202.15	62560.4
795.1095	158.717	63335.4	62694
795.2513	160.9596	63251.85	62605.2
795.3931	163.2017	63120.65	62476.05
795.535	165.4433	63253.6	62600.8
795.6768	167.6844	63177	62527.4
795.8187	169.925	63255.3	62601.65
795.9606	172.1651	63170.7	62515.3
796.1025	174.4047	63247.7	62588.3
796.2445	176.6439	63223.8	62562.95
796.3864	178.8825	63178.5	62514.5
796.5284	181.1206	63326.15	62659.45
796.6704	183.3582	63294.15	62624.05
796.8124	185.5954	63250.2	62573.9
796.9544	187.832	63246.15	62567.85
797.0965	190.0681	63180.55	62498.1
797.2386	192.3037	63345.9	62659.25
797.3806	194.5388	63489.3	62801.05
797.5228	196.7734	63114.55	62424.3
797.6649	199.0075	63494.7	62804.5
797.807	201.2411	63326.8	62632.9
797.9492	203.4742	63548.25	62850.05
798.0914	205.7068	63485	62784.9
798.2336	207.9389	63470.3	62770.65
798.3758	210.1704	63462.9	62770.55
798.518	212.4015	63615.6	62931.95
798.6603	214.632	63442.6	62764.45
798.8025	216.862	63647	62970.05
798.9448	219.0915	63512.35	62836.7
799.0871	221.3205	63507.25	62827.5
799.2294	223.549	63656.6	62982.1
799.3718	225.777	63637.7	62958.75
799.5141	228.0044	63743.8	63057.4
799.6565	230.2314	63655.55	62965.85
799.7989	232.4578	63642.65	62950.7
799.9413	234.6837	63697.95	62996.85
800.0837	236.909	63986.4	63281.9
800.2262	239.1339	63578.6	62852
800.3687	241.3582	63774.9	63065.9
800.5111	243.582	63778.2	63039.85
800.6536	245.8053	63772.65	63047.15
800.7961	248.0281	63790.75	63067.95
800.9387	250.2503	63842.7	63112.95
801.0812	252.472	63695.6	62965.25
801.2238	254.6932	63806.9	63081.85
801.3664	256.9139	63735.6	63008.3
801.509	259.134	64006.3	63274.35
801.6516	261.3536	63728.65	62994.45
801.7942	263.5727	63872.4	63137.4
801.9369	265.7912	63808.85	63076.15
802.0795	268.0092	63835.2	63102
802.2222	270.2267	63874.7	63142
802.3649	272.4436	63726.65	62988.5
802.5076	274.6601	63871.05	63120.65
802.6504	276.8759	63932.55	63188.65
802.7931	279.0913	63843.85	63100.65
802.9359	281.3061	63912.8	63168.3
803.0787	283.5204	63913.55	63161.45
803.2215	285.7341	63923.25	63173.7
803.3643	287.9473	63993.3	63232.95
803.5071	290.16	63922.7	63169.1
803.6499	292.3721	63945.85	63197.6
803.7928	294.5837	63868.85	63119.75
803.9357	296.7947	63785.6	63035.9
804.0786	299.0052	63987.75	63235.4
804.2215	301.2152	63915.55	63160.2
804.3644	303.4246	63978.35	63228.5
804.5074	305.6334	63991.15	63236.85
804.6503	307.8418	63860.85	63105.4
804.7933	310.0495	63840.5	63081.7
804.9363	312.2568	63876.8	63119.9
805.0793	314.4635	63873	63114.75
805.2223	316.6696	63935.35	63173.45
805.3653	318.8752	63974.55	63204.4
805.5084	321.0802	63700.2	62936.35
805.6514	323.2847	63837.25	63069.35
805.7945	325.4887	63802.05	63037.3
805.9376	327.692	63775.9	63009.9
806.0807	329.8949	63845.6	63077.15
806.2238	332.0972	63770.9	63001
806.367	334.2989	63836.55	63061.75
806.5101	336.5001	63913.15	63137
806.6533	338.7007	63705.95	62930.7
806.7965	340.9008	63852.8	63076.65
806.9397	343.1003	63883.7	63106.85
807.0829	345.2992	63947.1	63169.65
807.2261	347.4976	63818.3	63036.85
807.3693	349.6955	63866.65	63081.45
807.5126	351.8927	63788.15	63005.5
807.6559	354.0895	63882.65	63086.1
807.7991	356.2856	63889	63105.75
807.9424	358.4812	63944.2	63156.2
808.0857	360.6763	63756.25	62964.65
808.2291	362.8707	63949.15	63157.55
808.3724	365.0646	63832	63036.15
808.5158	367.258	63826.25	63029.7
808.6591	369.4508	63724	62926.1
808.8025	371.643	63922.1	63124.65
808.9459	373.8346	63808.25	63010
809.0893	376.0257	63840.45	63033.05
809.2327	378.2162	63821.55	63016.6
809.3762	380.4062	63662.05	62861.85
809.5196	382.5956	63808.9	63005.75
809.6631	384.7844	63783.3	62986.25
809.8066	386.9726	63860.85	63065.45
809.9501	389.1603	63824.35	63030.65
810.0936	391.3474	63737.65	62912.25
810.2371	393.5339	63821.4	63019.3
810.3806	395.7199	63637.5	62839.9
810.5241	397.9052	63666.15	62870.7
810.6677	400.09	63726.35	62933.55
810.8113	402.2743	63839.1	63043
810.9548	404.4579	63670.05	62874.05
811.0984	406.641	63696.35	62895.6
811.2421	408.8235	63764.05	62962.3
811.3857	411.0054	63796.5	62989.65
811.5293	413.1868	63818.3	63011.85
811.673	415.3675	63712	62899.7
811.8166	417.5477	63729.7	62918.65
811.9603	419.7273	63720.1	62906.65
812.104	421.9064	63707.6	62887
812.2477	424.0848	63721.3	62904.25
812.3914	426.2627	63847.6	63031.3
812.5351	428.4399	63670.45	62857.6
812.6788	430.6166	63522.7	62703
812.8226	432.7928	63706.85	62886.8
812.9663	434.9683	63571.2	62750.3
813.1101	437.1432	63587.55	62763.45
813.2539	439.3176	63698.7	62879.5
813.3977	441.4914	63497.55	62680.85
813.5415	443.6645	63507.3	62690.95
813.6853	445.8371	63536.45	62716.6
813.8291	448.0091	63469.5	62644.65
813.973	450.1806	63409.9	62588.35
814.1168	452.3514	63449.35	62626.55
814.2607	454.5216	63338.8	62509.45
814.4046	456.6913	63457.45	62631.55
814.5485	458.8603	63468.65	62646.15
814.6924	461.0288	63326.1	62503.2
814.8363	463.1967	63441.85	62621.65
814.9802	465.3639	63413.35	62590.3
815.1241	467.5306	63187.25	62360.8
815.2681	469.6967	63321.3	62496.7
815.412	471.8622	63386.5	62565.9
815.556	474.0271	63279.2	62454.95
815.7	476.1914	63323.8	62495.05
815.844	478.3551	63348.2	62519.5
815.988	480.5182	63494.5	62667.95
816.132	482.6807	63280.2	62456.5
816.276	484.8426	63307.25	62483.65
816.4201	487.0039	63437.2	62612.9
816.5641	489.1647	63445.05	62616.2
816.7082	491.3248	63252.95	62422.2
816.8522	493.4843	63454.05	62625.85
816.9963	495.6432	63464.8	62637.75
817.1404	497.8015	63258.5	62422.7
817.2845	499.9592	63394.5	62558.6
817.4286	502.1163	63350.15	62513.8
817.5727	504.2728	63356.7	62521.45
817.7168	506.4287	63349.6	62520.2
817.861	508.5839	63239.4	62406.95
818.0051	510.7386	63305.4	62471.65
818.1493	512.8927	63359.15	62518.3
818.2935	515.0461	63316.75	62478.25
818.4377	517.199	63410.5	62571.4
818.5818	519.3512	63313.2	62474.85
818.726	521.5029	63296.6	62451.35
818.8703	523.6539	63311.85	62469.6
819.0145	525.8043	63186.65	62343.55
819.1587	527.9541	63315.75	62468
819.303	530.1033	63287.1	62442.6
819.4472	532.2519	63217.35	62374.55
819.5915	534.3999	63291.6	62443.6
819.7357	536.5472	63359.7	62514.15
819.88	538.694	63164.05	62322.35
820.0243	540.8401	63270.3	62425.1
820.1686	542.9856	63280.25	62432.95
820.3129	545.1305	63367.75	62513.9
820.4572	547.2748	63245.95	62393.6
820.6016	549.4185	63225.25	62371.85
820.7459	551.5615	63340.15	62487.9
820.8902	553.704	63302.65	62449.65
821.0346	555.8458	63227.3	62376.6
821.1789	557.987	63232.85	62383.85
821.3233	560.1276	63275.15	62422.85
821.4677	562.2675	63223.4	62375.35
821.6121	564.4069	63228.55	62379.6
821.7565	566.5456	63313.75	62462.2
821.9009	568.6837	63182.3	62332.55
822.0453	570.8212	63234.1	62383.45
822.1897	572.958	63046.55	62194.8
822.3342	575.0942	63211.5	62358.55
822.4786	577.2299	63104.15	62254.8
822.6231	579.3648	63062.75	62217.95
822.7675	581.4992	63026.75	62187.5
822.912	583.6329	63011.2	62171.5
823.0565	585.766	63018.5	62173.1
823.201	587.8985	63033.15	62185.75
823.3454	590.0304	62880.05	62004.35
823.4899	592.1616	62996.9	62140.45
823.6345	594.2922	62906.8	62050.75
823.779	596.4222	62834.85	61978.15
823.9235	598.5515	62856.9	62000.35
824.068	600.6802	62934	62075.15
824.2126	602.8083	62814.2	61958.45
824.3571	604.9358	62806.4	61949.7
824.5017	607.0626	62890.65	62029.5
824.6462	609.1888	62747.05	61885.35
824.7908	611.3144	62819.75	61955.1
824.9354	613.4393	62759.6	61900
825.08	615.5636	62706.45	61842.95
825.2246	617.6873	62780.95	61918
825.3692	619.8103	62684.15	61821.9
825.5138	621.9327	62772.95	61908.2
825.6584	624.0544	62792.25	61933.95
825.803	626.1756	62692.35	61831.85
825.9477	628.2961	62702.65	61838.85
826.0923	630.4159	62643.05	61776.7
826.237	632.5351	62601.45	61737.4
826.3816	634.6537	62759.6	61892.85
826.5263	636.7716	62609.3	61741.45
826.6709	638.8889	62647.15	61774.4
826.8156	641.0056	62627.8	61761.2
826.9603	643.1216	62669.85	61802.55
827.105	645.237	62713.95	61845.5
827.2497	647.3518	62577.4	61712.9
827.3944	649.4659	62634.95	61771.5
827.5391	651.5793	62644.8	61783.35
827.6838	653.6922	62655.1	61792.1
827.8285	655.8043	62486.35	61621.2
827.9733	657.9159	62681.2	61816.5
828.118	660.0268	62332.05	61465.55
828.2627	662.137	62521.1	61651.2
828.4075	664.2466	62557	61684.55
828.5522	666.3556	62485.9	61616.05
828.697	668.4639	62541.4	61668.85
828.8418	670.5716	62436.6	61568.8
828.9865	672.6786	62507	61635.25
829.1313	674.785	62363.4	61491.7
829.2761	676.8907	62374.4	61503.25
829.4209	678.9958	62437.5	61570.05
829.5657	681.1002	62457.6	61585.45
829.7105	683.204	62322.35	61446
829.8553	685.3072	62262.4	61384.45
830.0001	687.4097	62280.35	61409.7
830.1449	689.5115	62257.8	61383.2
830.2898	691.6127	62345.5	61472.75
830.4346	693.7132	62238.25	61365.45
830.5794	695.8131	62296.15	61397.6
830.7243	697.9123	62298.55	61422.3
830.8691	700.0109	62310.2	61434.35
831.014	702.1089	62146.2	61269.25
831.1588	704.2061	62195.5	61316.95
831.3037	706.3028	62212.55	61334.7
831.4486	708.3987	62211.5	61333.05
831.5935	710.4941	62148.7	61273.65
831.7383	712.5887	62223	61345.35
831.8832	714.6827	62137.9	61258.65
832.0281	716.7761	62194.25	61321.7
832.173	718.8688	62187.8	61310.65
832.3179	720.9608	62088.85	61205.35
832.4628	723.0522	62136.15	61251.15
832.6077	725.1429	62031.7	61150.15
832.7527	727.233	62268.35	61386.4
832.8976	729.3224	61931.7	61049.95
833.0425	731.4112	62040.05	61155.95
833.1874	733.4993	62041.6	61157.75
833.3324	735.5867	62018.9	61135.8
833.4773	737.6735	61947.3	61067.1
833.6222	739.7596	61876.3	60995.5
833.7672	741.845	61863.85	60979.85
833.9122	743.9298	61916.7	61033.9
834.0571	746.014	61862.45	60980.9
834.2021	748.0974	61761.85	60877.65
834.347	750.1802	61858.95	60972.9
834.492	752.2624	61692.7	60810.2
834.637	754.3439	61715.95	60829.95
834.782	756.4247	61715.5	60821
834.9269	758.5048	61626.6	60741.35
835.0719	760.5843	61621.75	60736.45
835.2169	762.6631	61633.75	60748.05
835.3619	764.7413	61607	60722.95
835.5069	766.8188	61605.95	60719.75
835.6519	768.8956	61624.75	60736.65
835.7969	770.9718	61615.55	60729.1
835.9419	773.0473	61565.55	60679.15
836.0869	775.1221	61484.4	60599.8
836.232	777.1962	61464.05	60577.5
836.377	779.2697	61380.65	60494.6
836.522	781.3426	61389.9	60483.75
836.667	783.4147	61375.65	60483.45
836.8121	785.4862	61334.25	60449.3
836.9571	787.557	61306.5	60419.2
837.1021	789.6271	61374.35	60483.35
837.2472	791.6966	61281.6	60394.05
837.3922	793.7654	61194.45	60305.5
837.5373	795.8335	61183.95	60295.3
837.6823	797.901	61186.5	60300.3
837.8274	799.9678	61128.05	60237.25
837.9724	802.0339	61114.7	60225.55
838.1175	804.0993	61095.55	60194.4
838.2626	806.1641	61076.55	60185.65
838.4076	808.2282	61023.45	60132.65
838.5527	810.2916	61022.55	60130.2
838.6978	812.3544	61040.4	60154.7
838.8428	814.4164	60953.75	60066.35
838.9879	816.4778	60996.05	60103.35
839.133	818.5385	60934.7	60044.15
839.2781	820.5986	60934.25	60042.9
839.4232	822.658	60938.65	60047.2
839.5682	824.7166	60888.7	59999.3
839.7133	826.7747	60897.25	60004.8
839.8584	828.832	60923.7	60031.75
840.0035	830.8886	60866	59974.65
840.1486	832.9446	60859.85	59964.15
840.2937	834.9999	60768.05	59878.5
840.4388	837.0545	60803.4	59905.65
840.5839	839.1085	60791.35	59899.15
840.729	841.1618	60783.9	59888.15
840.8741	843.2143	60700.05	59810.6
841.0192	845.2662	60651.5	59759.1
841.1643	847.3175	60682.3	59789.7
841.3095	849.368	60570.05	59675.65
841.4546	851.4179	60630.05	59737.35
841.5997	853.467	60525.85	59632.55
841.7448	855.5155	60551.85	59656.95
841.8899	857.5633	60475.05	59583.2
842.0351	859.6105	60432.4	59538.7
842.1802	861.6569	60479.95	59588.7
842.3253	863.7027	60348.85	59452.95
842.4704	865.7478	60367.9	59471.15
842.6156	867.7922	60347.3	59452.1
842.7607	869.8359	60357.75	59459.15
842.9058	871.8789	60265.25	59369.75
843.0509	873.9212	60289	59363.1
843.1961	875.9629	60284.8	59386.35
843.3412	878.0039	60272.5	59376.9
843.4863	880.0441	60238.65	59344.15
843.6315	882.0837	60241.95	59345.85
843.7766	884.1226	60209.4	59312.25
843.9218	886.1609	60183.3	59288.4
844.0669	888.1984	60150.15	59254.2
844.212	890.2352	60246.6	59349.9
844.3572	892.2714	60108.6	59207.15
844.5023	894.3069	60160.2	59259.35
844.6475	896.3416	60083.95	59187.95
844.7926	898.3757	60081.15	59184.4
844.9377	900.4091	59911.25	59016.55
845.0829	902.4418	60049.8	59147.5
845.228	904.4739	59954	59052.6
845.3732	906.5052	59971.4	59073.75
845.5183	908.5358	59888.6	58988.7
845.6635	910.5658	59825.05	58921.45
845.8086	912.595	59804.15	58905.95
845.9538	914.6236	59692	58792.9
846.0989	916.6515	59850.25	58953.7
846.2441	918.6786	59644.55	58743.3
846.3892	920.7051	59651.1	58750
846.5344	922.7309	59621.2	58722
846.6795	924.756	59620.15	58720.75
846.8246	926.7804	59573.65	58674.25
846.9698	928.8041	59370.05	58469.1
847.1149	930.8272	59462.1	58564.3
847.2601	932.8495	59398.9	58499
847.4052	934.8711	59325.4	58422.25
847.5504	936.892	59230.7	58330.05
847.6955	938.9123	59239.8	58336.65
847.8407	940.9318	59174.7	58275.3
847.9858	942.9506	59117.6	58218.8
848.131	944.9688	59118.75	58218.9
848.2761	946.9862	58995.75	58092.75
848.4213	949.003	58970.95	58069.65
848.5664	951.019	58825.55	57925.7
848.7115	953.0344	58857.35	57956.5
848.8567	955.0491	58809.3	57908.35
849.0018	957.063	58841.7	57943.35
849.147	959.0763	58852.65	57955.15
849.2921	961.0888	58742.2	57840.5
849.4373	963.1007	58787.55	57888.4
849.5824	965.1119	58769.05	57873.6
849.7275	967.1223	58690.3	57792.75
849.8727	969.1321	58744.45	57850.15
850.0178	971.1412	58657.8	57763.5
850.1629	973.1495	58597.65	57700.35
850.3081	975.1572	58621.3	57682.15
850.4532	977.1641	58567.55	57667.2
850.5983	979.1704	58459.85	57560.1
850.7435	981.1759	58474.55	57571.35
850.8886	983.1808	58412.5	57510.15
851.0337	985.1849	58404.65	57495.2
851.1788	987.1884	58389.45	57486.1
851.324	989.1911	58399.3	57495.75
851.4691	991.1932	58269.5	57366.9
851.6142	993.1945	58230.3	57329.25
851.7593	995.1951	58211.5	57309.45
851.9045	997.1951	58143.3	57234.25
852.0496	999.1943	58075.8	57174.45
852.1947	1001.1928	58008.4	57104
852.3398	1003.1906	57962.85	57063.25
852.4849	1005.1877	57903.9	57001.25
852.63	1007.1841	57842.25	56941.65
852.7751	1009.1798	57829.15	56927
852.9202	1011.1748	57744.1	56843.35
853.0653	1013.1691	57698.45	56794.75
853.2104	1015.1627	57540.95	56640.35
853.3555	1017.1556	57512.95	56612.7
853.5006	1019.1477	57534.9	56632.75
853.6457	1021.1392	57414.85	56517.2
853.7908	1023.1299	57322.5	56427.6
853.9359	1025.12	57303.3	56408.15
854.081	1027.1093	57221.65	56329.8
854.2261	1029.0979	57167.6	56278.3
854.3712	1031.0859	57124	56231
854.5163	1033.0731	57039.1	56143.9
854.6613	1035.0596	57030	56133.6
854.8064	1037.0454	56998.7	56099.4
854.9515	1039.0304	56920.85	56020.4
855.0965	1041.0148	56803.95	55904.05
855.2416	1042.9985	56773.3	55870.2
855.3867	1044.9814	56836.6	55936.65
855.5317	1046.9636	56688.05	55784
855.6768	1048.9452	56655.05	55756.1
855.8219	1050.926	56630.55	55732.15
855.9669	1052.9061	56597.4	55695.25
856.112	1054.8855	56574.55	55672.45
856.257	1056.8642	56521.2	55619.85
856.4021	1058.8421	56468.5	55560.6
856.5471	1060.8194	56458.6	55557.7
856.6921	1062.7959	56366.25	55462.95
856.8372	1064.7717	56444.6	55540.7
856.9822	1066.7469	56385.2	55479.7
857.1272	1068.7213	56344.65	55440.25
857.2723	1070.695	56262.15	55360.35
857.4173	1072.6679	56175	55273.85
857.5623	1074.6402	56216.9	55314.9
857.7073	1076.6117	56134.1	55225.25
857.8523	1078.5826	56154.25	55249.2
857.9973	1080.5527	56140.5	55234.3
858.1423	1082.5221	56043.85	55140.15
858.2873	1084.4908	56024.7	55119.05
858.4323	1086.4587	55972.35	55069.9
858.5773	1088.426	55905.1	55003.55
858.7223	1090.3925	55869.3	54962.35
858.8673	1092.3584	55894.45	54994.4
859.0123	1094.3235	55756.1	54854
859.1573	1096.2879	55726.45	54823.3
859.3022	1098.2515	55724.2	54822.1
859.4472	1100.2145	55714.3	54814.2
859.5922	1102.1767	55652.45	54747.5
859.7371	1104.1382	55639.15	54735.75
859.8821	1106.099	55631.9	54729.45
860.027	1108.0591	55555.1	54652.6
860.172	1110.0185	55459.35	54555.65
860.3169	1111.9771	55549.75	54647
860.4619	1113.9351	55435.45	54534.6
860.6068	1115.8923	55349.55	54448.15
860.7517	1117.8488	55303.05	54397.8
860.8967	1119.8045	55196.9	54293.5
861.0416	1121.7596	55175.55	54276.4
861.1865	1123.7139	55163.75	54262
861.3314	1125.6675	55138.7	54236.75
861.4763	1127.6204	55124.6	54219.15
861.6212	1129.5726	55016.95	54112.45
861.7661	1131.524	55040.3	54140
861.911	1133.4748	55024.85	54121.05
862.0559	1135.4248	54896.9	53993.85
862.2008	1137.3741	54849.75	53948.3
862.3457	1139.3226	54850.6	53947.6
862.4905	1141.2705	54824.75	53924.65
862.6354	1143.2176	54732.5	53824.2
862.7803	1145.164	54653.2	53748
862.9251	1147.1097	54660.8	53758.6
863.07	1149.0546	54684.75	53780.7
863.2148	1150.9989	54674.55	53773.3
863.3597	1152.9424	54566.5	53662
863.5045	1154.8852	54630.35	53727.6
863.6493	1156.8272	54520.65	53619.65
863.7942	1158.7686	54568.75	53657.75
863.939	1160.7092	54419.45	53516.85
864.0838	1162.6491	54396.25	53491.15
864.2286	1164.5883	54412.9	53507.65
864.3734	1166.5267	54307.9	53403.9
864.5182	1168.4644	54389.45	53486.55
864.663	1170.4014	54335.45	53430.1
864.8078	1172.3377	54351.55	53449.75
864.9526	1174.2732	54388.2	53484.9
865.0974	1176.2081	54363.6	53463.75
865.2421	1178.1421	54338.9	53432.8
865.3869	1180.0755	54400.85	53496.95
865.5317	1182.0082	54277.3	53376.45
865.6764	1183.9401	54341.95	53440.1
865.8212	1185.8713	54162.95	53264.9
865.9659	1187.8017	54167.35	53268.6
866.1106	1189.7315	54098.15	53206.45
866.2554	1191.6605	54021.55	53126.05
866.4001	1193.5888	53940.75	53043.95
866.5448	1195.5163	53782.65	52881.85
866.6895	1197.4432	53741.2	52840.5
866.8342	1199.3693	53717.55	52815.6
866.9789	1201.2947	53606.6	52700.55
867.1236	1203.2193	53640.7	52740.45
867.2683	1205.1432	53473.7	52572.6
867.413	1207.0664	53472.5	52572.1
867.5576	1208.9889	53414.8	52511.2
867.7023	1210.9106	53366.7	52464.6
867.847	1212.8316	53231.7	52328.75
867.9916	1214.7519	53197.8	52288.3
868.1363	1216.6715	53146.1	52244.15
868.2809	1218.5903	53104.7	52202.35
868.4255	1220.5084	53053.65	52153
868.5701	1222.4257	53045.4	52143.55
868.7148	1224.3424	52994.4	52094.4
868.8594	1226.2583	52869.25	51963.6
869.004	1228.1735	52940.2	52037.1
869.1486	1230.0879	52739.55	51837.05
869.2932	1232.0016	52857.2	51955.65
869.4377	1233.9146	52673.95	51770.65
869.5823	1235.8269	52688	51787.25
869.7269	1237.7384	52654.9	51752.8
869.8715	1239.6492	52581.55	51681.85
870.016	1241.5592	52414.85	51512.45
870.1606	1243.4686	52482.55	51581.3
870.3051	1245.3772	52309.7	51408.5
870.4496	1247.285	52429.2	51526.65
870.5941	1249.1922	52208.5	51308.2
870.7387	1251.0986	52350.45	51449.75
870.8832	1253.0042	52200.75	51299.7
871.0277	1254.9092	52284.9	51383.55
871.1722	1256.8134	52014.35	51114.75
871.3167	1258.7169	52199.9	51298.85
871.4611	1260.6196	52007.7	51108.55
871.6056	1262.5216	51995	51092.5
871.7501	1264.4229	52047.6	51147.45
871.8945	1266.3234	52142.3	51242.85
872.039	1268.2232	52029.45	51126.45
872.1834	1270.1223	51938.95	51032.95
872.3278	1272.0207	51904.75	51001.8
872.4723	1273.9183	51861.45	50955.05
872.6167	1275.8151	51797.6	50896.95
872.7611	1277.7113	51804.65	50902.1
872.9055	1279.6067	51645.7	50744.75
873.0499	1281.5014	51638.3	50735.4
873.1943	1283.3953	51798.6	50893.95
873.3386	1285.2885	51740.6	50839.4
873.483	1287.181	51749.75	50849.6
873.6274	1289.0727	51815.4	50914.7
873.7717	1290.9637	51564.5	50663.4
873.9161	1292.854	51869.4	50967.4
874.0604	1294.7435	51741.3	50838.75
874.2047	1296.6323	51728.75	50828.8
874.349	1298.5204	51606.6	50701.7
874.4933	1300.4077	51693.25	50792.85
874.6376	1302.2943	51479.05	50579.45
874.7819	1304.1802	51379.25	50481.3
874.9262	1306.0653	51260.75	50357.5
875.0705	1307.9497	51146.1	50244.9
875.2147	1309.8333	51157.15	50258.25
875.359	1311.7162	51035.6	50134.4
875.5032	1313.5984	51067	50161.2
875.6475	1315.4798	50874.45	49969.8
875.7917	1317.3605	50812.3	49895.35
875.9359	1319.2405	50823.9	49917.7
876.0801	1321.1197	50633.1	49728.7
876.2243	1322.9982	50652.65	49745.95
876.3685	1324.876	50578.55	49679.1
876.5127	1326.753	50427.7	49527.5
876.6569	1328.6293	50611.05	49707.45
876.801	1330.5048	50447.25	49545.1
876.9452	1332.3796	50289.45	49388.7
877.0893	1334.2537	50213.65	49286.55
877.2335	1336.127	50285.85	49383.6
877.3776	1337.9996	50150.55	49246.4
877.5217	1339.8714	50229.85	49327.95
877.6658	1341.7426	49945.9	48997.4
877.8099	1343.6129	50046.5	49142.95
877.954	1345.4826	50038.7	49137.15
878.0981	1347.3515	49884.45	48978.8
878.2422	1349.2196	49954.7	49051.6
878.3862	1351.087	49899	48996.75
878.5303	1352.9537	49914	49010.3
878.6743	1354.8197	49900.65	48998.45
878.8184	1356.6849	49895.45	48992.3
878.9624	1358.5493	49856	48954.25
879.1064	1360.4131	49754.6	48852.9
879.2504	1362.276	49884.85	48984.2
879.3944	1364.1383	49711.15	48809.85
879.5384	1365.9998	49560.25	48651.8
879.6823	1367.8606	49597.15	48695.1
879.8263	1369.7206	49394.95	48490.2
879.9702	1371.5799	49334.25	48429.25
880.1142	1373.4384	49178.45	48276.05
880.2581	1375.2962	49166.45	48262.3
880.402	1377.1533	48862	47959.75
880.5459	1379.0096	48739.85	47838.2
880.6898	1380.8652	48714.95	47814.9
880.8337	1382.7201	48548.55	47648.75
880.9776	1384.5742	48451.8	47549.35
881.1215	1386.4275	48207.7	47303.5
881.2653	1388.2802	48218.85	47321.05
881.4092	1390.132	48201.4	47302
881.553	1391.9832	47947.8	47046.65
881.6968	1393.8336	47826.65	46924.75
881.8406	1395.6832	47800	46897.05
881.9844	1397.5322	47781.35	46880.95
882.1282	1399.3803	47625.8	46717.65
882.272	1401.2278	47533	46630
882.4158	1403.0745	47439.75	46537.75
882.5595	1404.9204	47368.6	46469.2
882.7033	1406.7656	47339.45	46438
882.847	1408.6101	47196.2	46294.4
882.9908	1410.4538	47143.8	46243.8
883.1345	1412.2968	47135.95	46235.35
883.2782	1414.139	46957.6	46055.85
883.4219	1415.9805	47013.25	46111.7
883.5656	1417.8213	46877.4	45968.25
883.7092	1419.6613	46891.75	45990.6
883.8529	1421.5006	46804.9	45904.5
883.9965	1423.3391	46749.7	45848.7
884.1402	1425.1769	46751.75	45850.1
884.2838	1427.0139	46863	45960.25
884.4274	1428.8502	46829.8	45929.75
884.571	1430.6858	46903.6	46003.2
884.7146	1432.5206	46966.7	46063.55
884.8582	1434.3547	46904.15	46002.5
885.0018	1436.188	46802.3	45900.45
885.1453	1438.0206	46845.15	45943.75
885.2889	1439.8524	46770.45	45869
885.4324	1441.6835	46619.9	45716.3
885.5759	1443.5139	46625.2	45721.8
885.7194	1445.3435	46456.9	45556.8
885.8629	1447.1724	46526.65	45629.65
886.0064	1449.0005	46336.9	45439.25
886.1499	1450.8279	46361.25	45460.75
886.2933	1452.6545	46331.4	45433.3
886.4368	1454.4804	46289.5	45389.2
886.5802	1456.3056	46181.2	45272.2
886.7237	1458.13	46204.4	45305.2
886.8671	1459.9536	46266.45	45366.5
887.0105	1461.7766	46046.15	45145.1
887.1539	1463.5987	45793.9	44891
887.2972	1465.4202	45779.7	44878.8
887.4406	1467.2409	45666.5	44764.6
887.584	1469.0608	45477	44579.1
887.7273	1470.88	45372.4	44469.3
887.8706	1472.6984	45380.35	44480.35
888.0139	1474.5161	45139.35	44233.3
888.1572	1476.3331	45159.05	44258.7
888.3005	1478.1493	44992.35	44090.7
888.4438	1479.9648	44913.95	44012.55
888.5871	1481.7795	44946.65	44045.35
888.7303	1483.5935	44945.75	44044.7
888.8736	1485.4067	44721.85	43821.85
889.0168	1487.2192	44763.1	43864.55
889.16	1489.031	44607.65	43707.3
889.3032	1490.842	44643.35	43744.55
889.4464	1492.6522	44681.7	43782.65
889.5896	1494.4618	44491.05	43588.85
889.7327	1496.2705	44538.25	43639.85
889.8759	1498.0785	44264.4	43363.1
890.019	1499.8858	44319.95	43421.65
890.1622	1501.6924	44365.6	43468.05
890.3053	1503.4981	44214.3	43315.95
890.4484	1505.3032	44222	43322.6
890.5914	1507.1075	44039.95	43139.5
890.7345	1508.911	44056.7	43158.7
890.8776	1510.7138	43969.95	43069.1
891.0206	1512.5159	43935.55	43036.2
891.1637	1514.3172	43677.2	42779.8
891.3067	1516.1178	43678.1	42779.65
891.4497	1517.9176	43719	42818.55
891.5927	1519.7166	43569.5	42672.5
891.7357	1521.515	43455.3	42550.35
891.8786	1523.3126	43346.2	42446.1
892.0216	1525.1094	43399.8	42500.7
892.1645	1526.9055	43272.05	42374.6
892.3074	1528.7008	43209.45	42312.9
892.4503	1530.4954	42987.75	42088.65
892.5932	1532.2893	43044.85	42146.45
892.7361	1534.0824	42847.45	41946.8
892.879	1535.8747	42795.15	41899.1
893.0218	1537.6663	42919.6	42022.8
893.1647	1539.4572	42565.35	41667.3
893.3075	1541.2473	42625.45	41726.75
893.4503	1543.0367	42530.55	41636.05
893.5931	1544.8253	42473.15	41571.15
893.7359	1546.6132	42469.3	41568.9
893.8787	1548.4003	42289.65	41382.2
894.0214	1550.1867	42268.95	41367.55
894.1642	1551.9723	42242.1	41339.35
894.3069	1553.7572	42232.7	41336.9
894.4496	1555.5414	42212.1	41317.3
894.5923	1557.3247	42080.05	41186.95
894.735	1559.1074	42083.95	41189.05
894.8777	1560.8893	42008.95	41113.65
895.0204	1562.6705	42026.85	41132.6
895.163	1564.4509	41933.8	41041.5
895.3056	1566.2305	41910.3	41018.4
895.4482	1568.0094	41999.7	41108.35
895.5908	1569.7876	41890.35	40999.3
895.7334	1571.565	41798.45	40903.05
895.876	1573.3417	41823.6	40928
896.0186	1575.1176	41737.45	40843.4
896.1611	1576.8928	41686.65	40795.25
896.3036	1578.6672	41553.6	40663.7
896.4461	1580.4409	41545.6	40655.15
896.5886	1582.2138	41416.25	40523.35
896.7311	1583.986	41376.05	40483.35
896.8736	1585.7575	41317.3	40423.55
897.0161	1587.5282	41257.7	40369.65
897.1585	1589.2981	41299.75	40411.5
897.3009	1591.0673	41164.5	40274.1
897.4433	1592.8358	41189.05	40299.2
897.5857	1594.6035	41183.45	40290.15
897.7281	1596.3704	41125.4	40231.65
897.8705	1598.1366	41049.45	40159.55
898.0128	1599.9021	40925.35	40034.25
898.1551	1601.6668	40891.7	39998.35
898.2975	1603.4308	40884.4	39990.95
898.4398	1605.194	40954.05	40058.35
898.5821	1606.9564	40800.25	39913.65
898.7243	1608.7182	40869.8	39979.15
898.8666	1610.4791	40807.85	39925.65
899.0088	1612.2394	40877.85	39992.75
899.1511	1613.9988	40870.95	39986.65
899.2933	1615.7576	40889.6	40000.15
899.4355	1617.5156	40917.55	40020.85
899.5776	1619.2728	40975.25	40083.55
899.7198	1621.0293	40802.8	39912.6
899.862	1622.785	40742.15	39847.55
900.0041	1624.54	40585.75	39694.45
900.1462	1626.2942	40490.95	39601.35
900.2883	1628.0477	40220.65	39330.1
900.4304	1629.8005	40043.45	39150.4
900.5725	1631.5525	40001.3	39112.35
900.7145	1633.3037	39767.75	38880.45
900.8566	1635.0542	39680.7	38791.85
900.9986	1636.804	39646.6	38758.45
901.1406	1638.553	39487.9	38554.2
901.2826	1640.3013	39420.7	38531.5
901.4245	1642.0488	39284.95	38393.95
901.5665	1643.7955	39302.4	38416.95
901.7085	1645.5416	39176.8	38291.15
901.8504	1647.2868	39153.25	38266.65
901.9923	1649.0313	39197.45	38307.7
902.1342	1650.7751	39157.15	38264.45
902.2761	1652.5181	39145.8	38258.65
902.4179	1654.2604	39103.75	38217.8
902.5598	1656.0019	39136.7	38247.75
902.7016	1657.7427	39084.7	38196.15
902.8434	1659.4828	39164.9	38276.75
902.9852	1661.222	39115.55	38225.95
903.127	1662.9606	39087.9	38200.8
903.2687	1664.6984	38929.05	38041.25
903.4105	1666.4354	38822.35	37930.3
903.5522	1668.1717	38517.6	37628.15
903.6939	1669.9072	38234.2	37346.1
903.8356	1671.642	38105.55	37213.9
903.9773	1673.3761	37993.85	37105.5
904.119	1675.1094	37810.5	36923.65
904.2606	1676.8419	37608.4	36721.3
904.4022	1678.5737	37532	36641.75
904.5439	1680.3048	37390.3	36502.15
904.6855	1682.0351	37167.55	36275.65
904.827	1683.7646	37026.7	36134.8
904.9686	1685.4934	37045.6	36157.25
905.1101	1687.2215	36762.95	35875.85
905.2517	1688.9488	36808.1	35921.8
905.3932	1690.6754	36399.3	35513
905.5347	1692.4012	36521.1	35630.75
905.6761	1694.1263	36511.05	35622.35
905.8176	1695.8506	36271.7	35383.8
905.9591	1697.5742	36234.6	35346.35
906.1005	1699.297	36139.9	35253.3
906.2419	1701.0191	36043.8	35158.55
906.3833	1702.7404	35788.25	34904.35
906.5246	1704.461	35638.6	34750.65
906.666	1706.1808	35665.6	34778
906.8073	1707.8999	35556.3	34672.4
906.9487	1709.6182	35475.25	34590.55
907.09	1711.3358	35421.1	34537.5
907.2313	1713.0527	35281.8	34395.95
907.3725	1714.7688	35226.95	34333.95
907.5138	1716.4841	34984.2	34095.5
907.655	1718.1987	35029.4	34138.4
907.7962	1719.9126	34929.95	34043.85
907.9374	1721.6257	34865.4	33977.35
908.0786	1723.338	34862.85	33976.9
908.2198	1725.0496	34582.4	33695.2
908.3609	1726.7605	34605.5	33717.75
908.502	1728.4706	34451.45	33565.4
908.6431	1730.18	34360.8	33473.6
908.7842	1731.8886	34233.7	33347.6
908.9253	1733.5964	34175.2	33285.35
909.0664	1735.3036	34258	33370.5
909.2074	1737.0099	34127.35	33245.25
909.3484	1738.7156	34005.5	33121.45
909.4894	1740.4204	33868.5	32980.95
909.6304	1742.1246	33881.25	32994.45
909.7714	1743.8279	33828.5	32942.85
909.9123	1745.5306	33796.5	32911.95
910.0532	1747.2325	33466.15	32581.4
910.1941	1748.9336	33443.1	32557.4
910.335	1750.634	33381.3	32494.95
910.4759	1752.3336	33423.25	32536.85
910.6168	1754.0325	33218.75	32334.8
910.7576	1755.7307	33336.55	32451.95
910.8984	1757.4281	33122.4	32234.8
911.0392	1759.1247	33224.15	32329.95
911.18	1760.8206	32971.2	32076.3
911.3208	1762.5158	32920.8	32029.3
911.4615	1764.2102	32905.55	32020
911.6022	1765.9039	32802.3	31916
911.7429	1767.5968	32716.7	31834.5
911.8836	1769.289	32624.55	31740.45
912.0243	1770.9804	32584.1	31696.4
912.1649	1772.6711	32597.65	31712
912.3056	1774.361	32442.35	31554.9
912.4462	1776.0502	32411.1	31525.35
912.5868	1777.7386	32233	31344.75
912.7274	1779.4263	32260.4	31374
912.8679	1781.1132	32221.2	31336.35
913.0084	1782.7994	32097.65	31210.8
913.149	1784.4849	32075.55	31192.95
913.2895	1786.1696	31823.5	30921.45
913.4299	1787.8535	31893.05	31008.7
913.5704	1789.5367	31868	30986.35
913.7108	1791.2192	31697.5	30810.8
913.8513	1792.9009	31564.2	30650.8
913.9917	1794.5818	31583.35	30694.25
914.132	1796.2621	31418.55	30534.7
914.2724	1797.9415	31386.1	30499.75
914.4128	1799.6202	31330.35	30444.1
914.5531	1801.2982	31319.7	30435.8
914.6934	1802.9755	31140.4	30252.5
914.8337	1804.6519	31050.75	30162.2
914.9739	1806.3277	31140.45	30255.35
915.1142	1808.0027	30796.7	29913.25
915.2544	1809.6769	30888.15	30005.05
915.3946	1811.3504	30923.95	30039.8
915.5348	1813.0231	30662.5	29777.6
915.675	1814.6951	30747.75	29865.55
915.8151	1816.3664	30692.9	29804.7
915.9553	1818.0369	30624	29738.9
916.0954	1819.7067	30472.7	29588.85
916.2355	1821.3757	30578.85	29692.05
916.3755	1823.044	30367.45	29482.9
916.5156	1824.7115	30285.55	29399.55
916.6556	1826.3783	30186.2	29300.25
916.7956	1828.0443	30085.55	29202.65
916.9356	1829.7096	30019.4	29131
917.0756	1831.3741	29940.95	29053.15
917.2155	1833.0379	29934.15	29051.05
917.3555	1834.701	29870.85	28986.25
917.4954	1836.3633	29774.65	28889.75
917.6353	1838.0248	29750.7	28864.6
917.7751	1839.6856	29681.1	28796.6
917.915	1841.3457	29570.7	28687.35
918.0548	1843.005	29608	28721.75
918.1946	1844.6636	29533.4	28649.8
918.3344	1846.3214	29383.1	28497.6
918.4742	1847.9785	29382.05	28497.9
918.6139	1849.6349	29308.05	28422.25
918.7537	1851.2904	29338	28443.85
918.8934	1852.9453	29156.5	28269.3
919.0331	1854.5994	29078.35	28190.95
919.1727	1856.2528	29142.8	28252.6
919.3124	1857.9054	29032.95	28149.8
919.452	1859.5572	28945.7	28061
919.5916	1861.2083	28942.6	28056.25
919.7312	1862.8587	29006.25	28118.1
919.8708	1864.5084	28730.5	27841.45
920.0103	1866.1572	28759.2	27874.05
920.1498	1867.8054	28560.65	27675.5
920.2893	1869.4528	28635.35	27750.3
920.4288	1871.0994	28493.4	27607.05
920.5683	1872.7453	28454.3	27568.2
920.7077	1874.3905	28431	27539.75
920.8471	1876.0349	28297.55	27410.9
920.9865	1877.6786	28338.5	27450.3
921.1259	1879.3215	28271.55	27385.8
921.2653	1880.9637	28283.45	27395.35
921.4046	1882.6051	28165.45	27282.05
921.5439	1884.2458	28082.95	27194.7
921.6832	1885.8858	27935.6	27049.7
921.8225	1887.525	27952.55	27067.2
921.9617	1889.1634	27862.15	26974.5
922.101	1890.8011	27798	26912.75
922.2402	1892.4381	27667	26781.05
922.3794	1894.0743	27722.35	26837.85
922.5185	1895.7098	27575.35	26691.4
922.6577	1897.3446	27467.9	26582.6
922.7968	1898.9786	27426.8	26535.8
922.9359	1900.6118	27375.85	26492.25
923.075	1902.2443	27208.9	26321.45
923.214	1903.8761	27185.4	26300.55
923.3531	1905.5071	27085.2	26199.55
923.4921	1907.1374	26937.1	26054.55
923.6311	1908.7669	26916	26032.3
923.77	1910.3957	26933.55	26047.55
923.909	1912.0237	26718.1	25835.05
924.0479	1913.651	26686.25	25799.7
924.1868	1915.2776	26654.85	25771
924.3257	1916.9034	26508.8	25624.45
924.4646	1918.5285	26422.3	25539.65
924.6034	1920.1528	26286.15	25400.8
924.7422	1921.7764	26296.45	25411
924.881	1923.3992	26181.05	25297.1
925.0198	1925.0213	26014.1	25128.7
925.1586	1926.6427	25907.65	25023.9
925.2973	1928.2633	26103.3	24971.15
925.436	1929.8832	25820.55	24931.75
925.5747	1931.5023	25671.4	24786.45
925.7134	1933.1207	25601.4	24717
925.852	1934.7383	25603.05	24717.4
925.9906	1936.3552	25499.1	24615.1
926.1292	1937.9714	25437.6	24552.9
926.2678	1939.5868	25382.95	24495.45
926.4064	1941.2015	25260.95	24376
926.5449	1942.8154	25090.1	24203.95
926.6834	1944.4286	25053.85	24170.4
926.8219	1946.041	24943.05	24036
926.9604	1947.6528	24812.15	23924.2
927.0988	1949.2637	24773.65	23891.25
927.2372	1950.8739	24713.45	23828.15
927.3756	1952.4834	24670.15	23785.1
927.514	1954.0921	24619.75	23734.3
927.6523	1955.7001	24501.75	23613.85
927.7907	1957.3074	24429.05	23546.55
927.929	1958.9139	24311.7	23427.45
928.0673	1960.5197	24276.7	23391.3
928.2055	1962.1247	24135.6	23252.15
928.3438	1963.729	24037	23155.65
928.482	1965.3325	24023.1	23120.1
928.6202	1966.9353	23951.05	23067.2
928.7584	1968.5374	23864.7	22980.65
928.8965	1970.1387	23778.1	22896.85
929.0346	1971.7393	23689.5	22805.2
929.1727	1973.3392	23614.75	22733.85
929.3108	1974.9383	23504.2	22623.6
929.4489	1976.5366	23412.5	22531.4
929.5869	1978.1342	23396.75	22516.1
929.7249	1979.7311	23318.85	22434.6
929.8629	1981.3273	23259.05	22375.9
930.0009	1982.9227	23192.35	22309.85
930.1388	1984.5173	23137.85	22257.5
930.2767	1986.1112	22997.95	22116.1
930.4146	1987.7044	23000.35	22119.9
930.5525	1989.2968	22831.1	21948.05
930.6904	1990.8885	22842.75	21957.2
930.8282	1992.4795	22822.6	21938.95
930.966	1994.0697	22697.1	21814.9
931.1038	1995.6592	22604.15	21722.95
931.2415	1997.2479	22581.1	21696.9
931.3793	1998.8359	22493.45	21610.5
931.517	2000.4232	22409.65	21530.05
931.6547	2002.0097	22362.8	21482.9
931.7923	2003.5955	22221.7	21341
931.93	2005.1805	22231.1	21348.25
932.0676	2006.7648	22169.5	21288.8
932.2052	2008.3484	22112.95	21230.6
932.3427	2009.9312	22126.35	21244.5
932.4803	2011.5133	22012.8	21132.1
932.6178	2013.0946	21975.45	21094.8
932.7553	2014.6752	21883.35	21003.4
932.8928	2016.2551	21824.7	20943.1
933.0302	2017.8342	21747.85	20867.9
933.1676	2019.4126	21638.35	20756.95
933.305	2020.9902	21600.35	20720.95
933.4424	2022.5672	21521.85	20641.45
933.5798	2024.1433	21496.9	20609.5
933.7171	2025.7188	21434.05	20554
933.8544	2027.2935	21337.2	20457.6
933.9917	2028.8674	21274.85	20396
934.129	2030.4406	21189.1	20309.8
934.2662	2032.0131	21124.55	20244.5
934.4034	2033.5849	21047.6	20159.15
934.5406	2035.1559	21000.5	20123.05
934.6778	2036.7261	20985.65	20105.15
934.8149	2038.2957	20940.35	20059.9
934.952	2039.8645	20915.45	20033.45
935.0891	2041.4325	20887	20001.55
935.2262	2042.9998	20797.8	19917.15
935.3632	2044.5664	20733.6	19850.2
935.5002	2046.1323	20674.75	19794.55
935.6372	2047.6974	20625.05	19744.6
935.7742	2049.2617	20552.35	19673.05
935.9111	2050.8254	20535.3	19650.15
936.048	2052.3883	20511.65	19631.05
936.1849	2053.9504	20432.85	19552.35
936.3218	2055.5118	20353.15	19470.75
936.4586	2057.0725	20269.35	19386.4
936.5955	2058.6325	20231.55	19350.3
936.7323	2060.1917	20167.75	19289.3
936.869	2061.7502	20125.6	19241.4
937.0058	2063.3079	20062.1	19184.75
937.1425	2064.8649	19989.65	19104.2
937.2792	2066.4212	19965.3	19082.9
937.4159	2067.9767	19911.2	19030
937.5525	2069.5315	19795.35	18914.6
937.6891	2071.0856	19719.85	18840.05
937.8257	2072.6389	19678.65	18796.55
937.9623	2074.1915	19571.05	18691.5
938.0989	2075.7433	19444.7	18565.55
938.2354	2077.2945	19467.9	18589.45
938.3719	2078.8448	19388.15	18507.5
938.5084	2080.3945	19351.75	18468.5
938.6448	2081.9434	19323.8	18442.5
938.7812	2083.4916	19232.85	18351.4
938.9176	2085.039	19172.45	18288.35
939.054	2086.5857	19134.25	18250.95
939.1903	2088.1317	19082.35	18196.7
939.3267	2089.677	19038.95	18154.55
939.463	2091.2215	18986.65	18103.55
939.5992	2092.7652	18930.05	18044.3
939.7355	2094.3083	18902.35	18018.25
939.8717	2095.8506	18894.8	18013.7
940.0079	2097.3921	18860.55	17979.7
940.1441	2098.933	18765.9	17884.15
940.2802	2100.4731	18701.55	17820.8
940.4163	2102.0124	18714.35	17814.55
940.5524	2103.5511	18633.45	17751.65
940.6885	2105.089	18620.2	17739.3
940.8245	2106.6261	18567.3	17687.2
940.9606	2108.1626	18517.6	17633.95
941.0965	2109.6983	18504.3	17595.2
941.2325	2111.2332	18424.5	17541.6
941.3684	2112.7675	18369.3	17484.75
941.5044	2114.301	18346.95	17464.1
941.6403	2115.8337	18324.95	17440.65
941.7761	2117.3657	18252.35	17371.3
941.912	2118.897	18195.45	17310.3
942.0478	2120.4276	18121.5	17233.9
942.1835	2121.9575	18086.65	17204.4
942.3193	2123.4866	18058.8	17161.8
942.455	2125.0149	18033.25	17149.55
942.5907	2126.5426	17895.1	17013.95
942.7264	2128.0695	17865.75	16979.85
942.8621	2129.5956	17822.3	16944.8
942.9977	2131.1211	17802.7	16915.45
943.1333	2132.6458	17748.15	16865.3
943.2689	2134.1698	17701.9	16818.7
943.4044	2135.693	17646.05	16760.5
943.54	2137.2155	17624.55	16740.3
943.6755	2138.7373	17591.45	16706.05
943.8109	2140.2584	17496.7	16616.55
943.9464	2141.7787	17467.75	16579.2
944.0818	2143.2983	17376.3	16495.25
944.2172	2144.8171	17308.95	16430.6
944.3526	2146.3353	17264.15	16380.05
944.4879	2147.8527	17187.75	16308.4
944.6232	2149.3693	17219.05	16336.55
944.7585	2150.8853	17157.5	16275.15
944.8938	2152.4005	17070.2	16188.1
945.029	2153.9149	17026.45	16142.75
945.1642	2155.4287	17006.1	16124.25
945.2994	2156.9417	16972	16088.5
945.4346	2158.454	16913	16029.3
945.5697	2159.9655	16854.85	15974.35
945.7048	2161.4764	16837.25	15956.65
945.8399	2162.9865	16785.55	15904.55
945.9749	2164.4958	16730.5	15847.6
946.1099	2166.0045	16667.8	15783.4
946.2449	2167.5124	16606.9	15726.15
946.3799	2169.0195	16586	15704.7
946.5148	2170.526	16555.95	15672.6
946.6498	2172.0317	16488.45	15606.7
946.7846	2173.5367	16450.2	15568.1
946.9195	2175.0409	16373.25	15491.1
947.0543	2176.5445	16412.15	15530.2
947.1891	2178.0473	16307.45	15422.6
947.3239	2179.5494	16269.15	15383
947.4587	2181.0507	16195.25	15312.35
947.5934	2182.5513	16162.65	15281.05
947.7281	2184.0512	16120.5	15237.45
947.8628	2185.5504	16065.9	15182.5
947.9974	2187.0488	15965.35	15084.9
948.132	2188.5465	15938.35	15056.5
948.2666	2190.0435	15895.3	15012.1
948.4012	2191.5397	15818.7	14935.5
948.5357	2193.0353	15786.85	14904.45
948.6702	2194.5301	15730.6	14847.35
948.8047	2196.0241	15678.95	14795.45
948.9392	2197.5175	15627.3	14741.5
949.0736	2199.0101	15591.05	14705.1
949.208	2200.502	15490.65	14608.65
949.3424	2201.9931	15442.4	14562.35
949.4767	2203.4835	15372.85	14491.7
949.611	2204.9733	15356.9	14469.5
949.7453	2206.4622	15355.55	14476.35
949.8796	2207.9505	15281.3	14397.95
950.0138	2209.438	15199.3	14319.9
950.148	2210.9248	15155.15	14274.2
950.2822	2212.4109	15127.2	14245.45
950.4164	2213.8962	15061.3	14174.45
950.5505	2215.3809	15022.7	14137.05
950.6846	2216.8648	15010.7	14127.35
950.8186	2218.3479	14961.8	14074.6
950.9527	2219.8304	14912.25	14024.65
951.0867	2221.3121	14868.7	13984.95
951.2207	2222.7931	14818.6	13932.7
951.3546	2224.2733	14730.7	13847.8
951.4886	2225.7529	14724.55	13843.4
951.6225	2227.2317	14657	13773.4
951.7563	2228.7098	14600.65	13721.55
951.8902	2230.1872	14583.95	13704.35
952.024	2231.6638	14530.6	13648.25
952.1578	2233.1397	14488.5	13601.15
952.2916	2234.6149	14423.85	13542.35
952.4253	2236.0894	14357.55	13476.05
952.559	2237.5632	14348.75	13455.8
952.6927	2239.0362	14293.95	13411.4
952.8263	2240.5085	14266.8	13384.95
952.9599	2241.9801	14181.55	13298.9
953.0935	2243.4509	14191.95	13308.55
953.2271	2244.921	14106.15	13222.8
953.3606	2246.3904	14029.85	13144.2
953.4941	2247.8591	14017.3	13135.25
953.6276	2249.3271	13987.9	13105.1
953.7611	2250.7943	13930.55	13046.4
953.8945	2252.2608	13838.6	12955.55
954.0279	2253.7266	13832.9	12952.4
954.1612	2255.1917	13788.55	12907.1
954.2946	2256.656	13741.15	12858.35
954.4279	2258.1197	13692	12808.85
954.5612	2259.5826	13693.8	12810.5
954.6944	2261.0447	13660.4	12775.15
954.8276	2262.5062	13563.05	12678.6
954.9608	2263.9669	13555.65	12669.25
955.094	2265.4269	13559.35	12676.6
955.2271	2266.8862	13481.5	12600.55
955.3602	2268.3448	13440.4	12556
955.4933	2269.8026	13452.55	12570.15
955.6264	2271.2598	13384.45	12504.05
955.7594	2272.7162	13336.95	12456.9
955.8924	2274.1719	13327.25	12445.55
956.0253	2275.6268	13279.1	12393.95
956.1583	2277.0811	13228.65	12345.4
956.2912	2278.5346	13208.05	12325.65
956.4241	2279.9874	13181.55	12300.75
956.5569	2281.4395	13177.2	12297.05
956.6897	2282.8908	13113.8	12225.4
956.8225	2284.3414	13076.85	12193.95
956.9553	2285.7914	13057.35	12174.95
957.088	2287.2406	13003.55	12117.2
957.2207	2288.689	12956.15	12072.35
957.3534	2290.1368	12946.55	12062.5
957.486	2291.5838	12900.45	12012.15
957.6186	2293.0302	12843.7	11959.5
957.7512	2294.4758	12781.1	11896.3
957.8838	2295.9206	12735.45	11850.35
958.0163	2297.3648	12713.35	11830.95
958.1488	2298.8082	12696.5	11812.1
958.2813	2300.251	12656.4	11772.95
958.4137	2301.693	12611.1	11726.1
958.5461	2303.1343	12597.9	11713.1
958.6785	2304.5748	12529.15	11645.4
958.8108	2306.0147	12515.7	11634.2
958.9432	2307.4538	12500.75	11616.1
959.0754	2308.8922	12404.85	11524.4
959.2077	2310.3299	12388.1	11506.85
959.3399	2311.7669	12356.9	11474.05
959.4721	2313.2031	12326.65	11443.85
959.6043	2314.6387	12291.8	11409.05
959.7365	2316.0735	12255.9	11372.7
959.8686	2317.5076	12218.25	11335.7
960.0006	2318.941	12171.15	11287.2
960.1327	2320.3737	12141.05	11256.5
960.2647	2321.8056	12123.35	11236.5
960.3967	2323.2369	12077	11194.6
960.5287	2324.6674	12072.45	11186.6
960.6606	2326.0972	12004.55	11121.2
960.7925	2327.5263	11967.75	11085.75
960.9244	2328.9547	11905.65	11019.6
961.0562	2330.3823	11886.95	11001.15
961.1881	2331.8092	11874.25	10987.3
961.3198	2333.2355	11812.3	10928.5
961.4516	2334.661	11799.95	10915
961.5833	2336.0858	11784.3	10898.85
961.715	2337.5098	11726.25	10841.95
961.8467	2338.9332	11706.55	10822.9
961.9783	2340.3558	11671.1	10784.35
962.1099	2341.7778	11636.55	10752.1
962.2415	2343.199	11623.25	10738.9
962.373	2344.6195	11558.5	10676.9
962.5045	2346.0393	11531.3	10648.3
962.636	2347.4583	11540.8	10657.6
962.7675	2348.8767	11475.5	10592.7
962.8989	2350.2943	11414.45	10530.5
963.0303	2351.7113	11409.8	10524.8
963.1617	2353.1275	11379.75	10493.95
963.293	2354.543	11321.85	10431.2
963.4243	2355.9578	11310.5	10425.15
963.5556	2357.3718	11262.65	10380.65
963.6868	2358.7852	11206.6	10323.1
963.818	2360.1978	11185.15	10301.1
963.9492	2361.6098	11143.95	10261.35
964.0803	2363.021	11125.8	10240
964.2114	2364.4315	11102	10218.7
964.3425	2365.8413	11062.8	10180.35
964.4736	2367.2504	11026.95	10143.65
964.6046	2368.6587	10934.4	10050.55
964.7356	2370.0664	10920.05	10039.45
964.8666	2371.4733	10879.35	9996.6
964.9975	2372.8795	10849.9	9966.1
965.1284	2374.285	10799.35	9915.5
965.2593	2375.6899	10753.85	9873.05
965.3901	2377.0939	10696.05	9812.55
965.5209	2378.4973	10667.55	9783.85
965.6517	2379.9	10653.9	9769.9
965.7825	2381.3019	10607.25	9724.25
965.9132	2382.7032	10597.8	9716.6
966.0439	2384.1037	10557.55	9678.15
966.1745	2385.5035	10513	9632.15
966.3051	2386.9027	10465.6	9583.05
966.4357	2388.3011	10468.15	9583.15
966.5663	2389.6987	10423.95	9543.05
966.6968	2391.0957	10402.15	9517.55
966.8273	2392.492	10330.45	9448.3
966.9578	2393.8876	10286.65	9404.75
967.0882	2395.2824	10236.1	9353.6
967.2186	2396.6765	10214.6	9331.5
967.349	2398.07	10196.35	9314.2
967.4793	2399.4627	10163.55	9278.55
967.6097	2400.8547	10129.45	9244.8
967.7399	2402.246	10095.15	9205.75
967.8702	2403.6366	10049.1	9166.9
968.0004	2405.0265	10008.95	9126.4
968.1306	2406.4156	9988.8	9101.8
968.2607	2407.8041	9918.05	9032.15
968.3909	2409.1918	9904.5	9019.3
968.521	2410.5789	9849.6	8967
968.651	2411.9652	9846.1	8959.7
968.781	2413.3508	9803.65	8918.9
968.911	2414.7358	9742.4	8859.4
969.041	2416.12	9739.5	8859.35
969.1709	2417.5035	9694.25	8811.4
969.3008	2418.8863	9644.05	8759.95
969.4307	2420.2684	9633.5	8749.85
969.5606	2421.6497	9583.65	8700.2
969.6904	2423.0304	9532.35	8650.9
969.8201	2424.4104	9504	8619.45
969.9499	2425.7896	9493	8608
970.0796	2427.1682	9461.25	8579.6
970.2093	2428.546	9433.7	8549.85
970.3389	2429.9232	9405.65	8521.6
970.4685	2431.2996	9391.35	8508.95
970.5981	2432.6753	9356.95	8473.9
970.7277	2434.0503	9325.05	8440.7
970.8572	2435.4246	9292.65	8410.55
970.9867	2436.7982	9249	8363.7
971.1161	2438.1711	9236	8355.35
971.2456	2439.5433	9214.8	8329.7
971.375	2440.9148	9194.1	8305.45
971.5043	2442.2856	9124.7	8242.25
971.6336	2443.6557	9132.25	8248.95
971.7629	2445.025	9076.95	8193.35
971.8922	2446.3937	9079.4	8196.55
972.0214	2447.7617	9042.15	8159.05
972.1506	2449.1289	9040.6	8158.75
972.2798	2450.4955	8972	8085.7
972.4089	2451.8613	8970.2	8088.8
972.538	2453.2265	8938.95	8056.5
972.6671	2454.5909	8903.6	8019.3
972.7961	2455.9546	8912.55	8027.45
972.9251	2457.3177	8867.9	7986.7
973.0541	2458.68	8846.55	7962.6
973.1831	2460.0416	8850	7966.5
973.312	2461.4025	8818.3	7935.25
973.4408	2462.7627	8774.4	7879.3
973.5697	2464.1222	8739.65	7858.15
973.6985	2465.4811	8735.9	7854.7
973.8273	2466.8392	8692.05	7809.85
973.956	2468.1966	8681.1	7796.5
974.0847	2469.5533	8665.65	7779.05
974.2134	2470.9093	8626.8	7743.95
974.3421	2472.2645	8606.05	7722.55
974.4707	2473.6191	8556.9	7673.1
974.5993	2474.973	8557.35	7675.3
974.7278	2476.3262	8531.95	7646.85
974.8563	2477.6787	8492.4	7611.6
974.9848	2479.0305	8445.55	7563.1
975.1132	2480.3816	8423.6	7536.7
975.2417	2481.7319	8406.75	7524.65
975.37	2483.0816	8380.4	7495.45
975.4984	2484.4306	8339.65	7457.05
975.6267	2485.7789	8317.15	7434.35
975.755	2487.1264	8266.8	7382.05
975.8833	2488.4733	8243.3	7361.95
976.0115	2489.8195	8233.35	7344.5
976.1397	2491.165	8183.25	7299.7
976.2678	2492.5097	8158.4	7274.6
976.3959	2493.8538	8115.1	7232.3
976.524	2495.1972	8096.55	7212.85
976.6521	2496.5398	8030.9	7146.15
976.7801	2497.8818	8029.15	7144
976.9081	2499.2231	8014.95	7132.25
977.036	2500.5637	8003.45	7115.7
977.164	2501.9035	7976.35	7092.9
977.2918	2503.2427	7967.1	7080.6
977.4197	2504.5812	7935.55	7053.05
977.5475	2505.919	7888.35	7004.55
977.6753	2507.256	7888.7	7005.1
977.8031	2508.5924	7832.8	6951.35
977.9308	2509.9281	7853.35	6963.4
978.0585	2511.2631	7810.45	6925.75
978.1861	2512.5974	7791.55	6909.05
978.3137	2513.9309	7747.1	6864.65
978.4413	2515.2638	7764.15	6853.7
978.5689	2516.596	7716.3	6832.6
978.6964	2517.9275	7671.35	6787.65
978.8239	2519.2583	7654.15	6772.05
978.9513	2520.5884	7614.85	6731.3
979.0788	2521.9178	7594.45	6709.8
979.2062	2523.2465	7572.65	6690.85
979.3335	2524.5745	7536.1	6653.15
979.4608	2525.9018	7513.85	6631.15
979.5881	2527.2284	7515.8	6636.75
979.7154	2528.5543	7482.05	6600.55
979.8426	2529.8796	7461.5	6578.8
979.9698	2531.2041	7418.7	6533.6
980.0969	2532.5279	7404.15	6523.95
980.224	2533.851	7399.85	6515.6
980.3511	2535.1735	7401.4	6519.1
980.4781	2536.4952	7362.2	6477.65
980.6052	2537.8163	7361.95	6479.05
980.7321	2539.1366	7335.2	6452.35
980.8591	2540.4562	7333.2	6447.05
980.986	2541.7752	7292.25	6408.5
981.1129	2543.0935	7290.7	6407.5
981.2397	2544.411	7291.2	6407.4
981.3665	2545.7279	7259.8	6377.5
981.4933	2547.0441	7265.25	6382
981.62	2548.3596	7233.05	6347.35
981.7467	2549.6744	7210.65	6329.3
981.8734	2550.9885	7199.2	6307
982.0001	2552.3019	7151.95	6269
982.1267	2553.6146	7160.75	6277.25
982.2532	2554.9266	7134.5	6249.6
982.3798	2556.2379	7100.4	6216.25
982.5063	2557.5485	7088.05	6208.7
982.6327	2558.8585	7073.15	6184.1
982.7592	2560.1677	7065.1	6177.25
982.8856	2561.4762	7038.7	6157.55
983.0119	2562.7841	7025.2	6138.65
983.1383	2564.0913	7027.45	6144.7
983.2646	2565.3977	7006.65	6124.8
983.3908	2566.7035	6972.85	6089.9
983.517	2568.0086	6969.3	6084.35
983.6432	2569.313	6955.85	6072.55
983.7694	2570.6167	6930.5	6043.35
983.8955	2571.9197	6919.15	6037.3
984.0216	2573.222	6906.7	6020.2
984.1476	2574.5236	6898.4	6015.75
984.2737	2575.8246	6865.3	5978.65
984.3996	2577.1248	6874.2	5990.2
984.5256	2578.4244	6844.05	5959.25
984.6515	2579.7232	6848.85	5966.9
984.7774	2581.0214	6843.25	5935.4
984.9032	2582.3189	6797.45	5916.1
985.029	2583.6157	6790.9	5903.6
985.1548	2584.9118	6774.05	5889.1
985.2806	2586.2072	6766.1	5882.55
985.4063	2587.5019	6730.7	5846.95
985.5319	2588.7959	6694.35	5810.9
985.6576	2590.0893	6704	5819.2
985.7832	2591.3819	6689.8	5807.25
985.9087	2592.6739	6653.65	5770.7
986.0343	2593.9652	6633.35	5747.75
986.1597	2595.2557	6605.95	5722.8
986.2852	2596.5456	6593.25	5709.3
986.4106	2597.8348	6589.5	5707.45
986.536	2599.1234	6568.4	5685.15
986.6614	2600.4112	6530.75	5648.05
986.7867	2601.6983	6517.8	5633.1
986.912	2602.9848	6489.2	5604.4
987.0372	2604.2705	6463.95	5574.15
987.1624	2605.5556	6469.85	5587.4
987.2876	2606.84	6400.75	5518.95
987.4128	2608.1237	6423.95	5540.9
987.5379	2609.4067	6381.5	5500.2
987.6629	2610.689	6372	5482.4
987.788	2611.9707	6348.4	5463.1
987.913	2613.2516	6316.65	5429.9
988.0379	2614.5319	6279.4	5396.7
988.1629	2615.8115	6268.7	5383.35
988.2878	2617.0903	6242.05	5357.7
988.4126	2618.3685	6216.85	5334.05
988.5375	2619.6461	6199.6	5318.45
988.6622	2620.9229	6184	5299.1
988.787	2622.199	6185.55	5303.45
988.9117	2623.4745	6146.75	5263.7
989.0364	2624.7493	6125	5242.7
989.161	2626.0234	6124.5	5243.05
989.2857	2627.2968	6078.3	5193.9
989.4102	2628.5695	6048.5	5165.8
989.5348	2629.8415	6040.9	5156.6
989.6593	2631.1128	6001.8	5117.25
989.7837	2632.3835	5985.4	5103.25
989.9082	2633.6535	5941.7	5060.15
990.0326	2634.9228	5947.65	5066
990.1569	2636.1914	5921.55	5038.45
990.2812	2637.4593	5939.65	5050.65
990.4055	2638.7265	5911.85	5027.15
990.5298	2639.9931	5904.4	5021.65
990.654	2641.259	5870.7	4989.55
990.7782	2642.5242	5849.45	4967.75
990.9023	2643.7887	5856.05	4974.55
991.0264	2645.0525	5820.35	4937.9
991.1505	2646.3156	5791.35	4908.55
991.2745	2647.5781	5767.65	4885.95
991.3985	2648.8398	5754.7	4874.35
991.5225	2650.1009	5763.05	4843.55
991.6464	2651.3613	5737.15	4856.5
991.7703	2652.6211	5696.4	4812.85
991.8942	2653.8801	5693.35	4813.55
992.018	2655.1385	5674.55	4789.1
992.1418	2656.3961	5661.9	4778.3
992.2655	2657.6531	5663.9	4782.15
992.3892	2658.9094	5642.4	4760.1
992.5129	2660.1651	5634.05	4752.35
992.6366	2661.42	5615.65	4732.4
992.7602	2662.6743	5604.3	4721.3
992.8837	2663.9279	5596.15	4713.7
993.0073	2665.1808	5585.1	4702.05
993.1307	2666.433	5562.55	4679
993.2542	2667.6846	5543.95	4662.65
993.3776	2668.9354	5525.85	4639.3
993.501	2670.1856	5512.25	4629.25
993.6244	2671.4351	5506.9	4626.05
993.7477	2672.6839	5484.05	4599.5
993.8709	2673.9321	5476.3	4594.8
993.9942	2675.1795	5445.35	4563.65
994.1174	2676.4263	5439.2	4556.35
994.2405	2677.6724	5414.8	4533.35
994.3637	2678.9179	5413.35	4529.3
994.4868	2680.1626	5405.55	4523.25
994.6098	2681.4067	5386.65	4505.55
994.7328	2682.6501	5360.35	4478.75
994.8558	2683.8928	5344.55	4462.65
994.9788	2685.1348	5311.2	4430.2
995.1017	2686.3761	5318.65	4434.4
995.2245	2687.6168	5298.7	4417.4
995.3474	2688.8568	5284.05	4402.15
995.4702	2690.0961	5249.5	4368.75
995.5929	2691.3348	5242.1	4357.45
995.7156	2692.5727	5243.7	4360.45
995.8383	2693.81	5213.55	4331.35
995.961	2695.0466	5206.8	4325.6
996.0836	2696.2826	5181.85	4298.7
996.2062	2697.5178	5196.5	4295.05
996.3287	2698.7524	5169.35	4288
996.4512	2699.9863	5160.8	4276.85
996.5737	2701.2195	5142.7	4261.75
996.6961	2702.452	5146.15	4263.4
996.8185	2703.6839	5112.65	4230.35
996.9408	2704.9151	5100.05	4218.3
997.0631	2706.1456	5072.2	4189.45
997.1854	2707.3755	5055.5	4174
997.3077	2708.6046	5052.2	4167.15
997.4299	2709.8331	5033.45	4150.6
997.552	2711.0609	5022.15	4141.8
997.6742	2712.2881	5007.4	4123.95
997.7963	2713.5145	4982.75	4099.4
997.9183	2714.7403	4990.55	4108.15
998.0403	2715.9654	4944.15	4062.05
998.1623	2717.1899	4954.95	4070.6
998.2842	2718.4136	4954.55	4073.9
998.4062	2719.6367	4948.95	4065.7
998.528	2720.8591	4931.05	4043.05
998.6498	2722.0809	4899.7	4018.45
998.7716	2723.3019	4884.8	3996.45
998.8934	2724.5223	4887.3	4004.95
999.0151	2725.7421	4876.35	3991.8
999.1368	2726.9611	4855.75	3972.65
999.2584	2728.1795	4853.8	3966.3
999.38	2729.3972	4818.65	3938.05
999.5016	2730.6142	4799.25	3910
999.6231	2731.8306	4791.75	3908.65
999.7446	2733.0462	4748.3	3864.95
999.8661	2734.2612	4748.7	3863
999.9875	2735.4756	4725.65	3842.95
1000.1089	2736.6892	4685.4	3803.9
1000.2302	2737.9022	4695.3	3815.9
1000.3515	2739.1145	4647.3	3765.05
1000.4728	2740.3262	4620.25	3729.65
1000.594	2741.5372	4600.55	3717.35
1000.7152	2742.7475	4583.6	3702.15
1000.8363	2743.9571	4576	3691.35
1000.9575	2745.1661	4566.8	3681.05
1001.0785	2746.3744	4532.4	3649.85
1001.1996	2747.582	4526.1	3645.65
1001.3206	2748.7889	4522.65	3638.15
1001.4415	2749.9952	4485.4	3603.45
1001.5625	2751.2008	4477.3	3593.25
1001.6833	2752.4057	4454.95	3570.8
1001.8042	2753.61	4444.8	3562.2
1001.925	2754.8136	4461.45	3579.7
1002.0458	2756.0165	4431.7	3550.9
1002.1665	2757.2188	4401.75	3520
1002.2872	2758.4204	4399.25	3518.45
1002.4078	2759.6213	4380.95	3497.6
1002.5285	2760.8215	4386.35	3500
1002.649	2762.0211	4363.15	3479.5
1002.7696	2763.22	4353.25	3468.3
1002.8901	2764.4182	4329.45	3445.9
1003.0106	2765.6158	4329.85	3446.9
1003.131	2766.8127	4297.65	3415.25
1003.2514	2768.009	4294.95	3413.8
1003.3717	2769.2045	4275.95	3391.8
1003.492	2770.3994	4270.35	3387.85
1003.6123	2771.5936	4265.5	3384.85
1003.7325	2772.7872	4232.25	3351.1
1003.8527	2773.9801	4212.15	3328.1
1003.9729	2775.1723	4224.4	3325.35
1004.093	2776.3639	4193.8	3312.8
1004.2131	2777.5548	4182.35	3298.95
1004.3331	2778.745	4164.65	3280
1004.4531	2779.9346	4159.9	3278.55
1004.5731	2781.1235	4159.75	3279.8
1004.693	2782.3117	4129.75	3249
1004.8129	2783.4992	4124.7	3244.65
1004.9328	2784.6861	4118.7	3236.95
1005.0526	2785.8723	4108.25	3223.75
1005.1723	2787.0579	4091.2	3209.65
1005.2921	2788.2428	4093.4	3213.5
1005.4118	2789.427	4092.05	3211.5
1005.5314	2790.6106	4063.1	3181.8
1005.651	2791.7935	4054	3172.85
1005.7706	2792.9757	4046.8	3165.4
1005.8902	2794.1573	4025.4	3141.8
1006.0097	2795.3382	4022.7	3140.7
1006.1291	2796.5184	4009.9	3129.9
1006.2485	2797.698	4002.85	3120.3
1006.3679	2798.8769	4005.7	3126
1006.4873	2800.0551	3994.3	3111.55
1006.6066	2801.2327	3981	3097.3
1006.7258	2802.4096	3977.55	3096.05
1006.8451	2803.5859	3970.8	3087.5
1006.9642	2804.7615	3957.6	3075.3
1007.0834	2805.9364	3967.25	3086.65
1007.2025	2807.1106	3969.05	3089.85
1007.3216	2808.2842	3961.5	3080.55
1007.4406	2809.4572	3963.2	3081.3
1007.5596	2810.6294	3971.5	3091.6
1007.6785	2811.801	3996.15	3116.7
1007.7975	2812.972	3989.35	3108.65
1007.9163	2814.1423	3983.05	3100.55
1008.0352	2815.3119	4017.35	3133.8
1008.154	2816.4808	4010.05	3130.75
1008.2727	2817.6491	4033.8	3151.65
1008.3914	2818.8167	4037.8	3156.8
1008.5101	2819.9837	4073.85	3187
1008.6288	2821.15	4065.65	3185.6
1008.7474	2822.3157	4094.35	3216.15
1008.8659	2823.4807	4107.55	3226.1
1008.9844	2824.645	4149.7	3266.3
1009.1029	2825.8086	4154.5	3275.4
1009.2214	2826.9716	4183.9	3304.5
1009.3398	2828.134	4204.1	3325.25
1009.4581	2829.2957	4214.35	3333.9
1009.5764	2830.4567	4222.65	3344
1009.6947	2831.617	4223.5	3342.4
1009.813	2832.7767	4207	3326.9
1009.9312	2833.9358	4212.75	3334.9
1010.0493	2835.0941	4210.9	3327.55
1010.1675	2836.2519	4200.55	3320.35
1010.2855	2837.4089	4186.7	3303.7
1010.4036	2838.5653	4143.6	3261.75
1010.5216	2839.7211	4140.6	3261.4
1010.6396	2840.8761	4128.25	3244.9
1010.7575	2842.0306	4135.05	3255.55
1010.8754	2843.1843	4158.35	3278.85
1010.9932	2844.3374	4150.65	3269.45
1011.111	2845.4899	4166.85	3285.15
1011.2288	2846.6417	4186.15	3305.45
1011.3465	2847.7928	4202.1	3321
1011.4642	2848.9433	4235.3	3354.55
1011.5818	2850.0931	4274.75	3393.2
1011.6995	2851.2422	4290.8	3407.25
1011.817	2852.3907	4308.45	3428.3
1011.9345	2853.5385	4319.5	3437.8
1012.052	2854.6857	4348.05	3458.05
1012.1695	2855.8323	4361.3	3480.8
1012.2869	2856.9781	4373.65	3492.85
1012.4042	2858.1233	4389.75	3508.45
1012.5216	2859.2679	4398.35	3516.65
1012.6389	2860.4118	4410.9	3531.45
1012.7561	2861.555	4437.2	3553.15
1012.8733	2862.6976	4458.75	3575.5
1012.9905	2863.8395	4448.5	3568.9
1013.1076	2864.9808	4453.4	3572.9
1013.2247	2866.1214	4440.65	3561.65
1013.3417	2867.2614	4463.15	3582.55
1013.4587	2868.4007	4460.75	3577.4
1013.5757	2869.5393	4449.15	3568.45
1013.6926	2870.6773	4449.05	3565.05
1013.8095	2871.8146	4442.9	3559.45
1013.9263	2872.9513	4420	3537.2
1014.0431	2874.0874	4400.65	3520.3
1014.1599	2875.2227	4396.2	3515.9
1014.2766	2876.3574	4378.6	3495.8
1014.3933	2877.4915	4344.85	3464.1
1014.51	2878.6249	4314.55	3434.1
1014.6266	2879.7577	4320.3	3438.95
1014.7431	2880.8898	4299	3406.65
1014.8596	2882.0212	4281.45	3400.45
1014.9761	2883.152	4253.5	3371.75
1015.0925	2884.2821	4234.45	3356.35
1015.2089	2885.4116	4220.1	3339.7
1015.3253	2886.5405	4204.65	3326.55
1015.4416	2887.6686	4217.15	3333.05
1015.5579	2888.7962	4211.8	3333.75
1015.6741	2889.923	4188.65	3309.15
1015.7903	2891.0493	4196.2	3314.5
1015.9065	2892.1748	4196.3	3317.05
1016.0226	2893.2997	4175.9	3294.9
1016.1387	2894.424	4163.95	3283.1
1016.2547	2895.5476	4172.6	3293.1
1016.3707	2896.6706	4181.55	3300.4
1016.4866	2897.7929	4179.5	3299.4
1016.6025	2898.9145	4196.5	3316.1
1016.7184	2900.0355	4175.95	3293.35
1016.8342	2901.1559	4185.6	3304.3
1016.95	2902.2756	4201.35	3319.6
1017.0658	2903.3946	4193.9	3313.85
1017.1815	2904.513	4188	3304.25
1017.2971	2905.6308	4217.5	3338.25
1017.4127	2906.7479	4200.95	3320.35
1017.5283	2907.8643	4206.75	3325.95
1017.6439	2908.9801	4216.05	3336.5
1017.7594	2910.0953	4186.4	3306.6
1017.8748	2911.2098	4190.1	3305.1
1017.9902	2912.3236	4177.85	3289
1018.1056	2913.4368	4178.4	3295
1018.2209	2914.5494	4141.85	3261.95
1018.3362	2915.6613	4129.05	3242.8
1018.4515	2916.7725	4102.45	3221.1
1018.5667	2917.8831	4097.5	3216.55
1018.6819	2918.9931	4065.15	3181.85
1018.797	2920.1024	4037.2	3154.9
1018.9121	2921.211	4026.75	3146.9
1019.0271	2922.319	3998.95	3118.3
1019.1421	2923.4264	3991.4	3113
1019.2571	2924.5331	3978.9	3098.6
1019.372	2925.6391	3974.3	3096.55
1019.4869	2926.7445	3958.9	3080.1
1019.6017	2927.8493	3945.65	3064.3
1019.7165	2928.9534	3936.75	3058.2
1019.8313	2930.0569	3939.15	3055.65
1019.946	2931.1597	3936.2	3055.25
1020.0606	2932.2619	3909.25	3028.05
1020.1753	2933.3634	3936.5	3056.1
1020.2899	2934.4643	3918.75	3031.8
1020.4044	2935.5645	3920.2	3033.4
1020.5189	2936.6641	3884.6	2999.15
1020.6334	2937.763	3860	2981.1
1020.7478	2938.8613	3843.5	2962.3
1020.8622	2939.959	3822.55	2936.55
1020.9765	2941.056	3776	2899.75
1021.0908	2942.1523	3732.3	2853.15
1021.2051	2943.248	3664.6	2784.4
1021.3193	2944.3431	3628.65	2750.5
1021.4334	2945.4375	3566.8	2686.25
1021.5476	2946.5313	3513.3	2634.9
1021.6617	2947.6244	3453.05	2571.1
1021.7757	2948.7169	3393.75	2513.95
1021.8897	2949.8087	3356.75	2476.55
1022.0037	2950.8999	3304.85	2425.8
1022.1176	2951.9904	3245.4	2366.35
1022.2315	2953.0803	3192.35	2311.95
1022.3453	2954.1696	3171.8	2293.15
1022.4591	2955.2582	3142.9	2262.85
1022.5728	2956.3462	3101.85	2222.3
1022.6865	2957.4335	3082	2202.25
1022.8002	2958.5202	3057.2	2172.35
1022.9138	2959.6062	3028.05	2149
1023.0274	2960.6916	3009.15	2128.65
1023.141	2961.7764	2992.35	2110.1
1023.2545	2962.8605	2972.35	2092.8
1023.3679	2963.9439	2965.45	2085.95
1023.4813	2965.0267	2954.45	2073.85
1023.5947	2966.1089	2950.35	2047.9
1023.708	2967.1905	2932.8	2053.7
1023.8213	2968.2714	2918.45	2041.65
1023.9346	2969.3516	2909	2028.55
1024.0478	2970.4312	2910	2022.65
1024.1609	2971.5102	2902.1	2023.4
1024.274	2972.5885	2898.55	2019.9
1024.3871	2973.6662	2905.95	2020.65
1024.5002	2974.7432	2890.55	2011.1
1024.6132	2975.8196	2882	2002.35
1024.7261	2976.8954	2849.45	1970.6
1024.839	2977.9705	2851.2	1971.65
1024.9519	2979.045	2852.55	1972.85
1025.0647	2980.1188	2829.4	1949.85
1025.1775	2981.192	2808.65	1929.95
1025.2902	2982.2645	2801.4	1921.75
1025.4029	2983.3364	2782.55	1904.2
1025.5156	2984.4077	2762.05	1881.65
1025.6282	2985.4783	2743.55	1858.1
1025.7407	2986.5483	2721.25	1843.3
1025.8532	2987.6177	2700.6	1821.1
1025.9657	2988.6864	2671.45	1792.5
1026.0782	2989.7545	2663.15	1780.6
1026.1906	2990.8219	2633.05	1751.3
1026.3029	2991.8887	2611.95	1730.15
1026.4152	2992.9548	2592.4	1711.8
1026.5275	2994.0204	2564.6	1686.3
1026.6397	2995.0852	2550.6	1673.35
1026.7519	2996.1495	2536.8	1656
1026.864	2997.2131	2515.75	1637.5
1026.9761	2998.276	2492.55	1614.15
1027.0882	2999.3383	2478.75	1600
1027.2002	3000.4	2460.2	1579.35
1027.3122	3001.4611	2445.1	1565.45
1027.4241	3002.5215	2436.75	1555.85
1027.536	3003.5812	2411.8	1532.95
1027.6478	3004.6404	2404.9	1526.05
1027.7596	3005.6989	2407.15	1526.15
1027.8714	3006.7567	2389.5	1509.65
1027.9831	3007.8139	2404.1	1494.8
1028.0947	3008.8705	2363.4	1482.75
1028.2064	3009.9264	2352.45	1468.95
1028.3179	3010.9818	2349.85	1471.4
1028.4295	3012.0364	2344.3	1464.4
1028.541	3013.0905	2334.35	1454.45
1028.6524	3014.1439	2318.5	1436.8
1028.7638	3015.1966	2313.55	1434.1
1028.8752	3016.2487	2304.3	1424.4
1028.9865	3017.3002	2315.05	1433.25
1029.0978	3018.3511	2300.8	1422.25
1029.209	3019.4013	2297.6	1416.45
1029.3202	3020.4509	2291.9	1413.2
1029.4314	3021.4998	2284.7	1404.05
1029.5425	3022.5481	2272.4	1393.35
1029.6535	3023.5958	2268.5	1389.6
1029.7645	3024.6428	2259	1377.35
1029.8755	3025.6892	2247.7	1369.3
1029.9864	3026.735	2248.85	1369.8
1030.0973	3027.7802	2243.8	1362.7
1030.2082	3028.8247	2225.45	1347.35
1030.319	3029.8685	2235.35	1355
1030.4297	3030.9118	2231.3	1350.4
1030.5404	3031.9544	2218.9	1339.7
1030.6511	3032.9963	2212.4	1333.1
1030.7617	3034.0376	2204.95	1327
1030.8723	3035.0783	2207.3	1325.5
1030.9829	3036.1184	2202.6	1319.55
1031.0934	3037.1578	2207.75	1329.15
1031.2038	3038.1966	2201.5	1319.2
1031.3142	3039.2348	2201.45	1321.45
1031.4246	3040.2723	2203	1314.45
1031.5349	3041.3092	2183.4	1306.7
1031.6452	3042.3455	2183.45	1303.3
1031.7554	3043.3811	2181.2	1301.05
1031.8656	3044.4161	2164.4	1285.8
1031.9758	3045.4505	2161.7	1283.6
1032.0859	3046.4842	2158.05	1279.6
1032.1959	3047.5173	2148.15	1269.35
1032.3059	3048.5498	2141.55	1259.65
1032.4159	3049.5816	2130.1	1253.1
1032.5258	3050.6128	2137.2	1254.45
1032.6357	3051.6434	2132.65	1250.95
1032.7455	3052.6734	2116.9	1237
1032.8553	3053.7027	2116.2	1236.2
1032.9651	3054.7314	2105.05	1226.9
1033.0748	3055.7594	2103.75	1224.35
1033.1845	3056.7868	2102.7	1222.85
1033.2941	3057.8136	2093.7	1216.05
1033.4037	3058.8398	2085.6	1207.5
1033.5132	3059.8653	2084.95	1207
1033.6227	3060.8902	2075.85	1196.75
1033.7321	3061.9145	2063	1184.15
1033.8415	3062.9381	2059.2	1180.35
1033.9509	3063.9612	2073.2	1177.95
1034.0602	3064.9835	2052.45	1173.2
1034.1694	3066.0053	2046.4	1163.75
1034.2787	3067.0264	2043.6	1165.05
1034.3878	3068.0469	2029.1	1147.95
1034.497	3069.0668	2038.9	1157.4
1034.6061	3070.086	2015.75	1138.75
1034.7151	3071.1046	2014.25	1134.65
1034.8241	3072.1226	2013.9	1132.15
1034.9331	3073.1399	2009.9	1129.9
1035.042	3074.1567	1997.8	1116.75
1035.1508	3075.1727	1988	1105.65
1035.2597	3076.1882	1968.6	1088.85
1035.3684	3077.203	1969.05	1089.05
1035.4772	3078.2173	1971.15	1090.45
1035.5859	3079.2308	1963.15	1080.5
1035.6945	3080.2438	1955	1073.55
1035.8031	3081.2561	1935.45	1055.8
1035.9117	3082.2678	1933.3	1054.1
1036.0202	3083.2789	1928.3	1049.45
1036.1286	3084.2893	1922.4	1043.25
1036.2371	3085.2991	1917.7	1038.85
1036.3454	3086.3083	1913.65	1030.3
1036.4538	3087.3169	1906.5	1026.05
1036.562	3088.3248	1894.05	1013.75
1036.6703	3089.3321	1890.8	1009.05
1036.7785	3090.3388	1881.6	1004.3
1036.8866	3091.3449	1877.25	998.8
1036.9948	3092.3503	1871.25	989.95
1037.1028	3093.3551	1867.3	990.35
1037.2108	3094.3593	1861.2	982.1
1037.3188	3095.3629	1854.4	976.8
1037.4267	3096.3658	1847	966.5
1037.5346	3097.3681	1841.45	960.8
1037.6425	3098.3698	1842.95	964.5
1037.7503	3099.3708	1841	954.75
1037.858	3100.3713	1828.3	950
1037.9657	3101.3711	1823.85	943.45
1038.0734	3102.3702	1946.45	931.35
1038.181	3103.3688	1816.15	937.45
1038.2886	3104.3667	1808.25	929.25
1038.3961	3105.364	1793.1	913.25
1038.5036	3106.3607	1796.25	914.8
1038.611	3107.3568	1781	900.5
1038.7184	3108.3522	1782.2	902.75
1038.8257	3109.347	1786.05	907.4
1038.933	3110.3412	1774.45	890
1039.0403	3111.3348	1760.8	881.95
1039.1475	3112.3277	1756.75	878.15
1039.2547	3113.32	1758.8	880.35
1039.3618	3114.3117	1743.65	865.4
1039.4689	3115.3028	1743.1	864.2
1039.5759	3116.2932	1742.15	860.35
1039.6829	3117.2831	1737.95	854.45
1039.7898	3118.2723	1724.05	844.9
1039.8967	3119.2608	1726.45	848.8
1040.0035	3120.2488	1723.75	843.35
1040.1103	3121.2361	1718.2	840.25
1040.2171	3122.2229	1710.3	832.3
1040.3238	3123.209	1700.2	820.45
1040.4305	3124.1944	1699.2	820.7
1040.5371	3125.1793	1701.45	821.55
1040.6437	3126.1635	1697.35	819.4
1040.7502	3127.1471	1681.45	802.7
1040.8567	3128.1301	1680.5	802.85
1040.9631	3129.1125	1676.05	796.8
1041.0695	3130.0942	1678.45	799.05
1041.1759	3131.0753	1682.3	791.8
1041.2822	3132.0558	1669.4	787.9
1041.3884	3133.0357	1665.4	786.6
1041.4946	3134.015	1666.4	787.35
1041.6008	3134.9936	1659.65	780.8
1041.7069	3135.9716	1676.7	777.45
1041.813	3136.949	1648.75	769.4
1041.919	3137.9258	1648.2	762.35
1042.025	3138.902	1647.55	764.05
1042.1309	3139.8775	1640.95	761.75
1042.2368	3140.8524	1633.65	754.65
1042.3427	3141.8267	1634.75	753.35
1042.4485	3142.8004	1635.25	757.3
1042.5542	3143.7735	1638.05	755.6
1042.6599	3144.7459	1628.2	747
1042.7656	3145.7178	1611.8	733.75
1042.8712	3146.689	1614.35	737.75
1042.9768	3147.6596	1616.05	735.15
1043.0823	3148.6295	1604	725.7
1043.1878	3149.5989	1604.1	725.05
1043.2932	3150.5676	1600.25	723.75
1043.3986	3151.5357	1597.35	720.65
1043.5039	3152.5032	1591.55	713.2
1043.6092	3153.4701	1581.05	701.5
1043.7145	3154.4364	1584.8	704.2
1043.8197	3155.402	1582.8	705.25
1043.9248	3156.367	1578.55	698.65
1044.03	3157.3315	1608.75	690.85
1044.135	3158.2952	1570.6	692.75
1044.24	3159.2584	1571.85	693.4
1044.345	3160.221	1562	682.7
1044.4499	3161.1829	1551.65	670.9
1044.5548	3162.1442	1550.55	671.5
1044.6596	3163.105	1543	664.85
1044.7644	3164.065	1538.75	659
1044.8692	3165.0245	1535.9	653.55
1044.9739	3165.9834	1541.45	665
1045.0785	3166.9416	1531.45	650.35
1045.1831	3167.8993	1531.1	654.5
1045.2877	3168.8563	1519.95	640.55
1045.3922	3169.8127	1524.55	647.2
1045.4966	3170.7684	1517.25	638.15
1045.6011	3171.7236	1518.3	636.45
1045.7054	3172.6782	1512.3	633.75
1045.8098	3173.6321	1506.15	626.95
1045.914	3174.5854	1500.1	616.6
1046.0183	3175.5381	1493.75	614.65
1046.1224	3176.4902	1495.75	619.1
1046.2266	3177.4417	1500.55	623.5
1046.3307	3178.3926	1480.6	601.95
1046.4347	3179.3428	1488.9	612.5
1046.5387	3180.2924	1485.6	606.6
1046.6427	3181.2415	1482.4	603.05
1046.7466	3182.1899	1478.85	599.65
1046.8504	3183.1377	1474.35	596.65
1046.9542	3184.0848	1478.7	595.45
1047.058	3185.0314	1470.8	592.65
1047.1617	3185.9773	1458.55	578.55
1047.2654	3186.9227	1459.25	581.25
1047.369	3187.8674	1459.35	581.7
1047.4726	3188.8115	1462.75	579.7
1047.5761	3189.755	1455	576.8
1047.6796	3190.6979	1455.6	575.45
1047.783	3191.6402	1444.05	566.25
1047.8864	3192.5818	1438.65	558.85
1047.9898	3193.5229	1457	563.45
1048.0931	3194.4633	1435.2	557.85
1048.1963	3195.4031	1432.8	552.75
1048.2995	3196.3423	1438.55	559.85
1048.4027	3197.2809	1425.8	547.3
1048.5058	3198.2189	1426.35	547.3
1048.6089	3199.1563	1442.8	547
1048.7119	3200.0931	1425.45	547.5
1048.8148	3201.0292	1413.55	537.15
1048.9178	3201.9648	1419.05	539.85
1049.0206	3202.8997	1412.6	530
1049.1235	3203.834	1406.5	526.75
1049.2262	3204.7677	1406	527.7
1049.329	3205.7008	1407.2	526.1
1049.4317	3206.6333	1403.75	526.15
1049.5343	3207.5652	1402.75	520.35
1049.6369	3208.4964	1399.3	519.8
1049.7394	3209.4271	1391.1	511.85
1049.8419	3210.3571	1390.95	512.3
1049.9444	3211.2865	1389.4	510.55
1050.0468	3212.2154	1391.4	511.6
1050.1491	3213.1436	1385.6	505.5
1050.2514	3214.0712	1382.9	496.15
1050.3537	3214.9982	1375.15	496.45
1050.4559	3215.9246	1377.75	498.15
1050.5581	3216.8503	1369.2	491.2
1050.6602	3217.7755	1374.15	494.55
1050.7623	3218.7001	1366.45	487.2
1050.8643	3219.624	1370.9	491.2
1050.9663	3220.5473	1356.55	476.1
1051.0682	3221.4701	1364.85	488.1
1051.1701	3222.3922	1353.8	473.65
1051.2719	3223.3137	1358.85	480.55
1051.3737	3224.2346	1355.1	477.1
1051.4754	3225.1549	1351.2	474.35
1051.5771	3226.0746	1343.5	465.05
1051.6788	3226.9937	1341.1	463.15
1051.7804	3227.9121	1339.2	461.65
1051.8819	3228.83	1338.75	458.35
1051.9834	3229.7473	1335.05	455.7
1052.0849	3230.6639	1334.45	455.65
1052.1863	3231.5799	1331.25	452.75
1052.2876	3232.4954	1328.15	448.55
1052.3889	3233.4102	1328.45	450.75
1052.4902	3234.3244	1326.85	448.25
1052.5914	3235.238	1323.05	445.45
1052.6926	3236.151	1341.25	440.25
1052.7937	3237.0634	1312.75	436.3
1052.8948	3237.9752	1308.65	429.15
1052.9958	3238.8864	1314.2	435.35
1053.0968	3239.797	1310.9	431.55
1053.1977	3240.7069	1304.4	425.9
1053.2986	3241.6163	1310	432.05
1053.3994	3242.5251	1303.1	424.4
1053.5002	3243.4332	1301.45	422.25
1053.6009	3244.3408	1297.45	419.1
1053.7016	3245.2477	1293.3	415.2
1053.8022	3246.154	1292.15	414.1
1053.9028	3247.0598	1291.5	413.35
1054.0034	3247.9649	1290.65	411.3
1054.1039	3248.8694	1288.9	409.35
1054.2043	3249.7733	1285.35	407.75
1054.3047	3250.6766	1280.3	400.2
1054.4051	3251.5793	1274.9	395
1054.5054	3252.4814	1275.85	398.05
1054.6056	3253.3829	1269.05	391.6
1054.7058	3254.2838	1269.4	391.1
1054.806	3255.1841	1267.9	390.8
1054.9061	3256.0838	1262.9	384.8
1055.0061	3256.9829	1262.9	385.4
1055.1062	3257.8814	1255.75	375.7
1055.2061	3258.7792	1249.8	368.8
1055.306	3259.6765	1249.4	372.15
1055.4059	3260.5731	1239.5	360.4
1055.5057	3261.4692	1247.6	370.5
1055.6055	3262.3647	1233.95	355.7
1055.7052	3263.2595	1234.25	354.05
1055.8049	3264.1538	1229.6	352.5
1055.9045	3265.0474	1223.15	344.6
1056.0041	3265.9404	1213.1	335.55
1056.1036	3266.8329	1204.45	327.05
1056.2031	3267.7247	1215.6	326.75
1056.3025	3268.616	1198.85	321.4
1056.4019	3269.5066	1183.15	304.1
1056.5013	3270.3966	1184.65	305.3
1056.6005	3271.286	1168.8	291.5
