Software Version:	3.9.2.0
Unit SN:	10000200
Spectrometer SN:	6960
Date:	3/6/2024 9:29:23 AM
Data Line Index:	25
Spectral Points:	2048
Integration time (ms):	125
Averages:	20
Delay (ms):	30
Sequence Number:	1
Processing:	dark subtract
Laser Power (mW):	300
Laser Current (mA):	821
Laser Diode Temp (C):	25.1
Laser Case Temp (C):	23.4
System Temp (C):	23.1
Spectrometer Temp (C):	20.8
CCD Temp (C):	-0.026
Secondary Temp (C):	20.003
Heatsink Temp (C):	17.641
CCDPCB Temp (C):	29.871
SecondaryPCB Temp (C):	25.302

Wavelength	RamanShift	Raw Counts	Dark Subtracted
787.061	30.1047	523.4	114.3
787.2016	32.3739	526.7	118.95
787.3422	34.6426	534.9	127.15
787.4828	36.9109	540.95	132.8
787.6235	39.1787	556.9	145.75
787.7642	41.4461	569.25	152.05
787.9049	43.7131	582.3	162.7
788.0456	45.9796	588.5	165.15
788.1863	48.2456	607.5	179.9
788.3271	50.5112	623.1	192.4
788.4679	52.7764	635.2	201.8
788.6087	55.0411	648.65	212.3
788.7496	57.3054	667.85	226.1
788.8904	59.5692	680.85	236.2
789.0313	61.8326	702.95	256.85
789.1722	64.0955	721.75	271.75
789.3132	66.3579	749.6	296.25
789.4541	68.6199	779.4	322.55
789.5951	70.8815	833.85	371.4
789.7361	73.1426	951.2	485.05
789.8771	75.4032	1251.35	782.15
790.0181	77.6634	1980.1	1507.8
790.1592	79.9231	3737.15	3261.55
790.3003	82.1824	7564.1	7085.3
790.4414	84.4412	14389.45	13900.6
790.5825	86.6995	23521.65	23024.5
790.7237	88.9574	32256.5	31752.75
790.8648	91.2148	38507.9	37998.2
791.006	93.4717	41701.4	41185.55
791.1472	95.7282	43101.2	42585.5
791.2885	97.9842	43793.55	43274.15
791.4297	100.2398	44142.7	43624.95
791.571	102.4949	43962.65	43439.7
791.7123	104.7495	44382.4	43856.85
791.8536	107.0036	44126.2	43596.7
791.9949	109.2573	44699.4	44173.6
792.1363	111.5105	44178.45	43649.6
792.2777	113.7632	44648.65	44116.95
792.4191	116.0154	44724.85	44181.3
792.5605	118.2672	45067	44530.7
792.7019	120.5185	45082.9	44545.25
792.8434	122.7693	45089.25	44549.75
792.9849	125.0197	45024.4	44477.85
793.1264	127.2696	45442.8	44892.15
793.2679	129.519	45748.95	45196
793.4094	131.7679	46104.5	45547.5
793.551	134.0163	45110.7	44552.9
793.6926	136.2642	45647.65	45086.95
793.8342	138.5117	46141.35	45576.15
793.9758	140.7587	46064.6	45499.75
794.1175	143.0052	46227.5	45658.15
794.2591	145.2512	45743.75	45176.6
794.4008	147.4967	46358.65	45787.75
794.5425	149.7417	46148.4	45573
794.6842	151.9863	46274.4	45695.25
794.826	154.2304	45747.55	45162.45
794.9677	156.4739	46171.15	45583.9
795.1095	158.717	46367.85	45781.85
795.2513	160.9596	46325.3	45733.8
795.3931	163.2017	45923.7	45329.25
795.535	165.4433	46455.95	45859.7
795.6768	167.6844	46181.95	45584.4
795.8187	169.925	46457.75	45854.95
795.9606	172.1651	46359.85	45756.7
796.1025	174.4047	46167.1	45559.3
796.2445	176.6439	46437.4	45826.25
796.3864	178.8825	46546.15	45932.35
796.5284	181.1206	46731.1	46114.55
796.6704	183.3582	46804.75	46182.8
796.8124	185.5954	46391.45	45769.4
796.9544	187.832	46723.5	46095.85
797.0965	190.0681	46605.9	45975.7
797.2386	192.3037	47031.25	46397.75
797.3806	194.5388	47590.55	46955.45
797.5228	196.7734	46592.6	45958.5
797.6649	199.0075	47369.75	46734.15
797.807	201.2411	47414.35	46777.2
797.9492	203.4742	47796.35	47155.65
798.0914	205.7068	47820.1	47173.55
798.2336	207.9389	47835.45	47187.1
798.3758	210.1704	47757.6	47118.35
798.518	212.4015	48297.2	47668.1
798.6603	214.632	47602.35	46980.2
798.8025	216.862	48204.05	47579.9
798.9448	219.0915	48311.6	47687.1
799.0871	221.3205	47995.65	47367.7
799.2294	223.549	48461.85	47839.5
799.3718	225.777	48497.95	47870.8
799.5141	228.0044	48540.8	47907.3
799.6565	230.2314	48614.3	47978.8
799.7989	232.4578	48623.25	47984.75
799.9413	234.6837	48609.8	47960.9
800.0837	236.909	49466.6	48819.05
800.2262	239.1339	48427.45	47753.6
800.3687	241.3582	48890.5	48233.35
800.5111	243.582	48868.85	48181.5
800.6536	245.8053	49074.35	48400.55
800.7961	248.0281	48993.95	48321.15
800.9387	250.2503	49186.65	48510.75
801.0812	252.472	49045.35	48371.8
801.2238	254.6932	49078.75	48402.7
801.3664	256.9139	49124.95	48446.15
801.509	259.134	49830.2	49147.7
801.6516	261.3536	48759.95	48080.75
801.7942	263.5727	49599.05	48916.7
801.9369	265.7912	49290.05	48610.1
802.0795	268.0092	49375.65	48694
802.2222	270.2267	49403.2	48721.65
802.3649	272.4436	49264.45	48581.25
802.5076	274.6601	49489.35	48794
802.6504	276.8759	49567.95	48877.2
802.7931	279.0913	49667.3	48974.45
802.9359	281.3061	49414.25	48722.7
803.0787	283.5204	49701.95	49005.75
803.2215	285.7341	49651.65	48954.5
803.3643	287.9473	50092.15	49382.35
803.5071	290.16	49669.15	48968.15
803.6499	292.3721	50324.35	49628.1
803.7928	294.5837	49480.95	48784.45
803.9357	296.7947	49395.1	48697.7
804.0786	299.0052	49806.6	49108.2
804.2215	301.2152	49523.05	48821.35
804.3644	303.4246	50024.8	49326.7
804.5074	305.6334	49900.7	49199.6
804.6503	307.8418	49462.5	48757.65
804.7933	310.0495	49751.3	49046.65
804.9363	312.2568	49549.65	48844.5
805.0793	314.4635	49438	48732.65
805.2223	316.6696	49535.5	48823.9
805.3653	318.8752	49820.5	49102.7
805.5084	321.0802	48960.25	48250.25
805.6514	323.2847	49250.4	48537.35
805.7945	325.4887	49392.85	48679.85
805.9376	327.692	49072.85	48356.15
806.0807	329.8949	49409.3	48693.95
806.2238	332.0972	49230.7	48510.25
806.367	334.2989	49456.8	48733.45
806.5101	336.5001	49726.2	49003.15
806.6533	338.7007	49259.7	48537.1
806.7965	340.9008	49492.65	48768.25
806.9397	343.1003	49475.15	48748.3
807.0829	345.2992	49704.3	48975
807.2261	347.4976	49361.1	48630.65
807.3693	349.6955	49461.5	48728.85
807.5126	351.8927	49359.75	48624.35
807.6559	354.0895	49439.1	48694.35
807.7991	356.2856	49428.5	48691.95
807.9424	358.4812	49659.35	48921.95
808.0857	360.6763	49373.95	48636.25
808.2291	362.8707	49366.75	48626.5
808.3724	365.0646	49342.5	48597.45
808.5158	367.258	49359.5	48617.2
808.6591	369.4508	49146.4	48397.45
808.8025	371.643	49377.05	48629.95
808.9459	373.8346	49267.05	48517.95
809.0893	376.0257	49147.45	48393.6
809.2327	378.2162	49077.5	48325.05
809.3762	380.4062	49010.7	48254.9
809.5196	382.5956	48973.7	48223.3
809.6631	384.7844	49064.9	48317.3
809.8066	386.9726	48957.35	48212.8
809.9501	389.1603	49096	48354.85
810.0936	391.3474	48737.65	47943.35
810.2371	393.5339	49039.35	48294.4
810.3806	395.7199	48571.5	47826.6
810.5241	397.9052	48580.8	47835.75
810.6677	400.09	48672.1	47924.3
810.8113	402.2743	48688.95	47939.95
810.9548	404.4579	48706.8	47960.35
811.0984	406.641	48573.25	47820.7
811.2421	408.8235	48792.35	48040.15
811.3857	411.0054	48665.25	47910.05
811.5293	413.1868	48759.7	48000.15
811.673	415.3675	48816.95	48054.15
811.8166	417.5477	48810.8	48045.25
811.9603	419.7273	48650.95	47883.55
812.104	421.9064	48485.9	47713.4
812.2477	424.0848	48532	47762.45
812.3914	426.2627	48461.85	47694.15
812.5351	428.4399	48216.65	47447.1
812.6788	430.6166	48094.7	47321.9
812.8226	432.7928	48025.95	47250.9
812.9663	434.9683	47824.6	47050.9
813.1101	437.1432	47819.95	47043.3
813.2539	439.3176	47734.6	46962.95
813.3977	441.4914	47483.5	46709.95
813.5415	443.6645	47500	46725.55
813.6853	445.8371	47366.9	46588.2
813.8291	448.0091	47140.05	46364.3
813.973	450.1806	47122.5	46342.9
814.1168	452.3514	46996.6	46216.6
814.2607	454.5216	46957.75	46170.2
814.4046	456.6913	46760.5	45976.9
814.5485	458.8603	46797.9	46017.45
814.6924	461.0288	46761.95	45982.65
814.8363	463.1967	46716.6	45937.6
814.9802	465.3639	46804.75	46022.45
815.1241	467.5306	46595.4	45812.05
815.2681	469.6967	46517.1	45733.05
815.412	471.8622	46429.45	45649
815.556	474.0271	46395.9	45613.2
815.7	476.1914	46381.45	45596.45
815.844	478.3551	46347.8	45561.4
815.988	480.5182	46476.9	45691.9
816.132	482.6807	46393.65	45606.85
816.276	484.8426	46411	45624.2
816.4201	487.0039	46541.5	45754.2
816.5641	489.1647	46555.85	45768.6
816.7082	491.3248	46479.45	45691.25
816.8522	493.4843	46499.85	45709.5
816.9963	495.6432	46506.9	45719.65
817.1404	497.8015	46306.8	45512.5
817.2845	499.9592	46388.8	45594.65
817.4286	502.1163	46276.8	45482.9
817.5727	504.2728	46212.75	45415.7
817.7168	506.4287	46274.6	45481.65
817.861	508.5839	46095.7	45300.45
818.0051	510.7386	46156.05	45360.65
818.1493	512.8927	46131.75	45327.7
818.2935	515.0461	46114.7	45318.95
818.4377	517.199	46073.8	45275.2
818.5818	519.3512	46061.85	45263.15
818.726	521.5029	46054.05	45247.75
818.8703	523.6539	46075.5	45273.85
819.0145	525.8043	45999.7	45197.3
819.1587	527.9541	45967.55	45164.25
819.303	530.1033	45781.45	44978.6
819.4472	532.2519	45733.15	44931.8
819.5915	534.3999	45712.2	44904.8
819.7357	536.5472	45735.05	44932.1
819.88	538.694	45647.6	44843.35
820.0243	540.8401	45712.1	44908.5
820.1686	542.9856	45672.1	44865.45
820.3129	545.1305	45639.9	44832.2
820.4572	547.2748	45712.7	44905.6
820.6016	549.4185	45647.5	44838
820.7459	551.5615	45583.3	44775.15
820.8902	553.704	45541.6	44733.45
821.0346	555.8458	45402.35	44594.05
821.1789	557.987	45446.05	44639.75
821.3233	560.1276	45394	44585.95
821.4677	562.2675	45430.1	44621.15
821.6121	564.4069	45428.3	44619.8
821.7565	566.5456	45380.95	44573.1
821.9009	568.6837	45304.6	44493.75
822.0453	570.8212	45101.8	44292.6
822.1897	572.958	45018.85	44207.25
822.3342	575.0942	44884.45	44074.25
822.4786	577.2299	44731.3	43918.6
822.6231	579.3648	44612.05	43801.8
822.7675	581.4992	44470.35	43658.15
822.912	583.6329	44318.2	43506.8
823.0565	585.766	44228.55	43415.4
823.201	587.8985	44205.6	43393.2
823.3454	590.0304	44081.6	43255.9
823.4899	592.1616	44077	43258.75
823.6345	594.2922	43984.4	43166.65
823.779	596.4222	43861	43042.75
823.9235	598.5515	43784.7	42965.15
824.068	600.6802	43648.25	42830.55
824.2126	602.8083	43441.45	42622.6
824.3571	604.9358	43408.1	42590.15
824.5017	607.0626	43309.5	42488.4
824.6462	609.1888	43257.55	42435.2
824.7908	611.3144	43279.4	42458.25
824.9354	613.4393	43157.1	42338.65
825.08	615.5636	43114.3	42290.05
825.2246	617.6873	43120.5	42298
825.3692	619.8103	43217.8	42396
825.5138	621.9327	43088.85	42264.55
825.6584	624.0544	43072.2	42250.25
825.803	626.1756	43031.5	42209.1
825.9477	628.2961	42922.35	42097.85
826.0923	630.4159	42822.3	41997.8
826.237	632.5351	42775.95	41951.35
826.3816	634.6537	42745.9	41919.35
826.5263	636.7716	42642.75	41814.5
826.6709	638.8889	42663.35	41836.55
826.8156	641.0056	42692.7	41865.9
826.9603	643.1216	42602.25	41776.35
827.105	645.237	42688.6	41857.7
827.2497	647.3518	42454	41623.55
827.3944	649.4659	42551.75	41723
827.5391	651.5793	42405.4	41577.65
827.6838	653.6922	42334	41506.55
827.8285	655.8043	42309.35	41480.45
827.9733	657.9159	42268.75	41439.85
828.118	660.0268	42140.7	41309.3
828.2627	662.137	41996.7	41164.9
828.4075	664.2466	42078.9	41245.45
828.5522	666.3556	41999.45	41167.35
828.697	668.4639	41874.2	41038.6
828.8418	670.5716	41940.35	41111
828.9865	672.6786	41884.9	41052.8
829.1313	674.785	41724.05	40887.85
829.2761	676.8907	41578.35	40744.5
829.4209	678.9958	41572.25	40739.7
829.5657	681.1002	41412.4	40576.05
829.7105	683.204	41363.15	40522.95
829.8553	685.3072	41328.05	40489.4
830.0001	687.4097	41197.8	40363.8
830.1449	689.5115	41235.6	40398.5
830.2898	691.6127	41277.35	40441.9
830.4346	693.7132	41136.55	40297.75
830.5794	695.8131	41153.35	40296.9
830.7243	697.9123	41176.15	40339.05
830.8691	700.0109	41070.45	40235.25
831.014	702.1089	41041.85	40206.45
831.1588	704.2061	40935.2	40099.25
831.3037	706.3028	40953.65	40112.85
831.4486	708.3987	40956.1	40117.2
831.5935	710.4941	40848.1	40008.35
831.7383	712.5887	40793.05	39952.6
831.8832	714.6827	40806.2	39962.2
832.0281	716.7761	40735.05	39896.35
832.173	718.8688	40709.4	39866.35
832.3179	720.9608	40571.5	39727.55
832.4628	723.0522	40653.55	39806.45
832.6077	725.1429	40494.25	39651.65
832.7527	727.233	40469.45	39625.85
832.8976	729.3224	40516.5	39674.75
833.0425	731.4112	40416	39572.75
833.1874	733.4993	40336.55	39489.05
833.3324	735.5867	40206.1	39359.3
833.4773	737.6735	40181.3	39336.15
833.6222	739.7596	40046.85	39199.55
833.7672	741.845	39990.25	39145.1
833.9122	743.9298	39892.65	39044.85
834.0571	746.014	39754.8	38908.9
834.2021	748.0974	39792.2	38945.35
834.347	750.1802	39659.35	38812.25
834.492	752.2624	39547.55	38700.65
834.637	754.3439	39339.8	38491.7
834.782	756.4247	39249.05	38391.35
834.9269	758.5048	39133.95	38287.6
835.0719	760.5843	39026.35	38176.7
835.2169	762.6631	38954.9	38106.1
835.3619	764.7413	38916.25	38067.55
835.5069	766.8188	38949.7	38101.95
835.6519	768.8956	38801	37950.05
835.7969	770.9718	38901.1	38051.95
835.9419	773.0473	38640.4	37792.75
836.0869	775.1221	38642.25	37795.25
836.232	777.1962	38510.1	37658.9
836.377	779.2697	38484.25	37632.65
836.522	781.3426	38454.6	37593.5
836.667	783.4147	38351	37499.25
836.8121	785.4862	38362.4	37513.45
836.9571	787.557	38179.3	37327.55
837.1021	789.6271	38103.3	37251.35
837.2472	791.6966	37922.35	37072.6
837.3922	793.7654	37750.05	36898.45
837.5373	795.8335	37745.5	36894.9
837.6823	797.901	37596.3	36745.75
837.8274	799.9678	37499.95	36646
837.9724	802.0339	37441.75	36590.6
838.1175	804.0993	37450	36588.45
838.2626	806.1641	37302	36447.2
838.4076	808.2282	37255.85	36403.4
838.5527	810.2916	37245.65	36389.65
838.6978	812.3544	37174.85	36323.55
838.8428	814.4164	37057	36205
838.9879	816.4778	37140.8	36286.55
839.133	818.5385	37002.45	36147.3
839.2781	820.5986	37012.1	36157.6
839.4232	822.658	37048	36192.45
839.5682	824.7166	36880.2	36024.25
839.7133	826.7747	36949.1	36096.3
839.8584	828.832	36929.75	36073.05
840.0035	830.8886	36787.5	35929.7
840.1486	832.9446	36803.45	35945.95
840.2937	834.9999	36635.95	35781.05
840.4388	837.0545	36594.75	35737.05
840.5839	839.1085	36542.05	35685.25
840.729	841.1618	36399.75	35539.65
840.8741	843.2143	36226.6	35369.65
841.0192	845.2662	36053.25	35197.75
841.1643	847.3175	36107.95	35251.3
841.3095	849.368	35954.35	35097.05
841.4546	851.4179	35957.7	35100.7
841.5997	853.467	35777	34919.8
841.7448	855.5155	35778.65	34920.3
841.8899	857.5633	35670.95	34813.25
842.0351	859.6105	35569.1	34711.65
842.1802	861.6569	35545.1	34685.5
842.3253	863.7027	35460.25	34601.35
842.4704	865.7478	35475.55	34616.6
842.6156	867.7922	35390	34532.25
842.7607	869.8359	35299.6	34440.85
842.9058	871.8789	35256.6	34395.85
843.0509	873.9212	35259.5	34366.2
843.1961	875.9629	35070.55	34211.35
843.3412	878.0039	35108.5	34248.7
843.4863	880.0441	35061.4	34202.3
843.6315	882.0837	35021.45	34161.3
843.7766	884.1226	34948.25	34087.1
843.9218	886.1609	34929	34069.4
844.0669	888.1984	34986.9	34126.3
844.212	890.2352	35071.15	34210.95
844.3572	892.2714	34951.8	34087.65
844.5023	894.3069	34915.45	34051.4
844.6475	896.3416	34719.15	33856.75
844.7926	898.3757	34686.95	33824.85
844.9377	900.4091	34667.45	33804.7
845.0829	902.4418	34595.45	33728.55
845.228	904.4739	34495.1	33631.85
845.3732	906.5052	34474.65	33612.45
845.5183	908.5358	34385.25	33522.75
845.6635	910.5658	34250.55	33387.4
845.8086	912.595	34201.45	33340.05
845.9538	914.6236	34084	33221.4
846.0989	916.6515	34053.2	33191.3
846.2441	918.6786	33920.65	33056.4
846.3892	920.7051	33894.25	33027.4
846.5344	922.7309	33891.75	33027.85
846.6795	924.756	33736.3	32871.95
846.8246	926.7804	33725.9	32860.15
846.9698	928.8041	33517.85	32647.65
847.1149	930.8272	33534.55	32670.35
847.2601	932.8495	33325.7	32460.85
847.4052	934.8711	33386.6	32522.2
847.5504	936.892	33197.7	32332.35
847.6955	938.9123	33096.2	32230.65
847.8407	940.9318	33045.5	32181.4
847.9858	942.9506	32940.8	32074.5
848.131	944.9688	32854.15	31989.65
848.2761	946.9862	32768.85	31903.55
848.4213	949.003	32574.2	31707.45
848.5664	951.019	32537.7	31671.7
848.7115	953.0344	32418.5	31553.75
848.8567	955.0491	32334.5	31466.6
849.0018	957.063	32369.65	31503
849.147	959.0763	32350.75	31484.85
849.2921	961.0888	32184.7	31316.45
849.4373	963.1007	32184.3	31317
849.5824	965.1119	32171.65	31305.65
849.7275	967.1223	32033.8	31167.65
849.8727	969.1321	32015.95	31149.45
850.0178	971.1412	31975.55	31109.3
850.1629	973.1495	31836.95	30970.35
850.3081	975.1572	31834.1	30921.05
850.4532	977.1641	31826.85	30959.55
850.5983	979.1704	31721.95	30853.2
850.7435	981.1759	31634.35	30762.8
850.8886	983.1808	31570.35	30700.6
851.0337	985.1849	31477.55	30603.55
851.1788	987.1884	31377.95	30507.8
851.324	989.1911	31347.05	30475.4
851.4691	991.1932	31237.4	30365.55
851.6142	993.1945	31128.15	30261.1
851.7593	995.1951	30956.6	30088.2
851.9045	997.1951	30975.95	30103.6
852.0496	999.1943	30800.05	29932.05
852.1947	1001.1928	30724.9	29853.75
852.3398	1003.1906	30572.3	29703.2
852.4849	1005.1877	30567.75	29695.8
852.63	1007.1841	30418.1	29547.55
852.7751	1009.1798	30374.95	29506.6
852.9202	1011.1748	30250.65	29379.05
853.0653	1013.1691	30173.8	29302.55
853.2104	1015.1627	30021.5	29151.15
853.3555	1017.1556	29769.3	28899.85
853.5006	1019.1477	29725.4	28853.65
853.6457	1021.1392	29539	28670.95
853.7908	1023.1299	29494.7	28625.85
853.9359	1025.12	29363.35	28491.3
854.081	1027.1093	29197.5	28329
854.2261	1029.0979	29171.95	28304
854.3712	1031.0859	29028.85	28160.5
854.5163	1033.0731	28974.6	28104.55
854.6613	1035.0596	28892.75	28024.8
854.8064	1037.0454	28682.9	27810.65
854.9515	1039.0304	28660.35	27790.3
855.0965	1041.0148	28509.6	27638.9
855.2416	1042.9985	28449.4	27575.65
855.3867	1044.9814	28384.2	27514.9
855.5317	1046.9636	28253.3	27379.75
855.6768	1048.9452	28147.8	27280.25
855.8219	1050.926	28120.25	27248.3
855.9669	1052.9061	28048.95	27178
856.112	1054.8855	27955.7	27085.25
856.257	1056.8642	27961.4	27089.25
856.4021	1058.8421	27909.85	27032.95
856.5471	1060.8194	27791.1	26917.85
856.6921	1062.7959	27739.15	26866.85
856.8372	1064.7717	27681.1	26809.85
856.9822	1066.7469	27632.05	26759.55
857.1272	1068.7213	27572	26697.35
857.2723	1070.695	27471	26599.15
857.4173	1072.6679	27384.55	26513.05
857.5623	1074.6402	27394.2	26522.5
857.7073	1076.6117	27349.4	26472.45
857.8523	1078.5826	27352.8	26479
857.9973	1080.5527	27237.75	26360.95
858.1423	1082.5221	27130.45	26258.95
858.2873	1084.4908	27050.45	26177.6
858.4323	1086.4587	26965.5	26090.15
858.5773	1088.426	26924.8	26054.35
858.7223	1090.3925	26780.85	25901.4
858.8673	1092.3584	26782.5	25911.1
859.0123	1094.3235	26627	25755.95
859.1573	1096.2879	26604.6	25728.65
859.3022	1098.2515	26537.6	25662.75
859.4472	1100.2145	26574.45	25702.55
859.5922	1102.1767	26493.85	25617.7
859.7371	1104.1382	26423.35	25548.95
859.8821	1106.099	26412.3	25534.75
860.027	1108.0591	26339.35	25466.6
860.172	1110.0185	26300.75	25425.15
860.3169	1111.9771	26330.85	25457.3
860.4619	1113.9351	26231.65	25356.25
860.6068	1115.8923	26170.15	25295.35
860.7517	1117.8488	26144.9	25270.5
860.8967	1119.8045	26029.9	25155.4
861.0416	1121.7596	25924.8	25046.95
861.1865	1123.7139	25741.8	24869.1
861.3314	1125.6675	25627.5	24754.1
861.4763	1127.6204	25691.45	24818
861.6212	1129.5726	25577.75	24701.15
861.7661	1131.524	25545.9	24672
861.911	1133.4748	25518.85	24643.55
862.0559	1135.4248	25392.7	24518
862.2008	1137.3741	25315.65	24440.7
862.3457	1139.3226	25218.3	24340.7
862.4905	1141.2705	25232.2	24356.7
862.6354	1143.2176	25057.6	24176.85
862.7803	1145.164	25065.05	24190.25
862.9251	1147.1097	25014.05	24138.55
863.07	1149.0546	24963.9	24087
863.2148	1150.9989	24957.6	24081.5
863.3597	1152.9424	24904.25	24029.05
863.5045	1154.8852	24803.65	23928
863.6493	1156.8272	24797.7	23921.95
863.7942	1158.7686	24735.85	23852.9
863.939	1160.7092	24684.3	23807.45
864.0838	1162.6491	24611.6	23730.45
864.2286	1164.5883	24578.2	23701.35
864.3734	1166.5267	24526.05	23649.05
864.5182	1168.4644	24534.05	23661.9
864.663	1170.4014	24497.3	23615.3
864.8078	1172.3377	24567.6	23692.75
864.9526	1174.2732	24535.95	23661.2
865.0974	1176.2081	24569.95	23693.25
865.2421	1178.1421	24576.9	23697.35
865.3869	1180.0755	24624.6	23749.55
865.5317	1182.0082	24575.85	23698.95
865.6764	1183.9401	24552.1	23674.35
865.8212	1185.8713	24406	23528.9
865.9659	1187.8017	24274.85	23398.5
866.1106	1189.7315	24187.15	23311.95
866.2554	1191.6605	23996.8	23119.15
866.4001	1193.5888	23832.05	22957.7
866.5448	1195.5163	23798.6	22923.35
866.6895	1197.4432	23705.35	22826.85
866.8342	1199.3693	23621.3	22744.25
866.9789	1201.2947	23486.05	22605.9
867.1236	1203.2193	23405.7	22529.45
867.2683	1205.1432	23390.45	22511.45
867.413	1207.0664	23306.45	22426.6
867.5576	1208.9889	23240.95	22360.75
867.7023	1210.9106	23103.15	22225.8
867.847	1212.8316	23039.65	22162.95
867.9916	1214.7519	23018.75	22129.65
868.1363	1216.6715	22949.7	22071.4
868.2809	1218.5903	22913.9	22035.65
868.4255	1220.5084	22867.05	21989.4
868.5701	1222.4257	22853.85	21974.85
868.7148	1224.3424	22765.05	21887.7
868.8594	1226.2583	22728.45	21842.8
869.004	1228.1735	22691.8	21814.2
869.1486	1230.0879	22600.75	21722.4
869.2932	1232.0016	22583.65	21705.75
869.4377	1233.9146	22532.95	21652.85
869.5823	1235.8269	22499.4	21620.95
869.7269	1237.7384	22499.65	21621.1
869.8715	1239.6492	22366.55	21490.45
870.016	1241.5592	22380.15	21498.45
870.1606	1243.4686	22334.75	21456.85
870.3051	1245.3772	22336.35	21458.8
870.4496	1247.285	22320	21440.85
870.5941	1249.1922	22326.25	21448.6
870.7387	1251.0986	22345.85	21467.2
870.8832	1253.0042	22282.6	21406
871.0277	1254.9092	22344.8	21464.95
871.1722	1256.8134	22347.85	21470.2
871.3167	1258.7169	22440.55	21561.85
871.4611	1260.6196	22427.6	21547.6
871.6056	1262.5216	22428.95	21547.4
871.7501	1264.4229	22320.4	21441
871.8945	1266.3234	22345.45	21465.3
872.039	1268.2232	22252.9	21372.3
872.1834	1270.1223	22190.9	21310
872.3278	1272.0207	22074.65	21195
872.4723	1273.9183	22047.5	21162.7
872.6167	1275.8151	21976.95	21099
872.7611	1277.7113	22015.7	21136.65
872.9055	1279.6067	21969.1	21088
873.0499	1281.5014	22032.95	21152.45
873.1943	1283.3953	22091.8	21209.65
873.3386	1285.2885	22288.95	21410
873.483	1287.181	22395.75	21514.8
873.6274	1289.0727	22434.7	21555.85
873.7717	1290.9637	22360.9	21479.75
873.9161	1292.854	22263.25	21382.3
874.0604	1294.7435	22073.45	21193
874.2047	1296.6323	21979.6	21099.45
874.349	1298.5204	21841.65	20956.55
874.4933	1300.4077	21789.65	20909.7
874.6376	1302.2943	21704.45	20824.4
874.7819	1304.1802	21716.05	20835.95
874.9262	1306.0653	21632.8	20750.9
875.0705	1307.9497	21563.45	20683.2
875.2147	1309.8333	21508.75	20628.05
875.359	1311.7162	21498.5	20618.1
875.5032	1313.5984	21478.7	20595.2
875.6475	1315.4798	21355.8	20465.55
875.7917	1317.3605	21350.5	20466.4
875.9359	1319.2405	21360.75	20477
876.0801	1321.1197	21306.3	20423.5
876.2243	1322.9982	21219.25	20332.5
876.3685	1324.876	21214.15	20333.55
876.5127	1326.753	21103.4	20222.45
876.6569	1328.6293	21034.2	20151.75
876.801	1330.5048	20912.5	20031.2
876.9452	1332.3796	20792.85	19912.35
877.0893	1334.2537	20775.85	19868.35
877.2335	1336.127	20683.2	19802
877.3776	1337.9996	20637.95	19758.1
877.5217	1339.8714	20600.6	19720.05
877.6658	1341.7426	20553.95	19627.6
877.8099	1343.6129	20448.85	19567.95
877.954	1345.4826	20402.2	19521.55
878.0981	1347.3515	20391.9	19507.3
878.2422	1349.2196	20336.9	19456.2
878.3862	1351.087	20347.75	19466.4
878.5303	1352.9537	20316.35	19435.9
878.6743	1354.8197	20288.25	19408.35
878.8184	1356.6849	20280.9	19399.8
878.9624	1358.5493	20223.4	19342.6
879.1064	1360.4131	20204.2	19323.35
879.2504	1362.276	20210.3	19329.5
879.3944	1364.1383	20164.95	19286.9
879.5384	1365.9998	20126.55	19239.8
879.6823	1367.8606	20062.35	19182.05
879.8263	1369.7206	20047.25	19165.25
879.9702	1371.5799	19984.2	19100.5
880.1142	1373.4384	19918.95	19037.75
880.2581	1375.2962	19951.05	19068.1
880.402	1377.1533	19765.1	18884.1
880.5459	1379.0096	19676.8	18794.4
880.6898	1380.8652	19637.6	18756.2
880.8337	1382.7201	19555.4	18674.05
880.9776	1384.5742	19429.15	18546.35
881.1215	1386.4275	19334.95	18452.5
881.2653	1388.2802	19243.75	18363
881.4092	1390.132	19177	18297.75
881.553	1391.9832	19141.85	18259.3
881.6968	1393.8336	19043.9	18163.9
881.8406	1395.6832	18994.35	18111.95
881.9844	1397.5322	18907.95	18028.6
882.1282	1399.3803	18888.85	17998.75
882.272	1401.2278	18793.95	17911.8
882.4158	1403.0745	18742.95	17860.95
882.5595	1404.9204	18633.2	17754.4
882.7033	1406.7656	18604.8	17721
882.847	1408.6101	18519.1	17637.8
882.9908	1410.4538	18469.05	17587.35
883.1345	1412.2968	18418.25	17537.25
883.2782	1414.139	18400.35	17520.55
883.4219	1415.9805	18368.7	17487.05
883.5656	1417.8213	18292.45	17389.8
883.7092	1419.6613	18242.35	17361.4
883.8529	1421.5006	18211.45	17328.45
883.9965	1423.3391	18182.2	17300.2
884.1402	1425.1769	18100.7	17217.2
884.2838	1427.0139	18144.3	17259.1
884.4274	1428.8502	18213.4	17327.6
884.571	1430.6858	18202.65	17320.65
884.7146	1432.5206	18176.65	17294.7
884.8582	1434.3547	18156.75	17274.45
885.0018	1436.188	18093.25	17212.25
885.1453	1438.0206	18094.6	17211.6
885.2889	1439.8524	17997	17114.6
885.4324	1441.6835	17990.5	17107.7
885.5759	1443.5139	17935.8	17051.2
885.7194	1445.3435	17903	17019.8
885.8629	1447.1724	17869.45	16987.95
886.0064	1449.0005	17865.25	16984.45
886.1499	1450.8279	17799.2	16914.55
886.2933	1452.6545	17789.1	16908.05
886.4368	1454.4804	17766.15	16884.4
886.5802	1456.3056	17732.5	16843
886.7237	1458.13	17669.35	16786.05
886.8671	1459.9536	17664.9	16781.25
887.0105	1461.7766	17630.55	16748.25
887.1539	1463.5987	17548.6	16666.6
887.2972	1465.4202	17467.1	16585.05
887.4406	1467.2409	17382.2	16499.55
887.584	1469.0608	17400.4	16518.75
887.7273	1470.88	17322.9	16439.1
887.8706	1472.6984	17248.5	16367.25
888.0139	1474.5161	17174.9	16290.3
888.1572	1476.3331	17114	16235.8
888.3005	1478.1493	17082.5	16198.8
888.4438	1479.9648	17097.3	16214.2
888.5871	1481.7795	17057.35	16176.95
888.7303	1483.5935	17002.15	16120.3
888.8736	1485.4067	16970.6	16088.8
889.0168	1487.2192	16968.8	16085.95
889.16	1489.031	16907	16022.85
889.3032	1490.842	16881.85	16001.85
889.4464	1492.6522	16882.1	15999.6
889.5896	1494.4618	16857.15	15972.75
889.7327	1496.2705	16773.95	15891.7
889.8759	1498.0785	16775.15	15891.1
890.019	1499.8858	16717.4	15836.3
890.1622	1501.6924	16663.75	15780.25
890.3053	1503.4981	16638.3	15756.75
890.4484	1505.3032	16591.85	15707.5
890.5914	1507.1075	16560.2	15677.95
890.7345	1508.911	16534.4	15651.9
890.8776	1510.7138	16456.95	15572.2
891.0206	1512.5159	16403.6	15520.35
891.1637	1514.3172	16385.95	15503.25
891.3067	1516.1178	16334.65	15455.5
891.4497	1517.9176	16296.05	15411.3
891.5927	1519.7166	16202.8	15322.3
891.7357	1521.515	16180.95	15290.05
891.8786	1523.3126	16131.75	15248.3
892.0216	1525.1094	16123.85	15239
892.1645	1526.9055	16021.7	15139.8
892.3074	1528.7008	15946.45	15065.35
892.4503	1530.4954	15848.2	14959.8
892.5932	1532.2893	15804.75	14923.8
892.7361	1534.0824	15749.85	14863.05
892.879	1535.8747	15738.8	14855.7
893.0218	1537.6663	15698.15	14814.1
893.1647	1539.4572	15635.25	14751.5
893.3075	1541.2473	15601.3	14717.7
893.4503	1543.0367	15537.4	14657.15
893.5931	1544.8253	15468.6	14579.35
893.7359	1546.6132	15464.2	14578.55
893.8787	1548.4003	15392.35	14500.8
894.0214	1550.1867	15367.7	14473.95
894.1642	1551.9723	15340.2	14451.4
894.3069	1553.7572	15270.05	14383.25
894.4496	1555.5414	15219.6	14336.75
894.5923	1557.3247	15209.5	14326.85
894.735	1559.1074	15188.2	14306.15
894.8777	1560.8893	15159.85	14277.9
895.0204	1562.6705	15146.95	14267.4
895.163	1564.4509	15115.45	14233.2
895.3056	1566.2305	15039.1	14158.5
895.4482	1568.0094	15086.25	14206.9
895.5908	1569.7876	15023.5	14140.1
895.7334	1571.565	15009.8	14128.45
895.876	1573.3417	14987.85	14109.1
896.0186	1575.1176	14962.35	14082.15
896.1611	1576.8928	14909	14025
896.3036	1578.6672	14865.6	13986.15
896.4461	1580.4409	14814.05	13934.3
896.5886	1582.2138	14806.25	13922.05
896.7311	1583.986	14774.35	13892.95
896.8736	1585.7575	14795.7	13914.2
897.0161	1587.5282	14745.75	13866.1
897.1585	1589.2981	14736.15	13856.45
897.3009	1591.0673	14695.95	13812.1
897.4433	1592.8358	14704.4	13826
897.5857	1594.6035	14657.35	13773.65
897.7281	1596.3704	14577.4	13693.85
897.8705	1598.1366	14492.95	13611.25
898.0128	1599.9021	14420.3	13538.75
898.1551	1601.6668	14350.6	13467.05
898.2975	1603.4308	14257.1	13374
898.4398	1605.194	14227.9	13343.35
898.5821	1606.9564	14213.7	13333.55
898.7243	1608.7182	14205.75	13320.95
898.8666	1610.4791	14192.45	13311.6
899.0088	1612.2394	14254.55	13374.05
899.1511	1613.9988	14300.15	13419.95
899.2933	1615.7576	14308.6	13428.05
899.4355	1617.5156	14325.3	13436.15
899.5776	1619.2728	14291.05	13409.85
899.7198	1621.0293	14218.7	13335.15
899.862	1622.785	14083.6	13198.75
900.0041	1624.54	13913.8	13028.7
900.1462	1626.2942	13794.2	12911.7
900.2883	1628.0477	13642.9	12757.2
900.4304	1629.8005	13543.2	12657.35
900.5725	1631.5525	13448.5	12566.9
900.7145	1633.3037	13366.55	12484
900.8566	1635.0542	13299.5	12415.7
900.9986	1636.804	13239.8	12358.15
901.1406	1638.553	13251.85	12282.5
901.2826	1640.3013	13117.2	12237.55
901.4245	1642.0488	13028.3	12144.5
901.5665	1643.7955	13020.5	12138.5
901.7085	1645.5416	12960.55	12079.05
901.8504	1647.2868	12922.75	12042.15
901.9923	1649.0313	12854.15	11971.8
902.1342	1650.7751	12852.45	11970.75
902.2761	1652.5181	12807.95	11926.55
902.4179	1654.2604	12750	11868.8
902.5598	1656.0019	12710.3	11829.75
902.7016	1657.7427	12663.5	11781.45
902.8434	1659.4828	12670	11788.75
902.9852	1661.222	12652.35	11769.3
903.127	1662.9606	12631.55	11749.55
903.2687	1664.6984	12645.15	11762.95
903.4105	1666.4354	12612.65	11729.2
903.5522	1668.1717	12558.95	11676.6
903.6939	1669.9072	12464.55	11581.4
903.8356	1671.642	12406.75	11522.9
903.9773	1673.3761	12340.9	11458.6
904.119	1675.1094	12280.8	11399.35
904.2606	1676.8419	12231.8	11349.25
904.4022	1678.5737	12122.15	11241.75
904.5439	1680.3048	12092.25	11211
904.6855	1682.0351	12039.9	11158.2
904.827	1683.7646	11980.3	11094.5
904.9686	1685.4934	11930.15	11049.3
905.1101	1687.2215	11892.85	11009.5
905.2517	1688.9488	11806.75	10924.2
905.3932	1690.6754	11759.9	10880.55
905.5347	1692.4012	11742.95	10861.3
905.6761	1694.1263	11709.1	10828.2
905.8176	1695.8506	11649.95	10766.8
905.9591	1697.5742	11615.25	10732.05
906.1005	1699.297	11578.7	10695.95
906.2419	1701.0191	11513.9	10630.85
906.3833	1702.7404	11467.35	10587.7
906.5246	1704.461	11406.65	10523.2
906.666	1706.1808	11391.05	10509.55
906.8073	1707.8999	11334.8	10451.8
906.9487	1709.6182	11331.15	10448
907.09	1711.3358	11256.65	10375.45
907.2313	1713.0527	11199.4	10317.7
907.3725	1714.7688	11169.95	10281.65
907.5138	1716.4841	11135.85	10251.9
907.655	1718.1987	11135.2	10250.1
907.7962	1719.9126	11098.85	10217.4
907.9374	1721.6257	11039.15	10155.5
908.0786	1723.338	11038.7	10157.05
908.2198	1725.0496	10987.75	10104.65
908.3609	1726.7605	10952.05	10070.95
908.502	1728.4706	10919.7	10038.55
908.6431	1730.18	10888.4	10006
908.7842	1731.8886	10848.4	9966
908.9253	1733.5964	10850.1	9947.1
909.0664	1735.3036	10833.6	9949.05
909.2074	1737.0099	10804.7	9921.25
909.3484	1738.7156	10794.1	9915.15
909.4894	1740.4204	10745.6	9860.15
909.6304	1742.1246	10743.45	9862.05
909.7714	1743.8279	10721.25	9837.95
909.9123	1745.5306	10688.45	9807.1
910.0532	1747.2325	10663.15	9780.75
910.1941	1748.9336	10625.85	9745.1
910.335	1750.634	10609	9726.3
910.4759	1752.3336	10588.65	9707.95
910.6168	1754.0325	10562.3	9680.85
910.7576	1755.7307	10554.3	9673
910.8984	1757.4281	10538.15	9656.75
911.0392	1759.1247	10518.85	9630.9
911.18	1760.8206	10492.55	9606.1
911.3208	1762.5158	10486.35	9602.1
911.4615	1764.2102	10466.55	9583.9
911.6022	1765.9039	10416.15	9533.95
911.7429	1767.5968	10397.15	9515
911.8836	1769.289	10365.6	9482.9
912.0243	1770.9804	10341.75	9457.25
912.1649	1772.6711	10351.3	9468.55
912.3056	1774.361	10324.75	9443.8
912.4462	1776.0502	10288.4	9407.55
912.5868	1777.7386	10281.6	9397.15
912.7274	1779.4263	10226.9	9345.3
912.8679	1781.1132	10234.25	9351.1
913.0084	1782.7994	10199.1	9317.95
913.149	1784.4849	10168.8	9287.35
913.2895	1786.1696	10181.55	9282.2
913.4299	1787.8535	10100.15	9219.55
913.5704	1789.5367	10065.45	9184.3
913.7108	1791.2192	10080.4	9199.05
913.8513	1792.9009	10049.9	9152.1
913.9917	1794.5818	10029.8	9148.4
914.132	1796.2621	9981.1	9100.25
914.2724	1797.9415	9972.7	9090.75
914.4128	1799.6202	9955.9	9073.4
914.5531	1801.2982	9921.65	9039.6
914.6934	1802.9755	9910.45	9028
914.8337	1804.6519	9890.4	9007.65
914.9739	1806.3277	9835.4	8953.9
915.1142	1808.0027	9790.15	8909.7
915.2544	1809.6769	9786.4	8905.2
915.3946	1811.3504	9760.6	8878.7
915.5348	1813.0231	9747.7	8863.7
915.675	1814.6951	9713.75	8832.55
915.8151	1816.3664	9733.8	8850.7
915.9553	1818.0369	9691.05	8809.4
916.0954	1819.7067	9661.35	8779.65
916.2355	1821.3757	9637.7	8754.5
916.3755	1823.044	9627.75	8745.75
916.5156	1824.7115	9594.25	8711.6
916.6556	1826.3783	9581.3	8700.8
916.7956	1828.0443	9557.5	8676.95
916.9356	1829.7096	9523.45	8641.35
917.0756	1831.3741	9518.9	8634.95
917.2155	1833.0379	9501.85	8620.6
917.3555	1834.701	9478.15	8596.6
917.4954	1836.3633	9450.7	8567.85
917.6353	1838.0248	9429.1	8546.35
917.7751	1839.6856	9427.05	8545.15
917.915	1841.3457	9407.8	8528.6
918.0548	1843.005	9378.2	8497.25
918.1946	1844.6636	9375.75	8494.25
918.3344	1846.3214	9319.5	8435.7
918.4742	1847.9785	9303.8	8423.45
918.6139	1849.6349	9288.75	8404.8
918.7537	1851.2904	9266.5	8376.35
918.8934	1852.9453	9237.9	8356.05
919.0331	1854.5994	9200.05	8315.5
919.1727	1856.2528	9207.35	8323.95
919.3124	1857.9054	9183.95	8301.6
919.452	1859.5572	9181.8	8300.75
919.5916	1861.2083	9155.75	8272.7
919.7312	1862.8587	9126.9	8245.6
919.8708	1864.5084	9106.15	8221.35
920.0103	1866.1572	9079.9	8197.9
920.1498	1867.8054	9047.45	8164
920.2893	1869.4528	9016.15	8134.55
920.4288	1871.0994	9028.1	8146.2
920.5683	1872.7453	9017.85	8134.4
920.7077	1874.3905	8996.55	8107.25
920.8471	1876.0349	8968.2	8085.35
920.9865	1877.6786	8957.85	8073
921.1259	1879.3215	8917.95	8034.5
921.2653	1880.9637	8938.35	8054.05
921.4046	1882.6051	8903.55	8021
921.5439	1884.2458	8885.2	7999.6
921.6832	1885.8858	8818.3	7935.25
921.8225	1887.525	8822.6	7939.6
921.9617	1889.1634	8794.55	7913.55
922.101	1890.8011	8775.9	7893.05
922.2402	1892.4381	8758.65	7876.25
922.3794	1894.0743	8746.8	7865.8
922.5185	1895.7098	8714.55	7832.95
922.6577	1897.3446	8710.55	7827.85
922.7968	1898.9786	8678.55	7790.5
922.9359	1900.6118	8671.85	7789.7
923.075	1902.2443	8655.4	7771.9
923.214	1903.8761	8631.55	7749.6
923.3531	1905.5071	8576.95	7692.35
923.4921	1907.1374	8551.95	7669.65
923.6311	1908.7669	8558.65	7676.5
923.77	1910.3957	8523.45	7643.25
923.909	1912.0237	8477.45	7592.65
924.0479	1913.651	8485.45	7602.65
924.1868	1915.2776	8461.35	7581.15
924.3257	1916.9034	8413.3	7531.25
924.4646	1918.5285	8392.8	7511.45
924.6034	1920.1528	8351.35	7469.8
924.7422	1921.7764	8339.1	7456.55
924.881	1923.3992	8298.95	7418.95
925.0198	1925.0213	8246.1	7361.95
925.1586	1926.6427	8204.25	7325.5
925.2973	1928.2633	8358.2	7269.1
925.436	1929.8832	8232.1	7347.55
925.5747	1931.5023	8162.6	7281.6
925.7134	1933.1207	8171.55	7288.2
925.852	1934.7383	8162.65	7281.25
925.9906	1936.3552	8092.15	7211.2
926.1292	1937.9714	8086.6	7204.1
926.2678	1939.5868	8056.35	7175
926.4064	1941.2015	8019.8	7137.85
926.5449	1942.8154	7998.1	7114.65
926.6834	1944.4286	7963.75	7081.8
926.8219	1946.041	7960.4	7055.9
926.9604	1947.6528	7885.45	6997.55
927.0988	1949.2637	7884.6	7002.4
927.2372	1950.8739	7862.05	6977.1
927.3756	1952.4834	7852.45	6969.15
927.514	1954.0921	7836.75	6955.6
927.6523	1955.7001	7814.45	6926.95
927.7907	1957.3074	7795.2	6914.1
927.929	1958.9139	7775.6	6892.9
928.0673	1960.5197	7744.75	6861.55
928.2055	1962.1247	7718.8	6838.15
928.3438	1963.729	7680.7	6800.45
928.482	1965.3325	7687.55	6782
928.6202	1966.9353	7637.7	6756.75
928.7584	1968.5374	7627.85	6745.95
928.8965	1970.1387	7613.2	6730.7
929.0346	1971.7393	7583.4	6701.3
929.1727	1973.3392	7559.35	6676.9
929.3108	1974.9383	7523.25	6644.45
929.4489	1976.5366	7495.9	6615.1
929.5869	1978.1342	7506.7	6624.15
929.7249	1979.7311	7478.35	6597.55
929.8629	1981.3273	7461.7	6579.6
930.0009	1982.9227	7432.35	6548.4
930.1388	1984.5173	7437.85	6558.75
930.2767	1986.1112	7406.35	6524.85
930.4146	1987.7044	7380.05	6499.85
930.5525	1989.2968	7370.5	6487.3
930.6904	1990.8885	7359.55	6475.05
930.8282	1992.4795	7331.4	6450
930.966	1994.0697	7296.55	6416.15
931.1038	1995.6592	7303	6421.55
931.2415	1997.2479	7263.85	6383.3
931.3793	1998.8359	7257.55	6375.7
931.517	2000.4232	7232.25	6351.05
931.6547	2002.0097	7232.4	6352.15
931.7923	2003.5955	7176.95	6295.85
931.93	2005.1805	7176.7	6294
932.0676	2006.7648	7163.4	6283.1
932.2052	2008.3484	7145.65	6265.9
932.3427	2009.9312	7134.1	6251.3
932.4803	2011.5133	7108.15	6228
932.6178	2013.0946	7102.7	6222.55
932.7553	2014.6752	7057.3	6178.3
932.8928	2016.2551	7064.85	6183.4
933.0302	2017.8342	7044.7	6163.2
933.1676	2019.4126	7023.9	6142.35
933.305	2020.9902	6995.55	6116.85
933.4424	2022.5672	6985.5	6103.7
933.5798	2024.1433	6963.65	6077.5
933.7171	2025.7188	6944	6065.6
933.8544	2027.2935	6942.35	6060.55
933.9917	2028.8674	6904.55	6024.05
934.129	2030.4406	6895.65	6015.5
934.2662	2032.0131	6859.65	5979.9
934.4034	2033.5849	6835.3	5950.8
934.5406	2035.1559	6839.75	5960.85
934.6778	2036.7261	6815.1	5934.15
934.8149	2038.2957	6823.35	5944.2
934.952	2039.8645	6814	5935.65
935.0891	2041.4325	6819.45	5933.95
935.2262	2042.9998	6792.7	5912.85
935.3632	2044.5664	6779.45	5895.6
935.5002	2046.1323	6770.35	5889.45
935.6372	2047.6974	6742.75	5864.05
935.7742	2049.2617	6706.6	5825.9
935.9111	2050.8254	6730.85	5827.4
936.048	2052.3883	6716.15	5835.05
936.1849	2053.9504	6685.85	5804.2
936.3218	2055.5118	6677.25	5798.05
936.4586	2057.0725	6636.55	5751.05
936.5955	2058.6325	6650.3	5769.2
936.7323	2060.1917	6630.35	5751
936.869	2061.7502	6627.7	5746.65
937.0058	2063.3079	6611.55	5729.75
937.1425	2064.8649	6584.3	5698.85
937.2792	2066.4212	6564.1	5683
937.4159	2067.9767	6545.8	5664.25
937.5525	2069.5315	6511.7	5632.3
937.6891	2071.0856	6499.2	5618.9
937.8257	2072.6389	6489.35	5607.35
937.9623	2074.1915	6475.75	5597
938.0989	2075.7433	6448.75	5566
938.2354	2077.2945	6439.55	5561.95
938.3719	2078.8448	6409.4	5529.75
938.5084	2080.3945	6407.45	5528.5
938.6448	2081.9434	6399	5517.35
938.7812	2083.4916	6405	5524.7
938.9176	2085.039	6368.5	5486.1
939.054	2086.5857	6360.4	5476
939.1903	2088.1317	6364.8	5485.25
939.3267	2089.677	6334.05	5453.45
939.463	2091.2215	6323.95	5443.25
939.5992	2092.7652	6313.6	5430.8
939.7355	2094.3083	6301.35	5419.5
939.8717	2095.8506	6291.45	5411.35
940.0079	2097.3921	6297.75	5418.15
940.1441	2098.933	6260.5	5379.55
940.2802	2100.4731	6260.65	5380
940.4163	2102.0124	6256.7	5359.75
940.5524	2103.5511	6241.2	5361.55
940.6885	2105.089	6220.3	5341.15
940.8245	2106.6261	6218.2	5337.55
940.9606	2108.1626	6210.95	5327.15
941.0965	2109.6983	6227.15	5318.45
941.2325	2111.2332	6175.9	5296.3
941.3684	2112.7675	6157.25	5276.25
941.5044	2114.301	6144.05	5262
941.6403	2115.8337	6153.9	5272.55
941.7761	2117.3657	6100.55	5220.65
941.912	2118.897	6112.45	5230.15
942.0478	2120.4276	6105.8	5220.65
942.1835	2121.9575	6077.5	5197.25
942.3193	2123.4866	6095.3	5212.85
942.455	2125.0149	6088.9	5205.2
942.5907	2126.5426	6046.05	5166.45
942.7264	2128.0695	6038.8	5153.35
942.8621	2129.5956	6029.85	5151.35
942.9977	2131.1211	6010.3	5125.2
943.1333	2132.6458	6019.3	5138.2
943.2689	2134.1698	6003.1	5122.8
943.4044	2135.693	5976	5094
943.54	2137.2155	5983.1	5099.9
943.6755	2138.7373	5954.9	5072.85
943.8109	2140.2584	5931.85	5052.05
943.9464	2141.7787	5929.4	5041.9
944.0818	2143.2983	5905.4	5024.05
944.2172	2144.8171	5871.65	4994.15
944.3526	2146.3353	5874.55	4991.2
944.4879	2147.8527	5831.95	4953.2
944.6232	2149.3693	5851.9	4969.95
944.7585	2150.8853	5832.4	4951.2
944.8938	2152.4005	5791.8	4909.9
945.029	2153.9149	5795.1	4913.25
945.1642	2155.4287	5789.5	4910
945.2994	2156.9417	5782.3	4900.45
945.4346	2158.454	5763.85	4881.35
945.5697	2159.9655	5750.8	4870.15
945.7048	2161.4764	5723.85	4842.8
945.8399	2162.9865	5735.3	4855.4
945.9749	2164.4958	5717.4	4835.05
946.1099	2166.0045	5701.55	4816.15
946.2449	2167.5124	5676.5	4795.85
946.3799	2169.0195	5693.6	4812.85
946.5148	2170.526	5665.55	4784.6
946.6498	2172.0317	5641.35	4761.25
946.7846	2173.5367	5650.85	4769.65
946.9195	2175.0409	5630.75	4751.55
947.0543	2176.5445	5621.4	4741.6
947.1891	2178.0473	5616.35	4735.6
947.3239	2179.5494	5590.75	4707.25
947.4587	2181.0507	5571.75	4690.4
947.5934	2182.5513	5555.85	4675.2
947.7281	2184.0512	5536.05	4655.2
947.8628	2185.5504	5525.85	4647.35
947.9974	2187.0488	5503.6	4623.6
948.132	2188.5465	5493.3	4612.35
948.2666	2190.0435	5471.55	4591
948.4012	2191.5397	5453.7	4573.9
948.5357	2193.0353	5421.75	4541.95
948.6702	2194.5301	5422.15	4540.6
948.8047	2196.0241	5413.75	4532.2
948.9392	2197.5175	5398.25	4517.95
949.0736	2199.0101	5365.3	4481.35
949.208	2200.502	5373	4492.25
949.3424	2201.9931	5332.8	4452.5
949.4767	2203.4835	5340.2	4458.25
949.611	2204.9733	5329.4	4443.2
949.7453	2206.4622	5297.7	4417.45
949.8796	2207.9505	5284.7	4401.45
950.0138	2209.438	5270.45	4391.1
950.148	2210.9248	5248.9	4367.75
950.2822	2212.4109	5247.65	4367
950.4164	2213.8962	5209.15	4324.85
950.5505	2215.3809	5221.05	4337.8
950.6846	2216.8648	5198.3	4317.2
950.8186	2218.3479	5180	4293.85
950.9527	2219.8304	5170.8	4287.65
951.0867	2221.3121	5160.45	4277.3
951.2207	2222.7931	5146.85	4267.6
951.3546	2224.2733	5121.1	4238.6
951.4886	2225.7529	5112.75	4231.85
951.6225	2227.2317	5088.15	4205.05
951.7563	2228.7098	5093.65	4213.05
951.8902	2230.1872	5076.6	4194.7
952.024	2231.6638	5065.8	4184.2
952.1578	2233.1397	5052.6	4165.95
952.2916	2234.6149	5024.6	4145.25
952.4253	2236.0894	5004.45	4123.75
952.559	2237.5632	5011.25	4128.45
952.6927	2239.0362	4989.75	4108.8
952.8263	2240.5085	4984.7	4105.4
952.9599	2241.9801	4958.1	4077.3
953.0935	2243.4509	4963	4083.35
953.2271	2244.921	4941.95	4060.6
953.3606	2246.3904	4939.95	4053.55
953.4941	2247.8591	4917.8	4038.65
953.6276	2249.3271	4899.95	4018.6
953.7611	2250.7943	4892.1	4010.1
953.8945	2252.2608	4856.9	3976.05
954.0279	2253.7266	4856.1	3977.45
954.1612	2255.1917	4840.55	3961.05
954.2946	2256.656	4815.1	3931.7
954.4279	2258.1197	4802.65	3923.3
954.5612	2259.5826	4807.05	3925.7
954.6944	2261.0447	4796.7	3914.65
954.8276	2262.5062	4778.3	3895.6
954.9608	2263.9669	4763.15	3881.15
955.094	2265.4269	4760.4	3881.15
955.2271	2266.8862	4731.15	3852.1
955.3602	2268.3448	4742.15	3859.8
955.4933	2269.8026	4735.25	3853.5
955.6264	2271.2598	4708.75	3828.75
955.7594	2272.7162	4700.45	3822.1
955.8924	2274.1719	4687.7	3808.35
956.0253	2275.6268	4682.15	3802.05
956.1583	2277.0811	4677.7	3797.05
956.2912	2278.5346	4659.5	3780.7
956.4241	2279.9874	4640.3	3759.85
956.5569	2281.4395	4639.1	3760.15
956.6897	2282.8908	4632.25	3746.9
956.8225	2284.3414	4624.65	3744.85
956.9553	2285.7914	4612.25	3730.55
957.088	2287.2406	4584.85	3702.1
957.2207	2288.689	4588.05	3708.3
957.3534	2290.1368	4572.4	3689.65
957.486	2291.5838	4557.05	3674.85
957.6186	2293.0302	4547.45	3663.2
957.7512	2294.4758	4521.7	3642.3
957.8838	2295.9206	4513.4	3629.85
958.0163	2297.3648	4502.7	3621.45
958.1488	2298.8082	4499	3616.1
958.2813	2300.251	4495.05	3615.9
958.4137	2301.693	4492.45	3609.95
958.5461	2303.1343	4479.35	3599.4
958.6785	2304.5748	4447.9	3569.8
958.8108	2306.0147	4429.1	3547.4
958.9432	2307.4538	4426.4	3544.6
959.0754	2308.8922	4412.55	3533.65
959.2077	2310.3299	4414.05	3533.75
959.3399	2311.7669	4397.1	3517.3
959.4721	2313.2031	4401.25	3519.5
959.6043	2314.6387	4368	3487.15
959.7365	2316.0735	4363.25	3483.7
959.8686	2317.5076	4345.35	3462.7
960.0006	2318.941	4345.6	3465.55
960.1327	2320.3737	4346.5	3467.25
960.2647	2321.8056	4326	3444.4
960.3967	2323.2369	4294.6	3413.4
960.5287	2324.6674	4298.55	3415.05
960.6606	2326.0972	4281.9	3400.15
960.7925	2327.5263	4255.6	3373.7
960.9244	2328.9547	4276.7	3393.3
961.0562	2330.3823	4262.8	3380.8
961.1881	2331.8092	4241.9	3357.75
961.3198	2333.2355	4224.7	3343.05
961.4516	2334.661	4214.5	3332.7
961.5833	2336.0858	4218.6	3336.5
961.715	2337.5098	4211.8	3332.1
961.8467	2338.9332	4193.4	3310.7
961.9783	2340.3558	4182.9	3298.75
962.1099	2341.7778	4169.15	3287.95
962.2415	2343.199	4160.55	3278.25
962.373	2344.6195	4161.75	3281.35
962.5045	2346.0393	4144.15	3265.9
962.636	2347.4583	4128.35	3246.55
962.7675	2348.8767	4125	3242.7
962.8989	2350.2943	4113.7	3231.4
963.0303	2351.7113	4096.55	3212.75
963.1617	2353.1275	4091.55	3208.3
963.293	2354.543	4077.05	3186.95
963.4243	2355.9578	4069.45	3189.05
963.5556	2357.3718	4045	3163.45
963.6868	2358.7852	4032.45	3147.8
963.818	2360.1978	4017	3136
963.9492	2361.6098	4017.6	3135.75
964.0803	2363.021	4005.4	3119.55
964.2114	2364.4315	3996	3113.85
964.3425	2365.8413	3996.95	3110.05
964.4736	2367.2504	3984.6	3103.95
964.6046	2368.6587	3958.15	3076.05
964.7356	2370.0664	3958.1	3077
964.8666	2371.4733	3933.85	3051.7
964.9975	2372.8795	3928.3	3048
965.1284	2374.285	3905.95	3025.6
965.2593	2375.6899	3896.4	3013.7
965.3901	2377.0939	3874.1	2994.45
965.5209	2378.4973	3869.45	2990.25
965.6517	2379.9	3870.1	2989.6
965.7825	2381.3019	3849.15	2966.25
965.9132	2382.7032	3857.6	2976.5
966.0439	2384.1037	3834.9	2953.25
966.1745	2385.5035	3827.65	2945.15
966.3051	2386.9027	3808.9	2930.4
966.4357	2388.3011	3807	2922.45
966.5663	2389.6987	3794	2913.9
966.6968	2391.0957	3778.95	2898.25
966.8273	2392.492	3768.1	2886.2
966.9578	2393.8876	3739.5	2857.9
967.0882	2395.2824	3737.9	2856.95
967.2186	2396.6765	3726.35	2845.6
967.349	2398.07	3711.75	2832.55
967.4793	2399.4627	3708	2823.75
967.6097	2400.8547	3699.3	2817.4
967.7399	2402.246	3701.35	2812.5
967.8702	2403.6366	3671.75	2792.45
968.0004	2405.0265	3662.75	2783.05
968.1306	2406.4156	3649.2	2763.25
968.2607	2407.8041	3631.7	2747.05
968.3909	2409.1918	3635.3	2750.9
968.521	2410.5789	3620.2	2737.35
968.651	2411.9652	3593.7	2707.65
968.781	2413.3508	3601.3	2720.5
968.911	2414.7358	3580.35	2699.3
969.041	2416.12	3565.6	2686.4
969.1709	2417.5035	3575.7	2695.8
969.3008	2418.8863	3556.45	2675.6
969.4307	2420.2684	3545.15	2662.75
969.5606	2421.6497	3510.95	2628.65
969.6904	2423.0304	3510.1	2628.35
969.8201	2424.4104	3503.3	2621.3
969.9499	2425.7896	3492.25	2608.5
970.0796	2427.1682	3474.4	2591.9
970.2093	2428.546	3462.6	2580.4
970.3389	2429.9232	3453.15	2568.85
970.4685	2431.2996	3450.75	2569.9
970.5981	2432.6753	3446.45	2564.4
970.7277	2434.0503	3444	2563.5
970.8572	2435.4246	3418.95	2538.85
970.9867	2436.7982	3424.1	2541.4
971.1161	2438.1711	3414.55	2532.55
971.2456	2439.5433	3408.9	2525.9
971.375	2440.9148	3400.55	2511.05
971.5043	2442.2856	3383.55	2503.15
971.6336	2443.6557	3390.45	2507.5
971.7629	2445.025	3367.2	2484.6
971.8922	2446.3937	3367.8	2486.25
972.0214	2447.7617	3355.4	2472.5
972.1506	2449.1289	3343.75	2461.05
972.2798	2450.4955	3350.1	2465.35
972.4089	2451.8613	3325.5	2445.6
972.538	2453.2265	3319.15	2436.5
972.6671	2454.5909	3308.45	2428.15
972.7961	2455.9546	3320.45	2439.15
972.9251	2457.3177	3302.45	2423.7
973.0541	2458.68	3292.6	2406.95
973.1831	2460.0416	3286.2	2404.2
973.312	2461.4025	3274.6	2391.35
973.4408	2462.7627	3280.45	2387.6
973.5697	2464.1222	3260	2379.4
973.6985	2465.4811	3255	2371.8
973.8273	2466.8392	3236.8	2356.65
973.956	2468.1966	3240.65	2357.45
974.0847	2469.5533	3232.4	2348.2
974.2134	2470.9093	3222.55	2340.65
974.3421	2472.2645	3214.8	2333.05
974.4707	2473.6191	3196.6	2313.4
974.5993	2474.973	3193.7	2310.4
974.7278	2476.3262	3201.25	2317.7
974.8563	2477.6787	3173.25	2292.25
974.9848	2479.0305	3159.95	2277.2
975.1132	2480.3816	3160.6	2277.7
975.2417	2481.7319	3149.7	2268.1
975.37	2483.0816	3137.25	2253.45
975.4984	2484.4306	3130.65	2248.1
975.6267	2485.7789	3134.2	2253.75
975.755	2487.1264	3109.95	2227.15
975.8833	2488.4733	3108.25	2228.2
976.0115	2489.8195	3091.55	2202.2
976.1397	2491.165	3074.7	2189.5
976.2678	2492.5097	3074.1	2188.65
976.3959	2493.8538	3063.8	2181.8
976.524	2495.1972	3063.55	2181.35
976.6521	2496.5398	3047.65	2165.15
976.7801	2497.8818	3040.55	2157.6
976.9081	2499.2231	3032	2148.95
977.036	2500.5637	3021.65	2137.85
977.164	2501.9035	3017.2	2135.8
977.2918	2503.2427	3009.45	2125.65
977.4197	2504.5812	2997.7	2118.35
977.5475	2505.919	3004	2120.5
977.6753	2507.256	2981	2099.9
977.8031	2508.5924	2985.05	2104.5
977.9308	2509.9281	2988.65	2100.8
978.0585	2511.2631	2954.5	2073.5
978.1861	2512.5974	2958.35	2075.85
978.3137	2513.9309	2945.05	2063.65
978.4413	2515.2638	2957.85	2050.5
978.5689	2516.596	2937.65	2055.4
978.6964	2517.9275	2921.4	2037.95
978.8239	2519.2583	2916.6	2033.35
978.9513	2520.5884	2913.15	2028.65
979.0788	2521.9178	2894.2	2012
979.2062	2523.2465	2891.45	2010.85
979.3335	2524.5745	2875.9	1997
979.4608	2525.9018	2872.1	1988.85
979.5881	2527.2284	2862.55	1982.1
979.7154	2528.5543	2848	1966.15
979.8426	2529.8796	2846.7	1963.4
979.9698	2531.2041	2839.25	1958.8
980.0969	2532.5279	2853.65	1974.7
980.224	2533.851	2839.45	1958.05
980.3511	2535.1735	2829.1	1946.7
980.4781	2536.4952	2812.05	1931.25
980.6052	2537.8163	2812.8	1932.6
980.7321	2539.1366	2804.95	1923.35
980.8591	2540.4562	2793.25	1910.65
980.986	2541.7752	2803.05	1923.55
981.1129	2543.0935	2785.65	1903.6
981.2397	2544.411	2777.05	1894.45
981.3665	2545.7279	2787.1	1907.55
981.4933	2547.0441	2774.6	1893
981.62	2548.3596	2786.5	1901.6
981.7467	2549.6744	2769.65	1887.4
981.8734	2550.9885	2758.75	1869.35
982.0001	2552.3019	2754.4	1872.8
982.1267	2553.6146	2754.2	1871.15
982.2532	2554.9266	2760.85	1881.25
982.3798	2556.2379	2743.85	1861.55
982.5063	2557.5485	2734.85	1854.45
982.6327	2558.8585	2729.4	1840.65
982.7592	2560.1677	2721.8	1839
982.8856	2561.4762	2723.95	1841.35
983.0119	2562.7841	2718.65	1834.9
983.1383	2564.0913	2701.25	1821.35
983.2646	2565.3977	2690.2	1809.25
983.3908	2566.7035	2698.35	1818.25
983.517	2568.0086	2699.05	1816.05
983.6432	2569.313	2682.45	1800.25
983.7694	2570.6167	2679.45	1796.45
983.8955	2571.9197	2685.25	1807.45
984.0216	2573.222	2680.5	1796.65
984.1476	2574.5236	2672.65	1791.7
984.2737	2575.8246	2669.85	1785.6
984.3996	2577.1248	2660.7	1778.25
984.5256	2578.4244	2653.7	1774.2
984.6515	2579.7232	2648.45	1767.2
984.7774	2581.0214	2668.4	1756.9
984.9032	2582.3189	2636.75	1755.85
985.029	2583.6157	2634.6	1749.5
985.1548	2584.9118	2628.45	1747.2
985.2806	2586.2072	2625.65	1742.15
985.4063	2587.5019	2615.5	1734.6
985.5319	2588.7959	2617.75	1735.55
985.6576	2590.0893	2593.9	1711.4
985.7832	2591.3819	2601.85	1722
985.9087	2592.6739	2580.4	1698.3
986.0343	2593.9652	2576.15	1693.95
986.1597	2595.2557	2578.5	1696.9
986.2852	2596.5456	2578.95	1695.05
986.4106	2597.8348	2549.4	1669.8
986.536	2599.1234	2552.05	1670.75
986.6614	2600.4112	2547.75	1666.3
986.7867	2601.6983	2542.15	1659.15
986.912	2602.9848	2547.3	1665.2
987.0372	2604.2705	2538	1652.3
987.1624	2605.5556	2525.3	1642.05
987.2876	2606.84	2514.45	1632.95
987.4128	2608.1237	2505.5	1622.15
987.5379	2609.4067	2500.45	1617.8
987.6629	2610.689	2489.7	1598.7
987.788	2611.9707	2481.1	1594.9
987.913	2613.2516	2483.7	1597.5
988.0379	2614.5319	2462.3	1581.15
988.1629	2615.8115	2455.65	1572.15
988.2878	2617.0903	2454.55	1572.95
988.4126	2618.3685	2441.7	1560.35
988.5375	2619.6461	2442.2	1559.95
988.6622	2620.9229	2433.85	1554.1
988.787	2622.199	2421.9	1541
988.9117	2623.4745	2432.4	1550.8
989.0364	2624.7493	2417.35	1535.55
989.161	2626.0234	2394.05	1513.95
989.2857	2627.2968	2397.9	1517.3
989.4102	2628.5695	2408.05	1525.85
989.5348	2629.8415	2394.75	1514.3
989.6593	2631.1128	2386.85	1502.45
989.7837	2632.3835	2371.05	1489.5
989.9082	2633.6535	2360.85	1479.65
990.0326	2634.9228	2358.25	1475.65
990.1569	2636.1914	2361.85	1482.2
990.2812	2637.4593	2359.35	1471.05
990.4055	2638.7265	2347.6	1465.7
990.5298	2639.9931	2338.15	1458.9
990.654	2641.259	2337.9	1456.3
990.7782	2642.5242	2340.7	1460.2
990.9023	2643.7887	2322.25	1439.8
991.0264	2645.0525	2316.4	1434.85
991.1505	2646.3156	2315.95	1431.5
991.2745	2647.5781	2317	1434.65
991.3985	2648.8398	2307.8	1428
991.5225	2650.1009	2322.5	1402.7
991.6464	2651.3613	2301.4	1420
991.7703	2652.6211	2290.75	1409.55
991.8942	2653.8801	2278.7	1399.05
992.018	2655.1385	2276.75	1393.4
992.1418	2656.3961	2273.6	1392.55
992.2655	2657.6531	2277.6	1394.75
992.3892	2658.9094	2262	1381.25
992.5129	2660.1651	2258.25	1375.9
992.6366	2661.42	2248	1367.85
992.7602	2662.6743	2261.75	1379.1
992.8837	2663.9279	2247.6	1368.2
993.0073	2665.1808	2240	1358.05
993.1307	2666.433	2242.15	1358.55
993.2542	2667.6846	2238.15	1357.3
993.3776	2668.9354	2221.8	1337.4
993.501	2670.1856	2214.6	1332.55
993.6244	2671.4351	2222.05	1342.25
993.7477	2672.6839	2206.9	1324.2
993.8709	2673.9321	2199.35	1319.1
993.9942	2675.1795	2202.5	1321.05
994.1174	2676.4263	2196.6	1316.7
994.2405	2677.6724	2192.8	1312.45
994.3637	2678.9179	2185.9	1303.75
994.4868	2680.1626	2183.1	1301.85
994.6098	2681.4067	2173.9	1292.4
994.7328	2682.6501	2180.8	1297.55
994.8558	2683.8928	2167.75	1288.1
994.9788	2685.1348	2151.6	1271.65
995.1017	2686.3761	2156.7	1275.25
995.2245	2687.6168	2144	1263.2
995.3474	2688.8568	2138.85	1257.45
995.4702	2690.0961	2138.95	1258.8
995.5929	2691.3348	2137.3	1256.1
995.7156	2692.5727	2137.9	1254.7
995.8383	2693.81	2125.35	1244.25
995.961	2695.0466	2117.3	1239
996.0836	2696.2826	2118.2	1236.95
996.2062	2697.5178	2130.15	1228.35
996.3287	2698.7524	2113	1230.5
996.4512	2699.9863	2103.15	1221.75
996.5737	2701.2195	2106.5	1224.8
996.6961	2702.452	2090.9	1208.4
996.8185	2703.6839	2081.95	1198.5
996.9408	2704.9151	2085.3	1205.2
997.0631	2706.1456	2074.95	1193.8
997.1854	2707.3755	2070.55	1187.7
997.3077	2708.6046	2064.6	1182.55
997.4299	2709.8331	2054.25	1174
997.552	2711.0609	2066.15	1183.9
997.6742	2712.2881	2056.35	1174.9
997.7963	2713.5145	2046.7	1163.1
997.9183	2714.7403	2034.05	1152.35
998.0403	2715.9654	2042.7	1160.8
998.1623	2717.1899	2043.55	1146.3
998.2842	2718.4136	2033.1	1152.25
998.4062	2719.6367	2029.8	1147.3
998.528	2720.8591	2029.6	1143.45
998.6498	2722.0809	2027.2	1147.7
998.7716	2723.3019	2030.8	1146.05
998.8934	2724.5223	2007.2	1126.45
999.0151	2725.7421	2010.15	1128.35
999.1368	2726.9611	2006.95	1122.7
999.2584	2728.1795	1997.2	1110.95
999.38	2729.3972	1992.75	1110.2
999.5016	2730.6142	1990.65	1095.4
999.6231	2731.8306	1974.85	1091.55
999.7446	2733.0462	1968.5	1085.4
999.8661	2734.2612	1962.85	1075.15
999.9875	2735.4756	1960.75	1077.95
1000.1089	2736.6892	1945.1	1061.65
1000.2302	2737.9022	1941.15	1061
1000.3515	2739.1145	1950.55	1069.95
1000.4728	2740.3262	1946.35	1055.45
1000.594	2741.5372	1928.75	1049.5
1000.7152	2742.7475	1926.7	1043.25
1000.8363	2743.9571	1923.7	1041.9
1000.9575	2745.1661	1932.8	1046.2
1001.0785	2746.3744	1913.35	1030.95
1001.1996	2747.582	1915.9	1035.85
1001.3206	2748.7889	1904.65	1022.35
1001.4415	2749.9952	1900.65	1019.3
1001.5625	2751.2008	1908.1	1026.2
1001.6833	2752.4057	1896.9	1014.55
1001.8042	2753.61	1889.7	1007.05
1001.925	2754.8136	1879.85	998.1
1002.0458	2756.0165	1890.95	1009.45
1002.1665	2757.2188	1880.3	1000.4
1002.2872	2758.4204	1869.6	988.75
1002.4078	2759.6213	1868.65	986.4
1002.5285	2760.8215	1866.75	982.25
1002.649	2762.0211	1862.1	980.15
1002.7696	2763.22	1860.8	975.2
1002.8901	2764.4182	1854.1	972.2
1003.0106	2765.6158	1844.45	963.15
1003.131	2766.8127	1847.65	967.9
1003.2514	2768.009	1843.2	962.65
1003.3717	2769.2045	1834.15	953.35
1003.492	2770.3994	1832.4	951.45
1003.6123	2771.5936	1824.5	943.15
1003.7325	2772.7872	1820.15	940.35
1003.8527	2773.9801	1823.15	939.95
1003.9729	2775.1723	1827.25	928.2
1004.093	2776.3639	1814.55	934.9
1004.2131	2777.5548	1802.5	918.25
1004.3331	2778.745	1807.05	926.95
1004.4531	2779.9346	1800.8	921.75
1004.5731	2781.1235	1800.3	916.55
1004.693	2782.3117	1790.9	911.1
1004.8129	2783.4992	1785.35	906.25
1004.9328	2784.6861	1788.5	909.35
1005.0526	2785.8723	1778.9	896.6
1005.1723	2787.0579	1776.4	897.6
1005.2921	2788.2428	1772.85	890.2
1005.4118	2789.427	1766.65	885.6
1005.5314	2790.6106	1764.7	881.1
1005.651	2791.7935	1754.5	873.95
1005.7706	2792.9757	1754	873.95
1005.8902	2794.1573	1749.2	868.25
1006.0097	2795.3382	1752.1	870.9
1006.1291	2796.5184	1736.65	856.6
1006.2485	2797.698	1742.05	861.35
1006.3679	2798.8769	1743.85	864.15
1006.4873	2800.0551	1743.45	860.35
1006.6066	2801.2327	1735.05	850.3
1006.7258	2802.4096	1720.7	840.05
1006.8451	2803.5859	1727.8	846.35
1006.9642	2804.7615	1714.2	831.4
1007.0834	2805.9364	1714.9	833.55
1007.2025	2807.1106	1702.7	823
1007.3216	2808.2842	1708.85	827.75
1007.4406	2809.4572	1707.15	826.7
1007.5596	2810.6294	1704.75	823.65
1007.6785	2811.801	1706.15	826.35
1007.7975	2812.972	1700.95	820.05
1007.9163	2814.1423	1703.1	822
1008.0352	2815.3119	1701.75	820.15
1008.154	2816.4808	1691.45	812
1008.2727	2817.6491	1696.05	813.7
1008.3914	2818.8167	1687.95	810.7
1008.5101	2819.9837	1705.2	819.45
1008.6288	2821.15	1706.8	827
1008.7474	2822.3157	1707.7	827.2
1008.8659	2823.4807	1702.75	822.3
1008.9844	2824.645	1709.1	826.8
1009.1029	2825.8086	1716.2	835
1009.2214	2826.9716	1718.6	839.6
1009.3398	2828.134	1724.65	846.05
1009.4581	2829.2957	1717.55	836.15
1009.5764	2830.4567	1731.75	850.15
1009.6947	2831.617	1726.6	844.9
1009.813	2832.7767	1726.35	845.7
1009.9312	2833.9358	1732.85	853.85
1010.0493	2835.0941	1723.7	839.55
1010.1675	2836.2519	1717.4	837.75
1010.2855	2837.4089	1714.75	833.2
1010.4036	2838.5653	1706.9	827.7
1010.5216	2839.7211	1706.7	828.7
1010.6396	2840.8761	1702.45	819.9
1010.7575	2842.0306	1699	819.3
1010.8754	2843.1843	1690.9	810.05
1010.9932	2844.3374	1691.8	810.95
1011.111	2845.4899	1691.8	809.9
1011.2288	2846.6417	1682.35	802.6
1011.3465	2847.7928	1690.95	811.75
1011.4642	2848.9433	1688.65	808.35
1011.5818	2850.0931	1679.05	797.3
1011.6995	2851.2422	1678.05	796.45
1011.817	2852.3907	1685.35	802.45
1011.9345	2853.5385	1691.35	808.75
1012.052	2854.6857	1681	790.35
1012.1695	2855.8323	1681.45	803
1012.2869	2856.9781	1671.85	791.65
1012.4042	2858.1233	1669.8	789.4
1012.5216	2859.2679	1681.65	800.75
1012.6389	2860.4118	1676.05	795
1012.7561	2861.555	1684.2	799
1012.8733	2862.6976	1688	804.1
1012.9905	2863.8395	1680.8	800.5
1013.1076	2864.9808	1677.9	795.2
1013.2247	2866.1214	1672.5	792.15
1013.3417	2867.2614	1671	790.1
1013.4587	2868.4007	1656.75	775.65
1013.5757	2869.5393	1674.55	792.8
1013.6926	2870.6773	1673.3	791.4
1013.8095	2871.8146	1665.3	782.9
1013.9263	2872.9513	1656.9	773.7
1014.0431	2874.0874	1651.35	773.3
1014.1599	2875.2227	1659.7	775.7
1014.2766	2876.3574	1658.4	777.9
1014.3933	2877.4915	1656.7	776.1
1014.51	2878.6249	1659.55	778.4
1014.6266	2879.7577	1655.65	774.9
1014.7431	2880.8898	1663.95	772.75
1014.8596	2882.0212	1649.6	770.15
1014.9761	2883.152	1652.25	770.85
1015.0925	2884.2821	1649.05	767.55
1015.2089	2885.4116	1636.75	757.15
1015.3253	2886.5405	1642.05	761.7
1015.4416	2887.6686	1654	769.65
1015.5579	2888.7962	1642	763
1015.6741	2889.923	1633.3	754.15
1015.7903	2891.0493	1634.75	756.35
1015.9065	2892.1748	1636.65	755.4
1016.0226	2893.2997	1626.6	749.05
1016.1387	2894.424	1627	748.5
1016.2547	2895.5476	1627.35	746.65
1016.3707	2896.6706	1629	749.1
1016.4866	2897.7929	1625.3	742.5
1016.6025	2898.9145	1615.35	733.4
1016.7184	2900.0355	1616.5	734.7
1016.8342	2901.1559	1613.9	731.7
1016.95	2902.2756	1609.35	729.05
1017.0658	2903.3946	1607.7	725.4
1017.1815	2904.513	1605.55	718.45
1017.2971	2905.6308	1594.35	714.7
1017.4127	2906.7479	1586.85	705.2
1017.5283	2907.8643	1590.1	709.5
1017.6439	2908.9801	1586.25	704.4
1017.7594	2910.0953	1585.4	706.6
1017.8748	2911.2098	1585.85	700.65
1017.9902	2912.3236	1590.6	701.25
1018.1056	2913.4368	1575.95	691.7
1018.2209	2914.5494	1574.5	693.4
1018.3362	2915.6613	1574.9	688.7
1018.4515	2916.7725	1566.45	682.5
1018.5667	2917.8831	1561.9	678.65
1018.6819	2918.9931	1562.1	678.9
1018.797	2920.1024	1549.45	668.65
1018.9121	2921.211	1550.55	671.5
1019.0271	2922.319	1545.45	663.65
1019.1421	2923.4264	1540.6	662.45
1019.2571	2924.5331	1540	658.9
1019.372	2925.6391	1537.75	657.3
1019.4869	2926.7445	1531.65	649.75
1019.6017	2927.8493	1531.3	650.45
1019.7165	2928.9534	1533.85	652.4
1019.8313	2930.0569	1528.5	646.25
1019.946	2931.1597	1529.3	647.9
1020.0606	2932.2619	1526.15	645.85
1020.1753	2933.3634	1533.7	653.9
1020.2899	2934.4643	1535.9	647.4
1020.4044	2935.5645	1531.8	645.55
1020.5189	2936.6641	1535.65	652.05
1020.6334	2937.763	1527	647.75
1020.7478	2938.8613	1525.45	643.95
1020.8622	2939.959	1521.15	634.4
1020.9765	2941.056	1513.95	634.05
1021.0908	2942.1523	1511.3	628.85
1021.2051	2943.248	1497.4	616.35
1021.3193	2944.3431	1490.7	609.5
1021.4334	2945.4375	1472.2	591.3
1021.5476	2946.5313	1469.35	590.7
1021.6617	2947.6244	1464.95	583.7
1021.7757	2948.7169	1452.55	572.25
1021.8897	2949.8087	1444.9	562.75
1022.0037	2950.8999	1431.4	549.8
1022.1176	2951.9904	1432.3	552.15
1022.2315	2953.0803	1424.15	541.75
1022.3453	2954.1696	1416.8	537.85
1022.4591	2955.2582	1415.65	536.7
1022.5728	2956.3462	1415.35	535.8
1022.6865	2957.4335	1405.65	525.15
1022.8002	2958.5202	1406.6	523.05
1022.9138	2959.6062	1396.95	518.3
1023.0274	2960.6916	1398.95	519.65
1023.141	2961.7764	1405.15	522.95
1023.2545	2962.8605	1392.15	509.45
1023.3679	2963.9439	1382.65	501.6
1023.4813	2965.0267	1384.75	499.75
1023.5947	2966.1089	1402.7	500.05
1023.708	2967.1905	1380.6	500.15
1023.8213	2968.2714	1377	497.5
1023.9346	2969.3516	1369.85	490.1
1024.0478	2970.4312	1376.4	487.4
1024.1609	2971.5102	1372.2	493.45
1024.274	2972.5885	1366.3	485.5
1024.3871	2973.6662	1372.8	487.9
1024.5002	2974.7432	1362.3	483.25
1024.6132	2975.8196	1365.2	485.35
1024.7261	2976.8954	1358.8	479.5
1024.839	2977.9705	1360.95	480.25
1024.9519	2979.045	1359.05	480.15
1025.0647	2980.1188	1355.85	477.3
1025.1775	2981.192	1349.45	470.35
1025.2902	2982.2645	1355.9	474.9
1025.4029	2983.3364	1351.4	472
1025.5156	2984.4077	1337.4	456.3
1025.6282	2985.4783	1340.25	455.85
1025.7407	2986.5483	1332.3	450.8
1025.8532	2987.6177	1335.55	455.2
1025.9657	2988.6864	1325.85	446.2
1026.0782	2989.7545	1325.7	443.9
1026.1906	2990.8219	1318.55	439.95
1026.3029	2991.8887	1329.1	447
1026.4152	2992.9548	1317.2	436.95
1026.5275	2994.0204	1308.95	429.1
1026.6397	2995.0852	1313.8	433.65
1026.7519	2996.1495	1300.25	418.55
1026.864	2997.2131	1292.85	412.65
1026.9761	2998.276	1294.7	413.35
1027.0882	2999.3383	1290.85	410.65
1027.2002	3000.4	1287.55	406.7
1027.3122	3001.4611	1286.4	406.05
1027.4241	3002.5215	1277.3	397.2
1027.536	3003.5812	1276.35	396.65
1027.6478	3004.6404	1274.95	393.7
1027.7596	3005.6989	1279.2	395.4
1027.8714	3006.7567	1273.35	391.4
1027.9831	3007.8139	1295.55	393.95
1028.0947	3008.8705	1269.45	390.8
1028.2064	3009.9264	1265.65	383.45
1028.3179	3010.9818	1267.25	387
1028.4295	3012.0364	1261.7	382.05
1028.541	3013.0905	1259.15	377.65
1028.6524	3014.1439	1254	373.8
1028.7638	3015.1966	1257.45	378.65
1028.8752	3016.2487	1256.9	375.7
1028.9865	3017.3002	1257.75	370.9
1029.0978	3018.3511	1250.35	371.3
1029.209	3019.4013	1250.15	370.05
1029.3202	3020.4509	1241.7	363.9
1029.4314	3021.4998	1243.65	363.15
1029.5425	3022.5481	1239.05	357.05
1029.6535	3023.5958	1241.1	362.7
1029.7645	3024.6428	1247.95	363.6
1029.8755	3025.6892	1239.65	361.2
1029.9864	3026.735	1242.5	362.05
1030.0973	3027.7802	1234.75	355.25
1030.2082	3028.8247	1227.55	346
1030.319	3029.8685	1234.7	352.8
1030.4297	3030.9118	1229.65	349.3
1030.5404	3031.9544	1221.15	340.95
1030.6511	3032.9963	1225.4	346.9
1030.7617	3034.0376	1226.9	347.05
1030.8723	3035.0783	1225.35	341
1030.9829	3036.1184	1224.7	344.35
1031.0934	3037.1578	1221.55	341.75
1031.2038	3038.1966	1219.2	337.65
1031.3142	3039.2348	1215.75	336.5
1031.4246	3040.2723	1224.65	336.35
1031.5349	3041.3092	1229	350.8
1031.6452	3042.3455	1215.1	334.6
1031.7554	3043.3811	1214.05	332.8
1031.8656	3044.4161	1207.95	328.8
1031.9758	3045.4505	1205.75	327.6
1032.0859	3046.4842	1205.65	325.3
1032.1959	3047.5173	1203.65	323.9
1032.3059	3048.5498	1200.75	321.5
1032.4159	3049.5816	1207.6	328.45
1032.5258	3050.6128	1208.7	327.95
1032.6357	3051.6434	1206.95	325.2
1032.7455	3052.6734	1204.15	322.1
1032.8553	3053.7027	1203.6	321.85
1032.9651	3054.7314	1197.85	316.95
1033.0748	3055.7594	1200.1	318.1
1033.1845	3056.7868	1198.55	318.9
1033.2941	3057.8136	1188.4	309.6
1033.4037	3058.8398	1195.35	316.1
1033.5132	3059.8653	1192	313.35
1033.6227	3060.8902	1187.3	307.8
1033.7321	3061.9145	1194.6	314.1
1033.8415	3062.9381	1191.75	311.9
1033.9509	3063.9612	1204.15	309.3
1034.0602	3064.9835	1187.65	308.1
1034.1694	3066.0053	1186.3	304.2
1034.2787	3067.0264	1187	307.05
1034.3878	3068.0469	1191.75	309.4
1034.497	3069.0668	1182.1	299.2
1034.6061	3070.086	1184.9	307.1
1034.7151	3071.1046	1180.6	300.15
1034.8241	3072.1226	1185.8	303.15
1034.9331	3073.1399	1181.85	301.4
1035.042	3074.1567	1175.4	296.45
1035.1508	3075.1727	1177.85	297.4
1035.2597	3076.1882	1172.2	293.9
1035.3684	3077.203	1173.45	293.2
1035.4772	3078.2173	1177.55	295.2
1035.5859	3079.2308	1173.45	289.15
1035.6945	3080.2438	1172.85	290.9
1035.8031	3081.2561	1167.6	286.75
1035.9117	3082.2678	1164.6	285.95
1036.0202	3083.2789	1161.3	280.7
1036.1286	3084.2893	1166.3	286.85
1036.2371	3085.2991	1163.3	282.5
1036.3454	3086.3083	1163.2	278.8
1036.4538	3087.3169	1157.6	274.95
1036.562	3088.3248	1155	274
1036.6703	3089.3321	1154.75	272.25
1036.7785	3090.3388	1146.35	267.75
1036.8866	3091.3449	1151	269.75
1036.9948	3092.3503	1147.2	263.25
1037.1028	3093.3551	1149.45	271.8
1037.2108	3094.3593	1148.5	268.95
1037.3188	3095.3629	1144.9	267.05
1037.4267	3096.3658	1145.15	264.1
1037.5346	3097.3681	1138.75	258.8
1037.6425	3098.3698	1147.9	267.95
1037.7503	3099.3708	1140.6	253.3
1037.858	3100.3713	1135.1	256.75
1037.9657	3101.3711	1137.5	257.45
1038.0734	3102.3702	1269.1	254.9
1038.181	3103.3688	1140.55	259.85
1038.2886	3104.3667	1132.75	252.05
1038.3961	3105.364	1134.5	254.35
1038.5036	3106.3607	1132.65	251.45
1038.611	3107.3568	1133.6	254.7
1038.7184	3108.3522	1126.7	249.1
1038.8257	3109.347	1127.9	247.85
1038.933	3110.3412	1128.55	244.45
1039.0403	3111.3348	1121	240.65
1039.1475	3112.3277	1117.65	238.95
1039.2547	3113.32	1122.75	242.1
1039.3618	3114.3117	1121	239.95
1039.4689	3115.3028	1115.5	233.55
1039.5759	3116.2932	1119.25	237.8
1039.6829	3117.2831	1121.45	238.65
1039.7898	3118.2723	1111.4	231.45
1039.8967	3119.2608	1112.95	231.15
1040.0035	3120.2488	1110.7	229.2
1040.1103	3121.2361	1111.6	231.05
1040.2171	3122.2229	1110.3	229.5
1040.3238	3123.209	1105.85	224.7
1040.4305	3124.1944	1107.4	228.2
1040.5371	3125.1793	1109.65	229.35
1040.6437	3126.1635	1100.55	220.85
1040.7502	3127.1471	1095.65	217.4
1040.8567	3128.1301	1096.5	217.65
1040.9631	3129.1125	1099.65	220.6
1041.0695	3130.0942	1097.4	215.05
1041.1759	3131.0753	1108.55	220.45
1041.2822	3132.0558	1097	213.95
1041.3884	3133.0357	1093.75	212.5
1041.4946	3134.015	1096.5	214.55
1041.6008	3134.9936	1095.15	211.75
1041.7069	3135.9716	1112.65	210.7
1041.813	3136.949	1089.55	209
1041.919	3137.9258	1095.35	209.05
1042.025	3138.902	1097.3	212.15
1042.1309	3139.8775	1090.25	210.85
1042.2368	3140.8524	1088.1	209.65
1042.3427	3141.8267	1089.05	207.45
1042.4485	3142.8004	1086.7	207.65
1042.5542	3143.7735	1088.8	203.2
1042.6599	3144.7459	1088.25	206.25
1042.7656	3145.7178	1088.1	209.05
1042.8712	3146.689	1080.1	201.55
1042.9768	3147.6596	1086.35	204.4
1043.0823	3148.6295	1075.9	195.05
1043.1878	3149.5989	1075.85	194.8
1043.2932	3150.5676	1076.95	199.5
1043.3986	3151.5357	1076.5	199.4
1043.5039	3152.5032	1073.5	192.75
1043.6092	3153.4701	1074.1	196.2
1043.7145	3154.4364	1075.25	193.45
1043.8197	3155.402	1072.1	193.45
1043.9248	3156.367	1074	190.85
1044.03	3157.3315	1110.7	191.6
1044.135	3158.2952	1066	185.25
1044.24	3159.2584	1070.85	192.35
1044.345	3160.221	1068.6	187.9
1044.4499	3161.1829	1066.65	187.3
1044.5548	3162.1442	1064	182.6
1044.6596	3163.105	1061.75	182.25
1044.7644	3164.065	1065.7	185.25
1044.8692	3165.0245	1067.8	186.7
1044.9739	3165.9834	1061	183.65
1045.0785	3166.9416	1061.05	178.55
1045.1831	3167.8993	1059.6	180.8
1045.2877	3168.8563	1056.85	174.75
1045.3922	3169.8127	1052.95	172.25
1045.4966	3170.7684	1057.35	177.1
1045.6011	3171.7236	1057.5	173.75
1045.7054	3172.6782	1057.5	179.1
1045.8098	3173.6321	1055.3	174.45
1045.914	3174.5854	1061.65	178.35
1046.0183	3175.5381	1052.4	172.8
1046.1224	3176.4902	1050.45	170.15
1046.2266	3177.4417	1048.15	170.05
1046.3307	3178.3926	1047	168.3
1046.4347	3179.3428	1042.1	166.15
1046.5387	3180.2924	1046.6	168.7
1046.6427	3181.2415	1045.3	164.1
1046.7466	3182.1899	1046.45	166.3
1046.8504	3183.1377	1046.45	167.55
1046.9542	3184.0848	1048.6	166.4
1047.058	3185.0314	1042.2	162.15
1047.1617	3185.9773	1043.05	161.5
1047.2654	3186.9227	1040.3	159.8
1047.369	3187.8674	1040.35	159.15
1047.4726	3188.8115	1046.2	163.7
1047.5761	3189.755	1039.4	160
1047.6796	3190.6979	1038.55	158.95
1047.783	3191.6402	1040.8	160.45
1047.8864	3192.5818	1035.3	153.35
1047.9898	3193.5229	1041.3	154.3
1048.0931	3194.4633	1035.6	155.6
1048.1963	3195.4031	1035.6	155.3
1048.2995	3196.3423	1030.6	150.25
1048.4027	3197.2809	1028.3	149
1048.5058	3198.2189	1032.2	152.2
1048.6089	3199.1563	1038.2	153.2
1048.7119	3200.0931	1030.45	152.95
1048.8148	3201.0292	1029.15	150.2
1048.9178	3201.9648	1033.15	154.1
1049.0206	3202.8997	1031.9	148.55
1049.1235	3203.834	1030.4	150.75
1049.2262	3204.7677	1021.95	142.8
1049.329	3205.7008	1030	148.85
1049.4317	3206.6333	1020.85	142.1
1049.5343	3207.5652	1023.9	143.45
1049.6369	3208.4964	1024.05	146.05
1049.7394	3209.4271	1017.3	138.45
1049.8419	3210.3571	1016.85	138.45
1049.9444	3211.2865	1021.35	140.1
1050.0468	3212.2154	1020.9	140
1050.1491	3213.1436	1021.65	141
1050.2514	3214.0712	1029.95	143.6
1050.3537	3214.9982	1016.45	137.2
1050.4559	3215.9246	1016.35	135.95
1050.5581	3216.8503	1013.3	134.9
1050.6602	3217.7755	1018.35	137.2
1050.7623	3218.7001	1014.95	138.15
1050.8643	3219.624	1015.35	134.45
1050.9663	3220.5473	1014.25	135.35
1051.0682	3221.4701	1015.95	135.9
1051.1701	3222.3922	1015.05	133.65
1051.2719	3223.3137	1013.6	133.95
1051.3737	3224.2346	1010.3	130.3
1051.4754	3225.1549	1008.65	129.2
1051.5771	3226.0746	1012.4	133.8
1051.6788	3226.9937	1009.25	129.1
1051.7804	3227.9121	1010.9	130.65
1051.8819	3228.83	1009.65	130.25
1051.9834	3229.7473	1007.1	127.7
1052.0849	3230.6639	1004.9	124.7
1052.1863	3231.5799	1006	126.95
1052.2876	3232.4954	1002.9	123.9
1052.3889	3233.4102	1004.45	126.05
1052.4902	3234.3244	1000.3	120.85
1052.5914	3235.238	1003	124.65
1052.6926	3236.151	1019.8	117.05
1052.7937	3237.0634	1002.75	121.8
1052.8948	3237.9752	1001.4	120.35
1052.9958	3238.8864	999.45	117.7
1053.0968	3239.797	1001.1	120.95
1053.1977	3240.7069	999.6	119.75
1053.2986	3241.6163	997.4	116.55
1053.3994	3242.5251	996.45	117.45
1053.5002	3243.4332	993.2	113.75
1053.6009	3244.3408	992.05	111.5
1053.7016	3245.2477	992.4	112.15
1053.8022	3246.154	995.4	112.7
1053.9028	3247.0598	993.1	110.6
1054.0034	3247.9649	993.65	112.25
1054.1039	3248.8694	991.85	112
1054.2043	3249.7733	993.25	111.3
1054.3047	3250.6766	988.15	109.15
1054.4051	3251.5793	990.75	110.05
1054.5054	3252.4814	987.2	109.05
1054.6056	3253.3829	989.5	109.3
1054.7058	3254.2838	986.1	105.8
1054.806	3255.1841	985.1	106.1
1054.9061	3256.0838	984.7	105
1055.0061	3256.9829	985.7	106.95
1055.1062	3257.8814	984.25	102.5
1055.2061	3258.7792	983.6	101.25
1055.306	3259.6765	982.95	103.1
1055.4059	3260.5731	981.9	102.35
1055.5057	3261.4692	979.1	98.3
1055.6055	3262.3647	977.4	97.7
1055.7052	3263.2595	980	99.35
1055.8049	3264.1538	979.5	100.85
1055.9045	3265.0474	978.5	96.65
1056.0041	3265.9404	972.25	92.9
1056.1036	3266.8329	968.3	88.4
1056.2031	3267.7247	978.9	88.5
1056.3025	3268.616	966.6	86.15
1056.4019	3269.5066	965.8	86.35
1056.5013	3270.3966	965.35	82.65
1056.6005	3271.286	957.95	80.65
