Software Version:	3.9.2.0
Unit SN:	10000200
Spectrometer SN:	6960
Date:	3/6/2024 11:00:08 AM
Data Line Index:	25
Spectral Points:	2048
Integration time (ms):	125
Averages:	20
Delay (ms):	30
Sequence Number:	1
Processing:	dark subtract
Laser Power (mW):	305
Laser Current (mA):	822
Laser Diode Temp (C):	25
Laser Case Temp (C):	28.1
System Temp (C):	28
Spectrometer Temp (C):	25.4
CCD Temp (C):	0.002
Secondary Temp (C):	20.004
Heatsink Temp (C):	23.585
CCDPCB Temp (C):	37.218
SecondaryPCB Temp (C):	34.339

Wavelength	RamanShift	Raw Counts	Dark Subtracted
787.061	30.1047	1081.25	667.05
787.2016	32.3739	1112.65	699.15
787.3422	34.6426	1144.1	729.55
787.4828	36.9109	1194.95	778.65
787.6235	39.1787	1249.6	830
787.7642	41.4461	1306.95	883.4
787.9049	43.7131	1372.2	944.75
788.0456	45.9796	1438.4	1007.05
788.1863	48.2456	1493.15	1058.8
788.3271	50.5112	1564.1	1125.2
788.4679	52.7764	1632.8	1193.05
788.6087	55.0411	1706.45	1262.95
788.7496	57.3054	1780.2	1331.1
788.8904	59.5692	1862.05	1411.3
789.0313	61.8326	1963.55	1507.4
789.1722	64.0955	2053.25	1593.65
789.3132	66.3579	2171.75	1708
789.4541	68.6199	2329.65	1862.9
789.5951	70.8815	2561.85	2090.7
789.7361	73.1426	3028.35	2554.05
789.8771	75.4032	4241.4	3762.3
790.0181	77.6634	7304.15	6819.15
790.1592	79.9231	15115.4	14622.5
790.3003	82.1824	48804.6	48304.55
790.4414	84.4412	65535	65019.5
790.5825	86.6995	65535	64995.45
790.7237	88.9574	65535	64973.35
790.8648	91.2148	65535	64955.3
791.006	93.4717	65535	64950
791.1472	95.7282	65535	64941.9
791.2885	97.9842	65535	64938.45
791.4297	100.2398	65535	64936.1
791.571	102.4949	65535	64932.1
791.7123	104.7495	65535	64929.15
791.8536	107.0036	65535	64927.75
791.9949	109.2573	65535	64930.35
792.1363	111.5105	65535	64926.95
792.2777	113.7632	65535	64926.75
792.4191	116.0154	65535	64914.7
792.5605	118.2672	65535	64919.05
792.7019	120.5185	65535	64920.9
792.8434	122.7693	65535	64917.45
792.9849	125.0197	65535	64912.4
793.1264	127.2696	65535	64913.95
793.2679	129.519	65535	64907.3
793.4094	131.7679	65535	64904.8
793.551	134.0163	65535	64900.7
793.6926	136.2642	65535	64890.15
793.8342	138.5117	65535	64882.85
793.9758	140.7587	65535	64892.7
794.1175	143.0052	65535	64890.45
794.2591	145.2512	65535	64888.05
794.4008	147.4967	65535	64886.2
794.5425	149.7417	65535	64889.3
794.6842	151.9863	65535	64885.35
794.826	154.2304	65535	64879.35
794.9677	156.4739	65535	64872.3
795.1095	158.717	65535	64874.2
795.2513	160.9596	65535	64868.4
795.3931	163.2017	65535	64868.3
795.535	165.4433	65535	64863.5
795.6768	167.6844	65535	64865.75
795.8187	169.925	65535	64857.55
795.9606	172.1651	65535	64855.75
796.1025	174.4047	65535	64853.45
796.2445	176.6439	65535	64854.45
796.3864	178.8825	65535	64849.95
796.5284	181.1206	65535	64848.55
796.6704	183.3582	65535	64841.9
796.8124	185.5954	65535	64837.45
796.9544	187.832	65535	64836.75
797.0965	190.0681	65535	64832.35
797.2386	192.3037	65535	64831.5
797.3806	194.5388	65535	64828.3
797.5228	196.7734	65535	64827
797.6649	199.0075	65535	64822.75
797.807	201.2411	65535	64820.1
797.9492	203.4742	65535	64822.4
798.0914	205.7068	65535	64821.55
798.2336	207.9389	65535	64818.75
798.3758	210.1704	65535	64817.35
798.518	212.4015	65535	64812.65
798.6603	214.632	65535	64814.25
798.8025	216.862	65535	64825.6
798.9448	219.0915	65535	64830.3
799.0871	221.3205	65535	64833.75
799.2294	223.549	65535	64837.1
799.3718	225.777	65535	64837.15
799.5141	228.0044	65535	64831.85
799.6565	230.2314	65535	64831.85
799.7989	232.4578	65535	64829.75
799.9413	234.6837	65535	64825.25
800.0837	236.909	65535	64822.15
800.2262	239.1339	65535	64797.25
800.3687	241.3582	65535	64811.95
800.5111	243.582	65535	64779.7
800.6536	245.8053	65535	64793.45
800.7961	248.0281	65535	64796.8
800.9387	250.2503	65535	64795.25
801.0812	252.472	65535	64789.6
801.2238	254.6932	65535	64785.75
801.3664	256.9139	65535	64783.85
801.509	259.134	65535	64784.4
801.6516	261.3536	65535	64784.05
801.7942	263.5727	65535	64781.25
801.9369	265.7912	65535	64785.65
802.0795	268.0092	65535	64780.25
802.2222	270.2267	65535	64783.4
802.3649	272.4436	65535	64781.75
802.5076	274.6601	65535	64771.95
802.6504	276.8759	65535	64777.25
802.7931	279.0913	65535	64774.8
802.9359	281.3061	65535	64774.4
803.0787	283.5204	65535	64768.75
803.2215	285.7341	65535	64770.1
803.3643	287.9473	65535	64755.05
803.5071	290.16	65535	64759.3
803.6499	292.3721	65535	64768.45
803.7928	294.5837	65535	64767.45
803.9357	296.7947	65535	64771
804.0786	299.0052	65535	64767.1
804.2215	301.2152	65535	64762
804.3644	303.4246	65535	64768.75
804.5074	305.6334	65535	64765.7
804.6503	307.8418	65535	64762.65
804.7933	310.0495	65535	64762.55
804.9363	312.2568	65535	64761.75
805.0793	314.4635	65535	64760.15
805.2223	316.6696	65535	64754.65
805.3653	318.8752	65535	64745.4
805.5084	321.0802	65535	64757.4
805.6514	323.2847	65535	64756.8
805.7945	325.4887	65535	64753.95
805.9376	327.692	65535	64753.95
806.0807	329.8949	65535	64750
806.2238	332.0972	65535	64748.6
806.367	334.2989	65535	64744.65
806.5101	336.5001	65535	64749.3
806.6533	338.7007	65535	64744.5
806.7965	340.9008	65535	64742.05
806.9397	343.1003	65535	64743.5
807.0829	345.2992	65535	64740.8
807.2261	347.4976	65535	64738.95
807.3693	349.6955	65535	64736.55
807.5126	351.8927	65535	64735.85
807.6559	354.0895	65535	64727.5
807.7991	356.2856	65535	64738.15
807.9424	358.4812	65535	64736.95
808.0857	360.6763	65535	64736.9
808.2291	362.8707	65535	64731.7
808.3724	365.0646	65535	64729.75
808.5158	367.258	65535	64730
808.6591	369.4508	65535	64723.75
808.8025	371.643	65535	64725.05
808.9459	373.8346	65535	64720.6
809.0893	376.0257	65535	64717.2
809.2327	378.2162	65535	64719.1
809.3762	380.4062	65535	64714.45
809.5196	382.5956	65535	64716
809.6631	384.7844	65535	64717.8
809.8066	386.9726	65535	64717.35
809.9501	389.1603	65535	64720.75
810.0936	391.3474	65535	64680.95
810.2371	393.5339	65535	64718.05
810.3806	395.7199	65535	64724.15
810.5241	397.9052	65535	64725.5
810.6677	400.09	65535	64724.25
810.8113	402.2743	65535	64727.2
810.9548	404.4579	65535	64725.55
811.0984	406.641	65535	64723.95
811.2421	408.8235	65535	64725.4
811.3857	411.0054	65535	64723.45
811.5293	413.1868	65535	64720.05
811.673	415.3675	65535	64717.05
811.8166	417.5477	65535	64718.45
811.9603	419.7273	65535	64715.65
812.104	421.9064	65535	64702.4
812.2477	424.0848	65535	64709.4
812.3914	426.2627	65535	64709.25
812.5351	428.4399	65535	64706.65
812.6788	430.6166	65535	64706.1
812.8226	432.7928	65535	64704.2
812.9663	434.9683	65535	64705.15
813.1101	437.1432	65535	64702
813.2539	439.3176	65535	64697.7
813.3977	441.4914	65535	64701.2
813.5415	443.6645	65535	64699.4
813.6853	445.8371	65535	64701.25
813.8291	448.0091	65535	64699.2
813.973	450.1806	65535	64697.25
814.1168	452.3514	65535	64699.2
814.2607	454.5216	65535	64690.75
814.4046	456.6913	65535	64697.6
814.5485	458.8603	65535	64697.4
814.6924	461.0288	65535	64700.3
814.8363	463.1967	65535	64696.55
814.9802	465.3639	65535	64696.65
815.1241	467.5306	65535	64696.35
815.2681	469.6967	65535	64695.6
815.412	471.8622	65535	64699.55
815.556	474.0271	65535	64696
815.7	476.1914	65535	64695.35
815.844	478.3551	65535	64692.75
815.988	480.5182	65535	64692.65
816.132	482.6807	65535	64692.8
816.276	484.8426	65535	64697.4
816.4201	487.0039	65535	64691.55
816.5641	489.1647	65535	64690.15
816.7082	491.3248	65535	64691.25
816.8522	493.4843	65535	64691.5
816.9963	495.6432	65535	64689.6
817.1404	497.8015	65535	64689.75
817.2845	499.9592	65535	64688.8
817.4286	502.1163	65535	64684.5
817.5727	504.2728	65535	64686.2
817.7168	506.4287	65535	64690.3
817.861	508.5839	65535	64688.65
818.0051	510.7386	65535	64688.6
818.1493	512.8927	65535	64684.1
818.2935	515.0461	65535	64685.15
818.4377	517.199	65535	64685.65
818.5818	519.3512	65535	64682.75
818.726	521.5029	65535	64680.1
818.8703	523.6539	65535	64683.75
819.0145	525.8043	65535	64683.4
819.1587	527.9541	65535	64677.4
819.303	530.1033	65535	64680.85
819.4472	532.2519	65535	64682.25
819.5915	534.3999	65535	64677.7
819.7357	536.5472	65535	64681.65
819.88	538.694	65535	64681.1
820.0243	540.8401	65535	64677.75
820.1686	542.9856	65535	64676.85
820.3129	545.1305	65535	64674.75
820.4572	547.2748	65535	64675.5
820.6016	549.4185	65535	64673.4
820.7459	551.5615	65535	64674.55
820.8902	553.704	65535	64671.05
821.0346	555.8458	65535	64677.3
821.1789	557.987	65535	64677.85
821.3233	560.1276	65535	64676.35
821.4677	562.2675	65535	64674.3
821.6121	564.4069	65535	64676.1
821.7565	566.5456	65535	64675.55
821.9009	568.6837	65535	64675.65
822.0453	570.8212	65535	64677.8
822.1897	572.958	65535	64672.5
822.3342	575.0942	65535	64675.75
822.4786	577.2299	65535	64675.3
822.6231	579.3648	65535	64675.75
822.7675	581.4992	65535	64676.8
822.912	583.6329	65535	64676.35
823.0565	585.766	65535	64679.25
823.201	587.8985	65535	64672.75
823.3454	590.0304	65535	64650.25
823.4899	592.1616	65535	64672.2
823.6345	594.2922	65535	64670.4
823.779	596.4222	65535	64666.3
823.9235	598.5515	65535	64669.65
824.068	600.6802	65535	64669.15
824.2126	602.8083	65535	64669.95
824.3571	604.9358	65535	64669
824.5017	607.0626	65535	64668.9
824.6462	609.1888	65535	64667.4
824.7908	611.3144	65535	64666.1
824.9354	613.4393	65535	64668.7
825.08	615.5636	65535	64665.3
825.2246	617.6873	65535	64665.75
825.3692	619.8103	65535	64663.6
825.5138	621.9327	65535	64663.9
825.6584	624.0544	65535	64666.55
825.803	626.1756	65535	64669.8
825.9477	628.2961	65535	64664.55
826.0923	630.4159	65535	64667.5
826.237	632.5351	65535	64666.4
826.3816	634.6537	65535	64663.6
826.5263	636.7716	65535	64660.2
826.6709	638.8889	65535	64663.15
826.8156	641.0056	65535	64660.3
826.9603	643.1216	65535	64660.4
827.105	645.237	65535	64660.2
827.2497	647.3518	65535	64662.35
827.3944	649.4659	65535	64660.75
827.5391	651.5793	65535	64663.3
827.6838	653.6922	65535	64660.4
827.8285	655.8043	65535	64662.7
827.9733	657.9159	65535	64659.05
828.118	660.0268	65535	64658.9
828.2627	662.137	65535	64661.35
828.4075	664.2466	65535	64658.5
828.5522	666.3556	65535	64660.2
828.697	668.4639	65535	64653.4
828.8418	670.5716	65535	64657.75
828.9865	672.6786	65535	64656.95
829.1313	674.785	65535	64654.5
829.2761	676.8907	65535	64657.9
829.4209	678.9958	65535	64656
829.5657	681.1002	65535	64658.4
829.7105	683.204	65535	64651.45
829.8553	685.3072	65535	64654.1
830.0001	687.4097	65535	64655
830.1449	689.5115	65535	64651.3
830.2898	691.6127	65535	64658.35
830.4346	693.7132	65535	64655.25
830.5794	695.8131	65535	64647.7
830.7243	697.9123	65535	64654.35
830.8691	700.0109	65535	64652.4
831.014	702.1089	65535	64656.4
831.1588	704.2061	65535	64655.25
831.3037	706.3028	65535	64653.8
831.4486	708.3987	65535	64652.6
831.5935	710.4941	65535	64654.5
831.7383	712.5887	65535	64654.35
831.8832	714.6827	65535	64649.5
832.0281	716.7761	65535	64655.6
832.173	718.8688	65535	64653.05
832.3179	720.9608	65535	64646.15
832.4628	723.0522	65535	64645.95
832.6077	725.1429	65535	64652.55
832.7527	727.233	65535	64650.95
832.8976	729.3224	65535	64649.35
833.0425	731.4112	65535	64651.3
833.1874	733.4993	65535	64647.65
833.3324	735.5867	65535	64649.95
833.4773	737.6735	65535	64649.85
833.6222	739.7596	65535	64648.65
833.7672	741.845	65535	64649.5
833.9122	743.9298	65535	64647.65
834.0571	746.014	65535	64651.3
834.2021	748.0974	65535	64648.45
834.347	750.1802	65535	64647.5
834.492	752.2624	65535	64647.3
834.637	754.3439	65535	64647
834.782	756.4247	65535	64640.65
834.9269	758.5048	65535	64649.55
835.0719	760.5843	65535	64650.15
835.2169	762.6631	65535	64644.2
835.3619	764.7413	65535	64645.95
835.5069	766.8188	65535	64643.5
835.6519	768.8956	65535	64647.85
835.7969	770.9718	65535	64646.95
835.9419	773.0473	65535	64649.75
836.0869	775.1221	65535	64646
836.232	777.1962	65535	64646.95
836.377	779.2697	65535	64648.2
836.522	781.3426	65535	64628
836.667	783.4147	65535	64646.4
836.8121	785.4862	65535	64646.35
836.9571	787.557	65535	64645.45
837.1021	789.6271	65535	64647.8
837.2472	791.6966	65535	64645.95
837.3922	793.7654	65535	64646.25
837.5373	795.8335	65535	64645.95
837.6823	797.901	65535	64646.15
837.8274	799.9678	65535	64641.9
837.9724	802.0339	65535	64645.05
838.1175	804.0993	65535	64634.9
838.2626	806.1641	65535	64644.05
838.4076	808.2282	65535	64644.2
838.5527	810.2916	65535	64642
838.6978	812.3544	65535	64646.25
838.8428	814.4164	65535	64644.7
838.9879	816.4778	65535	64645.15
839.133	818.5385	65535	64646.5
839.2781	820.5986	65535	64642.5
839.4232	822.658	65535	64644.8
839.5682	824.7166	65535	64644.4
839.7133	826.7747	65535	64643.4
839.8584	828.832	65535	64645.3
840.0035	830.8886	65535	64639.95
840.1486	832.9446	65535	64640.2
840.2937	834.9999	65535	64647.55
840.4388	837.0545	65535	64640.6
840.5839	839.1085	65535	64643.3
840.729	841.1618	65535	64641.5
840.8741	843.2143	65535	64644.1
841.0192	845.2662	65535	64642.7
841.1643	847.3175	65535	64641.45
841.3095	849.368	65535	64644.4
841.4546	851.4179	65535	64644.35
841.5997	853.467	65535	64642.35
841.7448	855.5155	65535	64640.6
841.8899	857.5633	65535	64643.5
842.0351	859.6105	65535	64644.55
842.1802	861.6569	65535	64643.15
842.3253	863.7027	65535	64643.4
842.4704	865.7478	65535	64641.1
842.6156	867.7922	65535	64641.95
842.7607	869.8359	65535	64642.75
842.9058	871.8789	65535	64638.55
843.0509	873.9212	65535	64611.75
843.1961	875.9629	65535	64641.45
843.3412	878.0039	65535	64641.65
843.4863	880.0441	65535	64643.3
843.6315	882.0837	65535	64640.2
843.7766	884.1226	65535	64637.4
843.9218	886.1609	65535	64641.4
844.0669	888.1984	65535	64643.15
844.212	890.2352	65535	64644.65
844.3572	892.2714	65535	64637.6
844.5023	894.3069	65535	64639.25
844.6475	896.3416	65535	64642.35
844.7926	898.3757	65535	64639.6
844.9377	900.4091	65535	64638.7
845.0829	902.4418	65535	64634.75
845.228	904.4739	65535	64639.65
845.3732	906.5052	65535	64638.5
845.5183	908.5358	65535	64637.35
845.6635	910.5658	65535	64635.15
845.8086	912.595	65535	64637.95
845.9538	914.6236	65535	64638.6
846.0989	916.6515	65535	64638.8
846.2441	918.6786	65535	64639.2
846.3892	920.7051	65535	64635.45
846.5344	922.7309	65535	64638.1
846.6795	924.756	65535	64638.2
846.8246	926.7804	65535	64637.8
846.9698	928.8041	65535	64635.1
847.1149	930.8272	65535	64635.35
847.2601	932.8495	65535	64636.3
847.4052	934.8711	65535	64637.2
847.5504	936.892	65535	64638.9
847.6955	938.9123	65535	64637.3
847.8407	940.9318	65535	64637.7
847.9858	942.9506	65535	64638
848.131	944.9688	65535	64637.55
848.2761	946.9862	65535	64639.05
848.4213	949.003	65535	64638.6
848.5664	951.019	65535	64637.5
848.7115	953.0344	65535	64635.95
848.8567	955.0491	65535	64637.25
849.0018	957.063	65535	64637.1
849.147	959.0763	65535	64638.2
849.2921	961.0888	65535	64635.5
849.4373	963.1007	65535	64637.75
849.5824	965.1119	65535	64637.35
849.7275	967.1223	65535	64637.6
849.8727	969.1321	65535	64637.2
850.0178	971.1412	65535	64637.9
850.1629	973.1495	65535	64639.5
850.3081	975.1572	65535	64603.85
850.4532	977.1641	65535	64638.45
850.5983	979.1704	65535	64636.15
850.7435	981.1759	65535	64634.3
850.8886	983.1808	65535	64636.15
851.0337	985.1849	65535	64628.7
851.1788	987.1884	65535	64634.45
851.324	989.1911	65535	64635.5
851.4691	991.1932	65535	64635.2
851.6142	993.1945	65535	64637.8
851.7593	995.1951	65535	64635.4
851.9045	997.1951	65535	64630.7
852.0496	999.1943	65535	64638.65
852.1947	1001.1928	65535	64634.95
852.3398	1003.1906	65535	64636.45
852.4849	1005.1877	65535	64633
852.63	1007.1841	65535	64635.7
852.7751	1009.1798	65535	64635.9
852.9202	1011.1748	65535	64637.65
853.0653	1013.1691	65535	64638.2
853.2104	1015.1627	65535	64637.65
853.3555	1017.1556	65535	64641.05
853.5006	1019.1477	65535	64635.2
853.6457	1021.1392	65535	64636.75
853.7908	1023.1299	65535	64638.2
853.9359	1025.12	65535	64637.75
854.081	1027.1093	65535	64640.9
854.2261	1029.0979	65535	64641.4
854.3712	1031.0859	65535	64642.55
854.5163	1033.0731	65535	64636.9
854.6613	1035.0596	65535	64638.45
854.8064	1037.0454	65535	64636.45
854.9515	1039.0304	65535	64637.55
855.0965	1041.0148	65535	64637.9
855.2416	1042.9985	65535	64634.55
855.3867	1044.9814	65535	64636.1
855.5317	1046.9636	65535	64634.4
855.6768	1048.9452	65535	64636.65
855.8219	1050.926	65535	64638.35
855.9669	1052.9061	65535	64637.7
856.112	1054.8855	65535	64636.5
856.257	1056.8642	65535	64634.8
856.4021	1058.8421	65535	64630.75
856.5471	1060.8194	65535	64635.3
856.6921	1062.7959	65535	64637.2
856.8372	1064.7717	65535	64635.7
856.9822	1066.7469	65535	64634.6
857.1272	1068.7213	65535	64634.15
857.2723	1070.695	65535	64636.1
857.4173	1072.6679	65535	64635.65
857.5623	1074.6402	65535	64640.3
857.7073	1076.6117	65535	64630.4
857.8523	1078.5826	65535	64635.2
857.9973	1080.5527	65535	64630.8
858.1423	1082.5221	65535	64632.85
858.2873	1084.4908	65535	64637.65
858.4323	1086.4587	65535	64633.6
858.5773	1088.426	65535	64635.05
858.7223	1090.3925	65535	64630.25
858.8673	1092.3584	65535	64637.2
859.0123	1094.3235	65535	64640.05
859.1573	1096.2879	65535	64634.25
859.3022	1098.2515	65535	64635.85
859.4472	1100.2145	65535	64636.05
859.5922	1102.1767	65535	64632
859.7371	1104.1382	65535	64636.35
859.8821	1106.099	65535	64633.7
860.027	1108.0591	65535	64635.75
860.172	1110.0185	65535	64634.85
860.3169	1111.9771	65535	64638.7
860.4619	1113.9351	65535	64635.45
860.6068	1115.8923	65535	64635.55
860.7517	1117.8488	65535	64631.15
860.8967	1119.8045	65535	64635.45
861.0416	1121.7596	65535	64636
861.1865	1123.7139	65535	64637.55
861.3314	1125.6675	65535	64636.45
861.4763	1127.6204	65535	64636.15
861.6212	1129.5726	65535	64632
861.7661	1131.524	65535	64636.2
861.911	1133.4748	65535	64636.5
862.0559	1135.4248	65535	64634.15
862.2008	1137.3741	65535	64636
862.3457	1139.3226	65535	64636.05
862.4905	1141.2705	65535	64635.7
862.6354	1143.2176	65535	64629.3
862.7803	1145.164	65535	64633.7
862.9251	1147.1097	65535	64636.6
863.07	1149.0546	65535	64633.3
863.2148	1150.9989	65535	64635.65
863.3597	1152.9424	65535	64635.3
863.5045	1154.8852	65535	64636.95
863.6493	1156.8272	65535	64637.05
863.7942	1158.7686	65535	64629.2
863.939	1160.7092	65535	64632.8
864.0838	1162.6491	65535	64634.4
864.2286	1164.5883	65535	64637.05
864.3734	1166.5267	65535	64632.45
864.5182	1168.4644	65535	64637.95
864.663	1170.4014	65535	64629.75
864.8078	1172.3377	65535	64637.5
864.9526	1174.2732	65535	64636.25
865.0974	1176.2081	65535	64635.25
865.2421	1178.1421	65535	64633.05
865.3869	1180.0755	65535	64635.35
865.5317	1182.0082	65535	64635.75
865.6764	1183.9401	65535	64635.25
865.8212	1185.8713	65535	64634.65
865.9659	1187.8017	65535	64636.75
866.1106	1189.7315	65535	64639.45
866.2554	1191.6605	65535	64609.3
866.4001	1193.5888	65535	64636.95
866.5448	1195.5163	65535	64637.25
866.6895	1197.4432	65535	64633.95
866.8342	1199.3693	65535	64636.95
866.9789	1201.2947	65535	64634.8
867.1236	1203.2193	65535	64635.3
867.2683	1205.1432	65535	64636.55
867.413	1207.0664	65535	64634.55
867.5576	1208.9889	65535	64632.85
867.7023	1210.9106	65535	64633.7
867.847	1212.8316	65535	64637.9
867.9916	1214.7519	65535	64627.55
868.1363	1216.6715	65535	64635.9
868.2809	1218.5903	65535	64636.3
868.4255	1220.5084	65535	64637.85
868.5701	1222.4257	65535	64637.15
868.7148	1224.3424	65535	64636.55
868.8594	1226.2583	65535	64629.4
869.004	1228.1735	65535	64632.4
869.1486	1230.0879	65535	64633.45
869.2932	1232.0016	65535	64635.6
869.4377	1233.9146	65535	64633.4
869.5823	1235.8269	65535	64635.45
869.7269	1237.7384	65535	64636.7
869.8715	1239.6492	65535	64636.15
870.016	1241.5592	65535	64633.7
870.1606	1243.4686	65535	64634.9
870.3051	1245.3772	65535	64635.95
870.4496	1247.285	65535	64635
870.5941	1249.1922	65535	64636.65
870.7387	1251.0986	65535	64637.05
870.8832	1253.0042	65535	64633.7
871.0277	1254.9092	65535	64634.9
871.1722	1256.8134	65535	64637.95
871.3167	1258.7169	65535	64636.3
871.4611	1260.6196	65535	64638.6
871.6056	1262.5216	65535	64635.5
871.7501	1264.4229	65535	64636.5
871.8945	1266.3234	65535	64636.55
872.039	1268.2232	65535	64635.85
872.1834	1270.1223	65535	64633.45
872.3278	1272.0207	65535	64634.95
872.4723	1273.9183	65535	64629.8
872.6167	1275.8151	65535	64634.65
872.7611	1277.7113	65535	64635.85
872.9055	1279.6067	65535	64637.5
873.0499	1281.5014	65535	64632.45
873.1943	1283.3953	65535	64633.9
873.3386	1285.2885	65535	64636
873.483	1287.181	65535	64634.85
873.6274	1289.0727	65535	64636.5
873.7717	1290.9637	65535	64634.2
873.9161	1292.854	65535	64635.65
874.0604	1294.7435	65535	64634.85
874.2047	1296.6323	65535	64634.55
874.349	1298.5204	65535	64633.55
874.4933	1300.4077	65535	64634.55
874.6376	1302.2943	65535	64635.95
874.7819	1304.1802	65535	64636.1
874.9262	1306.0653	65535	64634.05
875.0705	1307.9497	65535	64635.4
875.2147	1309.8333	65535	64637.4
875.359	1311.7162	65535	64637.85
875.5032	1313.5984	65535	64632.75
875.6475	1315.4798	65535	64625.55
875.7917	1317.3605	65535	64618.15
875.9359	1319.2405	65535	64636.7
876.0801	1321.1197	65535	64632.1
876.2243	1322.9982	65535	64629.95
876.3685	1324.876	65535	64635.3
876.5127	1326.753	65535	64635
876.6569	1328.6293	65535	64634.7
876.801	1330.5048	65535	64633.25
876.9452	1332.3796	65535	64636.75
877.0893	1334.2537	65535	64611.1
877.2335	1336.127	65535	64636.85
877.3776	1337.9996	65535	64636.75
877.5217	1339.8714	65535	64635.65
877.6658	1341.7426	65535	64593.85
877.8099	1343.6129	65535	64634.8
877.954	1345.4826	65535	64636.55
878.0981	1347.3515	65535	64632.25
878.2422	1349.2196	65535	64634
878.3862	1351.087	65535	64634.9
878.5303	1352.9537	65535	64635.15
878.6743	1354.8197	65535	64634.8
878.8184	1356.6849	65535	64634.6
878.9624	1358.5493	65535	64635.95
879.1064	1360.4131	65535	64636.15
879.2504	1362.276	65535	64635.6
879.3944	1364.1383	65535	64636.1
879.5384	1365.9998	65535	64630.1
879.6823	1367.8606	65535	64632.75
879.8263	1369.7206	65535	64635.95
879.9702	1371.5799	65535	64632.4
880.1142	1373.4384	65535	64633.75
880.2581	1375.2962	65535	64634.75
880.402	1377.1533	65535	64635.4
880.5459	1379.0096	65535	64634.25
880.6898	1380.8652	65535	64635.6
880.8337	1382.7201	65535	64638.3
880.9776	1384.5742	65535	64635.15
881.1215	1386.4275	65535	64634.6
881.2653	1388.2802	65535	64634.55
881.4092	1390.132	65535	64636.85
881.553	1391.9832	65535	64633.65
881.6968	1393.8336	65535	64635.8
881.8406	1395.6832	65535	64635.75
881.9844	1397.5322	65535	64637.25
882.1282	1399.3803	65535	64631.45
882.272	1401.2278	65535	64634.95
882.4158	1403.0745	65535	64635.5
882.5595	1404.9204	65535	64637.05
882.7033	1406.7656	65535	64637.1
882.847	1408.6101	65535	64635.6
882.9908	1410.4538	65535	64633.5
883.1345	1412.2968	65535	64635.9
883.2782	1414.139	65535	64636.75
883.4219	1415.9805	65535	64639.1
883.5656	1417.8213	65535	64629.25
883.7092	1419.6613	65535	64634.8
883.8529	1421.5006	65535	64635.7
883.9965	1423.3391	65535	64636.5
884.1402	1425.1769	65535	64633.7
884.2838	1427.0139	65535	64635.8
884.4274	1428.8502	65535	64634.3
884.571	1430.6858	65535	64634.9
884.7146	1432.5206	65535	64635.25
884.8582	1434.3547	65535	64634.15
885.0018	1436.188	65535	64635.4
885.1453	1438.0206	65535	64635.75
885.2889	1439.8524	65535	64634.55
885.4324	1441.6835	65535	64636.1
885.5759	1443.5139	65535	64633.15
885.7194	1445.3435	65535	64634.45
885.8629	1447.1724	65535	64635.6
886.0064	1449.0005	65535	64636.9
886.1499	1450.8279	65535	64634.25
886.2933	1452.6545	65535	64634.75
886.4368	1454.4804	65535	64637.5
886.5802	1456.3056	65535	64629.4
886.7237	1458.13	65535	64636.2
886.8671	1459.9536	65535	64636.25
887.0105	1461.7766	65535	64636.2
887.1539	1463.5987	65535	64635.65
887.2972	1465.4202	65535	64635.05
887.4406	1467.2409	65535	64634.45
887.584	1469.0608	65535	64636
887.7273	1470.88	65535	64636.45
887.8706	1472.6984	65535	64637.2
888.0139	1474.5161	65535	64633.6
888.1572	1476.3331	65535	64637.65
888.3005	1478.1493	65535	64636.4
888.4438	1479.9648	65535	64637.65
888.5871	1481.7795	65535	64634.75
888.7303	1483.5935	65535	64634.9
888.8736	1485.4067	65535	64636
889.0168	1487.2192	65535	64636.2
889.16	1489.031	65535	64631.5
889.3032	1490.842	65535	64637.4
889.4464	1492.6522	65535	64640
889.5896	1494.4618	65535	64633.3
889.7327	1496.2705	65535	64636
889.8759	1498.0785	65535	64635.55
890.019	1499.8858	65535	64634.5
890.1622	1501.6924	65535	64636.55
890.3053	1503.4981	65535	64636.8
890.4484	1505.3032	65535	64635.75
890.5914	1507.1075	65535	64636.75
890.7345	1508.911	65535	64638.45
890.8776	1510.7138	65535	64636.25
891.0206	1512.5159	65535	64634.3
891.1637	1514.3172	65530.85	64631.4
891.3067	1516.1178	65535	64637.45
891.4497	1517.9176	65535	64633.4
891.5927	1519.7166	65535	64638.95
891.7357	1521.515	65532.65	64627.65
891.8786	1523.3126	65499.8	64600.6
892.0216	1525.1094	65532.7	64633.1
892.1645	1526.9055	65521.15	64623.25
892.3074	1528.7008	65524.55	64626.6
892.4503	1530.4954	65468.5	64563.05
892.5932	1532.2893	65528.85	64630.2
892.7361	1534.0824	65452.5	64550.2
892.879	1535.8747	65329.75	64431.8
893.0218	1537.6663	65524.65	64627.25
893.1647	1539.4572	65014.25	64114.95
893.3075	1541.2473	65300.4	64402.4
893.4503	1543.0367	65238.55	64342.6
893.5931	1544.8253	65161.9	64261.1
893.7359	1546.6132	65223.75	64322.1
893.8787	1548.4003	65011.8	64105.45
894.0214	1550.1867	64916.65	64008.95
894.1642	1551.9723	64814.05	63911.2
894.3069	1553.7572	64867	63969.9
894.4496	1555.5414	65052	64155.2
894.5923	1557.3247	63732.25	62834.65
894.735	1559.1074	64871.45	63975.6
894.8777	1560.8893	64397.85	63500.5
895.0204	1562.6705	64622.05	63726
895.163	1564.4509	63779.85	62882.4
895.3056	1566.2305	64170.3	63275.5
895.4482	1568.0094	64668.65	63771.7
895.5908	1569.7876	64276.1	63379.7
895.7334	1571.565	63655.85	62758.3
895.876	1573.3417	64020.15	63125.85
896.0186	1575.1176	63857.95	62961.3
896.1611	1576.8928	63586.4	62690.5
896.3036	1578.6672	62975.45	62078.9
896.4461	1580.4409	63300.55	62406.4
896.5886	1582.2138	62433.05	61535.25
896.7311	1583.986	62673.35	61776.85
896.8736	1585.7575	61876.6	60981.85
897.0161	1587.5282	61998.9	61104
897.1585	1589.2981	62063.2	61168.05
897.3009	1591.0673	61346	60450.4
897.4433	1592.8358	60825.65	59931.8
897.5857	1594.6035	61273.9	60376.8
897.7281	1596.3704	61364.15	60465.15
897.8705	1598.1366	60435.5	59538.25
898.0128	1599.9021	59922.5	59025.05
898.1551	1601.6668	60547.2	59650.55
898.2975	1603.4308	60217.2	59319.6
898.4398	1605.194	60477.3	59574.9
898.5821	1606.9564	59232.95	58338.3
898.7243	1608.7182	59820.75	58921.95
898.8666	1610.4791	59293.75	58400.85
899.0088	1612.2394	59770.8	58876.55
899.1511	1613.9988	59292.1	58399.15
899.2933	1615.7576	59964.6	59069.5
899.4355	1617.5156	59909.75	59010.55
899.5776	1619.2728	60657.55	59761.2
899.7198	1621.0293	59499.95	58606.65
899.862	1622.785	59563.2	58662.5
900.0041	1624.54	59920.45	59021.4
900.1462	1626.2942	59297.8	58401.5
900.2883	1628.0477	58243.9	57347.1
900.4304	1629.8005	57671.35	56773.65
900.5725	1631.5525	58163.45	57270.25
900.7145	1633.3037	57108.15	56214.05
900.8566	1635.0542	57060.35	56164.55
900.9986	1636.804	57110.3	56213.55
901.1406	1638.553	56446.65	55442.2
901.2826	1640.3013	56452.75	55560.75
901.4245	1642.0488	55934.75	55040.2
901.5665	1643.7955	56158.75	55263.95
901.7085	1645.5416	55803.9	54907.4
901.8504	1647.2868	55548.05	54655.8
901.9923	1649.0313	55920.85	55027.9
902.1342	1650.7751	55663.8	54764.95
902.2761	1652.5181	55391.9	54497.65
902.4179	1654.2604	55500.4	54607.45
902.5598	1656.0019	55948.5	55055
902.7016	1657.7427	55798.9	54905.75
902.8434	1659.4828	56227.1	55331.85
902.9852	1661.222	56087.15	55191.8
903.127	1662.9606	56215.8	55323.35
903.2687	1664.6984	55738.55	54842.8
903.4105	1666.4354	55614.8	54722.15
903.5522	1668.1717	54641.2	53746.15
903.6939	1669.9072	53962.35	53067.85
903.8356	1671.642	53671	52773.6
903.9773	1673.3761	53258.65	52364.5
904.119	1675.1094	52840.3	51946.25
904.2606	1676.8419	52401.85	51508.55
904.4022	1678.5737	52152.15	51256.7
904.5439	1680.3048	51926.6	51031.65
904.6855	1682.0351	51592.3	50697.4
904.827	1683.7646	51278.25	50380.15
904.9686	1685.4934	51232.3	50337.7
905.1101	1687.2215	50626.35	49731.65
905.2517	1688.9488	50755.6	49862.05
905.3932	1690.6754	50109.85	49216.65
905.5347	1692.4012	50103.9	49209.55
905.6761	1694.1263	50016.75	49123.15
905.8176	1695.8506	49772.85	48878.5
905.9591	1697.5742	49610.15	48716
906.1005	1699.297	49325.5	48431.6
906.2419	1701.0191	49100.45	48207.45
906.3833	1702.7404	48843.7	47949.45
906.5246	1704.461	48566.2	47672.25
906.666	1706.1808	48457.8	47564.2
906.8073	1707.8999	48272.7	47378.05
906.9487	1709.6182	48125.3	47232.7
907.09	1711.3358	47970.35	47078.4
907.2313	1713.0527	47787.4	46894.4
907.3725	1714.7688	47637.8	46738.8
907.5138	1716.4841	47312.75	46418.15
907.655	1718.1987	47326.25	46426.2
907.7962	1719.9126	47103.85	46210.1
907.9374	1721.6257	46914.15	46018.2
908.0786	1723.338	46825.1	45931.9
908.2198	1725.0496	46498.65	45604.05
908.3609	1726.7605	46406.65	45514.55
908.502	1728.4706	46285.65	45394.3
908.6431	1730.18	45992.35	45096.05
908.7842	1731.8886	45909.85	45017.45
908.9253	1733.5964	45747.05	44832.85
909.0664	1735.3036	45543.25	44647.1
909.2074	1737.0099	45483.55	44590.85
909.3484	1738.7156	45285.15	44393.8
909.4894	1740.4204	45082.25	44186.95
909.6304	1742.1246	45033.3	44140.5
909.7714	1743.8279	44886.35	43994.35
909.9123	1745.5306	44795.05	43902.9
910.0532	1747.2325	44597.4	43702.35
910.1941	1748.9336	44446.8	43553.2
910.335	1750.634	44237.5	43342.35
910.4759	1752.3336	44157.45	43263.25
910.6168	1754.0325	44058.4	43167.95
910.7576	1755.7307	43943.15	43050.75
910.8984	1757.4281	43870.65	42977.45
911.0392	1759.1247	43744.5	42842.75
911.18	1760.8206	43578.3	42678
911.3208	1762.5158	43519.9	42624.7
911.4615	1764.2102	43240.75	42346.25
911.6022	1765.9039	43084.4	42190.1
911.7429	1767.5968	43068.55	42176.4
911.8836	1769.289	42903.95	42009.6
912.0243	1770.9804	42811.65	41921.15
912.1649	1772.6711	42705.85	41812.1
912.3056	1774.361	42556.85	41660.3
912.4462	1776.0502	42473.2	41580.4
912.5868	1777.7386	42330.05	41434.8
912.7274	1779.4263	42162.35	41270.65
912.8679	1781.1132	42116.95	41225.75
913.0084	1782.7994	41987.9	41095.35
913.149	1784.4849	41915.95	41022.8
913.2895	1786.1696	41633.5	40734.65
913.4299	1787.8535	41612.75	40720.1
913.5704	1789.5367	41480.95	40589.45
913.7108	1791.2192	41383.6	40491.95
913.8513	1792.9009	41212.75	40289.85
913.9917	1794.5818	41081.6	40187.6
914.132	1796.2621	40998.25	40107.7
914.2724	1797.9415	40850.65	39958.85
914.4128	1799.6202	40722.6	39829.15
914.5531	1801.2982	40642.4	39751.35
914.6934	1802.9755	40484.7	39590.75
914.8337	1804.6519	40399.75	39504
914.9739	1806.3277	40201.5	39307.35
915.1142	1808.0027	40032.6	39140.85
915.2544	1809.6769	39995.4	39102.05
915.3946	1811.3504	39850.3	38957.35
915.5348	1813.0231	39741.6	38846.75
915.675	1814.6951	39676.05	38782.95
915.8151	1816.3664	39677.05	38782.9
915.9553	1818.0369	39432.2	38539.15
916.0954	1819.7067	39347.9	38457.1
916.2355	1821.3757	39279.65	38387.6
916.3755	1823.044	39223.05	38328.85
916.5156	1824.7115	39077.2	38183.95
916.6556	1826.3783	38922.15	38030.2
916.7956	1828.0443	38754.4	37864.15
916.9356	1829.7096	38675.75	37781.75
917.0756	1831.3741	38631.05	37735.4
917.2155	1833.0379	38473.8	37582.4
917.3555	1834.701	38352.35	37457.4
917.4954	1836.3633	38285.8	37392
917.6353	1838.0248	38144.95	37251.7
917.7751	1839.6856	38055.75	37165.15
917.915	1841.3457	37970.65	37078.05
918.0548	1843.005	37921.75	37028.95
918.1946	1844.6636	37799.65	36906
918.3344	1846.3214	37686.5	36794.2
918.4742	1847.9785	37612.9	36721.25
918.6139	1849.6349	37487.25	36596.1
918.7537	1851.2904	37476.6	36575.6
918.8934	1852.9453	37259.75	36368.1
919.0331	1854.5994	37133.25	36237.45
919.1727	1856.2528	37192.05	36296.4
919.3124	1857.9054	37033.7	36141.15
919.452	1859.5572	36979.6	36088.05
919.5916	1861.2083	36880.55	35988
919.7312	1862.8587	36812.1	35918.75
919.8708	1864.5084	36714	35821.05
920.0103	1866.1572	36560.45	35666.25
920.1498	1867.8054	36389.05	35498.3
920.2893	1869.4528	36365.4	35474.5
920.4288	1871.0994	36228.5	35338.1
920.5683	1872.7453	36115.6	35222.6
920.7077	1874.3905	36042.5	35145.65
920.8471	1876.0349	35898.5	35004.1
920.9865	1877.6786	35891.7	34995.25
921.1259	1879.3215	35849	34957.4
921.2653	1880.9637	35669.55	34776.2
921.4046	1882.6051	35592.05	34699.4
921.5439	1884.2458	35510.15	34613.85
921.6832	1885.8858	35321.5	34429.45
921.8225	1887.525	35248	34352.5
921.9617	1889.1634	35128.8	34236.9
922.101	1890.8011	35045.3	34152.85
922.2402	1892.4381	34898.4	34005.7
922.3794	1894.0743	34835.7	33945.2
922.5185	1895.7098	34743.9	33853.25
922.6577	1897.3446	34688.95	33797.05
922.7968	1898.9786	34540.55	33643.6
922.9359	1900.6118	34492.6	33600.95
923.075	1902.2443	34275.6	33380.8
923.214	1903.8761	34162.65	33269.45
923.3531	1905.5071	33983.7	33090.8
923.4921	1907.1374	33850.9	32957.2
923.6311	1908.7669	33806.95	32915.15
923.77	1910.3957	33762.55	32871.4
923.909	1912.0237	33579	32685.95
924.0479	1913.651	33479.1	32583.85
924.1868	1915.2776	33385.3	32494.1
924.3257	1916.9034	33214.05	32321.15
924.4646	1918.5285	33010.75	32117.55
924.6034	1920.1528	32918.85	32026.85
924.7422	1921.7764	32808.95	31918.25
924.881	1923.3992	32662.4	31770.8
925.0198	1925.0213	32485.55	31592.05
925.1586	1926.6427	32362.05	31472
925.2973	1928.2633	32355.35	31356.6
925.436	1929.8832	32189	31296.55
925.5747	1931.5023	32027.8	31136.4
925.7134	1933.1207	31971	31077.2
925.852	1934.7383	31861.45	30970.4
925.9906	1936.3552	31735.4	30845.65
926.1292	1937.9714	31646.5	30755.9
926.2678	1939.5868	31501.8	30607.05
926.4064	1941.2015	31300.1	30406.6
926.5449	1942.8154	31201.55	30309.15
926.6834	1944.4286	31026.15	30133.8
926.8219	1946.041	30913.5	30003.85
926.9604	1947.6528	30730.9	29835.85
927.0988	1949.2637	30695.85	29803.85
927.2372	1950.8739	30568.8	29675.95
927.3756	1952.4834	30526.1	29632.6
927.514	1954.0921	30414.55	29521
927.6523	1955.7001	30272.55	29376.3
927.7907	1957.3074	30223.4	29331.75
927.929	1958.9139	30005.65	29113.7
928.0673	1960.5197	29982.1	29089.15
928.2055	1962.1247	29820.2	28926.2
928.3438	1963.729	29694.9	28806.4
928.482	1965.3325	29576.75	28660.95
928.6202	1966.9353	29457.6	28566.1
928.7584	1968.5374	29374.45	28480.35
928.8965	1970.1387	29211.7	28318.5
929.0346	1971.7393	29145.65	28253.55
929.1727	1973.3392	29069.65	28177.05
929.3108	1974.9383	28940.3	28050.45
929.4489	1976.5366	28760.25	27868.2
929.5869	1978.1342	28764.75	27871.55
929.7249	1979.7311	28668.2	27776.55
929.8629	1981.3273	28588.55	27695.8
930.0009	1982.9227	28482.3	27588.45
930.1388	1984.5173	28350.1	27457.15
930.2767	1986.1112	28202.8	27312
930.4146	1987.7044	28161.4	27271.9
930.5525	1989.2968	28053.45	27162.55
930.6904	1990.8885	27963.7	27069.75
930.8282	1992.4795	27920.85	27027.3
930.966	1994.0697	27760.6	26868.6
931.1038	1995.6592	27662.9	26770.7
931.2415	1997.2479	27597.9	26704.65
931.3793	1998.8359	27493.25	26602.45
931.517	2000.4232	27361.05	26470.05
931.6547	2002.0097	27283.15	26394.65
931.7923	2003.5955	27095.7	26202.7
931.93	2005.1805	27098.95	26205.6
932.0676	2006.7648	27027.8	26136.05
932.2052	2008.3484	26901.65	26010.25
932.3427	2009.9312	26908.55	26014.3
932.4803	2011.5133	26775.85	25886.8
932.6178	2013.0946	26677.35	25786.7
932.7553	2014.6752	26605.35	25714.85
932.8928	2016.2551	26539.6	25647.65
933.0302	2017.8342	26389.4	25498.1
933.1676	2019.4126	26290.9	25402.05
933.305	2020.9902	26165.3	25275.5
933.4424	2022.5672	26127.5	25236.2
933.5798	2024.1433	26061.15	25165.35
933.7171	2025.7188	25943.3	25052.75
933.8544	2027.2935	25848.4	24955.95
933.9917	2028.8674	25772.2	24882.85
934.129	2030.4406	25654.95	24765.9
934.2662	2032.0131	25559.35	24667.5
934.4034	2033.5849	25466.5	24569.5
934.5406	2035.1559	25427.25	24536.2
934.6778	2036.7261	25367.8	24478.05
934.8149	2038.2957	25296.6	24403.9
934.952	2039.8645	25253.55	24361.95
935.0891	2041.4325	25185.85	24292.7
935.2262	2042.9998	25058.75	24168.15
935.3632	2044.5664	24970.2	24077.2
935.5002	2046.1323	24919.55	24028.2
935.6372	2047.6974	24830.3	23940.25
935.7742	2049.2617	24771.15	23880.3
935.9111	2050.8254	24755.75	23844.1
936.048	2052.3883	24677.65	23784.75
936.1849	2053.9504	24582.05	23689.65
936.3218	2055.5118	24467.8	23575
936.4586	2057.0725	24344.1	23449.7
936.5955	2058.6325	24307.7	23417.1
936.7323	2060.1917	24204.1	23313.35
936.869	2061.7502	24169	23275.75
937.0058	2063.3079	24003.8	23112.95
937.1425	2064.8649	23950.4	23055.8
937.2792	2066.4212	23899.5	23006.75
937.4159	2067.9767	23832.65	22941.25
937.5525	2069.5315	23691.35	22799.1
937.6891	2071.0856	23584.75	22694.15
937.8257	2072.6389	23495	22602.8
937.9623	2074.1915	23397.2	22509.2
938.0989	2075.7433	23279.9	22387.25
938.2354	2077.2945	23255.9	22366.05
938.3719	2078.8448	23146.7	22253.75
938.5084	2080.3945	23069.05	22177.05
938.6448	2081.9434	23053.7	22163.05
938.7812	2083.4916	22915.75	22025.6
938.9176	2085.039	22834.85	21940.95
939.054	2086.5857	22829.45	21934.3
939.1903	2088.1317	22735.45	21843.75
939.3267	2089.677	22707.25	21813.8
939.463	2091.2215	22579.65	21688.7
939.5992	2092.7652	22526	21633.15
939.7355	2094.3083	22484.6	21593.6
939.8717	2095.8506	22420.25	21529.35
940.0079	2097.3921	22390.5	21499
940.1441	2098.933	22311.55	21420.6
940.2802	2100.4731	22261.25	21369.15
940.4163	2102.0124	22215.6	21315.4
940.5524	2103.5511	22118.75	21227.25
940.6885	2105.089	22090.55	21197.8
940.8245	2106.6261	22020.1	21128.45
940.9606	2108.1626	21936	21045.2
941.0965	2109.6983	21902.35	20981.1
941.2325	2111.2332	21793.3	20901.05
941.3684	2112.7675	21687.65	20793.45
941.5044	2114.301	21639.55	20743.7
941.6403	2115.8337	21622.3	20731
941.7761	2117.3657	21558.9	20666
941.912	2118.897	21496.15	20604
942.0478	2120.4276	21420.65	20521.2
942.1835	2121.9575	21307.1	20414.75
942.3193	2123.4866	21284.35	20379.05
942.455	2125.0149	21215	20320.15
942.5907	2126.5426	21115.3	20224.3
942.7264	2128.0695	21078.45	20184.9
942.8621	2129.5956	21010.85	20121.25
942.9977	2131.1211	20985.35	20090.35
943.1333	2132.6458	20915.05	20026.15
943.2689	2134.1698	20859.1	19964.95
943.4044	2135.693	20829.25	19935.5
943.54	2137.2155	20738.8	19843.65
943.6755	2138.7373	20696.9	19805.1
943.8109	2140.2584	20577.1	19686.25
943.9464	2141.7787	20519.6	19622.85
944.0818	2143.2983	20403.05	19512.45
944.2172	2144.8171	20313.9	19423.75
944.3526	2146.3353	20271.5	19377.7
944.4879	2147.8527	20196.75	19306.1
944.6232	2149.3693	20175.9	19283.9
944.7585	2150.8853	20069.7	19178.85
944.8938	2152.4005	19947.1	19054.1
945.029	2153.9149	19916.2	19022.85
945.1642	2155.4287	19884.6	18991.65
945.2994	2156.9417	19810.85	18918.65
945.4346	2158.454	19758.45	18861.7
945.5697	2159.9655	19698.45	18806.1
945.7048	2161.4764	19679.65	18789.15
945.8399	2162.9865	19605.8	18714.1
945.9749	2164.4958	19558	18665.2
946.1099	2166.0045	19457.15	18561.7
946.2449	2167.5124	19436.5	18543.35
946.3799	2169.0195	19342.3	18450.4
946.5148	2170.526	19345.5	18452.35
946.6498	2172.0317	19246.45	18354.7
946.7846	2173.5367	19182.9	18292.65
946.9195	2175.0409	19124.55	18234.25
947.0543	2176.5445	19140.15	18248.8
947.1891	2178.0473	19033.75	18142.55
947.3239	2179.5494	18927.45	18029.5
947.4587	2181.0507	18886.6	17994.3
947.5934	2182.5513	18809.95	17918.55
947.7281	2184.0512	18796.7	17904.8
947.8628	2185.5504	18710.25	17819.2
947.9974	2187.0488	18584.05	17692.25
948.132	2188.5465	18513.55	17622.55
948.2666	2190.0435	18474.2	17581.65
948.4012	2191.5397	18373.95	17482.25
948.5357	2193.0353	18339.85	17447.95
948.6702	2194.5301	18245.95	17351.5
948.8047	2196.0241	18199.15	17307.25
948.9392	2197.5175	18124.5	17232.3
949.0736	2199.0101	18058.95	17164.1
949.208	2200.502	17929.9	17038.75
949.3424	2201.9931	17881	16989.6
949.4767	2203.4835	17810.8	16918.9
949.611	2204.9733	17806.8	16908.65
949.7453	2206.4622	17758.7	16866.2
949.8796	2207.9505	17637.2	16742.3
950.0138	2209.438	17569.55	16678
950.148	2210.9248	17509.3	16614.45
950.2822	2212.4109	17462.45	16570.75
950.4164	2213.8962	17379.4	16482.9
950.5505	2215.3809	17337.2	16443.15
950.6846	2216.8648	17329.3	16435.85
950.8186	2218.3479	17257.8	16361
950.9527	2219.8304	17172.9	16278.3
951.0867	2221.3121	17107.1	16212.95
951.2207	2222.7931	17033.6	16142.65
951.3546	2224.2733	16992.25	16100.7
951.4886	2225.7529	16939.1	16046.25
951.6225	2227.2317	16840.55	15948.75
951.7563	2228.7098	16843.1	15952.35
951.8902	2230.1872	16715.2	15823.25
952.024	2231.6638	16703.55	15811.25
952.1578	2233.1397	16626.55	15727.75
952.2916	2234.6149	16593.95	15702.2
952.4253	2236.0894	16530.45	15639.1
952.559	2237.5632	16474.45	15571.4
952.6927	2239.0362	16400.9	15508.9
952.8263	2240.5085	16358.65	15467.25
952.9599	2241.9801	16256.25	15364
953.0935	2243.4509	16232.45	15340.6
953.2271	2244.921	16167.1	15275.3
953.3606	2246.3904	16095.25	15200
953.4941	2247.8591	16062.35	15168.3
953.6276	2249.3271	16010.45	15118.9
953.7611	2250.7943	15967.1	15074.55
953.8945	2252.2608	15884.1	14992.15
954.0279	2253.7266	15830.4	14938.7
954.1612	2255.1917	15810	14918
954.2946	2256.656	15730.7	14839.05
954.4279	2258.1197	15646.05	14754.05
954.5612	2259.5826	15627.1	14733.85
954.6944	2261.0447	15579.1	14686.15
954.8276	2262.5062	15478.55	14583.95
954.9608	2263.9669	15490.8	14597.2
955.094	2265.4269	15451.95	14561.95
955.2271	2266.8862	15400.6	14507.75
955.3602	2268.3448	15356.15	14463.75
955.4933	2269.8026	15315.5	14423.8
955.6264	2271.2598	15288.9	14398.65
955.7594	2272.7162	15207.3	14315.5
955.8924	2274.1719	15168.7	14274.85
956.0253	2275.6268	15085.7	14193.3
956.1583	2277.0811	15073.9	14179.7
956.2912	2278.5346	15016.3	14125.3
956.4241	2279.9874	14960.5	14067.25
956.5569	2281.4395	14951.4	14060.85
956.6897	2282.8908	14878.7	13982.4
956.8225	2284.3414	14860	13965.75
956.9553	2285.7914	14786.8	13896.05
957.088	2287.2406	14735.5	13842.1
957.2207	2288.689	14714	13821
957.3534	2290.1368	14651	13758
957.486	2291.5838	14618.5	13725.05
957.6186	2293.0302	14563.05	13671
957.7512	2294.4758	14497.2	13605.35
957.8838	2295.9206	14437.15	13541.45
958.0163	2297.3648	14371.1	13478.85
958.1488	2298.8082	14382.05	13488.35
958.2813	2300.251	14324.65	13431.2
958.4137	2301.693	14268.2	13372.45
958.5461	2303.1343	14261.9	13367.8
958.6785	2304.5748	14156.65	13263.35
958.8108	2306.0147	14118.8	13225.5
958.9432	2307.4538	14081.15	13186.2
959.0754	2308.8922	14046.35	13154.65
959.2077	2310.3299	14001.4	13108.8
959.3399	2311.7669	13965.6	13075.25
959.4721	2313.2031	13920.4	13029.05
959.6043	2314.6387	13884.25	12991.15
959.7365	2316.0735	13774.45	12882.2
959.8686	2317.5076	13748.55	12856.9
960.0006	2318.941	13748.9	12857.05
960.1327	2320.3737	13692.2	12798.45
960.2647	2321.8056	13645	12751.65
960.3967	2323.2369	13576	12681.95
960.5287	2324.6674	13553.7	12658.65
960.6606	2326.0972	13488.5	12597.15
960.7925	2327.5263	13439.45	12548.65
960.9244	2328.9547	13387.85	12497.2
961.0562	2330.3823	13396.6	12502.35
961.1881	2331.8092	13368.4	12473
961.3198	2333.2355	13287.15	12395.55
961.4516	2334.661	13259.8	12368.3
961.5833	2336.0858	13211.95	12318
961.715	2337.5098	13179.25	12288
961.8467	2338.9332	13149.4	12256.1
961.9783	2340.3558	13100.65	12204.95
962.1099	2341.7778	13060.6	12168.85
962.2415	2343.199	13003.2	12107.85
962.373	2344.6195	12962.4	12070.85
962.5045	2346.0393	12923.2	12031.5
962.636	2347.4583	12908.1	12015.25
962.7675	2348.8767	12840.95	11949
962.8989	2350.2943	12815.7	11920.3
963.0303	2351.7113	12777.55	11884.5
963.1617	2353.1275	12700.7	11807.9
963.293	2354.543	12682.5	11766.05
963.4243	2355.9578	12646.3	11752.7
963.5556	2357.3718	12546.85	11655.5
963.6868	2358.7852	12510.15	11617.55
963.818	2360.1978	12459.85	11568.6
963.9492	2361.6098	12449.95	11559.35
964.0803	2363.021	12378.3	11482.75
964.2114	2364.4315	12340.45	11449.4
964.3425	2365.8413	12311.3	11417.65
964.4736	2367.2504	12257.8	11367.65
964.6046	2368.6587	12188.65	11297.25
964.7356	2370.0664	12154.3	11265.35
964.8666	2371.4733	12097.75	11207.1
964.9975	2372.8795	12091.55	11200.3
965.1284	2374.285	12038.95	11145.95
965.2593	2375.6899	11948.05	11055.95
965.3901	2377.0939	11898	11007.05
965.5209	2378.4973	11827.8	10936.8
965.6517	2379.9	11814	10922.6
965.7825	2381.3019	11784.7	10894.4
965.9132	2382.7032	11735.45	10845.2
966.0439	2384.1037	11702.8	10813.55
966.1745	2385.5035	11656.7	10767.35
966.3051	2386.9027	11618.35	10726.5
966.4357	2388.3011	11593.65	10700.2
966.5663	2389.6987	11523.8	10631.4
966.6968	2391.0957	11527.4	10636.9
966.8273	2392.492	11465.1	10575.05
966.9578	2393.8876	11388.2	10495.3
967.0882	2395.2824	11321.9	10429.45
967.2186	2396.6765	11257.3	10365.55
967.349	2398.07	11207.9	10315.45
967.4793	2399.4627	11210.4	10317.9
967.6097	2400.8547	11186.6	10296.05
967.7399	2402.246	11150.65	10254.65
967.8702	2403.6366	11091.7	10200.15
968.0004	2405.0265	11028.45	10136.4
968.1306	2406.4156	10970.2	10074.1
968.2607	2407.8041	10931.2	10038.2
968.3909	2409.1918	10906.95	10012.7
968.521	2410.5789	10836.55	9946.45
968.651	2411.9652	10811.4	9915.55
968.781	2413.3508	10770.5	9881.15
968.911	2414.7358	10729.25	9838.6
969.041	2416.12	10682.2	9793.75
969.1709	2417.5035	10655.9	9765.35
969.3008	2418.8863	10625.75	9734.2
969.4307	2420.2684	10589.55	9697.8
969.5606	2421.6497	10552.05	9660.3
969.6904	2423.0304	10468.6	9576.85
969.8201	2424.4104	10468.6	9577.7
969.9499	2425.7896	10427.05	9528.25
970.0796	2427.1682	10389.3	9497.1
970.2093	2428.546	10364.05	9471.35
970.3389	2429.9232	10349.2	9456.35
970.4685	2431.2996	10287.55	9397.35
970.5981	2432.6753	10268.4	9378.25
970.7277	2434.0503	10258.2	9366.55
970.8572	2435.4246	10180.5	9290
970.9867	2436.7982	10154.4	9260.1
971.1161	2438.1711	10106.1	9214.6
971.2456	2439.5433	10090	9197.3
971.375	2440.9148	10060.55	9167.05
971.5043	2442.2856	9993.2	9102.1
971.6336	2443.6557	9978.05	9084.75
971.7629	2445.025	9927.35	9035.55
971.8922	2446.3937	9910.65	9017.45
972.0214	2447.7617	9877.1	8985
972.1506	2449.1289	9823.85	8932.6
972.2798	2450.4955	9821.1	8926.4
972.4089	2451.8613	9794.85	8904.55
972.538	2453.2265	9726	8834.45
972.6671	2454.5909	9722.3	8828.3
972.7961	2455.9546	9702.25	8811.55
972.9251	2457.3177	9685.65	8796.1
973.0541	2458.68	9654.7	8762
973.1831	2460.0416	9640.6	8748.8
973.312	2461.4025	9654.3	8761.8
973.4408	2462.7627	9596.8	8692.85
973.5697	2464.1222	9557.3	8667.2
973.6985	2465.4811	9519.5	8625.35
973.8273	2466.8392	9482	8589.45
973.956	2468.1966	9463.35	8569.55
974.0847	2469.5533	9453	8559.8
974.2134	2470.9093	9416.9	8525.6
974.3421	2472.2645	9369.25	8477.2
974.4707	2473.6191	9339.8	8448.05
974.5993	2474.973	9314.95	8421.55
974.7278	2476.3262	9260.5	8367.05
974.8563	2477.6787	9235.55	8343.95
974.9848	2479.0305	9202	8312.35
975.1132	2480.3816	9172.45	8280.15
975.2417	2481.7319	9136.45	8243.95
975.37	2483.0816	9090.2	8196.9
975.4984	2484.4306	9068.3	8176.25
975.6267	2485.7789	9011.75	8122.9
975.755	2487.1264	8994.05	8102.2
975.8833	2488.4733	8956.65	8067.55
976.0115	2489.8195	8929.1	8030.65
976.1397	2491.165	8889.65	7995.4
976.2678	2492.5097	8868.75	7974.75
976.3959	2493.8538	8836.45	7945.7
976.524	2495.1972	8789.9	7898.2
976.6521	2496.5398	8732.95	7839.9
976.7801	2497.8818	8746.55	7851.8
976.9081	2499.2231	8703.35	7811.55
977.036	2500.5637	8659.95	7767.85
977.164	2501.9035	8639.3	7745.5
977.2918	2503.2427	8610	7713.8
977.4197	2504.5812	8579.9	7687
977.5475	2505.919	8540.25	7648.75
977.6753	2507.256	8543.9	7652.2
977.8031	2508.5924	8481.3	7590.85
977.9308	2509.9281	8446.25	7548.75
978.0585	2511.2631	8427.55	7535.1
978.1861	2512.5974	8408.7	7517.9
978.3137	2513.9309	8401.4	7508.4
978.4413	2515.2638	8363.75	7437.55
978.5689	2516.596	8351.85	7460.25
978.6964	2517.9275	8258.9	7366.6
978.8239	2519.2583	8256.9	7364.25
978.9513	2520.5884	8202.15	7309.5
979.0788	2521.9178	8173.05	7280.5
979.2062	2523.2465	8158.1	7265.9
979.3335	2524.5745	8100	7207.25
979.4608	2525.9018	8121.55	7230.4
979.5881	2527.2284	8077.05	7185.75
979.7154	2528.5543	8072.85	7182.15
979.8426	2529.8796	8034.55	7141.95
979.9698	2531.2041	8026.1	7132.6
980.0969	2532.5279	7995.05	7104.8
980.224	2533.851	7977.8	7085.2
980.3511	2535.1735	7947.5	7055.5
980.4781	2536.4952	7927.3	7035.4
980.6052	2537.8163	7918.45	7026.6
980.7321	2539.1366	7876.2	6984.4
980.8591	2540.4562	7854.5	6960
980.986	2541.7752	7841.85	6950.55
981.1129	2543.0935	7831.75	6939.75
981.2397	2544.411	7819.05	6926.15
981.3665	2545.7279	7781.55	6890.65
981.4933	2547.0441	7761.4	6870.55
981.62	2548.3596	7752.75	6857.7
981.7467	2549.6744	7730.25	6837.6
981.8734	2550.9885	7688.3	6796.4
982.0001	2552.3019	7658.95	6768.2
982.1267	2553.6146	7648.95	6756.5
982.2532	2554.9266	7635.65	6743.85
982.3798	2556.2379	7595	6700.7
982.5063	2557.5485	7606.3	6714.45
982.6327	2558.8585	7591.65	6693.4
982.7592	2560.1677	7552.75	6654.75
982.8856	2561.4762	7518.55	6627
983.0119	2562.7841	7517.75	6624.15
983.1383	2564.0913	7498.4	6607.6
983.2646	2565.3977	7494.85	6604.45
983.3908	2566.7035	7452.45	6559.55
983.517	2568.0086	7471.35	6577.6
983.6432	2569.313	7446.65	6554.85
983.7694	2570.6167	7409.5	6513.35
983.8955	2571.9197	7392.6	6501
984.0216	2573.222	7404.35	6507.65
984.1476	2574.5236	7367.75	6475.3
984.2737	2575.8246	7343.35	6449.6
984.3996	2577.1248	7329.45	6434.3
984.5256	2578.4244	7319.8	6428.6
984.6515	2579.7232	7307.5	6417.65
984.7774	2581.0214	7298.1	6380.9
984.9032	2582.3189	7264.7	6373.95
985.029	2583.6157	7247.35	6350.45
985.1548	2584.9118	7234.45	6343.95
985.2806	2586.2072	7216.85	6325.15
985.4063	2587.5019	7180.55	6288.4
985.5319	2588.7959	7166.1	6274.35
985.6576	2590.0893	7169.45	6274.65
985.7832	2591.3819	7133.8	6243
985.9087	2592.6739	7120.45	6230
986.0343	2593.9652	7096.1	6203.2
986.1597	2595.2557	7064.7	6173.55
986.2852	2596.5456	7039.95	6145.9
986.4106	2597.8348	7024.55	6134.55
986.536	2599.1234	6987	6097.3
986.6614	2600.4112	6977.65	6085.7
986.7867	2601.6983	6962.5	6067
986.912	2602.9848	6921.35	6028.45
987.0372	2604.2705	6910.4	6011.3
987.1624	2605.5556	6879.5	5987.45
987.2876	2606.84	6867.75	5974.5
987.4128	2608.1237	6834.2	5942.4
987.5379	2609.4067	6827.5	5936.05
987.6629	2610.689	6806.25	5905.9
987.788	2611.9707	6767.3	5871.8
987.913	2613.2516	6734.1	5836.35
988.0379	2614.5319	6675.6	5785.2
988.1629	2615.8115	6666.7	5774.75
988.2878	2617.0903	6634.85	5741.75
988.4126	2618.3685	6624.95	5732.2
988.5375	2619.6461	6590.45	5697.1
988.6622	2620.9229	6584.95	5693.4
988.787	2622.199	6579.05	5685.35
988.9117	2623.4745	6535.85	5644.6
989.0364	2624.7493	6547.6	5655.6
989.161	2626.0234	6518.25	5625.75
989.2857	2627.2968	6499.1	5608.4
989.4102	2628.5695	6464.2	5569.5
989.5348	2629.8415	6435.3	5543.45
989.6593	2631.1128	6413.7	5519.85
989.7837	2632.3835	6393.8	5502.1
989.9082	2633.6535	6346.95	5455.75
990.0326	2634.9228	6327.7	5435.45
990.1569	2636.1914	6320.45	5428.6
990.2812	2637.4593	6315.8	5420.1
990.4055	2638.7265	6287.4	5394
990.5298	2639.9931	6240.2	5347.35
990.654	2641.259	6232.7	5337.75
990.7782	2642.5242	6223	5328.5
990.9023	2643.7887	6197.25	5305.95
991.0264	2645.0525	6197.2	5305.2
991.1505	2646.3156	6184.1	5292.25
991.2745	2647.5781	6145	5254.4
991.3985	2648.8398	6115.95	5224.75
991.5225	2650.1009	6109.95	5210.4
991.6464	2651.3613	6102.6	5209.6
991.7703	2652.6211	6072.55	5180.45
991.8942	2653.8801	6044.65	5153.35
992.018	2655.1385	6028.65	5133.55
992.1418	2656.3961	6015.2	5123.2
992.2655	2657.6531	5999.4	5107.3
992.3892	2658.9094	5989.75	5096.95
992.5129	2660.1651	5969.7	5078.8
992.6366	2661.42	5956.75	5062.9
992.7602	2662.6743	5943.2	5050.7
992.8837	2663.9279	5935.4	5045.45
993.0073	2665.1808	5923.55	5030.7
993.1307	2666.433	5879	4986.05
993.2542	2667.6846	5873.7	4980.85
993.3776	2668.9354	5871.35	4978.5
993.501	2670.1856	5850.55	4956.35
993.6244	2671.4351	5824.35	4932.7
993.7477	2672.6839	5828.25	4934.95
993.8709	2673.9321	5802.05	4909.95
993.9942	2675.1795	5777.3	4885.2
994.1174	2676.4263	5777.15	4885.65
994.2405	2677.6724	5775.55	4885.65
994.3637	2678.9179	5750	4859.05
994.4868	2680.1626	5729.6	4837.9
994.6098	2681.4067	5717.2	4826
994.7328	2682.6501	5690.4	4796.85
994.8558	2683.8928	5687.75	4797.2
994.9788	2685.1348	5651.65	4762.45
995.1017	2686.3761	5632.65	4739.9
995.2245	2687.6168	5612.85	4719.85
995.3474	2688.8568	5599.1	4707.5
995.4702	2690.0961	5573.1	4681.1
995.5929	2691.3348	5570.6	4679.1
995.7156	2692.5727	5569.35	4676.8
995.8383	2693.81	5525.95	4634.3
995.961	2695.0466	5512.95	4623.15
996.0836	2696.2826	5502.3	4610.05
996.2062	2697.5178	5501.6	4606.25
996.3287	2698.7524	5477.55	4584.2
996.4512	2699.9863	5449	4555.3
996.5737	2701.2195	5440.3	4548.9
996.6961	2702.452	5431.4	4538.05
996.8185	2703.6839	5397.65	4505.4
996.9408	2704.9151	5407.7	4516.85
997.0631	2706.1456	5381.9	4489.85
997.1854	2707.3755	5360.2	4467.7
997.3077	2708.6046	5354.3	4460.2
997.4299	2709.8331	5354.6	4461.45
997.552	2711.0609	5335.3	4443.8
997.6742	2712.2881	5314.9	4423.1
997.7963	2713.5145	5318.7	4424.7
997.9183	2714.7403	5320.3	4428.8
998.0403	2715.9654	5287.4	4396.55
998.1623	2717.1899	5295.8	4388
998.2842	2718.4136	5280.3	4389.85
998.4062	2719.6367	5267.5	4375
998.528	2720.8591	5273.8	4374
998.6498	2722.0809	5269.95	4376.6
998.7716	2723.3019	5244.9	4349.7
998.8934	2724.5223	5238.65	4344
999.0151	2725.7421	5236.3	4343.65
999.1368	2726.9611	5220.05	4325.05
999.2584	2728.1795	5209.6	4314.3
999.38	2729.3972	5179.25	4289.4
999.5016	2730.6142	5159.85	4260.7
999.6231	2731.8306	5127.95	4233.95
999.7446	2733.0462	5091.2	4198.5
999.8661	2734.2612	5044.95	4149.15
999.9875	2735.4756	5034.5	4141.95
1000.1089	2736.6892	5006.5	4115.7
1000.2302	2737.9022	4964.45	4073.5
1000.3515	2739.1145	4934.4	4042.3
1000.4728	2740.3262	4924.3	4024.75
1000.594	2741.5372	4898.25	4005.7
1000.7152	2742.7475	4866.4	3972.05
1000.8363	2743.9571	4852.8	3959.15
1000.9575	2745.1661	4814.7	3917.35
1001.0785	2746.3744	4778.2	3885.9
1001.1996	2747.582	4768.35	3876.1
1001.3206	2748.7889	4733.35	3839.35
1001.4415	2749.9952	4747.5	3855.3
1001.5625	2751.2008	4716.25	3822
1001.6833	2752.4057	4706.05	3812.3
1001.8042	2753.61	4673.8	3781.8
1001.925	2754.8136	4670.1	3777.05
1002.0458	2756.0165	4653.75	3762.05
1002.1665	2757.2188	4644.85	3752.85
1002.2872	2758.4204	4616.25	3723
1002.4078	2759.6213	4605.85	3711.65
1002.5285	2760.8215	4603.2	3707.6
1002.649	2762.0211	4589	3695.45
1002.7696	2763.22	4555.7	3661.6
1002.8901	2764.4182	4550.35	3658.75
1003.0106	2765.6158	4550.65	3659.8
1003.131	2766.8127	4515.9	3623.2
1003.2514	2768.009	4504.4	3612.9
1003.3717	2769.2045	4509.55	3616.25
1003.492	2770.3994	4492.4	3599.75
1003.6123	2771.5936	4455.6	3562.75
1003.7325	2772.7872	4452.15	3560.35
1003.8527	2773.9801	4432.2	3538.55
1003.9729	2775.1723	4421.8	3512.5
1004.093	2776.3639	4396.7	3505.05
1004.2131	2777.5548	4379.55	3485.5
1004.3331	2778.745	4381.35	3489.1
1004.4531	2779.9346	4362.05	3471.35
1004.5731	2781.1235	4360.7	3468.2
1004.693	2782.3117	4339.05	3448.1
1004.8129	2783.4992	4335.5	3442.2
1004.9328	2784.6861	4321.05	3429.55
1005.0526	2785.8723	4336.2	3440.95
1005.1723	2787.0579	4322.05	3428.9
1005.2921	2788.2428	4318.5	3427.4
1005.4118	2789.427	4294.65	3403.75
1005.5314	2790.6106	4301.8	3410.2
1005.651	2791.7935	4305.3	3414.05
1005.7706	2792.9757	4296.35	3403.95
1005.8902	2794.1573	4292.15	3397.65
1006.0097	2795.3382	4290.3	3397.75
1006.1291	2796.5184	4295	3402.8
1006.2485	2797.698	4301.45	3407.5
1006.3679	2798.8769	4308.8	3417.15
1006.4873	2800.0551	4292.15	3400.4
1006.6066	2801.2327	4297.65	3403.75
1006.7258	2802.4096	4321	3430.8
1006.8451	2803.5859	4331.5	3439.7
1006.9642	2804.7615	4328.55	3435.75
1007.0834	2805.9364	4336.3	3445.35
1007.2025	2807.1106	4344.7	3453.5
1007.3216	2808.2842	4364.05	3473
1007.4406	2809.4572	4394.1	3503.1
1007.5596	2810.6294	4412.5	3519.65
1007.6785	2811.801	4455.55	3562.6
1007.7975	2812.972	4482.75	3592
1007.9163	2814.1423	4519.25	3626.1
1008.0352	2815.3119	4547.95	3657.8
1008.154	2816.4808	4586.5	3696.95
1008.2727	2817.6491	4639.2	3746.75
1008.3914	2818.8167	4662.95	3774.3
1008.5101	2819.9837	4716.75	3821.75
1008.6288	2821.15	4748.6	3857.35
1008.7474	2822.3157	4764.6	3873.7
1008.8659	2823.4807	4812.05	3920.7
1008.9844	2824.645	4859	3966.85
1009.1029	2825.8086	4889.1	3996.35
1009.2214	2826.9716	4910.75	4019.3
1009.3398	2828.134	4929.95	4041.1
1009.4581	2829.2957	4953.55	4061.55
1009.5764	2830.4567	4987.9	4097.7
1009.6947	2831.617	4995.55	4102.45
1009.813	2832.7767	4996.45	4105.6
1009.9312	2833.9358	4991.6	4100.25
1010.0493	2835.0941	4994.45	4100.9
1010.1675	2836.2519	4977.4	4087.4
1010.2855	2837.4089	4957.65	4066.1
1010.4036	2838.5653	4945.65	4053.7
1010.5216	2839.7211	4921.55	4031.3
1010.6396	2840.8761	4929.95	4036.45
1010.7575	2842.0306	4934.45	4043.55
1010.8754	2843.1843	4970.8	4079.4
1010.9932	2844.3374	5007	4116.3
1011.111	2845.4899	5064	4172.65
1011.2288	2846.6417	5104.45	4214.45
1011.3465	2847.7928	5197.75	4307.3
1011.4642	2848.9433	5283.35	4391.7
1011.5818	2850.0931	5340.9	4447.05
1011.6995	2851.2422	5399.15	4506.55
1011.817	2852.3907	5479.15	4586.65
1011.9345	2853.5385	5526.4	4632
1012.052	2854.6857	5584.05	4664.55
1012.1695	2855.8323	5622.95	4731.85
1012.2869	2856.9781	5667.15	4777
1012.4042	2858.1233	5698.35	4807.95
1012.5216	2859.2679	5735.5	4844.35
1012.6389	2860.4118	5768.75	4876.25
1012.7561	2861.555	5807.8	4910.55
1012.8733	2862.6976	5824.1	4930.8
1012.9905	2863.8395	5858.65	4966.9
1013.1076	2864.9808	5864.65	4971.85
1013.2247	2866.1214	5873.95	4984.05
1013.3417	2867.2614	5887.15	4997.25
1013.4587	2868.4007	5868.85	4974.85
1013.5757	2869.5393	5884.05	4989.45
1013.6926	2870.6773	5899.8	5005.35
1013.8095	2871.8146	5905.3	5010.6
1013.9263	2872.9513	5886.55	4990.8
1014.0431	2874.0874	5855.05	4963.6
1014.1599	2875.2227	5835.65	4943.6
1014.2766	2876.3574	5799.65	4907.9
1014.3933	2877.4915	5812.6	4921.5
1014.51	2878.6249	5751.35	4859.5
1014.6266	2879.7577	5731.4	4839.55
1014.7431	2880.8898	5692	4789.4
1014.8596	2882.0212	5640.95	4749.25
1014.9761	2883.152	5627.75	4736.75
1015.0925	2884.2821	5615.75	4726.15
1015.2089	2885.4116	5589.45	4698.15
1015.3253	2886.5405	5561.55	4669.15
1015.4416	2887.6686	5591.4	4695.55
1015.5579	2888.7962	5574.15	4685.2
1015.6741	2889.923	5575.1	4683.75
1015.7903	2891.0493	5591.05	4699.8
1015.9065	2892.1748	5603.2	4712.3
1016.0226	2893.2997	5588.25	4696
1016.1387	2894.424	5576.8	4685.6
1016.2547	2895.5476	5590.25	4699.8
1016.3707	2896.6706	5596.1	4708.25
1016.4866	2897.7929	5629.5	4739.05
1016.6025	2898.9145	5657.75	4765.9
1016.7184	2900.0355	5680.55	4789.65
1016.8342	2901.1559	5686.75	4795.45
1016.95	2902.2756	5741.15	4844.3
1017.0658	2903.3946	5730.6	4839.15
1017.1815	2904.513	5771.5	4877.35
1017.2971	2905.6308	5781.85	4891.05
1017.4127	2906.7479	5790.85	4898
1017.5283	2907.8643	5824.5	4931
1017.6439	2908.9801	5815.95	4924.7
1017.7594	2910.0953	5809.3	4918.95
1017.8748	2911.2098	5809.1	4913.85
1017.9902	2912.3236	5795.7	4896.7
1018.1056	2913.4368	5774	4878.9
1018.2209	2914.5494	5743.75	4851.4
1018.3362	2915.6613	5715.7	4816.45
1018.4515	2916.7725	5701.1	4808.85
1018.5667	2917.8831	5644.45	4753.2
1018.6819	2918.9931	5610.55	4716.65
1018.797	2920.1024	5581.45	4689
1018.9121	2921.211	5531.15	4640.3
1019.0271	2922.319	5513	4621.95
1019.1421	2923.4264	5488.85	4600.9
1019.2571	2924.5331	5462.8	4573.15
1019.372	2925.6391	5439.5	4547
1019.4869	2926.7445	5425.35	4535.85
1019.6017	2927.8493	5427.35	4535.45
1019.7165	2928.9534	5396.8	4507.1
1019.8313	2930.0569	5385.1	4489.6
1019.946	2931.1597	5378.8	4485.55
1020.0606	2932.2619	5376.45	4485.7
1020.1753	2933.3634	5370.9	4478.5
1020.2899	2934.4643	5334.45	4435.3
1020.4044	2935.5645	5299.45	4403.6
1020.5189	2936.6641	5253.55	4358
1020.6334	2937.763	5195.8	4305.15
1020.7478	2938.8613	5158.65	4267.3
1020.8622	2939.959	5089.4	4192.7
1020.9765	2941.056	4998.8	4108.45
1021.0908	2942.1523	4899.05	4007.25
1021.2051	2943.248	4817.65	3925.85
1021.3193	2944.3431	4704.45	3813.9
1021.4334	2945.4375	4596.5	3704.9
1021.5476	2946.5313	4492.2	3601.35
1021.6617	2947.6244	4387.1	3494.7
1021.7757	2948.7169	4268.05	3375
1021.8897	2949.8087	4162.35	3271.25
1022.0037	2950.8999	4061.8	3170.55
1022.1176	2951.9904	3982.2	3092.25
1022.2315	2953.0803	3910.65	3019.55
1022.3453	2954.1696	3823.8	2932.65
1022.4591	2955.2582	3770.15	2879.25
1022.5728	2956.3462	3707.4	2818.25
1022.6865	2957.4335	3663.75	2773.05
1022.8002	2958.5202	3631.75	2737.9
1022.9138	2959.6062	3577.45	2686.15
1023.0274	2960.6916	3544.1	2653.15
1023.141	2961.7764	3520.8	2627.25
1023.2545	2962.8605	3515.85	2623.5
1023.3679	2963.9439	3496.85	2608.3
1023.4813	2965.0267	3473.15	2579.3
1023.5947	2966.1089	3483.25	2569.85
1023.708	2967.1905	3438.85	2549.25
1023.8213	2968.2714	3420.95	2531
1023.9346	2969.3516	3420.15	2529.25
1024.0478	2970.4312	3415.1	2516.15
1024.1609	2971.5102	3395.1	2504.35
1024.274	2972.5885	3405.6	2515.6
1024.3871	2973.6662	3384.85	2489.2
1024.5002	2974.7432	3366.1	2473.75
1024.6132	2975.8196	3363.4	2471.8
1024.7261	2976.8954	3353.8	2463.35
1024.839	2977.9705	3334.3	2442.65
1024.9519	2979.045	3319.55	2429.15
1025.0647	2980.1188	3298.35	2407.75
1025.1775	2981.192	3261.85	2370.95
1025.2902	2982.2645	3251.6	2358.4
1025.4029	2983.3364	3197.6	2305.95
1025.5156	2984.4077	3170.3	2280.55
1025.6282	2985.4783	3138.65	2241.95
1025.7407	2986.5483	3098.85	2210.85
1025.8532	2987.6177	3055	2164.85
1025.9657	2988.6864	3014.5	2122.3
1026.0782	2989.7545	3000.3	2107.95
1026.1906	2990.8219	2960.35	2070.15
1026.3029	2991.8887	2915.35	2022.2
1026.4152	2992.9548	2880.1	1988.25
1026.5275	2994.0204	2834.8	1945.35
1026.6397	2995.0852	2804.8	1917.15
1026.7519	2996.1495	2781.75	1890.2
1026.864	2997.2131	2744.85	1853.85
1026.9761	2998.276	2713.35	1821.8
1027.0882	2999.3383	2701.85	1813.25
1027.2002	3000.4	2676.65	1785.25
1027.3122	3001.4611	2652.85	1762.35
1027.4241	3002.5215	2633.1	1742.7
1027.536	3003.5812	2606.3	1714.25
1027.6478	3004.6404	2603.8	1714.55
1027.7596	3005.6989	2582.35	1689.85
1027.8714	3006.7567	2558.75	1668.2
1027.9831	3007.8139	2582.4	1669.4
1028.0947	3008.8705	2552.8	1662.25
1028.2064	3009.9264	2536.45	1642.35
1028.3179	3010.9818	2525.5	1634.8
1028.4295	3012.0364	2527.55	1635.2
1028.541	3013.0905	2515.7	1623.6
1028.6524	3014.1439	2506.85	1617.15
1028.7638	3015.1966	2500.65	1609.9
1028.8752	3016.2487	2492.9	1602.35
1028.9865	3017.3002	2491	1595.75
1029.0978	3018.3511	2479.85	1589.65
1029.209	3019.4013	2473.45	1581.75
1029.3202	3020.4509	2466.05	1577.35
1029.4314	3021.4998	2465.3	1573.65
1029.5425	3022.5481	2453.95	1563.55
1029.6535	3023.5958	2462.65	1572.35
1029.7645	3024.6428	2459.6	1568.45
1029.8755	3025.6892	2456.8	1566
1029.9864	3026.735	2440.8	1549.95
1030.0973	3027.7802	2448.35	1557.95
1030.2082	3028.8247	2437.85	1547.3
1030.319	3029.8685	2438.9	1548.35
1030.4297	3030.9118	2426.3	1535.45
1030.5404	3031.9544	2446.7	1556.8
1030.6511	3032.9963	2433.45	1542.65
1030.7617	3034.0376	2434.9	1545.15
1030.8723	3035.0783	2437.2	1544.35
1030.9829	3036.1184	2443.4	1551.4
1031.0934	3037.1578	2437.25	1548
1031.2038	3038.1966	2435.85	1541.9
1031.3142	3039.2348	2432.5	1542.2
1031.4246	3040.2723	2420.6	1521.15
1031.5349	3041.3092	2418.8	1528.8
1031.6452	3042.3455	2418.25	1528.8
1031.7554	3043.3811	2415.9	1524.9
1031.8656	3044.4161	2396.3	1505.95
1031.9758	3045.4505	2391.9	1500.05
1032.0859	3046.4842	2373.45	1483.85
1032.1959	3047.5173	2359.55	1468.95
1032.3059	3048.5498	2355.95	1465
1032.4159	3049.5816	2347.85	1457.8
1032.5258	3050.6128	2323.2	1432
1032.6357	3051.6434	2330.25	1439.1
1032.7455	3052.6734	2304.6	1413.7
1032.8553	3053.7027	2298.95	1408.8
1032.9651	3054.7314	2286.3	1396.6
1033.0748	3055.7594	2277.2	1388.8
1033.1845	3056.7868	2270	1378.95
1033.2941	3057.8136	2264.85	1373.9
1033.4037	3058.8398	2248.8	1359
1033.5132	3059.8653	2232.5	1342.95
1033.6227	3060.8902	2231.5	1341.8
1033.7321	3061.9145	2216.25	1325.5
1033.8415	3062.9381	2214.95	1323
1033.9509	3063.9612	2214.3	1307.5
1034.0602	3064.9835	2192.75	1301.25
1034.1694	3066.0053	2196.15	1304.45
1034.2787	3067.0264	2176.25	1286.85
1034.3878	3068.0469	2159	1267.1
1034.497	3069.0668	2168.65	1274.9
1034.6061	3070.086	2132.55	1244.5
1034.7151	3071.1046	2124.9	1235.4
1034.8241	3072.1226	2109.7	1218.95
1034.9331	3073.1399	2116	1225.25
1035.042	3074.1567	2091.25	1200.9
1035.1508	3075.1727	2076.45	1183.1
1035.2597	3076.1882	2060.8	1168.75
1035.3684	3077.203	2055.6	1163.7
1035.4772	3078.2173	2045.7	1153.1
1035.5859	3079.2308	2033.65	1140.85
1035.6945	3080.2438	2025.2	1130.55
1035.8031	3081.2561	2003.2	1111.45
1035.9117	3082.2678	2001	1110.1
1036.0202	3083.2789	1994.75	1104.5
1036.1286	3084.2893	1982.1	1090.65
1036.2371	3085.2991	1966.8	1075.2
1036.3454	3086.3083	1965.85	1068.95
1036.4538	3087.3169	1946.6	1056.9
1036.562	3088.3248	1943.1	1051.95
1036.6703	3089.3321	1935.25	1043.85
1036.7785	3090.3388	1920.75	1031.5
1036.8866	3091.3449	1921.55	1031.6
1036.9948	3092.3503	1907.7	1014.7
1037.1028	3093.3551	1897.3	1009
1037.2108	3094.3593	1906.8	1016.85
1037.3188	3095.3629	1882.25	991.7
1037.4267	3096.3658	1874.1	981.25
1037.5346	3097.3681	1873.6	982.45
1037.6425	3098.3698	1865	973.05
1037.7503	3099.3708	1874	977.8
1037.858	3100.3713	1850.9	960.85
1037.9657	3101.3711	1844	954.45
1038.0734	3102.3702	1953.8	950.25
1038.181	3103.3688	1841	946.35
1038.2886	3104.3667	1823.9	935.1
1038.3961	3105.364	1813.25	922.2
1038.5036	3106.3607	1824.1	934.25
1038.611	3107.3568	1814.65	923.8
1038.7184	3108.3522	1802.2	912.35
1038.8257	3109.347	1799.8	907.85
1038.933	3110.3412	1796.75	901.45
1039.0403	3111.3348	1787.05	896.2
1039.1475	3112.3277	1780.05	890.1
1039.2547	3113.32	1768.8	879.5
1039.3618	3114.3117	1769.6	878
1039.4689	3115.3028	1769.95	879.55
1039.5759	3116.2932	1764.7	872.6
1039.6829	3117.2831	1759.85	863.65
1039.7898	3118.2723	1753	861.7
1039.8967	3119.2608	1742.35	851.05
1040.0035	3120.2488	1740.3	848.5
1040.1103	3121.2361	1737.8	847.8
1040.2171	3122.2229	1729.6	841.4
1040.3238	3123.209	1725	833.9
1040.4305	3124.1944	1724.4	833.25
1040.5371	3125.1793	1718.75	825.9
1040.6437	3126.1635	1711.7	822.15
1040.7502	3127.1471	1708.3	818.3
1040.8567	3128.1301	1700.25	809.9
1040.9631	3129.1125	1698.1	810.2
1041.0695	3130.0942	1692.05	801.95
1041.1759	3131.0753	1700.05	801.25
1041.2822	3132.0558	1692.25	798.3
1041.3884	3133.0357	1676.9	785.25
1041.4946	3134.015	1671.4	779.85
1041.6008	3134.9936	1677.35	786.15
1041.7069	3135.9716	1695.25	783.65
1041.813	3136.949	1670.2	778.45
1041.919	3137.9258	1673.95	778.8
1042.025	3138.902	1668.65	771.55
1042.1309	3139.8775	1655.25	765.65
1042.2368	3140.8524	1658.85	769.5
1042.3427	3141.8267	1649.7	758.55
1042.4485	3142.8004	1645.95	756.1
1042.5542	3143.7735	1653	757.1
1042.6599	3144.7459	1637.15	743.3
1042.7656	3145.7178	1628.95	737.75
1042.8712	3146.689	1634.05	746.35
1042.9768	3147.6596	1624.3	733.25
1043.0823	3148.6295	1617.75	727.45
1043.1878	3149.5989	1625.4	735.25
1043.2932	3150.5676	1606.45	716.65
1043.3986	3151.5357	1605.65	717.25
1043.5039	3152.5032	1603.15	713.8
1043.6092	3153.4701	1602.4	712.4
1043.7145	3154.4364	1600.25	706.5
1043.8197	3155.402	1583.2	694.5
1043.9248	3156.367	1585.25	693.65
1044.03	3157.3315	1628.3	695.35
1044.135	3158.2952	1570.25	678.9
1044.24	3159.2584	1576.15	686.45
1044.345	3160.221	1566.05	676.05
1044.4499	3161.1829	1559.75	670.1
1044.5548	3162.1442	1568.65	678.4
1044.6596	3163.105	1559.95	669.65
1044.7644	3164.065	1550.5	660.05
1044.8692	3165.0245	1557.35	663.55
1044.9739	3165.9834	1541.55	652.8
1045.0785	3166.9416	1543.2	654.5
1045.1831	3167.8993	1534.15	643.1
1045.2877	3168.8563	1530.45	638.7
1045.3922	3169.8127	1538.9	648.05
1045.4966	3170.7684	1520.2	629.65
1045.6011	3171.7236	1526.3	633.85
1045.7054	3172.6782	1523.35	631.5
1045.8098	3173.6321	1520.25	628.7
1045.914	3174.5854	1518	622.2
1046.0183	3175.5381	1508.2	618.65
1046.1224	3176.4902	1507.4	618.45
1046.2266	3177.4417	1503.55	615.15
1046.3307	3178.3926	1494.85	605.25
1046.4347	3179.3428	1497.1	606.85
1046.5387	3180.2924	1494.85	603.3
1046.6427	3181.2415	1487.5	595.35
1046.7466	3182.1899	1489.8	599.95
1046.8504	3183.1377	1491.15	599.05
1046.9542	3184.0848	1492	599.15
1047.058	3185.0314	1484.5	592.35
1047.1617	3185.9773	1471	581.5
1047.2654	3186.9227	1467.8	578.9
1047.369	3187.8674	1468.2	577.8
1047.4726	3188.8115	1470.35	574.95
1047.5761	3189.755	1463.3	573.65
1047.6796	3190.6979	1459.8	569
1047.783	3191.6402	1456.5	567.2
1047.8864	3192.5818	1459.6	570.05
1047.9898	3193.5229	1476.7	563.15
1048.0931	3194.4633	1456	564.75
1048.1963	3195.4031	1449.95	558.85
1048.2995	3196.3423	1444.5	555.95
1048.4027	3197.2809	1445.2	555.7
1048.5058	3198.2189	1435.95	545.25
1048.6089	3199.1563	1447.5	550.25
1048.7119	3200.0931	1427.35	537.25
1048.8148	3201.0292	1419.7	529.6
1048.9178	3201.9648	1429.95	540.7
1049.0206	3202.8997	1428.2	535.85
1049.1235	3203.834	1419.9	528.9
1049.2262	3204.7677	1418.7	527.9
1049.329	3205.7008	1413.4	522.35
1049.4317	3206.6333	1405.65	517
1049.5343	3207.5652	1407.55	515.3
1049.6369	3208.4964	1406.95	516.6
1049.7394	3209.4271	1396.2	505.2
1049.8419	3210.3571	1397.65	507.75
1049.9444	3211.2865	1404.2	513.5
1050.0468	3212.2154	1398.45	506.35
1050.1491	3213.1436	1398.3	505.25
1050.2514	3214.0712	1400.9	503.2
1050.3537	3214.9982	1393.8	502.9
1050.4559	3215.9246	1388.65	498.65
1050.5581	3216.8503	1384.4	494.5
1050.6602	3217.7755	1380.9	493.25
1050.7623	3218.7001	1378.9	490.35
1050.8643	3219.624	1379.8	490.55
1050.9663	3220.5473	1378.35	487.3
1051.0682	3221.4701	1377.2	485.9
1051.1701	3222.3922	1371.35	480.15
1051.2719	3223.3137	1371.5	480.85
1051.3737	3224.2346	1363.65	473.35
1051.4754	3225.1549	1359.65	469.9
1051.5771	3226.0746	1360.55	470.15
1051.6788	3226.9937	1348.55	459.35
1051.7804	3227.9121	1359.65	469
1051.8819	3228.83	1350.05	462.45
1051.9834	3229.7473	1354.35	464.2
1052.0849	3230.6639	1344.2	454.05
1052.1863	3231.5799	1344.45	455.65
1052.2876	3232.4954	1348.3	456.85
1052.3889	3233.4102	1333	442.3
1052.4902	3234.3244	1335.85	445.6
1052.5914	3235.238	1328.45	436.1
1052.6926	3236.151	1353.7	440.4
1052.7937	3237.0634	1332.95	444.9
1052.8948	3237.9752	1328.35	440.8
1052.9958	3238.8864	1321.35	431
1053.0968	3239.797	1327.05	438.55
1053.1977	3240.7069	1319.7	430.65
1053.2986	3241.6163	1318.4	428.1
1053.3994	3242.5251	1317.95	428.8
1053.5002	3243.4332	1314.7	427.1
1053.6009	3244.3408	1310.9	419.9
1053.7016	3245.2477	1305.9	416.05
1053.8022	3246.154	1304.15	411.9
1053.9028	3247.0598	1295.35	403.15
1054.0034	3247.9649	1298.5	407.85
1054.1039	3248.8694	1292.65	403.3
1054.2043	3249.7733	1290.75	400.9
1054.3047	3250.6766	1289.85	401
1054.4051	3251.5793	1287	396.15
1054.5054	3252.4814	1286.05	396.9
1054.6056	3253.3829	1287.8	398.4
1054.7058	3254.2838	1274	382.95
1054.806	3255.1841	1275	385.65
1054.9061	3256.0838	1278.95	389.75
1055.0061	3256.9829	1271.7	384
1055.1062	3257.8814	1272.25	381.45
1055.2061	3258.7792	1263.1	371.6
1055.306	3259.6765	1259.2	367.85
1055.4059	3260.5731	1256.75	368.75
1055.5057	3261.4692	1249.35	359.1
1055.6055	3262.3647	1248.1	358.05
1055.7052	3263.2595	1244.65	353.25
1055.8049	3264.1538	1236.95	348.35
1055.9045	3265.0474	1232.1	340.4
1056.0041	3265.9404	1224.4	336.25
1056.1036	3266.8329	1220.85	332.8
1056.2031	3267.7247	1229.2	329.9
1056.3025	3268.616	1208	319.8
1056.4019	3269.5066	1196.1	307.5
1056.5013	3270.3966	1191.35	299.55
1056.6005	3271.286	1182.25	293.55
