Software Version:	3.9.2.0
Unit SN:	10000200
Spectrometer SN:	6960
Date:	3/6/2024 10:37:01 AM
Data Line Index:	25
Spectral Points:	2048
Integration time (ms):	125
Averages:	20
Delay (ms):	30
Sequence Number:	1
Processing:	dark subtract
Laser Power (mW):	305
Laser Current (mA):	823
Laser Diode Temp (C):	25
Laser Case Temp (C):	26.7
System Temp (C):	26.5
Spectrometer Temp (C):	23.8
CCD Temp (C):	-0.003
Secondary Temp (C):	20.008
Heatsink Temp (C):	22.169
CCDPCB Temp (C):	36.185
SecondaryPCB Temp (C):	33.506

Wavelength	RamanShift	Raw Counts	Dark Subtracted
787.061	30.1047	1136.8	723.55
787.2016	32.3739	1171.55	760.5
787.3422	34.6426	1218.55	805.7
787.4828	36.9109	1269.95	857.55
787.6235	39.1787	1326.7	908.7
787.7642	41.4461	1387.05	963.6
787.9049	43.7131	1462.5	1035.8
788.0456	45.9796	1520.5	1093.35
788.1863	48.2456	1583.9	1151.15
788.3271	50.5112	1659.1	1222.7
788.4679	52.7764	1734.15	1295.2
788.6087	55.0411	1811.5	1369.35
788.7496	57.3054	1895.25	1447.25
788.8904	59.5692	1981.35	1529.8
789.0313	61.8326	2087.85	1633.05
789.1722	64.0955	2190.85	1732.4
789.3132	66.3579	2339.3	1877.05
789.4541	68.6199	2474.1	2008.75
789.5951	70.8815	2735.4	2266.85
789.7361	73.1426	3278.75	2806.55
789.8771	75.4032	4629.85	4150.5
790.0181	77.6634	8117.55	7633.8
790.1592	79.9231	17375.35	16884.7
790.3003	82.1824	56601.65	56099.7
790.4414	84.4412	65535	65012.7
790.5825	86.6995	65535	64983.45
790.7237	88.9574	65535	64960.1
790.8648	91.2148	65535	64938.7
791.006	93.4717	65535	64927.4
791.1472	95.7282	65535	64922.05
791.2885	97.9842	65535	64920.5
791.4297	100.2398	65535	64917.4
791.571	102.4949	65535	64911.45
791.7123	104.7495	65535	64906.35
791.8536	107.0036	65535	64904
791.9949	109.2573	65535	64911.9
792.1363	111.5105	65535	64907.95
792.2777	113.7632	65535	64905.25
792.4191	116.0154	65535	64894.8
792.5605	118.2672	65535	64902.9
792.7019	120.5185	65535	64899.2
792.8434	122.7693	65535	64896.1
792.9849	125.0197	65535	64892.2
793.1264	127.2696	65535	64889.55
793.2679	129.519	65535	64885.3
793.4094	131.7679	65535	64883.45
793.551	134.0163	65535	64883
793.6926	136.2642	65535	64876.15
793.8342	138.5117	65535	64865.85
793.9758	140.7587	65535	64872
794.1175	143.0052	65535	64871.8
794.2591	145.2512	65535	64871.15
794.4008	147.4967	65535	64869.15
794.5425	149.7417	65535	64868.3
794.6842	151.9863	65535	64860.95
794.826	154.2304	65535	64864
794.9677	156.4739	65535	64852.5
795.1095	158.717	65535	64853.9
795.2513	160.9596	65535	64851.1
795.3931	163.2017	65535	64847.1
795.535	165.4433	65535	64846.4
795.6768	167.6844	65535	64844.8
795.8187	169.925	65535	64843.1
795.9606	172.1651	65535	64840.7
796.1025	174.4047	65535	64836.4
796.2445	176.6439	65535	64836.7
796.3864	178.8825	65535	64830.95
796.5284	181.1206	65535	64826.2
796.6704	183.3582	65535	64821.9
796.8124	185.5954	65535	64821.7
796.9544	187.832	65535	64817.75
797.0965	190.0681	65535	64815.65
797.2386	192.3037	65535	64813.5
797.3806	194.5388	65535	64808.1
797.5228	196.7734	65535	64807.1
797.6649	199.0075	65535	64800.85
797.807	201.2411	65535	64800.55
797.9492	203.4742	65535	64803.55
798.0914	205.7068	65535	64804.05
798.2336	207.9389	65535	64795.85
798.3758	210.1704	65535	64794.35
798.518	212.4015	65535	64797.65
798.6603	214.632	65535	64803
798.8025	216.862	65535	64815.6
798.9448	219.0915	65535	64820.1
799.0871	221.3205	65535	64813.35
799.2294	223.549	65535	64817.75
799.3718	225.777	65535	64818.45
799.5141	228.0044	65535	64815.3
799.6565	230.2314	65535	64816.05
799.7989	232.4578	65535	64810.8
799.9413	234.6837	65535	64801.8
800.0837	236.909	65535	64804.3
800.2262	239.1339	65535	64779.15
800.3687	241.3582	65535	64789.3
800.5111	243.582	65535	64758.6
800.6536	245.8053	65535	64776.25
800.7961	248.0281	65535	64779.95
800.9387	250.2503	65535	64776.05
801.0812	252.472	65535	64770.9
801.2238	254.6932	65535	64768.4
801.3664	256.9139	65535	64770.95
801.509	259.134	65535	64762.7
801.6516	261.3536	65535	64765.65
801.7942	263.5727	65535	64765.35
801.9369	265.7912	65535	64768.4
802.0795	268.0092	65535	64768.7
802.2222	270.2267	65535	64764.6
802.3649	272.4436	65535	64763.95
802.5076	274.6601	65535	64759.3
802.6504	276.8759	65535	64757.2
802.7931	279.0913	65535	64759.8
802.9359	281.3061	65535	64756.3
803.0787	283.5204	65535	64752.6
803.2215	285.7341	65535	64747.95
803.3643	287.9473	65535	64737.4
803.5071	290.16	65535	64746.95
803.6499	292.3721	65535	64749.95
803.7928	294.5837	65535	64751.1
803.9357	296.7947	65535	64750.4
804.0786	299.0052	65535	64747.4
804.2215	301.2152	65535	64748.05
804.3644	303.4246	65535	64747.8
804.5074	305.6334	65535	64749.05
804.6503	307.8418	65535	64745.55
804.7933	310.0495	65535	64746.3
804.9363	312.2568	65535	64746.05
805.0793	314.4635	65535	64745.4
805.2223	316.6696	65535	64743.25
805.3653	318.8752	65535	64735.4
805.5084	321.0802	65535	64740.25
805.6514	323.2847	65535	64738.15
805.7945	325.4887	65535	64737.25
805.9376	327.692	65535	64738.5
806.0807	329.8949	65535	64735.4
806.2238	332.0972	65535	64732
806.367	334.2989	65535	64730.25
806.5101	336.5001	65535	64732.7
806.6533	338.7007	65535	64730.2
806.7965	340.9008	65535	64727.05
806.9397	343.1003	65535	64723.9
807.0829	345.2992	65535	64724.7
807.2261	347.4976	65535	64727.25
807.3693	349.6955	65535	64722.4
807.5126	351.8927	65535	64724.1
807.6559	354.0895	65535	64708.6
807.7991	356.2856	65535	64720.25
807.9424	358.4812	65535	64717.3
808.0857	360.6763	65535	64716.35
808.2291	362.8707	65535	64713.6
808.3724	365.0646	65535	64714.2
808.5158	367.258	65535	64709.25
808.6591	369.4508	65535	64708.85
808.8025	371.643	65535	64707.2
808.9459	373.8346	65535	64706.5
809.0893	376.0257	65535	64705.2
809.2327	378.2162	65535	64704.45
809.3762	380.4062	65535	64701.95
809.5196	382.5956	65535	64702.75
809.6631	384.7844	65535	64703.6
809.8066	386.9726	65535	64705.7
809.9501	389.1603	65535	64709.55
810.0936	391.3474	65535	64665
810.2371	393.5339	65535	64706.75
810.3806	395.7199	65535	64712.55
810.5241	397.9052	65535	64711.5
810.6677	400.09	65535	64713.4
810.8113	402.2743	65535	64711.25
810.9548	404.4579	65535	64709.75
811.0984	406.641	65535	64708.8
811.2421	408.8235	65535	64706.65
811.3857	411.0054	65535	64705.75
811.5293	413.1868	65535	64703
811.673	415.3675	65535	64702.35
811.8166	417.5477	65535	64699.65
811.9603	419.7273	65535	64696.85
812.104	421.9064	65535	64688.85
812.2477	424.0848	65535	64697.05
812.3914	426.2627	65535	64690.3
812.5351	428.4399	65535	64690.25
812.6788	430.6166	65535	64689.25
812.8226	432.7928	65535	64687.9
812.9663	434.9683	65535	64688.1
813.1101	437.1432	65535	64685.05
813.2539	439.3176	65535	64686.8
813.3977	441.4914	65535	64688.15
813.5415	443.6645	65535	64684.8
813.6853	445.8371	65535	64686.45
813.8291	448.0091	65535	64685.15
813.973	450.1806	65535	64688.35
814.1168	452.3514	65535	64684.95
814.2607	454.5216	65535	64673.8
814.4046	456.6913	65535	64682.15
814.5485	458.8603	65535	64686.05
814.6924	461.0288	65535	64681.95
814.8363	463.1967	65535	64686.55
814.9802	465.3639	65535	64678.4
815.1241	467.5306	65535	64682.75
815.2681	469.6967	65535	64684.2
815.412	471.8622	65535	64682.7
815.556	474.0271	65535	64684.2
815.7	476.1914	65535	64678.8
815.844	478.3551	65535	64682.4
815.988	480.5182	65535	64680.6
816.132	482.6807	65535	64680.7
816.276	484.8426	65535	64681.1
816.4201	487.0039	65535	64681.1
816.5641	489.1647	65535	64678.05
816.7082	491.3248	65535	64675.45
816.8522	493.4843	65535	64677
816.9963	495.6432	65535	64677.05
817.1404	497.8015	65535	64674.65
817.2845	499.9592	65535	64675.85
817.4286	502.1163	65535	64675.85
817.5727	504.2728	65535	64673.05
817.7168	506.4287	65535	64675.55
817.861	508.5839	65535	64675.65
818.0051	510.7386	65535	64673.7
818.1493	512.8927	65535	64671.85
818.2935	515.0461	65535	64672.9
818.4377	517.199	65535	64671.7
818.5818	519.3512	65535	64672.1
818.726	521.5029	65535	64662.6
818.8703	523.6539	65535	64669.5
819.0145	525.8043	65535	64668.4
819.1587	527.9541	65535	64666.8
819.303	530.1033	65535	64668.9
819.4472	532.2519	65535	64668.35
819.5915	534.3999	65535	64665.45
819.7357	536.5472	65535	64665.1
819.88	538.694	65535	64668.35
820.0243	540.8401	65535	64667.1
820.1686	542.9856	65535	64663.05
820.3129	545.1305	65535	64661.85
820.4572	547.2748	65535	64663.05
820.6016	549.4185	65535	64660.2
820.7459	551.5615	65535	64662.25
820.8902	553.704	65535	64662.55
821.0346	555.8458	65535	64661.7
821.1789	557.987	65535	64664.9
821.3233	560.1276	65535	64662.1
821.4677	562.2675	65535	64663.5
821.6121	564.4069	65535	64663.85
821.7565	566.5456	65535	64667.15
821.9009	568.6837	65535	64664.35
822.0453	570.8212	65535	64661.5
822.1897	572.958	65535	64660.2
822.3342	575.0942	65535	64662.95
822.4786	577.2299	65535	64663.8
822.6231	579.3648	65535	64665.55
822.7675	581.4992	65535	64666.8
822.912	583.6329	65535	64665.75
823.0565	585.766	65535	64665.65
823.201	587.8985	65535	64663.55
823.3454	590.0304	65535	64640.6
823.4899	592.1616	65535	64660.6
823.6345	594.2922	65535	64656.15
823.779	596.4222	65535	64661.2
823.9235	598.5515	65535	64655.45
824.068	600.6802	65535	64657.75
824.2126	602.8083	65535	64657
824.3571	604.9358	65535	64656.2
824.5017	607.0626	65535	64658
824.6462	609.1888	65535	64654.15
824.7908	611.3144	65535	64656.05
824.9354	613.4393	65535	64655.5
825.08	615.5636	65535	64655.25
825.2246	617.6873	65535	64657.65
825.3692	619.8103	65535	64652.85
825.5138	621.9327	65535	64652.4
825.6584	624.0544	65535	64655.1
825.803	626.1756	65535	64653.3
825.9477	628.2961	65535	64654.5
826.0923	630.4159	65535	64654.35
826.237	632.5351	65535	64651.85
826.3816	634.6537	65535	64652.8
826.5263	636.7716	65535	64650.4
826.6709	638.8889	65535	64649.05
826.8156	641.0056	65535	64647.3
826.9603	643.1216	65535	64648.85
827.105	645.237	65535	64647.9
827.2497	647.3518	65535	64652.3
827.3944	649.4659	65535	64649.3
827.5391	651.5793	65535	64651.7
827.6838	653.6922	65535	64650.45
827.8285	655.8043	65535	64653.5
827.9733	657.9159	65535	64649.5
828.118	660.0268	65535	64646.35
828.2627	662.137	65535	64647.6
828.4075	664.2466	65535	64646.35
828.5522	666.3556	65535	64647.75
828.697	668.4639	65535	64645.55
828.8418	670.5716	65535	64650.6
828.9865	672.6786	65535	64647.4
829.1313	674.785	65535	64644.9
829.2761	676.8907	65535	64647.1
829.4209	678.9958	65535	64648.65
829.5657	681.1002	65535	64644.6
829.7105	683.204	65535	64642.4
829.8553	685.3072	65535	64645.55
830.0001	687.4097	65535	64646.8
830.1449	689.5115	65535	64642.15
830.2898	691.6127	65535	64645.05
830.4346	693.7132	65535	64648
830.5794	695.8131	65535	64637.25
830.7243	697.9123	65535	64639.65
830.8691	700.0109	65535	64644.25
831.014	702.1089	65535	64643.5
831.1588	704.2061	65535	64642.75
831.3037	706.3028	65535	64641.45
831.4486	708.3987	65535	64644.55
831.5935	710.4941	65535	64642.05
831.7383	712.5887	65535	64640.7
831.8832	714.6827	65535	64639.55
832.0281	716.7761	65535	64642.25
832.173	718.8688	65535	64640.1
832.3179	720.9608	65535	64638.7
832.4628	723.0522	65535	64638.55
832.6077	725.1429	65535	64643.15
832.7527	727.233	65535	64640.15
832.8976	729.3224	65535	64640.6
833.0425	731.4112	65535	64638.15
833.1874	733.4993	65535	64639.65
833.3324	735.5867	65535	64639.2
833.4773	737.6735	65535	64637.3
833.6222	739.7596	65535	64640.3
833.7672	741.845	65535	64637.65
833.9122	743.9298	65535	64636.6
834.0571	746.014	65535	64638.85
834.2021	748.0974	65535	64636.8
834.347	750.1802	65535	64639.75
834.492	752.2624	65535	64637.45
834.637	754.3439	65535	64636.3
834.782	756.4247	65535	64631.2
834.9269	758.5048	65535	64638.2
835.0719	760.5843	65535	64636.55
835.2169	762.6631	65535	64638.25
835.3619	764.7413	65535	64640.2
835.5069	766.8188	65535	64638.9
835.6519	768.8956	65535	64634.5
835.7969	770.9718	65535	64637.15
835.9419	773.0473	65535	64638.2
836.0869	775.1221	65535	64641.25
836.232	777.1962	65535	64639.9
836.377	779.2697	65535	64635.5
836.522	781.3426	65535	64615.75
836.667	783.4147	65535	64636.25
836.8121	785.4862	65535	64637.3
836.9571	787.557	65535	64636.4
837.1021	789.6271	65535	64636.6
837.2472	791.6966	65535	64638.2
837.3922	793.7654	65535	64637.7
837.5373	795.8335	65535	64637.1
837.6823	797.901	65535	64634.55
837.8274	799.9678	65535	64633.75
837.9724	802.0339	65535	64638.9
838.1175	804.0993	65535	64628.15
838.2626	806.1641	65535	64635.5
838.4076	808.2282	65535	64636.15
838.5527	810.2916	65535	64632.1
838.6978	812.3544	65535	64637.35
838.8428	814.4164	65535	64639.6
838.9879	816.4778	65535	64634.8
839.133	818.5385	65535	64634.5
839.2781	820.5986	65535	64634.8
839.4232	822.658	65535	64633.3
839.5682	824.7166	65535	64635
839.7133	826.7747	65535	64635.65
839.8584	828.832	65535	64632.45
840.0035	830.8886	65535	64630.65
840.1486	832.9446	65535	64635.2
840.2937	834.9999	65535	64637.7
840.4388	837.0545	65535	64632.15
840.5839	839.1085	65535	64636.5
840.729	841.1618	65535	64631.2
840.8741	843.2143	65535	64631.65
841.0192	845.2662	65535	64634.95
841.1643	847.3175	65535	64635
841.3095	849.368	65535	64636.35
841.4546	851.4179	65535	64634.3
841.5997	853.467	65535	64636.5
841.7448	855.5155	65535	64630.65
841.8899	857.5633	65535	64634.45
842.0351	859.6105	65535	64633.75
842.1802	861.6569	65535	64633.2
842.3253	863.7027	65535	64632.75
842.4704	865.7478	65535	64633.65
842.6156	867.7922	65535	64633.05
842.7607	869.8359	65535	64628.35
842.9058	871.8789	65535	64633.05
843.0509	873.9212	65535	64600.1
843.1961	875.9629	65535	64631.05
843.3412	878.0039	65535	64632.35
843.4863	880.0441	65535	64633
843.6315	882.0837	65535	64632.45
843.7766	884.1226	65535	64634.7
843.9218	886.1609	65535	64632.5
844.0669	888.1984	65535	64633.85
844.212	890.2352	65535	64631.05
844.3572	892.2714	65535	64628.7
844.5023	894.3069	65535	64630.2
844.6475	896.3416	65535	64631.6
844.7926	898.3757	65535	64630.5
844.9377	900.4091	65535	64631.05
845.0829	902.4418	65535	64624.5
845.228	904.4739	65535	64630.65
845.3732	906.5052	65535	64631.4
845.5183	908.5358	65535	64633.2
845.6635	910.5658	65535	64629.45
845.8086	912.595	65535	64629.8
845.9538	914.6236	65535	64630.3
846.0989	916.6515	65535	64630.4
846.2441	918.6786	65535	64628.9
846.3892	920.7051	65535	64629.7
846.5344	922.7309	65535	64631.95
846.6795	924.756	65535	64630.1
846.8246	926.7804	65535	64629.75
846.9698	928.8041	65535	64630.75
847.1149	930.8272	65535	64629.9
847.2601	932.8495	65535	64628.65
847.4052	934.8711	65535	64630.8
847.5504	936.892	65535	64628.85
847.6955	938.9123	65535	64627.3
847.8407	940.9318	65535	64631.15
847.9858	942.9506	65535	64628.65
848.131	944.9688	65535	64630.95
848.2761	946.9862	65535	64630.6
848.4213	949.003	65535	64631.05
848.5664	951.019	65535	64629.65
848.7115	953.0344	65535	64629.75
848.8567	955.0491	65535	64629.35
849.0018	957.063	65535	64632.35
849.147	959.0763	65535	64630.85
849.2921	961.0888	65535	64626.45
849.4373	963.1007	65535	64630.85
849.5824	965.1119	65535	64632.05
849.7275	967.1223	65535	64630.5
849.8727	969.1321	65535	64633.8
850.0178	971.1412	65535	64631.1
850.1629	973.1495	65535	64631.95
850.3081	975.1572	65535	64582.1
850.4532	977.1641	65535	64629.75
850.5983	979.1704	65535	64629.3
850.7435	981.1759	65535	64627.9
850.8886	983.1808	65535	64631.3
851.0337	985.1849	65535	64618.6
851.1788	987.1884	65535	64628.6
851.324	989.1911	65535	64628.1
851.4691	991.1932	65535	64628.1
851.6142	993.1945	65535	64631.15
851.7593	995.1951	65535	64629.8
851.9045	997.1951	65535	64623.45
852.0496	999.1943	65535	64628.3
852.1947	1001.1928	65535	64628.95
852.3398	1003.1906	65535	64630.6
852.4849	1005.1877	65535	64629.35
852.63	1007.1841	65535	64630.25
852.7751	1009.1798	65535	64631.25
852.9202	1011.1748	65535	64631.3
853.0653	1013.1691	65535	64631.6
853.2104	1015.1627	65535	64628.55
853.3555	1017.1556	65535	64627.25
853.5006	1019.1477	65535	64630.25
853.6457	1021.1392	65535	64636.05
853.7908	1023.1299	65535	64631.15
853.9359	1025.12	65535	64632.95
854.081	1027.1093	65535	64633
854.2261	1029.0979	65535	64636.3
854.3712	1031.0859	65535	64633.5
854.5163	1033.0731	65535	64631.65
854.6613	1035.0596	65535	64633.4
854.8064	1037.0454	65535	64631.95
854.9515	1039.0304	65535	64628.15
855.0965	1041.0148	65535	64632.15
855.2416	1042.9985	65535	64628.8
855.3867	1044.9814	65535	64631
855.5317	1046.9636	65535	64628.75
855.6768	1048.9452	65535	64629.75
855.8219	1050.926	65535	64632.65
855.9669	1052.9061	65535	64633.35
856.112	1054.8855	65535	64630
856.257	1056.8642	65535	64633.4
856.4021	1058.8421	65535	64626.7
856.5471	1060.8194	65535	64629.55
856.6921	1062.7959	65535	64630.55
856.8372	1064.7717	65535	64627.4
856.9822	1066.7469	65535	64628.5
857.1272	1068.7213	65535	64627.55
857.2723	1070.695	65535	64629.8
857.4173	1072.6679	65535	64629.45
857.5623	1074.6402	65535	64629.65
857.7073	1076.6117	65535	64625.25
857.8523	1078.5826	65535	64629.3
857.9973	1080.5527	65535	64628.4
858.1423	1082.5221	65535	64630.05
858.2873	1084.4908	65535	64630.55
858.4323	1086.4587	65535	64627.55
858.5773	1088.426	65535	64629.4
858.7223	1090.3925	65535	64626.4
858.8673	1092.3584	65535	64631.8
859.0123	1094.3235	65535	64632.25
859.1573	1096.2879	65535	64627.55
859.3022	1098.2515	65535	64628.4
859.4472	1100.2145	65535	64629.6
859.5922	1102.1767	65535	64627.1
859.7371	1104.1382	65535	64632.55
859.8821	1106.099	65535	64628.85
860.027	1108.0591	65535	64632.3
860.172	1110.0185	65535	64627.9
860.3169	1111.9771	65535	64629.9
860.4619	1113.9351	65535	64626.2
860.6068	1115.8923	65535	64631.2
860.7517	1117.8488	65535	64629.65
860.8967	1119.8045	65535	64631.3
861.0416	1121.7596	65535	64630.65
861.1865	1123.7139	65535	64632.55
861.3314	1125.6675	65535	64630.75
861.4763	1127.6204	65535	64630.8
861.6212	1129.5726	65535	64628.25
861.7661	1131.524	65535	64630.8
861.911	1133.4748	65535	64629.85
862.0559	1135.4248	65535	64627.15
862.2008	1137.3741	65535	64629.15
862.3457	1139.3226	65535	64630.55
862.4905	1141.2705	65535	64630.35
862.6354	1143.2176	65535	64623.35
862.7803	1145.164	65535	64628.15
862.9251	1147.1097	65535	64630.1
863.07	1149.0546	65535	64628.25
863.2148	1150.9989	65535	64630.2
863.3597	1152.9424	65535	64632.25
863.5045	1154.8852	65535	64630.25
863.6493	1156.8272	65535	64630.15
863.7942	1158.7686	65535	64628.2
863.939	1160.7092	65535	64627.4
864.0838	1162.6491	65535	64628.95
864.2286	1164.5883	65535	64631.8
864.3734	1166.5267	65535	64626.9
864.5182	1168.4644	65535	64631.8
864.663	1170.4014	65535	64626.65
864.8078	1172.3377	65535	64631
864.9526	1174.2732	65535	64631.5
865.0974	1176.2081	65535	64630.55
865.2421	1178.1421	65535	64626.55
865.3869	1180.0755	65535	64630.1
865.5317	1182.0082	65535	64628.85
865.6764	1183.9401	65535	64630.25
865.8212	1185.8713	65535	64633.25
865.9659	1187.8017	65535	64631.2
866.1106	1189.7315	65535	64635
866.2554	1191.6605	65535	64607.1
866.4001	1193.5888	65535	64633.8
866.5448	1195.5163	65535	64632.05
866.6895	1197.4432	65535	64631.85
866.8342	1199.3693	65535	64631.8
866.9789	1201.2947	65535	64630.9
867.1236	1203.2193	65535	64634.1
867.2683	1205.1432	65535	64630.9
867.413	1207.0664	65535	64630
867.5576	1208.9889	65535	64627.05
867.7023	1210.9106	65535	64629.55
867.847	1212.8316	65535	64633.8
867.9916	1214.7519	65535	64621.45
868.1363	1216.6715	65535	64631.4
868.2809	1218.5903	65535	64630.3
868.4255	1220.5084	65535	64629.95
868.5701	1222.4257	65535	64632
868.7148	1224.3424	65535	64632.6
868.8594	1226.2583	65535	64625.55
869.004	1228.1735	65535	64631.9
869.1486	1230.0879	65535	64631.6
869.2932	1232.0016	65535	64632.85
869.4377	1233.9146	65535	64630.85
869.5823	1235.8269	65535	64628.55
869.7269	1237.7384	65535	64631.75
869.8715	1239.6492	65535	64631.25
870.016	1241.5592	65535	64630.85
870.1606	1243.4686	65535	64633
870.3051	1245.3772	65535	64631.9
870.4496	1247.285	65535	64631.35
870.5941	1249.1922	65535	64630.1
870.7387	1251.0986	65535	64632.5
870.8832	1253.0042	65535	64631.4
871.0277	1254.9092	65535	64631.3
871.1722	1256.8134	65535	64632.65
871.3167	1258.7169	65535	64629.65
871.4611	1260.6196	65535	64632.25
871.6056	1262.5216	65535	64631.95
871.7501	1264.4229	65535	64632.6
871.8945	1266.3234	65535	64632
872.039	1268.2232	65535	64629.75
872.1834	1270.1223	65535	64631.65
872.3278	1272.0207	65535	64631.55
872.4723	1273.9183	65535	64623.7
872.6167	1275.8151	65535	64633.7
872.7611	1277.7113	65535	64631.6
872.9055	1279.6067	65535	64633.75
873.0499	1281.5014	65535	64631.8
873.1943	1283.3953	65535	64631.45
873.3386	1285.2885	65535	64632.75
873.483	1287.181	65535	64630.6
873.6274	1289.0727	65535	64633.4
873.7717	1290.9637	65535	64628.65
873.9161	1292.854	65535	64631.2
874.0604	1294.7435	65535	64633.1
874.2047	1296.6323	65535	64633.5
874.349	1298.5204	65535	64627.15
874.4933	1300.4077	65535	64632.7
874.6376	1302.2943	65535	64632.85
874.7819	1304.1802	65535	64633.8
874.9262	1306.0653	65535	64629.65
875.0705	1307.9497	65535	64631.4
875.2147	1309.8333	65535	64634.95
875.359	1311.7162	65535	64632.9
875.5032	1313.5984	65535	64630.1
875.6475	1315.4798	65535	64620.25
875.7917	1317.3605	65535	64614.7
875.9359	1319.2405	65535	64630.35
876.0801	1321.1197	65535	64630.65
876.2243	1322.9982	65535	64626.85
876.3685	1324.876	65535	64630.75
876.5127	1326.753	65535	64632.1
876.6569	1328.6293	65535	64631.85
876.801	1330.5048	65535	64629.4
876.9452	1332.3796	65535	64633.35
877.0893	1334.2537	65535	64606.35
877.2335	1336.127	65535	64630.05
877.3776	1337.9996	65535	64631.7
877.5217	1339.8714	65535	64629.95
877.6658	1341.7426	65535	64589.95
877.8099	1343.6129	65535	64632.85
877.954	1345.4826	65535	64631.75
878.0981	1347.3515	65535	64628.9
878.2422	1349.2196	65535	64632.35
878.3862	1351.087	65535	64630.8
878.5303	1352.9537	65535	64631.5
878.6743	1354.8197	65535	64633.05
878.8184	1356.6849	65535	64632.2
878.9624	1358.5493	65535	64633.6
879.1064	1360.4131	65535	64631.85
879.2504	1362.276	65535	64632.5
879.3944	1364.1383	65535	64632.9
879.5384	1365.9998	65535	64625.4
879.6823	1367.8606	65535	64630.65
879.8263	1369.7206	65535	64631.25
879.9702	1371.5799	65535	64628.15
880.1142	1373.4384	65535	64632.25
880.2581	1375.2962	65535	64629.25
880.402	1377.1533	65535	64633.2
880.5459	1379.0096	65535	64633.05
880.6898	1380.8652	65535	64631.6
880.8337	1382.7201	65535	64633.15
880.9776	1384.5742	65535	64633.05
881.1215	1386.4275	65535	64631.25
881.2653	1388.2802	65535	64632.95
881.4092	1390.132	65535	64631
881.553	1391.9832	65535	64630.25
881.6968	1393.8336	65535	64631.25
881.8406	1395.6832	65535	64630.1
881.9844	1397.5322	65535	64632.85
882.1282	1399.3803	65535	64628.5
882.272	1401.2278	65535	64633.05
882.4158	1403.0745	65535	64634.5
882.5595	1404.9204	65535	64633.9
882.7033	1406.7656	65535	64633.35
882.847	1408.6101	65535	64631.8
882.9908	1410.4538	65535	64633.95
883.1345	1412.2968	65535	64632.45
883.2782	1414.139	65535	64635.4
883.4219	1415.9805	65535	64633.45
883.5656	1417.8213	65535	64626.4
883.7092	1419.6613	65535	64634.6
883.8529	1421.5006	65535	64632.35
883.9965	1423.3391	65535	64632.2
884.1402	1425.1769	65535	64630.2
884.2838	1427.0139	65535	64632.2
884.4274	1428.8502	65535	64631.55
884.571	1430.6858	65535	64632.9
884.7146	1432.5206	65535	64632.15
884.8582	1434.3547	65535	64631.35
885.0018	1436.188	65535	64632.3
885.1453	1438.0206	65535	64631.75
885.2889	1439.8524	65535	64634.1
885.4324	1441.6835	65535	64630.45
885.5759	1443.5139	65535	64628.8
885.7194	1445.3435	65535	64633.4
885.8629	1447.1724	65535	64632.45
886.0064	1449.0005	65535	64632.5
886.1499	1450.8279	65535	64632.4
886.2933	1452.6545	65535	64634.55
886.4368	1454.4804	65535	64637.1
886.5802	1456.3056	65535	64627.1
886.7237	1458.13	65535	64633.05
886.8671	1459.9536	65535	64633.75
887.0105	1461.7766	65535	64635.35
887.1539	1463.5987	65535	64632.6
887.2972	1465.4202	65535	64633.7
887.4406	1467.2409	65535	64632.9
887.584	1469.0608	65535	64633.1
887.7273	1470.88	65535	64632.45
887.8706	1472.6984	65535	64634.75
888.0139	1474.5161	65535	64629.55
888.1572	1476.3331	65535	64635.65
888.3005	1478.1493	65535	64632.05
888.4438	1479.9648	65535	64634.65
888.5871	1481.7795	65535	64633.75
888.7303	1483.5935	65535	64634.15
888.8736	1485.4067	65535	64632
889.0168	1487.2192	65535	64634.05
889.16	1489.031	65535	64629.85
889.3032	1490.842	65535	64633.95
889.4464	1492.6522	65535	64635.2
889.5896	1494.4618	65535	64633.65
889.7327	1496.2705	65535	64632
889.8759	1498.0785	65535	64632.85
890.019	1499.8858	65535	64632.65
890.1622	1501.6924	65535	64634.8
890.3053	1503.4981	65535	64633.4
890.4484	1505.3032	65535	64633.45
890.5914	1507.1075	65535	64633.05
890.7345	1508.911	65535	64632.8
890.8776	1510.7138	65535	64633
891.0206	1512.5159	65535	64634.2
891.1637	1514.3172	65535	64634.85
891.3067	1516.1178	65535	64633.85
891.4497	1517.9176	65535	64633
891.5927	1519.7166	65535	64634
891.7357	1521.515	65535	64628
891.8786	1523.3126	65535	64634.9
892.0216	1525.1094	65535	64634.85
892.1645	1526.9055	65535	64638.4
892.3074	1528.7008	65535	64635.45
892.4503	1530.4954	65535	64629.1
892.5932	1532.2893	65535	64638.3
892.7361	1534.0824	65535	64629.4
892.879	1535.8747	65535	64634.2
893.0218	1537.6663	65535	64635.8
893.1647	1539.4572	65535	64633.9
893.3075	1541.2473	65535	64633.15
893.4503	1543.0367	65535	64637.55
893.5931	1544.8253	65535	64630.8
893.7359	1546.6132	65535	64630.75
893.8787	1548.4003	65535	64623.8
894.0214	1550.1867	65535	64626.95
894.1642	1551.9723	65535	64632.25
894.3069	1553.7572	65535	64634.85
894.4496	1555.5414	65535	64635.9
894.5923	1557.3247	65535	64635.2
894.735	1559.1074	65535	64637.45
894.8777	1560.8893	65535	64636.35
895.0204	1562.6705	65535	64635.65
895.163	1564.4509	65535	64636.35
895.3056	1566.2305	65535	64637.1
895.4482	1568.0094	65535	64639.3
895.5908	1569.7876	65535	64638.4
895.7334	1571.565	65535	64636.15
895.876	1573.3417	65535	64635.3
896.0186	1575.1176	65535	64637.55
896.1611	1576.8928	65535	64637.05
896.3036	1578.6672	65535	64639.45
896.4461	1580.4409	65535	64639.65
896.5886	1582.2138	65535	64635.75
896.7311	1583.986	65535	64636.9
896.8736	1585.7575	65535	64636.7
897.0161	1587.5282	65535	64639.6
897.1585	1589.2981	65535	64638.4
897.3009	1591.0673	65535	64639.8
897.4433	1592.8358	65535	64639.4
897.5857	1594.6035	65535	64635.75
897.7281	1596.3704	65535	64639.05
897.8705	1598.1366	65535	64639.6
898.0128	1599.9021	65535	64639.1
898.1551	1601.6668	65535	64636.4
898.2975	1603.4308	65535	64634.15
898.4398	1605.194	65535	64633.45
898.5821	1606.9564	65535	64639.2
898.7243	1608.7182	65535	64634.6
898.8666	1610.4791	65535	64640.5
899.0088	1612.2394	65535	64641.15
899.1511	1613.9988	65535	64639.1
899.2933	1615.7576	65535	64640.65
899.4355	1617.5156	65535	64630.95
899.5776	1619.2728	65535	64635.4
899.7198	1621.0293	65535	64637.6
899.862	1622.785	65535	64635.65
900.0041	1624.54	65535	64635.1
900.1462	1626.2942	65535	64637.2
900.2883	1628.0477	65535	64638.3
900.4304	1629.8005	65535	64634.25
900.5725	1631.5525	65535	64640.5
900.7145	1633.3037	65535	64639.05
900.8566	1635.0542	65535	64641.3
900.9986	1636.804	65535	64637.15
901.1406	1638.553	65535	64550.5
901.2826	1640.3013	65535	64638.75
901.4245	1642.0488	65535	64637.65
901.5665	1643.7955	65535	64639.65
901.7085	1645.5416	65535	64639.25
901.8504	1647.2868	65535	64641.5
901.9923	1649.0313	65535	64638.05
902.1342	1650.7751	65535	64634.95
902.2761	1652.5181	65535	64640.1
902.4179	1654.2604	65535	64638.1
902.5598	1656.0019	65535	64640.15
902.7016	1657.7427	65535	64638.6
902.8434	1659.4828	65535	64639.1
902.9852	1661.222	65535	64639
903.127	1662.9606	65535	64642.05
903.2687	1664.6984	65535	64639.85
903.4105	1666.4354	65535	64635.95
903.5522	1668.1717	65535	64639.55
903.6939	1669.9072	65521.25	64625.45
903.8356	1671.642	65525	64624.55
903.9773	1673.3761	65515.95	64622.65
904.119	1675.1094	65512.5	64618
904.2606	1676.8419	65410.15	64514.75
904.4022	1678.5737	65485.1	64589.8
904.5439	1680.3048	65441.65	64546.35
904.6855	1682.0351	65397.65	64502.45
904.827	1683.7646	65339.25	64439.7
904.9686	1685.4934	65420.1	64526.2
905.1101	1687.2215	64991	64095.8
905.2517	1688.9488	65358.3	64462.3
905.3932	1690.6754	64542.55	63647.85
905.5347	1692.4012	65043.6	64148.3
905.6761	1694.1263	65169.5	64274.8
905.8176	1695.8506	64664.1	63767.9
905.9591	1697.5742	64780.9	63888.85
906.1005	1699.297	64680.2	63785.5
906.2419	1701.0191	64784.65	63889.05
906.3833	1702.7404	63972.75	63080.25
906.5246	1704.461	63632.4	62736.45
906.666	1706.1808	64383.85	63488.4
906.8073	1707.8999	63899.8	63004.2
906.9487	1709.6182	63748.95	62854.3
907.09	1711.3358	63626.2	62731.2
907.2313	1713.0527	63537.55	62643.95
907.3725	1714.7688	63577.3	62677.15
907.5138	1716.4841	62390.35	61497.2
907.655	1718.1987	62868.6	61969.4
907.7962	1719.9126	62529	61635.8
907.9374	1721.6257	62919.5	62021.75
908.0786	1723.338	62924.75	62028.85
908.2198	1725.0496	61461.35	60565.6
908.3609	1726.7605	61643.3	60748.15
908.502	1728.4706	61138.25	60244.3
908.6431	1730.18	61763.8	60868.85
908.7842	1731.8886	61100.25	60206.3
908.9253	1733.5964	60677.75	59765.9
909.0664	1735.3036	61438.4	60542.1
909.2074	1737.0099	60855.45	59960.65
909.3484	1738.7156	60267.7	59375.45
909.4894	1740.4204	60020.45	59123.5
909.6304	1742.1246	60248.4	59352.9
909.7714	1743.8279	60384.55	59492.3
909.9123	1745.5306	60278.55	59382.9
910.0532	1747.2325	58862.15	57968.45
910.1941	1748.9336	58898.2	58005.6
910.335	1750.634	59248.75	58354.5
910.4759	1752.3336	59629.2	58736.4
910.6168	1754.0325	58567	57675.5
910.7576	1755.7307	59438.35	58545.8
910.8984	1757.4281	58277.65	57382.8
911.0392	1759.1247	59096.55	58196.2
911.18	1760.8206	57946.1	57047.45
911.3208	1762.5158	58033.65	57135.6
911.4615	1764.2102	58144.65	57253.25
911.6022	1765.9039	57867.1	56974.05
911.7429	1767.5968	57716.15	56824.3
911.8836	1769.289	57507.8	56613.15
912.0243	1770.9804	57613.25	56719
912.1649	1772.6711	57332.9	56438.35
912.3056	1774.361	57120.15	56224.1
912.4462	1776.0502	57163.55	56269.15
912.5868	1777.7386	56500.15	55602.5
912.7274	1779.4263	56642.9	55747.55
912.8679	1781.1132	56633.7	55741.2
913.0084	1782.7994	56303.55	55410.55
913.149	1784.4849	56486.5	55594.05
913.2895	1786.1696	55594.1	54693.65
913.4299	1787.8535	55927.15	55032.95
913.5704	1789.5367	55978.45	55084.75
913.7108	1791.2192	55540.4	54648.5
913.8513	1792.9009	55223.35	54303
913.9917	1794.5818	55404.6	54510.25
914.132	1796.2621	55032.4	54140.3
914.2724	1797.9415	54988	54094.6
914.4128	1799.6202	54854.55	53959
914.5531	1801.2982	54908.75	54016.05
914.6934	1802.9755	54485.7	53593.45
914.8337	1804.6519	54323.8	53432.2
914.9739	1806.3277	54649.65	53757.8
915.1142	1808.0027	53685.95	52792.8
915.2544	1809.6769	53933.8	53041.15
915.3946	1811.3504	54056.5	53163.2
915.5348	1813.0231	53259.5	52365.4
915.675	1814.6951	53685.9	52793.5
915.8151	1816.3664	53449.85	52556.6
915.9553	1818.0369	53339.05	52446.05
916.0954	1819.7067	53176.8	52286.6
916.2355	1821.3757	53391.4	52496.65
916.3755	1823.044	52798.15	51904.9
916.5156	1824.7115	52646.3	51754.85
916.6556	1826.3783	52579.3	51686.8
916.7956	1828.0443	52403.9	51511.55
916.9356	1829.7096	52225.5	51331.55
917.0756	1831.3741	51998.6	51100.1
917.2155	1833.0379	52054.65	51163.85
917.3555	1834.701	51894.45	50999.7
917.4954	1836.3633	51650.2	50756.4
917.6353	1838.0248	51638.8	50743.6
917.7751	1839.6856	51503.35	50611.3
917.915	1841.3457	51303.7	50411.8
918.0548	1843.005	51396.85	50503.6
918.1946	1844.6636	51147.05	50256.75
918.3344	1846.3214	50927.55	50033.15
918.4742	1847.9785	50959.75	50068.9
918.6139	1849.6349	50784.95	49890.45
918.7537	1851.2904	50794.35	49891.85
918.8934	1852.9453	50455.75	49562.2
919.0331	1854.5994	50378.35	49480.3
919.1727	1856.2528	50488.55	49591.8
919.3124	1857.9054	50197.05	49302.65
919.452	1859.5572	50115.1	49224.85
919.5916	1861.2083	50023.85	49131.9
919.7312	1862.8587	50144.15	49253.35
919.8708	1864.5084	49593.75	48700.5
920.0103	1866.1572	49675.65	48781.95
920.1498	1867.8054	49355.35	48460.35
920.2893	1869.4528	49392.85	48500.05
920.4288	1871.0994	49074.8	48181.35
920.5683	1872.7453	49089.25	48195.35
920.7077	1874.3905	48994.05	48095.35
920.8471	1876.0349	48732	47837.7
920.9865	1877.6786	48727.85	47834.45
921.1259	1879.3215	48675.45	47784.45
921.2653	1880.9637	48585.75	47690.6
921.4046	1882.6051	48464.95	47572.4
921.5439	1884.2458	48242.75	47346.25
921.6832	1885.8858	48032.75	47139.05
921.8225	1887.525	48043.35	47149.25
921.9617	1889.1634	47747.4	46854.6
922.101	1890.8011	47606.2	46710.8
922.2402	1892.4381	47407.35	46516.25
922.3794	1894.0743	47527.45	46635.15
922.5185	1895.7098	47364.2	46472.4
922.6577	1897.3446	47137.55	46243.05
922.7968	1898.9786	47077.55	46182.45
922.9359	1900.6118	46937.45	46045.1
923.075	1902.2443	46658.8	45762.65
923.214	1903.8761	46610.65	45717.55
923.3531	1905.5071	46299	45405.25
923.4921	1907.1374	46147.05	45254.05
923.6311	1908.7669	46091.55	45198.1
923.77	1910.3957	46072.55	45180.2
923.909	1912.0237	45712.65	44819.8
924.0479	1913.651	45581.95	44688.85
924.1868	1915.2776	45464.75	44571.95
924.3257	1916.9034	45346.85	44456
924.4646	1918.5285	45098.85	44207.15
924.6034	1920.1528	44888.05	43995.05
924.7422	1921.7764	44860.8	43969.7
924.881	1923.3992	44670.25	43776.15
925.0198	1925.0213	44334.95	43443.35
925.1586	1926.6427	44176.6	43285.6
925.2973	1928.2633	44199.45	43199.15
925.436	1929.8832	43983.35	43088.35
925.5747	1931.5023	43762.3	42871.5
925.7134	1933.1207	43644.85	42752.4
925.852	1934.7383	43608.15	42714.7
925.9906	1936.3552	43417.7	42527.15
926.1292	1937.9714	43256.2	42364.6
926.2678	1939.5868	43047.7	42153.2
926.4064	1941.2015	42805.25	41911.05
926.5449	1942.8154	42665.15	41773
926.6834	1944.4286	42513.25	41620.65
926.8219	1946.041	42342.75	41434.15
926.9604	1947.6528	42181.1	41283.4
927.0988	1949.2637	42043.25	41153.65
927.2372	1950.8739	41904.25	41012.55
927.3756	1952.4834	41817.05	40925.25
927.514	1954.0921	41717.5	40825.35
927.6523	1955.7001	41528.95	40634.3
927.7907	1957.3074	41368.25	40476.85
927.929	1958.9139	41160.65	40268.3
928.0673	1960.5197	41120.9	40227.95
928.2055	1962.1247	40884.9	39995.45
928.3438	1963.729	40729.3	39840.3
928.482	1965.3325	40531.65	39617.7
928.6202	1966.9353	40415.5	39525.2
928.7584	1968.5374	40329.8	39436.4
928.8965	1970.1387	40141.3	39249.55
929.0346	1971.7393	39954.95	39062.7
929.1727	1973.3392	39910.3	39018.2
929.3108	1974.9383	39706.65	38814.7
929.4489	1976.5366	39547	38656.3
929.5869	1978.1342	39480.65	38587.5
929.7249	1979.7311	39344.5	38450.7
929.8629	1981.3273	39240.95	38348.2
930.0009	1982.9227	39084.85	38192.25
930.1388	1984.5173	38958.55	38068.25
930.2767	1986.1112	38752.15	37860.95
930.4146	1987.7044	38767.35	37876
930.5525	1989.2968	38577.3	37686.25
930.6904	1990.8885	38458.95	37566.65
930.8282	1992.4795	38361.15	37469.5
930.966	1994.0697	38166.4	37275.6
931.1038	1995.6592	38063.8	37173.05
931.2415	1997.2479	37927.2	37035.65
931.3793	1998.8359	37837.45	36945.1
931.517	2000.4232	37675.35	36784.75
931.6547	2002.0097	37494.45	36605.3
931.7923	2003.5955	37289.95	36397.95
931.93	2005.1805	37273.9	36382.15
932.0676	2006.7648	37178.95	36290.1
932.2052	2008.3484	37069.85	36179.15
932.3427	2009.9312	37107.05	36216.05
932.4803	2011.5133	36911.9	36023.55
932.6178	2013.0946	36723.1	35831.65
932.7553	2014.6752	36724	35834.5
932.8928	2016.2551	36560.65	35669.3
933.0302	2017.8342	36399.5	35507.9
933.1676	2019.4126	36266.75	35378.05
933.305	2020.9902	36140.35	35250.35
933.4424	2022.5672	36025.85	35134.7
933.5798	2024.1433	35960.75	35062.5
933.7171	2025.7188	35817.3	34928.2
933.8544	2027.2935	35700.3	34809.75
933.9917	2028.8674	35556.65	34667.75
934.129	2030.4406	35460.5	34571.4
934.2662	2032.0131	35255.25	34365.8
934.4034	2033.5849	35132.8	34236.4
934.5406	2035.1559	35076.7	34185.25
934.6778	2036.7261	35045.2	34153.55
934.8149	2038.2957	34915.2	34025.5
934.952	2039.8645	34820	33929.1
935.0891	2041.4325	34857.2	33962.65
935.2262	2042.9998	34637.25	33743.8
935.3632	2044.5664	34518.45	33627.5
935.5002	2046.1323	34403.05	33511.95
935.6372	2047.6974	34308.45	33416.25
935.7742	2049.2617	34223.55	33332
935.9111	2050.8254	34187.5	33275.05
936.048	2052.3883	34099.35	33207.25
936.1849	2053.9504	33984.45	33093.9
936.3218	2055.5118	33877.4	32986.6
936.4586	2057.0725	33686.8	32792.95
936.5955	2058.6325	33662.4	32772.35
936.7323	2060.1917	33470.9	32580.4
936.869	2061.7502	33466.45	32573.25
937.0058	2063.3079	33310.4	32420.85
937.1425	2064.8649	33140.9	32248.2
937.2792	2066.4212	33055.85	32165.7
937.4159	2067.9767	32961	32071.15
937.5525	2069.5315	32787.1	31897.85
937.6891	2071.0856	32645.2	31755
937.8257	2072.6389	32513.95	31622.2
937.9623	2074.1915	32365.55	31475.8
938.0989	2075.7433	32253.45	31361.4
938.2354	2077.2945	32183.25	31293.85
938.3719	2078.8448	32105.25	31212.85
938.5084	2080.3945	31985.6	31095.35
938.6448	2081.9434	31909.55	31019.6
938.7812	2083.4916	31780.05	30890.2
938.9176	2085.039	31644.7	30752.05
939.054	2086.5857	31560.45	30667.9
939.1903	2088.1317	31553.35	30662.45
939.3267	2089.677	31426.9	30532.95
939.463	2091.2215	31308.8	30416.2
939.5992	2092.7652	31242.3	30349.05
939.7355	2094.3083	31153.3	30259.8
939.8717	2095.8506	31059.2	30168.8
940.0079	2097.3921	31034.3	30145.1
940.1441	2098.933	30960.9	30068.25
940.2802	2100.4731	30803.6	29912.4
940.4163	2102.0124	30765.65	29868.15
940.5524	2103.5511	30724.75	29833.15
940.6885	2105.089	30652.85	29762.25
940.8245	2106.6261	30536.7	29646
940.9606	2108.1626	30441.6	29549
941.0965	2109.6983	30374.6	29454.25
941.2325	2111.2332	30293.15	29399.6
941.3684	2112.7675	30185.8	29293
941.5044	2114.301	30037.85	29145.2
941.6403	2115.8337	30016.9	29126
941.7761	2117.3657	29927.45	29038.35
941.912	2118.897	29855.85	28964.45
942.0478	2120.4276	29741.35	28844.05
942.1835	2121.9575	29618.15	28726.65
942.3193	2123.4866	29599.3	28692.35
942.455	2125.0149	29535.8	28641.75
942.5907	2126.5426	29368.45	28477.5
942.7264	2128.0695	29245.25	28350.9
942.8621	2129.5956	29202.45	28313.4
942.9977	2131.1211	29119.95	28226.7
943.1333	2132.6458	29049.45	28159.9
943.2689	2134.1698	28995.55	28103.25
943.4044	2135.693	28880.45	27987.95
943.54	2137.2155	28812.15	27916.35
943.6755	2138.7373	28740.75	27849.65
943.8109	2140.2584	28674.75	27785.05
943.9464	2141.7787	28526.05	27629.9
944.0818	2143.2983	28365.1	27476.15
944.2172	2144.8171	28257.25	27368
944.3526	2146.3353	28152.85	27260.85
944.4879	2147.8527	28023.75	27132.3
944.6232	2149.3693	28001.1	27109.4
944.7585	2150.8853	27900.9	27008.25
944.8938	2152.4005	27782.35	26891.5
945.029	2153.9149	27692.1	26799
945.1642	2155.4287	27638.05	26745.85
945.2994	2156.9417	27585.45	26692.4
945.4346	2158.454	27437.2	26544.45
945.5697	2159.9655	27403.35	26512.55
945.7048	2161.4764	27378.15	26485.15
945.8399	2162.9865	27281.8	26391.75
945.9749	2164.4958	27205.15	26314.65
946.1099	2166.0045	27040.35	26146.7
946.2449	2167.5124	27072	26179.7
946.3799	2169.0195	26980.55	26088.85
946.5148	2170.526	26927.1	26034
946.6498	2172.0317	26834.1	25943.8
946.7846	2173.5367	26793	25901.05
946.9195	2175.0409	26696.45	25805.6
947.0543	2176.5445	26628.5	25738.45
947.1891	2178.0473	26512.3	25621.6
947.3239	2179.5494	26412.8	25518.7
947.4587	2181.0507	26319.45	25428.65
947.5934	2182.5513	26236.5	25345.25
947.7281	2184.0512	26181.6	25291.3
947.8628	2185.5504	26081.05	25190.55
947.9974	2187.0488	25916.05	25023.8
948.132	2188.5465	25855.05	24963.95
948.2666	2190.0435	25745.6	24854
948.4012	2191.5397	25644.9	24753.5
948.5357	2193.0353	25573.45	24684.7
948.6702	2194.5301	25455.2	24562.65
948.8047	2196.0241	25339.55	24447.8
948.9392	2197.5175	25332.9	24442
949.0736	2199.0101	25198.8	24304.9
949.208	2200.502	25097.95	24208.35
949.3424	2201.9931	24974.6	24085.05
949.4767	2203.4835	24833	23939.8
949.611	2204.9733	24777.6	23880.7
949.7453	2206.4622	24720.35	23831.1
949.8796	2207.9505	24619.65	23726.5
950.0138	2209.438	24502.6	23614.2
950.148	2210.9248	24459.1	23567.2
950.2822	2212.4109	24337.65	23447.5
950.4164	2213.8962	24320.35	23425.2
950.5505	2215.3809	24224.35	23331.2
950.6846	2216.8648	24140	23248.2
950.8186	2218.3479	24093.75	23199.6
950.9527	2219.8304	24032.3	23138.2
951.0867	2221.3121	23914.4	23022.45
951.2207	2222.7931	23783.6	22891
951.3546	2224.2733	23727.35	22835.8
951.4886	2225.7529	23627.95	22734.7
951.6225	2227.2317	23521.5	22628.25
951.7563	2228.7098	23511.5	22622
951.8902	2230.1872	23392.1	22500.55
952.024	2231.6638	23325.05	22434.75
952.1578	2233.1397	23222.3	22327.1
952.2916	2234.6149	23203	22312.7
952.4253	2236.0894	23088.3	22196.35
952.559	2237.5632	23040.2	22148.15
952.6927	2239.0362	22926.9	22035.5
952.8263	2240.5085	22867.6	21975.95
952.9599	2241.9801	22740.35	21850.35
953.0935	2243.4509	22672.15	21781.05
953.2271	2244.921	22612.95	21722.05
953.3606	2246.3904	22523.6	21630.65
953.4941	2247.8591	22433.3	21543.45
953.6276	2249.3271	22385.3	21495.1
953.7611	2250.7943	22295.15	21403.75
953.8945	2252.2608	22209.15	21318.85
954.0279	2253.7266	22162.95	21272.15
954.1612	2255.1917	22107.05	21215.45
954.2946	2256.656	22050.25	21157.9
954.4279	2258.1197	21938.45	21048.95
954.5612	2259.5826	21881.1	20989.65
954.6944	2261.0447	21826.65	20935.8
954.8276	2262.5062	21714.8	20822
954.9608	2263.9669	21719.4	20828.25
955.094	2265.4269	21662.3	20770.3
955.2271	2266.8862	21552.55	20662.05
955.3602	2268.3448	21515.8	20625.2
955.4933	2269.8026	21416.65	20524.7
955.6264	2271.2598	21347	20456.75
955.7594	2272.7162	21304.9	20414.55
955.8924	2274.1719	21225.45	20334
956.0253	2275.6268	21144.6	20253.05
956.1583	2277.0811	21106.15	20215.4
956.2912	2278.5346	21052.65	20162.1
956.4241	2279.9874	21025.2	20134.45
956.5569	2281.4395	20955.95	20064.65
956.6897	2282.8908	20846.45	19952.3
956.8225	2284.3414	20810.5	19917.4
956.9553	2285.7914	20755.8	19867.05
957.088	2287.2406	20647.65	19753.75
957.2207	2288.689	20604.3	19714.05
957.3534	2290.1368	20519.6	19627.35
957.486	2291.5838	20470.4	19578.05
957.6186	2293.0302	20385.65	19492.65
957.7512	2294.4758	20285.9	19395.45
957.8838	2295.9206	20220.05	19326.45
958.0163	2297.3648	20162.8	19271.35
958.1488	2298.8082	20156.8	19263.25
958.2813	2300.251	20079.15	19187.8
958.4137	2301.693	20008.05	19113.25
958.5461	2303.1343	19952.1	19061.45
958.6785	2304.5748	19890.5	18999
958.8108	2306.0147	19828.35	18936.45
958.9432	2307.4538	19781.7	18888.75
959.0754	2308.8922	19672.15	18780.8
959.2077	2310.3299	19603.65	18713.1
959.3399	2311.7669	19571.5	18680.3
959.4721	2313.2031	19516.65	18626.35
959.6043	2314.6387	19376.5	18482.85
959.7365	2316.0735	19373.3	18481.2
959.8686	2317.5076	19302	18409
960.0006	2318.941	19272.55	18383.3
960.1327	2320.3737	19173.4	18281.6
960.2647	2321.8056	19116.8	18223.6
960.3967	2323.2369	19043.95	18149.5
960.5287	2324.6674	19018.35	18124.5
960.6606	2326.0972	18921.95	18029
960.7925	2327.5263	18852.8	17960.9
960.9244	2328.9547	18813.7	17920.95
961.0562	2330.3823	18745.3	17853.65
961.1881	2331.8092	18734.05	17838.7
961.3198	2333.2355	18639.2	17748.35
961.4516	2334.661	18613.7	17723.2
961.5833	2336.0858	18540.6	17646.65
961.715	2337.5098	18500.85	17608.45
961.8467	2338.9332	18458.75	17566.1
961.9783	2340.3558	18388.05	17494.85
962.1099	2341.7778	18330.85	17439.7
962.2415	2343.199	18220.9	17329
962.373	2344.6195	18174	17284.6
962.5045	2346.0393	18111.9	17222.65
962.636	2347.4583	18087.05	17197.55
962.7675	2348.8767	18015.55	17123.4
962.8989	2350.2943	17983.8	17090.75
963.0303	2351.7113	17923.35	17030.75
963.1617	2353.1275	17862.85	16971.4
963.293	2354.543	17793.6	16893.25
963.4243	2355.9578	17740.1	16848.4
963.5556	2357.3718	17634.1	16743.6
963.6868	2358.7852	17531.4	16637.75
963.818	2360.1978	17466.9	16575.45
963.9492	2361.6098	17475.65	16585.65
964.0803	2363.021	17395.5	16499.85
964.2114	2364.4315	17324.7	16434.5
964.3425	2365.8413	17317.05	16425.6
964.4736	2367.2504	17203.5	16313.6
964.6046	2368.6587	17083.1	16190.5
964.7356	2370.0664	17077.5	16188.15
964.8666	2371.4733	17009.4	16119
964.9975	2372.8795	16950.35	16060.9
965.1284	2374.285	16852	15962.45
965.2593	2375.6899	16763.55	15871.65
965.3901	2377.0939	16684.4	15795.15
965.5209	2378.4973	16645.45	15758.2
965.6517	2379.9	16617.8	15726.65
965.7825	2381.3019	16541.8	15649.8
965.9132	2382.7032	16498.15	15610.3
966.0439	2384.1037	16457.05	15567.9
966.1745	2385.5035	16354.5	15463.65
966.3051	2386.9027	16338.45	15447.65
966.4357	2388.3011	16281.1	15386.35
966.5663	2389.6987	16217.4	15325.95
966.6968	2391.0957	16164.95	15276.3
966.8273	2392.492	16104.4	15214.55
966.9578	2393.8876	15966.75	15078.6
967.0882	2395.2824	15901.55	15011.85
967.2186	2396.6765	15858.95	14969.95
967.349	2398.07	15807.55	14918.65
967.4793	2399.4627	15759.8	14869.45
967.6097	2400.8547	15683.45	14793.3
967.7399	2402.246	15615.05	14718.65
967.8702	2403.6366	15533.4	14642.4
968.0004	2405.0265	15501	14609.75
968.1306	2406.4156	15432.25	14538.35
968.2607	2407.8041	15347.9	14454.65
968.3909	2409.1918	15306.05	14411.5
968.521	2410.5789	15273.35	14384.8
968.651	2411.9652	15224.55	14331.95
968.781	2413.3508	15167.35	14274.95
968.911	2414.7358	15101.8	14210
969.041	2416.12	15046.6	14157.95
969.1709	2417.5035	15011.7	14123.8
969.3008	2418.8863	14930.05	14039.05
969.4307	2420.2684	14893.45	14003.95
969.5606	2421.6497	14814.95	13924.45
969.6904	2423.0304	14718.85	13830.05
969.8201	2424.4104	14691.15	13799.9
969.9499	2425.7896	14654.3	13760.65
970.0796	2427.1682	14595.25	13705.55
970.2093	2428.546	14534.8	13643
970.3389	2429.9232	14507.25	13614.15
970.4685	2431.2996	14473.4	13582.1
970.5981	2432.6753	14420.95	13530.4
970.7277	2434.0503	14397.55	13507.65
970.8572	2435.4246	14312.45	13422.3
970.9867	2436.7982	14259	13366.15
971.1161	2438.1711	14243.55	13351.25
971.2456	2439.5433	14191.95	13300.85
971.375	2440.9148	14119.35	13223.15
971.5043	2442.2856	14035.8	13146.2
971.6336	2443.6557	14007.45	13115.35
971.7629	2445.025	13958.05	13067.8
971.8922	2446.3937	13949.8	13061.2
972.0214	2447.7617	13901.45	13011.2
972.1506	2449.1289	13853.25	12962.95
972.2798	2450.4955	13821	12926.85
972.4089	2451.8613	13769.2	12877.5
972.538	2453.2265	13733.75	12843.7
972.6671	2454.5909	13715.45	12825.1
972.7961	2455.9546	13672.7	12782.2
972.9251	2457.3177	13592	12702.15
973.0541	2458.68	13553.5	12659.8
973.1831	2460.0416	13569.6	12679.25
973.312	2461.4025	13503.8	12611.05
973.4408	2462.7627	13458.95	12557.05
973.5697	2464.1222	13426.85	12536.75
973.6985	2465.4811	13372.1	12481.3
973.8273	2466.8392	13309.4	12418.1
973.956	2468.1966	13264	12371.35
974.0847	2469.5533	13265.1	12373.25
974.2134	2470.9093	13222.25	12331.3
974.3421	2472.2645	13174.3	12282.4
974.4707	2473.6191	13122.9	12231.45
974.5993	2474.973	13081.95	12191.9
974.7278	2476.3262	13014.7	12123
974.8563	2477.6787	12973.55	12083.3
974.9848	2479.0305	12898.7	12007.05
975.1132	2480.3816	12875.25	11983.95
975.2417	2481.7319	12834.2	11944.3
975.37	2483.0816	12779.45	11888.85
975.4984	2484.4306	12714.35	11822.5
975.6267	2485.7789	12684.4	11794.35
975.755	2487.1264	12632.15	11739.6
975.8833	2488.4733	12564.1	11674.7
976.0115	2489.8195	12545.35	11635.85
976.1397	2491.165	12521.1	11627
976.2678	2492.5097	12458	11565
976.3959	2493.8538	12359.75	11468.45
976.524	2495.1972	12321.5	11430.35
976.6521	2496.5398	12253.7	11363.05
976.7801	2497.8818	12236.85	11344.55
976.9081	2499.2231	12205.5	11315.5
977.036	2500.5637	12149.9	11257.85
977.164	2501.9035	12098.15	11207.35
977.2918	2503.2427	12095.85	11198.9
977.4197	2504.5812	12019.85	11129.6
977.5475	2505.919	11983.8	11090.1
977.6753	2507.256	11971.35	11079.8
977.8031	2508.5924	11924.95	11034.8
977.9308	2509.9281	11869.75	10973.05
978.0585	2511.2631	11825.25	10935.75
978.1861	2512.5974	11795.5	10905.2
978.3137	2513.9309	11761	10869.6
978.4413	2515.2638	11717.85	10800.15
978.5689	2516.596	11690.2	10799.15
978.6964	2517.9275	11614.95	10721.95
978.8239	2519.2583	11559.25	10668.3
978.9513	2520.5884	11526.8	10635.7
979.0788	2521.9178	11475.7	10584.7
979.2062	2523.2465	11433.3	10543.05
979.3335	2524.5745	11391.6	10501.4
979.4608	2525.9018	11337	10445.15
979.5881	2527.2284	11340.8	10452.25
979.7154	2528.5543	11305.15	10415.7
979.8426	2529.8796	11261.8	10369.5
979.9698	2531.2041	11248	10357.6
980.0969	2532.5279	11220.55	10333.8
980.224	2533.851	11172.45	10281.25
980.3511	2535.1735	11155.75	10265.45
980.4781	2536.4952	11136.6	10246.45
980.6052	2537.8163	11086.9	10195.1
980.7321	2539.1366	11044.25	10153.1
980.8591	2540.4562	10994.85	10102
980.986	2541.7752	11010.9	10122.15
981.1129	2543.0935	10990.05	10098.95
981.2397	2544.411	10953.5	10060.55
981.3665	2545.7279	10938.75	10049.3
981.4933	2547.0441	10874.4	9983.95
981.62	2548.3596	10890.45	9997.5
981.7467	2549.6744	10879.15	9987.65
981.8734	2550.9885	10824.95	9925
982.0001	2552.3019	10765.45	9874.85
982.1267	2553.6146	10742.15	9853
982.2532	2554.9266	10701.05	9810.4
982.3798	2556.2379	10665.4	9773.65
982.5063	2557.5485	10651.6	9762.1
982.6327	2558.8585	10604.65	9707.45
982.7592	2560.1677	10597.6	9703.3
982.8856	2561.4762	10590.7	9700.25
983.0119	2562.7841	10561.35	9667.95
983.1383	2564.0913	10522.8	9632.3
983.2646	2565.3977	10487.85	9598.85
983.3908	2566.7035	10463.4	9572.05
983.517	2568.0086	10447.25	9553.75
983.6432	2569.313	10423.15	9532.5
983.7694	2570.6167	10386.1	9493.05
983.8955	2571.9197	10371.7	9481.45
984.0216	2573.222	10370.4	9475.85
984.1476	2574.5236	10314.2	9424.2
984.2737	2575.8246	10269.6	9375.35
984.3996	2577.1248	10247.75	9356.45
984.5256	2578.4244	10266.65	9377.05
984.6515	2579.7232	10220.55	9328.9
984.7774	2581.0214	10233.15	9319.15
984.9032	2582.3189	10162.75	9272
985.029	2583.6157	10155.4	9259.35
985.1548	2584.9118	10139.35	9246.85
985.2806	2586.2072	10101.25	9211.35
985.4063	2587.5019	10085.15	9194.3
985.5319	2588.7959	10054.6	9163.35
985.6576	2590.0893	10015.7	9124.15
985.7832	2591.3819	9991.6	9100.55
985.9087	2592.6739	9947.2	9056.45
986.0343	2593.9652	9921.75	9030.2
986.1597	2595.2557	9871.5	8980.95
986.2852	2596.5456	9843.1	8949.25
986.4106	2597.8348	9804.6	8914.9
986.536	2599.1234	9755.05	8865.6
986.6614	2600.4112	9736.55	8845.75
986.7867	2601.6983	9708.05	8816.85
986.912	2602.9848	9678.9	8789.25
987.0372	2604.2705	9662.5	8764.55
987.1624	2605.5556	9627	8736
987.2876	2606.84	9587.1	8696.7
987.4128	2608.1237	9566.95	8674.95
987.5379	2609.4067	9538.35	8649.95
987.6629	2610.689	9495.5	8595.7
987.788	2611.9707	9455.45	8561.1
987.913	2613.2516	9419.5	8523.8
988.0379	2614.5319	9393.5	8503.3
988.1629	2615.8115	9340.2	8449.45
988.2878	2617.0903	9277.5	8385.7
988.4126	2618.3685	9257.95	8367.2
988.5375	2619.6461	9244	8353.25
988.6622	2620.9229	9183.3	8292.85
988.787	2622.199	9171.35	8278.7
988.9117	2623.4745	9153	8261.5
989.0364	2624.7493	9117.35	8228.6
989.161	2626.0234	9060.95	8171.65
989.2857	2627.2968	9030.75	8141.2
989.4102	2628.5695	8993.95	8100.8
989.5348	2629.8415	8978.5	8088
989.6593	2631.1128	8910.6	8020.1
989.7837	2632.3835	8874.7	7982.2
989.9082	2633.6535	8858.45	7967.2
990.0326	2634.9228	8816.6	7926
990.1569	2636.1914	8786.7	7895.3
990.2812	2637.4593	8763.45	7872.4
990.4055	2638.7265	8714.15	7823.05
990.5298	2639.9931	8700.25	7809.65
990.654	2641.259	8693.35	7802.35
990.7782	2642.5242	8643.25	7752.8
990.9023	2643.7887	8640.3	7749.9
991.0264	2645.0525	8604.9	7713.25
991.1505	2646.3156	8566.75	7674.9
991.2745	2647.5781	8542.8	7651.8
991.3985	2648.8398	8497.4	7608.15
991.5225	2650.1009	8466.55	7566.5
991.6464	2651.3613	8448.35	7556.1
991.7703	2652.6211	8442.7	7550.35
991.8942	2653.8801	8423	7532.45
992.018	2655.1385	8361.7	7470.45
992.1418	2656.3961	8352.75	7464.65
992.2655	2657.6531	8340.8	7452.9
992.3892	2658.9094	8319.4	7427.95
992.5129	2660.1651	8278.5	7387.75
992.6366	2661.42	8270.8	7381.55
992.7602	2662.6743	8262.7	7370.2
992.8837	2663.9279	8240.8	7349.7
993.0073	2665.1808	8190.6	7297.75
993.1307	2666.433	8176.8	7283.9
993.2542	2667.6846	8170	7281.45
993.3776	2668.9354	8144.35	7250.15
993.501	2670.1856	8098.05	7206.05
993.6244	2671.4351	8106.5	7214.5
993.7477	2672.6839	8088.6	7195.55
993.8709	2673.9321	8057.45	7166.95
993.9942	2675.1795	8032.3	7143.4
994.1174	2676.4263	8019.85	7128.9
994.2405	2677.6724	7959.95	7069.95
994.3637	2678.9179	7926.6	7035.7
994.4868	2680.1626	7934.15	7044
994.6098	2681.4067	7909.8	7021.25
994.7328	2682.6501	7884.95	6993.7
994.8558	2683.8928	7861	6969.2
994.9788	2685.1348	7831.1	6939.8
995.1017	2686.3761	7789.3	6900.35
995.2245	2687.6168	7772.45	6882.7
995.3474	2688.8568	7737.8	6848.45
995.4702	2690.0961	7702.85	6813.6
995.5929	2691.3348	7687.35	6796.6
995.7156	2692.5727	7661.1	6771.05
995.8383	2693.81	7641.75	6751
995.961	2695.0466	7634.95	6745.1
996.0836	2696.2826	7588.8	6696.8
996.2062	2697.5178	7583.6	6691.3
996.3287	2698.7524	7545.95	6655
996.4512	2699.9863	7540.25	6650.55
996.5737	2701.2195	7481.9	6592.95
996.6961	2702.452	7487.55	6595.65
996.8185	2703.6839	7458.65	6567.25
996.9408	2704.9151	7438.5	6549.2
997.0631	2706.1456	7415.25	6526.5
997.1854	2707.3755	7372.35	6479.7
997.3077	2708.6046	7377.05	6484.4
997.4299	2709.8331	7348.4	6456.8
997.552	2711.0609	7314.3	6424.2
997.6742	2712.2881	7325.9	6437.6
997.7963	2713.5145	7325.5	6433
997.9183	2714.7403	7269.5	6378.6
998.0403	2715.9654	7252.05	6359.35
998.1623	2717.1899	7246.8	6341.3
998.2842	2718.4136	7233.05	6342.4
998.4062	2719.6367	7227.15	6337.95
998.528	2720.8591	7207.9	6313.15
998.6498	2722.0809	7177.8	6288.45
998.7716	2723.3019	7141.25	6247
998.8934	2724.5223	7147.15	6256.25
999.0151	2725.7421	7134.1	6241.25
999.1368	2726.9611	7108.7	6216.4
999.2584	2728.1795	7088.9	6194.25
999.38	2729.3972	7044.4	6152.75
999.5016	2730.6142	7031.05	6128.45
999.6231	2731.8306	6986.35	6094.7
999.7446	2733.0462	6957.25	6065.1
999.8661	2734.2612	6918.35	6024
999.9875	2735.4756	6859.55	5966.65
1000.1089	2736.6892	6810.45	5920.75
1000.2302	2737.9022	6759.85	5871.15
1000.3515	2739.1145	6746.45	5856.35
1000.4728	2740.3262	6717.05	5819.85
1000.594	2741.5372	6673.5	5783.4
1000.7152	2742.7475	6641.4	5750.85
1000.8363	2743.9571	6629.3	5737.6
1000.9575	2745.1661	6591.8	5695.7
1001.0785	2746.3744	6572.45	5679.95
1001.1996	2747.582	6540.55	5649.9
1001.3206	2748.7889	6524.7	5632
1001.4415	2749.9952	6484.4	5596.05
1001.5625	2751.2008	6465.4	5575.9
1001.6833	2752.4057	6436	5541.65
1001.8042	2753.61	6409.85	5518
1001.925	2754.8136	6396.15	5503.95
1002.0458	2756.0165	6371.7	5481.45
1002.1665	2757.2188	6345.25	5456.25
1002.2872	2758.4204	6341.2	5450.75
1002.4078	2759.6213	6300.95	5408.15
1002.5285	2760.8215	6281.7	5386.6
1002.649	2762.0211	6264.05	5372.4
1002.7696	2763.22	6250.1	5357.7
1002.8901	2764.4182	6224.9	5333.65
1003.0106	2765.6158	6203.3	5312
1003.131	2766.8127	6186.65	5296.3
1003.2514	2768.009	6170.5	5280.4
1003.3717	2769.2045	6152.25	5261
1003.492	2770.3994	6125	5232.9
1003.6123	2771.5936	6097.1	5205.85
1003.7325	2772.7872	6089.25	5198.05
1003.8527	2773.9801	6043.85	5154.15
1003.9729	2775.1723	6039.1	5132.25
1004.093	2776.3639	6018.8	5130.6
1004.2131	2777.5548	5980.7	5088.25
1004.3331	2778.745	5980.95	5089.85
1004.4531	2779.9346	5962.65	5072.7
1004.5731	2781.1235	5950.2	5057.95
1004.693	2782.3117	5934	5044.2
1004.8129	2783.4992	5908.45	5018.35
1004.9328	2784.6861	5895.3	5006.45
1005.0526	2785.8723	5897.7	5005.65
1005.1723	2787.0579	5862.55	4971.4
1005.2921	2788.2428	5858.35	4967.35
1005.4118	2789.427	5833.55	4945.2
1005.5314	2790.6106	5819.45	4928.25
1005.651	2791.7935	5827.9	4938.25
1005.7706	2792.9757	5795.75	4908.1
1005.8902	2794.1573	5795.25	4902.2
1006.0097	2795.3382	5777.1	4886.7
1006.1291	2796.5184	5759.65	4871.2
1006.2485	2797.698	5778.45	4885.9
1006.3679	2798.8769	5764.7	4874.6
1006.4873	2800.0551	5771.45	4880.75
1006.6066	2801.2327	5749.7	4857.15
1006.7258	2802.4096	5765.7	4877.35
1006.8451	2803.5859	5770	4877.75
1006.9642	2804.7615	5760.2	4868.6
1007.0834	2805.9364	5770.95	4879.8
1007.2025	2807.1106	5771.5	4880.4
1007.3216	2808.2842	5778.3	4888.15
1007.4406	2809.4572	5799.55	4909.55
1007.5596	2810.6294	5821.8	4932.35
1007.6785	2811.801	5848.45	4959.9
1007.7975	2812.972	5857.25	4968
1007.9163	2814.1423	5871.4	4980.95
1008.0352	2815.3119	5920.55	5031.65
1008.154	2816.4808	5962.9	5075.25
1008.2727	2817.6491	6000.15	5110.2
1008.3914	2818.8167	6019.3	5131.4
1008.5101	2819.9837	6060.05	5163.8
1008.6288	2821.15	6080.2	5190.5
1008.7474	2822.3157	6086.75	5197.6
1008.8659	2823.4807	6128.5	5239.2
1008.9844	2824.645	6156.15	5266.95
1009.1029	2825.8086	6198.5	5308.8
1009.2214	2826.9716	6228.45	5338.25
1009.3398	2828.134	6259.05	5369.15
1009.4581	2829.2957	6282.6	5393.25
1009.5764	2830.4567	6286.65	5397.85
1009.6947	2831.617	6299.15	5408.3
1009.813	2832.7767	6290.55	5400.55
1009.9312	2833.9358	6292.5	5402.9
1010.0493	2835.0941	6274.95	5383.25
1010.1675	2836.2519	6258.85	5370.7
1010.2855	2837.4089	6225.6	5335.4
1010.4036	2838.5653	6219.3	5329.35
1010.5216	2839.7211	6183.8	5295.25
1010.6396	2840.8761	6186.45	5294.5
1010.7575	2842.0306	6211.2	5321
1010.8754	2843.1843	6227.55	5337.25
1010.9932	2844.3374	6254.2	5364.55
1011.111	2845.4899	6300	5406.4
1011.2288	2846.6417	6356.4	5463.8
1011.3465	2847.7928	6413.3	5524.45
1011.4642	2848.9433	6492.1	5604.25
1011.5818	2850.0931	6544.65	5655.1
1011.6995	2851.2422	6630.1	5739.4
1011.817	2852.3907	6668.9	5777.3
1011.9345	2853.5385	6728.8	5836.4
1012.052	2854.6857	6793.8	5875.35
1012.1695	2855.8323	6805.25	5915.35
1012.2869	2856.9781	6835.55	5946
1012.4042	2858.1233	6891.55	6002.2
1012.5216	2859.2679	6895.3	6005.4
1012.6389	2860.4118	6929.65	6040.2
1012.7561	2861.555	6950.2	6055.15
1012.8733	2862.6976	6961.5	6069.25
1012.9905	2863.8395	6972.85	6085.3
1013.1076	2864.9808	6978.65	6088.45
1013.2247	2866.1214	6968.05	6081.7
1013.3417	2867.2614	6992.05	6102.75
1013.4587	2868.4007	6978	6087.25
1013.5757	2869.5393	6966.3	6075.3
1013.6926	2870.6773	6948.4	6053.95
1013.8095	2871.8146	6972.85	6077.7
1013.9263	2872.9513	6945.25	6052.85
1014.0431	2874.0874	6923.35	6035.9
1014.1599	2875.2227	6903.35	6013.1
1014.2766	2876.3574	6861.15	5970.6
1014.3933	2877.4915	6822.85	5934.15
1014.51	2878.6249	6798.7	5909.25
1014.6266	2879.7577	6755.55	5865
1014.7431	2880.8898	6722.2	5821.75
1014.8596	2882.0212	6701.95	5811.7
1014.9761	2883.152	6680.7	5789.95
1015.0925	2884.2821	6645.75	5756.85
1015.2089	2885.4116	6611	5722.65
1015.3253	2886.5405	6604.9	5715.4
1015.4416	2887.6686	6601.35	5707.95
1015.5579	2888.7962	6577.55	5689.25
1015.6741	2889.923	6578.45	5691.85
1015.7903	2891.0493	6579.95	5691.3
1015.9065	2892.1748	6575.75	5683.85
1016.0226	2893.2997	6559.4	5669
1016.1387	2894.424	6554.4	5663.95
1016.2547	2895.5476	6558.35	5668.8
1016.3707	2896.6706	6570.95	5683.6
1016.4866	2897.7929	6576.15	5686.6
1016.6025	2898.9145	6613.9	5724.9
1016.7184	2900.0355	6612.55	5722.55
1016.8342	2901.1559	6651.25	5760.8
1016.95	2902.2756	6663.7	5774.1
1017.0658	2903.3946	6666.7	5777.65
1017.1815	2904.513	6660.85	5769.95
1017.2971	2905.6308	6680.85	5792.3
1017.4127	2906.7479	6685.6	5792.4
1017.5283	2907.8643	6703.55	5813.15
1017.6439	2908.9801	6706.8	5817.8
1017.7594	2910.0953	6681.8	5791.3
1017.8748	2911.2098	6672.75	5779.5
1017.9902	2912.3236	6677.15	5779.7
1018.1056	2913.4368	6630.35	5737.1
1018.2209	2914.5494	6634.9	5744.05
1018.3362	2915.6613	6570.45	5674.75
1018.4515	2916.7725	6539.25	5646.65
1018.5667	2917.8831	6506.7	5615.1
1018.6819	2918.9931	6470.2	5578.05
1018.797	2920.1024	6435.05	5542.95
1018.9121	2921.211	6400.75	5509.6
1019.0271	2922.319	6357.95	5466.75
1019.1421	2923.4264	6345.15	5457.3
1019.2571	2924.5331	6315.05	5428.3
1019.372	2925.6391	6276.95	5387.9
1019.4869	2926.7445	6269.1	5380.55
1019.6017	2927.8493	6238.85	5349.8
1019.7165	2928.9534	6230.6	5341.65
1019.8313	2930.0569	6216.35	5326.05
1019.946	2931.1597	6201.55	5308.05
1020.0606	2932.2619	6156.75	5267.2
1020.1753	2933.3634	6167.65	5278.4
1020.2899	2934.4643	6149.2	5253.5
1020.4044	2935.5645	6120.5	5226.15
1020.5189	2936.6641	6058.4	5164.05
1020.6334	2937.763	5999.1	5109.45
1020.7478	2938.8613	5966.2	5077.25
1020.8622	2939.959	5884.6	4991.45
1020.9765	2941.056	5799.8	4911.35
1021.0908	2942.1523	5713.7	4822.45
1021.2051	2943.248	5627.75	4739.05
1021.3193	2944.3431	5528.9	4639
1021.4334	2945.4375	5412.35	4522.6
1021.5476	2946.5313	5306.25	4419.95
1021.6617	2947.6244	5202.8	4313.5
1021.7757	2948.7169	5084.35	4194.2
1021.8897	2949.8087	4973.5	4082.75
1022.0037	2950.8999	4872.15	3983.05
1022.1176	2951.9904	4780.15	3890.5
1022.2315	2953.0803	4704.75	3814.65
1022.3453	2954.1696	4616.35	3727.05
1022.4591	2955.2582	4571.05	3683.45
1022.5728	2956.3462	4500.55	3610.3
1022.6865	2957.4335	4437.4	3547.95
1022.8002	2958.5202	4396.75	3505.5
1022.9138	2959.6062	4378.4	3490.15
1023.0274	2960.6916	4338.9	3451
1023.141	2961.7764	4307.4	3416.5
1023.2545	2962.8605	4271.6	3382.45
1023.3679	2963.9439	4253.7	3363.75
1023.4813	2965.0267	4236.6	3346.3
1023.5947	2966.1089	4224.6	3310.6
1023.708	2967.1905	4203.55	3314.2
1023.8213	2968.2714	4188.4	3299.95
1023.9346	2969.3516	4159.1	3271
1024.0478	2970.4312	4173.8	3276.15
1024.1609	2971.5102	4155.2	3266.1
1024.274	2972.5885	4131.15	3241.3
1024.3871	2973.6662	4155.4	3260
1024.5002	2974.7432	4106.9	3218.4
1024.6132	2975.8196	4103.9	3214.2
1024.7261	2976.8954	4072.9	3184.35
1024.839	2977.9705	4042.25	3154.25
1024.9519	2979.045	4031.55	3142.85
1025.0647	2980.1188	4009	3120.8
1025.1775	2981.192	3981.15	3091.85
1025.2902	2982.2645	3948.2	3057.3
1025.4029	2983.3364	3911.1	3021.5
1025.5156	2984.4077	3871.15	2982.3
1025.6282	2985.4783	3838.8	2945.8
1025.7407	2986.5483	3804.75	2917.2
1025.8532	2987.6177	3780.1	2893.85
1025.9657	2988.6864	3740.75	2850.05
1026.0782	2989.7545	3685	2794.85
1026.1906	2990.8219	3660	2770.75
1026.3029	2991.8887	3624.5	2732.1
1026.4152	2992.9548	3572.05	2681.7
1026.5275	2994.0204	3519.15	2629.9
1026.6397	2995.0852	3500.55	2612.25
1026.7519	2996.1495	3472.9	2582.1
1026.864	2997.2131	3445.65	2555.25
1026.9761	2998.276	3391.15	2501.85
1027.0882	2999.3383	3367.65	2476.45
1027.2002	3000.4	3337.7	2445.55
1027.3122	3001.4611	3323.4	2434.75
1027.4241	3002.5215	3306.4	2417.1
1027.536	3003.5812	3267.4	2379.2
1027.6478	3004.6404	3254.65	2365.65
1027.7596	3005.6989	3245.1	2352.4
1027.8714	3006.7567	3234.8	2345.4
1027.9831	3007.8139	3235.65	2325.4
1028.0947	3008.8705	3206.05	2315.1
1028.2064	3009.9264	3200	2307.8
1028.3179	3010.9818	3171.85	2282.5
1028.4295	3012.0364	3162.05	2272.65
1028.541	3013.0905	3166.95	2278.3
1028.6524	3014.1439	3152.05	2261.4
1028.7638	3015.1966	3143.25	2256.35
1028.8752	3016.2487	3124.65	2233.25
1028.9865	3017.3002	3120.35	2227.8
1029.0978	3018.3511	3114.5	2226.3
1029.209	3019.4013	3103.8	2214.55
1029.3202	3020.4509	3096.3	2207.8
1029.4314	3021.4998	3093.85	2205.45
1029.5425	3022.5481	3100.5	2211.3
1029.6535	3023.5958	3096.7	2207.95
1029.7645	3024.6428	3079.3	2189.35
1029.8755	3025.6892	3076.75	2189
1029.9864	3026.735	3075.9	2186.05
1030.0973	3027.7802	3060.65	2170.9
1030.2082	3028.8247	3046.35	2157.8
1030.319	3029.8685	3029	2140.05
1030.4297	3030.9118	3034.3	2144.95
1030.5404	3031.9544	3033	2145.4
1030.6511	3032.9963	3024.5	2134.8
1030.7617	3034.0376	3028.1	2138.2
1030.8723	3035.0783	3029.7	2139.05
1030.9829	3036.1184	3011.4	2122.05
1031.0934	3037.1578	3016.65	2128.15
1031.2038	3038.1966	3017.6	2125.5
1031.3142	3039.2348	2995.1	2105.9
1031.4246	3040.2723	2989.2	2090.6
1031.5349	3041.3092	2981.35	2092.35
1031.6452	3042.3455	2975.9	2085.75
1031.7554	3043.3811	2965.9	2076.35
1031.8656	3044.4161	2944.95	2054.55
1031.9758	3045.4505	2944.8	2056.4
1032.0859	3046.4842	2936.3	2046.2
1032.1959	3047.5173	2922.6	2033.5
1032.3059	3048.5498	2912.75	2023.8
1032.4159	3049.5816	2885.8	1996.8
1032.5258	3050.6128	2886.05	1996.95
1032.6357	3051.6434	2859.25	1968.35
1032.7455	3052.6734	2853.35	1963.3
1032.8553	3053.7027	2839.35	1948.9
1032.9651	3054.7314	2830.8	1943.6
1033.0748	3055.7594	2820.35	1932.2
1033.1845	3056.7868	2804.2	1914.65
1033.2941	3057.8136	2797.3	1908.5
1033.4037	3058.8398	2775.1	1885.8
1033.5132	3059.8653	2781.95	1896.05
1033.6227	3060.8902	2754.15	1866.25
1033.7321	3061.9145	2747.35	1860.5
1033.8415	3062.9381	2727	1837.65
1033.9509	3063.9612	2746.1	1840.15
1034.0602	3064.9835	2712.9	1822.2
1034.1694	3066.0053	2701.45	1810.6
1034.2787	3067.0264	2683.35	1795.85
1034.3878	3068.0469	2687.2	1798.8
1034.497	3069.0668	2679.55	1788.1
1034.6061	3070.086	2642.65	1754.15
1034.7151	3071.1046	2630.6	1742.45
1034.8241	3072.1226	2630.75	1739.8
1034.9331	3073.1399	2604.15	1713.35
1035.042	3074.1567	2595.25	1706.3
1035.1508	3075.1727	2579.25	1688.05
1035.2597	3076.1882	2565.95	1677.5
1035.3684	3077.203	2555.65	1665.9
1035.4772	3078.2173	2538.3	1650.25
1035.5859	3079.2308	2528.45	1636.45
1035.6945	3080.2438	2510.1	1618.45
1035.8031	3081.2561	2494.4	1605.3
1035.9117	3082.2678	2489.4	1599.45
1036.0202	3083.2789	2472.15	1580.95
1036.1286	3084.2893	2471.55	1581.45
1036.2371	3085.2991	2457.8	1569.6
1036.3454	3086.3083	2439.1	1546.75
1036.4538	3087.3169	2426.5	1534.85
1036.562	3088.3248	2416.4	1527.85
1036.6703	3089.3321	2402.85	1512.75
1036.7785	3090.3388	2406.4	1517.9
1036.8866	3091.3449	2392.65	1502.6
1036.9948	3092.3503	2384.05	1491.85
1037.1028	3093.3551	2372.6	1485.8
1037.2108	3094.3593	2357.85	1469.55
1037.3188	3095.3629	2344.9	1454.55
1037.4267	3096.3658	2347.85	1458.25
1037.5346	3097.3681	2334.15	1446.05
1037.6425	3098.3698	2336.8	1447.6
1037.7503	3099.3708	2327.65	1433.85
1037.858	3100.3713	2313	1424.2
1037.9657	3101.3711	2292.65	1405.4
1038.0734	3102.3702	2408	1383.2
1038.181	3103.3688	2299.85	1409.6
1038.2886	3104.3667	2281.2	1392.85
1038.3961	3105.364	2271.55	1382.5
1038.5036	3106.3607	2270.25	1378.25
1038.611	3107.3568	2256.65	1367.05
1038.7184	3108.3522	2247.95	1361.55
1038.8257	3109.347	2238.15	1347.2
1038.933	3110.3412	2240.85	1347.3
1039.0403	3111.3348	2218.75	1328.6
1039.1475	3112.3277	2207.25	1318.25
1039.2547	3113.32	2199.05	1312.4
1039.3618	3114.3117	2199.4	1310.6
1039.4689	3115.3028	2180.8	1292.2
1039.5759	3116.2932	2178.65	1289.05
1039.6829	3117.2831	2174.05	1278.6
1039.7898	3118.2723	2168.85	1280.05
1039.8967	3119.2608	2167.65	1277.8
1040.0035	3120.2488	2150.2	1261
1040.1103	3121.2361	2151.65	1261.6
1040.2171	3122.2229	2134.25	1245.05
1040.3238	3123.209	2129.95	1240
1040.4305	3124.1944	2118.95	1231
1040.5371	3125.1793	2115.2	1225.3
1040.6437	3126.1635	2113.8	1225.6
1040.7502	3127.1471	2101.7	1212.9
1040.8567	3128.1301	2090.55	1204
1040.9631	3129.1125	2093.2	1205.85
1041.0695	3130.0942	2081.5	1193.8
1041.1759	3131.0753	2080.1	1182.4
1041.2822	3132.0558	2076.05	1183.7
1041.3884	3133.0357	2066.1	1176.2
1041.4946	3134.015	2068.55	1179.25
1041.6008	3134.9936	2053.55	1164.25
1041.7069	3135.9716	2068.6	1157.8
1041.813	3136.949	2048.8	1161.25
1041.919	3137.9258	2049.15	1154.8
1042.025	3138.902	2040.7	1146.8
1042.1309	3139.8775	2029.45	1140.8
1042.2368	3140.8524	2027.7	1139.7
1042.3427	3141.8267	2022.15	1130.05
1042.4485	3142.8004	2013.4	1125.5
1042.5542	3143.7735	2014.55	1118.1
1042.6599	3144.7459	2020.45	1128.4
1042.7656	3145.7178	2004.4	1117.1
1042.8712	3146.689	2001.5	1113.15
1042.9768	3147.6596	1990.5	1099
1043.0823	3148.6295	1988.95	1099.9
1043.1878	3149.5989	1984.3	1095.4
1043.2932	3150.5676	1963.4	1076.7
1043.3986	3151.5357	1966.4	1078.6
1043.5039	3152.5032	1965.65	1077.8
1043.6092	3153.4701	1948.55	1059
1043.7145	3154.4364	1954.25	1061.65
1043.8197	3155.402	1928.75	1042.15
1043.9248	3156.367	1935.1	1046.05
1044.03	3157.3315	1978.6	1046.65
1044.135	3158.2952	1918.15	1029.6
1044.24	3159.2584	1919.2	1032.1
1044.345	3160.221	1909.55	1021.4
1044.4499	3161.1829	1893.45	1004.55
1044.5548	3162.1442	1896.1	1009.6
1044.6596	3163.105	1887.15	998.05
1044.7644	3164.065	1886.15	996.4
1044.8692	3165.0245	1879.5	988.85
1044.9739	3165.9834	1877.9	990.95
1045.0785	3166.9416	1870.15	981.8
1045.1831	3167.8993	1858.5	968.55
1045.2877	3168.8563	1859.05	968.7
1045.3922	3169.8127	1845.1	958.7
1045.4966	3170.7684	1841.95	952.95
1045.6011	3171.7236	1838.35	949.1
1045.7054	3172.6782	1837.3	946.25
1045.8098	3173.6321	1832.1	943.05
1045.914	3174.5854	1826.4	934.3
1046.0183	3175.5381	1816.5	927.25
1046.1224	3176.4902	1811.95	925.05
1046.2266	3177.4417	1804.6	916.1
1046.3307	3178.3926	1798.05	909.2
1046.4347	3179.3428	1791.1	903.7
1046.5387	3180.2924	1797.2	909.25
1046.6427	3181.2415	1782.05	892.4
1046.7466	3182.1899	1783.25	894
1046.8504	3183.1377	1773.9	884.2
1046.9542	3184.0848	1778.65	887.3
1047.058	3185.0314	1761	870.95
1047.1617	3185.9773	1772.5	882.75
1047.2654	3186.9227	1760.9	872.5
1047.369	3187.8674	1757.9	868.25
1047.4726	3188.8115	1749.45	855.3
1047.5761	3189.755	1744.35	856.55
1047.6796	3190.6979	1737.7	849.5
1047.783	3191.6402	1738.15	850.95
1047.8864	3192.5818	1729.2	839.65
1047.9898	3193.5229	1753.55	839.45
1048.0931	3194.4633	1732.6	842.35
1048.1963	3195.4031	1717.95	830.65
1048.2995	3196.3423	1717.1	829.8
1048.4027	3197.2809	1715.5	827.5
1048.5058	3198.2189	1709.4	821.6
1048.6089	3199.1563	1705.65	810.65
1048.7119	3200.0931	1708.75	820.65
1048.8148	3201.0292	1693.5	806.55
1048.9178	3201.9648	1687.95	800.4
1049.0206	3202.8997	1693.7	802.25
1049.1235	3203.834	1685.25	796.45
1049.2262	3204.7677	1675.6	787.95
1049.329	3205.7008	1675.8	784.85
1049.4317	3206.6333	1660	772.65
1049.5343	3207.5652	1673.55	782.1
1049.6369	3208.4964	1658	769.7
1049.7394	3209.4271	1654.6	765.9
1049.8419	3210.3571	1661.9	774.6
1049.9444	3211.2865	1652.95	763.7
1050.0468	3212.2154	1658.1	768.65
1050.1491	3213.1436	1656.05	764.2
1050.2514	3214.0712	1642.75	748.1
1050.3537	3214.9982	1642.15	754.3
1050.4559	3215.9246	1623.45	734.65
1050.5581	3216.8503	1622.2	735.15
1050.6602	3217.7755	1629.1	739.4
1050.7623	3218.7001	1622.35	733.45
1050.8643	3219.624	1629.15	740.65
1050.9663	3220.5473	1613.25	724.5
1051.0682	3221.4701	1604.85	714.85
1051.1701	3222.3922	1604	713.85
1051.2719	3223.3137	1606.15	718.1
1051.3737	3224.2346	1600.9	712.9
1051.4754	3225.1549	1588.8	700.55
1051.5771	3226.0746	1583.85	696.5
1051.6788	3226.9937	1584	695
1051.7804	3227.9121	1578.95	690.6
1051.8819	3228.83	1585.85	699.1
1051.9834	3229.7473	1577.8	687.4
1052.0849	3230.6639	1574	685.4
1052.1863	3231.5799	1566.95	678.85
1052.2876	3232.4954	1568.75	679.05
1052.3889	3233.4102	1562.5	675.45
1052.4902	3234.3244	1554.05	666.25
1052.5914	3235.238	1551.35	664.7
1052.6926	3236.151	1570.75	657.4
1052.7937	3237.0634	1549.45	660.8
1052.8948	3237.9752	1545.4	656.65
1052.9958	3238.8864	1538.85	650.2
1053.0968	3239.797	1531.05	641.6
1053.1977	3240.7069	1529.15	640.75
1053.2986	3241.6163	1519.8	629.25
1053.3994	3242.5251	1526.55	639.7
1053.5002	3243.4332	1518.65	632.1
1053.6009	3244.3408	1518.2	628.5
1053.7016	3245.2477	1507.95	620.5
1053.8022	3246.154	1502.8	612.6
1053.9028	3247.0598	1501.2	612.65
1054.0034	3247.9649	1505.3	615.7
1054.1039	3248.8694	1497.8	609.35
1054.2043	3249.7733	1491.65	603.65
1054.3047	3250.6766	1495	608.6
1054.4051	3251.5793	1488.4	599.4
1054.5054	3252.4814	1482.2	592
1054.6056	3253.3829	1473.35	583.6
1054.7058	3254.2838	1479.2	591.65
1054.806	3255.1841	1468.4	581.35
1054.9061	3256.0838	1467.7	581.3
1055.0061	3256.9829	1450.05	562
1055.1062	3257.8814	1454.45	564.55
1055.2061	3258.7792	1455.2	563.85
1055.306	3259.6765	1452.2	562.2
1055.4059	3260.5731	1447.4	558.8
1055.5057	3261.4692	1425.75	536.5
1055.6055	3262.3647	1423.15	535.15
1055.7052	3263.2595	1415.1	525.65
1055.8049	3264.1538	1406	518.2
1055.9045	3265.0474	1399.85	511.8
1056.0041	3265.9404	1393.25	505.05
1056.1036	3266.8329	1391.4	504.3
1056.2031	3267.7247	1385.5	487.75
1056.3025	3268.616	1365.05	477.5
1056.4019	3269.5066	1353.5	464.75
1056.5013	3270.3966	1341	451.15
1056.6005	3271.286	1324.05	436.4
