Software Version:	3.9.2.0
Unit SN:	10000200
Spectrometer SN:	6960
Date:	3/6/2024 9:53:55 AM
Data Line Index:	25
Spectral Points:	2048
Integration time (ms):	125
Averages:	20
Delay (ms):	30
Sequence Number:	1
Processing:	dark subtract
Laser Power (mW):	305
Laser Current (mA):	826
Laser Diode Temp (C):	25.1
Laser Case Temp (C):	24.5
System Temp (C):	24.3
Spectrometer Temp (C):	21.8
CCD Temp (C):	-0.009
Secondary Temp (C):	20.006
Heatsink Temp (C):	18.248
CCDPCB Temp (C):	31.171
SecondaryPCB Temp (C):	26.18

Wavelength	RamanShift	Raw Counts	Dark Subtracted
787.061	30.1047	501.15	92.35
787.2016	32.3739	501.8	95.95
787.3422	34.6426	506.95	99.2
787.4828	36.9109	520.45	111.45
787.6235	39.1787	527.55	113.05
787.7642	41.4461	541.5	124.45
787.9049	43.7131	551.2	130.7
788.0456	45.9796	558.9	134.35
788.1863	48.2456	573.05	145.5
788.3271	50.5112	584.35	152.15
788.4679	52.7764	594.35	160.75
788.6087	55.0411	606.85	169.4
788.7496	57.3054	623.15	179.65
788.8904	59.5692	632.4	187.7
789.0313	61.8326	650.4	203.35
789.1722	64.0955	668.15	216.95
789.3132	66.3579	693.65	238
789.4541	68.6199	719.4	262.4
789.5951	70.8815	762.85	298.7
789.7361	73.1426	852.5	384.35
789.8771	75.4032	1085.15	614.75
790.0181	77.6634	1657.3	1182.35
790.1592	79.9231	3055.6	2574.75
790.3003	82.1824	6101.95	5613.75
790.4414	84.4412	11518.5	11014.9
790.5825	86.6995	18843.3	18321.15
790.7237	88.9574	25988.7	25451.4
790.8648	91.2148	31346	30797.85
791.006	93.4717	33793.5	33237.5
791.1472	95.7282	34889.2	34327.2
791.2885	97.9842	35364.55	34801.95
791.4297	100.2398	35623.35	35058.8
791.571	102.4949	35413.95	34843.95
791.7123	104.7495	35687.6	35115.2
791.8536	107.0036	35414.3	34838.1
791.9949	109.2573	35869.15	35296.15
792.1363	111.5105	35415.3	34840.85
792.2777	113.7632	35761.9	35185.25
792.4191	116.0154	35826.25	35236.1
792.5605	118.2672	36118.25	35538.85
792.7019	120.5185	36108.7	35524.8
792.8434	122.7693	36110.75	35520.5
792.9849	125.0197	35886.25	35295.7
793.1264	127.2696	36489.1	35890.9
793.2679	129.519	36525.2	35924.15
793.4094	131.7679	36790.45	36192.3
793.551	134.0163	35997.7	35393.65
793.6926	136.2642	36387.05	35779.1
793.8342	138.5117	36970.45	36360.35
793.9758	140.7587	36744.65	36134.35
794.1175	143.0052	36852.95	36238.1
794.2591	145.2512	36437.4	35825.3
794.4008	147.4967	36977.1	36361
794.5425	149.7417	36760.95	36143.6
794.6842	151.9863	36870.65	36249.75
794.826	154.2304	36396.35	35771.6
794.9677	156.4739	36854.75	36224.2
795.1095	158.717	37044.35	36412.3
795.2513	160.9596	36893.25	36254.35
795.3931	163.2017	36495.3	35857.45
795.535	165.4433	37034.15	36393.65
795.6768	167.6844	36767.4	36126.25
795.8187	169.925	37039.55	36391.15
795.9606	172.1651	36857.6	36212.2
796.1025	174.4047	36757.85	36105.95
796.2445	176.6439	36906.7	36254.95
796.3864	178.8825	36966.45	36309.05
796.5284	181.1206	37130.45	36468.9
796.6704	183.3582	37175.9	36509.8
796.8124	185.5954	36870.6	36205.05
796.9544	187.832	37060.1	36389.6
797.0965	190.0681	36904.65	36232.45
797.2386	192.3037	37357.55	36681.3
797.3806	194.5388	37800.9	37120.8
797.5228	196.7734	36816.95	36133.35
797.6649	199.0075	37681.7	36998.25
797.807	201.2411	37500.45	36816.15
797.9492	203.4742	37971.75	37288.85
798.0914	205.7068	37938.1	37245.85
798.2336	207.9389	37893.05	37203.9
798.3758	210.1704	37804.5	37119.5
798.518	212.4015	38320.15	37647.15
798.6603	214.632	37679	37011.15
798.8025	216.862	38286.3	37619.15
798.9448	219.0915	38262.05	37591.25
799.0871	221.3205	38038.1	37364.15
799.2294	223.549	38482.55	37812.35
799.3718	225.777	38455.7	37784.55
799.5141	228.0044	38578.85	37904.8
799.6565	230.2314	38522.05	37842.2
799.7989	232.4578	38493.25	37813.2
799.9413	234.6837	38500.35	37808.8
800.0837	236.909	39363.7	38671.35
800.2262	239.1339	38287.15	37567.65
800.3687	241.3582	38756.25	38054.35
800.5111	243.582	38761.75	38028.25
800.6536	245.8053	38891.7	38172.1
800.7961	248.0281	38845.6	38131.5
800.9387	250.2503	39089.85	38368.25
801.0812	252.472	38840.45	38118.55
801.2238	254.6932	38965.3	38245.3
801.3664	256.9139	38873.45	38151.4
801.509	259.134	39656.5	38931.2
801.6516	261.3536	38694.65	37971.15
801.7942	263.5727	39395.55	38666.9
801.9369	265.7912	39017.35	38294.75
802.0795	268.0092	39164.15	38436.55
802.2222	270.2267	39227.05	38497.55
802.3649	272.4436	38993.5	38268.35
802.5076	274.6601	39281.3	38542
802.6504	276.8759	39474.6	38737.75
802.7931	279.0913	39387.95	38654.55
802.9359	281.3061	39311	38575.3
803.0787	283.5204	39512.65	38773.25
803.2215	285.7341	39415.25	38674.1
803.3643	287.9473	39879.8	39126.35
803.5071	290.16	39451.3	38707.45
803.6499	292.3721	39821.6	39080.6
803.7928	294.5837	39313.25	38573.95
803.9357	296.7947	39132.3	38390.15
804.0786	299.0052	39641.7	38898.75
804.2215	301.2152	39290.55	38545.2
804.3644	303.4246	39818.2	39073.2
804.5074	305.6334	39758.55	39015.05
804.6503	307.8418	39242.7	38491.95
804.7933	310.0495	39476.05	38725.15
804.9363	312.2568	39298	38544.95
805.0793	314.4635	39289.6	38538.1
805.2223	316.6696	39390.05	38636.4
805.3653	318.8752	39640.65	38878.9
805.5084	321.0802	38816.65	38061.1
805.6514	323.2847	39103.45	38346.1
805.7945	325.4887	39197.1	38440.4
805.9376	327.692	38917.35	38157.75
806.0807	329.8949	39208.1	38446.55
806.2238	332.0972	39027.55	38262.8
806.367	334.2989	39204.7	38440.05
806.5101	336.5001	39554.15	38787.3
806.6533	338.7007	38957.9	38190.9
806.7965	340.9008	39200.55	38432.2
806.9397	343.1003	39201.05	38430.45
807.0829	345.2992	39446.95	38674
807.2261	347.4976	39120.05	38346.5
807.3693	349.6955	39223.75	38444.5
807.5126	351.8927	39009.25	38231.65
807.6559	354.0895	39268.85	38480.55
807.7991	356.2856	39184.85	38403.5
807.9424	358.4812	39455.6	38678.35
808.0857	360.6763	39085.55	38303.9
808.2291	362.8707	39208.35	38424.55
808.3724	365.0646	39090.8	38304.15
808.5158	367.258	39119.4	38330.85
808.6591	369.4508	38867.9	38076.75
808.8025	371.643	39194.9	38401.85
808.9459	373.8346	39086.35	38296.2
809.0893	376.0257	39049.95	38256.1
809.2327	378.2162	38960.45	38166.5
809.3762	380.4062	38730.4	37936.6
809.5196	382.5956	38844.55	38053.35
809.6631	384.7844	38900.25	38109.85
809.8066	386.9726	38922.9	38132.8
809.9501	389.1603	38989.75	38201.15
810.0936	391.3474	38618.6	37799.2
810.2371	393.5339	38979.6	38188.85
810.3806	395.7199	38479.5	37690.9
810.5241	397.9052	38529.9	37740.75
810.6677	400.09	38609.95	37819.95
810.8113	402.2743	38732.15	37942.55
810.9548	404.4579	38648.7	37858.3
811.0984	406.641	38496.4	37704.1
811.2421	408.8235	38792.85	37999.15
811.3857	411.0054	38722.95	37926.6
811.5293	413.1868	38789.65	37987.75
811.673	415.3675	38785.95	37984.1
811.8166	417.5477	38801.15	37997.1
811.9603	419.7273	38674.4	37865.15
812.104	421.9064	38530.2	37714.95
812.2477	424.0848	38580.5	37770.3
812.3914	426.2627	38615.15	37806.25
812.5351	428.4399	38226.2	37417.8
812.6788	430.6166	38093.55	37282.45
812.8226	432.7928	38310.5	37498.05
812.9663	434.9683	37969.85	37158.1
813.1101	437.1432	37978.9	37164.3
813.2539	439.3176	38044.6	37230.4
813.3977	441.4914	37686.55	36878.6
813.5415	443.6645	37735.25	36922.55
813.6853	445.8371	37664.05	36850.55
813.8291	448.0091	37435.55	36621.2
813.973	450.1806	37420.15	36606.7
814.1168	452.3514	37354.9	36539
814.2607	454.5216	37236.1	36413.3
814.4046	456.6913	37213.4	36397.7
814.5485	458.8603	37301.45	36483.85
814.6924	461.0288	37137.25	36322.2
814.8363	463.1967	37223.95	36409.1
814.9802	465.3639	37286.5	36470
815.1241	467.5306	36888.05	36072.75
815.2681	469.6967	36979.7	36161.2
815.412	471.8622	37003.6	36189.75
815.556	474.0271	36897.8	36081.5
815.7	476.1914	36925.5	36101.45
815.844	478.3551	36905.85	36086.7
815.988	480.5182	37051.75	36232.15
816.132	482.6807	36868.65	36051.55
816.276	484.8426	36890.4	36076.55
816.4201	487.0039	37122.8	36307.2
816.5641	489.1647	37097.15	36273.35
816.7082	491.3248	36923.45	36099.7
816.8522	493.4843	37187.1	36364.75
816.9963	495.6432	37121	36299
817.1404	497.8015	36812.3	35980.05
817.2845	499.9592	36960.1	36130.85
817.4286	502.1163	36902.7	36073.35
817.5727	504.2728	36852.95	36027.35
817.7168	506.4287	36895.8	36072.45
817.861	508.5839	36717.95	35894.75
818.0051	510.7386	36742.65	35916.95
818.1493	512.8927	36747.25	35913.4
818.2935	515.0461	36726.2	35891.6
818.4377	517.199	36811.25	35982.3
818.5818	519.3512	36773.6	35942.2
818.726	521.5029	36633.85	35796
818.8703	523.6539	36716.65	35884.35
819.0145	525.8043	36507.65	35673.4
819.1587	527.9541	36636.95	35799.1
819.303	530.1033	36543.85	35707.2
819.4472	532.2519	36445.6	35610.2
819.5915	534.3999	36504.5	35667.45
819.7357	536.5472	36603.45	35766.4
819.88	538.694	36333.2	35497.75
820.0243	540.8401	36503.3	35664.1
820.1686	542.9856	36443.95	35601.45
820.3129	545.1305	36475.75	35631.85
820.4572	547.2748	36466.2	35620.45
820.6016	549.4185	36431.2	35583.25
820.7459	551.5615	36390.2	35543.5
820.8902	553.704	36412.4	35564.25
821.0346	555.8458	36214.7	35370.15
821.1789	557.987	36299	35455
821.3233	560.1276	36326.55	35481.1
821.4677	562.2675	36294.5	35449.25
821.6121	564.4069	36313.45	35466.6
821.7565	566.5456	36297.95	35452.8
821.9009	568.6837	36209.4	35366.1
822.0453	570.8212	36194.1	35350.55
822.1897	572.958	35942.75	35093.85
822.3342	575.0942	35970.65	35130.7
822.4786	577.2299	35812.15	34969.7
822.6231	579.3648	35703.15	34866.05
822.7675	581.4992	35557.7	34722.7
822.912	583.6329	35483.65	34649.55
823.0565	585.766	35446.65	34609.65
823.201	587.8985	35397.45	34559.3
823.3454	590.0304	35156.85	34303.45
823.4899	592.1616	35247.35	34395.95
823.6345	594.2922	35147.6	34298.75
823.779	596.4222	35047.1	34196.65
823.9235	598.5515	34984.25	34131.15
824.068	600.6802	34897.3	34044.6
824.2126	602.8083	34694.65	33842.6
824.3571	604.9358	34708.15	33858.6
824.5017	607.0626	34613.15	33759.4
824.6462	609.1888	34593.5	33736.8
824.7908	611.3144	34604.9	33745.4
824.9354	613.4393	34541.7	33682.25
825.08	615.5636	34528.8	33671.05
825.2246	617.6873	34556.45	33699.8
825.3692	619.8103	34551.3	33693.95
825.5138	621.9327	34469.85	33610.15
825.6584	624.0544	34446.25	33589.2
825.803	626.1756	34400.5	33546.2
825.9477	628.2961	34361.65	33503.7
826.0923	630.4159	34216.9	33359.7
826.237	632.5351	34205.2	33346.25
826.3816	634.6537	34228.35	33367.5
826.5263	636.7716	34151.75	33287.85
826.6709	638.8889	34159.3	33297.9
826.8156	641.0056	34153.7	33290.15
826.9603	643.1216	34124.35	33259.4
827.105	645.237	34188.1	33324.05
827.2497	647.3518	34049.45	33193.6
827.3944	649.4659	34038.3	33179.7
827.5391	651.5793	33957.25	33100.65
827.6838	653.6922	33903.1	33045.1
827.8285	655.8043	33828.05	32969.9
827.9733	657.9159	33940	33077.65
828.118	660.0268	33707	32843.95
828.2627	662.137	33659.5	32797.4
828.4075	664.2466	33681.4	32815
828.5522	666.3556	33684.5	32819.55
828.697	668.4639	33586	32720.35
828.8418	670.5716	33632.85	32768.9
828.9865	672.6786	33604.6	32737.05
829.1313	674.785	33390.45	32521.05
829.2761	676.8907	33332.7	32468.05
829.4209	678.9958	33359.3	32497.85
829.5657	681.1002	33243.3	32378.15
829.7105	683.204	33155.2	32283.15
829.8553	685.3072	33133.65	32264.95
830.0001	687.4097	33072.2	32203.4
830.1449	689.5115	33105.15	32236.1
830.2898	691.6127	33083.35	32214.85
830.4346	693.7132	32964.3	32097.85
830.5794	695.8131	33005.8	32122.15
830.7243	697.9123	32995.6	32123.7
830.8691	700.0109	32953.05	32078.9
831.014	702.1089	32882.4	32009.1
831.1588	704.2061	32865.45	31994.05
831.3037	706.3028	32827.5	31955.15
831.4486	708.3987	32815.8	31944.7
831.5935	710.4941	32736.75	31864.2
831.7383	712.5887	32706.3	31834.9
831.8832	714.6827	32703.6	31826.3
832.0281	716.7761	32721.1	31849.4
832.173	718.8688	32662.05	31788.8
832.3179	720.9608	32607.5	31728.4
832.4628	723.0522	32601.4	31722.4
832.6077	725.1429	32538.65	31661.5
832.7527	727.233	32545.85	31668.4
832.8976	729.3224	32548.95	31671.1
833.0425	731.4112	32435.75	31558.65
833.1874	733.4993	32367	31488.9
833.3324	735.5867	32296.15	31417
833.4773	737.6735	32232.1	31354.5
833.6222	739.7596	32166.35	31289.5
833.7672	741.845	32069.45	31193.5
833.9122	743.9298	32013.2	31135.85
834.0571	746.014	32010.7	31134.35
834.2021	748.0974	31927.95	31044
834.347	750.1802	31856.35	30977.05
834.492	752.2624	31711.2	30831.75
834.637	754.3439	31624.4	30742.2
834.782	756.4247	31546.95	30659.15
834.9269	758.5048	31422.8	30543.45
835.0719	760.5843	31393.7	30512.6
835.2169	762.6631	31309.5	30427.95
835.3619	764.7413	31318.7	30440.65
835.5069	766.8188	31296.75	30415
835.6519	768.8956	31204.05	30318.25
835.7969	770.9718	31263.75	30381.3
835.9419	773.0473	31126.7	30243
836.0869	775.1221	31051.45	30171.2
836.232	777.1962	30960.85	30077.9
836.377	779.2697	30939.95	30055.7
836.522	781.3426	30961.9	30060.35
836.667	783.4147	30812.45	29928.6
836.8121	785.4862	30799.05	29918.25
836.9571	787.557	30712.15	29827.5
837.1021	789.6271	30598.25	29713.2
837.2472	791.6966	30509.6	29626.4
837.3922	793.7654	30335.25	29451.9
837.5373	795.8335	30306.05	29421.9
837.6823	797.901	30208.8	29325.4
837.8274	799.9678	30170.65	29282.65
837.9724	802.0339	30106.65	29221.35
838.1175	804.0993	30088.25	29193.05
838.2626	806.1641	29947.25	29061.6
838.4076	808.2282	29878.5	28997.35
838.5527	810.2916	29896.15	29009.05
838.6978	812.3544	29829	28945.05
838.8428	814.4164	29736.95	28851.35
838.9879	816.4778	29730.55	28842.9
839.133	818.5385	29685.35	28797.15
839.2781	820.5986	29691.25	28805.1
839.4232	822.658	29660.9	28772.5
839.5682	824.7166	29599.9	28710.05
839.7133	826.7747	29692.8	28805.9
839.8584	828.832	29675.8	28788.3
840.0035	830.8886	29532.2	28641.45
840.1486	832.9446	29545.2	28655.1
840.2937	834.9999	29449.3	28561.4
840.4388	837.0545	29414.4	28523.45
840.5839	839.1085	29301.65	28412.6
840.729	841.1618	29209.55	28318.65
840.8741	843.2143	29143.35	28251.8
841.0192	845.2662	29028.35	28141.2
841.1643	847.3175	29016	28126.8
841.3095	849.368	28900.4	28012.75
841.4546	851.4179	28893.85	28004.15
841.5997	853.467	28761.1	27874.4
841.7448	855.5155	28704.05	27815.5
841.8899	857.5633	28663.8	27773.35
842.0351	859.6105	28562.2	27671.85
842.1802	861.6569	28480.1	27590.45
842.3253	863.7027	28506.05	27613.8
842.4704	865.7478	28472.15	27577.45
842.6156	867.7922	28413	27520.65
842.7607	869.8359	28362.4	27469.1
842.9058	871.8789	28301.05	27408.25
843.0509	873.9212	28342.4	27419.4
843.1961	875.9629	28195.35	27303.15
843.3412	878.0039	28203.05	27312.05
843.4863	880.0441	28136.4	27246.05
843.6315	882.0837	28183.4	27294
843.7766	884.1226	28115.1	27223.5
843.9218	886.1609	28094.4	27200.45
844.0669	888.1984	28115.25	27224.75
844.212	890.2352	28191.5	27299.6
844.3572	892.2714	28089.7	27193.1
844.5023	894.3069	28028.95	27136.8
844.6475	896.3416	27858.3	26963.05
844.7926	898.3757	27888.95	26995.15
844.9377	900.4091	27839.75	26945.15
845.0829	902.4418	27766.8	26866.75
845.228	904.4739	27673.8	26776.8
845.3732	906.5052	27669.45	26775
845.5183	908.5358	27606.05	26710.05
845.6635	910.5658	27517.8	26620.1
845.8086	912.595	27479.85	26583.4
845.9538	914.6236	27356.05	26460.65
846.0989	916.6515	27374.7	26477.9
846.2441	918.6786	27237.95	26342.65
846.3892	920.7051	27214.45	26315.8
846.5344	922.7309	27239	26343.5
846.6795	924.756	27089.35	26193
846.8246	926.7804	27097.25	26201.2
846.9698	928.8041	26879.85	25982
847.1149	930.8272	26929.8	26034.55
847.2601	932.8495	26790.55	25893.7
847.4052	934.8711	26772.35	25875.65
847.5504	936.892	26651.4	25755.1
847.6955	938.9123	26602.95	25703.6
847.8407	940.9318	26591.35	25694.5
847.9858	942.9506	26447.05	25546.1
848.131	944.9688	26382.05	25483.25
848.2761	946.9862	26285.1	25389.1
848.4213	949.003	26165.4	25268.2
848.5664	951.019	26096.15	25196.8
848.7115	953.0344	26049.55	25152.3
848.8567	955.0491	25964.25	25066.75
849.0018	957.063	25946.15	25050.75
849.147	959.0763	25984.65	25087.8
849.2921	961.0888	25881.6	24983.1
849.4373	963.1007	25864.2	24968.4
849.5824	965.1119	25816.75	24921.45
849.7275	967.1223	25769.05	24875.5
849.8727	969.1321	25727.15	24835.8
850.0178	971.1412	25694.95	24800.8
850.1629	973.1495	25591.3	24694.25
850.3081	975.1572	25566.9	24638.95
850.4532	977.1641	25517.9	24619.1
850.5983	979.1704	25439.3	24542.9
850.7435	981.1759	25371.55	24470.4
850.8886	983.1808	25359.65	24457.9
851.0337	985.1849	25303.45	24395.8
851.1788	987.1884	25225.05	24323.85
851.324	989.1911	25140.9	24240.7
851.4691	991.1932	25091.65	24195.15
851.6142	993.1945	24991.1	24093.35
851.7593	995.1951	24900.15	24002.15
851.9045	997.1951	24868.45	23963.5
852.0496	999.1943	24764.9	23864.1
852.1947	1001.1928	24674.1	23773.7
852.3398	1003.1906	24519.05	23620.15
852.4849	1005.1877	24515.2	23614.25
852.63	1007.1841	24456.4	23557
852.7751	1009.1798	24339.5	23440.5
852.9202	1011.1748	24255.85	23357.95
853.0653	1013.1691	24194.35	23293.7
853.2104	1015.1627	24120.1	23220.2
853.3555	1017.1556	23921.3	23021.6
853.5006	1019.1477	23873.55	22975.65
853.6457	1021.1392	23704.05	22808.2
853.7908	1023.1299	23638.55	22742.6
853.9359	1025.12	23560.15	22666.7
854.081	1027.1093	23480.8	22593
854.2261	1029.0979	23432.1	22546.55
854.3712	1031.0859	23299.1	22408.55
854.5163	1033.0731	23252.2	22358.95
854.6613	1035.0596	23156.5	22260.5
854.8064	1037.0454	23005.95	22108.1
854.9515	1039.0304	22980.7	22083.4
855.0965	1041.0148	22872.3	21973.7
855.2416	1042.9985	22812.6	21910.75
855.3867	1044.9814	22834.5	21937.2
855.5317	1046.9636	22720.45	21821
855.6768	1048.9452	22606.95	21707.35
855.8219	1050.926	22583.65	21685.55
855.9669	1052.9061	22502.35	21604.1
856.112	1054.8855	22445.85	21543.75
856.257	1056.8642	22438.75	21538.85
856.4021	1058.8421	22424.7	21524.8
856.5471	1060.8194	22317.25	21415.85
856.6921	1062.7959	22240.8	21337.4
856.8372	1064.7717	22210.85	21310.6
856.9822	1066.7469	22187	21286.95
857.1272	1068.7213	22103.15	21200.05
857.2723	1070.695	22096.9	21197.35
857.4173	1072.6679	22033.15	21134.6
857.5623	1074.6402	22009.5	21110.4
857.7073	1076.6117	21978.75	21076.15
857.8523	1078.5826	21921.75	21019.75
857.9973	1080.5527	21845.4	20942.9
858.1423	1082.5221	21785.2	20884.25
858.2873	1084.4908	21741.8	20845
858.4323	1086.4587	21644.85	20743.4
858.5773	1088.426	21616.75	20715.4
858.7223	1090.3925	21551.55	20646
858.8673	1092.3584	21528.5	20630.1
859.0123	1094.3235	21428.4	20529.6
859.1573	1096.2879	21395.45	20494.25
859.3022	1098.2515	21391.35	20490.7
859.4472	1100.2145	21356.5	20456.5
859.5922	1102.1767	21250.2	20350
859.7371	1104.1382	21299.8	20398.6
859.8821	1106.099	21232.55	20331.15
860.027	1108.0591	21169.25	20269.2
860.172	1110.0185	21161.95	20259.2
860.3169	1111.9771	21159.95	20261.7
860.4619	1113.9351	21080.75	20180.95
860.6068	1115.8923	21014.3	20113.35
860.7517	1117.8488	20982.25	20077.4
860.8967	1119.8045	20846.4	19945.75
861.0416	1121.7596	20814.95	19912
861.1865	1123.7139	20684.7	19784.7
861.3314	1125.6675	20628.6	19729.6
861.4763	1127.6204	20668.45	19768.8
861.6212	1129.5726	20541.95	19641.6
861.7661	1131.524	20509.55	19610.05
861.911	1133.4748	20469.9	19568
862.0559	1135.4248	20389	19484.65
862.2008	1137.3741	20342.2	19441.35
862.3457	1139.3226	20268.15	19365.25
862.4905	1141.2705	20247.85	19346.2
862.6354	1143.2176	20145.35	19240.6
862.7803	1145.164	20123.85	19218.7
862.9251	1147.1097	20060.65	19158.9
863.07	1149.0546	20054.4	19151.85
863.2148	1150.9989	19993.8	19091.2
863.3597	1152.9424	19973.25	19068.55
863.5045	1154.8852	19911.3	19008.65
863.6493	1156.8272	19899.3	18997.7
863.7942	1158.7686	19918.1	19011.7
863.939	1160.7092	19824.85	18923.75
864.0838	1162.6491	19741.15	18837.4
864.2286	1164.5883	19719.7	18818.25
864.3734	1166.5267	19744	18840.55
864.5182	1168.4644	19688.25	18784.65
864.663	1170.4014	19677.15	18772.85
864.8078	1172.3377	19707.5	18806
864.9526	1174.2732	19721.35	18821.9
865.0974	1176.2081	19771.45	18869.25
865.2421	1178.1421	19761.8	18857.7
865.3869	1180.0755	19775.25	18874.8
865.5317	1182.0082	19740	18839.15
865.6764	1183.9401	19679.95	18781
865.8212	1185.8713	19580.2	18681.7
865.9659	1187.8017	19498.05	18602.35
866.1106	1189.7315	19415.35	18521.1
866.2554	1191.6605	19264.55	18371.75
866.4001	1193.5888	19169.3	18271.4
866.5448	1195.5163	19117.2	18218.85
866.6895	1197.4432	19030.75	18129.8
866.8342	1199.3693	18996.05	18093
866.9789	1201.2947	18894.6	17986.95
867.1236	1203.2193	18809.75	17910.15
867.2683	1205.1432	18780.05	17881.1
867.413	1207.0664	18734.75	17834.15
867.5576	1208.9889	18672.8	17770.95
867.7023	1210.9106	18607.95	17708.8
867.847	1212.8316	18487.4	17585.85
867.9916	1214.7519	18526.5	17615.6
868.1363	1216.6715	18423.1	17521.1
868.2809	1218.5903	18428.8	17528.65
868.4255	1220.5084	18401	17498.65
868.5701	1222.4257	18391.8	17490.1
868.7148	1224.3424	18293.4	17394.55
868.8594	1226.2583	18281.85	17375.9
869.004	1228.1735	18241.25	17339.4
869.1486	1230.0879	18158.8	17256.2
869.2932	1232.0016	18181.15	17279.85
869.4377	1233.9146	18129.4	17227.15
869.5823	1235.8269	18074.2	17174.45
869.7269	1237.7384	18076.2	17175.2
869.8715	1239.6492	18004.6	17107.3
870.016	1241.5592	18009	17106.25
870.1606	1243.4686	17956.35	17057.35
870.3051	1245.3772	17976.85	17075.65
870.4496	1247.285	17956	17054
870.5941	1249.1922	17950.75	17049.7
870.7387	1251.0986	17961.3	17059.25
870.8832	1253.0042	17921.6	17019.55
871.0277	1254.9092	17928.3	17029.3
871.1722	1256.8134	17960.05	17060.7
871.3167	1258.7169	17961.05	17058.75
871.4611	1260.6196	17941.45	17041.6
871.6056	1262.5216	17912.35	17009.45
871.7501	1264.4229	17831.2	16930.35
871.8945	1266.3234	17805.95	16905.35
872.039	1268.2232	17760.7	16859.7
872.1834	1270.1223	17753.4	16850.6
872.3278	1272.0207	17693.35	16791.75
872.4723	1273.9183	17646.6	16737.75
872.6167	1275.8151	17563.95	16662.45
872.7611	1277.7113	17582.45	16680.15
872.9055	1279.6067	17575.45	16677.55
873.0499	1281.5014	17594.9	16692.55
873.1943	1283.3953	17678.3	16773.9
873.3386	1285.2885	17758.25	16858.25
873.483	1287.181	17781	16880
873.6274	1289.0727	17848.3	16948.3
873.7717	1290.9637	17814.05	16912.65
873.9161	1292.854	17772.65	16873.65
874.0604	1294.7435	17634.85	16736.05
874.2047	1296.6323	17617.3	16716.25
874.349	1298.5204	17548.5	16644.95
874.4933	1300.4077	17462.1	16559.05
874.6376	1302.2943	17404.85	16505.3
874.7819	1304.1802	17365.4	16466.15
874.9262	1306.0653	17277.85	16375.15
875.0705	1307.9497	17219.8	16316.65
875.2147	1309.8333	17216.15	16316.6
875.359	1311.7162	17125.65	16225.6
875.5032	1313.5984	17085.95	16181.4
875.6475	1315.4798	17020.35	16118.05
875.7917	1317.3605	16954	16036.55
875.9359	1319.2405	16926.5	16021.05
876.0801	1321.1197	16881.2	15979.75
876.2243	1322.9982	16796.5	15891.5
876.3685	1324.876	16771.45	15870.15
876.5127	1326.753	16646.9	15746.5
876.6569	1328.6293	16626.15	15720.85
876.801	1330.5048	16585.1	15680.3
876.9452	1332.3796	16465.4	15563.35
877.0893	1334.2537	16473.25	15545.95
877.2335	1336.127	16407.7	15506.45
877.3776	1337.9996	16362.3	15459.5
877.5217	1339.8714	16297.75	15393.65
877.6658	1341.7426	16289.8	15342.75
877.8099	1343.6129	16227.2	15324.2
877.954	1345.4826	16192.75	15291.65
878.0981	1347.3515	16184.45	15281.7
878.2422	1349.2196	16131.5	15229.55
878.3862	1351.087	16122.4	15219.9
878.5303	1352.9537	16104.5	15201.4
878.6743	1354.8197	16101.35	15200.05
878.8184	1356.6849	16075.9	15171.25
878.9624	1358.5493	16043.5	15142.75
879.1064	1360.4131	16043.55	15143.95
879.2504	1362.276	16016.9	15117.25
879.3944	1364.1383	16015.9	15113.05
879.5384	1365.9998	15978.95	15070.25
879.6823	1367.8606	15905.2	15001.55
879.8263	1369.7206	15847.05	14942.2
879.9702	1371.5799	15814.65	14908.85
880.1142	1373.4384	15748.8	14848.45
880.2581	1375.2962	15736.05	14833.4
880.402	1377.1533	15616.05	14716.1
880.5459	1379.0096	15559.6	14659.35
880.6898	1380.8652	15463.25	14564.75
880.8337	1382.7201	15413.7	14514.3
880.9776	1384.5742	15305.2	14405.4
881.1215	1386.4275	15254.5	14350.65
881.2653	1388.2802	15163.45	14262
881.4092	1390.132	15135.9	14234.35
881.553	1391.9832	15110.75	14205.85
881.6968	1393.8336	15007.75	14107.15
881.8406	1395.6832	14997.6	14093.75
881.9844	1397.5322	14919.05	14018.85
882.1282	1399.3803	14857.4	13952.15
882.272	1401.2278	14818.25	13914.95
882.4158	1403.0745	14760	13860.15
882.5595	1404.9204	14716.8	13817.95
882.7033	1406.7656	14693.25	13791.05
882.847	1408.6101	14604.4	13701.75
882.9908	1410.4538	14575.45	13675.35
883.1345	1412.2968	14529	13627.55
883.2782	1414.139	14449.85	13550.5
883.4219	1415.9805	14436.5	13536.15
883.5656	1417.8213	14395.15	13487.75
883.7092	1419.6613	14348.7	13448.05
883.8529	1421.5006	14335	13433.45
883.9965	1423.3391	14303.6	13403.55
884.1402	1425.1769	14291.8	13389.4
884.2838	1427.0139	14317.75	13416.05
884.4274	1428.8502	14356.85	13452.95
884.571	1430.6858	14350.8	13448.6
884.7146	1432.5206	14322.7	13420.85
884.8582	1434.3547	14296.1	13394.2
885.0018	1436.188	14255.4	13352.3
885.1453	1438.0206	14250.4	13346.9
885.2889	1439.8524	14178.25	13275.35
885.4324	1441.6835	14178.9	13276.75
885.5759	1443.5139	14132.7	13228.25
885.7194	1445.3435	14109.45	13210.4
885.8629	1447.1724	14080	13181.1
886.0064	1449.0005	14056.1	13154.6
886.1499	1450.8279	13987.7	13088.5
886.2933	1452.6545	14012.6	13112.7
886.4368	1454.4804	14031.6	13132.85
886.5802	1456.3056	13969.75	13063.75
886.7237	1458.13	13933.2	13033.45
886.8671	1459.9536	13918.2	13015.7
887.0105	1461.7766	13843.15	12943.4
887.1539	1463.5987	13788.35	12889.7
887.2972	1465.4202	13744.25	12842.3
887.4406	1467.2409	13652.55	12752.2
887.584	1469.0608	13661.8	12761.95
887.7273	1470.88	13578.9	12677.8
887.8706	1472.6984	13519.2	12620.75
888.0139	1474.5161	13487.1	12584.35
888.1572	1476.3331	13452.4	12551.45
888.3005	1478.1493	13437.8	12535.6
888.4438	1479.9648	13432.7	12531.2
888.5871	1481.7795	13411.25	12513.6
888.7303	1483.5935	13353.6	12453.7
888.8736	1485.4067	13326.25	12426.9
889.0168	1487.2192	13321.15	12420.95
889.16	1489.031	13303.4	12400.3
889.3032	1490.842	13253.45	12353.9
889.4464	1492.6522	13251.1	12351.25
889.5896	1494.4618	13201.15	12301.2
889.7327	1496.2705	13176.2	12276.95
889.8759	1498.0785	13160.4	12260.35
890.019	1499.8858	13125.25	12225.65
890.1622	1501.6924	13089.5	12190.5
890.3053	1503.4981	13057.7	12158.05
890.4484	1505.3032	13043.85	12143.2
890.5914	1507.1075	13006	12108.1
890.7345	1508.911	12958.3	12057.75
890.8776	1510.7138	12944.3	12043.45
891.0206	1512.5159	12900.7	12001
891.1637	1514.3172	12866	11966.35
891.3067	1516.1178	12817.75	11919.85
891.4497	1517.9176	12809.05	11905.85
891.5927	1519.7166	12773.4	11875
891.7357	1521.515	12716.1	11812.2
891.8786	1523.3126	12676.55	11777.5
892.0216	1525.1094	12658.1	11758.6
892.1645	1526.9055	12622.5	11726.15
892.3074	1528.7008	12579.15	11682.05
892.4503	1530.4954	12506.7	11608.6
892.5932	1532.2893	12502.2	11604.55
892.7361	1534.0824	12417.95	11516.85
892.879	1535.8747	12416.9	11519.8
893.0218	1537.6663	12352.95	11454
893.1647	1539.4572	12320.6	11421.35
893.3075	1541.2473	12303.9	11406.65
893.4503	1543.0367	12239.25	11343.2
893.5931	1544.8253	12220.2	11319.75
893.7359	1546.6132	12181.55	11280.85
893.8787	1548.4003	12169.45	11261.95
894.0214	1550.1867	12142.35	11240.15
894.1642	1551.9723	12130.2	11230.25
894.3069	1553.7572	12063.8	11165.7
894.4496	1555.5414	12062.95	11167.1
894.5923	1557.3247	12036.35	11140.15
894.735	1559.1074	12023.05	11131.25
894.8777	1560.8893	11993.6	11097.6
895.0204	1562.6705	11976.05	11080.5
895.163	1564.4509	11949.1	11055.75
895.3056	1566.2305	11944.75	11052.35
895.4482	1568.0094	11943.45	11051.6
895.5908	1569.7876	11917.75	11025.1
895.7334	1571.565	11884.5	10988.4
895.876	1573.3417	11860.55	10965.45
896.0186	1575.1176	11829.35	10936.05
896.1611	1576.8928	11812.1	10919.1
896.3036	1578.6672	11802.2	10913.3
896.4461	1580.4409	11749.7	10860.3
896.5886	1582.2138	11754.8	10862.15
896.7311	1583.986	11705.9	10811.15
896.8736	1585.7575	11737.7	10844.8
897.0161	1587.5282	11705.5	10813.55
897.1585	1589.2981	11712.6	10825.1
897.3009	1591.0673	11681.9	10792.7
897.4433	1592.8358	11687	10797.2
897.5857	1594.6035	11656.8	10760.95
897.7281	1596.3704	11620.4	10728.65
897.8705	1598.1366	11572.85	10679.8
898.0128	1599.9021	11554.4	10662.15
898.1551	1601.6668	11457.7	10564.1
898.2975	1603.4308	11451.3	10556.6
898.4398	1605.194	11418.3	10521.15
898.5821	1606.9564	11405.8	10516.5
898.7243	1608.7182	11394.05	10503.05
898.8666	1610.4791	11415.3	10528.75
899.0088	1612.2394	11439.65	10554.05
899.1511	1613.9988	11447.2	10561.85
899.2933	1615.7576	11479	10590.25
899.4355	1617.5156	11491.45	10594.5
899.5776	1619.2728	11446.7	10554
899.7198	1621.0293	11374.4	10480.8
899.862	1622.785	11291.4	10397.95
900.0041	1624.54	11173	10280.65
900.1462	1626.2942	11079.1	10188.7
900.2883	1628.0477	10966.45	10074.75
900.4304	1629.8005	10877.2	9983.65
900.5725	1631.5525	10819.55	9931.05
900.7145	1633.3037	10759.95	9871.7
900.8566	1635.0542	10705.85	9815.55
900.9986	1636.804	10629.35	9742.35
901.1406	1638.553	10634.4	9700.3
901.2826	1640.3013	10552.35	9664.7
901.4245	1642.0488	10500.2	9609.95
901.5665	1643.7955	10491.15	9605.1
901.7085	1645.5416	10416.95	9528.55
901.8504	1647.2868	10398	9510.7
901.9923	1649.0313	10365.4	9476.05
902.1342	1650.7751	10363.6	9473.6
902.2761	1652.5181	10330.45	9441.5
902.4179	1654.2604	10281.3	9393.05
902.5598	1656.0019	10273.6	9384.65
902.7016	1657.7427	10269.05	9380.8
902.8434	1659.4828	10249.05	9359.4
902.9852	1661.222	10241.55	9349.85
903.127	1662.9606	10241.75	9352
903.2687	1664.6984	10227.8	9337.85
903.4105	1666.4354	10198.95	9306.75
903.5522	1668.1717	10159.4	9269.1
903.6939	1669.9072	10072.55	9181.85
903.8356	1671.642	10021.3	9127.55
903.9773	1673.3761	10004.2	9115.65
904.119	1675.1094	9942.75	9052.55
904.2606	1676.8419	9858.5	8968
904.4022	1678.5737	9804.85	8914.3
904.5439	1680.3048	9775.6	8884.5
904.6855	1682.0351	9712.7	8821.45
904.827	1683.7646	9688.55	8793.4
904.9686	1685.4934	9647.45	8758
905.1101	1687.2215	9611.3	8721.5
905.2517	1688.9488	9577.8	8689.7
905.3932	1690.6754	9511.35	8622
905.5347	1692.4012	9480.85	8593.05
905.6761	1694.1263	9449.3	8560.7
905.8176	1695.8506	9423.2	8533.25
905.9591	1697.5742	9386.3	8497.75
906.1005	1699.297	9386.95	8501.3
906.2419	1701.0191	9309.4	8421.5
906.3833	1702.7404	9289.4	8401.75
906.5246	1704.461	9230.05	8340.95
906.666	1706.1808	9198.95	8308.1
906.8073	1707.8999	9172.55	8284.2
906.9487	1709.6182	9135.6	8248.75
907.09	1711.3358	9128.35	8244.85
907.2313	1713.0527	9099.3	8214.95
907.3725	1714.7688	9060.25	8168.85
907.5138	1716.4841	9030.15	8139.6
907.655	1718.1987	9030	8137.55
907.7962	1719.9126	9001.15	8115
907.9374	1721.6257	8948.65	8059.65
908.0786	1723.338	8936.5	8050.05
908.2198	1725.0496	8884.3	7995.45
908.3609	1726.7605	8871.55	7984.3
908.502	1728.4706	8862.8	7977
908.6431	1730.18	8833.5	7947.6
908.7842	1731.8886	8788.5	7901.25
908.9253	1733.5964	8788.05	7898.05
909.0664	1735.3036	8776.2	7887.6
909.2074	1737.0099	8777	7891.05
909.3484	1738.7156	8762.85	7877.8
909.4894	1740.4204	8705	7814.95
909.6304	1742.1246	8692.45	7804.05
909.7714	1743.8279	8683.55	7798.1
909.9123	1745.5306	8669.3	7781.2
910.0532	1747.2325	8636.5	7752.6
910.1941	1748.9336	8597.1	7709.65
910.335	1750.634	8569.7	7680.25
910.4759	1752.3336	8575.05	7689.1
910.6168	1754.0325	8540.1	7656.6
910.7576	1755.7307	8555.85	7670.55
910.8984	1757.4281	8548.35	7659.85
911.0392	1759.1247	8516.85	7620.1
911.18	1760.8206	8499.2	7605.8
911.3208	1762.5158	8499.15	7607.3
911.4615	1764.2102	8443.3	7555.4
911.6022	1765.9039	8423.35	7536.55
911.7429	1767.5968	8414.6	7530.1
911.8836	1769.289	8369.9	7484.6
912.0243	1770.9804	8366.2	7477.8
912.1649	1772.6711	8394.3	7506.3
912.3056	1774.361	8361.05	7472.35
912.4462	1776.0502	8355.65	7468.7
912.5868	1777.7386	8340.65	7450.55
912.7274	1779.4263	8301.1	7413.4
912.8679	1781.1132	8297.45	7411.35
913.0084	1782.7994	8249.75	7362.75
913.149	1784.4849	8218.25	7335.6
913.2895	1786.1696	8221.4	7315.6
913.4299	1787.8535	8198.8	7315.65
913.5704	1789.5367	8176.35	7293.7
913.7108	1791.2192	8158.6	7271.2
913.8513	1792.9009	8173.45	7255.5
913.9917	1794.5818	8122.75	7233.95
914.132	1796.2621	8089.65	7203.65
914.2724	1797.9415	8071.85	7185.3
914.4128	1799.6202	8048.4	7160.5
914.5531	1801.2982	8032.4	7144.55
914.6934	1802.9755	8029.3	7140.3
914.8337	1804.6519	8023	7135.95
914.9739	1806.3277	7987.6	7104.5
915.1142	1808.0027	7954.6	7068.75
915.2544	1809.6769	7951.75	7066.6
915.3946	1811.3504	7920.3	7033.4
915.5348	1813.0231	7915.6	7030.4
915.675	1814.6951	7905.95	7021.4
915.8151	1816.3664	7893.3	7005.75
915.9553	1818.0369	7880.2	6992.7
916.0954	1819.7067	7888.55	7003.1
916.2355	1821.3757	7827.65	6938.1
916.3755	1823.044	7815.4	6930.75
916.5156	1824.7115	7791.35	6901.9
916.6556	1826.3783	7777	6891.25
916.7956	1828.0443	7746.55	6860.05
916.9356	1829.7096	7762.3	6874.65
917.0756	1831.3741	7738.15	6848.2
917.2155	1833.0379	7705.1	6820.5
917.3555	1834.701	7697.25	6811.25
917.4954	1836.3633	7680.15	6794.7
917.6353	1838.0248	7658.55	6771.05
917.7751	1839.6856	7626.95	6741.4
917.915	1841.3457	7640.6	6753.6
918.0548	1843.005	7643.05	6755.3
918.1946	1844.6636	7615.7	6731.45
918.3344	1846.3214	7587.2	6701.75
918.4742	1847.9785	7577.5	6693.4
918.6139	1849.6349	7574.6	6686.75
918.7537	1851.2904	7527.05	6629.95
918.8934	1852.9453	7530.6	6642.85
919.0331	1854.5994	7500	6612.3
919.1727	1856.2528	7508.35	6614.35
919.3124	1857.9054	7468.55	6581.8
919.452	1859.5572	7487.7	6602.4
919.5916	1861.2083	7455.15	6567.55
919.7312	1862.8587	7464.15	6578.25
919.8708	1864.5084	7448.75	6559
920.0103	1866.1572	7412.85	6524.95
920.1498	1867.8054	7375.5	6486.25
920.2893	1869.4528	7373.25	6484.4
920.4288	1871.0994	7347.1	6461.35
920.5683	1872.7453	7365.75	6480.35
920.7077	1874.3905	7331	6438.15
920.8471	1876.0349	7316.35	6426.35
920.9865	1877.6786	7302.15	6413
921.1259	1879.3215	7278.1	6391.5
921.2653	1880.9637	7265.5	6377.3
921.4046	1882.6051	7274.15	6387.2
921.5439	1884.2458	7247.75	6362.05
921.6832	1885.8858	7198.4	6310.9
921.8225	1887.525	7189.2	6300.15
921.9617	1889.1634	7174.7	6287.9
922.101	1890.8011	7163.6	6274.25
922.2402	1892.4381	7156	6269.6
922.3794	1894.0743	7136.9	6251
922.5185	1895.7098	7129	6242.25
922.6577	1897.3446	7125.35	6236.4
922.7968	1898.9786	7095.15	6202.95
922.9359	1900.6118	7078.9	6190.25
923.075	1902.2443	7037.05	6147.85
923.214	1903.8761	7019	6132.05
923.3531	1905.5071	6963.9	6077.15
923.4921	1907.1374	6969.5	6080.95
923.6311	1908.7669	6975.75	6089.2
923.77	1910.3957	6946.75	6061.6
923.909	1912.0237	6942.9	6055.7
924.0479	1913.651	6925.95	6039.05
924.1868	1915.2776	6892.45	6007.45
924.3257	1916.9034	6870.35	5985.1
924.4646	1918.5285	6827.2	5942.85
924.6034	1920.1528	6813	5926.6
924.7422	1921.7764	6828.05	5941.15
924.881	1923.3992	6773.05	5884.35
925.0198	1925.0213	6753.45	5867
925.1586	1926.6427	6719.25	5834.8
925.2973	1928.2633	6921.3	5783.8
925.436	1929.8832	6742.45	5850.1
925.5747	1931.5023	6689.15	5802.7
925.7134	1933.1207	6651.2	5765.15
925.852	1934.7383	6656.55	5770.5
925.9906	1936.3552	6625.2	5740.45
926.1292	1937.9714	6624.8	5737.95
926.2678	1939.5868	6589.4	5700.35
926.4064	1941.2015	6556.65	5669.15
926.5449	1942.8154	6542.6	5656.95
926.6834	1944.4286	6517.1	5630.35
926.8219	1946.041	6509.65	5604
926.9604	1947.6528	6460	5569.85
927.0988	1949.2637	6449.05	5564.95
927.2372	1950.8739	6446.3	5561.35
927.3756	1952.4834	6439.8	5553.55
927.514	1954.0921	6410.8	5527.15
927.6523	1955.7001	6366.4	5477.9
927.7907	1957.3074	6396.5	5515.7
927.929	1958.9139	6360.1	5478.15
928.0673	1960.5197	6340.95	5455.35
928.2055	1962.1247	6311.15	5424.95
928.3438	1963.729	6310.15	5426.25
928.482	1965.3325	6278.7	5369.2
928.6202	1966.9353	6257.9	5374.75
928.7584	1968.5374	6248.95	5365.1
928.8965	1970.1387	6214.6	5330.85
929.0346	1971.7393	6201.75	5318.4
929.1727	1973.3392	6192.25	5307.45
929.3108	1974.9383	6162.85	5279.15
929.4489	1976.5366	6161.6	5277.6
929.5869	1978.1342	6119.2	5235.35
929.7249	1979.7311	6120.25	5235.2
929.8629	1981.3273	6107.25	5223.35
930.0009	1982.9227	6082.2	5198.7
930.1388	1984.5173	6067.7	5185.7
930.2767	1986.1112	6053.7	5171.5
930.4146	1987.7044	6056.7	5173.7
930.5525	1989.2968	6032.05	5143.65
930.6904	1990.8885	6040.7	5153.9
930.8282	1992.4795	6022.55	5138.7
930.966	1994.0697	5981.85	5098.45
931.1038	1995.6592	5964.85	5080.8
931.2415	1997.2479	5952.95	5070.5
931.3793	1998.8359	5937.8	5054.35
931.517	2000.4232	5929.75	5049.35
931.6547	2002.0097	5916.05	5038
931.7923	2003.5955	5875.35	4991.55
931.93	2005.1805	5888.75	5004.85
932.0676	2006.7648	5877.1	4993.8
932.2052	2008.3484	5853.3	4971.2
932.3427	2009.9312	5871.7	4988.15
932.4803	2011.5133	5834.2	4954.65
932.6178	2013.0946	5817.3	4936.15
932.7553	2014.6752	5794.85	4913.95
932.8928	2016.2551	5791	4909.35
933.0302	2017.8342	5772.75	4891.05
933.1676	2019.4126	5747.1	4866.6
933.305	2020.9902	5740.55	4860.85
933.4424	2022.5672	5737.45	4856.45
933.5798	2024.1433	5724.55	4837.75
933.7171	2025.7188	5703	4824.5
933.8544	2027.2935	5670.35	4788.6
933.9917	2028.8674	5687.5	4808.6
934.129	2030.4406	5659.85	4780
934.2662	2032.0131	5644.15	4764.95
934.4034	2033.5849	5618.05	4732.4
934.5406	2035.1559	5603.6	4724.15
934.6778	2036.7261	5589.7	4708.45
934.8149	2038.2957	5585	4702.6
934.952	2039.8645	5576.35	4695.05
935.0891	2041.4325	5577.05	4691.8
935.2262	2042.9998	5560	4681.55
935.3632	2044.5664	5567.1	4683.75
935.5002	2046.1323	5518.85	4639.6
935.6372	2047.6974	5510.2	4628.9
935.7742	2049.2617	5520.3	4639.35
935.9111	2050.8254	5514.65	4628.75
936.048	2052.3883	5499.05	4617.05
936.1849	2053.9504	5492.1	4610.15
936.3218	2055.5118	5470.65	4588.8
936.4586	2057.0725	5439.95	4556.2
936.5955	2058.6325	5427.85	4548.95
936.7323	2060.1917	5404.4	4522.95
936.869	2061.7502	5414.15	4531.9
937.0058	2063.3079	5403.6	4521.1
937.1425	2064.8649	5383.4	4498.9
937.2792	2066.4212	5378.2	4495.2
937.4159	2067.9767	5354.75	4474.6
937.5525	2069.5315	5328.45	4448
937.6891	2071.0856	5319.25	4436.9
937.8257	2072.6389	5311.5	4430.05
937.9623	2074.1915	5301.05	4421.7
938.0989	2075.7433	5267	4384.75
938.2354	2077.2945	5253.95	4375.35
938.3719	2078.8448	5248.6	4365.65
938.5084	2080.3945	5230.45	4348.9
938.6448	2081.9434	5232.25	4351.7
938.7812	2083.4916	5236.55	4353.6
938.9176	2085.039	5193.3	4306.4
939.054	2086.5857	5180.7	4294.95
939.1903	2088.1317	5174.5	4291.05
939.3267	2089.677	5172	4287.95
939.463	2091.2215	5154.75	4271.4
939.5992	2092.7652	5148.2	4261.25
939.7355	2094.3083	5142.7	4257.25
939.8717	2095.8506	5129.75	4248.5
940.0079	2097.3921	5139.95	4257.8
940.1441	2098.933	5111.6	4227.1
940.2802	2100.4731	5099.75	4218
940.4163	2102.0124	5110.35	4209.45
940.5524	2103.5511	5080.95	4196.7
940.6885	2105.089	5071.95	4188.95
940.8245	2106.6261	5074.05	4194
940.9606	2108.1626	5062.55	4179.5
941.0965	2109.6983	5060.15	4147.5
941.2325	2111.2332	5051.5	4168.5
941.3684	2112.7675	5036.55	4151.85
941.5044	2114.301	5004.3	4120.5
941.6403	2115.8337	4994.85	4111.7
941.7761	2117.3657	4994.1	4112.15
941.912	2118.897	4977.35	4092.9
942.0478	2120.4276	4983.35	4094.05
942.1835	2121.9575	4970.25	4088.65
942.3193	2123.4866	4961.35	4064.45
942.455	2125.0149	4962.5	4076.25
942.5907	2126.5426	4924.55	4043.1
942.7264	2128.0695	4922.45	4036.55
942.8621	2129.5956	4896.75	4018.2
942.9977	2131.1211	4887	3999
943.1333	2132.6458	4900.4	4018.15
943.2689	2134.1698	4877.15	3993.7
943.4044	2135.693	4880.85	3994.15
943.54	2137.2155	4858.95	3973
943.6755	2138.7373	4854.8	3971.65
943.8109	2140.2584	4830.95	3949.5
943.9464	2141.7787	4824.3	3938.4
944.0818	2143.2983	4809	3928.75
944.2172	2144.8171	4795.8	3916.65
944.3526	2146.3353	4774.45	3891.6
944.4879	2147.8527	4769.65	3889.95
944.6232	2149.3693	4753.7	3871.35
944.7585	2150.8853	4735.35	3852.3
944.8938	2152.4005	4727.7	3845.25
945.029	2153.9149	4725.85	3843.15
945.1642	2155.4287	4696.65	3815.7
945.2994	2156.9417	4718.5	3833.4
945.4346	2158.454	4692.05	3806.9
945.5697	2159.9655	4679.35	3797
945.7048	2161.4764	4693.05	3810.9
945.8399	2162.9865	4671.8	3789.35
945.9749	2164.4958	4638.5	3756.1
946.1099	2166.0045	4626.5	3742.95
946.2449	2167.5124	4630.7	3750.35
946.3799	2169.0195	4620.15	3735.75
946.5148	2170.526	4613.2	3730.3
946.6498	2172.0317	4598.2	3714.7
946.7846	2173.5367	4597.2	3716.9
946.9195	2175.0409	4597.25	3715.3
947.0543	2176.5445	4573.65	3689.4
947.1891	2178.0473	4559.5	3677.85
947.3239	2179.5494	4542.9	3657.15
947.4587	2181.0507	4535.15	3653
947.5934	2182.5513	4523.85	3641.3
947.7281	2184.0512	4513.15	3631.35
947.8628	2185.5504	4496.7	3615
947.9974	2187.0488	4473.1	3591.1
948.132	2188.5465	4489.1	3608.95
948.2666	2190.0435	4457.4	3573.35
948.4012	2191.5397	4460.9	3577.4
948.5357	2193.0353	4445.65	3561.3
948.6702	2194.5301	4421.35	3537.45
948.8047	2196.0241	4400.6	3515.9
948.9392	2197.5175	4399.7	3515.75
949.0736	2199.0101	4400.9	3512.2
949.208	2200.502	4365.65	3484.2
949.3424	2201.9931	4356.2	3472.8
949.4767	2203.4835	4345	3459.25
949.611	2204.9733	4341.15	3451.2
949.7453	2206.4622	4326.55	3446.9
949.8796	2207.9505	4305.5	3422
950.0138	2209.438	4302.35	3424.75
950.148	2210.9248	4299.05	3415.55
950.2822	2212.4109	4280.55	3398.8
950.4164	2213.8962	4264	3378.5
950.5505	2215.3809	4266.2	3382.2
950.6846	2216.8648	4255.25	3370.8
950.8186	2218.3479	4239.35	3349.7
950.9527	2219.8304	4234	3346.05
951.0867	2221.3121	4215.8	3329.2
951.2207	2222.7931	4206.9	3323.15
951.3546	2224.2733	4189.25	3305.25
951.4886	2225.7529	4182.5	3298.4
951.6225	2227.2317	4170.5	3286.35
951.7563	2228.7098	4160.9	3278.85
951.8902	2230.1872	4140.7	3258.95
952.024	2231.6638	4133.5	3252.8
952.1578	2233.1397	4121.15	3234.15
952.2916	2234.6149	4120.7	3239.1
952.4253	2236.0894	4093.2	3209.7
952.559	2237.5632	4102.5	3209.9
952.6927	2239.0362	4080.55	3197.4
952.8263	2240.5085	4065.05	3182.2
952.9599	2241.9801	4056.25	3172
953.0935	2243.4509	4054.45	3172.8
953.2271	2244.921	4031.5	3144.85
953.3606	2246.3904	4031.5	3145.1
953.4941	2247.8591	4023.4	3139.4
953.6276	2249.3271	4004.7	3120.5
953.7611	2250.7943	3997.05	3112.7
953.8945	2252.2608	3975.35	3093.1
954.0279	2253.7266	3978.7	3098.05
954.1612	2255.1917	3971.95	3089.35
954.2946	2256.656	3951.2	3069.5
954.4279	2258.1197	3959.65	3077.15
954.5612	2259.5826	3950.45	3065.95
954.6944	2261.0447	3934	3048.3
954.8276	2262.5062	3911.6	3028.4
954.9608	2263.9669	3931.8	3044.9
955.094	2265.4269	3902.4	3019.45
955.2271	2266.8862	3882.15	2998.55
955.3602	2268.3448	3894.9	3011.1
955.4933	2269.8026	3876.35	2993.9
955.6264	2271.2598	3881.45	2998.85
955.7594	2272.7162	3873.65	2990.75
955.8924	2274.1719	3864.1	2981.45
956.0253	2275.6268	3834.35	2949
956.1583	2277.0811	3820.95	2937.9
956.2912	2278.5346	3813.45	2932.35
956.4241	2279.9874	3824.6	2940.75
956.5569	2281.4395	3809.6	2928.6
956.6897	2282.8908	3803.4	2917.8
956.8225	2284.3414	3795.2	2910.9
956.9553	2285.7914	3776.95	2894.55
957.088	2287.2406	3763.75	2878.8
957.2207	2288.689	3769.35	2885.05
957.3534	2290.1368	3761.85	2875.2
957.486	2291.5838	3746.2	2857.55
957.6186	2293.0302	3731.55	2844.8
957.7512	2294.4758	3721.3	2836.55
957.8838	2295.9206	3717.05	2830.25
958.0163	2297.3648	3708.15	2825.3
958.1488	2298.8082	3704.55	2819.4
958.2813	2300.251	3688.9	2804.9
958.4137	2301.693	3680.05	2793.15
958.5461	2303.1343	3672.85	2788.55
958.6785	2304.5748	3675.8	2791.35
958.8108	2306.0147	3645.4	2762.2
958.9432	2307.4538	3654.65	2768.85
959.0754	2308.8922	3629.55	2748.95
959.2077	2310.3299	3634.75	2754.4
959.3399	2311.7669	3617.85	2736.2
959.4721	2313.2031	3598.6	2716.3
959.6043	2314.6387	3593.25	2707.5
959.7365	2316.0735	3581.85	2698.85
959.8686	2317.5076	3582.35	2698.35
960.0006	2318.941	3578	2693.45
960.1327	2320.3737	3577.6	2694.7
960.2647	2321.8056	3563.1	2677.3
960.3967	2323.2369	3552.1	2667.95
960.5287	2324.6674	3543.05	2657.25
960.6606	2326.0972	3522.35	2636.15
960.7925	2327.5263	3518.8	2633.2
960.9244	2328.9547	3520.05	2636
961.0562	2330.3823	3504.55	2622.3
961.1881	2331.8092	3505.2	2616.3
961.3198	2333.2355	3491.15	2606.8
961.4516	2334.661	3493.1	2608.95
961.5833	2336.0858	3491.35	2604.75
961.715	2337.5098	3445.8	2560
961.8467	2338.9332	3468.1	2582.9
961.9783	2340.3558	3450.9	2563.3
962.1099	2341.7778	3447.2	2563
962.2415	2343.199	3437.8	2553.45
962.373	2344.6195	3410.75	2528.2
962.5045	2346.0393	3400.65	2516.1
962.636	2347.4583	3399.55	2514.65
962.7675	2348.8767	3403.55	2519.85
962.8989	2350.2943	3396.7	2512.3
963.0303	2351.7113	3378.45	2492
963.1617	2353.1275	3367.95	2483.35
963.293	2354.543	3363.15	2469.05
963.4243	2355.9578	3351.85	2466.35
963.5556	2357.3718	3345.45	2463
963.6868	2358.7852	3327.6	2441.4
963.818	2360.1978	3307.4	2423.05
963.9492	2361.6098	3301.75	2419.45
964.0803	2363.021	3299.95	2412.75
964.2114	2364.4315	3287.5	2403.85
964.3425	2365.8413	3279.7	2395.3
964.4736	2367.2504	3266.05	2382.55
964.6046	2368.6587	3257.45	2375.05
964.7356	2370.0664	3253.6	2368.5
964.8666	2371.4733	3230.85	2347.25
964.9975	2372.8795	3224.8	2338.75
965.1284	2374.285	3208.35	2324
965.2593	2375.6899	3206.75	2324.6
965.3901	2377.0939	3191.1	2307.2
965.5209	2378.4973	3182.8	2298.3
965.6517	2379.9	3178.05	2294.4
965.7825	2381.3019	3151.95	2267
965.9132	2382.7032	3159.1	2276.3
966.0439	2384.1037	3139.7	2257.45
966.1745	2385.5035	3134.5	2252.35
966.3051	2386.9027	3117.2	2236.15
966.4357	2388.3011	3123.4	2239.1
966.5663	2389.6987	3110	2226.05
966.6968	2391.0957	3098.25	2215.15
966.8273	2392.492	3093.55	2208.6
966.9578	2393.8876	3081.6	2197.15
967.0882	2395.2824	3058.55	2172.95
967.2186	2396.6765	3054.95	2171.35
967.349	2398.07	3046.15	2161.3
967.4793	2399.4627	3038.45	2150.25
967.6097	2400.8547	3029.85	2143.7
967.7399	2402.246	3039.35	2148.1
967.8702	2403.6366	3016.1	2129.45
968.0004	2405.0265	2999.1	2116.55
968.1306	2406.4156	2997.95	2108.85
968.2607	2407.8041	2993.2	2107.2
968.3909	2409.1918	2979.55	2090.9
968.521	2410.5789	2973.45	2086.8
968.651	2411.9652	2960.6	2073.8
968.781	2413.3508	2959.8	2073.75
968.911	2414.7358	2958.7	2073.6
969.041	2416.12	2930.35	2046.95
969.1709	2417.5035	2936.7	2053.05
969.3008	2418.8863	2922.25	2036.6
969.4307	2420.2684	2919.15	2033.6
969.5606	2421.6497	2896.5	2009.75
969.6904	2423.0304	2898.4	2014.6
969.8201	2424.4104	2897.55	2011.1
969.9499	2425.7896	2875.75	1991.5
970.0796	2427.1682	2878.05	1992.65
970.2093	2428.546	2874.95	1988.25
970.3389	2429.9232	2871.55	1985.2
970.4685	2431.2996	2861	1975.55
970.5981	2432.6753	2858.45	1972.05
970.7277	2434.0503	2848.35	1960.15
970.8572	2435.4246	2834.3	1947.95
970.9867	2436.7982	2844.05	1953.25
971.1161	2438.1711	2826.3	1942.5
971.2456	2439.5433	2811.25	1926.55
971.375	2440.9148	2811.3	1920.7
971.5043	2442.2856	2804.4	1920.3
971.6336	2443.6557	2797.1	1910.5
971.7629	2445.025	2780.85	1893.35
971.8922	2446.3937	2784.75	1896.25
972.0214	2447.7617	2779.4	1893.3
972.1506	2449.1289	2778.45	1893.45
972.2798	2450.4955	2763.6	1875.35
972.4089	2451.8613	2777.45	1893.85
972.538	2453.2265	2773.35	1889.2
972.6671	2454.5909	2760.4	1873.9
972.7961	2455.9546	2737.25	1852.35
972.9251	2457.3177	2739.55	1855.5
973.0541	2458.68	2733.4	1847.05
973.1831	2460.0416	2729.6	1842.65
973.312	2461.4025	2737.95	1849.9
973.4408	2462.7627	2724.2	1827.2
973.5697	2464.1222	2716.85	1835.15
973.6985	2465.4811	2712.8	1827.7
973.8273	2466.8392	2700.2	1815.05
973.956	2468.1966	2700.95	1816.25
974.0847	2469.5533	2700.1	1813.05
974.2134	2470.9093	2691.95	1808.7
974.3421	2472.2645	2683.45	1795.4
974.4707	2473.6191	2671.25	1786.2
974.5993	2474.973	2661.85	1777.25
974.7278	2476.3262	2669.5	1782.15
974.8563	2477.6787	2655.85	1769.9
974.9848	2479.0305	2639.3	1754.6
975.1132	2480.3816	2646.8	1759.95
975.2417	2481.7319	2636.65	1753.4
975.37	2483.0816	2621.3	1734.75
975.4984	2484.4306	2615.3	1730.7
975.6267	2485.7789	2615.1	1731.2
975.755	2487.1264	2597.9	1713.6
975.8833	2488.4733	2597	1714.1
976.0115	2489.8195	2593.85	1705.55
976.1397	2491.165	2577.45	1691.1
976.2678	2492.5097	2573.15	1685.95
976.3959	2493.8538	2578.4	1693.95
976.524	2495.1972	2558.95	1674.15
976.6521	2496.5398	2549.55	1661.1
976.7801	2497.8818	2552.15	1665.3
976.9081	2499.2231	2545.85	1661.05
977.036	2500.5637	2553.3	1665.65
977.164	2501.9035	2534.7	1647.45
977.2918	2503.2427	2537.2	1648.8
977.4197	2504.5812	2522.25	1638.25
977.5475	2505.919	2514.2	1625.75
977.6753	2507.256	2512.35	1624.25
977.8031	2508.5924	2502.8	1618.05
977.9308	2509.9281	2501.05	1610.3
978.0585	2511.2631	2496.2	1611.75
978.1861	2512.5974	2486.4	1601.75
978.3137	2513.9309	2483.6	1598.65
978.4413	2515.2638	2503.05	1586.85
978.5689	2516.596	2473.45	1589.6
978.6964	2517.9275	2454.55	1569.3
978.8239	2519.2583	2449.25	1561.7
978.9513	2520.5884	2445.15	1559.75
979.0788	2521.9178	2445.85	1560.45
979.2062	2523.2465	2444.6	1560.75
979.3335	2524.5745	2420.95	1537.35
979.4608	2525.9018	2425.55	1541.05
979.5881	2527.2284	2420.35	1536
979.7154	2528.5543	2419.65	1535.3
979.8426	2529.8796	2408	1522.75
979.9698	2531.2041	2405.6	1521.8
980.0969	2532.5279	2403.25	1519.3
980.224	2533.851	2407.6	1523.1
980.3511	2535.1735	2397.35	1512.4
980.4781	2536.4952	2379.6	1494.8
980.6052	2537.8163	2393.35	1509.8
980.7321	2539.1366	2381.05	1494.65
980.8591	2540.4562	2373.65	1486.9
980.986	2541.7752	2377.45	1491.65
981.1129	2543.0935	2372.65	1485.45
981.2397	2544.411	2364.9	1479.5
981.3665	2545.7279	2359.4	1477.35
981.4933	2547.0441	2361.9	1475.05
981.62	2548.3596	2359.85	1473.95
981.7467	2549.6744	2369.75	1485.9
981.8734	2550.9885	2361.7	1467.75
982.0001	2552.3019	2345.35	1461.05
982.1267	2553.6146	2339.45	1454.85
982.2532	2554.9266	2332.6	1447.35
982.3798	2556.2379	2328.6	1440.7
982.5063	2557.5485	2324.7	1440.45
982.6327	2558.8585	2331.65	1441.05
982.7592	2560.1677	2314.5	1425.1
982.8856	2561.4762	2316.4	1431.6
983.0119	2562.7841	2320.6	1432.8
983.1383	2564.0913	2306.95	1423.8
983.2646	2565.3977	2302.15	1417.35
983.3908	2566.7035	2303.9	1417.9
983.517	2568.0086	2298	1411.35
983.6432	2569.313	2302.4	1417.85
983.7694	2570.6167	2289.9	1400.15
983.8955	2571.9197	2283.8	1398.5
984.0216	2573.222	2290.65	1401.65
984.1476	2574.5236	2275.75	1390.45
984.2737	2575.8246	2279.95	1392
984.3996	2577.1248	2274	1385.4
984.5256	2578.4244	2261.85	1376.15
984.6515	2579.7232	2259.5	1376.85
984.7774	2581.0214	2278.7	1368.05
984.9032	2582.3189	2248.05	1363.7
985.029	2583.6157	2255.45	1364.55
985.1548	2584.9118	2248.95	1365.3
985.2806	2586.2072	2236.9	1350.85
985.4063	2587.5019	2240.2	1353.3
985.5319	2588.7959	2229.9	1342.85
985.6576	2590.0893	2232.4	1345.6
985.7832	2591.3819	2221.4	1336.8
985.9087	2592.6739	2216.95	1331.15
986.0343	2593.9652	2219.65	1331.75
986.1597	2595.2557	2214	1328.95
986.2852	2596.5456	2198.95	1312.05
986.4106	2597.8348	2198.95	1315.45
986.536	2599.1234	2189.6	1306.6
986.6614	2600.4112	2192.2	1308.55
986.7867	2601.6983	2182.6	1293.8
986.912	2602.9848	2183.2	1297.1
987.0372	2604.2705	2171.4	1280.05
987.1624	2605.5556	2165.9	1280.2
987.2876	2606.84	2162.9	1277.85
987.4128	2608.1237	2150.05	1265
987.5379	2609.4067	2146.85	1263.1
987.6629	2610.689	2148	1253.25
987.788	2611.9707	2142.85	1255.6
987.913	2613.2516	2142.65	1252
988.0379	2614.5319	2124.25	1241.7
988.1629	2615.8115	2126.2	1239.15
988.2878	2617.0903	2117.7	1231.75
988.4126	2618.3685	2108.05	1222.55
988.5375	2619.6461	2098.45	1212.5
988.6622	2620.9229	2091.1	1207.4
988.787	2622.199	2103.25	1217.15
988.9117	2623.4745	2094.9	1210.65
989.0364	2624.7493	2082.6	1198.65
989.161	2626.0234	2081.15	1199.05
989.2857	2627.2968	2082.5	1195.7
989.4102	2628.5695	2070.4	1183.9
989.5348	2629.8415	2069.25	1185.25
989.6593	2631.1128	2062.65	1177.4
989.7837	2632.3835	2062.4	1179.25
989.9082	2633.6535	2054.25	1171.55
990.0326	2634.9228	2055.3	1171.65
990.1569	2636.1914	2044.95	1159.65
990.2812	2637.4593	2041.6	1151.95
990.4055	2638.7265	2039.95	1157.2
990.5298	2639.9931	2029.35	1144.25
990.654	2641.259	2016	1130.6
990.7782	2642.5242	2020	1135.55
990.9023	2643.7887	2012.05	1129.85
991.0264	2645.0525	2013.25	1129.3
991.1505	2646.3156	2014.5	1128.15
991.2745	2647.5781	2008.15	1124.15
991.3985	2648.8398	1994.15	1109.7
991.5225	2650.1009	1995.55	1103.4
991.6464	2651.3613	1988.85	1104.25
991.7703	2652.6211	1988.95	1103.05
991.8942	2653.8801	1983.9	1100.6
992.018	2655.1385	1982.55	1094.65
992.1418	2656.3961	1972.4	1089.85
992.2655	2657.6531	1978.35	1094.7
992.3892	2658.9094	1967.4	1081.55
992.5129	2660.1651	1957.55	1073.95
992.6366	2661.42	1959.35	1075.35
992.7602	2662.6743	1962.5	1079.35
992.8837	2663.9279	1960.25	1076.5
993.0073	2665.1808	1960.05	1075.2
993.1307	2666.433	1954.15	1067.85
993.2542	2667.6846	1947.4	1062.95
993.3776	2668.9354	1938.4	1051.15
993.501	2670.1856	1942.7	1059.45
993.6244	2671.4351	1933.3	1049.25
993.7477	2672.6839	1930.2	1046.3
993.8709	2673.9321	1926.25	1042.05
993.9942	2675.1795	1931.85	1047
994.1174	2676.4263	1920.25	1036.85
994.2405	2677.6724	1921.7	1037.25
994.3637	2678.9179	1918.85	1033.6
994.4868	2680.1626	1906.9	1021.45
994.6098	2681.4067	1909.15	1025.35
994.7328	2682.6501	1912.6	1027.75
994.8558	2683.8928	1898.1	1015.55
994.9788	2685.1348	1895.75	1011.1
995.1017	2686.3761	1889.25	1006
995.2245	2687.6168	1892.1	1008
995.3474	2688.8568	1892.25	1006.75
995.4702	2690.0961	1875.6	993.85
995.5929	2691.3348	1884.5	1000.35
995.7156	2692.5727	1877.25	994.05
995.8383	2693.81	1867.45	983.3
995.961	2695.0466	1852.45	968.85
996.0836	2696.2826	1864.9	980.55
996.2062	2697.5178	1879.75	977.25
996.3287	2698.7524	1851.1	965.8
996.4512	2699.9863	1858.55	972.85
996.5737	2701.2195	1849.15	967.5
996.6961	2702.452	1844.65	959.6
996.8185	2703.6839	1845.45	960.2
996.9408	2704.9151	1840.2	957.75
997.0631	2706.1456	1831.65	949.55
997.1854	2707.3755	1838.25	954.2
997.3077	2708.6046	1831.8	944.55
997.4299	2709.8331	1823.05	938.65
997.552	2711.0609	1819.95	935.2
997.6742	2712.2881	1808.15	923.8
997.7963	2713.5145	1806.5	919.5
997.9183	2714.7403	1803.6	922.2
998.0403	2715.9654	1806.25	922.15
998.1623	2717.1899	1817.3	915.85
998.2842	2718.4136	1802.65	920.3
998.4062	2719.6367	1799.15	916.3
998.528	2720.8591	1803.65	913.7
998.6498	2722.0809	1793.5	911.25
998.7716	2723.3019	1784.25	898
998.8934	2724.5223	1792.05	907.8
999.0151	2725.7421	1778.95	894.25
999.1368	2726.9611	1775.85	890.85
999.2584	2728.1795	1770.25	882.1
999.38	2729.3972	1762.9	879.5
999.5016	2730.6142	1777.95	881.75
999.6231	2731.8306	1756.55	872.6
999.7446	2733.0462	1742.45	858.35
999.8661	2734.2612	1754.4	866.25
999.9875	2735.4756	1748.1	864.5
1000.1089	2736.6892	1748.65	866.65
1000.2302	2737.9022	1735.1	854.95
1000.3515	2739.1145	1734.3	851.55
1000.4728	2740.3262	1735.4	843.45
1000.594	2741.5372	1719.3	838.1
1000.7152	2742.7475	1717.35	832.45
1000.8363	2743.9571	1717.9	832.95
1000.9575	2745.1661	1716.65	829.05
1001.0785	2746.3744	1715	831.35
1001.1996	2747.582	1708.95	825.45
1001.3206	2748.7889	1699.95	815.5
1001.4415	2749.9952	1699.45	817.2
1001.5625	2751.2008	1701.55	816.2
1001.6833	2752.4057	1702.7	816
1001.8042	2753.61	1689.2	807
1001.925	2754.8136	1685.15	799.05
1002.0458	2756.0165	1675.9	791.9
1002.1665	2757.2188	1675.8	793.85
1002.2872	2758.4204	1677	795.05
1002.4078	2759.6213	1674.75	789.2
1002.5285	2760.8215	1682.5	795.7
1002.649	2762.0211	1671.85	787.75
1002.7696	2763.22	1662.65	776.75
1002.8901	2764.4182	1671.1	786.35
1003.0106	2765.6158	1658.55	773.6
1003.131	2766.8127	1653.25	770.55
1003.2514	2768.009	1650.45	766.8
1003.3717	2769.2045	1653.15	770.05
1003.492	2770.3994	1651.2	766.55
1003.6123	2771.5936	1649.2	765.7
1003.7325	2772.7872	1641.9	759.05
1003.8527	2773.9801	1633.35	749.8
1003.9729	2775.1723	1651.2	750.6
1004.093	2776.3639	1626.5	743.8
1004.2131	2777.5548	1633.05	747.55
1004.3331	2778.745	1627.9	744.75
1004.4531	2779.9346	1626.2	742.95
1004.5731	2781.1235	1619.2	735.65
1004.693	2782.3117	1622.2	739.9
1004.8129	2783.4992	1612.45	729.95
1004.9328	2784.6861	1611	728.25
1005.0526	2785.8723	1609.6	726.85
1005.1723	2787.0579	1607.95	723.9
1005.2921	2788.2428	1608.1	726
1005.4118	2789.427	1603.9	723.2
1005.5314	2790.6106	1594.1	713.05
1005.651	2791.7935	1599.25	715.5
1005.7706	2792.9757	1589.65	708.75
1005.8902	2794.1573	1589.3	703.4
1006.0097	2795.3382	1590.35	709.95
1006.1291	2796.5184	1583.9	701.2
1006.2485	2797.698	1580.1	696.95
1006.3679	2798.8769	1574.15	691.65
1006.4873	2800.0551	1570.35	687.9
1006.6066	2801.2327	1570.3	685.4
1006.7258	2802.4096	1567.3	686.65
1006.8451	2803.5859	1564.4	681
1006.9642	2804.7615	1565.1	683.65
1007.0834	2805.9364	1559.35	678.7
1007.2025	2807.1106	1561.55	678.55
1007.3216	2808.2842	1557.4	673.9
1007.4406	2809.4572	1551.55	668.45
1007.5596	2810.6294	1562.25	679.4
1007.6785	2811.801	1553.75	672.4
1007.7975	2812.972	1550.05	668.6
1007.9163	2814.1423	1557.1	673.3
1008.0352	2815.3119	1553.8	672.05
1008.154	2816.4808	1557.9	674.65
1008.2727	2817.6491	1557.35	673.7
1008.3914	2818.8167	1552.85	673.2
1008.5101	2819.9837	1558.4	671.3
1008.6288	2821.15	1557.95	673.7
1008.7474	2822.3157	1557.85	676.95
1008.8659	2823.4807	1568.9	685.3
1008.9844	2824.645	1577.4	695.1
1009.1029	2825.8086	1571	687.05
1009.2214	2826.9716	1576.45	697.2
1009.3398	2828.134	1585.7	706
1009.4581	2829.2957	1580.35	698.2
1009.5764	2830.4567	1580.6	701.2
1009.6947	2831.617	1589.55	707.55
1009.813	2832.7767	1585.55	705.2
1009.9312	2833.9358	1580.15	698.45
1010.0493	2835.0941	1590.1	705.9
1010.1675	2836.2519	1579.85	698.95
1010.2855	2837.4089	1579.95	696.2
1010.4036	2838.5653	1571.45	689.5
1010.5216	2839.7211	1571.35	690.15
1010.6396	2840.8761	1566	680.6
1010.7575	2842.0306	1554.4	674.2
1010.8754	2843.1843	1561.1	678.15
1010.9932	2844.3374	1556.8	674.3
1011.111	2845.4899	1563.15	682.1
1011.2288	2846.6417	1557.45	676.1
1011.3465	2847.7928	1560.15	679.35
1011.4642	2848.9433	1559.95	678.55
1011.5818	2850.0931	1549.25	667.35
1011.6995	2851.2422	1564.95	681.05
1011.817	2852.3907	1561.85	678.3
1011.9345	2853.5385	1564.55	680.7
1012.052	2854.6857	1571	677.7
1012.1695	2855.8323	1559.15	677.8
1012.2869	2856.9781	1569.45	688.4
1012.4042	2858.1233	1566.75	684.35
1012.5216	2859.2679	1560.1	680
1012.6389	2860.4118	1562.75	680.35
1012.7561	2861.555	1579.95	692.75
1012.8733	2862.6976	1568	684.55
1012.9905	2863.8395	1568.7	687.55
1013.1076	2864.9808	1569.9	688.45
1013.2247	2866.1214	1560.2	678.7
1013.3417	2867.2614	1568.5	685.45
1013.4587	2868.4007	1566.45	683.55
1013.5757	2869.5393	1559.4	675.85
1013.6926	2870.6773	1562.55	680.2
1013.8095	2871.8146	1562.2	679.55
1013.9263	2872.9513	1558.55	671.15
1014.0431	2874.0874	1558.05	677.7
1014.1599	2875.2227	1560.7	677.9
1014.2766	2876.3574	1556.8	674.95
1014.3933	2877.4915	1551.35	671.2
1014.51	2878.6249	1543.05	661.65
1014.6266	2879.7577	1550.65	669.65
1014.7431	2880.8898	1554.4	661.4
1014.8596	2882.0212	1542.5	662.85
1014.9761	2883.152	1546.8	665
1015.0925	2884.2821	1534.85	655
1015.2089	2885.4116	1530.55	651.45
1015.3253	2886.5405	1539.9	658.35
1015.4416	2887.6686	1537.8	651.8
1015.5579	2888.7962	1528.65	648.35
1015.6741	2889.923	1518.4	636.05
1015.7903	2891.0493	1531.25	652.85
1015.9065	2892.1748	1533.75	651.95
1016.0226	2893.2997	1522.1	639.25
1016.1387	2894.424	1525.15	642.1
1016.2547	2895.5476	1525.95	644.65
1016.3707	2896.6706	1524.2	642.55
1016.4866	2897.7929	1523.9	641.7
1016.6025	2898.9145	1516.05	634.4
1016.7184	2900.0355	1515.5	633.05
1016.8342	2901.1559	1513.9	632.35
1016.95	2902.2756	1509.7	628.4
1017.0658	2903.3946	1511.95	631.4
1017.1815	2904.513	1505	620.85
1017.2971	2905.6308	1503.05	621.65
1017.4127	2906.7479	1506.4	626.25
1017.5283	2907.8643	1500.25	617.85
1017.6439	2908.9801	1507.85	629.65
1017.7594	2910.0953	1500.5	619.2
1017.8748	2911.2098	1500.2	616.6
1017.9902	2912.3236	1497.2	606.8
1018.1056	2913.4368	1494.35	610.8
1018.2209	2914.5494	1488.95	607.25
1018.3362	2915.6613	1491.8	605.65
1018.4515	2916.7725	1490.6	606.2
1018.5667	2917.8831	1487.15	603.65
1018.6819	2918.9931	1484.1	598.2
1018.797	2920.1024	1467.9	586.25
1018.9121	2921.211	1465.95	584.65
1019.0271	2922.319	1469.45	588.7
1019.1421	2923.4264	1460.6	578.6
1019.2571	2924.5331	1456.65	576.65
1019.372	2925.6391	1453.6	574.25
1019.4869	2926.7445	1457.7	577
1019.6017	2927.8493	1459.25	577.95
1019.7165	2928.9534	1462.3	578.1
1019.8313	2930.0569	1448.4	564.1
1019.946	2931.1597	1450.95	569.1
1020.0606	2932.2619	1448.2	566.65
1020.1753	2933.3634	1450.8	569.4
1020.2899	2934.4643	1455.9	567.6
1020.4044	2935.5645	1456.85	570.1
1020.5189	2936.6641	1455.6	572
1020.6334	2937.763	1444.7	563.35
1020.7478	2938.8613	1439.6	557.45
1020.8622	2939.959	1441	554.05
1020.9765	2941.056	1428.15	548.35
1021.0908	2942.1523	1429.1	545.9
1021.2051	2943.248	1413.55	530.7
1021.3193	2944.3431	1406.55	527.1
1021.4334	2945.4375	1397.6	515.7
1021.5476	2946.5313	1388.8	508.25
1021.6617	2947.6244	1382	499.9
1021.7757	2948.7169	1378.75	497.25
1021.8897	2949.8087	1362.7	480.45
1022.0037	2950.8999	1357.2	477.45
1022.1176	2951.9904	1353.5	473.45
1022.2315	2953.0803	1348.7	466.6
1022.3453	2954.1696	1335.15	453.95
1022.4591	2955.2582	1331.1	450.35
1022.5728	2956.3462	1325	445.1
1022.6865	2957.4335	1326.8	441.9
1022.8002	2958.5202	1332.75	449.25
1022.9138	2959.6062	1316.6	434.75
1023.0274	2960.6916	1314.25	432.75
1023.141	2961.7764	1311.75	430.4
1023.2545	2962.8605	1310.9	429.25
1023.3679	2963.9439	1308.3	426.5
1023.4813	2965.0267	1306.5	423.85
1023.5947	2966.1089	1324.35	422.4
1023.708	2967.1905	1309.2	428.75
1023.8213	2968.2714	1296.6	415.3
1023.9346	2969.3516	1296.95	413.5
1024.0478	2970.4312	1306.15	417.45
1024.1609	2971.5102	1302.25	423.8
1024.274	2972.5885	1292	410.15
1024.3871	2973.6662	1294.6	408.15
1024.5002	2974.7432	1294.35	413.9
1024.6132	2975.8196	1294.25	413.9
1024.7261	2976.8954	1285.7	404.5
1024.839	2977.9705	1287	406.2
1024.9519	2979.045	1285.6	405.7
1025.0647	2980.1188	1279.8	400.75
1025.1775	2981.192	1275.7	395.2
1025.2902	2982.2645	1278.05	395
1025.4029	2983.3364	1272.45	391.35
1025.5156	2984.4077	1267.2	387.65
1025.6282	2985.4783	1272.9	384.6
1025.7407	2986.5483	1265.35	383.6
1025.8532	2987.6177	1258.8	377.9
1025.9657	2988.6864	1256.85	376.65
1026.0782	2989.7545	1260.5	377.1
1026.1906	2990.8219	1250.85	371.35
1026.3029	2991.8887	1255.2	370.4
1026.4152	2992.9548	1248.2	366.75
1026.5275	2994.0204	1238.9	359.85
1026.6397	2995.0852	1233.7	352.9
1026.7519	2996.1495	1232.05	348.95
1026.864	2997.2131	1225.7	346.45
1026.9761	2998.276	1228.65	347.25
1027.0882	2999.3383	1225.95	345.1
1027.2002	3000.4	1219.8	338.05
1027.3122	3001.4611	1214.25	334.4
1027.4241	3002.5215	1215.05	333.2
1027.536	3003.5812	1212.4	331.4
1027.6478	3004.6404	1213.3	332.9
1027.7596	3005.6989	1209.65	327.95
1027.8714	3006.7567	1207.05	326.7
1027.9831	3007.8139	1224.95	321.55
1028.0947	3008.8705	1196.9	316.5
1028.2064	3009.9264	1202.05	319.4
1028.3179	3010.9818	1198.6	318.75
1028.4295	3012.0364	1194.7	312.4
1028.541	3013.0905	1193.75	313.85
1028.6524	3014.1439	1195.05	314.15
1028.7638	3015.1966	1186.45	305.55
1028.8752	3016.2487	1190.25	310.25
1028.9865	3017.3002	1189.95	306.65
1029.0978	3018.3511	1183.4	305.55
1029.209	3019.4013	1181.8	299.4
1029.3202	3020.4509	1187.85	308.25
1029.4314	3021.4998	1180.85	300.7
1029.5425	3022.5481	1180.3	301.05
1029.6535	3023.5958	1185.9	305.3
1029.7645	3024.6428	1179.6	298.25
1029.8755	3025.6892	1174.15	294
1029.9864	3026.735	1176.55	296.35
1030.0973	3027.7802	1179.7	298.05
1030.2082	3028.8247	1172.55	290.65
1030.319	3029.8685	1171.7	291.45
1030.4297	3030.9118	1175.65	291.35
1030.5404	3031.9544	1170.05	290.65
1030.6511	3032.9963	1171.2	290
1030.7617	3034.0376	1164.65	283.35
1030.8723	3035.0783	1163.05	279.45
1030.9829	3036.1184	1161.7	282.65
1031.0934	3037.1578	1164.6	286.55
1031.2038	3038.1966	1165.15	282.9
1031.3142	3039.2348	1161.25	281.55
1031.4246	3040.2723	1167.6	279.3
1031.5349	3041.3092	1158.1	278.85
1031.6452	3042.3455	1154.6	272.5
1031.7554	3043.3811	1158.85	276.65
1031.8656	3044.4161	1154.15	272.7
1031.9758	3045.4505	1154.9	276
1032.0859	3046.4842	1150.5	270.1
1032.1959	3047.5173	1155.75	276.8
1032.3059	3048.5498	1150.15	269
1032.4159	3049.5816	1153.5	273.65
1032.5258	3050.6128	1147.55	265.85
1032.6357	3051.6434	1145.5	264.1
1032.7455	3052.6734	1145.45	263.55
1032.8553	3053.7027	1149.45	268.4
1032.9651	3054.7314	1144.6	263.4
1033.0748	3055.7594	1144.2	264.85
1033.1845	3056.7868	1146.6	265.1
1033.2941	3057.8136	1143.7	264.3
1033.4037	3058.8398	1135.15	256.5
1033.5132	3059.8653	1140.75	260.1
1033.6227	3060.8902	1134.7	254.55
1033.7321	3061.9145	1138.85	257.05
1033.8415	3062.9381	1135.05	255.55
1033.9509	3063.9612	1148.2	251.45
1034.0602	3064.9835	1135.55	255.85
1034.1694	3066.0053	1133.1	250.6
1034.2787	3067.0264	1133.45	253.6
1034.3878	3068.0469	1131.75	250.25
1034.497	3069.0668	1136.5	254.2
1034.6061	3070.086	1134.5	254.9
1034.7151	3071.1046	1132.65	253.35
1034.8241	3072.1226	1131.55	249.95
1034.9331	3073.1399	1123.65	245.65
1035.042	3074.1567	1122.15	242.4
1035.1508	3075.1727	1124.85	244
1035.2597	3076.1882	1120.2	239.25
1035.3684	3077.203	1122.3	242.95
1035.4772	3078.2173	1120.9	239.2
1035.5859	3079.2308	1122.1	237.45
1035.6945	3080.2438	1120.15	238.45
1035.8031	3081.2561	1116.85	235.5
1035.9117	3082.2678	1113.25	233.05
1036.0202	3083.2789	1109.95	227.8
1036.1286	3084.2893	1110.9	232.45
1036.2371	3085.2991	1108.7	229.05
1036.3454	3086.3083	1116.85	231.95
1036.4538	3087.3169	1111.35	230.35
1036.562	3088.3248	1112.6	230
1036.6703	3089.3321	1110.25	226.95
1036.7785	3090.3388	1105.55	226.75
1036.8866	3091.3449	1101.7	220
1036.9948	3092.3503	1106.9	222.95
1037.1028	3093.3551	1102.95	223.9
1037.2108	3094.3593	1095.9	216.5
1037.3188	3095.3629	1101.7	222.75
1037.4267	3096.3658	1098.4	218.05
1037.5346	3097.3681	1094.95	214.25
1037.6425	3098.3698	1099.55	216.8
1037.7503	3099.3708	1101.05	214.4
1037.858	3100.3713	1089.45	210.85
1037.9657	3101.3711	1090.55	209.55
1038.0734	3102.3702	1225.15	210.8
1038.181	3103.3688	1086.95	205.15
1038.2886	3104.3667	1087.7	208.35
1038.3961	3105.364	1087.75	208.5
1038.5036	3106.3607	1088.45	206.2
1038.611	3107.3568	1084.65	204.8
1038.7184	3108.3522	1082.8	203.55
1038.8257	3109.347	1080.1	198.4
1038.933	3110.3412	1083.15	200.45
1039.0403	3111.3348	1078.4	197.55
1039.1475	3112.3277	1076.3	196.05
1039.2547	3113.32	1073.35	193.1
1039.3618	3114.3117	1075.15	193.75
1039.4689	3115.3028	1071.1	191.05
1039.5759	3116.2932	1078.95	195.65
1039.6829	3117.2831	1076.1	192.6
1039.7898	3118.2723	1069.2	190.35
1039.8967	3119.2608	1069.95	190.2
1040.0035	3120.2488	1069.85	190.4
1040.1103	3121.2361	1067.95	188.85
1040.2171	3122.2229	1067.9	186.2
1040.3238	3123.209	1064.45	184.65
1040.4305	3124.1944	1062	181.9
1040.5371	3125.1793	1064.6	183.8
1040.6437	3126.1635	1063.15	184.2
1040.7502	3127.1471	1061.85	183.05
1040.8567	3128.1301	1060.4	181.15
1040.9631	3129.1125	1059.9	178.1
1041.0695	3130.0942	1056.1	176.55
1041.1759	3131.0753	1067.5	177.9
1041.2822	3132.0558	1063.45	181
1041.3884	3133.0357	1058.45	179.05
1041.4946	3134.015	1055.85	174.35
1041.6008	3134.9936	1054.35	174.6
1041.7069	3135.9716	1080.4	178.45
1041.813	3136.949	1050.55	171.75
1041.919	3137.9258	1057.75	171.55
1042.025	3138.902	1056.4	171.75
1042.1309	3139.8775	1050.7	173
1042.2368	3140.8524	1052	171.6
1042.3427	3141.8267	1050.55	166.25
1042.4485	3142.8004	1045.9	165.9
1042.5542	3143.7735	1055.4	169.6
1042.6599	3144.7459	1052.15	169
1042.7656	3145.7178	1050	169.5
1042.8712	3146.689	1043	162.9
1042.9768	3147.6596	1046.25	165.15
1043.0823	3148.6295	1044.25	162.35
1043.1878	3149.5989	1044.65	164.35
1043.2932	3150.5676	1039.1	162.35
1043.3986	3151.5357	1037.85	159.3
1043.5039	3152.5032	1040.05	160.25
1043.6092	3153.4701	1044.2	163.65
1043.7145	3154.4364	1042.75	161.1
1043.8197	3155.402	1034.05	155.85
1043.9248	3156.367	1041.25	160.35
1044.03	3157.3315	1070.35	153.4
1044.135	3158.2952	1035.95	155.1
1044.24	3159.2584	1030.75	150.2
1044.345	3160.221	1032.4	151.4
1044.4499	3161.1829	1028.7	149.5
1044.5548	3162.1442	1030.25	152.75
1044.6596	3163.105	1032.75	151.4
1044.7644	3164.065	1028.1	147.65
1044.8692	3165.0245	1029.6	145.95
1044.9739	3165.9834	1029.45	150.6
1045.0785	3166.9416	1028.25	149.5
1045.1831	3167.8993	1026.6	146.9
1045.2877	3168.8563	1026.55	145.4
1045.3922	3169.8127	1028.15	149.85
1045.4966	3170.7684	1023.35	142.7
1045.6011	3171.7236	1027.4	144.3
1045.7054	3172.6782	1024.45	144.85
1045.8098	3173.6321	1022.5	142.55
1045.914	3174.5854	1027	142.85
1046.0183	3175.5381	1022.5	143.65
1046.1224	3176.4902	1020.35	140.4
1046.2266	3177.4417	1016.5	137.2
1046.3307	3178.3926	1014.65	134.7
1046.4347	3179.3428	1016.35	137.45
1046.5387	3180.2924	1015.25	137.4
1046.6427	3181.2415	1017.65	137.6
1046.7466	3182.1899	1020.25	139.95
1046.8504	3183.1377	1014.05	134.8
1046.9542	3184.0848	1013.35	130.85
1047.058	3185.0314	1014.7	135.4
1047.1617	3185.9773	1008.5	128
1047.2654	3186.9227	1008.7	130.1
1047.369	3187.8674	1010.8	128.95
1047.4726	3188.8115	1011.7	127.5
1047.5761	3189.755	1010.85	131.25
1047.6796	3190.6979	1008.8	128.95
1047.783	3191.6402	1008.05	129.85
1047.8864	3192.5818	1003.15	122.7
1047.9898	3193.5229	1022.15	126.15
1048.0931	3194.4633	1008.45	129.65
1048.1963	3195.4031	1007.1	126.45
1048.2995	3196.3423	1006.55	126.7
1048.4027	3197.2809	1000.8	120.35
1048.5058	3198.2189	1004.4	124.8
1048.6089	3199.1563	1018.95	120.05
1048.7119	3200.0931	1000.3	123.6
1048.8148	3201.0292	1000.5	120.7
1048.9178	3201.9648	1003.5	122.55
1049.0206	3202.8997	1003.8	122.5
1049.1235	3203.834	1002.05	122
1049.2262	3204.7677	997.1	116.65
1049.329	3205.7008	998.7	118.6
1049.4317	3206.6333	1001	123.25
1049.5343	3207.5652	1002.3	121.15
1049.6369	3208.4964	996.55	116.15
1049.7394	3209.4271	992.7	113.6
1049.8419	3210.3571	995.15	115.3
1049.9444	3211.2865	996.3	118.35
1050.0468	3212.2154	996.35	115.35
1050.1491	3213.1436	998.3	115.9
1050.2514	3214.0712	1001.25	115.15
1050.3537	3214.9982	991.15	113.35
1050.4559	3215.9246	993.05	114.2
1050.5581	3216.8503	988.25	109.6
1050.6602	3217.7755	991.05	110.45
1050.7623	3218.7001	992.5	113.15
1050.8643	3219.624	989.3	106.65
1050.9663	3220.5473	990.2	108.8
1051.0682	3221.4701	991.85	112.5
1051.1701	3222.3922	993.55	111.35
1051.2719	3223.3137	989.95	110.2
1051.3737	3224.2346	988.95	109.55
1051.4754	3225.1549	984.85	106.75
1051.5771	3226.0746	987	107.5
1051.6788	3226.9937	984	104.55
1051.7804	3227.9121	983.7	105.3
1051.8819	3228.83	979.75	99.95
1051.9834	3229.7473	981.25	101.15
1052.0849	3230.6639	983.25	103.45
1052.1863	3231.5799	980.7	100.3
1052.2876	3232.4954	982.45	99.65
1052.3889	3233.4102	978.4	98.8
1052.4902	3234.3244	982.35	104.8
1052.5914	3235.238	981.1	100.35
1052.6926	3236.151	1005.5	102.6
1052.7937	3237.0634	976.8	100.25
1052.8948	3237.9752	977.75	99.75
1052.9958	3238.8864	977.75	98.3
1053.0968	3239.797	974.85	95.15
1053.1977	3240.7069	975.95	95.55
1053.2986	3241.6163	977.7	96.7
1053.3994	3242.5251	973.85	93.85
1053.5002	3243.4332	974.45	96.8
1053.6009	3244.3408	974.65	95.05
1053.7016	3245.2477	973.4	93.95
1053.8022	3246.154	971.2	89.85
1053.9028	3247.0598	971.25	91.5
1054.0034	3247.9649	971.2	92.8
1054.1039	3248.8694	975.15	95.25
1054.2043	3249.7733	969.3	88.65
1054.3047	3250.6766	970.85	90.2
1054.4051	3251.5793	967.95	87.9
1054.5054	3252.4814	965.2	86.55
1054.6056	3253.3829	968.1	89.2
1054.7058	3254.2838	965.85	86.5
1054.806	3255.1841	967.7	90.5
1054.9061	3256.0838	967.45	86.9
1055.0061	3256.9829	962	84.35
1055.1062	3257.8814	967.8	86.35
1055.2061	3258.7792	963.4	81.55
1055.306	3259.6765	964.55	85.15
1055.4059	3260.5731	958.4	76.35
1055.5057	3261.4692	962.5	82.15
1055.6055	3262.3647	959.7	79.9
1055.7052	3263.2595	959.2	81.3
1055.8049	3264.1538	957.1	78.25
1055.9045	3265.0474	959.85	80.05
1056.0041	3265.9404	954.15	75.45
1056.1036	3266.8329	953.9	76.45
1056.2031	3267.7247	962.3	71.55
1056.3025	3268.616	949.35	71.25
1056.4019	3269.5066	950.25	70
1056.5013	3270.3966	948.25	66.6
1056.6005	3271.286	940.45	61
