Software Version:	3.9.2.0
Unit SN:	10000200
Spectrometer SN:	6960
Date:	3/6/2024 9:49:11 AM
Data Line Index:	25
Spectral Points:	2048
Integration time (ms):	125
Averages:	20
Delay (ms):	30
Sequence Number:	1
Processing:	dark subtract
Laser Power (mW):	305
Laser Current (mA):	823
Laser Diode Temp (C):	25.1
Laser Case Temp (C):	24.3
System Temp (C):	24.1
Spectrometer Temp (C):	21.7
CCD Temp (C):	-0.01
Secondary Temp (C):	20.006
Heatsink Temp (C):	18.032
CCDPCB Temp (C):	31.627
SecondaryPCB Temp (C):	25.88

Wavelength	RamanShift	Raw Counts	Dark Subtracted
787.061	30.1047	449.75	43.55
787.2016	32.3739	450.15	43.75
787.3422	34.6426	452.8	46.3
787.4828	36.9109	458.2	50.55
787.6235	39.1787	460.25	48.3
787.7642	41.4461	473.75	57.5
787.9049	43.7131	475.7	55.65
788.0456	45.9796	483.45	61
788.1863	48.2456	489.2	62.75
788.3271	50.5112	499.8	69.1
788.4679	52.7764	507.2	74.95
788.6087	55.0411	514.95	78.4
788.7496	57.3054	525.05	80.8
788.8904	59.5692	528.3	82.65
789.0313	61.8326	537.35	90.65
789.1722	64.0955	545	96.05
789.3132	66.3579	559.15	104.1
789.4541	68.6199	572.1	113.65
789.5951	70.8815	598.85	134.7
789.7361	73.1426	648.15	180.75
789.8771	75.4032	762.45	290
790.0181	77.6634	1044.1	571.4
790.1592	79.9231	1727.85	1250.85
790.3003	82.1824	3163.75	2680.1
790.4414	84.4412	5679.75	5184.6
790.5825	86.6995	9058.85	8550.8
790.7237	88.9574	12436.05	11914.65
790.8648	91.2148	14908.55	14383.2
791.006	93.4717	16284.95	15752.7
791.1472	95.7282	16882.75	16346.3
791.2885	97.9842	17207.9	16671.05
791.4297	100.2398	17334.25	16794.45
791.571	102.4949	17375.65	16835.1
791.7123	104.7495	17395.3	16847
791.8536	107.0036	17361.6	16811.45
791.9949	109.2573	17389.25	16845.15
792.1363	111.5105	17417.15	16870.15
792.2777	113.7632	17355.1	16804.65
792.4191	116.0154	17370.15	16807.7
792.5605	118.2672	17428.5	16873.3
792.7019	120.5185	17432.15	16873.35
792.8434	122.7693	17470.95	16908
792.9849	125.0197	17497.2	16931
793.1264	127.2696	17498.75	16927.75
793.2679	129.519	17588.05	17015.5
793.4094	131.7679	17610.45	17035.55
793.551	134.0163	17630	17054.35
793.6926	136.2642	17652.3	17072.8
793.8342	138.5117	17689.95	17108.8
793.9758	140.7587	17678.6	17096.15
794.1175	143.0052	17651.8	17063.15
794.2591	145.2512	17645.8	17058.9
794.4008	147.4967	17634.45	17044.8
794.5425	149.7417	17645.7	17050.6
794.6842	151.9863	17659.9	17066.6
794.826	154.2304	17691.75	17093.6
794.9677	156.4739	17634.5	17027.4
795.1095	158.717	17656.2	17050
795.2513	160.9596	17713.85	17102.7
795.3931	163.2017	17683.05	17072.3
795.535	165.4433	17711.7	17095.5
795.6768	167.6844	17682.15	17065.8
795.8187	169.925	17708.25	17088.35
795.9606	172.1651	17663.3	17040.25
796.1025	174.4047	17666.35	17041.25
796.2445	176.6439	17642.2	17014.5
796.3864	178.8825	17670.95	17040.25
796.5284	181.1206	17689.4	17055.65
796.6704	183.3582	17724.9	17083.65
796.8124	185.5954	17690.8	17050.7
796.9544	187.832	17696.9	17051.8
797.0965	190.0681	17787.8	17140.15
797.2386	192.3037	17828.65	17177.8
797.3806	194.5388	17847.1	17193.85
797.5228	196.7734	17870.1	17214.7
797.6649	199.0075	17932.15	17274.5
797.807	201.2411	18016.05	17360.6
797.9492	203.4742	18031.55	17373.3
798.0914	205.7068	18109.55	17447.05
798.2336	207.9389	18123.35	17457.65
798.3758	210.1704	18165.9	17506.3
798.518	212.4015	18138.85	17488.5
798.6603	214.632	18206.7	17566.4
798.8025	216.862	18200.35	17560.5
798.9448	219.0915	18168.25	17524.65
799.0871	221.3205	18240.95	17595.8
799.2294	223.549	18288.25	17646.5
799.3718	225.777	18301.2	17660.25
799.5141	228.0044	18337.3	17687.95
799.6565	230.2314	18401.95	17752.8
799.7989	232.4578	18400.2	17743.6
799.9413	234.6837	18411.95	17751.1
800.0837	236.909	18406.45	17741
800.2262	239.1339	18444.45	17754.8
800.3687	241.3582	18457.25	17780
800.5111	243.582	18439.3	17730.95
800.6536	245.8053	18480.25	17787.3
800.7961	248.0281	18481.55	17794.8
800.9387	250.2503	18505.6	17813
801.0812	252.472	18503.9	17808.45
801.2238	254.6932	18549.6	17858.5
801.3664	256.9139	18506.85	17811.1
801.509	259.134	18569.1	17869.1
801.6516	261.3536	18545.6	17850.55
801.7942	263.5727	18594.05	17895.75
801.9369	265.7912	18593.1	17895.7
802.0795	268.0092	18646.05	17947.05
802.2222	270.2267	18675.9	17975.4
802.3649	272.4436	18698.45	17995.55
802.5076	274.6601	18702	17986.55
802.6504	276.8759	18687.85	17979.35
802.7931	279.0913	18754.55	18045.5
802.9359	281.3061	18751.65	18042
803.0787	283.5204	18762.75	18052.15
803.2215	285.7341	18777.45	18061.6
803.3643	287.9473	18838.45	18110.25
803.5071	290.16	18831.7	18112.65
803.6499	292.3721	18779.15	18065.45
803.7928	294.5837	18790.8	18075.85
803.9357	296.7947	18773.95	18057.8
804.0786	299.0052	18757.25	18042.2
804.2215	301.2152	18713.15	17993.05
804.3644	303.4246	18714.15	17998.7
804.5074	305.6334	18680.35	17966.25
804.6503	307.8418	18705.4	17984
804.7933	310.0495	18708.6	17985.6
804.9363	312.2568	18684.25	17960.3
805.0793	314.4635	18585.2	17860.1
805.2223	316.6696	18560.4	17830.75
805.3653	318.8752	18470.8	17734.15
805.5084	321.0802	18487.3	17757
805.6514	323.2847	18507.85	17776.05
805.7945	325.4887	18458.9	17727.25
805.9376	327.692	18446.3	17713.65
806.0807	329.8949	18506.35	17772.5
806.2238	332.0972	18511.6	17777.6
806.367	334.2989	18538.55	17799.2
806.5101	336.5001	18506.4	17767.25
806.6533	338.7007	18491.85	17752.9
806.7965	340.9008	18530.4	17787.65
806.9397	343.1003	18473.25	17726.8
807.0829	345.2992	18466.4	17719.35
807.2261	347.4976	18430.6	17684
807.3693	349.6955	18411.1	17660
807.5126	351.8927	18428.3	17679.7
807.6559	354.0895	18404.4	17643
807.7991	356.2856	18417.9	17665.45
807.9424	358.4812	18375.15	17622.15
808.0857	360.6763	18419.65	17665
808.2291	362.8707	18342.4	17583.6
808.3724	365.0646	18361.4	17600.5
808.5158	367.258	18343	17581.15
808.6591	369.4508	18356.85	17590.8
808.8025	371.643	18342.8	17575.35
808.9459	373.8346	18285.1	17519.75
809.0893	376.0257	18311.2	17542.7
809.2327	378.2162	18299.95	17531.45
809.3762	380.4062	18320.3	17552.25
809.5196	382.5956	18276.05	17509.85
809.6631	384.7844	18220.9	17458.5
809.8066	386.9726	18165.6	17405.5
809.9501	389.1603	18140.9	17380.8
810.0936	391.3474	18131.2	17338.95
810.2371	393.5339	18139.1	17376.15
810.3806	395.7199	18048.55	17287
810.5241	397.9052	18086.5	17322.8
810.6677	400.09	18091.6	17325
810.8113	402.2743	18034.7	17267.75
810.9548	404.4579	18054.6	17288.9
811.0984	406.641	18117.9	17350.45
811.2421	408.8235	18114.85	17345.4
811.3857	411.0054	18162	17387.3
811.5293	413.1868	18261.45	17484.3
811.673	415.3675	18294.45	17514.5
811.8166	417.5477	18305.3	17523
811.9603	419.7273	18181.65	17398.15
812.104	421.9064	18049.05	17260.95
812.2477	424.0848	17988.8	17206.25
812.3914	426.2627	17956.7	17173.85
812.5351	428.4399	17928.3	17141.45
812.6788	430.6166	17851.05	17064.05
812.8226	432.7928	17801.4	17010.75
812.9663	434.9683	17723.4	16933.35
813.1101	437.1432	17732.95	16940.4
813.2539	439.3176	17616.4	16825.55
813.3977	441.4914	17574.2	16787.25
813.5415	443.6645	17569.35	16778.05
813.6853	445.8371	17484.35	16691.4
813.8291	448.0091	17410.35	16619.75
813.973	450.1806	17359.35	16569.7
814.1168	452.3514	17315.5	16522.45
814.2607	454.5216	17340.6	16537.9
814.4046	456.6913	17223.05	16425.9
814.5485	458.8603	17225.7	16431.7
814.6924	461.0288	17285.2	16491.2
814.8363	463.1967	17223.4	16429.2
814.9802	465.3639	17249.15	16453.45
815.1241	467.5306	17181.9	16386.25
815.2681	469.6967	17153.05	16356.9
815.412	471.8622	17115.55	16319.75
815.556	474.0271	17099.45	16303.35
815.7	476.1914	17067.45	16266.65
815.844	478.3551	17073.85	16273.35
815.988	480.5182	17088.95	16290.75
816.132	482.6807	17054.2	16255.15
816.276	484.8426	17124.9	16329.6
816.4201	487.0039	17150.4	16351.45
816.5641	489.1647	17165.7	16363.2
816.7082	491.3248	17168.6	16365.3
816.8522	493.4843	17188.7	16389.55
816.9963	495.6432	17157.3	16354.1
817.1404	497.8015	17112.45	16304.05
817.2845	499.9592	17096.15	16290.3
817.4286	502.1163	17100.75	16293.5
817.5727	504.2728	16991.8	16183
817.7168	506.4287	17036.7	16231.9
817.861	508.5839	16951.2	16146.2
818.0051	510.7386	16941.7	16134.4
818.1493	512.8927	16988.6	16177.2
818.2935	515.0461	16959.65	16148.85
818.4377	517.199	16965.75	16153.15
818.5818	519.3512	16942.55	16133.1
818.726	521.5029	16942.6	16125.9
818.8703	523.6539	16962.05	16150.05
819.0145	525.8043	16958.4	16143.6
819.1587	527.9541	16940.6	16121.8
819.303	530.1033	16878.2	16064.35
819.4472	532.2519	16830.65	16016.6
819.5915	534.3999	16822.55	16005.55
819.7357	536.5472	16784.2	15967.55
819.88	538.694	16792.6	15977.1
820.0243	540.8401	16792.65	15976.35
820.1686	542.9856	16841.55	16020.75
820.3129	545.1305	16776.7	15954.7
820.4572	547.2748	16828.05	16005.95
820.6016	549.4185	16784	15960.9
820.7459	551.5615	16766.6	15945.05
820.8902	553.704	16741.35	15919.3
821.0346	555.8458	16738.3	15917
821.1789	557.987	16736.3	15916.7
821.3233	560.1276	16717.25	15894.55
821.4677	562.2675	16752.95	15929.3
821.6121	564.4069	16753.9	15932.25
821.7565	566.5456	16715.85	15894.35
821.9009	568.6837	16728.05	15904.6
822.0453	570.8212	16662.4	15840
822.1897	572.958	16581.65	15758.85
822.3342	575.0942	16540.9	15719.55
822.4786	577.2299	16467.7	15645.5
822.6231	579.3648	16449.65	15626.05
822.7675	581.4992	16326.7	15504.65
822.912	583.6329	16289.35	15468
823.0565	585.766	16283.45	15460
823.201	587.8985	16277.7	15454.75
823.3454	590.0304	16252.95	15415.6
823.4899	592.1616	16238.75	15410.5
823.6345	594.2922	16184.1	15354.15
823.779	596.4222	16165.25	15333.6
823.9235	598.5515	16088.7	15257.8
824.068	600.6802	16065.1	15234.75
824.2126	602.8083	16010.5	15180.75
824.3571	604.9358	15957	15125.1
824.5017	607.0626	15902.15	15071.2
824.6462	609.1888	15869.5	15036.05
824.7908	611.3144	15880.35	15043.8
824.9354	613.4393	15855.85	15019.55
825.08	615.5636	15858.1	15024.2
825.2246	617.6873	15879.45	15045.45
825.3692	619.8103	15899.05	15063.7
825.5138	621.9327	15818.2	14978.9
825.6584	624.0544	15821.2	14987.3
825.803	626.1756	15805.25	14971.75
825.9477	628.2961	15743.5	14907.2
826.0923	630.4159	15708.35	14871.2
826.237	632.5351	15721.25	14883.6
826.3816	634.6537	15700.15	14861.55
826.5263	636.7716	15704.75	14864.8
826.6709	638.8889	15700.9	14862.3
826.8156	641.0056	15714.9	14876.1
826.9603	643.1216	15648.8	14809.15
827.105	645.237	15676.65	14835.25
827.2497	647.3518	15659.45	14816.85
827.3944	649.4659	15612.85	14774.4
827.5391	651.5793	15555.85	14718.05
827.6838	653.6922	15525.2	14687
827.8285	655.8043	15509.8	14671.5
827.9733	657.9159	15529.8	14688.35
828.118	660.0268	15459.65	14615.05
828.2627	662.137	15437.25	14590.6
828.4075	664.2466	15460.5	14615.25
828.5522	666.3556	15425	14580.85
828.697	668.4639	15400.2	14553.75
828.8418	670.5716	15399.65	14557.3
828.9865	672.6786	15377.4	14532.65
829.1313	674.785	15330.25	14481.8
829.2761	676.8907	15274.75	14428.65
829.4209	678.9958	15293.7	14448.9
829.5657	681.1002	15202.1	14353.85
829.7105	683.204	15206	14353.8
829.8553	685.3072	15184.1	14336.2
830.0001	687.4097	15152.8	14304.4
830.1449	689.5115	15182.1	14333.4
830.2898	691.6127	15134.3	14290.05
830.4346	693.7132	15116.1	14268.9
830.5794	695.8131	15139.55	14282.8
830.7243	697.9123	15142.85	14294.25
830.8691	700.0109	15086.8	14237.15
831.014	702.1089	15087.25	14236.65
831.1588	704.2061	15087.2	14239.05
831.3037	706.3028	15065.35	14214.45
831.4486	708.3987	15044.75	14192.25
831.5935	710.4941	15032.2	14180.4
831.7383	712.5887	15027.3	14175.4
831.8832	714.6827	15023.05	14167.15
832.0281	716.7761	15016.7	14165.95
832.173	718.8688	14979.45	14127.1
832.3179	720.9608	14975.9	14118.75
832.4628	723.0522	14977.4	14118.9
832.6077	725.1429	14967.2	14113.2
832.7527	727.233	14945.25	14091.8
832.8976	729.3224	14985.1	14131.05
833.0425	731.4112	14951.95	14097.35
833.1874	733.4993	14925.1	14066.65
833.3324	735.5867	14868.3	14013.1
833.4773	737.6735	14845.7	13989.35
833.6222	739.7596	14782.5	13924.9
833.7672	741.845	14763.95	13908.95
833.9122	743.9298	14768.35	13912.45
834.0571	746.014	14724.95	13870.1
834.2021	748.0974	14705.2	13846.8
834.347	750.1802	14661.05	13799.65
834.492	752.2624	14615.15	13756.45
834.637	754.3439	14559.45	13698.95
834.782	756.4247	14519.7	13650.1
834.9269	758.5048	14495.7	13636.55
835.0719	760.5843	14464.1	13603.45
835.2169	762.6631	14426.6	13566.25
835.3619	764.7413	14414.6	13556.3
835.5069	766.8188	14466.65	13603.75
835.6519	768.8956	14421.3	13558.6
835.7969	770.9718	14444.3	13584.9
835.9419	773.0473	14396.7	13536
836.0869	775.1221	14374.65	13513.05
836.232	777.1962	14334.3	13472.75
836.377	779.2697	14328.5	13465.8
836.522	781.3426	14356.35	13473.1
836.667	783.4147	14312.3	13450.35
836.8121	785.4862	14293.9	13431.35
836.9571	787.557	14236.45	13374.3
837.1021	789.6271	14173.85	13310.35
837.2472	791.6966	14095.5	13233.1
837.3922	793.7654	14013.9	13150.75
837.5373	795.8335	14015.75	13153.6
837.6823	797.901	13916.85	13056
837.8274	799.9678	13912.65	13048
837.9724	802.0339	13878.65	13016.15
838.1175	804.0993	13870.8	12996.45
838.2626	806.1641	13858.65	12994.6
838.4076	808.2282	13842.5	12977.85
838.5527	810.2916	13786.45	12919.95
838.6978	812.3544	13771.15	12907.45
838.8428	814.4164	13710.4	12845.85
838.9879	816.4778	13755.3	12891
839.133	818.5385	13711.5	12848.6
839.2781	820.5986	13725.15	12859.4
839.4232	822.658	13734.05	12868.6
839.5682	824.7166	13724.45	12859.45
839.7133	826.7747	13772.65	12908.75
839.8584	828.832	13778.9	12912.2
840.0035	830.8886	13761.55	12891.5
840.1486	832.9446	13739.35	12870.15
840.2937	834.9999	13731.85	12866.2
840.4388	837.0545	13675.05	12804.9
840.5839	839.1085	13620	12751.45
840.729	841.1618	13565	12692.45
840.8741	843.2143	13532.3	12665.65
841.0192	845.2662	13468.55	12600.85
841.1643	847.3175	13446.8	12578.65
841.3095	849.368	13401.05	12530.85
841.4546	851.4179	13390.4	12519.8
841.5997	853.467	13339.4	12470.85
841.7448	855.5155	13341.55	12472.8
841.8899	857.5633	13325.85	12456.7
842.0351	859.6105	13253.8	12384.65
842.1802	861.6569	13271.1	12400
842.3253	863.7027	13228.25	12358.5
842.4704	865.7478	13228.1	12356.5
842.6156	867.7922	13219.05	12350.6
842.7607	869.8359	13193	12321.1
842.9058	871.8789	13121.95	12252.25
843.0509	873.9212	13185.7	12283.6
843.1961	875.9629	13101.1	12231.05
843.3412	878.0039	13113	12239.75
843.4863	880.0441	13113.35	12244
843.6315	882.0837	13120.4	12248.6
843.7766	884.1226	13089.25	12215.85
843.9218	886.1609	13091.95	12222.15
844.0669	888.1984	13107.9	12237.3
844.212	890.2352	13129.8	12258
844.3572	892.2714	13106.65	12233.2
844.5023	894.3069	13106.95	12234.45
844.6475	896.3416	13033.45	12158.75
844.7926	898.3757	13010.65	12138.3
844.9377	900.4091	12985.9	12113.6
845.0829	902.4418	12973.6	12095.75
845.228	904.4739	12941.1	12065.65
845.3732	906.5052	12905.5	12033
845.5183	908.5358	12911.15	12038.2
845.6635	910.5658	12897.5	12022.1
845.8086	912.595	12819.5	11946.55
845.9538	914.6236	12806.25	11934.4
846.0989	916.6515	12750.25	11876.7
846.2441	918.6786	12730.35	11853.65
846.3892	920.7051	12703.9	11827.25
846.5344	922.7309	12735.75	11863.15
846.6795	924.756	12627.9	11753.3
846.8246	926.7804	12655.2	11777.5
846.9698	928.8041	12565.2	11689.5
847.1149	930.8272	12607.45	11731.9
847.2601	932.8495	12517.6	11639.95
847.4052	934.8711	12568.25	11692.95
847.5504	936.892	12493	11616.7
847.6955	938.9123	12459.95	11583.25
847.8407	940.9318	12450.15	11573.95
847.9858	942.9506	12405.2	11530.25
848.131	944.9688	12372.8	11497.15
848.2761	946.9862	12372.75	11498.6
848.4213	949.003	12284.35	11407.75
848.5664	951.019	12252	11373.95
848.7115	953.0344	12210.75	11331.45
848.8567	955.0491	12208.65	11331.2
849.0018	957.063	12167.65	11292.15
849.147	959.0763	12175.7	11300.15
849.2921	961.0888	12131.75	11253.75
849.4373	963.1007	12147.85	11271.55
849.5824	965.1119	12115.65	11239.75
849.7275	967.1223	12104.6	11228.3
849.8727	969.1321	12078.25	11201.15
850.0178	971.1412	12057.95	11184.8
850.1629	973.1495	12005.8	11128.25
850.3081	975.1572	12031.3	11108.9
850.4532	977.1641	11999.35	11121.9
850.5983	979.1704	11945.9	11068.05
850.7435	981.1759	11923.05	11041.25
850.8886	983.1808	11905.65	11027.85
851.0337	985.1849	11897.25	11010.2
851.1788	987.1884	11866.25	10985.85
851.324	989.1911	11831.15	10949.15
851.4691	991.1932	11818.65	10938.95
851.6142	993.1945	11762.45	10885.8
851.7593	995.1951	11718.65	10839.05
851.9045	997.1951	11709.75	10824.8
852.0496	999.1943	11673.35	10793.85
852.1947	1001.1928	11600.75	10721.7
852.3398	1003.1906	11574.75	10694.7
852.4849	1005.1877	11587.25	10707.95
852.63	1007.1841	11547.55	10668.35
852.7751	1009.1798	11507.75	10629.2
852.9202	1011.1748	11448.05	10566.75
853.0653	1013.1691	11436.65	10556.5
853.2104	1015.1627	11387.7	10508.85
853.3555	1017.1556	11309.45	10430.1
853.5006	1019.1477	11275.15	10397.75
853.6457	1021.1392	11206.35	10329.05
853.7908	1023.1299	11166.55	10288.5
853.9359	1025.12	11121.65	10242.95
854.081	1027.1093	11093.25	10220.25
854.2261	1029.0979	11053.6	10179.95
854.3712	1031.0859	11034.8	10157.9
854.5163	1033.0731	11004.05	10124.3
854.6613	1035.0596	10990.95	10111.9
854.8064	1037.0454	10906.5	10026.25
854.9515	1039.0304	10903.65	10024.25
855.0965	1041.0148	10856.25	9975
855.2416	1042.9985	10837.5	9953.9
855.3867	1044.9814	10809.4	9931.6
855.5317	1046.9636	10751.4	9869.35
855.6768	1048.9452	10725.65	9847.25
855.8219	1050.926	10700.4	9821.4
855.9669	1052.9061	10681	9800.35
856.112	1054.8855	10667.8	9788.25
856.257	1056.8642	10641.4	9760.65
856.4021	1058.8421	10655	9771.5
856.5471	1060.8194	10617.7	9736.6
856.6921	1062.7959	10578.25	9698.25
856.8372	1064.7717	10589.3	9706.95
856.9822	1066.7469	10523.65	9638.75
857.1272	1068.7213	10532.5	9647.55
857.2723	1070.695	10520.5	9640.9
857.4173	1072.6679	10471.6	9588.85
857.5623	1074.6402	10467.6	9586.5
857.7073	1076.6117	10481.5	9594.85
857.8523	1078.5826	10464.45	9582.25
857.9973	1080.5527	10400.85	9514.65
858.1423	1082.5221	10359.75	9480.35
858.2873	1084.4908	10330.15	9447.85
858.4323	1086.4587	10301.7	9416.9
858.5773	1088.426	10275	9392.9
858.7223	1090.3925	10244.65	9360.3
858.8673	1092.3584	10256.85	9375.8
859.0123	1094.3235	10153.9	9271.95
859.1573	1096.2879	10170.9	9290.7
859.3022	1098.2515	10143.4	9258.85
859.4472	1100.2145	10150.2	9269.1
859.5922	1102.1767	10154.4	9269.8
859.7371	1104.1382	10157.8	9274.3
859.8821	1106.099	10162.45	9277.9
860.027	1108.0591	10127.25	9245.7
860.172	1110.0185	10135.05	9250.7
860.3169	1111.9771	10128.7	9245.8
860.4619	1113.9351	10114.9	9231.75
860.6068	1115.8923	10126.5	9242.95
860.7517	1117.8488	10144.5	9259.75
860.8967	1119.8045	10072.45	9189.95
861.0416	1121.7596	10022.6	9140.25
861.1865	1123.7139	9946.6	9063.95
861.3314	1125.6675	9873.2	8989.2
861.4763	1127.6204	9871.95	8991.2
861.6212	1129.5726	9845.35	8958.6
861.7661	1131.524	9852.2	8970.9
861.911	1133.4748	9827.55	8943.4
862.0559	1135.4248	9769.3	8885.35
862.2008	1137.3741	9714.95	8830.95
862.3457	1139.3226	9665.3	8778.45
862.4905	1141.2705	9674.7	8791.7
862.6354	1143.2176	9636.6	8746.7
862.7803	1145.164	9621.4	8735.2
862.9251	1147.1097	9622.85	8738.6
863.07	1149.0546	9584.05	8699.6
863.2148	1150.9989	9585.45	8701.55
863.3597	1152.9424	9539.6	8656
863.5045	1154.8852	9522.85	8638.85
863.6493	1156.8272	9518.85	8634.05
863.7942	1158.7686	9517.7	8625.35
863.939	1160.7092	9445.05	8562.5
864.0838	1162.6491	9451	8565.6
864.2286	1164.5883	9460.3	8578.3
864.3734	1166.5267	9411.9	8528.3
864.5182	1168.4644	9436.5	8551.55
864.663	1170.4014	9429.25	8539.65
864.8078	1172.3377	9430.8	8547.55
864.9526	1174.2732	9428.85	8547.65
865.0974	1176.2081	9498	8613.25
865.2421	1178.1421	9517.4	8628.25
865.3869	1180.0755	9572.3	8688.3
865.5317	1182.0082	9529.4	8644.85
865.6764	1183.9401	9528.7	8645.3
865.8212	1185.8713	9485.3	8601.9
865.9659	1187.8017	9398.75	8517.7
866.1106	1189.7315	9357.55	8475.5
866.2554	1191.6605	9251.4	8371.45
866.4001	1193.5888	9202.9	8321.5
866.5448	1195.5163	9170.6	8290.15
866.6895	1197.4432	9156.3	8270.55
866.8342	1199.3693	9100.45	8217.05
866.9789	1201.2947	9051.5	8160.8
867.1236	1203.2193	9032.1	8147.35
867.2683	1205.1432	8994.4	8108.05
867.413	1207.0664	8980.65	8094.95
867.5576	1208.9889	8947.45	8059.7
867.7023	1210.9106	8919.35	8036.85
867.847	1212.8316	8868.25	7984.15
867.9916	1214.7519	8881.9	7988.85
868.1363	1216.6715	8846.45	7961.6
868.2809	1218.5903	8845.45	7960.75
868.4255	1220.5084	8826.45	7939.85
868.5701	1222.4257	8849.85	7964.95
868.7148	1224.3424	8811.85	7927.9
868.8594	1226.2583	8792.7	7903.25
869.004	1228.1735	8778.3	7893.8
869.1486	1230.0879	8772.95	7888.25
869.2932	1232.0016	8760.65	7877.85
869.4377	1233.9146	8743	7856.65
869.5823	1235.8269	8758.45	7875.2
869.7269	1237.7384	8778.55	7893.4
869.8715	1239.6492	8719.8	7835.5
870.016	1241.5592	8706.2	7819.2
870.1606	1243.4686	8699.65	7813.65
870.3051	1245.3772	8723.4	7838.95
870.4496	1247.285	8748.9	7860.95
870.5941	1249.1922	8776.5	7891.3
870.7387	1251.0986	8777.9	7894.15
870.8832	1253.0042	8801	7918.2
871.0277	1254.9092	8853.1	7967.45
871.1722	1256.8134	8883.25	8002.75
871.3167	1258.7169	8921.15	8033.15
871.4611	1260.6196	8883.85	8002
871.6056	1262.5216	8861.8	7974.1
871.7501	1264.4229	8830.1	7946.95
871.8945	1266.3234	8839.75	7952.15
872.039	1268.2232	8813.75	7926.85
872.1834	1270.1223	8755.05	7868.2
872.3278	1272.0207	8745.25	7858.5
872.4723	1273.9183	8722.3	7831.45
872.6167	1275.8151	8703.6	7818.8
872.7611	1277.7113	8712.95	7826.05
872.9055	1279.6067	8736.4	7851.85
873.0499	1281.5014	8764.7	7876.55
873.1943	1283.3953	8862	7975.75
873.3386	1285.2885	8944.75	8059.85
873.483	1287.181	8996.85	8109.55
873.6274	1289.0727	9016.1	8130.05
873.7717	1290.9637	8976.25	8090.35
873.9161	1292.854	8944.4	8057.55
874.0604	1294.7435	8874.15	7985.75
874.2047	1296.6323	8808.9	7923.35
874.349	1298.5204	8773.75	7883.8
874.4933	1300.4077	8727.4	7839.9
874.6376	1302.2943	8674.6	7791.7
874.7819	1304.1802	8648.4	7763
874.9262	1306.0653	8619	7732.45
875.0705	1307.9497	8598.85	7712.6
875.2147	1309.8333	8582.9	7698.8
875.359	1311.7162	8557.35	7669.95
875.5032	1313.5984	8521.1	7632.3
875.6475	1315.4798	8477.55	7579.65
875.7917	1317.3605	8465.35	7559.95
875.9359	1319.2405	8440.3	7553.9
876.0801	1321.1197	8443.8	7556.2
876.2243	1322.9982	8395.15	7504.65
876.3685	1324.876	8350.8	7465.95
876.5127	1326.753	8278.4	7392.2
876.6569	1328.6293	8244.55	7355.1
876.801	1330.5048	8192.15	7304.5
876.9452	1332.3796	8130.25	7242.05
877.0893	1334.2537	8112.6	7200.2
877.2335	1336.127	8063.8	7175.5
877.3776	1337.9996	8070.2	7182.5
877.5217	1339.8714	8014.35	7128.8
877.6658	1341.7426	8021.75	7092.05
877.8099	1343.6129	7986.3	7098.95
877.954	1345.4826	7963.1	7077.2
878.0981	1347.3515	7972.9	7083.4
878.2422	1349.2196	7933.05	7046.7
878.3862	1351.087	7928.85	7042.1
878.5303	1352.9537	7905.95	7018
878.6743	1354.8197	7913.3	7026.6
878.8184	1356.6849	7902.35	7014.55
878.9624	1358.5493	7878.05	6991.65
879.1064	1360.4131	7890.4	7001.5
879.2504	1362.276	7886.6	7001.2
879.3944	1364.1383	7906.3	7020
879.5384	1365.9998	7900.75	7007.8
879.6823	1367.8606	7866.35	6978.15
879.8263	1369.7206	7852.6	6966.7
879.9702	1371.5799	7834.5	6945.4
880.1142	1373.4384	7814.3	6927.05
880.2581	1375.2962	7765.95	6876.6
880.402	1377.1533	7738.1	6851.3
880.5459	1379.0096	7670	6784.6
880.6898	1380.8652	7645.5	6760.05
880.8337	1382.7201	7595.45	6705.55
880.9776	1384.5742	7542.65	6655.45
881.1215	1386.4275	7512.3	6624.35
881.2653	1388.2802	7496.35	6611.7
881.4092	1390.132	7473.8	6586.95
881.553	1391.9832	7452.2	6564.15
881.6968	1393.8336	7384.05	6497.9
881.8406	1395.6832	7397.1	6508.8
881.9844	1397.5322	7354	6468
882.1282	1399.3803	7338.85	6445.8
882.272	1401.2278	7312.4	6425.1
882.4158	1403.0745	7267.2	6378.6
882.5595	1404.9204	7247	6361.1
882.7033	1406.7656	7262.15	6374.65
882.847	1408.6101	7210.5	6321
882.9908	1410.4538	7187.6	6300.05
883.1345	1412.2968	7143.6	6257.25
883.2782	1414.139	7125.4	6237.95
883.4219	1415.9805	7155.35	6270.15
883.5656	1417.8213	7109.55	6216.35
883.7092	1419.6613	7107	6222.1
883.8529	1421.5006	7107.75	6218.2
883.9965	1423.3391	7096.6	6209.45
884.1402	1425.1769	7096.8	6208
884.2838	1427.0139	7129.4	6243.25
884.4274	1428.8502	7169.75	6282.35
884.571	1430.6858	7180.5	6292.1
884.7146	1432.5206	7147	6260.55
884.8582	1434.3547	7148.9	6260.15
885.0018	1436.188	7143.55	6255.95
885.1453	1438.0206	7133.7	6245.55
885.2889	1439.8524	7092.2	6205
885.4324	1441.6835	7107.95	6220.85
885.5759	1443.5139	7052.6	6162.2
885.7194	1445.3435	7032.05	6144.95
885.8629	1447.1724	7050.75	6164.8
886.0064	1449.0005	7058.85	6171.15
886.1499	1450.8279	7013.35	6126.55
886.2933	1452.6545	7010.95	6124.45
886.4368	1454.4804	7011.15	6127.15
886.5802	1456.3056	6985.5	6093.15
886.7237	1458.13	6955.65	6069.4
886.8671	1459.9536	6956.3	6070.05
887.0105	1461.7766	6906.25	6019.75
887.1539	1463.5987	6888.8	6000.05
887.2972	1465.4202	6851.8	5964.3
887.4406	1467.2409	6808.05	5919.25
887.584	1469.0608	6812.45	5923.7
887.7273	1470.88	6766.2	5876.05
887.8706	1472.6984	6759.4	5872.65
888.0139	1474.5161	6714.55	5825.6
888.1572	1476.3331	6678	5792.1
888.3005	1478.1493	6685.05	5798.8
888.4438	1479.9648	6661.8	5776.4
888.5871	1481.7795	6635.55	5747.5
888.7303	1483.5935	6640.6	5752.7
888.8736	1485.4067	6616.65	5728.3
889.0168	1487.2192	6630.4	5742.25
889.16	1489.031	6596.6	5707.7
889.3032	1490.842	6563.05	5678.15
889.4464	1492.6522	6579.25	5694.05
889.5896	1494.4618	6538.9	5652
889.7327	1496.2705	6538.1	5653.7
889.8759	1498.0785	6518.1	5630.45
890.019	1499.8858	6504.7	5619
890.1622	1501.6924	6479.8	5594.9
890.3053	1503.4981	6477.35	5591.6
890.4484	1505.3032	6459.75	5572.65
890.5914	1507.1075	6446.75	5558.6
890.7345	1508.911	6441.95	5554.8
890.8776	1510.7138	6410.2	5521.55
891.0206	1512.5159	6379.55	5491.05
891.1637	1514.3172	6362.05	5474.65
891.3067	1516.1178	6350.65	5464.65
891.4497	1517.9176	6334.75	5446.5
891.5927	1519.7166	6296.8	5409.7
891.7357	1521.515	6279.55	5386.6
891.8786	1523.3126	6274.15	5385.65
892.0216	1525.1094	6267.85	5379.35
892.1645	1526.9055	6218.9	5331.25
892.3074	1528.7008	6178.4	5290.9
892.4503	1530.4954	6172.5	5283.95
892.5932	1532.2893	6149.45	5265.75
892.7361	1534.0824	6105.9	5214.35
892.879	1535.8747	6115.5	5230.55
893.0218	1537.6663	6093.9	5207
893.1647	1539.4572	6071.65	5182.65
893.3075	1541.2473	6034.75	5146.3
893.4503	1543.0367	6019.35	5132.95
893.5931	1544.8253	6020.15	5129.15
893.7359	1546.6132	5993.75	5105.75
893.8787	1548.4003	5977.15	5083.95
894.0214	1550.1867	5990.75	5096
894.1642	1551.9723	5947.3	5056.9
894.3069	1553.7572	5947.8	5062.05
894.4496	1555.5414	5936.05	5049.8
894.5923	1557.3247	5920.15	5035.45
894.735	1559.1074	5917.5	5032.05
894.8777	1560.8893	5922.25	5038.7
895.0204	1562.6705	5921.9	5037
895.163	1564.4509	5925.9	5040.9
895.3056	1566.2305	5890.4	5008.95
895.4482	1568.0094	5896.85	5013.65
895.5908	1569.7876	5893	5007.4
895.7334	1571.565	5883.45	5000.1
895.876	1573.3417	5863.85	4978.75
896.0186	1575.1176	5859.55	4974.45
896.1611	1576.8928	5833.05	4950.25
896.3036	1578.6672	5821.4	4937.2
896.4461	1580.4409	5819.6	4938.35
896.5886	1582.2138	5788.65	4903.9
896.7311	1583.986	5800.9	4917.65
896.8736	1585.7575	5819.75	4937.65
897.0161	1587.5282	5823.3	4941.85
897.1585	1589.2981	5839.65	4956.55
897.3009	1591.0673	5809.75	4924.5
897.4433	1592.8358	5802.2	4921.15
897.5857	1594.6035	5785.15	4900
897.7281	1596.3704	5763.65	4881.2
897.8705	1598.1366	5728.9	4843.8
898.0128	1599.9021	5698.45	4815.55
898.1551	1601.6668	5644.85	4758.95
898.2975	1603.4308	5644.7	4759.65
898.4398	1605.194	5638.55	4749.7
898.5821	1606.9564	5626.35	4744.35
898.7243	1608.7182	5660.3	4775
898.8666	1610.4791	5669.25	4789.15
899.0088	1612.2394	5706.05	4825.75
899.1511	1613.9988	5738.25	4856.5
899.2933	1615.7576	5747.5	4866.55
899.4355	1617.5156	5778.7	4889.55
899.5776	1619.2728	5735.95	4851.8
899.7198	1621.0293	5679.05	4798.45
899.862	1622.785	5594.8	4708.2
900.0041	1624.54	5523.85	4639.45
900.1462	1626.2942	5442.3	4559.7
900.2883	1628.0477	5352.95	4466.15
900.4304	1629.8005	5287	4401.4
900.5725	1631.5525	5247	4364
900.7145	1633.3037	5189.65	4307.05
900.8566	1635.0542	5165.1	4282.1
900.9986	1636.804	5137.6	4253.95
901.1406	1638.553	5174.45	4201.95
901.2826	1640.3013	5100.6	4215.85
901.4245	1642.0488	5033.25	4151.35
901.5665	1643.7955	5016.75	4135.3
901.7085	1645.5416	4990.55	4107.35
901.8504	1647.2868	4971.95	4090.35
901.9923	1649.0313	4969.85	4087.1
902.1342	1650.7751	4963.3	4077.55
902.2761	1652.5181	4925.8	4042.65
902.4179	1654.2604	4915.7	4032.35
902.5598	1656.0019	4914.1	4031.85
902.7016	1657.7427	4901.25	4019.2
902.8434	1659.4828	4901.2	4019.15
902.9852	1661.222	4900.75	4017.1
903.127	1662.9606	4897.4	4014.8
903.2687	1664.6984	4904.65	4022.65
903.4105	1666.4354	4891.75	4007.95
903.5522	1668.1717	4857.25	3973
903.6939	1669.9072	4823.6	3940.25
903.8356	1671.642	4791.1	3905.45
903.9773	1673.3761	4772	3890.4
904.119	1675.1094	4734.05	3852.1
904.2606	1676.8419	4706.6	3824.2
904.4022	1678.5737	4672.75	3790.4
904.5439	1680.3048	4644.8	3758.95
904.6855	1682.0351	4610.1	3727.4
904.827	1683.7646	4590.4	3704.05
904.9686	1685.4934	4576.1	3691.85
905.1101	1687.2215	4566.45	3683
905.2517	1688.9488	4529	3646.35
905.3932	1690.6754	4513.05	3630.4
905.5347	1692.4012	4502	3619.2
905.6761	1694.1263	4497.95	3615.45
905.8176	1695.8506	4487.1	3603.75
905.9591	1697.5742	4456.85	3576.3
906.1005	1699.297	4433.1	3549.8
906.2419	1701.0191	4411.6	3528.3
906.3833	1702.7404	4406.3	3524.3
906.5246	1704.461	4388.3	3504.7
906.666	1706.1808	4361	3477
906.8073	1707.8999	4368.6	3485.85
906.9487	1709.6182	4345.5	3465.65
907.09	1711.3358	4340.3	3457.45
907.2313	1713.0527	4327.9	3449.05
907.3725	1714.7688	4307.1	3418.55
907.5138	1716.4841	4288.2	3404.3
907.655	1718.1987	4291.25	3403.15
907.7962	1719.9126	4264.7	3380.95
907.9374	1721.6257	4264	3381.75
908.0786	1723.338	4255.35	3373.75
908.2198	1725.0496	4237.45	3353.6
908.3609	1726.7605	4235.85	3351.7
908.502	1728.4706	4222.6	3339.7
908.6431	1730.18	4218	3334
908.7842	1731.8886	4212.65	3332.95
908.9253	1733.5964	4199.5	3313.8
909.0664	1735.3036	4189.25	3306.6
909.2074	1737.0099	4191.65	3308.8
909.3484	1738.7156	4197.15	3315.2
909.4894	1740.4204	4176.2	3290.75
909.6304	1742.1246	4161.75	3275.9
909.7714	1743.8279	4164.6	3283.65
909.9123	1745.5306	4157.2	3273.55
910.0532	1747.2325	4146.15	3266.8
910.1941	1748.9336	4136.6	3256.2
910.335	1750.634	4118.9	3234.15
910.4759	1752.3336	4142.35	3262.5
910.6168	1754.0325	4127	3246
910.7576	1755.7307	4116.05	3234.2
910.8984	1757.4281	4100.15	3218.2
911.0392	1759.1247	4124.15	3231.55
911.18	1760.8206	4103.25	3216.1
911.3208	1762.5158	4110	3224.9
911.4615	1764.2102	4088.15	3205.65
911.6022	1765.9039	4061.35	3180.85
911.7429	1767.5968	4079.8	3198.8
911.8836	1769.289	4067.15	3185.1
912.0243	1770.9804	4051.7	3168.9
912.1649	1772.6711	4049.9	3167.1
912.3056	1774.361	4045.3	3161.1
912.4462	1776.0502	4041.5	3157.15
912.5868	1777.7386	4021.65	3137.1
912.7274	1779.4263	4007.85	3127.2
912.8679	1781.1132	3993.85	3111.35
913.0084	1782.7994	4000.5	3118.1
913.149	1784.4849	4000.05	3120.85
913.2895	1786.1696	3998.7	3095.4
913.4299	1787.8535	3995.3	3115.15
913.5704	1789.5367	3968.65	3087.6
913.7108	1791.2192	3960.05	3080.95
913.8513	1792.9009	3973.7	3063.95
913.9917	1794.5818	3950.8	3066.95
914.132	1796.2621	3928.2	3046.4
914.2724	1797.9415	3926.15	3044.75
914.4128	1799.6202	3915.5	3033.25
914.5531	1801.2982	3906.55	3025.55
914.6934	1802.9755	3890	3006.2
914.8337	1804.6519	3888.95	3005.6
914.9739	1806.3277	3889.05	3006.15
915.1142	1808.0027	3869.7	2988.4
915.2544	1809.6769	3869.15	2988.1
915.3946	1811.3504	3847.4	2966.1
915.5348	1813.0231	3845.8	2964.05
915.675	1814.6951	3841.25	2960
915.8151	1816.3664	3836.7	2953.7
915.9553	1818.0369	3842.75	2960.6
916.0954	1819.7067	3819.25	2938.5
916.2355	1821.3757	3818.4	2934
916.3755	1823.044	3800	2918
916.5156	1824.7115	3812.4	2929.9
916.6556	1826.3783	3788.6	2907.55
916.7956	1828.0443	3768.45	2887.4
916.9356	1829.7096	3769.5	2887.55
917.0756	1831.3741	3786.4	2900
917.2155	1833.0379	3771.4	2892.1
917.3555	1834.701	3757.5	2873.95
917.4954	1836.3633	3745.75	2863.55
917.6353	1838.0248	3745.75	2862.8
917.7751	1839.6856	3731.65	2849.65
917.915	1841.3457	3739.3	2858.9
918.0548	1843.005	3722.65	2842.15
918.1946	1844.6636	3733.35	2853.55
918.3344	1846.3214	3722.05	2839.95
918.4742	1847.9785	3701.85	2820.5
918.6139	1849.6349	3689.05	2806.7
918.7537	1851.2904	3689.9	2798.7
918.8934	1852.9453	3681.8	2799.1
919.0331	1854.5994	3671.55	2788.6
919.1727	1856.2528	3674.95	2787.45
919.3124	1857.9054	3672.1	2789.75
919.452	1859.5572	3663.15	2780.85
919.5916	1861.2083	3646.85	2764.55
919.7312	1862.8587	3649.1	2767.9
919.8708	1864.5084	3638.55	2756.05
920.0103	1866.1572	3642	2760.65
920.1498	1867.8054	3617.45	2733.85
920.2893	1869.4528	3618.35	2733.7
920.4288	1871.0994	3609.3	2725.75
920.5683	1872.7453	3600.3	2717.15
920.7077	1874.3905	3601.6	2710.25
920.8471	1876.0349	3595.1	2712.6
920.9865	1877.6786	3602.15	2718.15
921.1259	1879.3215	3585.3	2704.5
921.2653	1880.9637	3581.05	2696.4
921.4046	1882.6051	3576.55	2694.6
921.5439	1884.2458	3558.65	2673.4
921.6832	1885.8858	3566.05	2681.9
921.8225	1887.525	3559.5	2674.6
921.9617	1889.1634	3524.8	2642.25
922.101	1890.8011	3532.55	2648.85
922.2402	1892.4381	3523.8	2642.4
922.3794	1894.0743	3528.2	2644.95
922.5185	1895.7098	3536.9	2655.3
922.6577	1897.3446	3518	2634.4
922.7968	1898.9786	3507.35	2620.4
922.9359	1900.6118	3494.45	2612.85
923.075	1902.2443	3483.75	2597.5
923.214	1903.8761	3476.5	2592.95
923.3531	1905.5071	3467.6	2583.25
923.4921	1907.1374	3456.75	2573.5
923.6311	1908.7669	3467.4	2584.8
923.77	1910.3957	3453.95	2573.5
923.909	1912.0237	3438.65	2556.65
924.0479	1913.651	3423.45	2539.85
924.1868	1915.2776	3432.4	2550.55
924.3257	1916.9034	3416.8	2537.05
924.4646	1918.5285	3406.65	2525.95
924.6034	1920.1528	3395.15	2511.4
924.7422	1921.7764	3391.35	2510.9
924.881	1923.3992	3390.75	2508
925.0198	1925.0213	3365.7	2483.5
925.1586	1926.6427	3367.15	2484.8
925.2973	1928.2633	3529.95	2430.6
925.436	1929.8832	3376.75	2491.1
925.5747	1931.5023	3338.9	2458.45
925.7134	1933.1207	3337.1	2454.05
925.852	1934.7383	3339.2	2457.2
925.9906	1936.3552	3320.35	2438.25
926.1292	1937.9714	3316	2432.5
926.2678	1939.5868	3304.5	2420.3
926.4064	1941.2015	3302.5	2419.9
926.5449	1942.8154	3289	2404.6
926.6834	1944.4286	3275.3	2391.75
926.8219	1946.041	3291.6	2387.85
926.9604	1947.6528	3271.8	2385.95
927.0988	1949.2637	3271.35	2389.3
927.2372	1950.8739	3251.65	2368.45
927.3756	1952.4834	3251.4	2370.4
927.514	1954.0921	3252.9	2371.15
927.6523	1955.7001	3226.85	2341.1
927.7907	1957.3074	3225.9	2344.5
927.929	1958.9139	3215.85	2334.55
928.0673	1960.5197	3209.5	2327.75
928.2055	1962.1247	3202.5	2319.8
928.3438	1963.729	3187.6	2306.35
928.482	1965.3325	3210.2	2305.1
928.6202	1966.9353	3184.1	2304.35
928.7584	1968.5374	3175.3	2293.2
928.8965	1970.1387	3175.25	2294.15
929.0346	1971.7393	3158.55	2276.75
929.1727	1973.3392	3162.55	2282.65
929.3108	1974.9383	3144.5	2263.9
929.4489	1976.5366	3147.5	2267.6
929.5869	1978.1342	3134.1	2251.75
929.7249	1979.7311	3133.25	2253.2
929.8629	1981.3273	3134.15	2253.85
930.0009	1982.9227	3121.6	2239.65
930.1388	1984.5173	3106.9	2227.05
930.2767	1986.1112	3104.35	2223.4
930.4146	1987.7044	3095.05	2217.3
930.5525	1989.2968	3091.3	2208.55
930.6904	1990.8885	3088.25	2205.7
930.8282	1992.4795	3091	2208.75
930.966	1994.0697	3093.4	2213.7
931.1038	1995.6592	3079.15	2197.25
931.2415	1997.2479	3068.55	2186.1
931.3793	1998.8359	3067.95	2186.4
931.517	2000.4232	3062.25	2183.25
931.6547	2002.0097	3054.1	2176
931.7923	2003.5955	3048.4	2167.35
931.93	2005.1805	3049.85	2167.95
932.0676	2006.7648	3032.2	2154.2
932.2052	2008.3484	3035.55	2154.6
932.3427	2009.9312	3025.65	2144.4
932.4803	2011.5133	3018.85	2139.9
932.6178	2013.0946	3023.8	2144.4
932.7553	2014.6752	3022.05	2143.5
932.8928	2016.2551	3015.95	2134.95
933.0302	2017.8342	3007.4	2128.95
933.1676	2019.4126	2996.95	2116.85
933.305	2020.9902	2989.65	2111
933.4424	2022.5672	3003.15	2122.35
933.5798	2024.1433	2995.35	2111.05
933.7171	2025.7188	2985.55	2109.85
933.8544	2027.2935	2981.55	2100.45
933.9917	2028.8674	2971.05	2092.7
934.129	2030.4406	2959.6	2081.4
934.2662	2032.0131	2953.75	2075.95
934.4034	2033.5849	2952.45	2070.05
934.5406	2035.1559	2953.4	2075.7
934.6778	2036.7261	2951.6	2072.9
934.8149	2038.2957	2952.9	2070.95
934.952	2039.8645	2941.25	2062.25
935.0891	2041.4325	2951.5	2068.55
935.2262	2042.9998	2934.4	2054.4
935.3632	2044.5664	2936.4	2054.6
935.5002	2046.1323	2918.65	2039.85
935.6372	2047.6974	2939.3	2060.45
935.7742	2049.2617	2920.55	2042.4
935.9111	2050.8254	2930.8	2049.35
936.048	2052.3883	2916.55	2035.4
936.1849	2053.9504	2912.2	2033.5
936.3218	2055.5118	2909.85	2028.25
936.4586	2057.0725	2906.1	2022.95
936.5955	2058.6325	2899.2	2019.3
936.7323	2060.1917	2886.2	2006.05
936.869	2061.7502	2893.1	2012.9
937.0058	2063.3079	2886.45	2008.55
937.1425	2064.8649	2882.25	2000.3
937.2792	2066.4212	2870.45	1989.4
937.4159	2067.9767	2884.35	2004.95
937.5525	2069.5315	2862.2	1982.55
937.6891	2071.0856	2857.25	1977.45
937.8257	2072.6389	2862.65	1982.6
937.9623	2074.1915	2843.35	1964.65
938.0989	2075.7433	2844.85	1964.2
938.2354	2077.2945	2845.05	1968.05
938.3719	2078.8448	2836.45	1957.55
938.5084	2080.3945	2843.15	1964.45
938.6448	2081.9434	2840.55	1959.45
938.7812	2083.4916	2832.1	1951.95
938.9176	2085.039	2816.9	1933.65
939.054	2086.5857	2817.65	1935.45
939.1903	2088.1317	2810.6	1929.4
939.3267	2089.677	2816.9	1937.75
939.463	2091.2215	2809	1929.8
939.5992	2092.7652	2814.8	1933.1
939.7355	2094.3083	2815.45	1933.45
939.8717	2095.8506	2808.6	1926.8
940.0079	2097.3921	2811.85	1931.35
940.1441	2098.933	2792.8	1910.75
940.2802	2100.4731	2787.2	1908.2
940.4163	2102.0124	2817.45	1918.45
940.5524	2103.5511	2797.9	1919.8
940.6885	2105.089	2801.6	1921.3
940.8245	2106.6261	2796.5	1916.8
940.9606	2108.1626	2791.8	1911.2
941.0965	2109.6983	2811.1	1903.7
941.2325	2111.2332	2778.95	1898.05
941.3684	2112.7675	2769.65	1889.5
941.5044	2114.301	2776.45	1893.85
941.6403	2115.8337	2769.15	1890.35
941.7761	2117.3657	2768.5	1887.45
941.912	2118.897	2762.65	1881.85
942.0478	2120.4276	2757.5	1871.45
942.1835	2121.9575	2749.55	1869
942.3193	2123.4866	2755.7	1862.35
942.455	2125.0149	2758.95	1875.1
942.5907	2126.5426	2736.35	1856.85
942.7264	2128.0695	2737.4	1852.5
942.8621	2129.5956	2733.25	1854.9
942.9977	2131.1211	2726.9	1842.8
943.1333	2132.6458	2730.25	1851.45
943.2689	2134.1698	2725	1845.9
943.4044	2135.693	2731.15	1849.95
943.54	2137.2155	2720.85	1839.45
943.6755	2138.7373	2713.55	1832.6
943.8109	2140.2584	2703	1821.8
943.9464	2141.7787	2704.35	1820.5
944.0818	2143.2983	2698.15	1821.55
944.2172	2144.8171	2689.7	1812.8
944.3526	2146.3353	2696.1	1813.85
944.4879	2147.8527	2675.5	1796.45
944.6232	2149.3693	2676.8	1796.95
944.7585	2150.8853	2676.8	1797.3
944.8938	2152.4005	2665.65	1785.7
945.029	2153.9149	2667.2	1787.35
945.1642	2155.4287	2659.45	1780.2
945.2994	2156.9417	2660.4	1776.4
945.4346	2158.454	2653.75	1771.85
945.5697	2159.9655	2647.7	1768.15
945.7048	2161.4764	2650.8	1769.25
945.8399	2162.9865	2652.95	1771.1
945.9749	2164.4958	2637.1	1756.2
946.1099	2166.0045	2632.15	1751.5
946.2449	2167.5124	2637.65	1759.4
946.3799	2169.0195	2621.35	1741.15
946.5148	2170.526	2640.3	1761.2
946.6498	2172.0317	2626.55	1745.85
946.7846	2173.5367	2608.85	1727.15
946.9195	2175.0409	2613.4	1733.65
947.0543	2176.5445	2613.25	1734.2
947.1891	2178.0473	2597.55	1717.95
947.3239	2179.5494	2608.1	1722.8
947.4587	2181.0507	2602.75	1723.1
947.5934	2182.5513	2590.35	1711.05
947.7281	2184.0512	2587.25	1705.85
947.8628	2185.5504	2586.5	1706.05
947.9974	2187.0488	2583.7	1703.05
948.132	2188.5465	2564.8	1685.35
948.2666	2190.0435	2570.4	1688.9
948.4012	2191.5397	2572.6	1692.4
948.5357	2193.0353	2553	1673.2
948.6702	2194.5301	2555.35	1675.1
948.8047	2196.0241	2544.75	1663.7
948.9392	2197.5175	2536.35	1656.15
949.0736	2199.0101	2539.7	1653.75
949.208	2200.502	2527.95	1648.05
949.3424	2201.9931	2523.35	1643.55
949.4767	2203.4835	2520.15	1638.55
949.611	2204.9733	2512.05	1627.45
949.7453	2206.4622	2507.05	1627.25
949.8796	2207.9505	2502.3	1620.9
950.0138	2209.438	2499.2	1622.05
950.148	2210.9248	2510.55	1628.75
950.2822	2212.4109	2493.8	1617.25
950.4164	2213.8962	2491.5	1607.5
950.5505	2215.3809	2474.55	1592.9
950.6846	2216.8648	2474.15	1592.7
950.8186	2218.3479	2479.85	1594.6
950.9527	2219.8304	2467.25	1585.65
951.0867	2221.3121	2454.7	1571.3
951.2207	2222.7931	2468.5	1588.45
951.3546	2224.2733	2458.3	1577.1
951.4886	2225.7529	2444.15	1563.15
951.6225	2227.2317	2442.15	1560.35
951.7563	2228.7098	2440.6	1562.85
951.8902	2230.1872	2430.65	1552.45
952.024	2231.6638	2418.95	1539.95
952.1578	2233.1397	2439.3	1553.4
952.2916	2234.6149	2419.05	1541.05
952.4253	2236.0894	2418.05	1537.6
952.559	2237.5632	2416	1525.75
952.6927	2239.0362	2410.9	1531.75
952.8263	2240.5085	2390.1	1509.15
952.9599	2241.9801	2396.1	1517.45
953.0935	2243.4509	2386	1505.1
953.2271	2244.921	2388.7	1510.6
953.3606	2246.3904	2381	1498.4
953.4941	2247.8591	2371.95	1493.2
953.6276	2249.3271	2365.1	1484.3
953.7611	2250.7943	2357	1475.1
953.8945	2252.2608	2353.65	1474.75
954.0279	2253.7266	2361.15	1482.55
954.1612	2255.1917	2355.6	1473.85
954.2946	2256.656	2348.15	1467.55
954.4279	2258.1197	2350.5	1471.1
954.5612	2259.5826	2349.4	1468.2
954.6944	2261.0447	2331.1	1451.5
954.8276	2262.5062	2332.85	1450.35
954.9608	2263.9669	2325.95	1444.65
955.094	2265.4269	2327.6	1450.7
955.2271	2266.8862	2321.95	1441.05
955.3602	2268.3448	2312	1432
955.4933	2269.8026	2309.45	1427.6
955.6264	2271.2598	2304.7	1424.9
955.7594	2272.7162	2303.2	1425.6
955.8924	2274.1719	2314.05	1432.85
956.0253	2275.6268	2297.25	1417.65
956.1583	2277.0811	2302.65	1420.85
956.2912	2278.5346	2301.7	1420.45
956.4241	2279.9874	2287.85	1408.1
956.5569	2281.4395	2293.3	1413.35
956.6897	2282.8908	2277.75	1393.05
956.8225	2284.3414	2281.15	1398.65
956.9553	2285.7914	2269	1389.85
957.088	2287.2406	2266.85	1382.85
957.2207	2288.689	2268.6	1386.45
957.3534	2290.1368	2262.65	1381.8
957.486	2291.5838	2261.4	1378.15
957.6186	2293.0302	2260.35	1377.9
957.7512	2294.4758	2242.7	1363
957.8838	2295.9206	2246.5	1363.3
958.0163	2297.3648	2231.95	1352.65
958.1488	2298.8082	2247.95	1366.45
958.2813	2300.251	2238.7	1357.85
958.4137	2301.693	2231.75	1347
958.5461	2303.1343	2230.25	1349.3
958.6785	2304.5748	2218.8	1337.95
958.8108	2306.0147	2219.9	1339.1
958.9432	2307.4538	2214.8	1332
959.0754	2308.8922	2210.9	1329.65
959.2077	2310.3299	2205.95	1325.95
959.3399	2311.7669	2190.3	1311
959.4721	2313.2031	2201.45	1321.65
959.6043	2314.6387	2175.95	1294.7
959.7365	2316.0735	2185.2	1305
959.8686	2317.5076	2192.65	1311
960.0006	2318.941	2176.05	1295.15
960.1327	2320.3737	2170.95	1289.05
960.2647	2321.8056	2175.05	1292.4
960.3967	2323.2369	2166.45	1284.35
960.5287	2324.6674	2165.05	1283.05
960.6606	2326.0972	2163.55	1282.35
960.7925	2327.5263	2162.55	1281.8
960.9244	2328.9547	2156.8	1276.55
961.0562	2330.3823	2154.4	1273.35
961.1881	2331.8092	2159.05	1274.15
961.3198	2333.2355	2142.75	1263.75
961.4516	2334.661	2134	1252.35
961.5833	2336.0858	2137.55	1253.85
961.715	2337.5098	2123.25	1242.35
961.8467	2338.9332	2123.35	1243.1
961.9783	2340.3558	2119.85	1237.2
962.1099	2341.7778	2115.35	1233.65
962.2415	2343.199	2118.65	1235.65
962.373	2344.6195	2113.85	1234
962.5045	2346.0393	2096.15	1215.5
962.636	2347.4583	2103.7	1220.95
962.7675	2348.8767	2096.55	1214.45
962.8989	2350.2943	2095.25	1214.5
963.0303	2351.7113	2091.5	1208.95
963.1617	2353.1275	2090.85	1209.4
963.293	2354.543	2086.55	1197.2
963.4243	2355.9578	2088.55	1208.35
963.5556	2357.3718	2063.5	1180.05
963.6868	2358.7852	2070.85	1188.5
963.818	2360.1978	2069.2	1187.3
963.9492	2361.6098	2063.9	1182.8
964.0803	2363.021	2060.6	1177.5
964.2114	2364.4315	2046.5	1165.65
964.3425	2365.8413	2050.9	1170.45
964.4736	2367.2504	2036.7	1156.55
964.6046	2368.6587	2039.5	1158.4
964.7356	2370.0664	2031.2	1151.2
964.8666	2371.4733	2022.05	1140.35
964.9975	2372.8795	2026.15	1145.7
965.1284	2374.285	2014.8	1132.75
965.2593	2375.6899	2010.3	1130.6
965.3901	2377.0939	2009.05	1127.8
965.5209	2378.4973	2000.9	1122.4
965.6517	2379.9	1993.05	1110.35
965.7825	2381.3019	1986.55	1107.25
965.9132	2382.7032	1984.15	1102.75
966.0439	2384.1037	1986.2	1108
966.1745	2385.5035	1980.75	1100.45
966.3051	2386.9027	1979.7	1101.75
966.4357	2388.3011	1979.5	1095.85
966.5663	2389.6987	1965.7	1086.7
966.6968	2391.0957	1957.15	1076.05
966.8273	2392.492	1945	1063.65
966.9578	2393.8876	1946.55	1066.35
967.0882	2395.2824	1949.5	1069.4
967.2186	2396.6765	1936.75	1056.25
967.349	2398.07	1932.5	1054.15
967.4793	2399.4627	1938.95	1055.75
967.6097	2400.8547	1921.75	1038
967.7399	2402.246	1930.5	1042.7
967.8702	2403.6366	1922.35	1039.75
968.0004	2405.0265	1903.8	1023.7
968.1306	2406.4156	1909.45	1023.05
968.2607	2407.8041	1909.55	1022.65
968.3909	2409.1918	1912.35	1029.05
968.521	2410.5789	1892.2	1009.25
968.651	2411.9652	1898.2	1013.95
968.781	2413.3508	1894	1011.95
968.911	2414.7358	1894.3	1011.45
969.041	2416.12	1873.85	993.05
969.1709	2417.5035	1875.75	994.25
969.3008	2418.8863	1869.2	986.7
969.4307	2420.2684	1866.45	985.35
969.5606	2421.6497	1861.8	978.7
969.6904	2423.0304	1856.95	975.85
969.8201	2424.4104	1858.1	975.75
969.9499	2425.7896	1853.05	970.25
970.0796	2427.1682	1849	967.35
970.2093	2428.546	1850.35	966.8
970.3389	2429.9232	1845.4	964.3
970.4685	2431.2996	1831.35	949.3
970.5981	2432.6753	1834.3	951.85
970.7277	2434.0503	1834.95	954.25
970.8572	2435.4246	1837.15	957.2
970.9867	2436.7982	1827.55	945.15
971.1161	2438.1711	1827.95	947.2
971.2456	2439.5433	1841.15	957.95
971.375	2440.9148	1821.3	933.65
971.5043	2442.2856	1811.9	932.1
971.6336	2443.6557	1814.25	932.85
971.7629	2445.025	1804.1	921.9
971.8922	2446.3937	1806.35	922.95
972.0214	2447.7617	1810	929.5
972.1506	2449.1289	1799.25	916.55
972.2798	2450.4955	1805.6	921.75
972.4089	2451.8613	1791.5	911.5
972.538	2453.2265	1796.05	913.35
972.6671	2454.5909	1785.85	903.9
972.7961	2455.9546	1789.75	909.2
972.9251	2457.3177	1784.65	902.15
973.0541	2458.68	1783.65	900.45
973.1831	2460.0416	1787.4	904.65
973.312	2461.4025	1771.9	889.35
973.4408	2462.7627	1785.7	891.4
973.5697	2464.1222	1772.3	891.8
973.6985	2465.4811	1767.4	884.7
973.8273	2466.8392	1765.7	885.8
973.956	2468.1966	1770.75	887.9
974.0847	2469.5533	1765.9	884.85
974.2134	2470.9093	1760.85	881.15
974.3421	2472.2645	1760.6	877.5
974.4707	2473.6191	1754.65	873.95
974.5993	2474.973	1754	872
974.7278	2476.3262	1743.2	860.05
974.8563	2477.6787	1745.7	865.95
974.9848	2479.0305	1740.85	860.75
975.1132	2480.3816	1737.35	855.35
975.2417	2481.7319	1733.55	854.5
975.37	2483.0816	1733.4	852.25
975.4984	2484.4306	1726.25	843.6
975.6267	2485.7789	1715.55	835.3
975.755	2487.1264	1721.5	838.85
975.8833	2488.4733	1712.45	833.25
976.0115	2489.8195	1710.45	819.75
976.1397	2491.165	1720.15	834.9
976.2678	2492.5097	1704.8	821.9
976.3959	2493.8538	1707.05	825.85
976.524	2495.1972	1698.1	817.45
976.6521	2496.5398	1696.45	814.15
976.7801	2497.8818	1701	818.65
976.9081	2499.2231	1678.85	796.7
977.036	2500.5637	1688.9	807.2
977.164	2501.9035	1684	800.95
977.2918	2503.2427	1684.55	799.45
977.4197	2504.5812	1674.55	791.45
977.5475	2505.919	1680.45	796.85
977.6753	2507.256	1671.35	789.95
977.8031	2508.5924	1674.55	792.25
977.9308	2509.9281	1674.95	788.3
978.0585	2511.2631	1664.35	782.85
978.1861	2512.5974	1663.5	780.05
978.3137	2513.9309	1655.5	773.7
978.4413	2515.2638	1680.4	769.4
978.5689	2516.596	1661	779.85
978.6964	2517.9275	1652.35	768.85
978.8239	2519.2583	1649.6	767
978.9513	2520.5884	1642.15	759.5
979.0788	2521.9178	1637.7	757.95
979.2062	2523.2465	1639.5	758.75
979.3335	2524.5745	1629.75	750.3
979.4608	2525.9018	1627.4	744.45
979.5881	2527.2284	1631.6	749.45
979.7154	2528.5543	1620.95	741.5
979.8426	2529.8796	1627.3	745.45
979.9698	2531.2041	1624.15	743.95
980.0969	2532.5279	1622.2	741.95
980.224	2533.851	1609.95	729.4
980.3511	2535.1735	1611.05	731.15
980.4781	2536.4952	1613	731.45
980.6052	2537.8163	1614.6	733.15
980.7321	2539.1366	1605.9	722.9
980.8591	2540.4562	1603.6	719.1
980.986	2541.7752	1605.15	723.55
981.1129	2543.0935	1595.4	712.85
981.2397	2544.411	1603	719.95
981.3665	2545.7279	1596.6	715.75
981.4933	2547.0441	1594.95	713.9
981.62	2548.3596	1596.15	712.95
981.7467	2549.6744	1596	714.2
981.8734	2550.9885	1604.65	714.8
982.0001	2552.3019	1578.9	699.15
982.1267	2553.6146	1591.4	709.6
982.2532	2554.9266	1581.15	698.65
982.3798	2556.2379	1583.25	701.35
982.5063	2557.5485	1574.5	693.55
982.6327	2558.8585	1579.9	691.65
982.7592	2560.1677	1578.75	693.15
982.8856	2561.4762	1574.1	693.25
983.0119	2562.7841	1579.4	693.9
983.1383	2564.0913	1574.05	692.3
983.2646	2565.3977	1569.15	687.75
983.3908	2566.7035	1569.35	687
983.517	2568.0086	1575.1	691.7
983.6432	2569.313	1566.8	685.1
983.7694	2570.6167	1569.55	684.15
983.8955	2571.9197	1557.9	678.05
984.0216	2573.222	1561.15	675.1
984.1476	2574.5236	1545.15	664.45
984.2737	2575.8246	1553.45	668.85
984.3996	2577.1248	1552.8	670.45
984.5256	2578.4244	1550.35	668.6
984.6515	2579.7232	1547.7	665.6
984.7774	2581.0214	1574.4	670.55
984.9032	2582.3189	1550.05	669.6
985.029	2583.6157	1544.6	659.55
985.1548	2584.9118	1545.35	663.25
985.2806	2586.2072	1535.3	655.7
985.4063	2587.5019	1533.15	651.25
985.5319	2588.7959	1531	651.05
985.6576	2590.0893	1530.5	647.55
985.7832	2591.3819	1526.8	647.25
985.9087	2592.6739	1524	642.25
986.0343	2593.9652	1527.6	644.7
986.1597	2595.2557	1524.5	643.9
986.2852	2596.5456	1522.65	638.6
986.4106	2597.8348	1503.9	622.65
986.536	2599.1234	1510.9	630.95
986.6614	2600.4112	1511.1	629.85
986.7867	2601.6983	1508.65	623.85
986.912	2602.9848	1508.35	627.2
987.0372	2604.2705	1512.4	625.75
987.1624	2605.5556	1498	616.6
987.2876	2606.84	1493.85	614.05
987.4128	2608.1237	1498.55	619
987.5379	2609.4067	1491.35	609.95
987.6629	2610.689	1500.35	611.65
987.788	2611.9707	1490.55	604.5
987.913	2613.2516	1485.5	600.3
988.0379	2614.5319	1475.4	595.3
988.1629	2615.8115	1472.7	592.35
988.2878	2617.0903	1474.7	591.85
988.4126	2618.3685	1470.6	590.7
988.5375	2619.6461	1474.15	592.55
988.6622	2620.9229	1465.7	583.5
988.787	2622.199	1467.15	584.95
988.9117	2623.4745	1466.95	584.85
989.0364	2624.7493	1459.1	578.6
989.161	2626.0234	1461.35	580.85
989.2857	2627.2968	1459.45	576.9
989.4102	2628.5695	1449.05	567.2
989.5348	2629.8415	1451.4	568.95
989.6593	2631.1128	1445.5	564.05
989.7837	2632.3835	1439.7	559
989.9082	2633.6535	1439.75	558.9
990.0326	2634.9228	1440.95	561.35
990.1569	2636.1914	1437.5	554.35
990.2812	2637.4593	1439.35	553.75
990.4055	2638.7265	1435.95	554.9
990.5298	2639.9931	1432.75	551.75
990.654	2641.259	1431.8	550.6
990.7782	2642.5242	1431.4	549.05
990.9023	2643.7887	1426.45	545.55
991.0264	2645.0525	1424.4	544.05
991.1505	2646.3156	1415	532.7
991.2745	2647.5781	1411.3	530.05
991.3985	2648.8398	1414.95	536.05
991.5225	2650.1009	1420.85	530.7
991.6464	2651.3613	1413.05	532.7
991.7703	2652.6211	1407	525.1
991.8942	2653.8801	1407.75	527.25
992.018	2655.1385	1417.15	534.4
992.1418	2656.3961	1408.4	527.4
992.2655	2657.6531	1403.3	523.05
992.3892	2658.9094	1404.1	519.75
992.5129	2660.1651	1407.2	528.2
992.6366	2661.42	1401.5	521.65
992.7602	2662.6743	1396.55	516.5
992.8837	2663.9279	1393.05	511.35
993.0073	2665.1808	1393.3	512.45
993.1307	2666.433	1391.65	510.25
993.2542	2667.6846	1390.05	509.5
993.3776	2668.9354	1390.05	505.75
993.501	2670.1856	1387.2	505.35
993.6244	2671.4351	1384.45	503.45
993.7477	2672.6839	1389.8	507.35
993.8709	2673.9321	1379.1	498.3
993.9942	2675.1795	1377.15	497.05
994.1174	2676.4263	1375.45	495.85
994.2405	2677.6724	1377.1	498.55
994.3637	2678.9179	1369.5	488.35
994.4868	2680.1626	1373.8	494.9
994.6098	2681.4067	1367.9	485.05
994.7328	2682.6501	1374.65	494.1
994.8558	2683.8928	1364.4	482.85
994.9788	2685.1348	1359.15	476.05
995.1017	2686.3761	1361.2	480.15
995.2245	2687.6168	1357.1	477.4
995.3474	2688.8568	1359.6	478.6
995.4702	2690.0961	1348.65	467.8
995.5929	2691.3348	1355.7	474.8
995.7156	2692.5727	1348.4	467.95
995.8383	2693.81	1348.8	468.05
995.961	2695.0466	1344.75	466.25
996.0836	2696.2826	1348.85	465.25
996.2062	2697.5178	1346.6	462
996.3287	2698.7524	1341.6	461.5
996.4512	2699.9863	1345.55	464.2
996.5737	2701.2195	1339.85	461.35
996.6961	2702.452	1345.65	462.7
996.8185	2703.6839	1340.35	458.8
996.9408	2704.9151	1331.75	451.5
997.0631	2706.1456	1328.8	447.95
997.1854	2707.3755	1324.6	443.95
997.3077	2708.6046	1335.9	452.6
997.4299	2709.8331	1325.25	445.6
997.552	2711.0609	1324.3	443
997.6742	2712.2881	1322.85	442.85
997.7963	2713.5145	1321.2	437.65
997.9183	2714.7403	1317.55	438.45
998.0403	2715.9654	1318.2	438.25
998.1623	2717.1899	1326.75	432.25
998.2842	2718.4136	1310.9	430.75
998.4062	2719.6367	1310.15	429.65
998.528	2720.8591	1314.65	428.9
998.6498	2722.0809	1307.7	427.4
998.7716	2723.3019	1311.8	428.45
998.8934	2724.5223	1314.6	430.75
999.0151	2725.7421	1298.85	414.7
999.1368	2726.9611	1310.15	428.45
999.2584	2728.1795	1308.35	423.7
999.38	2729.3972	1300.35	419.45
999.5016	2730.6142	1302	407.4
999.6231	2731.8306	1291.35	408.8
999.7446	2733.0462	1289.5	407.3
999.8661	2734.2612	1296.3	411.7
999.9875	2735.4756	1284.05	402.4
1000.1089	2736.6892	1288.8	406.55
1000.2302	2737.9022	1283.8	403.8
1000.3515	2739.1145	1283.65	402.7
1000.4728	2740.3262	1285.5	397.1
1000.594	2741.5372	1277.45	397.5
1000.7152	2742.7475	1277.8	397.75
1000.8363	2743.9571	1278.7	395.5
1000.9575	2745.1661	1270.35	385.35
1001.0785	2746.3744	1269.4	387.35
1001.1996	2747.582	1270.15	389.65
1001.3206	2748.7889	1266.35	384.3
1001.4415	2749.9952	1264.65	384.8
1001.5625	2751.2008	1268.1	386.15
1001.6833	2752.4057	1263.2	378.35
1001.8042	2753.61	1260.05	379.7
1001.925	2754.8136	1264.45	380.4
1002.0458	2756.0165	1256.45	376
1002.1665	2757.2188	1259.7	380.85
1002.2872	2758.4204	1247.75	367.4
1002.4078	2759.6213	1251.75	369
1002.5285	2760.8215	1257.5	372.9
1002.649	2762.0211	1248.05	365.2
1002.7696	2763.22	1252.45	368.75
1002.8901	2764.4182	1246	363.25
1003.0106	2765.6158	1246.25	365.3
1003.131	2766.8127	1245.1	364
1003.2514	2768.009	1234.2	354.7
1003.3717	2769.2045	1244.05	361.15
1003.492	2770.3994	1242.05	359.85
1003.6123	2771.5936	1234.35	352.65
1003.7325	2772.7872	1229.75	351.4
1003.8527	2773.9801	1235.75	353.1
1003.9729	2775.1723	1249	351.2
1004.093	2776.3639	1231.85	354.4
1004.2131	2777.5548	1227.1	345.9
1004.3331	2778.745	1225.65	344.45
1004.4531	2779.9346	1224.55	344.25
1004.5731	2781.1235	1220.85	339.5
1004.693	2782.3117	1220.65	340.9
1004.8129	2783.4992	1220.15	341.1
1004.9328	2784.6861	1217.4	336.95
1005.0526	2785.8723	1221.3	339.55
1005.1723	2787.0579	1211.65	332.35
1005.2921	2788.2428	1219.65	339.95
1005.4118	2789.427	1212.9	331.55
1005.5314	2790.6106	1210.8	332.45
1005.651	2791.7935	1212.6	331.75
1005.7706	2792.9757	1212.6	333.15
1005.8902	2794.1573	1213.9	329.9
1006.0097	2795.3382	1210.6	329.9
1006.1291	2796.5184	1203	324.9
1006.2485	2797.698	1199.35	318.25
1006.3679	2798.8769	1198.55	318.2
1006.4873	2800.0551	1203.85	321.95
1006.6066	2801.2327	1204.9	322.8
1006.7258	2802.4096	1197.15	316
1006.8451	2803.5859	1203.5	323.45
1006.9642	2804.7615	1194.7	312.5
1007.0834	2805.9364	1194.35	315.9
1007.2025	2807.1106	1195.3	316.15
1007.3216	2808.2842	1191.5	310.8
1007.4406	2809.4572	1197.55	317
1007.5596	2810.6294	1196.35	314.1
1007.6785	2811.801	1194.6	316.05
1007.7975	2812.972	1193.6	314.05
1007.9163	2814.1423	1189.65	307.9
1008.0352	2815.3119	1187.95	306.75
1008.154	2816.4808	1192.5	312.8
1008.2727	2817.6491	1197.55	316.95
1008.3914	2818.8167	1195.7	318
1008.5101	2819.9837	1199.2	314.4
1008.6288	2821.15	1198	318
1008.7474	2822.3157	1194.8	314.3
1008.8659	2823.4807	1201.7	319.25
1008.9844	2824.645	1201.45	319.25
1009.1029	2825.8086	1206.2	327.75
1009.2214	2826.9716	1212.3	332.7
1009.3398	2828.134	1214.85	334.25
1009.4581	2829.2957	1219.9	339.7
1009.5764	2830.4567	1214.55	337.1
1009.6947	2831.617	1224	343.3
1009.813	2832.7767	1225.05	347
1009.9312	2833.9358	1221.2	340.4
1010.0493	2835.0941	1225.5	343.45
1010.1675	2836.2519	1218.85	338.7
1010.2855	2837.4089	1213.5	333.25
1010.4036	2838.5653	1213.7	334.35
1010.5216	2839.7211	1205.55	326.2
1010.6396	2840.8761	1208.2	325.7
1010.7575	2842.0306	1204.05	322.8
1010.8754	2843.1843	1206.9	325.85
1010.9932	2844.3374	1210.2	331.9
1011.111	2845.4899	1205.75	324.8
1011.2288	2846.6417	1202.25	320.65
1011.3465	2847.7928	1205	325.7
1011.4642	2848.9433	1210.25	328.4
1011.5818	2850.0931	1207.15	326.3
1011.6995	2851.2422	1202.6	322.9
1011.817	2852.3907	1203.65	322.35
1011.9345	2853.5385	1205.7	324.85
1012.052	2854.6857	1217.65	328.25
1012.1695	2855.8323	1202.35	326.3
1012.2869	2856.9781	1208.3	328.05
1012.4042	2858.1233	1200.95	320.85
1012.5216	2859.2679	1204	324.3
1012.6389	2860.4118	1206.35	323.9
1012.7561	2861.555	1211.1	326.2
1012.8733	2862.6976	1212.25	331.05
1012.9905	2863.8395	1212.75	332.45
1013.1076	2864.9808	1215.65	338.6
1013.2247	2866.1214	1210.2	329.55
1013.3417	2867.2614	1203.6	323.6
1013.4587	2868.4007	1215.55	334
1013.5757	2869.5393	1216.6	334.75
1013.6926	2870.6773	1213.15	329.6
1013.8095	2871.8146	1213.9	330.6
1013.9263	2872.9513	1209.9	327.8
1014.0431	2874.0874	1211.4	331.3
1014.1599	2875.2227	1212.2	330.05
1014.2766	2876.3574	1210.7	332.1
1014.3933	2877.4915	1210.65	329.35
1014.51	2878.6249	1214.15	335.95
1014.6266	2879.7577	1213.2	331.8
1014.7431	2880.8898	1214.25	323.9
1014.8596	2882.0212	1208.7	329.85
1014.9761	2883.152	1209.25	329.25
1015.0925	2884.2821	1206.95	328.5
1015.2089	2885.4116	1202.1	322.95
1015.3253	2886.5405	1208.8	327.55
1015.4416	2887.6686	1216.25	331.45
1015.5579	2888.7962	1205.75	327.2
1015.6741	2889.923	1206.6	327.85
1015.7903	2891.0493	1204.85	325.3
1015.9065	2892.1748	1200.7	323.3
1016.0226	2893.2997	1207.05	327.2
1016.1387	2894.424	1195.55	318.7
1016.2547	2895.5476	1200.55	319.45
1016.3707	2896.6706	1203.45	325.4
1016.4866	2897.7929	1202.3	321.65
1016.6025	2898.9145	1202	321.75
1016.7184	2900.0355	1201.15	318.05
1016.8342	2901.1559	1199.25	319.4
1016.95	2902.2756	1195.55	315.1
1017.0658	2903.3946	1191.9	313.25
1017.1815	2904.513	1193.75	310.9
1017.2971	2905.6308	1196.75	316.7
1017.4127	2906.7479	1196.95	317.95
1017.5283	2907.8643	1190.3	310.15
1017.6439	2908.9801	1190.7	311.85
1017.7594	2910.0953	1185.4	304.9
1017.8748	2911.2098	1197.7	314.05
1017.9902	2912.3236	1195.4	307.35
1018.1056	2913.4368	1188.5	307.3
1018.2209	2914.5494	1185.7	305.55
1018.3362	2915.6613	1187.8	299.8
1018.4515	2916.7725	1182.6	300.4
1018.5667	2917.8831	1182.45	302.05
1018.6819	2918.9931	1172.75	290.35
1018.797	2920.1024	1171.95	289.4
1018.9121	2921.211	1171.75	291.85
1019.0271	2922.319	1171.6	288.25
1019.1421	2923.4264	1166.15	287.3
1019.2571	2924.5331	1159	280.05
1019.372	2925.6391	1163.3	283.9
1019.4869	2926.7445	1163	284.15
1019.6017	2927.8493	1161.05	282.15
1019.7165	2928.9534	1162.75	283.05
1019.8313	2930.0569	1168.7	285.75
1019.946	2931.1597	1166.7	287.2
1020.0606	2932.2619	1166.65	287.9
1020.1753	2933.3634	1162.45	283.35
1020.2899	2934.4643	1169.45	282.95
1020.4044	2935.5645	1173.2	287
1020.5189	2936.6641	1166.4	282.05
1020.6334	2937.763	1166.45	287.3
1020.7478	2938.8613	1165.6	285.5
1020.8622	2939.959	1163.65	279.2
1020.9765	2941.056	1154.55	275.05
1021.0908	2942.1523	1152.65	272.6
1021.2051	2943.248	1149.1	270.35
1021.3193	2944.3431	1139.3	259.15
1021.4334	2945.4375	1139.1	259
1021.5476	2946.5313	1124.7	246.85
1021.6617	2947.6244	1126.1	246.85
1021.7757	2948.7169	1121.15	242.4
1021.8897	2949.8087	1113.7	232.45
1022.0037	2950.8999	1109.9	230.05
1022.1176	2951.9904	1111.35	233.35
1022.2315	2953.0803	1105.9	226.4
1022.3453	2954.1696	1101.8	223.15
1022.4591	2955.2582	1096.5	218.65
1022.5728	2956.3462	1094.8	214.85
1022.6865	2957.4335	1094.25	214.15
1022.8002	2958.5202	1095.55	213.55
1022.9138	2959.6062	1089.75	209.8
1023.0274	2960.6916	1087.7	207.8
1023.141	2961.7764	1091.9	209.25
1023.2545	2962.8605	1087.75	207.8
1023.3679	2963.9439	1090.25	211.85
1023.4813	2965.0267	1089.65	210.65
1023.5947	2966.1089	1104.55	200.55
1023.708	2967.1905	1085.75	207.1
1023.8213	2968.2714	1085.9	208.1
1023.9346	2969.3516	1081.3	201.2
1024.0478	2970.4312	1084.3	198
1024.1609	2971.5102	1082.6	203.05
1024.274	2972.5885	1079.25	201.85
1024.3871	2973.6662	1085.6	202.35
1024.5002	2974.7432	1078	198.75
1024.6132	2975.8196	1079	199.75
1024.7261	2976.8954	1079.45	200.6
1024.839	2977.9705	1074.1	195.5
1024.9519	2979.045	1078.25	198.2
1025.0647	2980.1188	1071.45	191.6
1025.1775	2981.192	1069.5	192.95
1025.2902	2982.2645	1075.2	192.85
1025.4029	2983.3364	1064.7	184.85
1025.5156	2984.4077	1064.6	183
1025.6282	2985.4783	1072.2	187.15
1025.7407	2986.5483	1066.65	189.05
1025.8532	2987.6177	1062.3	182.7
1025.9657	2988.6864	1062.6	183.9
1026.0782	2989.7545	1061.4	181.6
1026.1906	2990.8219	1058.3	177.4
1026.3029	2991.8887	1057.55	177.65
1026.4152	2992.9548	1055	176.15
1026.5275	2994.0204	1049.65	171.35
1026.6397	2995.0852	1046.6	169.6
1026.7519	2996.1495	1049.1	169.95
1026.864	2997.2131	1039.85	162.95
1026.9761	2998.276	1042.55	163.65
1027.0882	2999.3383	1043.25	162.9
1027.2002	3000.4	1036.25	156
1027.3122	3001.4611	1038.7	160.05
1027.4241	3002.5215	1037.75	157.75
1027.536	3003.5812	1030.1	149.95
1027.6478	3004.6404	1034.8	154.85
1027.7596	3005.6989	1031.15	153.2
1027.8714	3006.7567	1032.55	152.55
1027.9831	3007.8139	1050.55	150.4
1028.0947	3008.8705	1025.9	148.4
1028.2064	3009.9264	1027.4	146.7
1028.3179	3010.9818	1025.7	147.15
1028.4295	3012.0364	1027.4	147.95
1028.541	3013.0905	1023.15	142.6
1028.6524	3014.1439	1023.5	146.1
1028.7638	3015.1966	1020.25	142.4
1028.8752	3016.2487	1020.85	141.2
1028.9865	3017.3002	1027.95	141.9
1029.0978	3018.3511	1018.15	139.75
1029.209	3019.4013	1017.15	139.45
1029.3202	3020.4509	1022.55	142.7
1029.4314	3021.4998	1019.6	141.95
1029.5425	3022.5481	1017.4	136.4
1029.6535	3023.5958	1016.95	138.15
1029.7645	3024.6428	1017.3	137.45
1029.8755	3025.6892	1015.6	137.35
1029.9864	3026.735	1013.35	135.5
1030.0973	3027.7802	1018.05	141.05
1030.2082	3028.8247	1012.85	133.9
1030.319	3029.8685	1012.55	132.7
1030.4297	3030.9118	1011.6	130.75
1030.5404	3031.9544	1012.5	135.7
1030.6511	3032.9963	1011.3	133.6
1030.7617	3034.0376	1011.3	131.75
1030.8723	3035.0783	1010.75	127.5
1030.9829	3036.1184	1012.65	134.2
1031.0934	3037.1578	1013.55	134.6
1031.2038	3038.1966	1009.7	130.4
1031.3142	3039.2348	1008.15	130.55
1031.4246	3040.2723	1017.25	129.25
1031.5349	3041.3092	1004.25	125.2
1031.6452	3042.3455	1007.55	126.75
1031.7554	3043.3811	1005	126.15
1031.8656	3044.4161	1006.5	125.2
1031.9758	3045.4505	1007.15	129.1
1032.0859	3046.4842	1008.9	128.1
1032.1959	3047.5173	1004.45	127.2
1032.3059	3048.5498	1003.6	126.7
1032.4159	3049.5816	1004.4	124.7
1032.5258	3050.6128	1005.65	124
1032.6357	3051.6434	1006.2	125.75
1032.7455	3052.6734	998.85	119.25
1032.8553	3053.7027	1001.65	124.3
1032.9651	3054.7314	1000.65	122.7
1033.0748	3055.7594	999.2	120
1033.1845	3056.7868	1006.35	125.9
1033.2941	3057.8136	1002.7	122.85
1033.4037	3058.8398	1002.15	124.75
1033.5132	3059.8653	1000.3	120.6
1033.6227	3060.8902	998.9	120.4
1033.7321	3061.9145	1002.4	123.55
1033.8415	3062.9381	1000.15	120.25
1033.9509	3063.9612	1015.5	121.4
1034.0602	3064.9835	997.4	117.35
1034.1694	3066.0053	997.2	117.3
1034.2787	3067.0264	994.8	114.95
1034.3878	3068.0469	999.8	117.9
1034.497	3069.0668	1002.85	121.5
1034.6061	3070.086	994.35	115.6
1034.7151	3071.1046	998.65	117.95
1034.8241	3072.1226	996.8	114.7
1034.9331	3073.1399	997.3	120.4
1035.042	3074.1567	1001.4	123.25
1035.1508	3075.1727	993.7	112.35
1035.2597	3076.1882	992.1	114.3
1035.3684	3077.203	992.15	113.45
1035.4772	3078.2173	995.35	114.1
1035.5859	3079.2308	993.7	111.8
1035.6945	3080.2438	992.95	112.1
1035.8031	3081.2561	989.45	110.55
1035.9117	3082.2678	984.3	108.05
1036.0202	3083.2789	988.25	108.35
1036.1286	3084.2893	984.75	106.75
1036.2371	3085.2991	982.8	104.25
1036.3454	3086.3083	991.95	109.3
1036.4538	3087.3169	984.75	103.35
1036.562	3088.3248	985.4	103.9
1036.6703	3089.3321	984.95	104.4
1036.7785	3090.3388	982.3	102.9
1036.8866	3091.3449	979.8	100.85
1036.9948	3092.3503	986.55	105.75
1037.1028	3093.3551	978.1	99.05
1037.2108	3094.3593	976.8	99.8
1037.3188	3095.3629	981.45	102.1
1037.4267	3096.3658	980.75	101.75
1037.5346	3097.3681	977.65	98.35
1037.6425	3098.3698	982.8	103.8
1037.7503	3099.3708	985.1	98.55
1037.858	3100.3713	976.95	100.4
1037.9657	3101.3711	978.15	99.45
1038.0734	3102.3702	1109.75	96.05
1038.181	3103.3688	976.45	97.3
1038.2886	3104.3667	975.15	98.2
1038.3961	3105.364	974.7	96.05
1038.5036	3106.3607	973.55	93.15
1038.611	3107.3568	974.5	94.25
1038.7184	3108.3522	971.35	93.05
1038.8257	3109.347	971.35	92.8
1038.933	3110.3412	977.6	92.1
1039.0403	3111.3348	972.5	95.5
1039.1475	3112.3277	971.8	93.85
1039.2547	3113.32	970.15	92.95
1039.3618	3114.3117	971.35	91.9
1039.4689	3115.3028	969.45	90.15
1039.5759	3116.2932	970.35	91.8
1039.6829	3117.2831	971.95	89.3
1039.7898	3118.2723	968.45	89.75
1039.8967	3119.2608	966.35	85.85
1040.0035	3120.2488	967.65	87.7
1040.1103	3121.2361	968.15	89.4
1040.2171	3122.2229	964	86.7
1040.3238	3123.209	967.55	87.45
1040.4305	3124.1944	964.5	86.45
1040.5371	3125.1793	967	85.85
1040.6437	3126.1635	962.25	84.6
1040.7502	3127.1471	960.75	80.65
1040.8567	3128.1301	961.1	82.15
1040.9631	3129.1125	957.35	78
1041.0695	3130.0942	959.45	79.85
1041.1759	3131.0753	969.7	83.15
1041.2822	3132.0558	966.65	86.7
1041.3884	3133.0357	964.85	86.45
1041.4946	3134.015	960.95	81.35
1041.6008	3134.9936	958.65	78.35
1041.7069	3135.9716	980.1	81.25
1041.813	3136.949	959	80.2
1041.919	3137.9258	963.8	78.05
1042.025	3138.902	967.5	84.9
1042.1309	3139.8775	957.25	79.05
1042.2368	3140.8524	955.7	77.1
1042.3427	3141.8267	956.75	74.5
1042.4485	3142.8004	957.45	77.05
1042.5542	3143.7735	962.9	80.35
1042.6599	3144.7459	957.25	78.7
1042.7656	3145.7178	955.7	76.6
1042.8712	3146.689	956.35	80.5
1042.9768	3147.6596	955.5	74.2
1043.0823	3148.6295	956.7	78.1
1043.1878	3149.5989	954.55	75.3
1043.2932	3150.5676	953.35	74.9
1043.3986	3151.5357	951.4	73.75
1043.5039	3152.5032	954.7	74.65
1043.6092	3153.4701	950.45	72.5
1043.7145	3154.4364	953	73.35
1043.8197	3155.402	951.75	72.35
1043.9248	3156.367	950.35	70.25
1044.03	3157.3315	992.1	73.95
1044.135	3158.2952	949.7	70.8
1044.24	3159.2584	946.9	66.05
1044.345	3160.221	950.45	69.95
1044.4499	3161.1829	949.5	71.1
1044.5548	3162.1442	950.1	69.25
1044.6596	3163.105	947.3	68.5
1044.7644	3164.065	947.55	71
1044.8692	3165.0245	951.05	70.55
1044.9739	3165.9834	946.75	70.55
1045.0785	3166.9416	949.75	71.8
1045.1831	3167.8993	946.05	66.6
1045.2877	3168.8563	947.8	68.45
1045.3922	3169.8127	946.05	67.5
1045.4966	3170.7684	946.15	66.65
1045.6011	3171.7236	948	67.6
1045.7054	3172.6782	946.9	67.95
1045.8098	3173.6321	942.8	63.45
1045.914	3174.5854	946.55	63.55
1046.0183	3175.5381	942.3	63.85
1046.1224	3176.4902	942.65	64.75
1046.2266	3177.4417	939.95	63.45
1046.3307	3178.3926	939.95	62.25
1046.4347	3179.3428	940.85	61.05
1046.5387	3180.2924	941.75	63.9
1046.6427	3181.2415	939.45	60.4
1046.7466	3182.1899	942.8	62.7
1046.8504	3183.1377	938.65	61.55
1046.9542	3184.0848	945.35	62.55
1047.058	3185.0314	940.1	62.75
1047.1617	3185.9773	941.25	63.65
1047.2654	3186.9227	938.35	57.55
1047.369	3187.8674	938.3	62.8
1047.4726	3188.8115	943.75	60.6
1047.5761	3189.755	938.65	61.7
1047.6796	3190.6979	937.95	58.35
1047.783	3191.6402	935.7	59.35
1047.8864	3192.5818	936.15	55.2
1047.9898	3193.5229	953.5	58.3
1048.0931	3194.4633	938.15	59.7
1048.1963	3195.4031	936.85	57.8
1048.2995	3196.3423	935.25	55.85
1048.4027	3197.2809	935.6	57.3
1048.5058	3198.2189	934.15	56.3
1048.6089	3199.1563	951.8	58.05
1048.7119	3200.0931	934.8	57.5
1048.8148	3201.0292	933.05	56.1
1048.9178	3201.9648	934.65	55.05
1049.0206	3202.8997	935.05	52.65
1049.1235	3203.834	936.55	57
1049.2262	3204.7677	934.1	56.35
1049.329	3205.7008	935.45	54.45
1049.4317	3206.6333	930.25	53.65
1049.5343	3207.5652	935.65	55.75
1049.6369	3208.4964	934.75	55.5
1049.7394	3209.4271	931.1	53.4
1049.8419	3210.3571	931.35	52.8
1049.9444	3211.2865	933.5	52.95
1050.0468	3212.2154	934.85	54.95
1050.1491	3213.1436	935.7	52.6
1050.2514	3214.0712	935.55	50.15
1050.3537	3214.9982	932.3	53.15
1050.4559	3215.9246	930.65	50.05
1050.5581	3216.8503	927.15	49.4
1050.6602	3217.7755	929.95	49.75
1050.7623	3218.7001	931.45	53.1
1050.8643	3219.624	929.4	50.75
1050.9663	3220.5473	930.65	52.8
1051.0682	3221.4701	925.95	46.6
1051.1701	3222.3922	931.8	51.8
1051.2719	3223.3137	929.75	52.2
1051.3737	3224.2346	929.25	51.15
1051.4754	3225.1549	928.9	50.5
1051.5771	3226.0746	928.45	48.8
1051.6788	3226.9937	926.3	45.25
1051.7804	3227.9121	925.45	46.45
1051.8819	3228.83	927.6	49.7
1051.9834	3229.7473	927.75	47.4
1052.0849	3230.6639	926.1	51.25
1052.1863	3231.5799	923.8	43.6
1052.2876	3232.4954	928.4	48.65
1052.3889	3233.4102	925.15	47.05
1052.4902	3234.3244	925.15	46.6
1052.5914	3235.238	925.55	47
1052.6926	3236.151	948	45.1
1052.7937	3237.0634	922.5	44.05
1052.8948	3237.9752	922.45	44.8
1052.9958	3238.8864	924.2	46.95
1053.0968	3239.797	921.7	42.7
1053.1977	3240.7069	922.4	42.15
1053.2986	3241.6163	923.5	42.3
1053.3994	3242.5251	921.75	44.75
1053.5002	3243.4332	921.1	43.4
1053.6009	3244.3408	923.45	46.05
1053.7016	3245.2477	920.7	41.6
1053.8022	3246.154	921.2	41.9
1053.9028	3247.0598	923.3	41.4
1054.0034	3247.9649	920.8	42.1
1054.1039	3248.8694	920.4	42.1
1054.2043	3249.7733	922.1	40.15
1054.3047	3250.6766	919.95	42.65
1054.4051	3251.5793	919.25	41.5
1054.5054	3252.4814	919.35	41.6
1054.6056	3253.3829	918.6	41.35
1054.7058	3254.2838	919.4	41
1054.806	3255.1841	919.9	41.05
1054.9061	3256.0838	919.65	42.1
1055.0061	3256.9829	915.75	39.1
1055.1062	3257.8814	919.45	38.3
1055.2061	3258.7792	920.2	39.25
1055.306	3259.6765	919.9	40.7
1055.4059	3260.5731	916.3	38.75
1055.5057	3261.4692	919.2	41.5
1055.6055	3262.3647	916.45	38.4
1055.7052	3263.2595	916.4	38.05
1055.8049	3264.1538	913.3	32.35
1055.9045	3265.0474	915.3	36.7
1056.0041	3265.9404	914.35	35.85
1056.1036	3266.8329	910.95	32.9
1056.2031	3267.7247	920.3	30.15
1056.3025	3268.616	911.45	35.9
1056.4019	3269.5066	911.9	32.6
1056.5013	3270.3966	910.15	30.1
1056.6005	3271.286	906.4	28.85
