Software Version:	3.9.2.0
Unit SN:	10000200
Spectrometer SN:	6960
Date:	3/6/2024 10:03:36 AM
Data Line Index:	25
Spectral Points:	2048
Integration time (ms):	125
Averages:	20
Delay (ms):	30
Sequence Number:	1
Processing:	dark subtract
Laser Power (mW):	305
Laser Current (mA):	826
Laser Diode Temp (C):	25.1
Laser Case Temp (C):	24.7
System Temp (C):	24.5
Spectrometer Temp (C):	22.1
CCD Temp (C):	0.001
Secondary Temp (C):	20.007
Heatsink Temp (C):	18.64
CCDPCB Temp (C):	30.76
SecondaryPCB Temp (C):	26.325

Wavelength	RamanShift	Raw Counts	Dark Subtracted
787.061	30.1047	643.75	235.65
787.2016	32.3739	650.5	243.6
787.3422	34.6426	673.1	265.15
787.4828	36.9109	687.75	278.6
787.6235	39.1787	704.75	292.65
787.7642	41.4461	730.65	313.2
787.9049	43.7131	755	334.3
788.0456	45.9796	774.6	350.85
788.1863	48.2456	801.15	373.35
788.3271	50.5112	823.8	391.65
788.4679	52.7764	846.55	411.35
788.6087	55.0411	872.3	433.55
788.7496	57.3054	906	462.1
788.8904	59.5692	938.7	494.1
789.0313	61.8326	974.7	525.9
789.1722	64.0955	1008.15	556.65
789.3132	66.3579	1056.75	600.8
789.4541	68.6199	1112.25	652.2
789.5951	70.8815	1210.05	745.95
789.7361	73.1426	1426.1	957.25
789.8771	75.4032	1979.2	1508.7
790.0181	77.6634	3340.2	2865.6
790.1592	79.9231	6772.9	6293.2
790.3003	82.1824	14917.9	14430.15
790.4414	84.4412	31678.15	31171.45
790.5825	86.6995	49228.7	48702.7
790.7237	88.9574	56459.35	55913.55
790.8648	91.2148	60126.65	59571.45
791.006	93.4717	61071.85	60507.8
791.1472	95.7282	61489.5	60919.45
791.2885	97.9842	61687.05	61115.95
791.4297	100.2398	61713.2	61139.15
791.571	102.4949	61665.4	61087.9
791.7123	104.7495	61715.8	61135.9
791.8536	107.0036	61593.4	61013.5
791.9949	109.2573	61804.75	61224.6
792.1363	111.5105	61628.55	61044.55
792.2777	113.7632	61755.65	61171.15
792.4191	116.0154	61788.6	61194.45
792.5605	118.2672	61922.75	61334.45
792.7019	120.5185	61937.15	61345.9
792.8434	122.7693	61954.6	61360
792.9849	125.0197	61767	61167.85
793.1264	127.2696	62161.45	61557.7
793.2679	129.519	62105.15	61497.45
793.4094	131.7679	62250.25	61640
793.551	134.0163	61843.2	61230.7
793.6926	136.2642	62002.7	61385.5
793.8342	138.5117	62265.2	61647.5
793.9758	140.7587	62185.8	61565.7
794.1175	143.0052	62195.5	61572
794.2591	145.2512	61968.2	61348.1
794.4008	147.4967	62260.4	61635.95
794.5425	149.7417	62173.1	61543.65
794.6842	151.9863	62176.6	61546.3
794.826	154.2304	62009.75	61373.9
794.9677	156.4739	62168.55	61527.6
795.1095	158.717	62330.35	61688.75
795.2513	160.9596	62199.95	61551.5
795.3931	163.2017	61990.05	61337.25
795.535	165.4433	62224.45	61574.5
795.6768	167.6844	62106.7	61452.95
795.8187	169.925	62215.95	61563.1
795.9606	172.1651	62090.2	61433.7
796.1025	174.4047	62167.45	61510.05
796.2445	176.6439	62180.35	61517.75
796.3864	178.8825	62121.9	61459.8
796.5284	181.1206	62302.9	61632.15
796.6704	183.3582	62282.85	61606.75
796.8124	185.5954	62178.1	61500.6
796.9544	187.832	62222.75	61542.9
797.0965	190.0681	62095.45	61412.45
797.2386	192.3037	62326.2	61642.25
797.3806	194.5388	62604.9	61914.6
797.5228	196.7734	61990.8	61301.8
797.6649	199.0075	62544.3	61850.5
797.807	201.2411	62337.75	61645.95
797.9492	203.4742	62642.4	61948.05
798.0914	205.7068	62581.95	61883.4
798.2336	207.9389	62558.85	61855.9
798.3758	210.1704	62538.75	61843.95
798.518	212.4015	62744.2	62057.95
798.6603	214.632	62436.45	61762.3
798.8025	216.862	62740.25	62065.8
798.9448	219.0915	62653.5	61972.5
799.0871	221.3205	62590.45	61907.15
799.2294	223.549	62797.35	62119.1
799.3718	225.777	62764.85	62086.7
799.5141	228.0044	62882.65	62198.6
799.6565	230.2314	62810.9	62123.75
799.7989	232.4578	62799.85	62108.05
799.9413	234.6837	62837.6	62140.8
800.0837	236.909	63206.8	62504.3
800.2262	239.1339	62695.35	61965.75
800.3687	241.3582	62931.4	62217.8
800.5111	243.582	62948.95	62205.2
800.6536	245.8053	62961.9	62233.7
800.7961	248.0281	62980.85	62258.7
800.9387	250.2503	63044.5	62314.95
801.0812	252.472	62862.9	62132.15
801.2238	254.6932	62992.75	62264.85
801.3664	256.9139	62936.75	62205.2
801.509	259.134	63269.65	62535.45
801.6516	261.3536	62874.55	62141.95
801.7942	263.5727	63127.95	62393.9
801.9369	265.7912	62989.5	62256.5
802.0795	268.0092	63039.45	62303.15
802.2222	270.2267	63081.1	62345
802.3649	272.4436	62926.55	62186.3
802.5076	274.6601	63072.05	62324.9
802.6504	276.8759	63163.35	62421.2
802.7931	279.0913	63060.05	62318.7
802.9359	281.3061	63079.5	62337.15
803.0787	283.5204	63115.05	62365.4
803.2215	285.7341	63092.35	62341.2
803.3643	287.9473	63272.1	62510.45
803.5071	290.16	63123.6	62368.05
803.6499	292.3721	63227.55	62478.95
803.7928	294.5837	63047.7	62296.9
803.9357	296.7947	62969.15	62219.1
804.0786	299.0052	63249.55	62497.35
804.2215	301.2152	63118.5	62365.5
804.3644	303.4246	63252.3	62502.75
804.5074	305.6334	63234.1	62479.95
804.6503	307.8418	63040.75	62284.5
804.7933	310.0495	63082.15	62324.15
804.9363	312.2568	63037.55	62282.85
805.0793	314.4635	63036.15	62278.5
805.2223	316.6696	63125.45	62363.65
805.3653	318.8752	63238.85	62467.5
805.5084	321.0802	62880.05	62114.8
805.6514	323.2847	63039.5	62270.65
805.7945	325.4887	63021.9	62252.3
805.9376	327.692	62938.65	62172.45
806.0807	329.8949	63032.05	62263.95
806.2238	332.0972	62969.05	62197.4
806.367	334.2989	63044.85	62270.1
806.5101	336.5001	63178.75	62405.2
806.6533	338.7007	62880.95	62103.95
806.7965	340.9008	63020.2	62245.75
806.9397	343.1003	63051.85	62273.7
807.0829	345.2992	63147.25	62368.2
807.2261	347.4976	63010.55	62229.5
807.3693	349.6955	63068.7	62281.65
807.5126	351.8927	62971.8	62185.7
807.6559	354.0895	63103.35	62307.9
807.7991	356.2856	63069.3	62281.65
807.9424	358.4812	63201.9	62415.65
808.0857	360.6763	63004.75	62213.25
808.2291	362.8707	63162.5	62368.85
808.3724	365.0646	63063.15	62269.15
808.5158	367.258	63053.15	62257.6
808.6591	369.4508	62949.55	62146.85
808.8025	371.643	63128.5	62329.1
808.9459	373.8346	63034.1	62233.7
809.0893	376.0257	63027.5	62222.7
809.2327	378.2162	62997.7	62189.8
809.3762	380.4062	62861.95	62057.75
809.5196	382.5956	62966.3	62166.75
809.6631	384.7844	62964.1	62164.2
809.8066	386.9726	63019.75	62217.85
809.9501	389.1603	63041.2	62242.3
810.0936	391.3474	62892.2	62058.55
810.2371	393.5339	63024.25	62224.6
810.3806	395.7199	62802.7	62006.1
810.5241	397.9052	62851.8	62056.65
810.6677	400.09	62894.5	62096.55
810.8113	402.2743	62984.95	62188.3
810.9548	404.4579	62858.6	62061.25
811.0984	406.641	62878.75	62078.5
811.2421	408.8235	62950.65	62151.7
811.3857	411.0054	62969.9	62167.4
811.5293	413.1868	62975.5	62164.05
811.673	415.3675	62939.1	62130.9
811.8166	417.5477	62943.7	62132.1
811.9603	419.7273	62910.2	62096.45
812.104	421.9064	62893.85	62071.6
812.2477	424.0848	62920.4	62105.5
812.3914	426.2627	63007.25	62191.5
812.5351	428.4399	62803.45	61988.45
812.6788	430.6166	62691.65	61871.65
812.8226	432.7928	62853.45	62031.1
812.9663	434.9683	62702.85	61880.3
813.1101	437.1432	62701.05	61878.7
813.2539	439.3176	62802.15	61983.25
813.3977	441.4914	62580.85	61764.65
813.5415	443.6645	62635.25	61815.45
813.6853	445.8371	62630.8	61808.85
813.8291	448.0091	62508	61687.4
813.973	450.1806	62498.9	61676
814.1168	452.3514	62506.3	61683.25
814.2607	454.5216	62396.7	61566.3
814.4046	456.6913	62479.75	61653.25
814.5485	458.8603	62495.7	61670
814.6924	461.0288	62335.15	61513.4
814.8363	463.1967	62510.25	61689.7
814.9802	465.3639	62496.65	61671.75
815.1241	467.5306	62212.6	61386.55
815.2681	469.6967	62373.85	61550.9
815.412	471.8622	62454.2	61628.3
815.556	474.0271	62359.85	61535.7
815.7	476.1914	62368.75	61540.2
815.844	478.3551	62383.75	61557.05
815.988	480.5182	62524.4	61696.4
816.132	482.6807	62294.65	61465.1
816.276	484.8426	62304.35	61482.05
816.4201	487.0039	62503.45	61677.35
816.5641	489.1647	62495.85	61665
816.7082	491.3248	62296.7	61465.9
816.8522	493.4843	62539.95	61711.25
816.9963	495.6432	62515.85	61688.6
817.1404	497.8015	62262.7	61429.1
817.2845	499.9592	62444.05	61608.3
817.4286	502.1163	62406.7	61567.9
817.5727	504.2728	62401.4	61566.75
817.7168	506.4287	62407.45	61577
817.861	508.5839	62299.85	61467.55
818.0051	510.7386	62358.75	61523.3
818.1493	512.8927	62380.5	61537.85
818.2935	515.0461	62356	61518.1
818.4377	517.199	62451.6	61614.15
818.5818	519.3512	62337.35	61499.65
818.726	521.5029	62308.4	61464.5
818.8703	523.6539	62356.6	61514.45
819.0145	525.8043	62157.45	61315.5
819.1587	527.9541	62320.4	61474.65
819.303	530.1033	62285.75	61442.2
819.4472	532.2519	62216.85	61375.75
819.5915	534.3999	62332.95	61486.35
819.7357	536.5472	62421.3	61575
819.88	538.694	62171.5	61326.75
820.0243	540.8401	62297.25	61452.6
820.1686	542.9856	62308.7	61457.15
820.3129	545.1305	62352.85	61499.15
820.4572	547.2748	62241.15	61388
820.6016	549.4185	62237.9	61383.4
820.7459	551.5615	62328.75	61474.4
820.8902	553.704	62289.05	61437.5
821.0346	555.8458	62189.35	61341.3
821.1789	557.987	62218.8	61370.6
821.3233	560.1276	62279.15	61427.2
821.4677	562.2675	62208.9	61361.3
821.6121	564.4069	62240.45	61391
821.7565	566.5456	62330.05	61480.15
821.9009	568.6837	62152.25	61299.15
822.0453	570.8212	62233.3	61383.15
822.1897	572.958	61996.05	61145.75
822.3342	575.0942	62166.35	61316.35
822.4786	577.2299	61994.25	61144.65
822.6231	579.3648	61959.1	61113.1
822.7675	581.4992	61906.45	61063.7
822.912	583.6329	61860.35	61016.55
823.0565	585.766	61894.8	61050.45
823.201	587.8985	61931.9	61084.4
823.3454	590.0304	61707.15	60832.65
823.4899	592.1616	61841.7	60985.15
823.6345	594.2922	61782.5	60924.55
823.779	596.4222	61681.95	60821.2
823.9235	598.5515	61693.2	60833.65
824.068	600.6802	61754.75	60896.25
824.2126	602.8083	61541.8	60681.85
824.3571	604.9358	61561.8	60703.95
824.5017	607.0626	61687.5	60827.55
824.6462	609.1888	61479.9	60617.95
824.7908	611.3144	61577.75	60711.6
824.9354	613.4393	61468.65	60606.65
825.08	615.5636	61463.45	60599.65
825.2246	617.6873	61507.8	60646.5
825.3692	619.8103	61407.7	60542.9
825.5138	621.9327	61488.2	60622.35
825.6584	624.0544	61493.75	60631.5
825.803	626.1756	61437.2	60579.05
825.9477	628.2961	61418.9	60553.9
826.0923	630.4159	61339.2	60476.55
826.237	632.5351	61323.65	60458.05
826.3816	634.6537	61487.2	60621.4
826.5263	636.7716	61311.85	60444.7
826.6709	638.8889	61375.65	60505.4
826.8156	641.0056	61346.75	60477.1
826.9603	643.1216	61375.25	60505.65
827.105	645.237	61418.2	60549.95
827.2497	647.3518	61279.25	60413.2
827.3944	649.4659	61304.55	60440.1
827.5391	651.5793	61327.55	60466.8
827.6838	653.6922	61305.25	60438.1
827.8285	655.8043	61178.7	60312.7
827.9733	657.9159	61375.95	60507.4
828.118	660.0268	61058.6	60191.3
828.2627	662.137	61215.7	60346.85
828.4075	664.2466	61208.2	60334.05
828.5522	666.3556	61130.65	60259.55
828.697	668.4639	61162.7	60289.5
828.8418	670.5716	61118.4	60250.1
828.9865	672.6786	61182.85	60311.65
829.1313	674.785	61027.6	60155.05
829.2761	676.8907	61030.45	60159.6
829.4209	678.9958	61064.95	60194.05
829.5657	681.1002	61073.3	60200.1
829.7105	683.204	60967.1	60090.4
829.8553	685.3072	60933.45	60053.65
830.0001	687.4097	60937.8	60064.25
830.1449	689.5115	60918.85	60042.3
830.2898	691.6127	60977.1	60103.5
830.4346	693.7132	60882	60010.7
830.5794	695.8131	60888.65	59994.3
830.7243	697.9123	60910.9	60034.7
830.8691	700.0109	60912.5	60036.55
831.014	702.1089	60804.15	59929.65
831.1588	704.2061	60829.45	59954.85
831.3037	706.3028	60799.5	59920.4
831.4486	708.3987	60827.4	59950.65
831.5935	710.4941	60759.25	59881.35
831.7383	712.5887	60807.3	59931.6
831.8832	714.6827	60759.15	59879.35
832.0281	716.7761	60800.55	59923.45
832.173	718.8688	60819.4	59939.9
832.3179	720.9608	60721.8	59838.5
832.4628	723.0522	60746.35	59859.6
832.6077	725.1429	60673.9	59791.15
832.7527	727.233	60807.55	59925.05
832.8976	729.3224	60632.15	59753.8
833.0425	731.4112	60634.7	59750.55
833.1874	733.4993	60605.85	59724.4
833.3324	735.5867	60591.45	59710.15
833.4773	737.6735	60534.35	59653.25
833.6222	739.7596	60476.4	59590.75
833.7672	741.845	60461.95	59578.55
833.9122	743.9298	60464.8	59580.35
834.0571	746.014	60438.4	59556.7
834.2021	748.0974	60359.35	59475
834.347	750.1802	60406.2	59518.85
834.492	752.2624	60274.7	59388.95
834.637	754.3439	60267.8	59380.5
834.782	756.4247	60248.25	59354.4
834.9269	758.5048	60166.9	59281.2
835.0719	760.5843	60173.9	59287.55
835.2169	762.6631	60187.35	59303.2
835.3619	764.7413	60124.45	59239.95
835.5069	766.8188	60168.6	59281.95
835.6519	768.8956	60132.25	59245.25
835.7969	770.9718	60152.1	59265.3
835.9419	773.0473	60063.35	59179.4
836.0869	775.1221	59995.95	59106.2
836.232	777.1962	59963.1	59075.7
836.377	779.2697	59830.6	58942.2
836.522	781.3426	59874.4	58967.05
836.667	783.4147	59850.7	58963.15
836.8121	785.4862	59834.4	58947.8
836.9571	787.557	59718.95	58830.85
837.1021	789.6271	59791.6	58902.45
837.2472	791.6966	59723.7	58837.1
837.3922	793.7654	59553.95	58667.55
837.5373	795.8335	59593	58703.3
837.6823	797.901	59608.9	58719.85
837.8274	799.9678	59527.8	58636.65
837.9724	802.0339	59425.25	58538.15
838.1175	804.0993	59453.3	58552.7
838.2626	806.1641	59386	58496.35
838.4076	808.2282	59344.8	58455.7
838.5527	810.2916	59317.55	58423.75
838.6978	812.3544	59379.55	58492.4
838.8428	814.4164	59197.95	58309.85
838.9879	816.4778	59196.65	58305.55
839.133	818.5385	59166.3	58272.9
839.2781	820.5986	59180.75	58288.4
839.4232	822.658	59216.6	58319.3
839.5682	824.7166	59165.2	58272.95
839.7133	826.7747	59086.65	58194
839.8584	828.832	59098.9	58207.9
840.0035	830.8886	59128.5	58233.75
840.1486	832.9446	59125.65	58233.45
840.2937	834.9999	58853.3	57962.95
840.4388	837.0545	58944.6	58046.45
840.5839	839.1085	59002.55	58108.45
840.729	841.1618	58916.05	58019.75
840.8741	843.2143	58720.2	57826.85
841.0192	845.2662	58686.65	57793.95
841.1643	847.3175	58754.2	57858.4
841.3095	849.368	58508.95	57616.55
841.4546	851.4179	58656.85	57765.6
841.5997	853.467	58499.3	57606.5
841.7448	855.5155	58543.85	57651.2
841.8899	857.5633	58395.6	57501.5
842.0351	859.6105	58332.6	57436.35
842.1802	861.6569	58383.2	57488.35
842.3253	863.7027	58215.55	57317.75
842.4704	865.7478	58280.45	57386.85
842.6156	867.7922	58229.8	57335.95
842.7607	869.8359	58271.05	57373.85
842.9058	871.8789	58068.95	57172.6
843.0509	873.9212	58195.95	57269.55
843.1961	875.9629	58133.5	57237.7
843.3412	878.0039	58085.55	57188
843.4863	880.0441	58020.1	57125.5
843.6315	882.0837	58020.85	57126.3
843.7766	884.1226	57980.25	57083.7
843.9218	886.1609	57994.55	57098.15
844.0669	888.1984	57910	57013.55
844.212	890.2352	58073.9	57175.45
844.3572	892.2714	57876.65	56975.35
844.5023	894.3069	57953.8	57056.55
844.6475	896.3416	57774.4	56874.6
844.7926	898.3757	57786.7	56888.25
844.9377	900.4091	57545.4	56646.65
845.0829	902.4418	57796.5	56892.25
845.228	904.4739	57604.3	56705.35
845.3732	906.5052	57602.9	56701.2
845.5183	908.5358	57515.75	56617.5
845.6635	910.5658	57413.8	56512.4
845.8086	912.595	57438	56539.7
845.9538	914.6236	57176	56279.4
846.0989	916.6515	57475.1	56575.2
846.2441	918.6786	57115.1	56214.8
846.3892	920.7051	57192.55	56292.45
846.5344	922.7309	57145.55	56245.7
846.6795	924.756	57152.05	56253.45
846.8246	926.7804	57074.4	56173.1
846.9698	928.8041	56733.4	55832.05
847.1149	930.8272	56899.65	55998.25
847.2601	932.8495	56840.75	55940.6
847.4052	934.8711	56668.7	55767.4
847.5504	936.892	56549.55	55648.55
847.6955	938.9123	56615	55712.85
847.8407	940.9318	56496.05	55596.2
847.9858	942.9506	56445.25	55543
848.131	944.9688	56402.95	55503.45
848.2761	946.9862	56163.65	55263.6
848.4213	949.003	56206.25	55303.5
848.5664	951.019	56014.05	55110.95
848.7115	953.0344	56029.05	55127.1
848.8567	955.0491	55931.9	55031.5
849.0018	957.063	56004.25	55106
849.147	959.0763	56046.85	55143.9
849.2921	961.0888	55861.7	54961.85
849.4373	963.1007	55956.45	55057.1
849.5824	965.1119	55930.5	55032.95
849.7275	967.1223	55810.7	54915.65
849.8727	969.1321	55872	54978.15
850.0178	971.1412	55729.9	54830.35
850.1629	973.1495	55620.55	54720.7
850.3081	975.1572	55657.45	54715.8
850.4532	977.1641	55630	54728.15
850.5983	979.1704	55508.35	54606.85
850.7435	981.1759	55490	54587.3
850.8886	983.1808	55380.35	54477.3
851.0337	985.1849	55381.65	54469.35
851.1788	987.1884	55354.55	54450
851.324	989.1911	55382.55	54480.8
851.4691	991.1932	55158.2	54253.4
851.6142	993.1945	55122.4	54217.05
851.7593	995.1951	55119.55	54217.25
851.9045	997.1951	55021.8	54110.4
852.0496	999.1943	54903.35	54001.1
852.1947	1001.1928	54783.65	53879.5
852.3398	1003.1906	54744.3	53841.8
852.4849	1005.1877	54636.2	53732.35
852.63	1007.1841	54541.2	53639.5
852.7751	1009.1798	54510.45	53609.65
852.9202	1011.1748	54433.35	53530.15
853.0653	1013.1691	54388.8	53487.95
853.2104	1015.1627	54024.35	53122.25
853.3555	1017.1556	54090.45	53192.1
853.5006	1019.1477	54020.2	53115
853.6457	1021.1392	53842.5	52942.8
853.7908	1023.1299	53606	52706.85
853.9359	1025.12	53676.75	52780.45
854.081	1027.1093	53500.6	52609.55
854.2261	1029.0979	53501.7	52613.3
854.3712	1031.0859	53376.6	52483.95
854.5163	1033.0731	53148.35	52249.4
854.6613	1035.0596	53188.4	52289.15
854.8064	1037.0454	53055.75	52156.05
854.9515	1039.0304	52955.8	52053.2
855.0965	1041.0148	52665.3	51764
855.2416	1042.9985	52666.55	51762.75
855.3867	1044.9814	52801	51901.3
855.5317	1046.9636	52488.6	51584.75
855.6768	1048.9452	52467.5	51566.45
855.8219	1050.926	52468.15	51565.65
855.9669	1052.9061	52401.6	51499.25
856.112	1054.8855	52314.25	51410.3
856.257	1056.8642	52221.9	51319.15
856.4021	1058.8421	52091.5	51184.25
856.5471	1060.8194	52073.95	51170.4
856.6921	1062.7959	51917.5	51013.5
856.8372	1064.7717	52047.7	51142.95
856.9822	1066.7469	51966.5	51062.7
857.1272	1068.7213	51875.65	50970.2
857.2723	1070.695	51786.4	50884.1
857.4173	1072.6679	51644.55	50740.3
857.5623	1074.6402	51679.45	50777.4
857.7073	1076.6117	51576.1	50669.55
857.8523	1078.5826	51572.1	50666.85
857.9973	1080.5527	51535.95	50631.05
858.1423	1082.5221	51338.55	50434.05
858.2873	1084.4908	51363.8	50462.45
858.4323	1086.4587	51236	50332
858.5773	1088.426	51213.15	50308.55
858.7223	1090.3925	51104.85	50195.2
858.8673	1092.3584	51110.55	50207.7
859.0123	1094.3235	50892.7	49990.25
859.1573	1096.2879	50839.05	49934.55
859.3022	1098.2515	50872.4	49970.25
859.4472	1100.2145	50802.2	49899.55
859.5922	1102.1767	50735.85	49832.25
859.7371	1104.1382	50751.55	49849.55
859.8821	1106.099	50669.55	49763.35
860.027	1108.0591	50604.9	49702.05
860.172	1110.0185	50445.15	49539.05
860.3169	1111.9771	50576.9	49673.7
860.4619	1113.9351	50417.95	49514.8
860.6068	1115.8923	50317.4	49414.35
860.7517	1117.8488	50163.9	49258.5
860.8967	1119.8045	49998.2	49095.35
861.0416	1121.7596	50021.55	49120.15
861.1865	1123.7139	49884.45	48980.65
861.3314	1125.6675	49804.35	48899.75
861.4763	1127.6204	49781.4	48879
861.6212	1129.5726	49623.4	48719.5
861.7661	1131.524	49695	48793.65
861.911	1133.4748	49649.55	48745.15
862.0559	1135.4248	49439.8	48532.75
862.2008	1137.3741	49405.75	48503.45
862.3457	1139.3226	49336.25	48433.2
862.4905	1141.2705	49322.7	48418.7
862.6354	1143.2176	49243.6	48336.25
862.7803	1145.164	49004.95	48098.9
862.9251	1147.1097	49072.2	48168.8
863.07	1149.0546	49030.7	48129.05
863.2148	1150.9989	49007.75	48105.05
863.3597	1152.9424	48754.1	47851.2
863.5045	1154.8852	48894.75	47989.5
863.6493	1156.8272	48638.45	47735.6
863.7942	1158.7686	48895.25	47982.65
863.939	1160.7092	48536.95	47628.15
864.0838	1162.6491	48481.95	47577
864.2286	1164.5883	48573.3	47671.1
864.3734	1166.5267	48393.3	47489.55
864.5182	1168.4644	48507.7	47600.95
864.663	1170.4014	48459.9	47552.9
864.8078	1172.3377	48525.35	47623.6
864.9526	1174.2732	48564.65	47663.65
865.0974	1176.2081	48440.25	47537.55
865.2421	1178.1421	48376.95	47470
865.3869	1180.0755	48583.15	47681.25
865.5317	1182.0082	48394.8	47493.55
865.6764	1183.9401	48447.45	47544.05
865.8212	1185.8713	48173.75	47272.95
865.9659	1187.8017	48127.9	47227.35
866.1106	1189.7315	48068.55	47175.05
866.2554	1191.6605	47886.75	46967.75
866.4001	1193.5888	47716.35	46818.4
866.5448	1195.5163	47478.75	46579.45
866.6895	1197.4432	47383.25	46476.55
866.8342	1199.3693	47348.65	46445.75
866.9789	1201.2947	47196.6	46286.6
867.1236	1203.2193	47201.15	46297.25
867.2683	1205.1432	46844.4	45942.6
867.413	1207.0664	46845.6	45943.65
867.5576	1208.9889	46765.75	45860.45
867.7023	1210.9106	46711.05	45807
867.847	1212.8316	46494.2	45589.5
867.9916	1214.7519	46482.2	45568.05
868.1363	1216.6715	46297	45394.9
868.2809	1218.5903	46252.2	45350.35
868.4255	1220.5084	46140.4	45240.2
868.5701	1222.4257	46155.5	45254.85
868.7148	1224.3424	46002.1	45103.1
868.8594	1226.2583	45783.95	44877.05
869.004	1228.1735	45929.4	45027.85
869.1486	1230.0879	45616.4	44713.9
869.2932	1232.0016	45768.4	44865.1
869.4377	1233.9146	45507.1	44601.65
869.5823	1235.8269	45513.65	44612.15
869.7269	1237.7384	45399.65	44495.3
869.8715	1239.6492	45223.1	44323.1
870.016	1241.5592	45082.95	44179.5
870.1606	1243.4686	45185.6	44281.85
870.3051	1245.3772	44888.3	43988.2
870.4496	1247.285	45052.75	44146.8
870.5941	1249.1922	44732.4	43830.25
870.7387	1251.0986	44928	44024.85
870.8832	1253.0042	44601.45	43698.85
871.0277	1254.9092	44761.45	43859.2
871.1722	1256.8134	44375.65	43475.45
871.3167	1258.7169	44652.85	43749.75
871.4611	1260.6196	44342	43440.9
871.6056	1262.5216	44408.4	43505.9
871.7501	1264.4229	44464.15	43565.95
871.8945	1266.3234	44572	43669.35
872.039	1268.2232	44453.2	43549.55
872.1834	1270.1223	44255.2	43351.75
872.3278	1272.0207	44257.8	43356
872.4723	1273.9183	44174.05	43265.25
872.6167	1275.8151	44076.45	43173.55
872.7611	1277.7113	44014.15	43111.1
872.9055	1279.6067	43835.55	42935.05
873.0499	1281.5014	43794.85	42891.5
873.1943	1283.3953	43988	43083
873.3386	1285.2885	43930.6	43027.9
873.483	1287.181	43970.1	43068.5
873.6274	1289.0727	44040.95	43140.1
873.7717	1290.9637	43785.05	42884.75
873.9161	1292.854	44079.05	43179.6
874.0604	1294.7435	43896.3	42996.75
874.2047	1296.6323	43856.75	42955.75
874.349	1298.5204	43692.7	42788.3
874.4933	1300.4077	43755.7	42853.05
874.6376	1302.2943	43564.4	42665.5
874.7819	1304.1802	43497.5	42595.5
874.9262	1306.0653	43288.2	42385.2
875.0705	1307.9497	43186	42284.45
875.2147	1309.8333	43106.5	42206.3
875.359	1311.7162	42961.55	42060
875.5032	1313.5984	42903.15	41997.25
875.6475	1315.4798	42800.15	41895.95
875.7917	1317.3605	42656.2	41738.75
875.9359	1319.2405	42599.75	41694.35
876.0801	1321.1197	42332.9	41429.25
876.2243	1322.9982	42340.3	41433.95
876.3685	1324.876	42280.05	41378.4
876.5127	1326.753	42098.75	41197.65
876.6569	1328.6293	42196.6	41293.25
876.801	1330.5048	42052	41150.55
876.9452	1332.3796	41919.3	41017.85
877.0893	1334.2537	41830.55	40901.8
877.2335	1336.127	41801.5	40899.35
877.3776	1337.9996	41656.85	40756.2
877.5217	1339.8714	41680.4	40778.2
877.6658	1341.7426	41466.55	40518.7
877.8099	1343.6129	41509.85	40607.1
877.954	1345.4826	41490.3	40587.3
878.0981	1347.3515	41322.4	40416.3
878.2422	1349.2196	41349.9	40447.8
878.3862	1351.087	41268.9	40367.15
878.5303	1352.9537	41244.25	40340
878.6743	1354.8197	41259.7	40356.95
878.8184	1356.6849	41296.75	40394.65
878.9624	1358.5493	41224.05	40321.05
879.1064	1360.4131	41143.35	40242.8
879.2504	1362.276	41196.95	40295.65
879.3944	1364.1383	40978.2	40077.5
879.5384	1365.9998	40884.55	39978
879.6823	1367.8606	40737.55	39834.25
879.8263	1369.7206	40555.95	39653.2
879.9702	1371.5799	40450.85	39547.3
880.1142	1373.4384	40231.9	39327.8
880.2581	1375.2962	40246	39341.05
880.402	1377.1533	39911.15	39010.1
880.5459	1379.0096	39671.4	38771.7
880.6898	1380.8652	39595.85	38696.55
880.8337	1382.7201	39430.8	38530.85
880.9776	1384.5742	39200.1	38296.65
881.1215	1386.4275	39030.15	38125
881.2653	1388.2802	38910.35	38009.1
881.4092	1390.132	38818.7	37916.7
881.553	1391.9832	38767.4	37861.45
881.6968	1393.8336	38556.7	37654.15
881.8406	1395.6832	38521.45	37615.95
881.9844	1397.5322	38387.9	37487.4
882.1282	1399.3803	38227.5	37320.7
882.272	1401.2278	38072.2	37171.15
882.4158	1403.0745	37948.75	37049.1
882.5595	1404.9204	37813.95	36913.7
882.7033	1406.7656	37829.15	36928.05
882.847	1408.6101	37635.95	36732.85
882.9908	1410.4538	37583.45	36682.4
883.1345	1412.2968	37447.75	36544.95
883.2782	1414.139	37280.7	36381.5
883.4219	1415.9805	37349.5	36448.45
883.5656	1417.8213	37135.4	36226.55
883.7092	1419.6613	37159.15	36258.45
883.8529	1421.5006	37072.7	36171.85
883.9965	1423.3391	37024.25	36121.45
884.1402	1425.1769	36961.75	36059.85
884.2838	1427.0139	37136.75	36234.15
884.4274	1428.8502	37119.3	36217.45
884.571	1430.6858	37248.05	36347.4
884.7146	1432.5206	37281	36380.2
884.8582	1434.3547	37216.95	36313.85
885.0018	1436.188	37138.7	36235.95
885.1453	1438.0206	37124.95	36222.05
885.2889	1439.8524	36927.4	36024.4
885.4324	1441.6835	36855.1	35952.7
885.5759	1443.5139	36777.6	35873.8
885.7194	1445.3435	36645.95	35745.45
885.8629	1447.1724	36639.75	35739.8
886.0064	1449.0005	36505.85	35606.35
886.1499	1450.8279	36455.25	35552.4
886.2933	1452.6545	36449.9	35548
886.4368	1454.4804	36411.7	35511.75
886.5802	1456.3056	36291.3	35383.8
886.7237	1458.13	36291.15	35391.85
886.8671	1459.9536	36282	35380.65
887.0105	1461.7766	36078.85	35178.85
887.1539	1463.5987	35848.15	34945.75
887.2972	1465.4202	35774.6	34871.7
887.4406	1467.2409	35582.25	34680.4
887.584	1469.0608	35452.5	34553.25
887.7273	1470.88	35360.35	34459.2
887.8706	1472.6984	35231.15	34330.75
888.0139	1474.5161	35008.9	34104.95
888.1572	1476.3331	34989.7	34089.5
888.3005	1478.1493	34859.2	33957.15
888.4438	1479.9648	34814.45	33912.95
888.5871	1481.7795	34740.45	33839.9
888.7303	1483.5935	34711.6	33809.6
888.8736	1485.4067	34587.2	33686.8
889.0168	1487.2192	34599.9	33697.95
889.16	1489.031	34469.75	33568
889.3032	1490.842	34421.6	33521.25
889.4464	1492.6522	34436.1	33537.2
889.5896	1494.4618	34291.9	33390.2
889.7327	1496.2705	34306.55	33408.5
889.8759	1498.0785	34183.45	33283.65
890.019	1499.8858	34094.25	33192.85
890.1622	1501.6924	34055.95	33156.75
890.3053	1503.4981	33971.55	33071.1
890.4484	1505.3032	33917.45	33016.6
890.5914	1507.1075	33802.4	32902.95
890.7345	1508.911	33717.55	32818
890.8776	1510.7138	33633.2	32731.6
891.0206	1512.5159	33588.35	32687.5
891.1637	1514.3172	33468.8	32569.7
891.3067	1516.1178	33393.4	32496.6
891.4497	1517.9176	33348.05	32447.1
891.5927	1519.7166	33255.75	32357
891.7357	1521.515	33208.25	32305
891.8786	1523.3126	33128.4	32229.85
892.0216	1525.1094	33034.9	32133.2
892.1645	1526.9055	32928.25	32031.1
892.3074	1528.7008	32825.95	31927.8
892.4503	1530.4954	32640.55	31743.9
892.5932	1532.2893	32620.25	31723.9
892.7361	1534.0824	32474.8	31571.8
892.879	1535.8747	32434.25	31539.75
893.0218	1537.6663	32379.45	31481.4
893.1647	1539.4572	32189.15	31290.4
893.3075	1541.2473	32201.9	31302.65
893.4503	1543.0367	32112.55	31216.65
893.5931	1544.8253	31957.6	31056.15
893.7359	1546.6132	31999.65	31095.4
893.8787	1548.4003	31846.35	30937.95
894.0214	1550.1867	31784.95	30881.15
894.1642	1551.9723	31762.6	30862.35
894.3069	1553.7572	31728.3	30831.65
894.4496	1555.5414	31636.85	30741.1
894.5923	1557.3247	31636.15	30739.85
894.735	1559.1074	31595.2	30701.75
894.8777	1560.8893	31537.25	30642.55
895.0204	1562.6705	31478.9	30583.8
895.163	1564.4509	31416.6	30521.2
895.3056	1566.2305	31329.25	30436.35
895.4482	1568.0094	31385.45	30493.05
895.5908	1569.7876	31400.6	30508.7
895.7334	1571.565	31285.75	30392.6
895.876	1573.3417	31214.75	30319.85
896.0186	1575.1176	31189.8	30297.4
896.1611	1576.8928	31116.05	30224.9
896.3036	1578.6672	30898.3	30008.35
896.4461	1580.4409	30928.1	30038.8
896.5886	1582.2138	30815.75	29922.4
896.7311	1583.986	30730.2	29836.65
896.8736	1585.7575	30749.75	29857.4
897.0161	1587.5282	30639.4	29749.35
897.1585	1589.2981	30633.85	29743.8
897.3009	1591.0673	30511.9	29620.9
897.4433	1592.8358	30508.15	29619.1
897.5857	1594.6035	30499.45	29603.85
897.7281	1596.3704	30446.45	29552.15
897.8705	1598.1366	30353.95	29461.45
898.0128	1599.9021	30295.05	29405.15
898.1551	1601.6668	30239.35	29347.3
898.2975	1603.4308	30198.15	29303.3
898.4398	1605.194	30186.85	29290.8
898.5821	1606.9564	30130.9	29242.35
898.7243	1608.7182	30166.05	29274.35
898.8666	1610.4791	30129.65	29244.75
899.0088	1612.2394	30181.2	29295.7
899.1511	1613.9988	30104.4	29217.25
899.2933	1615.7576	30153.15	29264
899.4355	1617.5156	30147.45	29252.15
899.5776	1619.2728	30191.85	29298.55
899.7198	1621.0293	30073.15	29181.55
899.862	1622.785	30054.6	29158.5
900.0041	1624.54	29815.45	28925.4
900.1462	1626.2942	29739.75	28848.65
900.2883	1628.0477	29471.15	28579.2
900.4304	1629.8005	29301.6	28409.15
900.5725	1631.5525	29168.4	28279.1
900.7145	1633.3037	29070.1	28181.1
900.8566	1635.0542	28989.95	28099.25
900.9986	1636.804	28836.2	27947.95
901.1406	1638.553	28846.5	27911.65
901.2826	1640.3013	28709.5	27819.1
901.4245	1642.0488	28576.6	27684.9
901.5665	1643.7955	28541.55	27653.4
901.7085	1645.5416	28497.5	27609.15
901.8504	1647.2868	28487.65	27599.35
901.9923	1649.0313	28418	27527.85
902.1342	1650.7751	28418.75	27527.65
902.2761	1652.5181	28428.9	27539.9
902.4179	1654.2604	28356.85	27469.65
902.5598	1656.0019	28352.9	27465.9
902.7016	1657.7427	28352.9	27462.7
902.8434	1659.4828	28418.8	27529.85
902.9852	1661.222	28348.15	27460.2
903.127	1662.9606	28292.6	27403.6
903.2687	1664.6984	28203.3	27314.05
903.4105	1666.4354	28088.6	27197.3
903.5522	1668.1717	27838.45	26947.45
903.6939	1669.9072	27509.75	26619.6
903.8356	1671.642	27400.85	26508.55
903.9773	1673.3761	27197.6	26308.75
904.119	1675.1094	27039.3	26150
904.2606	1676.8419	26871.85	25983.2
904.4022	1678.5737	26745.25	25854.35
904.5439	1680.3048	26615.15	25724.7
904.6855	1682.0351	26467.3	25578.35
904.827	1683.7646	26337.85	25446.2
904.9686	1685.4934	26258.65	25372.1
905.1101	1687.2215	26060.8	25170.85
905.2517	1688.9488	26053.9	25164.65
905.3932	1690.6754	25824	24935.6
905.5347	1692.4012	25859.25	24970.05
905.6761	1694.1263	25736.85	24846.75
905.8176	1695.8506	25628.25	24738.55
905.9591	1697.5742	25544.35	24655.2
906.1005	1699.297	25471.45	24584.25
906.2419	1701.0191	25378	24491.7
906.3833	1702.7404	25231.75	24345.7
906.5246	1704.461	25086.35	24196.85
906.666	1706.1808	25010.7	24121.3
906.8073	1707.8999	24978.9	24091.25
906.9487	1709.6182	24866.8	23979
907.09	1711.3358	24853.55	23966.2
907.2313	1713.0527	24751.2	23866.85
907.3725	1714.7688	24639.15	23745.95
907.5138	1716.4841	24502.5	23615.05
907.655	1718.1987	24529.5	23639.4
907.7962	1719.9126	24409.2	23523.7
907.9374	1721.6257	24345.75	23456.15
908.0786	1723.338	24343.05	23454.85
908.2198	1725.0496	24149.65	23262.15
908.3609	1726.7605	24088.5	23201.35
908.502	1728.4706	24062	23173.65
908.6431	1730.18	23950.25	23062.05
908.7842	1731.8886	23890.85	23004.55
908.9253	1733.5964	23865.6	22973.3
909.0664	1735.3036	23830.2	22940.4
909.2074	1737.0099	23771.35	22884.15
909.3484	1738.7156	23672.35	22787.3
909.4894	1740.4204	23581.4	22692.05
909.6304	1742.1246	23579.6	22693.25
909.7714	1743.8279	23488.2	22601.05
909.9123	1745.5306	23473.1	22586.15
910.0532	1747.2325	23351.9	22467.55
910.1941	1748.9336	23327.55	22442.3
910.335	1750.634	23224.5	22335.2
910.4759	1752.3336	23192.6	22310.6
910.6168	1754.0325	23111.3	22226.45
910.7576	1755.7307	23093.1	22209.15
910.8984	1757.4281	23108.2	22221.05
911.0392	1759.1247	23061.4	22166.4
911.18	1760.8206	22950.55	22058.85
911.3208	1762.5158	22910.65	22020.05
911.4615	1764.2102	22849.2	21963.6
911.6022	1765.9039	22735.85	21847.9
911.7429	1767.5968	22698.7	21814.6
911.8836	1769.289	22650.85	21766
912.0243	1770.9804	22590.35	21705.55
912.1649	1772.6711	22596.65	21710.85
912.3056	1774.361	22512.4	21623.35
912.4462	1776.0502	22489.95	21604.15
912.5868	1777.7386	22420.85	21530.6
912.7274	1779.4263	22346.7	21459.85
912.8679	1781.1132	22325.15	21439.45
913.0084	1782.7994	22217.85	21332.4
913.149	1784.4849	22225.45	21340.2
913.2895	1786.1696	22150.15	21247.95
913.4299	1787.8535	22086.55	21201.8
913.5704	1789.5367	22041	21158.4
913.7108	1791.2192	22037.1	21154.1
913.8513	1792.9009	21939.85	21020.9
913.9917	1794.5818	21867.3	20981.85
914.132	1796.2621	21803.25	20918.1
914.2724	1797.9415	21795.45	20909.5
914.4128	1799.6202	21705	20818.95
914.5531	1801.2982	21666.9	20780.65
914.6934	1802.9755	21648.65	20763.05
914.8337	1804.6519	21604.2	20718.5
914.9739	1806.3277	21483.9	20599.25
915.1142	1808.0027	21375.85	20495.1
915.2544	1809.6769	21401.65	20519.45
915.3946	1811.3504	21342.45	20457.3
915.5348	1813.0231	21293.7	20408.05
915.675	1814.6951	21275.55	20391.1
915.8151	1816.3664	21258.15	20371.95
915.9553	1818.0369	21215.05	20328.2
916.0954	1819.7067	21149.4	20262.8
916.2355	1821.3757	21092.6	20204.95
916.3755	1823.044	21053.9	20167.8
916.5156	1824.7115	21007	20118.45
916.6556	1826.3783	20942.9	20057.2
916.7956	1828.0443	20831.6	19944.8
916.9356	1829.7096	20782.55	19895.65
917.0756	1831.3741	20797.6	19905.65
917.2155	1833.0379	20762.25	19876.8
917.3555	1834.701	20671.7	19787.2
917.4954	1836.3633	20622.6	19736.55
917.6353	1838.0248	20581.75	19694.95
917.7751	1839.6856	20545.7	19659.95
917.915	1841.3457	20523.7	19639
918.0548	1843.005	20456.4	19572.3
918.1946	1844.6636	20456.8	19572.25
918.3344	1846.3214	20382.5	19497.3
918.4742	1847.9785	20372.05	19487.3
918.6139	1849.6349	20301.85	19414.1
918.7537	1851.2904	20281.85	19385.25
918.8934	1852.9453	20219.85	19333.6
919.0331	1854.5994	20116.1	19227
919.1727	1856.2528	20136.9	19247.6
919.3124	1857.9054	20079.65	19193.55
919.452	1859.5572	20058.85	19175.4
919.5916	1861.2083	20006.45	19120.35
919.7312	1862.8587	20024.6	19138.55
919.8708	1864.5084	19952.7	19064.1
920.0103	1866.1572	19908.75	19024.6
920.1498	1867.8054	19808.75	18924.05
920.2893	1869.4528	19784.3	18898.35
920.4288	1871.0994	19745.4	18857.75
920.5683	1872.7453	19679.3	18792.85
920.7077	1874.3905	19644.9	18751.95
920.8471	1876.0349	19627.8	18739.55
920.9865	1877.6786	19600.65	18712
921.1259	1879.3215	19580.3	18696.7
921.2653	1880.9637	19537.7	18651.95
921.4046	1882.6051	19502.3	18617
921.5439	1884.2458	19412.25	18523.9
921.6832	1885.8858	19352.3	18467.75
921.8225	1887.525	19323.4	18436.05
921.9617	1889.1634	19230	18344.15
922.101	1890.8011	19174.55	18285.9
922.2402	1892.4381	19145.25	18260.95
922.3794	1894.0743	19171.2	18285.75
922.5185	1895.7098	19077.1	18192.6
922.6577	1897.3446	19059.2	18173.05
922.7968	1898.9786	18995.1	18104.95
922.9359	1900.6118	18960.2	18074.9
923.075	1902.2443	18828.7	17940.7
923.214	1903.8761	18825.2	17939.1
923.3531	1905.5071	18720.3	17832.6
923.4921	1907.1374	18623.4	17737.3
923.6311	1908.7669	18632.75	17747.7
923.77	1910.3957	18605.05	17720.75
923.909	1912.0237	18512.55	17628.25
924.0479	1913.651	18479.05	17592.4
924.1868	1915.2776	18453.65	17570.65
924.3257	1916.9034	18343.05	17460.3
924.4646	1918.5285	18306.55	17421.6
924.6034	1920.1528	18218.65	17334.4
924.7422	1921.7764	18213.95	17327.9
924.881	1923.3992	18119.35	17233.8
925.0198	1925.0213	18017.15	17133.25
925.1586	1926.6427	17936.25	17054.55
925.2973	1928.2633	18138.7	17005.4
925.436	1929.8832	17904.85	17017.35
925.5747	1931.5023	17777.35	16892.95
925.7134	1933.1207	17763.15	16876.45
925.852	1934.7383	17709.6	16824.05
925.9906	1936.3552	17646.1	16761.65
926.1292	1937.9714	17602.2	16716.95
926.2678	1939.5868	17550.25	16663.25
926.4064	1941.2015	17448.1	16560.4
926.5449	1942.8154	17395.2	16508.35
926.6834	1944.4286	17328.75	16442.6
926.8219	1946.041	17275.45	16368.8
926.9604	1947.6528	17176.45	16284.85
927.0988	1949.2637	17140.2	16254.05
927.2372	1950.8739	17105.4	16220.4
927.3756	1952.4834	17054.4	16170.05
927.514	1954.0921	17046.15	16160.2
927.6523	1955.7001	16973.85	16084.4
927.7907	1957.3074	16934.1	16049.25
927.929	1958.9139	16854.6	15971.25
928.0673	1960.5197	16798.3	15913.05
928.2055	1962.1247	16711.35	15828.3
928.3438	1963.729	16630.85	15748.15
928.482	1965.3325	16607.7	15700.55
928.6202	1966.9353	16583.7	15699.9
928.7584	1968.5374	16511.1	15626.2
928.8965	1970.1387	16450.3	15565.75
929.0346	1971.7393	16384.7	15498.75
929.1727	1973.3392	16354.4	15471.4
929.3108	1974.9383	16244.6	15362.35
929.4489	1976.5366	16223.25	15340.05
929.5869	1978.1342	16201.25	15318.3
929.7249	1979.7311	16143.7	15258.25
929.8629	1981.3273	16103.15	15220.8
930.0009	1982.9227	16051.25	15166.1
930.1388	1984.5173	15991.2	15108.6
930.2767	1986.1112	15916.15	15032.7
930.4146	1987.7044	15890.5	15008.5
930.5525	1989.2968	15865.85	14981.35
930.6904	1990.8885	15834.65	14947.8
930.8282	1992.4795	15797.5	14913.6
930.966	1994.0697	15725.7	14843.95
931.1038	1995.6592	15688.85	14807.15
931.2415	1997.2479	15626.85	14745.6
931.3793	1998.8359	15593.5	14709.25
931.517	2000.4232	15536.65	14655.25
931.6547	2002.0097	15491.6	14612.2
931.7923	2003.5955	15429.05	14547.3
931.93	2005.1805	15418.9	14536.75
932.0676	2006.7648	15370.15	14488.35
932.2052	2008.3484	15314.3	14433
932.3427	2009.9312	15325.9	14441.5
932.4803	2011.5133	15254.8	14375.5
932.6178	2013.0946	15238.2	14357.85
932.7553	2014.6752	15178.7	14297.75
932.8928	2016.2551	15148.5	14266.65
933.0302	2017.8342	15079.75	14198.7
933.1676	2019.4126	15010	14130.1
933.305	2020.9902	14971.7	14091.2
933.4424	2022.5672	14961.05	14078.2
933.5798	2024.1433	14903	14017.05
933.7171	2025.7188	14854.9	13975.4
933.8544	2027.2935	14789.9	13908.9
933.9917	2028.8674	14753.55	13873.6
934.129	2030.4406	14717	13835.75
934.2662	2032.0131	14620.2	13739.75
934.4034	2033.5849	14593.7	13708.2
934.5406	2035.1559	14577.35	13697.35
934.6778	2036.7261	14567.8	13687.9
934.8149	2038.2957	14516.55	13634.8
934.952	2039.8645	14483.25	13600.5
935.0891	2041.4325	14467.1	13583.3
935.2262	2042.9998	14408.15	13527
935.3632	2044.5664	14381.65	13498.75
935.5002	2046.1323	14311.15	13431.9
935.6372	2047.6974	14289.85	13411.5
935.7742	2049.2617	14241.95	13360.95
935.9111	2050.8254	14245	13360.6
936.048	2052.3883	14216.15	13334.85
936.1849	2053.9504	14143.1	13261.2
936.3218	2055.5118	14119.65	13238.6
936.4586	2057.0725	14066.45	13179.6
936.5955	2058.6325	14029.7	13147.5
936.7323	2060.1917	14000.95	13120.85
936.869	2061.7502	13984.3	13099
937.0058	2063.3079	13893.7	13014.75
937.1425	2064.8649	13870.15	12986.55
937.2792	2066.4212	13810.6	12929.4
937.4159	2067.9767	13781.2	12901.2
937.5525	2069.5315	13752.6	12872.35
937.6891	2071.0856	13685.35	12804.95
937.8257	2072.6389	13618.35	12738.9
937.9623	2074.1915	13573.2	12693.35
938.0989	2075.7433	13504.7	12621.85
938.2354	2077.2945	13471.1	12591.2
938.3719	2078.8448	13453.85	12570.65
938.5084	2080.3945	13412.65	12530.7
938.6448	2081.9434	13395.65	12514.15
938.7812	2083.4916	13338.1	12454.15
938.9176	2085.039	13303.65	12420.7
939.054	2086.5857	13287.6	12402.55
939.1903	2088.1317	13243.2	12359.15
939.3267	2089.677	13209.05	12326.05
939.463	2091.2215	13186.05	12300.8
939.5992	2092.7652	13146.85	12261.4
939.7355	2094.3083	13104.55	12218.8
939.8717	2095.8506	13085.1	12202.5
940.0079	2097.3921	13084	12202.9
940.1441	2098.933	13034.65	12153.1
940.2802	2100.4731	12997.85	12116.2
940.4163	2102.0124	12986.45	12087.1
940.5524	2103.5511	12941.8	12059.7
940.6885	2105.089	12918	12034.75
940.8245	2106.6261	12875.2	11991.95
940.9606	2108.1626	12844.45	11961
941.0965	2109.6983	12839.8	11928.85
941.2325	2111.2332	12805.2	11921.35
941.3684	2112.7675	12760.2	11875.9
941.5044	2114.301	12710.2	11825.2
941.6403	2115.8337	12679.1	11797.15
941.7761	2117.3657	12657.1	11775.9
941.912	2118.897	12638.05	11754.45
942.0478	2120.4276	12602.15	11711.7
942.1835	2121.9575	12537.7	11654.3
942.3193	2123.4866	12583.8	11683.55
942.455	2125.0149	12518.3	11630.95
942.5907	2126.5426	12457.35	11574.65
942.7264	2128.0695	12403.5	11519.25
942.8621	2129.5956	12385.25	11505.75
942.9977	2131.1211	12369.9	11484.35
943.1333	2132.6458	12349.55	11468.25
943.2689	2134.1698	12310.05	11426
943.4044	2135.693	12276.7	11390.35
943.54	2137.2155	12232.7	11347.55
943.6755	2138.7373	12222.25	11338.25
943.8109	2140.2584	12174.4	11293.1
943.9464	2141.7787	12101.45	11215
944.0818	2143.2983	12099.8	11221.35
944.2172	2144.8171	12033.5	11153.2
944.3526	2146.3353	11997.55	11115.3
944.4879	2147.8527	11944.2	11064.45
944.6232	2149.3693	11957.65	11074.9
944.7585	2150.8853	11898	11014.55
944.8938	2152.4005	11874.05	10990.95
945.029	2153.9149	11843.15	10959.8
945.1642	2155.4287	11793.65	10912.85
945.2994	2156.9417	11780.65	10898.05
945.4346	2158.454	11760.2	10876.05
945.5697	2159.9655	11702.25	10822.05
945.7048	2161.4764	11684.5	10802.85
945.8399	2162.9865	11640.55	10760
945.9749	2164.4958	11667.2	10784.7
946.1099	2166.0045	11605.05	10719.6
946.2449	2167.5124	11602.65	10719.6
946.3799	2169.0195	11536	10653.05
946.5148	2170.526	11529.75	10647.3
946.6498	2172.0317	11486.7	10602.55
946.7846	2173.5367	11439.8	10557.05
946.9195	2175.0409	11413.15	10530.9
947.0543	2176.5445	11414.1	10533
947.1891	2178.0473	11352	10466.95
947.3239	2179.5494	11305.05	10418.55
947.4587	2181.0507	11264.2	10381.65
947.5934	2182.5513	11221.7	10338.4
947.7281	2184.0512	11235.15	10351.6
947.8628	2185.5504	11167.25	10284
947.9974	2187.0488	11125.55	10245.1
948.132	2188.5465	11088	10207.25
948.2666	2190.0435	11055.7	10172.35
948.4012	2191.5397	11035.9	10153.15
948.5357	2193.0353	11004.95	10122.2
948.6702	2194.5301	10931.15	10045
948.8047	2196.0241	10919.2	10034.25
948.9392	2197.5175	10881.05	9996.8
949.0736	2199.0101	10841.6	9954.2
949.208	2200.502	10800.35	9919.6
949.3424	2201.9931	10755.2	9873.7
949.4767	2203.4835	10748.8	9865.8
949.611	2204.9733	10716.25	9829.6
949.7453	2206.4622	10675.25	9793.15
949.8796	2207.9505	10647	9763.85
950.0138	2209.438	10595.2	9715.55
950.148	2210.9248	10578.7	9698.05
950.2822	2212.4109	10521.1	9638.5
950.4164	2213.8962	10495.5	9608.35
950.5505	2215.3809	10472.25	9586.6
950.6846	2216.8648	10459.1	9573.4
950.8186	2218.3479	10412.25	9523.35
950.9527	2219.8304	10364.7	9475.75
951.0867	2221.3121	10332.8	9445.7
951.2207	2222.7931	10316.6	9434.9
951.3546	2224.2733	10279.85	9393
951.4886	2225.7529	10248.35	9363.45
951.6225	2227.2317	10226.15	9341.1
951.7563	2228.7098	10211.35	9330.25
951.8902	2230.1872	10145.25	9262.7
952.024	2231.6638	10131.3	9251.75
952.1578	2233.1397	10087.85	9201.05
952.2916	2234.6149	10062.1	9179.7
952.4253	2236.0894	10019.95	9137.85
952.559	2237.5632	9999.5	9107.35
952.6927	2239.0362	9936.7	9053
952.8263	2240.5085	9942.4	9062.7
952.9599	2241.9801	9907	9023.55
953.0935	2243.4509	9887.15	9003.15
953.2271	2244.921	9823	8939.85
953.3606	2246.3904	9799.2	8913.55
953.4941	2247.8591	9764.95	8881.95
953.6276	2249.3271	9753.25	8869.4
953.7611	2250.7943	9684.5	8800.3
953.8945	2252.2608	9687.15	8804.35
954.0279	2253.7266	9665.7	8781.9
954.1612	2255.1917	9627.9	8743.35
954.2946	2256.656	9614.5	8732.5
954.4279	2258.1197	9582.15	8702
954.5612	2259.5826	9542.9	8658.15
954.6944	2261.0447	9516.3	8632.7
954.8276	2262.5062	9467.65	8583.2
954.9608	2263.9669	9458.55	8572.35
955.094	2265.4269	9436.15	8554.05
955.2271	2266.8862	9421.45	8539.25
955.3602	2268.3448	9419.4	8535.55
955.4933	2269.8026	9401.1	8517.3
955.6264	2271.2598	9372.85	8490.95
955.7594	2272.7162	9338	8453.95
955.8924	2274.1719	9295.85	8411.7
956.0253	2275.6268	9259.15	8374
956.1583	2277.0811	9268.7	8385.55
956.2912	2278.5346	9236.9	8355.55
956.4241	2279.9874	9222.4	8341
956.5569	2281.4395	9208.15	8327.25
956.6897	2282.8908	9162.5	8275.35
956.8225	2284.3414	9134.65	8249.4
956.9553	2285.7914	9101.05	8218
957.088	2287.2406	9089.55	8205.6
957.2207	2288.689	9077.25	8193.35
957.3534	2290.1368	9022.7	8136.3
957.486	2291.5838	8997.3	8110.7
957.6186	2293.0302	8974.45	8087.95
957.7512	2294.4758	8927.9	8043
957.8838	2295.9206	8902.6	8016.25
958.0163	2297.3648	8869.6	7987.25
958.1488	2298.8082	8882.8	7999.45
958.2813	2300.251	8849.4	7965.2
958.4137	2301.693	8818.35	7931.9
958.5461	2303.1343	8823.6	7938.45
958.6785	2304.5748	8778.1	7895.95
958.8108	2306.0147	8721.85	7839.1
958.9432	2307.4538	8712.9	7827.55
959.0754	2308.8922	8701.3	7819
959.2077	2310.3299	8660.1	7777.3
959.3399	2311.7669	8645.95	7761.35
959.4721	2313.2031	8626.1	7742.95
959.6043	2314.6387	8594	7708.95
959.7365	2316.0735	8577.25	7694.3
959.8686	2317.5076	8551.5	7666
960.0006	2318.941	8518.25	7635.85
960.1327	2320.3737	8495.25	7611.65
960.2647	2321.8056	8483.75	7595.95
960.3967	2323.2369	8466.65	7582.5
960.5287	2324.6674	8439.1	7554.9
960.6606	2326.0972	8411.75	7527.05
960.7925	2327.5263	8364.05	7481.3
960.9244	2328.9547	8323.7	7440.15
961.0562	2330.3823	8315.2	7432.4
961.1881	2331.8092	8327.15	7440.05
961.3198	2333.2355	8291.35	7407.45
961.4516	2334.661	8273.05	7388.7
961.5833	2336.0858	8259.7	7372.8
961.715	2337.5098	8231.95	7346.95
961.8467	2338.9332	8227.95	7342.75
961.9783	2340.3558	8183.45	7298.8
962.1099	2341.7778	8145.1	7261.25
962.2415	2343.199	8124.1	7237.7
962.373	2344.6195	8087.05	7205.9
962.5045	2346.0393	8064.6	7181.9
962.636	2347.4583	8060.3	7177.45
962.7675	2348.8767	8029.55	7144.85
962.8989	2350.2943	8020.6	7135.65
963.0303	2351.7113	8001.5	7115.95
963.1617	2353.1275	7973.4	7087.85
963.293	2354.543	7957.65	7062.15
963.4243	2355.9578	7937.95	7053.05
963.5556	2357.3718	7874.5	6991.3
963.6868	2358.7852	7834.75	6948.15
963.818	2360.1978	7823.1	6939.5
963.9492	2361.6098	7800.75	6919.25
964.0803	2363.021	7779.2	6892.9
964.2114	2364.4315	7764.55	6883.35
964.3425	2365.8413	7744.45	6859.75
964.4736	2367.2504	7715.55	6833.15
964.6046	2368.6587	7669.9	6787.95
964.7356	2370.0664	7661.75	6778.4
964.8666	2371.4733	7616.05	6732.8
964.9975	2372.8795	7604.7	6720.65
965.1284	2374.285	7595.55	6711.95
965.2593	2375.6899	7539.8	6658.3
965.3901	2377.0939	7502.95	6621.2
965.5209	2378.4973	7477.8	6595.5
965.6517	2379.9	7458.65	6574.5
965.7825	2381.3019	7451.4	6570.5
965.9132	2382.7032	7411.5	6529.15
966.0439	2384.1037	7395.3	6515.8
966.1745	2385.5035	7384.2	6503.15
966.3051	2386.9027	7360.4	6479.35
966.4357	2388.3011	7338.9	6454.15
966.5663	2389.6987	7309.75	6427.65
966.6968	2391.0957	7291.55	6409.45
966.8273	2392.492	7259.65	6379.05
966.9578	2393.8876	7220.9	6336.35
967.0882	2395.2824	7172.1	6290.8
967.2186	2396.6765	7173.1	6290.25
967.349	2398.07	7124.15	6243.95
967.4793	2399.4627	7123.6	6239
967.6097	2400.8547	7100.85	6215.75
967.7399	2402.246	7086.1	6194.9
967.8702	2403.6366	7056.35	6173.55
968.0004	2405.0265	7033.3	6151.2
968.1306	2406.4156	7016.9	6129.4
968.2607	2407.8041	6967.2	6080.75
968.3909	2409.1918	6948.55	6063
968.521	2410.5789	6920.95	6039
968.651	2411.9652	6882.15	5995.3
968.781	2413.3508	6872.75	5989.55
968.911	2414.7358	6855.75	5972.2
969.041	2416.12	6820.05	5936.35
969.1709	2417.5035	6821.6	5939.6
969.3008	2418.8863	6783.7	5898.9
969.4307	2420.2684	6783.75	5902.95
969.5606	2421.6497	6738.95	5855.9
969.6904	2423.0304	6732.3	5849.1
969.8201	2424.4104	6690.7	5806.6
969.9499	2425.7896	6659.25	5775.7
970.0796	2427.1682	6654.6	5770.8
970.2093	2428.546	6644.15	5759.55
970.3389	2429.9232	6617.15	5733.05
970.4685	2431.2996	6610.65	5728.35
970.5981	2432.6753	6600.9	5719.1
970.7277	2434.0503	6575.75	5691.75
970.8572	2435.4246	6547.25	5663.15
970.9867	2436.7982	6552.25	5665.8
971.1161	2438.1711	6511.25	5630.8
971.2456	2439.5433	6494.6	5607.75
971.375	2440.9148	6469.75	5583.4
971.5043	2442.2856	6429.6	5548.4
971.6336	2443.6557	6429.05	5545.45
971.7629	2445.025	6393.95	5511.05
971.8922	2446.3937	6385.65	5502.9
972.0214	2447.7617	6373.25	5488
972.1506	2449.1289	6367.05	5483.8
972.2798	2450.4955	6363.7	5474.3
972.4089	2451.8613	6330.3	5448.35
972.538	2453.2265	6304.8	5421
972.6671	2454.5909	6303.3	5419.75
972.7961	2455.9546	6278.6	5396.3
972.9251	2457.3177	6256.05	5374.3
973.0541	2458.68	6225.95	5341.25
973.1831	2460.0416	6217.35	5333.4
973.312	2461.4025	6216.05	5330.9
973.4408	2462.7627	6201.45	5308.15
973.5697	2464.1222	6164.7	5283
973.6985	2465.4811	6159.15	5276.45
973.8273	2466.8392	6153.65	5268.45
973.956	2468.1966	6127.35	5242.35
974.0847	2469.5533	6126.45	5242.1
974.2134	2470.9093	6099.1	5214.7
974.3421	2472.2645	6094.1	5207.25
974.4707	2473.6191	6057.65	5176.15
974.5993	2474.973	6029.55	5146.45
974.7278	2476.3262	6027.65	5144.85
974.8563	2477.6787	6006.8	5122.4
974.9848	2479.0305	5964.4	5082.45
975.1132	2480.3816	5940.25	5055.15
975.2417	2481.7319	5932.6	5049.35
975.37	2483.0816	5912.8	5027.35
975.4984	2484.4306	5887.55	5005.2
975.6267	2485.7789	5870.9	4987.9
975.755	2487.1264	5839.4	4955.05
975.8833	2488.4733	5833.65	4952.95
976.0115	2489.8195	5807.45	4918.05
976.1397	2491.165	5786.85	4901.85
976.2678	2492.5097	5770.95	4886.2
976.3959	2493.8538	5752.95	4869.35
976.524	2495.1972	5722.15	4837.85
976.6521	2496.5398	5702.65	4817.35
976.7801	2497.8818	5693.15	4807.55
976.9081	2499.2231	5670.6	4787.2
977.036	2500.5637	5665.8	4780.5
977.164	2501.9035	5659.45	4775.4
977.2918	2503.2427	5656.1	4768.95
977.4197	2504.5812	5621.75	4739
977.5475	2505.919	5620	4734.25
977.6753	2507.256	5597.6	4713.3
977.8031	2508.5924	5570.45	4685.95
977.9308	2509.9281	5551.45	4661.8
978.0585	2511.2631	5547.7	4664.4
978.1861	2512.5974	5543.1	4659.2
978.3137	2513.9309	5508.45	4624.2
978.4413	2515.2638	5511.4	4595
978.5689	2516.596	5488.35	4605.6
978.6964	2517.9275	5432.9	4548.15
978.8239	2519.2583	5432.5	4547.2
978.9513	2520.5884	5411.75	4528.65
979.0788	2521.9178	5395.55	4512.9
979.2062	2523.2465	5403.25	4522.45
979.3335	2524.5745	5356.4	4473.65
979.4608	2525.9018	5333.45	4449.65
979.5881	2527.2284	5318.55	4436.3
979.7154	2528.5543	5311.25	4427.05
979.8426	2529.8796	5298.6	4414.95
979.9698	2531.2041	5273.7	4389.35
980.0969	2532.5279	5267.4	4383.5
980.224	2533.851	5271.2	4386.45
980.3511	2535.1735	5253.3	4371.25
980.4781	2536.4952	5240.1	4354.55
980.6052	2537.8163	5240.1	4356
980.7321	2539.1366	5223.5	4342.2
980.8591	2540.4562	5196.3	4310.95
980.986	2541.7752	5200	4317.55
981.1129	2543.0935	5174.6	4292.65
981.2397	2544.411	5165.15	4283.2
981.3665	2545.7279	5160.15	4275.4
981.4933	2547.0441	5167.85	4285.4
981.62	2548.3596	5154	4267.55
981.7467	2549.6744	5139.5	4257.35
981.8734	2550.9885	5121.45	4230.65
982.0001	2552.3019	5119.9	4236.3
982.1267	2553.6146	5085.65	4200.3
982.2532	2554.9266	5079	4196.85
982.3798	2556.2379	5059.35	4174.05
982.5063	2557.5485	5055.8	4172.6
982.6327	2558.8585	5043.2	4152.2
982.7592	2560.1677	5032.3	4145.45
982.8856	2561.4762	5016.5	4132.65
983.0119	2562.7841	5010.8	4126.2
983.1383	2564.0913	5006.35	4125.15
983.2646	2565.3977	4974.8	4091.1
983.3908	2566.7035	4956.9	4072.6
983.517	2568.0086	4964.1	4077.2
983.6432	2569.313	4977.9	4095.5
983.7694	2570.6167	4956.9	4070.1
983.8955	2571.9197	4946.5	4063.05
984.0216	2573.222	4945.55	4058.2
984.1476	2574.5236	4919.85	4036.8
984.2737	2575.8246	4896.5	4011.6
984.3996	2577.1248	4897.3	4011.2
984.5256	2578.4244	4892.45	4008.25
984.6515	2579.7232	4883	3999.6
984.7774	2581.0214	4896.9	3989.65
984.9032	2582.3189	4872.55	3990.35
985.029	2583.6157	4859.45	3971.3
985.1548	2584.9118	4846.1	3962.95
985.2806	2586.2072	4832.1	3951.5
985.4063	2587.5019	4815.4	3932.8
985.5319	2588.7959	4805.6	3921.35
985.6576	2590.0893	4808.35	3924.4
985.7832	2591.3819	4813.55	3930.4
985.9087	2592.6739	4760.15	3878.05
986.0343	2593.9652	4755.35	3870.3
986.1597	2595.2557	4744.35	3861.3
986.2852	2596.5456	4718.35	3833.9
986.4106	2597.8348	4697.8	3814.8
986.536	2599.1234	4689.1	3806.55
986.6614	2600.4112	4673.75	3790.9
986.7867	2601.6983	4649.75	3763
986.912	2602.9848	4650.95	3767.8
987.0372	2604.2705	4615.85	3724.3
987.1624	2605.5556	4617.35	3734.05
987.2876	2606.84	4599.2	3715.55
987.4128	2608.1237	4599.65	3715.2
987.5379	2609.4067	4559.75	3676.1
987.6629	2610.689	4568.15	3676.65
987.788	2611.9707	4543.85	3656
987.913	2613.2516	4514.95	3626.45
988.0379	2614.5319	4492.55	3608.9
988.1629	2615.8115	4486.9	3604.9
988.2878	2617.0903	4463	3579.6
988.4126	2618.3685	4451.2	3567.45
988.5375	2619.6461	4450.85	3566.85
988.6622	2620.9229	4431.95	3547.85
988.787	2622.199	4423.65	3540.35
988.9117	2623.4745	4410.15	3524.65
989.0364	2624.7493	4401.5	3520.3
989.161	2626.0234	4385.7	3503.85
989.2857	2627.2968	4367.65	3483.9
989.4102	2628.5695	4353.9	3470.65
989.5348	2629.8415	4342.5	3458.6
989.6593	2631.1128	4313.85	3430.45
989.7837	2632.3835	4313	3430.3
989.9082	2633.6535	4293.95	3409.55
990.0326	2634.9228	4297.95	3416.85
990.1569	2636.1914	4274.35	3393.75
990.2812	2637.4593	4281.05	3393.75
990.4055	2638.7265	4244	3360.25
990.5298	2639.9931	4236.2	3353
990.654	2641.259	4219.75	3337
990.7782	2642.5242	4224.7	3341.2
990.9023	2643.7887	4203.75	3321.55
991.0264	2645.0525	4195.4	3312.75
991.1505	2646.3156	4171.35	3287.4
991.2745	2647.5781	4176.4	3294.8
991.3985	2648.8398	4145.4	3262.6
991.5225	2650.1009	4165.55	3244.3
991.6464	2651.3613	4130.2	3247.15
991.7703	2652.6211	4137.75	3253.8
991.8942	2653.8801	4116.15	3234.5
992.018	2655.1385	4107.3	3221.2
992.1418	2656.3961	4071.15	3188.35
992.2655	2657.6531	4072.5	3189.1
992.3892	2658.9094	4064.85	3182.9
992.5129	2660.1651	4059.35	3176.1
992.6366	2661.42	4050.75	3166.4
992.7602	2662.6743	4059.85	3176.85
992.8837	2663.9279	4051.3	3170.35
993.0073	2665.1808	4035.2	3151.7
993.1307	2666.433	4031.9	3148.7
993.2542	2667.6846	4008	3125.95
993.3776	2668.9354	3999.9	3113.9
993.501	2670.1856	3981.6	3099.2
993.6244	2671.4351	3980.3	3098.85
993.7477	2672.6839	3974.75	3091.3
993.8709	2673.9321	3955.6	3073
993.9942	2675.1795	3947.35	3065
994.1174	2676.4263	3921.7	3037.85
994.2405	2677.6724	3909.9	3026.5
994.3637	2678.9179	3910.8	3027.85
994.4868	2680.1626	3909	3026.85
994.6098	2681.4067	3893.1	3010.4
994.7328	2682.6501	3879.45	2996.15
994.8558	2683.8928	3868.8	2988.3
994.9788	2685.1348	3847.2	2965.75
995.1017	2686.3761	3833	2951.35
995.2245	2687.6168	3841.5	2959.05
995.3474	2688.8568	3825.75	2941.05
995.4702	2690.0961	3800.05	2918.9
995.5929	2691.3348	3813.15	2929.1
995.7156	2692.5727	3799.95	2915
995.8383	2693.81	3791.45	2911.15
995.961	2695.0466	3785.65	2902.5
996.0836	2696.2826	3771.15	2886.75
996.2062	2697.5178	3787.55	2884.4
996.3287	2698.7524	3743.45	2862.45
996.4512	2699.9863	3738.3	2854.5
996.5737	2701.2195	3729.6	2847.3
996.6961	2702.452	3722.2	2838.65
996.8185	2703.6839	3713.6	2830.8
996.9408	2704.9151	3700.3	2817.65
997.0631	2706.1456	3691.8	2809.6
997.1854	2707.3755	3671.75	2786.15
997.3077	2708.6046	3683.35	2798.85
997.4299	2709.8331	3664.25	2779.95
997.552	2711.0609	3640.3	2756.55
997.6742	2712.2881	3646.5	2764.25
997.7963	2713.5145	3633.3	2747.25
997.9183	2714.7403	3624.5	2742.45
998.0403	2715.9654	3603.05	2718.4
998.1623	2717.1899	3590.5	2706.45
998.2842	2718.4136	3607.55	2725.15
998.4062	2719.6367	3600.9	2717.65
998.528	2720.8591	3596.35	2706.5
998.6498	2722.0809	3575.3	2693.75
998.7716	2723.3019	3574.95	2686.85
998.8934	2724.5223	3567.15	2682.3
999.0151	2725.7421	3545.55	2662.45
999.1368	2726.9611	3538.55	2652.7
999.2584	2728.1795	3527.35	2639.9
999.38	2729.3972	3509.8	2627.95
999.5016	2730.6142	3507.15	2618.25
999.6231	2731.8306	3493	2607.35
999.7446	2733.0462	3467.45	2584
999.8661	2734.2612	3469.45	2583.5
999.9875	2735.4756	3443.35	2558.85
1000.1089	2736.6892	3414.75	2532
1000.2302	2737.9022	3407.7	2527.85
1000.3515	2739.1145	3398.35	2513.75
1000.4728	2740.3262	3395.6	2505.3
1000.594	2741.5372	3371.35	2491.25
1000.7152	2742.7475	3361.95	2479.1
1000.8363	2743.9571	3369.3	2487
1000.9575	2745.1661	3349.3	2462.05
1001.0785	2746.3744	3319.75	2436
1001.1996	2747.582	3315.55	2432.5
1001.3206	2748.7889	3311.45	2428.95
1001.4415	2749.9952	3285.85	2400.3
1001.5625	2751.2008	3296.2	2412.95
1001.6833	2752.4057	3286.3	2401.6
1001.8042	2753.61	3272.8	2391.45
1001.925	2754.8136	3252.1	2366.9
1002.0458	2756.0165	3255.4	2373.75
1002.1665	2757.2188	3240.5	2358.05
1002.2872	2758.4204	3223.8	2343.1
1002.4078	2759.6213	3220.35	2334.15
1002.5285	2760.8215	3225.6	2338.45
1002.649	2762.0211	3215.85	2331.1
1002.7696	2763.22	3202.15	2319.8
1002.8901	2764.4182	3187.5	2306.1
1003.0106	2765.6158	3186.5	2303.6
1003.131	2766.8127	3164.4	2279.7
1003.2514	2768.009	3160.5	2277.85
1003.3717	2769.2045	3138.2	2256.35
1003.492	2770.3994	3141.65	2260.3
1003.6123	2771.5936	3137.85	2255.8
1003.7325	2772.7872	3140.05	2258.15
1003.8527	2773.9801	3112.55	2227.95
1003.9729	2775.1723	3129.8	2231.25
1004.093	2776.3639	3095.3	2215.95
1004.2131	2777.5548	3082.7	2200.55
1004.3331	2778.745	3088.95	2205.85
1004.4531	2779.9346	3060.05	2177.6
1004.5731	2781.1235	3058.55	2173.95
1004.693	2782.3117	3065.1	2184.5
1004.8129	2783.4992	3051.85	2170.8
1004.9328	2784.6861	3033.5	2151.75
1005.0526	2785.8723	3036.45	2152.65
1005.1723	2787.0579	3032.45	2149.65
1005.2921	2788.2428	3018.95	2138.3
1005.4118	2789.427	3011.4	2131.7
1005.5314	2790.6106	2997.05	2114.05
1005.651	2791.7935	2989.4	2105.85
1005.7706	2792.9757	2971.2	2090.35
1005.8902	2794.1573	2979.3	2096.35
1006.0097	2795.3382	2972.05	2092.65
1006.1291	2796.5184	2966.95	2087.8
1006.2485	2797.698	2974.95	2091.1
1006.3679	2798.8769	2968.5	2086.5
1006.4873	2800.0551	2950.65	2066.85
1006.6066	2801.2327	2954.25	2069.15
1006.7258	2802.4096	2943.15	2062.55
1006.8451	2803.5859	2940.5	2057.3
1006.9642	2804.7615	2943.6	2061.3
1007.0834	2805.9364	2939.3	2058.05
1007.2025	2807.1106	2939.1	2058.6
1007.3216	2808.2842	2940.85	2058.45
1007.4406	2809.4572	2939.15	2058.7
1007.5596	2810.6294	2929.8	2047.25
1007.6785	2811.801	2945.25	2065.15
1007.7975	2812.972	2942.7	2061.9
1007.9163	2814.1423	2949.45	2067.4
1008.0352	2815.3119	2962.65	2080
1008.154	2816.4808	2968.65	2089
1008.2727	2817.6491	2971.8	2088.9
1008.3914	2818.8167	2979.85	2100.85
1008.5101	2819.9837	3004.7	2118.05
1008.6288	2821.15	3006.3	2126.25
1008.7474	2822.3157	3011.85	2132
1008.8659	2823.4807	3038.25	2156.2
1008.9844	2824.645	3036.25	2152.95
1009.1029	2825.8086	3041.45	2160.7
1009.2214	2826.9716	3063	2183.4
1009.3398	2828.134	3083.95	2203.55
1009.4581	2829.2957	3084.6	2205.05
1009.5764	2830.4567	3089	2206.3
1009.6947	2831.617	3084.45	2203.45
1009.813	2832.7767	3084.8	2203.7
1009.9312	2833.9358	3086.05	2206.2
1010.0493	2835.0941	3074.65	2190.75
1010.1675	2836.2519	3074.3	2193.05
1010.2855	2837.4089	3061.25	2179.75
1010.4036	2838.5653	3048.75	2167.75
1010.5216	2839.7211	3043.3	2162.35
1010.6396	2840.8761	3027.9	2145.4
1010.7575	2842.0306	3026.4	2147.85
1010.8754	2843.1843	3026.95	2144.65
1010.9932	2844.3374	3040.45	2159.65
1011.111	2845.4899	3049.4	2167
1011.2288	2846.6417	3074.5	2194.5
1011.3465	2847.7928	3083.3	2201.15
1011.4642	2848.9433	3081.05	2197.9
1011.5818	2850.0931	3105.2	2225.15
1011.6995	2851.2422	3109.95	2227.3
1011.817	2852.3907	3127.9	2248.7
1011.9345	2853.5385	3152.75	2269.65
1012.052	2854.6857	3150.8	2262.75
1012.1695	2855.8323	3160.85	2281.45
1012.2869	2856.9781	3168.3	2287.5
1012.4042	2858.1233	3172.05	2291.8
1012.5216	2859.2679	3182.35	2300.65
1012.6389	2860.4118	3194.8	2315.3
1012.7561	2861.555	3207.15	2320.6
1012.8733	2862.6976	3209.9	2328
1012.9905	2863.8395	3211.55	2329.9
1013.1076	2864.9808	3199.1	2317.65
1013.2247	2866.1214	3206.9	2327.15
1013.3417	2867.2614	3222.4	2340.7
1013.4587	2868.4007	3211.6	2331
1013.5757	2869.5393	3209.3	2325.85
1013.6926	2870.6773	3211.5	2328.9
1013.8095	2871.8146	3208.05	2323.95
1013.9263	2872.9513	3195.85	2311.6
1014.0431	2874.0874	3187.4	2306.35
1014.1599	2875.2227	3164.6	2284.2
1014.2766	2876.3574	3154	2275.5
1014.3933	2877.4915	3139.65	2259.85
1014.51	2878.6249	3137	2256.7
1014.6266	2879.7577	3123.25	2241.3
1014.7431	2880.8898	3115.25	2222.95
1014.8596	2882.0212	3097.15	2218.4
1014.9761	2883.152	3093.65	2213.55
1015.0925	2884.2821	3075.9	2195.65
1015.2089	2885.4116	3061.8	2182.05
1015.3253	2886.5405	3059.05	2179.55
1015.4416	2887.6686	3060.3	2177.2
1015.5579	2888.7962	3057.25	2177.8
1015.6741	2889.923	3037.65	2156.85
1015.7903	2891.0493	3049.35	2169.65
1015.9065	2892.1748	3044.1	2163.75
1016.0226	2893.2997	3033.6	2151.5
1016.1387	2894.424	3020.85	2143.7
1016.2547	2895.5476	3025.55	2144.9
1016.3707	2896.6706	3022.45	2142.75
1016.4866	2897.7929	3035.3	2151.6
1016.6025	2898.9145	3030.55	2148.45
1016.7184	2900.0355	3033.05	2150.8
1016.8342	2901.1559	3037.75	2156.85
1016.95	2902.2756	3037.25	2154.85
1017.0658	2903.3946	3052.25	2171.95
1017.1815	2904.513	3047	2164.85
1017.2971	2905.6308	3056.85	2177.1
1017.4127	2906.7479	3049.35	2168.55
1017.5283	2907.8643	3040.6	2158.75
1017.6439	2908.9801	3035.4	2157.05
1017.7594	2910.0953	3041.85	2158.7
1017.8748	2911.2098	3034.3	2151.3
1017.9902	2912.3236	3028.5	2139.1
1018.1056	2913.4368	3025.95	2142.75
1018.2209	2914.5494	3007.55	2126.5
1018.3362	2915.6613	2980.15	2095
1018.4515	2916.7725	2981.5	2099.1
1018.5667	2917.8831	2967.2	2083.25
1018.6819	2918.9931	2959.55	2074.8
1018.797	2920.1024	2930.2	2046.4
1018.9121	2921.211	2926.8	2045.4
1019.0271	2922.319	2914.2	2032.85
1019.1421	2923.4264	2902.95	2023.05
1019.2571	2924.5331	2903.6	2024.95
1019.372	2925.6391	2887.9	2009.2
1019.4869	2926.7445	2877.15	1997.2
1019.6017	2927.8493	2881	2002.55
1019.7165	2928.9534	2866.75	1985.55
1019.8313	2930.0569	2874.75	1990.55
1019.946	2931.1597	2872.25	1990.35
1020.0606	2932.2619	2871.55	1991.85
1020.1753	2933.3634	2865.75	1984.6
1020.2899	2934.4643	2862.95	1974.35
1020.4044	2935.5645	2844	1956.15
1020.5189	2936.6641	2854.15	1969.05
1020.6334	2937.763	2826	1944.8
1020.7478	2938.8613	2808.65	1929.8
1020.8622	2939.959	2781.95	1895.25
1020.9765	2941.056	2768.55	1890
1021.0908	2942.1523	2736.65	1855.7
1021.2051	2943.248	2704.55	1823.4
1021.3193	2944.3431	2676.15	1794.6
1021.4334	2945.4375	2631.85	1750.85
1021.5476	2946.5313	2593.25	1712.45
1021.6617	2947.6244	2570.55	1692.85
1021.7757	2948.7169	2522.95	1641.35
1021.8897	2949.8087	2492.55	1611.75
1022.0037	2950.8999	2450.05	1569.3
1022.1176	2951.9904	2434	1553.95
1022.2315	2953.0803	2406.6	1526.7
1022.3453	2954.1696	2381.35	1499
1022.4591	2955.2582	2356.7	1478.75
1022.5728	2956.3462	2336.1	1455.9
1022.6865	2957.4335	2323.05	1442.65
1022.8002	2958.5202	2303.25	1422.1
1022.9138	2959.6062	2279.85	1398.65
1023.0274	2960.6916	2279.1	1398.6
1023.141	2961.7764	2274.45	1392.3
1023.2545	2962.8605	2266.2	1385.95
1023.3679	2963.9439	2257.6	1375.85
1023.4813	2965.0267	2245.05	1363.1
1023.5947	2966.1089	2260.65	1357.15
1023.708	2967.1905	2232.55	1351.3
1023.8213	2968.2714	2218.7	1338.9
1023.9346	2969.3516	2226.55	1346.8
1024.0478	2970.4312	2221.5	1333.65
1024.1609	2971.5102	2211.5	1330.85
1024.274	2972.5885	2205.6	1324.55
1024.3871	2973.6662	2210.05	1325.2
1024.5002	2974.7432	2201.2	1324.65
1024.6132	2975.8196	2191.7	1310.55
1024.7261	2976.8954	2192.3	1312.9
1024.839	2977.9705	2186.5	1306.7
1024.9519	2979.045	2170.55	1290.8
1025.0647	2980.1188	2162.8	1283.9
1025.1775	2981.192	2152.4	1273.25
1025.2902	2982.2645	2143.1	1260
1025.4029	2983.3364	2133.9	1255.75
1025.5156	2984.4077	2118.1	1237.6
1025.6282	2985.4783	2106	1218.3
1025.7407	2986.5483	2100.05	1220.15
1025.8532	2987.6177	2076.1	1197.1
1025.9657	2988.6864	2061.3	1180.4
1026.0782	2989.7545	2049.45	1166.85
1026.1906	2990.8219	2039.8	1160
1026.3029	2991.8887	2020.25	1139.1
1026.4152	2992.9548	2011.85	1130.45
1026.5275	2994.0204	1993.4	1114
1026.6397	2995.0852	1983.8	1103.9
1026.7519	2996.1495	1972.2	1092.75
1026.864	2997.2131	1950.15	1070.4
1026.9761	2998.276	1945.75	1067.9
1027.0882	2999.3383	1940.85	1059.8
1027.2002	3000.4	1930.65	1050.95
1027.3122	3001.4611	1917.3	1035.55
1027.4241	3002.5215	1908.1	1027.35
1027.536	3003.5812	1904.25	1024.85
1027.6478	3004.6404	1891.8	1011.85
1027.7596	3005.6989	1887.2	1004.1
1027.8714	3006.7567	1879.05	997.8
1027.9831	3007.8139	1889.7	978.15
1028.0947	3008.8705	1864.65	984.35
1028.2064	3009.9264	1866.9	984.55
1028.3179	3010.9818	1851.85	971.7
1028.4295	3012.0364	1855.5	975.7
1028.541	3013.0905	1836.1	954.4
1028.6524	3014.1439	1839.5	957.85
1028.7638	3015.1966	1830.6	953.6
1028.8752	3016.2487	1822.55	941.15
1028.9865	3017.3002	1829.15	944.7
1029.0978	3018.3511	1820.6	942.4
1029.209	3019.4013	1811.8	933.8
1029.3202	3020.4509	1813.75	935.3
1029.4314	3021.4998	1811.9	930.85
1029.5425	3022.5481	1809.55	929.7
1029.6535	3023.5958	1792.5	914.1
1029.7645	3024.6428	1794.2	912.65
1029.8755	3025.6892	1783.05	904
1029.9864	3026.735	1791.25	909.1
1030.0973	3027.7802	1786.8	905.4
1030.2082	3028.8247	1778.1	898.55
1030.319	3029.8685	1771.3	891
1030.4297	3030.9118	1776.05	895.85
1030.5404	3031.9544	1768.5	887.6
1030.6511	3032.9963	1769.2	887.4
1030.7617	3034.0376	1762	883.55
1030.8723	3035.0783	1770.5	887.2
1030.9829	3036.1184	1764.75	884.85
1031.0934	3037.1578	1761.2	880.55
1031.2038	3038.1966	1761.05	880.05
1031.3142	3039.2348	1759.3	878.65
1031.4246	3040.2723	1763	873.4
1031.5349	3041.3092	1750.2	871.45
1031.6452	3042.3455	1730.05	850.2
1031.7554	3043.3811	1741.9	859.7
1031.8656	3044.4161	1730.1	848.95
1031.9758	3045.4505	1734.55	855.5
1032.0859	3046.4842	1730.3	848.2
1032.1959	3047.5173	1708.95	829.9
1032.3059	3048.5498	1717.1	838.7
1032.4159	3049.5816	1721	842.7
1032.5258	3050.6128	1721.9	841.45
1032.6357	3051.6434	1707.55	826.8
1032.7455	3052.6734	1711.55	829.9
1032.8553	3053.7027	1698.1	818.25
1032.9651	3054.7314	1696.6	816.4
1033.0748	3055.7594	1690.55	812.5
1033.1845	3056.7868	1686.75	806.35
1033.2941	3057.8136	1673.15	795.9
1033.4037	3058.8398	1678	799.3
1033.5132	3059.8653	1680.35	799.9
1033.6227	3060.8902	1677.15	798.2
1033.7321	3061.9145	1658.65	778.65
1033.8415	3062.9381	1660.65	781.6
1033.9509	3063.9612	1675.55	778.35
1034.0602	3064.9835	1655.8	775
1034.1694	3066.0053	1660.85	779.3
1034.2787	3067.0264	1653.4	774.3
1034.3878	3068.0469	1649.6	770.05
1034.497	3069.0668	1644.85	760.25
1034.6061	3070.086	1636.25	758.1
1034.7151	3071.1046	1631.4	750.4
1034.8241	3072.1226	1630.25	749.8
1034.9331	3073.1399	1626.4	748.25
1035.042	3074.1567	1615.5	735.3
1035.1508	3075.1727	1606.65	725.95
1035.2597	3076.1882	1608.5	730.1
1035.3684	3077.203	1606.25	727.05
1035.4772	3078.2173	1601.55	719.4
1035.5859	3079.2308	1598.25	715.6
1035.6945	3080.2438	1597.15	712.3
1035.8031	3081.2561	1586.9	707.5
1035.9117	3082.2678	1591.45	711
1036.0202	3083.2789	1575.25	697.3
1036.1286	3084.2893	1572	692.1
1036.2371	3085.2991	1570.55	690.9
1036.3454	3086.3083	1567.55	684.25
1036.4538	3087.3169	1561.25	682.45
1036.562	3088.3248	1559.5	677.15
1036.6703	3089.3321	1546.45	665.5
1036.7785	3090.3388	1541.85	662.4
1036.8866	3091.3449	1548.8	668.75
1036.9948	3092.3503	1546.25	662.1
1037.1028	3093.3551	1540.45	661.9
1037.2108	3094.3593	1532.35	653.85
1037.3188	3095.3629	1527.4	648.55
1037.4267	3096.3658	1528.5	648.7
1037.5346	3097.3681	1520.8	642
1037.6425	3098.3698	1516.6	633.2
1037.7503	3099.3708	1519.4	634
1037.858	3100.3713	1514.15	634.1
1037.9657	3101.3711	1515.25	636.35
1038.0734	3102.3702	1633.8	620.2
1038.181	3103.3688	1500	619.55
1038.2886	3104.3667	1490.8	613.1
1038.3961	3105.364	1500.6	619.8
1038.5036	3106.3607	1489.85	609.6
1038.611	3107.3568	1491.25	610.15
1038.7184	3108.3522	1483.9	606.35
1038.8257	3109.347	1475.85	595.85
1038.933	3110.3412	1479.1	596.1
1039.0403	3111.3348	1464.55	585.05
1039.1475	3112.3277	1463.7	583
1039.2547	3113.32	1457.1	578.75
1039.3618	3114.3117	1461.75	583.2
1039.4689	3115.3028	1455.1	577.55
1039.5759	3116.2932	1452.35	570.25
1039.6829	3117.2831	1458.4	572.8
1039.7898	3118.2723	1443.2	564.5
1039.8967	3119.2608	1444.55	566.3
1040.0035	3120.2488	1439.1	558.5
1040.1103	3121.2361	1439.25	559.45
1040.2171	3122.2229	1433.35	552.8
1040.3238	3123.209	1436.8	557.6
1040.4305	3124.1944	1425.35	547.25
1040.5371	3125.1793	1416.1	536.9
1040.6437	3126.1635	1418.2	538.5
1040.7502	3127.1471	1414.25	533.45
1040.8567	3128.1301	1418	539.55
1040.9631	3129.1125	1415.35	536.9
1041.0695	3130.0942	1416.05	534.8
1041.1759	3131.0753	1409.95	522.6
1041.2822	3132.0558	1407.4	524.85
1041.3884	3133.0357	1404.85	524.65
1041.4946	3134.015	1401.6	519.95
1041.6008	3134.9936	1400.4	518.15
1041.7069	3135.9716	1413	513.15
1041.813	3136.949	1392.15	510.3
1041.919	3137.9258	1394	509.6
1042.025	3138.902	1391.6	507.3
1042.1309	3139.8775	1392.45	513.15
1042.2368	3140.8524	1383.15	504.6
1042.3427	3141.8267	1379.15	497.65
1042.4485	3142.8004	1375.1	497.1
1042.5542	3143.7735	1390.75	505.9
1042.6599	3144.7459	1383.1	500.9
1042.7656	3145.7178	1376.7	496.85
1042.8712	3146.689	1364.55	486.25
1042.9768	3147.6596	1369.4	487.05
1043.0823	3148.6295	1358.2	478.65
1043.1878	3149.5989	1359.6	479.75
1043.2932	3150.5676	1360.4	481.75
1043.3986	3151.5357	1351.45	473.15
1043.5039	3152.5032	1351.1	473.4
1043.6092	3153.4701	1351.1	472.8
1043.7145	3154.4364	1347.3	467.65
1043.8197	3155.402	1351.15	472.05
1043.9248	3156.367	1343.65	465.35
1044.03	3157.3315	1380.8	460.65
1044.135	3158.2952	1340.9	461.45
1044.24	3159.2584	1338.65	458.9
1044.345	3160.221	1334	454.6
1044.4499	3161.1829	1325.65	446.5
1044.5548	3162.1442	1326.7	448
1044.6596	3163.105	1324.7	445.9
1044.7644	3164.065	1322.4	442.3
1044.8692	3165.0245	1327.5	445.35
1044.9739	3165.9834	1314.4	437.05
1045.0785	3166.9416	1313.6	434.3
1045.1831	3167.8993	1315.65	436.75
1045.2877	3168.8563	1306.05	424.55
1045.3922	3169.8127	1309.15	430.9
1045.4966	3170.7684	1306.85	427.7
1045.6011	3171.7236	1297.4	416.35
1045.7054	3172.6782	1298.65	419.85
1045.8098	3173.6321	1294.6	413.85
1045.914	3174.5854	1295.75	413.75
1046.0183	3175.5381	1290.15	410.25
1046.1224	3176.4902	1289.85	412.5
1046.2266	3177.4417	1290.15	411.05
1046.3307	3178.3926	1285.25	405.75
1046.4347	3179.3428	1285.3	406
1046.5387	3180.2924	1282.5	402.55
1046.6427	3181.2415	1278.2	398.2
1046.7466	3182.1899	1276.65	397
1046.8504	3183.1377	1276.7	397.65
1046.9542	3184.0848	1275.2	392.2
1047.058	3185.0314	1271.45	393.25
1047.1617	3185.9773	1270.75	390.05
1047.2654	3186.9227	1261.15	379.9
1047.369	3187.8674	1269.3	388.9
1047.4726	3188.8115	1267.1	384.35
1047.5761	3189.755	1261.95	382.9
1047.6796	3190.6979	1263.35	385.2
1047.783	3191.6402	1264.85	384.05
1047.8864	3192.5818	1254.85	374.4
1047.9898	3193.5229	1268.85	372.55
1048.0931	3194.4633	1256.1	376.55
1048.1963	3195.4031	1249.35	368.8
1048.2995	3196.3423	1245.95	364.5
1048.4027	3197.2809	1248.45	368.7
1048.5058	3198.2189	1248	368.05
1048.6089	3199.1563	1261.7	366.5
1048.7119	3200.0931	1243.3	365.1
1048.8148	3201.0292	1234.8	357.55
1048.9178	3201.9648	1232.3	354.8
1049.0206	3202.8997	1238.85	357.35
1049.1235	3203.834	1238.05	359.6
1049.2262	3204.7677	1228.65	349.2
1049.329	3205.7008	1231.8	350.45
1049.4317	3206.6333	1229.1	351.3
1049.5343	3207.5652	1226.15	344.35
1049.6369	3208.4964	1227.95	350.35
1049.7394	3209.4271	1215.8	336.3
1049.8419	3210.3571	1214.85	335.65
1049.9444	3211.2865	1221.9	341.55
1050.0468	3212.2154	1218.95	339.2
1050.1491	3213.1436	1219.6	340.2
1050.2514	3214.0712	1221.65	335.55
1050.3537	3214.9982	1211.6	334.55
1050.4559	3215.9246	1209.75	329.2
1050.5581	3216.8503	1208.4	327.45
1050.6602	3217.7755	1206.45	329.3
1050.7623	3218.7001	1209.3	330.9
1050.8643	3219.624	1202.55	324.2
1050.9663	3220.5473	1200.2	323.1
1051.0682	3221.4701	1197.45	315.05
1051.1701	3222.3922	1199.6	320.2
1051.2719	3223.3137	1194.5	316
1051.3737	3224.2346	1192.7	312.9
1051.4754	3225.1549	1188.8	309.45
1051.5771	3226.0746	1195.95	317.6
1051.6788	3226.9937	1195.1	317.3
1051.7804	3227.9121	1184.55	305.1
1051.8819	3228.83	1192.15	314.1
1051.9834	3229.7473	1185	305.3
1052.0849	3230.6639	1180.8	301.9
1052.1863	3231.5799	1178.9	301.1
1052.2876	3232.4954	1179.95	299.3
1052.3889	3233.4102	1178.2	301.15
1052.4902	3234.3244	1175.45	296
1052.5914	3235.238	1172.6	294.5
1052.6926	3236.151	1194.9	292.35
1052.7937	3237.0634	1165.35	290.55
1052.8948	3237.9752	1164.35	284.6
1052.9958	3238.8864	1163.35	284.25
1053.0968	3239.797	1164.8	286.05
1053.1977	3240.7069	1168.15	286.1
1053.2986	3241.6163	1166.25	287.15
1053.3994	3242.5251	1159.15	281.35
1053.5002	3243.4332	1151.05	272
1053.6009	3244.3408	1154.55	277.25
1053.7016	3245.2477	1153.3	274.6
1053.8022	3246.154	1151.35	271.05
1053.9028	3247.0598	1154.25	274.1
1054.0034	3247.9649	1153.25	275.3
1054.1039	3248.8694	1143.65	264.75
1054.2043	3249.7733	1146.05	267.3
1054.3047	3250.6766	1149.15	271.25
1054.4051	3251.5793	1144.3	263.75
1054.5054	3252.4814	1141.9	262.25
1054.6056	3253.3829	1137.4	257.8
1054.7058	3254.2838	1138.6	258.7
1054.806	3255.1841	1135.5	257.7
1054.9061	3256.0838	1134.85	255.1
1055.0061	3256.9829	1134.25	258.55
1055.1062	3257.8814	1130.65	247.8
1055.2061	3258.7792	1131.65	253.7
1055.306	3259.6765	1130.25	249.25
1055.4059	3260.5731	1123.9	246.6
1055.5057	3261.4692	1123.9	245.45
1055.6055	3262.3647	1113.9	231.65
1055.7052	3263.2595	1108.85	229.2
1055.8049	3264.1538	1112.8	235.95
1055.9045	3265.0474	1110.85	230.3
1056.0041	3265.9404	1100.4	224.1
1056.1036	3266.8329	1097	217.55
1056.2031	3267.7247	1103.75	216.25
1056.3025	3268.616	1087.35	209.15
1056.4019	3269.5066	1085.5	207.1
1056.5013	3270.3966	1079.55	197.3
1056.6005	3271.286	1068.1	190.9
