Software Version:	3.9.2.0
Unit SN:	10000200
Spectrometer SN:	6960
Date:	3/6/2024 10:24:54 AM
Data Line Index:	25
Spectral Points:	2048
Integration time (ms):	125
Averages:	20
Delay (ms):	30
Sequence Number:	1
Processing:	dark subtract
Laser Power (mW):	305
Laser Current (mA):	825
Laser Diode Temp (C):	25
Laser Case Temp (C):	25.8
System Temp (C):	25.6
Spectrometer Temp (C):	22.9
CCD Temp (C):	0.005
Secondary Temp (C):	20.001
Heatsink Temp (C):	21.048
CCDPCB Temp (C):	35.084
SecondaryPCB Temp (C):	28.292

Wavelength	RamanShift	Raw Counts	Dark Subtracted
787.061	30.1047	1057	643.45
787.2016	32.3739	1094.15	683.45
787.3422	34.6426	1128.7	716.35
787.4828	36.9109	1164.05	752.45
787.6235	39.1787	1224.9	808.1
787.7642	41.4461	1282.5	861.3
787.9049	43.7131	1332.45	909
788.0456	45.9796	1386.9	960.15
788.1863	48.2456	1451.9	1020.75
788.3271	50.5112	1515.4	1081.7
788.4679	52.7764	1572.9	1137.55
788.6087	55.0411	1651.2	1209.95
788.7496	57.3054	1732.65	1285.9
788.8904	59.5692	1800.15	1350.7
789.0313	61.8326	1895.85	1443.35
789.1722	64.0955	1975.7	1521.25
789.3132	66.3579	2094.85	1634.5
789.4541	68.6199	2234.95	1772.35
789.5951	70.8815	2479.3	2012.4
789.7361	73.1426	2956.95	2486.2
789.8771	75.4032	4236.75	3760.5
790.0181	77.6634	7480.55	7000.8
790.1592	79.9231	15889.05	15401.1
790.3003	82.1824	50042.2	49543.9
790.4414	84.4412	65533.05	65015.6
790.5825	86.6995	65535	64989.1
790.7237	88.9574	65535	64963.05
790.8648	91.2148	65535	64948.9
791.006	93.4717	65535	64935.55
791.1472	95.7282	65535	64927.9
791.2885	97.9842	65535	64928.05
791.4297	100.2398	65535	64923.7
791.571	102.4949	65535	64917.8
791.7123	104.7495	65535	64917.65
791.8536	107.0036	65535	64916.05
791.9949	109.2573	65535	64917.25
792.1363	111.5105	65535	64911.8
792.2777	113.7632	65535	64914.45
792.4191	116.0154	65535	64901.95
792.5605	118.2672	65535	64906.25
792.7019	120.5185	65535	64908.2
792.8434	122.7693	65535	64904.9
792.9849	125.0197	65535	64897.6
793.1264	127.2696	65535	64899.15
793.2679	129.519	65535	64892.8
793.4094	131.7679	65535	64891.55
793.551	134.0163	65535	64890.05
793.6926	136.2642	65535	64883.25
793.8342	138.5117	65535	64875.35
793.9758	140.7587	65535	64884.05
794.1175	143.0052	65535	64874.85
794.2591	145.2512	65535	64875.15
794.4008	147.4967	65535	64875.65
794.5425	149.7417	65535	64875.9
794.6842	151.9863	65535	64866.3
794.826	154.2304	65535	64867.05
794.9677	156.4739	65535	64861.05
795.1095	158.717	65535	64860.8
795.2513	160.9596	65535	64856.35
795.3931	163.2017	65535	64855.9
795.535	165.4433	65535	64856.2
795.6768	167.6844	65535	64848.6
795.8187	169.925	65535	64845.75
795.9606	172.1651	65535	64843.75
796.1025	174.4047	65535	64839.55
796.2445	176.6439	65535	64839.1
796.3864	178.8825	65535	64839.9
796.5284	181.1206	65535	64834
796.6704	183.3582	65535	64827.65
796.8124	185.5954	65535	64828.8
796.9544	187.832	65535	64823.95
797.0965	190.0681	65535	64819
797.2386	192.3037	65535	64819.15
797.3806	194.5388	65535	64816.2
797.5228	196.7734	65535	64815.65
797.6649	199.0075	65535	64809
797.807	201.2411	65535	64814.7
797.9492	203.4742	65535	64811.85
798.0914	205.7068	65535	64808
798.2336	207.9389	65535	64805.2
798.3758	210.1704	65535	64802.45
798.518	212.4015	65535	64810.65
798.6603	214.632	65535	64819.2
798.8025	216.862	65535	64829.65
798.9448	219.0915	65535	64826
799.0871	221.3205	65535	64822.35
799.2294	223.549	65535	64824.6
799.3718	225.777	65535	64827.65
799.5141	228.0044	65535	64819.95
799.6565	230.2314	65535	64819.3
799.7989	232.4578	65535	64817.65
799.9413	234.6837	65535	64806.6
800.0837	236.909	65535	64803.1
800.2262	239.1339	65535	64781.05
800.3687	241.3582	65535	64797
800.5111	243.582	65535	64766.7
800.6536	245.8053	65535	64774.8
800.7961	248.0281	65535	64785.05
800.9387	250.2503	65535	64779
801.0812	252.472	65535	64777.4
801.2238	254.6932	65535	64778.7
801.3664	256.9139	65535	64773.45
801.509	259.134	65535	64771.1
801.6516	261.3536	65535	64774.8
801.7942	263.5727	65535	64773.2
801.9369	265.7912	65535	64775.45
802.0795	268.0092	65535	64771.35
802.2222	270.2267	65535	64772.55
802.3649	272.4436	65535	64768.05
802.5076	274.6601	65535	64758.95
802.6504	276.8759	65535	64764.65
802.7931	279.0913	65535	64762.15
802.9359	281.3061	65535	64762.55
803.0787	283.5204	65535	64755.45
803.2215	285.7341	65535	64757.4
803.3643	287.9473	65535	64744.55
803.5071	290.16	65535	64746.35
803.6499	292.3721	65535	64760.35
803.7928	294.5837	65535	64757.1
803.9357	296.7947	65535	64756.4
804.0786	299.0052	65535	64754.4
804.2215	301.2152	65535	64753.95
804.3644	303.4246	65535	64758.3
804.5074	305.6334	65535	64755.55
804.6503	307.8418	65535	64752.85
804.7933	310.0495	65535	64746.35
804.9363	312.2568	65535	64750.85
805.0793	314.4635	65535	64748.35
805.2223	316.6696	65535	64748
805.3653	318.8752	65535	64736.25
805.5084	321.0802	65535	64745.2
805.6514	323.2847	65535	64744
805.7945	325.4887	65535	64747.9
805.9376	327.692	65535	64743.85
806.0807	329.8949	65535	64743.9
806.2238	332.0972	65535	64742.6
806.367	334.2989	65535	64734.7
806.5101	336.5001	65535	64737.65
806.6533	338.7007	65535	64735.75
806.7965	340.9008	65535	64737.4
806.9397	343.1003	65535	64729.6
807.0829	345.2992	65535	64729.25
807.2261	347.4976	65535	64728.8
807.3693	349.6955	65535	64725.3
807.5126	351.8927	65535	64726.95
807.6559	354.0895	65535	64711.85
807.7991	356.2856	65535	64724.35
807.9424	358.4812	65535	64724.05
808.0857	360.6763	65535	64724.25
808.2291	362.8707	65535	64721.15
808.3724	365.0646	65535	64715.9
808.5158	367.258	65535	64714.3
808.6591	369.4508	65535	64714.9
808.8025	371.643	65535	64717.45
808.9459	373.8346	65535	64712.25
809.0893	376.0257	65535	64709.85
809.2327	378.2162	65535	64709.95
809.3762	380.4062	65535	64708.55
809.5196	382.5956	65535	64705.65
809.6631	384.7844	65535	64709.05
809.8066	386.9726	65535	64707.9
809.9501	389.1603	65535	64711.7
810.0936	391.3474	65535	64671.25
810.2371	393.5339	65535	64713.3
810.3806	395.7199	65535	64718.15
810.5241	397.9052	65535	64714.8
810.6677	400.09	65535	64715.6
810.8113	402.2743	65535	64713.45
810.9548	404.4579	65535	64716.1
811.0984	406.641	65535	64713.95
811.2421	408.8235	65535	64710.1
811.3857	411.0054	65535	64707.9
811.5293	413.1868	65535	64707.75
811.673	415.3675	65535	64706.95
811.8166	417.5477	65535	64703.1
811.9603	419.7273	65535	64700.8
812.104	421.9064	65535	64692.55
812.2477	424.0848	65535	64696.35
812.3914	426.2627	65535	64697.45
812.5351	428.4399	65535	64699.4
812.6788	430.6166	65535	64695.1
812.8226	432.7928	65535	64694.95
812.9663	434.9683	65535	64693
813.1101	437.1432	65535	64690.55
813.2539	439.3176	65535	64691.4
813.3977	441.4914	65535	64691.75
813.5415	443.6645	65535	64692.8
813.6853	445.8371	65535	64692
813.8291	448.0091	65535	64690.45
813.973	450.1806	65535	64691.9
814.1168	452.3514	65535	64688.35
814.2607	454.5216	65535	64680
814.4046	456.6913	65535	64685.95
814.5485	458.8603	65535	64688.1
814.6924	461.0288	65535	64691.15
814.8363	463.1967	65535	64688.65
814.9802	465.3639	65535	64685.65
815.1241	467.5306	65535	64689.15
815.2681	469.6967	65535	64688.3
815.412	471.8622	65535	64686.8
815.556	474.0271	65535	64687.2
815.7	476.1914	65535	64684.6
815.844	478.3551	65535	64686.65
815.988	480.5182	65535	64683.3
816.132	482.6807	65535	64686.85
816.276	484.8426	65535	64684.4
816.4201	487.0039	65535	64687.25
816.5641	489.1647	65535	64680.95
816.7082	491.3248	65535	64684.7
816.8522	493.4843	65535	64682.65
816.9963	495.6432	65535	64682.9
817.1404	497.8015	65535	64679.6
817.2845	499.9592	65535	64678.2
817.4286	502.1163	65535	64679.3
817.5727	504.2728	65535	64678.25
817.7168	506.4287	65535	64677.7
817.861	508.5839	65535	64678.9
818.0051	510.7386	65535	64681.05
818.1493	512.8927	65535	64672.15
818.2935	515.0461	65535	64675.55
818.4377	517.199	65535	64675.8
818.5818	519.3512	65535	64675.7
818.726	521.5029	65535	64667.25
818.8703	523.6539	65535	64672.55
819.0145	525.8043	65535	64671.75
819.1587	527.9541	65535	64672.4
819.303	530.1033	65535	64671.55
819.4472	532.2519	65535	64669.85
819.5915	534.3999	65535	64672.05
819.7357	536.5472	65535	64671.6
819.88	538.694	65535	64671.15
820.0243	540.8401	65535	64669.8
820.1686	542.9856	65535	64669.3
820.3129	545.1305	65535	64666.4
820.4572	547.2748	65535	64666
820.6016	549.4185	65535	64666.95
820.7459	551.5615	65535	64665.25
820.8902	553.704	65535	64665.7
821.0346	555.8458	65535	64668.05
821.1789	557.987	65535	64669.65
821.3233	560.1276	65535	64664.7
821.4677	562.2675	65535	64667.3
821.6121	564.4069	65535	64666.95
821.7565	566.5456	65535	64666
821.9009	568.6837	65535	64666.1
822.0453	570.8212	65535	64668.4
822.1897	572.958	65535	64666
822.3342	575.0942	65535	64665.6
822.4786	577.2299	65535	64666.15
822.6231	579.3648	65535	64664.5
822.7675	581.4992	65535	64671.25
822.912	583.6329	65535	64668.2
823.0565	585.766	65535	64667.3
823.201	587.8985	65535	64666.25
823.3454	590.0304	65535	64646.2
823.4899	592.1616	65535	64661.2
823.6345	594.2922	65535	64662.6
823.779	596.4222	65535	64663.4
823.9235	598.5515	65535	64658
824.068	600.6802	65535	64656.55
824.2126	602.8083	65535	64660.95
824.3571	604.9358	65535	64659.7
824.5017	607.0626	65535	64656.45
824.6462	609.1888	65535	64658.1
824.7908	611.3144	65535	64658.05
824.9354	613.4393	65535	64659.15
825.08	615.5636	65535	64660.7
825.2246	617.6873	65535	64659.25
825.3692	619.8103	65535	64657.1
825.5138	621.9327	65535	64654.55
825.6584	624.0544	65535	64661.15
825.803	626.1756	65535	64657.85
825.9477	628.2961	65535	64654.95
826.0923	630.4159	65535	64656.1
826.237	632.5351	65535	64655.15
826.3816	634.6537	65535	64655.5
826.5263	636.7716	65535	64654.6
826.6709	638.8889	65535	64654.4
826.8156	641.0056	65535	64651.05
826.9603	643.1216	65535	64653.05
827.105	645.237	65535	64652
827.2497	647.3518	65535	64653.3
827.3944	649.4659	65535	64656.2
827.5391	651.5793	65535	64652.35
827.6838	653.6922	65535	64655.4
827.8285	655.8043	65535	64653.75
827.9733	657.9159	65535	64653.8
828.118	660.0268	65535	64650.35
828.2627	662.137	65535	64652.35
828.4075	664.2466	65535	64651.05
828.5522	666.3556	65535	64649.7
828.697	668.4639	65535	64649.85
828.8418	670.5716	65535	64652.85
828.9865	672.6786	65535	64650.4
829.1313	674.785	65535	64649.2
829.2761	676.8907	65535	64652.35
829.4209	678.9958	65535	64651.25
829.5657	681.1002	65535	64648.1
829.7105	683.204	65535	64642.55
829.8553	685.3072	65535	64645.05
830.0001	687.4097	65535	64647.5
830.1449	689.5115	65535	64646.7
830.2898	691.6127	65535	64649.95
830.4346	693.7132	65535	64648.5
830.5794	695.8131	65535	64642.2
830.7243	697.9123	65535	64645.55
830.8691	700.0109	65535	64643.25
831.014	702.1089	65535	64649.3
831.1588	704.2061	65535	64645.65
831.3037	706.3028	65535	64646.6
831.4486	708.3987	65535	64644.05
831.5935	710.4941	65535	64649.15
831.7383	712.5887	65535	64645.5
831.8832	714.6827	65535	64641.55
832.0281	716.7761	65535	64648.4
832.173	718.8688	65535	64646
832.3179	720.9608	65535	64641.7
832.4628	723.0522	65535	64642.75
832.6077	725.1429	65535	64644.95
832.7527	727.233	65535	64643.65
832.8976	729.3224	65535	64642.9
833.0425	731.4112	65535	64643.4
833.1874	733.4993	65535	64643.05
833.3324	735.5867	65535	64643.95
833.4773	737.6735	65535	64641.65
833.6222	739.7596	65535	64641
833.7672	741.845	65535	64641.95
833.9122	743.9298	65535	64642.25
834.0571	746.014	65535	64642.1
834.2021	748.0974	65535	64641.75
834.347	750.1802	65535	64641.15
834.492	752.2624	65535	64640.95
834.637	754.3439	65535	64641.9
834.782	756.4247	65535	64632.35
834.9269	758.5048	65535	64641.8
835.0719	760.5843	65535	64640.7
835.2169	762.6631	65535	64638.85
835.3619	764.7413	65535	64643.45
835.5069	766.8188	65535	64640.65
835.6519	768.8956	65535	64638.5
835.7969	770.9718	65535	64640.9
835.9419	773.0473	65535	64642.4
836.0869	775.1221	65535	64641.6
836.232	777.1962	65535	64640.6
836.377	779.2697	65535	64639.2
836.522	781.3426	65535	64623.9
836.667	783.4147	65535	64633.45
836.8121	785.4862	65535	64641.35
836.9571	787.557	65535	64642.1
837.1021	789.6271	65535	64640
837.2472	791.6966	65535	64639.35
837.3922	793.7654	65535	64635.9
837.5373	795.8335	65535	64638.05
837.6823	797.901	65535	64640.45
837.8274	799.9678	65535	64636.1
837.9724	802.0339	65535	64641.1
838.1175	804.0993	65535	64628.35
838.2626	806.1641	65535	64638.15
838.4076	808.2282	65535	64637.05
838.5527	810.2916	65535	64635.8
838.6978	812.3544	65535	64639.05
838.8428	814.4164	65535	64641.35
838.9879	816.4778	65535	64638.85
839.133	818.5385	65535	64640.15
839.2781	820.5986	65535	64637.8
839.4232	822.658	65535	64637.4
839.5682	824.7166	65535	64639.15
839.7133	826.7747	65535	64639.25
839.8584	828.832	65535	64637.5
840.0035	830.8886	65535	64634.9
840.1486	832.9446	65535	64635.35
840.2937	834.9999	65535	64640.15
840.4388	837.0545	65535	64632.35
840.5839	839.1085	65535	64636.85
840.729	841.1618	65535	64635.9
840.8741	843.2143	65535	64635.85
841.0192	845.2662	65535	64638.75
841.1643	847.3175	65535	64636.8
841.3095	849.368	65535	64637.25
841.4546	851.4179	65535	64635.6
841.5997	853.467	65535	64637.95
841.7448	855.5155	65535	64637.6
841.8899	857.5633	65535	64636.95
842.0351	859.6105	65535	64638.85
842.1802	861.6569	65535	64638.65
842.3253	863.7027	65535	64634.7
842.4704	865.7478	65535	64634.35
842.6156	867.7922	65535	64634.9
842.7607	869.8359	65535	64638.8
842.9058	871.8789	65535	64636.5
843.0509	873.9212	65535	64606.35
843.1961	875.9629	65535	64635.65
843.3412	878.0039	65535	64635.2
843.4863	880.0441	65535	64638.35
843.6315	882.0837	65535	64636.4
843.7766	884.1226	65535	64633.15
843.9218	886.1609	65535	64634.25
844.0669	888.1984	65535	64638
844.212	890.2352	65535	64635.65
844.3572	892.2714	65535	64632.5
844.5023	894.3069	65535	64633.55
844.6475	896.3416	65535	64632.8
844.7926	898.3757	65535	64633.9
844.9377	900.4091	65535	64635.15
845.0829	902.4418	65535	64631.15
845.228	904.4739	65535	64632.05
845.3732	906.5052	65535	64633.95
845.5183	908.5358	65535	64634.9
845.6635	910.5658	65535	64633.1
845.8086	912.595	65535	64632.25
845.9538	914.6236	65535	64634
846.0989	916.6515	65535	64632.9
846.2441	918.6786	65535	64631.45
846.3892	920.7051	65535	64633.05
846.5344	922.7309	65535	64632.7
846.6795	924.756	65535	64631.85
846.8246	926.7804	65535	64630.9
846.9698	928.8041	65535	64628.05
847.1149	930.8272	65535	64632.55
847.2601	932.8495	65535	64632.7
847.4052	934.8711	65535	64630.7
847.5504	936.892	65535	64631.45
847.6955	938.9123	65535	64631.25
847.8407	940.9318	65535	64634.1
847.9858	942.9506	65535	64632.15
848.131	944.9688	65535	64633.25
848.2761	946.9862	65535	64633.75
848.4213	949.003	65535	64630.75
848.5664	951.019	65535	64632.95
848.7115	953.0344	65535	64633.1
848.8567	955.0491	65535	64631.15
849.0018	957.063	65535	64631.5
849.147	959.0763	65535	64634.05
849.2921	961.0888	65535	64630
849.4373	963.1007	65535	64634.3
849.5824	965.1119	65535	64633.8
849.7275	967.1223	65535	64634.9
849.8727	969.1321	65535	64634.8
850.0178	971.1412	65535	64632.6
850.1629	973.1495	65535	64635.75
850.3081	975.1572	65535	64601.45
850.4532	977.1641	65535	64633.4
850.5983	979.1704	65535	64632.7
850.7435	981.1759	65535	64627.45
850.8886	983.1808	65535	64631.85
851.0337	985.1849	65535	64621.95
851.1788	987.1884	65535	64628.65
851.324	989.1911	65535	64630.55
851.4691	991.1932	65535	64630.6
851.6142	993.1945	65535	64633.2
851.7593	995.1951	65535	64634.75
851.9045	997.1951	65535	64626.4
852.0496	999.1943	65535	64633.1
852.1947	1001.1928	65535	64630.4
852.3398	1003.1906	65535	64632.8
852.4849	1005.1877	65535	64632.75
852.63	1007.1841	65535	64634.5
852.7751	1009.1798	65535	64633.85
852.9202	1011.1748	65535	64633.35
853.0653	1013.1691	65535	64634
853.2104	1015.1627	65535	64630.3
853.3555	1017.1556	65535	64632.7
853.5006	1019.1477	65535	64631.65
853.6457	1021.1392	65535	64637.15
853.7908	1023.1299	65535	64632.65
853.9359	1025.12	65535	64633.75
854.081	1027.1093	65535	64637.05
854.2261	1029.0979	65535	64639.25
854.3712	1031.0859	65535	64635.45
854.5163	1033.0731	65535	64636.9
854.6613	1035.0596	65535	64635.15
854.8064	1037.0454	65535	64633.4
854.9515	1039.0304	65535	64633.7
855.0965	1041.0148	65535	64632.8
855.2416	1042.9985	65535	64630.5
855.3867	1044.9814	65535	64634.6
855.5317	1046.9636	65535	64630.9
855.6768	1048.9452	65535	64634.15
855.8219	1050.926	65535	64634.8
855.9669	1052.9061	65535	64633.8
856.112	1054.8855	65535	64633.25
856.257	1056.8642	65535	64632.45
856.4021	1058.8421	65535	64626.9
856.5471	1060.8194	65535	64633.3
856.6921	1062.7959	65535	64630.75
856.8372	1064.7717	65535	64630.8
856.9822	1066.7469	65535	64633.4
857.1272	1068.7213	65535	64632
857.2723	1070.695	65535	64636
857.4173	1072.6679	65535	64630.65
857.5623	1074.6402	65535	64633.65
857.7073	1076.6117	65535	64624
857.8523	1078.5826	65535	64633.8
857.9973	1080.5527	65535	64632.85
858.1423	1082.5221	65535	64632.8
858.2873	1084.4908	65535	64632.95
858.4323	1086.4587	65535	64631.35
858.5773	1088.426	65535	64632.25
858.7223	1090.3925	65535	64629.15
858.8673	1092.3584	65535	64634.45
859.0123	1094.3235	65535	64633.25
859.1573	1096.2879	65535	64634.5
859.3022	1098.2515	65535	64632.1
859.4472	1100.2145	65535	64637.45
859.5922	1102.1767	65535	64630.45
859.7371	1104.1382	65535	64633.8
859.8821	1106.099	65535	64628.45
860.027	1108.0591	65535	64633.6
860.172	1110.0185	65535	64630.05
860.3169	1111.9771	65535	64631.1
860.4619	1113.9351	65535	64632.3
860.6068	1115.8923	65535	64633.2
860.7517	1117.8488	65535	64631.95
860.8967	1119.8045	65535	64635.45
861.0416	1121.7596	65535	64632.2
861.1865	1123.7139	65535	64634.4
861.3314	1125.6675	65535	64634.5
861.4763	1127.6204	65535	64631.75
861.6212	1129.5726	65535	64630.85
861.7661	1131.524	65535	64633.35
861.911	1133.4748	65535	64633.05
862.0559	1135.4248	65535	64632.4
862.2008	1137.3741	65535	64637
862.3457	1139.3226	65535	64633.15
862.4905	1141.2705	65535	64635.65
862.6354	1143.2176	65535	64627
862.7803	1145.164	65535	64632.95
862.9251	1147.1097	65535	64632.4
863.07	1149.0546	65535	64634
863.2148	1150.9989	65535	64631.95
863.3597	1152.9424	65535	64634.35
863.5045	1154.8852	65535	64630.4
863.6493	1156.8272	65535	64634.8
863.7942	1158.7686	65535	64626
863.939	1160.7092	65535	64629.35
864.0838	1162.6491	65535	64631
864.2286	1164.5883	65535	64635.05
864.3734	1166.5267	65535	64631.6
864.5182	1168.4644	65535	64631.65
864.663	1170.4014	65535	64627.2
864.8078	1172.3377	65535	64636.25
864.9526	1174.2732	65535	64632.95
865.0974	1176.2081	65535	64633.9
865.2421	1178.1421	65535	64627.5
865.3869	1180.0755	65535	64632.95
865.5317	1182.0082	65535	64634.25
865.6764	1183.9401	65535	64634.25
865.8212	1185.8713	65535	64634.35
865.9659	1187.8017	65535	64635.45
866.1106	1189.7315	65535	64636.9
866.2554	1191.6605	65535	64607.95
866.4001	1193.5888	65535	64633.1
866.5448	1195.5163	65535	64634.7
866.6895	1197.4432	65535	64630.95
866.8342	1199.3693	65535	64634.65
866.9789	1201.2947	65535	64631.1
867.1236	1203.2193	65535	64635.45
867.2683	1205.1432	65535	64633.8
867.413	1207.0664	65535	64632.3
867.5576	1208.9889	65535	64633.5
867.7023	1210.9106	65535	64633.6
867.847	1212.8316	65535	64632.85
867.9916	1214.7519	65535	64622.4
868.1363	1216.6715	65535	64635.15
868.2809	1218.5903	65535	64635.25
868.4255	1220.5084	65535	64632.2
868.5701	1222.4257	65535	64633.45
868.7148	1224.3424	65535	64633.55
868.8594	1226.2583	65535	64628.6
869.004	1228.1735	65535	64631.3
869.1486	1230.0879	65535	64631.7
869.2932	1232.0016	65535	64632.6
869.4377	1233.9146	65535	64631.15
869.5823	1235.8269	65535	64634.7
869.7269	1237.7384	65535	64634.35
869.8715	1239.6492	65535	64633.75
870.016	1241.5592	65535	64634.6
870.1606	1243.4686	65535	64637.6
870.3051	1245.3772	65535	64631.7
870.4496	1247.285	65535	64635.4
870.5941	1249.1922	65535	64635.75
870.7387	1251.0986	65535	64633.65
870.8832	1253.0042	65535	64632.1
871.0277	1254.9092	65535	64632.8
871.1722	1256.8134	65535	64633.15
871.3167	1258.7169	65535	64632.65
871.4611	1260.6196	65535	64634.75
871.6056	1262.5216	65535	64633.05
871.7501	1264.4229	65535	64635.8
871.8945	1266.3234	65535	64635.65
872.039	1268.2232	65535	64633.4
872.1834	1270.1223	65535	64632.55
872.3278	1272.0207	65535	64634.15
872.4723	1273.9183	65535	64629.5
872.6167	1275.8151	65535	64634.25
872.7611	1277.7113	65535	64630.75
872.9055	1279.6067	65535	64634.9
873.0499	1281.5014	65535	64632.55
873.1943	1283.3953	65535	64631.7
873.3386	1285.2885	65535	64635.9
873.483	1287.181	65535	64633.85
873.6274	1289.0727	65535	64635.7
873.7717	1290.9637	65535	64633.9
873.9161	1292.854	65535	64632.45
874.0604	1294.7435	65535	64634.5
874.2047	1296.6323	65535	64633.85
874.349	1298.5204	65535	64632
874.4933	1300.4077	65535	64634.9
874.6376	1302.2943	65535	64636.55
874.7819	1304.1802	65535	64637.5
874.9262	1306.0653	65535	64633.3
875.0705	1307.9497	65535	64636.2
875.2147	1309.8333	65535	64633.9
875.359	1311.7162	65535	64634.55
875.5032	1313.5984	65535	64632.3
875.6475	1315.4798	65535	64633.6
875.7917	1317.3605	65535	64618.9
875.9359	1319.2405	65535	64633.75
876.0801	1321.1197	65535	64632.85
876.2243	1322.9982	65535	64628.65
876.3685	1324.876	65535	64634.65
876.5127	1326.753	65535	64634.15
876.6569	1328.6293	65535	64633.2
876.801	1330.5048	65535	64631.9
876.9452	1332.3796	65535	64635.65
877.0893	1334.2537	65535	64605.4
877.2335	1336.127	65535	64635.7
877.3776	1337.9996	65535	64633.25
877.5217	1339.8714	65535	64634.95
877.6658	1341.7426	65535	64589.95
877.8099	1343.6129	65535	64631.55
877.954	1345.4826	65535	64632.9
878.0981	1347.3515	65535	64632.95
878.2422	1349.2196	65535	64634.2
878.3862	1351.087	65535	64635.1
878.5303	1352.9537	65535	64633.45
878.6743	1354.8197	65535	64632.45
878.8184	1356.6849	65535	64632.7
878.9624	1358.5493	65535	64633.2
879.1064	1360.4131	65535	64632.85
879.2504	1362.276	65535	64634.75
879.3944	1364.1383	65535	64636.45
879.5384	1365.9998	65535	64627.55
879.6823	1367.8606	65535	64634.25
879.8263	1369.7206	65535	64634.5
879.9702	1371.5799	65535	64632.5
880.1142	1373.4384	65535	64635.1
880.2581	1375.2962	65535	64632.2
880.402	1377.1533	65535	64636.75
880.5459	1379.0096	65535	64634.9
880.6898	1380.8652	65535	64636.75
880.8337	1382.7201	65535	64634.15
880.9776	1384.5742	65535	64634.15
881.1215	1386.4275	65535	64633.15
881.2653	1388.2802	65535	64635.55
881.4092	1390.132	65535	64636.4
881.553	1391.9832	65535	64633.85
881.6968	1393.8336	65535	64635.45
881.8406	1395.6832	65535	64632.45
881.9844	1397.5322	65535	64634.45
882.1282	1399.3803	65535	64628.5
882.272	1401.2278	65535	64634.45
882.4158	1403.0745	65535	64635.7
882.5595	1404.9204	65535	64634.8
882.7033	1406.7656	65535	64634.9
882.847	1408.6101	65535	64633.8
882.9908	1410.4538	65535	64633.65
883.1345	1412.2968	65535	64635.05
883.2782	1414.139	65535	64635.45
883.4219	1415.9805	65535	64635.15
883.5656	1417.8213	65535	64625.85
883.7092	1419.6613	65535	64634.3
883.8529	1421.5006	65535	64634.4
883.9965	1423.3391	65535	64634.1
884.1402	1425.1769	65535	64633.6
884.2838	1427.0139	65535	64634.6
884.4274	1428.8502	65535	64635.8
884.571	1430.6858	65535	64634.7
884.7146	1432.5206	65535	64636.45
884.8582	1434.3547	65535	64634.75
885.0018	1436.188	65535	64634.45
885.1453	1438.0206	65535	64635.85
885.2889	1439.8524	65535	64633.9
885.4324	1441.6835	65535	64632.6
885.5759	1443.5139	65535	64631.4
885.7194	1445.3435	65535	64636
885.8629	1447.1724	65535	64635.8
886.0064	1449.0005	65535	64636
886.1499	1450.8279	65535	64636.1
886.2933	1452.6545	65535	64634.7
886.4368	1454.4804	65535	64634.4
886.5802	1456.3056	65535	64626.35
886.7237	1458.13	65535	64637.15
886.8671	1459.9536	65535	64635.55
887.0105	1461.7766	65535	64635.65
887.1539	1463.5987	65535	64635.45
887.2972	1465.4202	65535	64634.15
887.4406	1467.2409	65535	64635.45
887.584	1469.0608	65535	64636.8
887.7273	1470.88	65535	64632.55
887.8706	1472.6984	65535	64636.6
888.0139	1474.5161	65535	64632.8
888.1572	1476.3331	65535	64637.8
888.3005	1478.1493	65535	64637.15
888.4438	1479.9648	65535	64636.6
888.5871	1481.7795	65535	64636.05
888.7303	1483.5935	65535	64635.75
888.8736	1485.4067	65535	64635.2
889.0168	1487.2192	65535	64635.4
889.16	1489.031	65535	64632.7
889.3032	1490.842	65535	64637.7
889.4464	1492.6522	65535	64635.8
889.5896	1494.4618	65535	64636.75
889.7327	1496.2705	65535	64636.9
889.8759	1498.0785	65531.55	64631.85
890.019	1499.8858	65535	64634.3
890.1622	1501.6924	65535	64638.2
890.3053	1503.4981	65535	64636.6
890.4484	1505.3032	65535	64635.1
890.5914	1507.1075	65535	64635.85
890.7345	1508.911	65535	64636.15
890.8776	1510.7138	65535	64633.2
891.0206	1512.5159	65535	64637.2
891.1637	1514.3172	65518.9	64620.25
891.3067	1516.1178	65525.65	64627
891.4497	1517.9176	65535	64635.6
891.5927	1519.7166	65523.35	64624.65
891.7357	1521.515	65519.65	64613.95
891.8786	1523.3126	65480.05	64582.25
892.0216	1525.1094	65522.85	64621.5
892.1645	1526.9055	65505.95	64608.85
892.3074	1528.7008	65515.8	64618.55
892.4503	1530.4954	65465.75	64567.6
892.5932	1532.2893	65517.8	64622.1
892.7361	1534.0824	65455.15	64552.05
892.879	1535.8747	65433.45	64536.2
893.0218	1537.6663	65520.65	64622.05
893.1647	1539.4572	65380.1	64479.65
893.3075	1541.2473	65433.3	64531.65
893.4503	1543.0367	65417.3	64519.55
893.5931	1544.8253	65415.1	64514.8
893.7359	1546.6132	65431.05	64531.55
893.8787	1548.4003	65390.9	64483.55
894.0214	1550.1867	65380.6	64476.55
894.1642	1551.9723	65378.55	64475.8
894.3069	1553.7572	65390.7	64491.7
894.4496	1555.5414	65407.15	64509.2
894.5923	1557.3247	65314.5	64416.65
894.735	1559.1074	65385.55	64492.5
894.8777	1560.8893	65340.05	64445
895.0204	1562.6705	65366.35	64470.7
895.163	1564.4509	65313.95	64418.9
895.3056	1566.2305	65337.2	64441
895.4482	1568.0094	65384.35	64490.05
895.5908	1569.7876	65338.3	64442.15
895.7334	1571.565	65298.2	64399.9
895.876	1573.3417	65314	64417.55
896.0186	1575.1176	65303.4	64408.4
896.1611	1576.8928	65299.9	64404.45
896.3036	1578.6672	65263.45	64368.65
896.4461	1580.4409	65294.1	64400.1
896.5886	1582.2138	65261	64364.35
896.7311	1583.986	65274.55	64377.15
896.8736	1585.7575	65233.4	64338.2
897.0161	1587.5282	65239.25	64345.85
897.1585	1589.2981	65236.6	64344.35
897.3009	1591.0673	65216.35	64322.65
897.4433	1592.8358	65204.8	64309.4
897.5857	1594.6035	65222.35	64326.05
897.7281	1596.3704	65224.7	64328.05
897.8705	1598.1366	65174.85	64281.1
898.0128	1599.9021	65155.6	64261.4
898.1551	1601.6668	65192.5	64294.5
898.2975	1603.4308	65177.9	64281.05
898.4398	1605.194	65209.3	64311.9
898.5821	1606.9564	65129.4	64235.35
898.7243	1608.7182	65167.75	64270.95
898.8666	1610.4791	65113.4	64219
899.0088	1612.2394	65142.85	64251.2
899.1511	1613.9988	65111.8	64217.75
899.2933	1615.7576	65164.15	64270.4
899.4355	1617.5156	65154.55	64255.45
899.5776	1619.2728	65192.1	64297
899.7198	1621.0293	65124.5	64230.05
899.862	1622.785	65122.25	64225.85
900.0041	1624.54	65151.35	64255.3
900.1462	1626.2942	65120.35	64227.2
900.2883	1628.0477	65034.15	64138.15
900.4304	1629.8005	64966.6	64069.85
900.5725	1631.5525	65038.3	64144.4
900.7145	1633.3037	64931.2	64038
900.8566	1635.0542	64926.7	64034.05
900.9986	1636.804	64971.15	64075.95
901.1406	1638.553	64892.7	63909.95
901.2826	1640.3013	64923.9	64029.95
901.4245	1642.0488	64857.75	63961.95
901.5665	1643.7955	64899.05	64008.3
901.7085	1645.5416	64873.95	63980.8
901.8504	1647.2868	64826.85	63934.05
901.9923	1649.0313	64889.1	63995.85
902.1342	1650.7751	64848.95	63951.95
902.2761	1652.5181	64809.45	63914.65
902.4179	1654.2604	64816.95	63921.45
902.5598	1656.0019	64835.45	63943.45
902.7016	1657.7427	64819.05	63924.75
902.8434	1659.4828	64851.25	63958.55
902.9852	1661.222	64804.8	63910.75
903.127	1662.9606	64853.5	63961.45
903.2687	1664.6984	64779.7	63885.8
903.4105	1666.4354	64800.75	63906.25
903.5522	1668.1717	64701.3	63808
903.6939	1669.9072	64638.1	63743.6
903.8356	1671.642	64624.8	63729.5
903.9773	1673.3761	64588.95	63697.25
904.119	1675.1094	64558.45	63665.4
904.2606	1676.8419	64517.45	63624.75
904.4022	1678.5737	64483.4	63590.1
904.5439	1680.3048	64473.05	63579.85
904.6855	1682.0351	64440.35	63547.8
904.827	1683.7646	64409.05	63512.95
904.9686	1685.4934	64415.75	63524.1
905.1101	1687.2215	64306.4	63411.15
905.2517	1688.9488	64376.95	63485.7
905.3932	1690.6754	64171.55	63280.3
905.5347	1692.4012	64301.95	63411.05
905.6761	1694.1263	64292.9	63399.45
905.8176	1695.8506	64205.2	63312.2
905.9591	1697.5742	64210.3	63319.4
906.1005	1699.297	64175.5	63282.1
906.2419	1701.0191	64184.7	63293.65
906.3833	1702.7404	64043.85	63151.6
906.5246	1704.461	63968.25	63073.9
906.666	1706.1808	64070.65	63174.95
906.8073	1707.8999	63997.55	63103.45
906.9487	1709.6182	63950.6	63056
907.09	1711.3358	63933.9	63041.15
907.2313	1713.0527	63933.75	63043.35
907.3725	1714.7688	63921.4	63025.25
907.5138	1716.4841	63659.55	62764.8
907.655	1718.1987	63782.35	62884.45
907.7962	1719.9126	63684.7	62794.2
907.9374	1721.6257	63748.3	62854.45
908.0786	1723.338	63730.65	62836.5
908.2198	1725.0496	63414.7	62522.4
908.3609	1726.7605	63443	62548.65
908.502	1728.4706	63359.05	62468
908.6431	1730.18	63465.8	62572.4
908.7842	1731.8886	63303.85	62413.15
908.9253	1733.5964	63188.95	62292.15
909.0664	1735.3036	63377.2	62484.25
909.2074	1737.0099	63248.35	62357.35
909.3484	1738.7156	63068.05	62178.9
909.4894	1740.4204	63016.35	62122.35
909.6304	1742.1246	63064.85	62171.65
909.7714	1743.8279	63121.5	62230.7
909.9123	1745.5306	63071.3	62179.5
910.0532	1747.2325	62397	61505.7
910.1941	1748.9336	62439.15	61548.4
910.335	1750.634	62670.85	61778.65
910.4759	1752.3336	62827.1	61935.85
910.6168	1754.0325	62300.85	61411.45
910.7576	1755.7307	62768.3	61877.95
910.8984	1757.4281	62146.65	61255.95
911.0392	1759.1247	62632.1	61732.5
911.18	1760.8206	61854.3	60955.5
911.3208	1762.5158	61918.25	61023.45
911.4615	1764.2102	62164.35	61274.75
911.6022	1765.9039	61995.55	61105.15
911.7429	1767.5968	61785.45	60893.6
911.8836	1769.289	61674.55	60784.45
912.0243	1770.9804	61820.15	60927.3
912.1649	1772.6711	61652.45	60760.95
912.3056	1774.361	61528.9	60636.75
912.4462	1776.0502	61540.6	60649.4
912.5868	1777.7386	60898.75	60004.3
912.7274	1779.4263	61305.2	60414.75
912.8679	1781.1132	61280.6	60389.8
913.0084	1782.7994	61130.5	60237.75
913.149	1784.4849	61135.65	60244.25
913.2895	1786.1696	60380.2	59480.5
913.4299	1787.8535	60829.2	59941
913.5704	1789.5367	60915.7	60023.5
913.7108	1791.2192	60404.7	59515.3
913.8513	1792.9009	60142.3	59220.3
913.9917	1794.5818	60503.5	59611.9
914.132	1796.2621	60034.45	59144
914.2724	1797.9415	60115.7	59221.9
914.4128	1799.6202	60016.2	59124.15
914.5531	1801.2982	60080.05	59187.65
914.6934	1802.9755	59648.1	58754.65
914.8337	1804.6519	59449.75	58560.55
914.9739	1806.3277	60064.2	59174.25
915.1142	1808.0027	59039.85	58150.15
915.2544	1809.6769	59401.95	58510.55
915.3946	1811.3504	59502.05	58609.15
915.5348	1813.0231	58731.3	57838
915.675	1814.6951	59196.45	58306.7
915.8151	1816.3664	58915.5	58022.95
915.9553	1818.0369	58929	58036.45
916.0954	1819.7067	58739.05	57848.6
916.2355	1821.3757	59133.25	58242.1
916.3755	1823.044	58445.25	57553.3
916.5156	1824.7115	58154.05	57262
916.6556	1826.3783	58398.85	57509.25
916.7956	1828.0443	58345.2	57456.65
916.9356	1829.7096	58083.3	57190.3
917.0756	1831.3741	57593.95	56700.25
917.2155	1833.0379	57876.65	56986.5
917.3555	1834.701	57851.6	56959.85
917.4954	1836.3633	57479.2	56587.7
917.6353	1838.0248	57698.3	56806.15
917.7751	1839.6856	57488.4	56597.7
917.915	1841.3457	57035.1	56144.1
918.0548	1843.005	57575.55	56684.7
918.1946	1844.6636	57213.9	56326.05
918.3344	1846.3214	56602.1	55710.75
918.4742	1847.9785	56757.65	55866.1
918.6139	1849.6349	56663.65	55770.5
918.7537	1851.2904	57073.6	56172.85
918.8934	1852.9453	56331.25	55438.45
919.0331	1854.5994	56582.3	55690.6
919.1727	1856.2528	56578.75	55682.05
919.3124	1857.9054	56117.8	55226.7
919.452	1859.5572	55947.05	55058.35
919.5916	1861.2083	56156.5	55265.95
919.7312	1862.8587	56582.5	55693.65
919.8708	1864.5084	55356.8	54465.95
920.0103	1866.1572	55889.85	54998.4
920.1498	1867.8054	55224.25	54332.3
920.2893	1869.4528	55565.05	54672.55
920.4288	1871.0994	55095.45	54204.35
920.5683	1872.7453	54947.75	54055.35
920.7077	1874.3905	55224.1	54325.3
920.8471	1876.0349	54656.05	53766.05
920.9865	1877.6786	55062.1	54170.55
921.1259	1879.3215	54575.5	53684.8
921.2653	1880.9637	55026.3	54135.1
921.4046	1882.6051	54521.6	53632.9
921.5439	1884.2458	54251.3	53358.3
921.6832	1885.8858	53923.25	53032.2
921.8225	1887.525	54157.7	53266.55
921.9617	1889.1634	53996.25	53106.15
922.101	1890.8011	53746	52856.6
922.2402	1892.4381	53144.55	52255.3
922.3794	1894.0743	53736.2	52845.95
922.5185	1895.7098	53400.45	52510.6
922.6577	1897.3446	53040.8	52149.2
922.7968	1898.9786	53136.6	52242.25
922.9359	1900.6118	52815.3	51926.25
923.075	1902.2443	52556.55	51664.85
923.214	1903.8761	52837.65	51946
923.3531	1905.5071	52395.05	51503.9
923.4921	1907.1374	51777.2	50886.55
923.6311	1908.7669	52003	51111.45
923.77	1910.3957	52256.8	51366.95
923.909	1912.0237	51683.3	50791.95
924.0479	1913.651	51455.25	50566.15
924.1868	1915.2776	51234.8	50346.5
924.3257	1916.9034	51177.35	50289.75
924.4646	1918.5285	50930.6	50040.45
924.6034	1920.1528	50891.3	50000
924.7422	1921.7764	50671.6	49782.1
924.881	1923.3992	50605.3	49713.75
925.0198	1925.0213	50173.7	49283.7
925.1586	1926.6427	49851.35	48960.45
925.2973	1928.2633	50022	49056.35
925.436	1929.8832	49780.25	48888.35
925.5747	1931.5023	49605.6	48714.8
925.7134	1933.1207	49308.15	48418.6
925.852	1934.7383	49470.55	48579.2
925.9906	1936.3552	49069.2	48179.2
926.1292	1937.9714	49003.2	48114.25
926.2678	1939.5868	48918.7	48026.3
926.4064	1941.2015	48556.2	47666.75
926.5449	1942.8154	48292.8	47404.9
926.6834	1944.4286	48219.9	47329.35
926.8219	1946.041	48135.95	47227
926.9604	1947.6528	47864.45	46968.3
927.0988	1949.2637	47709.7	46820
927.2372	1950.8739	47499.8	46606.95
927.3756	1952.4834	47495.55	46604.6
927.514	1954.0921	47393.6	46502.15
927.6523	1955.7001	47100.1	46205.2
927.7907	1957.3074	47139.15	46251.55
927.929	1958.9139	46800.75	45910
928.0673	1960.5197	46781.3	45888.45
928.2055	1962.1247	46516.05	45625.9
928.3438	1963.729	46274.2	45386
928.482	1965.3325	46106.25	45192.25
928.6202	1966.9353	46066.1	45175.6
928.7584	1968.5374	45786.15	44896.2
928.8965	1970.1387	45606.55	44717.35
929.0346	1971.7393	45546.05	44655.6
929.1727	1973.3392	45385.8	44495.75
929.3108	1974.9383	45152.75	44265.5
929.4489	1976.5366	44965.45	44076.25
929.5869	1978.1342	44972.7	44082.55
929.7249	1979.7311	44827.05	43936.3
929.8629	1981.3273	44718.8	43828.15
930.0009	1982.9227	44505.6	43614.2
930.1388	1984.5173	44387.5	43500.2
930.2767	1986.1112	44141.05	43252.55
930.4146	1987.7044	44191.9	43304.05
930.5525	1989.2968	43824.75	42934.85
930.6904	1990.8885	43917.8	43025.65
930.8282	1992.4795	43775.75	42883.55
930.966	1994.0697	43559.7	42669.65
931.1038	1995.6592	43444.15	42553.1
931.2415	1997.2479	43309.8	42422.6
931.3793	1998.8359	43196.5	42308.15
931.517	2000.4232	42936	42046.75
931.6547	2002.0097	42840.35	41951.25
931.7923	2003.5955	42605.75	41716.65
931.93	2005.1805	42591.05	41700.05
932.0676	2006.7648	42478.55	41590.1
932.2052	2008.3484	42410.25	41520.05
932.3427	2009.9312	42375.55	41484.2
932.4803	2011.5133	42145.55	41258.7
932.6178	2013.0946	42046.1	41157.75
932.7553	2014.6752	41907.4	41023.6
932.8928	2016.2551	41753.3	40863.95
933.0302	2017.8342	41582.35	40694.1
933.1676	2019.4126	41492.25	40604.6
933.305	2020.9902	41275.8	40387.7
933.4424	2022.5672	41253.05	40361.75
933.5798	2024.1433	41118.9	40226.45
933.7171	2025.7188	40958.95	40070.4
933.8544	2027.2935	40877.7	39988.5
933.9917	2028.8674	40729.3	39841.8
934.129	2030.4406	40611.65	39724.65
934.2662	2032.0131	40369.95	39480.3
934.4034	2033.5849	40275.2	39381.2
934.5406	2035.1559	40196.95	39308.2
934.6778	2036.7261	40182.5	39292.9
934.8149	2038.2957	40031.15	39142.85
934.952	2039.8645	39936.05	39048.6
935.0891	2041.4325	39935.9	39044.65
935.2262	2042.9998	39743.55	38856.25
935.3632	2044.5664	39617.05	38726.7
935.5002	2046.1323	39471.35	38583.6
935.6372	2047.6974	39327	38440.5
935.7742	2049.2617	39284.7	38398.25
935.9111	2050.8254	39250.25	38356.9
936.048	2052.3883	39091	38200.55
936.1849	2053.9504	38934.85	38047.55
936.3218	2055.5118	38858.25	37968.35
936.4586	2057.0725	38684.9	37791.65
936.5955	2058.6325	38610.1	37721.4
936.7323	2060.1917	38486.35	37598.3
936.869	2061.7502	38398.65	37507.85
937.0058	2063.3079	38216.2	37328.75
937.1425	2064.8649	38063.75	37171.1
937.2792	2066.4212	37965.55	37076.45
937.4159	2067.9767	37923.45	37034.9
937.5525	2069.5315	37756.55	36866.3
937.6891	2071.0856	37567.6	36680.9
937.8257	2072.6389	37421.05	36531.3
937.9623	2074.1915	37240	36351.75
938.0989	2075.7433	37066.65	36176.6
938.2354	2077.2945	37050.4	36163.75
938.3719	2078.8448	36870.55	35982.15
938.5084	2080.3945	36755.9	35865.65
938.6448	2081.9434	36717.35	35830.8
938.7812	2083.4916	36548.5	35659.95
938.9176	2085.039	36435.45	35547.25
939.054	2086.5857	36381.6	35490.35
939.1903	2088.1317	36361.2	35469.45
939.3267	2089.677	36233.05	35343.25
939.463	2091.2215	36063.35	35173.55
939.5992	2092.7652	35941.95	35051.45
939.7355	2094.3083	35893.75	35006
939.8717	2095.8506	35789.4	34899.75
940.0079	2097.3921	35799.4	34910.8
940.1441	2098.933	35634.75	34746.65
940.2802	2100.4731	35561.65	34673.6
940.4163	2102.0124	35524.7	34628.25
940.5524	2103.5511	35410.05	34520.45
940.6885	2105.089	35330.2	34442.8
940.8245	2106.6261	35203.45	34316.75
940.9606	2108.1626	35112.15	34222.25
941.0965	2109.6983	35042.25	34125.95
941.2325	2111.2332	34934.8	34043.05
941.3684	2112.7675	34841.05	33951.65
941.5044	2114.301	34694.1	33802.45
941.6403	2115.8337	34680.65	33791.4
941.7761	2117.3657	34566.7	33679
941.912	2118.897	34509.95	33619.9
942.0478	2120.4276	34393.45	33498.85
942.1835	2121.9575	34237.75	33348.35
942.3193	2123.4866	34238.5	33335.6
942.455	2125.0149	34079.4	33187.8
942.5907	2126.5426	33867.3	32978.95
942.7264	2128.0695	33787.95	32894
942.8621	2129.5956	33737.25	32849.65
942.9977	2131.1211	33676.7	32783.05
943.1333	2132.6458	33600.2	32711.4
943.2689	2134.1698	33505.85	32616.5
943.4044	2135.693	33396.15	32506.05
943.54	2137.2155	33314.45	32424.6
943.6755	2138.7373	33255.45	32365.05
943.8109	2140.2584	33132.45	32244.2
943.9464	2141.7787	33047.7	32153.45
944.0818	2143.2983	32858.5	31970.55
944.2172	2144.8171	32719.3	31832.95
944.3526	2146.3353	32619.7	31729.8
944.4879	2147.8527	32479.25	31592.35
944.6232	2149.3693	32496.7	31606.35
944.7585	2150.8853	32355.55	31464.65
944.8938	2152.4005	32179.1	31289.7
945.029	2153.9149	32208.2	31318.05
945.1642	2155.4287	32022.75	31134.55
945.2994	2156.9417	31998.3	31109.35
945.4346	2158.454	31875.4	30984.65
945.5697	2159.9655	31785.6	30898.1
945.7048	2161.4764	31715.15	30826
945.8399	2162.9865	31616.1	30728.95
945.9749	2164.4958	31540.25	30651
946.1099	2166.0045	31386.9	30493.7
946.2449	2167.5124	31415.1	30525.1
946.3799	2169.0195	31266.4	30378.9
946.5148	2170.526	31202.35	30314.15
946.6498	2172.0317	31110.7	30221.05
946.7846	2173.5367	31012.85	30124.7
946.9195	2175.0409	30907.3	30021.05
947.0543	2176.5445	30921.5	30032.6
947.1891	2178.0473	30733.2	29845.35
947.3239	2179.5494	30635.45	29743.75
947.4587	2181.0507	30523.1	29632.95
947.5934	2182.5513	30447.75	29558.2
947.7281	2184.0512	30381.45	29492.65
947.8628	2185.5504	30303.1	29415.45
947.9974	2187.0488	30119.05	29230.6
948.132	2188.5465	30052.95	29164.6
948.2666	2190.0435	29892.2	29003.2
948.4012	2191.5397	29795.05	28906.45
948.5357	2193.0353	29727.2	28839.7
948.6702	2194.5301	29536.1	28647.4
948.8047	2196.0241	29459.1	28569.55
948.9392	2197.5175	29362.45	28471.9
949.0736	2199.0101	29297.8	28404.3
949.208	2200.502	29150.95	28262.35
949.3424	2201.9931	29034.55	28145.3
949.4767	2203.4835	28908.45	28019.25
949.611	2204.9733	28832.2	27938.3
949.7453	2206.4622	28795.75	27908.25
949.8796	2207.9505	28647.5	27755.8
950.0138	2209.438	28496.05	27610.05
950.148	2210.9248	28391.35	27501.1
950.2822	2212.4109	28321.5	27434.1
950.4164	2213.8962	28228.3	27334.95
950.5505	2215.3809	28153.55	27263.45
950.6846	2216.8648	28082.25	27191.8
950.8186	2218.3479	27951.5	27058.85
950.9527	2219.8304	27905.2	27015.15
951.0867	2221.3121	27801.3	26907.8
951.2207	2222.7931	27719.1	26829.75
951.3546	2224.2733	27632.3	26742.65
951.4886	2225.7529	27541.85	26650.35
951.6225	2227.2317	27426.3	26535.25
951.7563	2228.7098	27399.95	26511.35
951.8902	2230.1872	27237.55	26349
952.024	2231.6638	27214.85	26326.55
952.1578	2233.1397	27028.9	26134.65
952.2916	2234.6149	27016.2	26127.15
952.4253	2236.0894	26904.6	26015.65
952.559	2237.5632	26856.85	25967.55
952.6927	2239.0362	26753.4	25864.25
952.8263	2240.5085	26672.2	25782.75
952.9599	2241.9801	26536.2	25645.75
953.0935	2243.4509	26478.95	25590.55
953.2271	2244.921	26364.4	25474.6
953.3606	2246.3904	26264.05	25373.1
953.4941	2247.8591	26186.8	25297.15
953.6276	2249.3271	26119.35	25231.95
953.7611	2250.7943	26003.4	25113.25
953.8945	2252.2608	25916.45	25027.7
954.0279	2253.7266	25820.05	24931.65
954.1612	2255.1917	25767.05	24877.7
954.2946	2256.656	25673.25	24784.35
954.4279	2258.1197	25615.35	24727
954.5612	2259.5826	25499.25	24607.75
954.6944	2261.0447	25471.05	24582.65
954.8276	2262.5062	25385.15	24494.3
954.9608	2263.9669	25311.1	24419.55
955.094	2265.4269	25270.65	24383.5
955.2271	2266.8862	25145.35	24256.75
955.3602	2268.3448	25099.45	24210.65
955.4933	2269.8026	25094.6	24206
955.6264	2271.2598	24937.3	24049
955.7594	2272.7162	24868.75	23981.15
955.8924	2274.1719	24812.55	23922.35
956.0253	2275.6268	24722.3	23832.6
956.1583	2277.0811	24685.9	23796.45
956.2912	2278.5346	24595.95	23707
956.4241	2279.9874	24551.4	23663.1
956.5569	2281.4395	24516.25	23628.45
956.6897	2282.8908	24386	23493.6
956.8225	2284.3414	24368.1	23477.65
956.9553	2285.7914	24249.55	23362.15
957.088	2287.2406	24175.7	23285.3
957.2207	2288.689	24089.85	23202.2
957.3534	2290.1368	24009.8	23120.5
957.486	2291.5838	23949.2	23059.3
957.6186	2293.0302	23860.2	22971.05
957.7512	2294.4758	23748.3	22859.7
957.8838	2295.9206	23663.25	22770.8
958.0163	2297.3648	23586.65	22699.2
958.1488	2298.8082	23556.4	22667
958.2813	2300.251	23493.3	22604.4
958.4137	2301.693	23441.75	22551.8
958.5461	2303.1343	23373.65	22484.85
958.6785	2304.5748	23308.7	22422
958.8108	2306.0147	23200.2	22310.85
958.9432	2307.4538	23162.65	22271.65
959.0754	2308.8922	23082.9	22196.25
959.2077	2310.3299	22962.85	22074.35
959.3399	2311.7669	22907.5	22017.9
959.4721	2313.2031	22835	21945.4
959.6043	2314.6387	22765.65	21875.35
959.7365	2316.0735	22667.4	21779.45
959.8686	2317.5076	22595.2	21708.35
960.0006	2318.941	22549.65	21660.75
960.1327	2320.3737	22468.05	21580.05
960.2647	2321.8056	22426.3	21533.15
960.3967	2323.2369	22347.5	21457.35
960.5287	2324.6674	22296.9	21403.25
960.6606	2326.0972	22208.05	21319.25
960.7925	2327.5263	22108.2	21218.7
960.9244	2328.9547	22040.55	21151.55
961.0562	2330.3823	21979.45	21089.7
961.1881	2331.8092	21999.65	21108.65
961.3198	2333.2355	21811.35	20922.85
961.4516	2334.661	21827.75	20940.05
961.5833	2336.0858	21732.25	20841.25
961.715	2337.5098	21656.2	20766.45
961.8467	2338.9332	21649	20759.8
961.9783	2340.3558	21574.95	20683.3
962.1099	2341.7778	21516.75	20627.8
962.2415	2343.199	21428.7	20538
962.373	2344.6195	21358.55	20471.5
962.5045	2346.0393	21298.75	20410.85
962.636	2347.4583	21250.75	20362.75
962.7675	2348.8767	21160.6	20269.55
962.8989	2350.2943	21065.35	20174.95
963.0303	2351.7113	21049.55	20157.7
963.1617	2353.1275	20975.35	20084.75
963.293	2354.543	20935.35	20038.9
963.4243	2355.9578	20899.15	20011.9
963.5556	2357.3718	20734.35	19845.25
963.6868	2358.7852	20643.5	19753.95
963.818	2360.1978	20584.9	19696.2
963.9492	2361.6098	20541.55	19654.4
964.0803	2363.021	20464.55	19572.5
964.2114	2364.4315	20405.95	19517.15
964.3425	2365.8413	20342.35	19452.7
964.4736	2367.2504	20264.1	19375.9
964.6046	2368.6587	20168.6	19281.75
964.7356	2370.0664	20100.3	19212.75
964.8666	2371.4733	20014.25	19122.75
964.9975	2372.8795	19964.5	19076.45
965.1284	2374.285	19869.9	18981.4
965.2593	2375.6899	19785	18896.6
965.3901	2377.0939	19696.3	18807.4
965.5209	2378.4973	19655.35	18766
965.6517	2379.9	19579.85	18690.6
965.7825	2381.3019	19531.9	18641.95
965.9132	2382.7032	19464.95	18577.65
966.0439	2384.1037	19430.95	18543.75
966.1745	2385.5035	19340.9	18452.7
966.3051	2386.9027	19248.8	18360.85
966.4357	2388.3011	19238.85	18348.3
966.5663	2389.6987	19159.95	18270.8
966.6968	2391.0957	19101.65	18213.6
966.8273	2392.492	18966.45	18080.3
966.9578	2393.8876	18877.45	17989.9
967.0882	2395.2824	18808.1	17921.35
967.2186	2396.6765	18701.45	17816.1
967.349	2398.07	18643.4	17756.4
967.4793	2399.4627	18622.4	17733.1
967.6097	2400.8547	18579	17691.55
967.7399	2402.246	18504.25	17609.1
967.8702	2403.6366	18380.05	17490.15
968.0004	2405.0265	18308.6	17422.8
968.1306	2406.4156	18262.85	17370.45
968.2607	2407.8041	18186.2	17293.4
968.3909	2409.1918	18119.75	17230.8
968.521	2410.5789	18021.4	17132.4
968.651	2411.9652	17962.95	17071.3
968.781	2413.3508	17888.6	17000.7
968.911	2414.7358	17811.9	16923.6
969.041	2416.12	17766.35	16878.2
969.1709	2417.5035	17710.4	16823.1
969.3008	2418.8863	17638.4	16751.4
969.4307	2420.2684	17585.05	16697.2
969.5606	2421.6497	17495.6	16607.65
969.6904	2423.0304	17410.05	16523.1
969.8201	2424.4104	17323.1	16434.8
969.9499	2425.7896	17298.1	16408.25
970.0796	2427.1682	17252.45	16364.7
970.2093	2428.546	17222.25	16331.6
970.3389	2429.9232	17172.1	16281.35
970.4685	2431.2996	17124.1	16236.1
970.5981	2432.6753	17076.55	16188.8
970.7277	2434.0503	17027.7	16139.5
970.8572	2435.4246	16946.8	16058
970.9867	2436.7982	16889.95	15997.9
971.1161	2438.1711	16843.65	15954
971.2456	2439.5433	16792.4	15905.4
971.375	2440.9148	16718.55	15825.8
971.5043	2442.2856	16609.1	15720.65
971.6336	2443.6557	16577.4	15688.85
971.7629	2445.025	16505.9	15618.95
971.8922	2446.3937	16495.55	15608.35
972.0214	2447.7617	16404.25	15514.9
972.1506	2449.1289	16410.45	15521.6
972.2798	2450.4955	16370.95	15476.25
972.4089	2451.8613	16297.35	15407.45
972.538	2453.2265	16249	15360.05
972.6671	2454.5909	16178.35	15291.5
972.7961	2455.9546	16166.9	15279.1
972.9251	2457.3177	16071.55	15184.9
973.0541	2458.68	16045.75	15157.15
973.1831	2460.0416	15999.8	15111.05
973.312	2461.4025	16004.15	15114.5
973.4408	2462.7627	15946.25	15044.85
973.5697	2464.1222	15886.35	14998.35
973.6985	2465.4811	15817.85	14929.2
973.8273	2466.8392	15765.2	14877
973.956	2468.1966	15749.65	14858.35
974.0847	2469.5533	15703.1	14810.6
974.2134	2470.9093	15649.65	14760.9
974.3421	2472.2645	15605.25	14713.5
974.4707	2473.6191	15549.75	14663.85
974.5993	2474.973	15496	14608.75
974.7278	2476.3262	15440.05	14550.8
974.8563	2477.6787	15352.45	14466.1
974.9848	2479.0305	15280.25	14392.25
975.1132	2480.3816	15248.9	14359
975.2417	2481.7319	15191.4	14302.95
975.37	2483.0816	15121.85	14227.75
975.4984	2484.4306	15065.9	14175.55
975.6267	2485.7789	15043.85	14155.65
975.755	2487.1264	14975.05	14085.65
975.8833	2488.4733	14901.45	14017.4
976.0115	2489.8195	14866.2	13971.3
976.1397	2491.165	14813.9	13923.35
976.2678	2492.5097	14748.1	13858.05
976.3959	2493.8538	14662.75	13773.5
976.524	2495.1972	14563.85	13674.4
976.6521	2496.5398	14491.7	13601.5
976.7801	2497.8818	14481.05	13590.9
976.9081	2499.2231	14431.1	13544.3
977.036	2500.5637	14409.2	13517.55
977.164	2501.9035	14345.7	13457.75
977.2918	2503.2427	14315.7	13422
977.4197	2504.5812	14268.1	13380.55
977.5475	2505.919	14255.05	13363.8
977.6753	2507.256	14195.1	13307.15
977.8031	2508.5924	14132.8	13242.95
977.9308	2509.9281	14082.2	13188.9
978.0585	2511.2631	14010.8	13122.45
978.1861	2512.5974	13972.3	13086.4
978.3137	2513.9309	13935.5	13046.6
978.4413	2515.2638	13904.95	12990.5
978.5689	2516.596	13842.1	12953.85
978.6964	2517.9275	13764.2	12875.9
978.8239	2519.2583	13728.05	12837.85
978.9513	2520.5884	13688.5	12798.05
979.0788	2521.9178	13607.35	12718.4
979.2062	2523.2465	13571.85	12686.45
979.3335	2524.5745	13510.15	12623.25
979.4608	2525.9018	13452.55	12564.65
979.5881	2527.2284	13447.05	12561.7
979.7154	2528.5543	13374.65	12488.8
979.8426	2529.8796	13342.15	12452.5
979.9698	2531.2041	13308.4	12417.75
980.0969	2532.5279	13307	12416.7
980.224	2533.851	13276.75	12388
980.3511	2535.1735	13211.55	12323.9
980.4781	2536.4952	13196.3	12308.65
980.6052	2537.8163	13174.65	12286.85
980.7321	2539.1366	13126.55	12238.75
980.8591	2540.4562	13061.7	12172.2
980.986	2541.7752	13045.25	12157.3
981.1129	2543.0935	13008.2	12119.45
981.2397	2544.411	13003.85	12115.55
981.3665	2545.7279	12945.25	12056.95
981.4933	2547.0441	12930.2	12040.8
981.62	2548.3596	12914.15	12023.35
981.7467	2549.6744	12851.5	11964.65
981.8734	2550.9885	12802.2	11905.65
982.0001	2552.3019	12766.8	11880.65
982.1267	2553.6146	12752.15	11863.55
982.2532	2554.9266	12691.55	11802.8
982.3798	2556.2379	12656.8	11767.3
982.5063	2557.5485	12629.8	11741.65
982.6327	2558.8585	12599.05	11704.1
982.7592	2560.1677	12560.35	11666.75
982.8856	2561.4762	12543.15	11653.85
983.0119	2562.7841	12528.5	11636.05
983.1383	2564.0913	12483.9	11596.2
983.2646	2565.3977	12475.65	11588.85
983.3908	2566.7035	12416.1	11528.15
983.517	2568.0086	12406.6	11517.05
983.6432	2569.313	12366.7	11478.4
983.7694	2570.6167	12335.05	11444.35
983.8955	2571.9197	12315.15	11426.65
984.0216	2573.222	12310.7	11419.1
984.1476	2574.5236	12253.2	11363.15
984.2737	2575.8246	12204.7	11313.9
984.3996	2577.1248	12182.95	11291.15
984.5256	2578.4244	12182	11292.7
984.6515	2579.7232	12155.8	11267.85
984.7774	2581.0214	12144.75	11231.4
984.9032	2582.3189	12088.6	11201.55
985.029	2583.6157	12071.9	11181.4
985.1548	2584.9118	12040.3	11150.25
985.2806	2586.2072	11981.55	11094.65
985.4063	2587.5019	11948.15	11058.75
985.5319	2588.7959	11923.2	11035.05
985.6576	2590.0893	11917.4	11027.35
985.7832	2591.3819	11863	10975.9
985.9087	2592.6739	11793.6	10908
986.0343	2593.9652	11777.8	10886.3
986.1597	2595.2557	11756.15	10868.8
986.2852	2596.5456	11712.25	10821.5
986.4106	2597.8348	11647.65	10760.05
986.536	2599.1234	11627.7	10740.4
986.6614	2600.4112	11553.05	10665.6
986.7867	2601.6983	11503.9	10613.7
986.912	2602.9848	11502.55	10613.2
987.0372	2604.2705	11426.5	10530.15
987.1624	2605.5556	11380.95	10491.7
987.2876	2606.84	11360.65	10472.2
987.4128	2608.1237	11351.3	10462.35
987.5379	2609.4067	11291.3	10402.85
987.6629	2610.689	11228.8	10332.4
987.788	2611.9707	11171.65	10279.55
987.913	2613.2516	11152.35	10259.15
988.0379	2614.5319	11084.5	10197
988.1629	2615.8115	11041.35	10152.35
988.2878	2617.0903	11009.05	10118.1
988.4126	2618.3685	10975.2	10087.15
988.5375	2619.6461	10941.05	10053
988.6622	2620.9229	10881.55	9993.15
988.787	2622.199	10862.05	9976.3
988.9117	2623.4745	10864.4	9974.4
989.0364	2624.7493	10818.7	9930.8
989.161	2626.0234	10753.6	9864.85
989.2857	2627.2968	10706.45	9819.4
989.4102	2628.5695	10664.1	9774.8
989.5348	2629.8415	10605.2	9719.35
989.6593	2631.1128	10578	9689.1
989.7837	2632.3835	10536.05	9646.85
989.9082	2633.6535	10492.15	9606
990.0326	2634.9228	10460.15	9572.3
990.1569	2636.1914	10407.15	9520.35
990.2812	2637.4593	10426.2	9532.95
990.4055	2638.7265	10368.2	9477.15
990.5298	2639.9931	10303.8	9416.5
990.654	2641.259	10305	9415.45
990.7782	2642.5242	10265.5	9376.4
990.9023	2643.7887	10235.75	9346.75
991.0264	2645.0525	10199.55	9311.8
991.1505	2646.3156	10161.15	9270.8
991.2745	2647.5781	10130.4	9241.8
991.3985	2648.8398	10085.6	9198
991.5225	2650.1009	10073.25	9147
991.6464	2651.3613	10019.65	9131.8
991.7703	2652.6211	10019	9129.65
991.8942	2653.8801	9980.05	9092.15
992.018	2655.1385	9939.6	9049.95
992.1418	2656.3961	9913.85	9026.05
992.2655	2657.6531	9882.95	8994.5
992.3892	2658.9094	9884.8	8997.7
992.5129	2660.1651	9869.15	8980.6
992.6366	2661.42	9814.6	8926.25
992.7602	2662.6743	9815.95	8926.75
992.8837	2663.9279	9797.85	8910.05
993.0073	2665.1808	9723.7	8835.35
993.1307	2666.433	9685.95	8796.25
993.2542	2667.6846	9675.15	8787.75
993.3776	2668.9354	9629.55	8738.1
993.501	2670.1856	9637.1	8747.1
993.6244	2671.4351	9581	8693.7
993.7477	2672.6839	9557.55	8666.9
993.8709	2673.9321	9534.6	8645.1
993.9942	2675.1795	9502.95	8615.15
994.1174	2676.4263	9479.8	8592
994.2405	2677.6724	9429.15	8541.8
994.3637	2678.9179	9422.9	8534.2
994.4868	2680.1626	9406.15	8518.2
994.6098	2681.4067	9366.05	8478.9
994.7328	2682.6501	9340.4	8454.95
994.8558	2683.8928	9305.55	8417.9
994.9788	2685.1348	9250.55	8362
995.1017	2686.3761	9232.5	8344.75
995.2245	2687.6168	9176.1	8289.35
995.3474	2688.8568	9165.6	8278.1
995.4702	2690.0961	9135.3	8247.75
995.5929	2691.3348	9105.15	8218.5
995.7156	2692.5727	9094.2	8206.05
995.8383	2693.81	9040.4	8154.75
995.961	2695.0466	9003.7	8116.45
996.0836	2696.2826	9004.2	8113.8
996.2062	2697.5178	9000.6	8108.45
996.3287	2698.7524	8954.8	8066
996.4512	2699.9863	8936.8	8047.95
996.5737	2701.2195	8861.9	7976.35
996.6961	2702.452	8860.05	7968.7
996.8185	2703.6839	8841.1	7950.5
996.9408	2704.9151	8798.65	7911.8
997.0631	2706.1456	8766.95	7879.5
997.1854	2707.3755	8740.1	7852.8
997.3077	2708.6046	8731.25	7838.65
997.4299	2709.8331	8696.6	7809.05
997.552	2711.0609	8680	7790.1
997.6742	2712.2881	8660.55	7773.05
997.7963	2713.5145	8629.3	7738.95
997.9183	2714.7403	8611.1	7723.95
998.0403	2715.9654	8548.7	7660.4
998.1623	2717.1899	8583.75	7682.8
998.2842	2718.4136	8544.15	7657.2
998.4062	2719.6367	8517.5	7630.7
998.528	2720.8591	8488.85	7596.6
998.6498	2722.0809	8462.35	7574.65
998.7716	2723.3019	8433.75	7541.85
998.8934	2724.5223	8389.9	7499.95
999.0151	2725.7421	8389.65	7499.45
999.1368	2726.9611	8359.8	7468.65
999.2584	2728.1795	8340.1	7447.95
999.38	2729.3972	8295.05	7407.1
999.5016	2730.6142	8244.95	7348.95
999.6231	2731.8306	8211.05	7322.35
999.7446	2733.0462	8153.75	7264.95
999.8661	2734.2612	8126.05	7232.8
999.9875	2735.4756	8077.45	7187.7
1000.1089	2736.6892	8018.8	7131.85
1000.2302	2737.9022	7991.1	7102.95
1000.3515	2739.1145	7935.9	7046.1
1000.4728	2740.3262	7919.85	7022.7
1000.594	2741.5372	7869.4	6980.65
1000.7152	2742.7475	7831.3	6942.8
1000.8363	2743.9571	7828.35	6938.1
1000.9575	2745.1661	7802	6908.6
1001.0785	2746.3744	7776.15	6886.9
1001.1996	2747.582	7739.25	6851.4
1001.3206	2748.7889	7690.95	6800.05
1001.4415	2749.9952	7668.5	6780.3
1001.5625	2751.2008	7651.15	6761.85
1001.6833	2752.4057	7622.5	6731.85
1001.8042	2753.61	7589.4	6700.5
1001.925	2754.8136	7541.5	6651.95
1002.0458	2756.0165	7525.8	6637.25
1002.1665	2757.2188	7492.4	6604.2
1002.2872	2758.4204	7464.9	6577.05
1002.4078	2759.6213	7450.25	6561.7
1002.5285	2760.8215	7457.4	6565
1002.649	2762.0211	7384.3	6494.7
1002.7696	2763.22	7399.7	6507.9
1002.8901	2764.4182	7368	6481.3
1003.0106	2765.6158	7331.25	6445.25
1003.131	2766.8127	7319.5	6430.35
1003.2514	2768.009	7272	6385.95
1003.3717	2769.2045	7245.55	6357.05
1003.492	2770.3994	7240	6348.7
1003.6123	2771.5936	7208.05	6320.3
1003.7325	2772.7872	7198.45	6309.95
1003.8527	2773.9801	7126.65	6238.6
1003.9729	2775.1723	7130.2	6226.1
1004.093	2776.3639	7109.45	6220.6
1004.2131	2777.5548	7085.25	6195.95
1004.3331	2778.745	7057.95	6168.5
1004.4531	2779.9346	7036.65	6149.15
1004.5731	2781.1235	7030.1	6142.55
1004.693	2782.3117	6983.95	6096.5
1004.8129	2783.4992	6952.95	6066
1004.9328	2784.6861	6928.15	6040.3
1005.0526	2785.8723	6941.75	6051.65
1005.1723	2787.0579	6905.25	6016.15
1005.2921	2788.2428	6890.05	6001.8
1005.4118	2789.427	6858.65	5973.55
1005.5314	2790.6106	6856.8	5969.9
1005.651	2791.7935	6830.8	5942.75
1005.7706	2792.9757	6803.15	5915.2
1005.8902	2794.1573	6773.85	5883.85
1006.0097	2795.3382	6795.2	5906.35
1006.1291	2796.5184	6748.7	5862
1006.2485	2797.698	6745.25	5857.7
1006.3679	2798.8769	6737.15	5851.4
1006.4873	2800.0551	6724.4	5835.25
1006.6066	2801.2327	6707.1	5817.15
1006.7258	2802.4096	6716.4	5828.8
1006.8451	2803.5859	6692.5	5805.5
1006.9642	2804.7615	6678.9	5790.5
1007.0834	2805.9364	6664.45	5778.4
1007.2025	2807.1106	6683	5797.4
1007.3216	2808.2842	6655.6	5765.9
1007.4406	2809.4572	6672	5784.35
1007.5596	2810.6294	6696.5	5807
1007.6785	2811.801	6698.65	5812.75
1007.7975	2812.972	6730.45	5842.6
1007.9163	2814.1423	6751.45	5864
1008.0352	2815.3119	6738.9	5850.05
1008.154	2816.4808	6777.65	5891.95
1008.2727	2817.6491	6801.25	5911.4
1008.3914	2818.8167	6816.4	5930.65
1008.5101	2819.9837	6850.3	5958.25
1008.6288	2821.15	6869.2	5979.45
1008.7474	2822.3157	6906	6019.75
1008.8659	2823.4807	6932.05	6045.3
1008.9844	2824.645	6966.5	6077.3
1009.1029	2825.8086	6989.55	6102.2
1009.2214	2826.9716	6999.35	6110.85
1009.3398	2828.134	7026.6	6137.9
1009.4581	2829.2957	7053.45	6165.75
1009.5764	2830.4567	7097.05	6210.7
1009.6947	2831.617	7071.95	6184.6
1009.813	2832.7767	7069.5	6184.25
1009.9312	2833.9358	7051.55	6165.1
1010.0493	2835.0941	7036.1	6145.85
1010.1675	2836.2519	7023.2	6137.55
1010.2855	2837.4089	6983.65	6095.05
1010.4036	2838.5653	6964.15	6075.8
1010.5216	2839.7211	6926.55	6039
1010.6396	2840.8761	6934.4	6046.9
1010.7575	2842.0306	6915.6	6030.4
1010.8754	2843.1843	6955	6068.9
1010.9932	2844.3374	6986.6	6100.25
1011.111	2845.4899	6989.3	6101.95
1011.2288	2846.6417	7030.25	6141.7
1011.3465	2847.7928	7079.45	6191.7
1011.4642	2848.9433	7126.85	6240.95
1011.5818	2850.0931	7155.4	6269.05
1011.6995	2851.2422	7213.85	6324.2
1011.817	2852.3907	7266.6	6380.5
1011.9345	2853.5385	7305.15	6417.15
1012.052	2854.6857	7345.6	6449.15
1012.1695	2855.8323	7367.3	6480.3
1012.2869	2856.9781	7372.9	6487.1
1012.4042	2858.1233	7395.3	6507.95
1012.5216	2859.2679	7399.6	6512.45
1012.6389	2860.4118	7431.65	6542.55
1012.7561	2861.555	7464.35	6572.25
1012.8733	2862.6976	7491.65	6602.7
1012.9905	2863.8395	7487.1	6599.65
1013.1076	2864.9808	7517.95	6631.1
1013.2247	2866.1214	7498.7	6612.55
1013.3417	2867.2614	7489.95	6601.15
1013.4587	2868.4007	7475.55	6587.5
1013.5757	2869.5393	7461.75	6573
1013.6926	2870.6773	7462.4	6572.85
1013.8095	2871.8146	7484.15	6594.7
1013.9263	2872.9513	7458.55	6567.45
1014.0431	2874.0874	7403.05	6514.95
1014.1599	2875.2227	7396.65	6508.55
1014.2766	2876.3574	7365.65	6478.25
1014.3933	2877.4915	7303.25	6417.15
1014.51	2878.6249	7254.45	6367.9
1014.6266	2879.7577	7219.7	6330.45
1014.7431	2880.8898	7180	6281.25
1014.8596	2882.0212	7155.15	6268.9
1014.9761	2883.152	7121.5	6233.8
1015.0925	2884.2821	7089.1	6201.85
1015.2089	2885.4116	7073.85	6188.25
1015.3253	2886.5405	7043.65	6156
1015.4416	2887.6686	7051.7	6161.65
1015.5579	2888.7962	7002.4	6117.4
1015.6741	2889.923	7014.15	6127.8
1015.7903	2891.0493	7014.35	6128.9
1015.9065	2892.1748	7006.4	6119.15
1016.0226	2893.2997	6984.65	6096.7
1016.1387	2894.424	6965.6	6079.85
1016.2547	2895.5476	6972.8	6084.6
1016.3707	2896.6706	6975.25	6089.4
1016.4866	2897.7929	6976.2	6088.3
1016.6025	2898.9145	6991.3	6104.15
1016.7184	2900.0355	6988.3	6100.7
1016.8342	2901.1559	7002.05	6115.65
1016.95	2902.2756	7010.8	6123.35
1017.0658	2903.3946	7025.9	6140
1017.1815	2904.513	7044.2	6151.65
1017.2971	2905.6308	6999.85	6112.6
1017.4127	2906.7479	7039.6	6152.5
1017.5283	2907.8643	7055.65	6168.15
1017.6439	2908.9801	7028.85	6141.1
1017.7594	2910.0953	7022	6134.95
1017.8748	2911.2098	6992.55	6103.25
1017.9902	2912.3236	6993.1	6097.5
1018.1056	2913.4368	6953.9	6063.35
1018.2209	2914.5494	6927.05	6041.1
1018.3362	2915.6613	6889.85	5998.35
1018.4515	2916.7725	6833.05	5942.7
1018.5667	2917.8831	6801.85	5913.9
1018.6819	2918.9931	6763.95	5873.45
1018.797	2920.1024	6712.15	5824.75
1018.9121	2921.211	6683.7	5797.7
1019.0271	2922.319	6673.85	5786.05
1019.1421	2923.4264	6638.65	5753.1
1019.2571	2924.5331	6613.65	5727.9
1019.372	2925.6391	6591.8	5703.65
1019.4869	2926.7445	6580.4	5694.75
1019.6017	2927.8493	6553.3	5666.75
1019.7165	2928.9534	6522.25	5633.8
1019.8313	2930.0569	6512.05	5620.85
1019.946	2931.1597	6509.4	5620.25
1020.0606	2932.2619	6495.85	5609.3
1020.1753	2933.3634	6501.6	5615.35
1020.2899	2934.4643	6462.6	5568.75
1020.4044	2935.5645	6447.1	5554.05
1020.5189	2936.6641	6400.15	5510.4
1020.6334	2937.763	6355.25	5468.75
1020.7478	2938.8613	6301.55	5414.35
1020.8622	2939.959	6255.6	5364.35
1020.9765	2941.056	6187.1	5301.6
1021.0908	2942.1523	6105.4	5218.05
1021.2051	2943.248	6006.8	5118.8
1021.3193	2944.3431	5933.7	5045.95
1021.4334	2945.4375	5812.95	4924.4
1021.5476	2946.5313	5724.25	4838.75
1021.6617	2947.6244	5606.5	4719.15
1021.7757	2948.7169	5505.8	4617.05
1021.8897	2949.8087	5403.15	4515.15
1022.0037	2950.8999	5317.4	4430.6
1022.1176	2951.9904	5227.45	4342.35
1022.2315	2953.0803	5158.2	4270.45
1022.3453	2954.1696	5092	4206.2
1022.4591	2955.2582	5036.8	4150.05
1022.5728	2956.3462	4976.7	4090
1022.6865	2957.4335	4930.2	4042.35
1022.8002	2958.5202	4873.15	3985.35
1022.9138	2959.6062	4839.3	3952.1
1023.0274	2960.6916	4792.3	3905.5
1023.141	2961.7764	4781.2	3892.45
1023.2545	2962.8605	4747.45	3860.8
1023.3679	2963.9439	4703.25	3817.85
1023.4813	2965.0267	4692.65	3805.8
1023.5947	2966.1089	4694.25	3784.4
1023.708	2967.1905	4656.1	3768.3
1023.8213	2968.2714	4634.7	3749.15
1023.9346	2969.3516	4631.75	3746.1
1024.0478	2970.4312	4610.05	3718.7
1024.1609	2971.5102	4600.7	3713.15
1024.274	2972.5885	4599.2	3711.95
1024.3871	2973.6662	4587.05	3694.5
1024.5002	2974.7432	4562.45	3674.8
1024.6132	2975.8196	4530.95	3644.1
1024.7261	2976.8954	4503.95	3619.85
1024.839	2977.9705	4481.7	3595.25
1024.9519	2979.045	4472.15	3585.65
1025.0647	2980.1188	4458.8	3571.7
1025.1775	2981.192	4430.35	3543.65
1025.2902	2982.2645	4392.65	3504.2
1025.4029	2983.3364	4360.9	3474.55
1025.5156	2984.4077	4338.75	3452.55
1025.6282	2985.4783	4295.3	3402.95
1025.7407	2986.5483	4249.7	3363.35
1025.8532	2987.6177	4207.55	3322.05
1025.9657	2988.6864	4177.65	3289.75
1026.0782	2989.7545	4139.55	3251.3
1026.1906	2990.8219	4111.5	3223.85
1026.3029	2991.8887	4058.65	3169.5
1026.4152	2992.9548	4038.9	3150.5
1026.5275	2994.0204	4002.2	3116.5
1026.6397	2995.0852	3958.75	3072.75
1026.7519	2996.1495	3938.1	3049.9
1026.864	2997.2131	3878.1	2991.9
1026.9761	2998.276	3852	2963.05
1027.0882	2999.3383	3831	2943.8
1027.2002	3000.4	3799.6	2912.3
1027.3122	3001.4611	3784.25	2895.9
1027.4241	3002.5215	3747.65	2860.55
1027.536	3003.5812	3724.3	2838
1027.6478	3004.6404	3707.85	2823
1027.7596	3005.6989	3697.5	2807.7
1027.8714	3006.7567	3680.9	2794.7
1027.9831	3007.8139	3672.55	2763.05
1028.0947	3008.8705	3630.55	2742.95
1028.2064	3009.9264	3626.55	2737.3
1028.3179	3010.9818	3619.25	2734.4
1028.4295	3012.0364	3603.95	2717.2
1028.541	3013.0905	3582.6	2696.35
1028.6524	3014.1439	3580.8	2693.45
1028.7638	3015.1966	3554.35	2667.95
1028.8752	3016.2487	3531.95	2644.8
1028.9865	3017.3002	3535.55	2643.85
1029.0978	3018.3511	3536.45	2650.3
1029.209	3019.4013	3516.1	2628.6
1029.3202	3020.4509	3498.8	2613.1
1029.4314	3021.4998	3494.85	2608.15
1029.5425	3022.5481	3494.65	2609.25
1029.6535	3023.5958	3469.75	2582.65
1029.7645	3024.6428	3457.95	2570.4
1029.8755	3025.6892	3458.3	2572.1
1029.9864	3026.735	3453.65	2566.4
1030.0973	3027.7802	3453.4	2565.7
1030.2082	3028.8247	3424.95	2538.15
1030.319	3029.8685	3408.45	2521.9
1030.4297	3030.9118	3418.5	2531
1030.5404	3031.9544	3396.65	2510.8
1030.6511	3032.9963	3378.8	2492.35
1030.7617	3034.0376	3388.65	2503
1030.8723	3035.0783	3374.25	2484.65
1030.9829	3036.1184	3381.3	2493.75
1031.0934	3037.1578	3355.3	2468.8
1031.2038	3038.1966	3344.35	2455.75
1031.3142	3039.2348	3347.15	2459.9
1031.4246	3040.2723	3341.55	2449.3
1031.5349	3041.3092	3325.2	2438.15
1031.6452	3042.3455	3317.4	2431.45
1031.7554	3043.3811	3302.25	2415.15
1031.8656	3044.4161	3289.7	2403.4
1031.9758	3045.4505	3278.1	2392.55
1032.0859	3046.4842	3285.6	2397.75
1032.1959	3047.5173	3252.15	2367.45
1032.3059	3048.5498	3234.25	2348
1032.4159	3049.5816	3233.75	2347.8
1032.5258	3050.6128	3227	2338.4
1032.6357	3051.6434	3222.45	2334.3
1032.7455	3052.6734	3197.7	2309
1032.8553	3053.7027	3184.25	2296.55
1032.9651	3054.7314	3180.5	2293.65
1033.0748	3055.7594	3166.9	2281.75
1033.1845	3056.7868	3157.15	2269.35
1033.2941	3057.8136	3134.9	2249.9
1033.4037	3058.8398	3129.85	2244.15
1033.5132	3059.8653	3121.35	2237.35
1033.6227	3060.8902	3100.85	2214.7
1033.7321	3061.9145	3078.65	2192
1033.8415	3062.9381	3069	2182.4
1033.9509	3063.9612	3087.65	2184.35
1034.0602	3064.9835	3062.65	2176.2
1034.1694	3066.0053	3040.35	2150.75
1034.2787	3067.0264	3045.1	2161.75
1034.3878	3068.0469	3034.7	2147.1
1034.497	3069.0668	3004.8	2115.05
1034.6061	3070.086	3008.35	2121.85
1034.7151	3071.1046	2982	2094.75
1034.8241	3072.1226	2985.7	2099.1
1034.9331	3073.1399	2965.6	2079.6
1035.042	3074.1567	2950.7	2063.25
1035.1508	3075.1727	2923.6	2035.5
1035.2597	3076.1882	2913.3	2027.85
1035.3684	3077.203	2907.25	2019.55
1035.4772	3078.2173	2891.15	2003.4
1035.5859	3079.2308	2871.9	1980.15
1035.6945	3080.2438	2855.05	1965.95
1035.8031	3081.2561	2841.05	1953.75
1035.9117	3082.2678	2833.15	1946.25
1036.0202	3083.2789	2824.55	1938.7
1036.1286	3084.2893	2814.05	1928.35
1036.2371	3085.2991	2793.55	1907.8
1036.3454	3086.3083	2779.55	1889.85
1036.4538	3087.3169	2776.75	1888.3
1036.562	3088.3248	2765.55	1878.75
1036.6703	3089.3321	2768.05	1879.95
1036.7785	3090.3388	2738.45	1852.4
1036.8866	3091.3449	2739.35	1852
1036.9948	3092.3503	2729.55	1840.95
1037.1028	3093.3551	2702.7	1817.3
1037.2108	3094.3593	2699	1813.9
1037.3188	3095.3629	2691.4	1806.45
1037.4267	3096.3658	2667.15	1779.7
1037.5346	3097.3681	2669.1	1782.7
1037.6425	3098.3698	2658.25	1771.4
1037.7503	3099.3708	2643.3	1750.3
1037.858	3100.3713	2635.9	1750.1
1037.9657	3101.3711	2630.65	1744.05
1038.0734	3102.3702	2738.55	1714.75
1038.181	3103.3688	2628.9	1740.5
1038.2886	3104.3667	2599.4	1714.25
1038.3961	3105.364	2592	1705.1
1038.5036	3106.3607	2569.4	1682.85
1038.611	3107.3568	2545.8	1656.1
1038.7184	3108.3522	2549.85	1666.3
1038.8257	3109.347	2538.15	1650.05
1038.933	3110.3412	2531.3	1641.35
1039.0403	3111.3348	2512.95	1626.45
1039.1475	3112.3277	2509	1621.6
1039.2547	3113.32	2499.75	1615.4
1039.3618	3114.3117	2490.4	1602.1
1039.4689	3115.3028	2488.85	1603.2
1039.5759	3116.2932	2478.3	1589.7
1039.6829	3117.2831	2473.05	1582.05
1039.7898	3118.2723	2464.35	1577.5
1039.8967	3119.2608	2447.35	1560.1
1040.0035	3120.2488	2446.35	1559.25
1040.1103	3121.2361	2420.7	1533.65
1040.2171	3122.2229	2422.75	1536.85
1040.3238	3123.209	2411.8	1523.9
1040.4305	3124.1944	2406.85	1521.75
1040.5371	3125.1793	2401.9	1513.65
1040.6437	3126.1635	2390.7	1507.65
1040.7502	3127.1471	2377.7	1492.55
1040.8567	3128.1301	2364.15	1476.8
1040.9631	3129.1125	2351.3	1465.05
1041.0695	3130.0942	2366.75	1479.75
1041.1759	3131.0753	2353.45	1458.6
1041.2822	3132.0558	2352.75	1462.3
1041.3884	3133.0357	2333	1446.2
1041.4946	3134.015	2332.75	1445.05
1041.6008	3134.9936	2317.35	1429.25
1041.7069	3135.9716	2336.85	1430.15
1041.813	3136.949	2314.45	1427.35
1041.919	3137.9258	2318.65	1427
1042.025	3138.902	2309.45	1417.55
1042.1309	3139.8775	2290.95	1404.1
1042.2368	3140.8524	2298.75	1413.9
1042.3427	3141.8267	2288.85	1400.1
1042.4485	3142.8004	2268.35	1381.45
1042.5542	3143.7735	2277.25	1384.25
1042.6599	3144.7459	2270.15	1381.1
1042.7656	3145.7178	2258.3	1371.25
1042.8712	3146.689	2250.35	1365.65
1042.9768	3147.6596	2232.65	1343.45
1043.0823	3148.6295	2242.3	1356.4
1043.1878	3149.5989	2225.85	1339.7
1043.2932	3150.5676	2212.7	1327.5
1043.3986	3151.5357	2205.9	1320.85
1043.5039	3152.5032	2205.7	1320.6
1043.6092	3153.4701	2181.95	1293.6
1043.7145	3154.4364	2187.05	1297.15
1043.8197	3155.402	2182.05	1296.15
1043.9248	3156.367	2174.95	1287.35
1044.03	3157.3315	2203.8	1274.65
1044.135	3158.2952	2159.5	1275.15
1044.24	3159.2584	2149.2	1264.05
1044.345	3160.221	2148.3	1262.3
1044.4499	3161.1829	2139.4	1254.15
1044.5548	3162.1442	2128.4	1241.7
1044.6596	3163.105	2128.55	1240.85
1044.7644	3164.065	2119.3	1231.75
1044.8692	3165.0245	2113.45	1224.7
1044.9739	3165.9834	2095.55	1211.45
1045.0785	3166.9416	2091.65	1205.75
1045.1831	3167.8993	2093.45	1205.65
1045.2877	3168.8563	2084.35	1199.1
1045.3922	3169.8127	2069.75	1181.7
1045.4966	3170.7684	2069.5	1182.85
1045.6011	3171.7236	2060	1170.05
1045.7054	3172.6782	2057.7	1171.25
1045.8098	3173.6321	2055.9	1167.35
1045.914	3174.5854	2059.4	1168.75
1046.0183	3175.5381	2036.15	1150.25
1046.1224	3176.4902	2044.6	1158.45
1046.2266	3177.4417	2025.8	1138.1
1046.3307	3178.3926	2016.85	1130.5
1046.4347	3179.3428	2012.05	1125.5
1046.5387	3180.2924	2005.6	1119.2
1046.6427	3181.2415	2000.5	1113.5
1046.7466	3182.1899	1994.15	1106.9
1046.8504	3183.1377	1986.75	1102.9
1046.9542	3184.0848	1978.15	1087.6
1047.058	3185.0314	1978.2	1090.35
1047.1617	3185.9773	1976	1088.05
1047.2654	3186.9227	1968.3	1083.5
1047.369	3187.8674	1957.5	1070.25
1047.4726	3188.8115	1959.45	1069.95
1047.5761	3189.755	1949.6	1064.05
1047.6796	3190.6979	1938.75	1052.25
1047.783	3191.6402	1940.75	1054.95
1047.8864	3192.5818	1930.55	1044.6
1047.9898	3193.5229	1942.85	1031.65
1048.0931	3194.4633	1922.4	1036.3
1048.1963	3195.4031	1913.65	1027.7
1048.2995	3196.3423	1906.5	1021.1
1048.4027	3197.2809	1902.75	1017.45
1048.5058	3198.2189	1907.35	1022.8
1048.6089	3199.1563	1895.55	1003.75
1048.7119	3200.0931	1895	1007.2
1048.8148	3201.0292	1876.75	990.65
1048.9178	3201.9648	1877.4	992.15
1049.0206	3202.8997	1886.7	997.3
1049.1235	3203.834	1866.7	981.3
1049.2262	3204.7677	1856.6	972.05
1049.329	3205.7008	1859.3	971
1049.4317	3206.6333	1850.45	967.55
1049.5343	3207.5652	1844.55	955.2
1049.6369	3208.4964	1841.95	954
1049.7394	3209.4271	1837.1	950.65
1049.8419	3210.3571	1825.7	939.5
1049.9444	3211.2865	1837.15	950.95
1050.0468	3212.2154	1818.8	931.95
1050.1491	3213.1436	1829.6	940.85
1050.2514	3214.0712	1825.5	932.35
1050.3537	3214.9982	1806	919.95
1050.4559	3215.9246	1801.15	915.15
1050.5581	3216.8503	1799.25	913.55
1050.6602	3217.7755	1795.75	908.55
1050.7623	3218.7001	1796.25	910.4
1050.8643	3219.624	1785.45	899.6
1050.9663	3220.5473	1780.3	895
1051.0682	3221.4701	1777.35	888.25
1051.1701	3222.3922	1772.8	883.6
1051.2719	3223.3137	1766.25	880.85
1051.3737	3224.2346	1765.65	878.95
1051.4754	3225.1549	1755.45	870.95
1051.5771	3226.0746	1748.1	863
1051.6788	3226.9937	1744.9	858.2
1051.7804	3227.9121	1751.4	866.95
1051.8819	3228.83	1736.45	851.55
1051.9834	3229.7473	1731.85	844.2
1052.0849	3230.6639	1729.85	842.9
1052.1863	3231.5799	1727.65	841.95
1052.2876	3232.4954	1722	834.8
1052.3889	3233.4102	1718.15	832.3
1052.4902	3234.3244	1712.15	825.25
1052.5914	3235.238	1706.3	820.15
1052.6926	3236.151	1729	817.95
1052.7937	3237.0634	1693.3	808.3
1052.8948	3237.9752	1688.7	803.4
1052.9958	3238.8864	1688.6	802.55
1053.0968	3239.797	1683.85	798.9
1053.1977	3240.7069	1681.5	795
1053.2986	3241.6163	1673.8	787.85
1053.3994	3242.5251	1661.5	776.2
1053.5002	3243.4332	1667.95	779.9
1053.6009	3244.3408	1663.45	773.8
1053.7016	3245.2477	1652.9	766.7
1053.8022	3246.154	1651.4	764.9
1053.9028	3247.0598	1642.15	754.85
1054.0034	3247.9649	1639	755.35
1054.1039	3248.8694	1636.85	750.85
1054.2043	3249.7733	1629.4	743.95
1054.3047	3250.6766	1625.95	741.5
1054.4051	3251.5793	1626.2	740.4
1054.5054	3252.4814	1621.3	734.65
1054.6056	3253.3829	1607.55	720.5
1054.7058	3254.2838	1609.65	722.5
1054.806	3255.1841	1604.7	719.2
1054.9061	3256.0838	1598	711.75
1055.0061	3256.9829	1583.1	698.9
1055.1062	3257.8814	1583.55	695.25
1055.2061	3258.7792	1573.4	686.15
1055.306	3259.6765	1572.85	686
1055.4059	3260.5731	1563.5	677.85
1055.5057	3261.4692	1548.75	661.6
1055.6055	3262.3647	1544.1	656.65
1055.7052	3263.2595	1540.55	653.05
1055.8049	3264.1538	1539.1	652.25
1055.9045	3265.0474	1523.2	636.1
1056.0041	3265.9404	1514.8	628.6
1056.1036	3266.8329	1498.6	613.7
1056.2031	3267.7247	1502.9	607
1056.3025	3268.616	1473.15	587.85
1056.4019	3269.5066	1460.55	572.4
1056.5013	3270.3966	1442.4	554.2
1056.6005	3271.286	1430.65	545.65
