Software Version:	3.9.2.0
Unit SN:	10000200
Spectrometer SN:	6960
Date:	3/6/2024 9:56:52 AM
Data Line Index:	25
Spectral Points:	2048
Integration time (ms):	125
Averages:	20
Delay (ms):	30
Sequence Number:	1
Processing:	dark subtract
Laser Power (mW):	305
Laser Current (mA):	825
Laser Diode Temp (C):	25.1
Laser Case Temp (C):	24.5
System Temp (C):	24.4
Spectrometer Temp (C):	21.9
CCD Temp (C):	-0.002
Secondary Temp (C):	20.007
Heatsink Temp (C):	18.276
CCDPCB Temp (C):	31.249
SecondaryPCB Temp (C):	26.191

Wavelength	RamanShift	Raw Counts	Dark Subtracted
787.061	30.1047	611.05	203.1
787.2016	32.3739	614.9	208.25
787.3422	34.6426	629.65	221.35
787.4828	36.9109	646.75	237.35
787.6235	39.1787	666.9	253.65
787.7642	41.4461	682	263.8
787.9049	43.7131	700.9	280.25
788.0456	45.9796	717.05	293.7
788.1863	48.2456	741.55	315.1
788.3271	50.5112	758.25	325.45
788.4679	52.7764	787.35	351.75
788.6087	55.0411	810.8	371.05
788.7496	57.3054	840.55	397.05
788.8904	59.5692	860.7	416.15
789.0313	61.8326	888	438.8
789.1722	64.0955	929.4	477.95
789.3132	66.3579	967.25	511.35
789.4541	68.6199	1022.75	561.45
789.5951	70.8815	1103.1	638
789.7361	73.1426	1297.7	830.25
789.8771	75.4032	1785.65	1313.55
790.0181	77.6634	2974.8	2498.05
790.1592	79.9231	5938.9	5459.85
790.3003	82.1824	12514.8	12028.1
790.4414	84.4412	25180.25	24676.8
790.5825	86.6995	45175.35	44656.25
790.7237	88.9574	56304.8	55770.65
790.8648	91.2148	61556.7	61010.35
791.006	93.4717	62474.85	61925.1
791.1472	95.7282	62887.3	62333.8
791.2885	97.9842	63059.75	62502.8
791.4297	100.2398	63084.45	62524.75
791.571	102.4949	63053	62489.95
791.7123	104.7495	63115.3	62549.25
791.8536	107.0036	63010.3	62443.6
791.9949	109.2573	63167.3	62601.1
792.1363	111.5105	63043.2	62476.2
792.2777	113.7632	63113.7	62543.7
792.4191	116.0154	63167.3	62585.1
792.5605	118.2672	63277.15	62700.7
792.7019	120.5185	63280.7	62706.15
792.8434	122.7693	63270.75	62689.35
792.9849	125.0197	63155.2	62569.7
793.1264	127.2696	63411.5	62821.7
793.2679	129.519	63399.75	62807.7
793.4094	131.7679	63488.35	62892.25
793.551	134.0163	63237.9	62642.85
793.6926	136.2642	63339.15	62739.4
793.8342	138.5117	63503.45	62893.45
793.9758	140.7587	63451.35	62845.45
794.1175	143.0052	63453.6	62844.5
794.2591	145.2512	63340.55	62731.25
794.4008	147.4967	63503.85	62892
794.5425	149.7417	63443.1	62831.1
794.6842	151.9863	63463.8	62848.1
794.826	154.2304	63344.05	62723.65
794.9677	156.4739	63449.9	62821.4
795.1095	158.717	63512	62885.75
795.2513	160.9596	63459.8	62827.9
795.3931	163.2017	63358.85	62727.25
795.535	165.4433	63492.85	62858.2
795.6768	167.6844	63424.1	62787.4
795.8187	169.925	63510.05	62870.4
795.9606	172.1651	63455.9	62807.65
796.1025	174.4047	63440.75	62793.8
796.2445	176.6439	63469.9	62821.8
796.3864	178.8825	63462.5	62810.95
796.5284	181.1206	63525.05	62867.45
796.6704	183.3582	63543.85	62884.3
796.8124	185.5954	63462.75	62800.4
796.9544	187.832	63507.2	62840.65
797.0965	190.0681	63426.2	62757.9
797.2386	192.3037	63575.95	62901
797.3806	194.5388	63696.95	63024.6
797.5228	196.7734	63409	62733.05
797.6649	199.0075	63648.05	62970.5
797.807	201.2411	63588.25	62907.9
797.9492	203.4742	63730.15	63047.7
798.0914	205.7068	63690.1	63004
798.2336	207.9389	63687.1	63001.35
798.3758	210.1704	63671.2	62990.55
798.518	212.4015	63772.45	63102.5
798.6603	214.632	63614.25	62948.2
798.8025	216.862	63771.1	63109.7
798.9448	219.0915	63756.75	63091.3
799.0871	221.3205	63713.9	63044.45
799.2294	223.549	63828.1	63165.35
799.3718	225.777	63825.2	63158.8
799.5141	228.0044	63869.5	63193.95
799.6565	230.2314	63822.85	63148.65
799.7989	232.4578	63823.5	63144.95
799.9413	234.6837	63841	63154.25
800.0837	236.909	64076.3	63389.35
800.2262	239.1339	63750.6	63038.65
800.3687	241.3582	63892.9	63194.85
800.5111	243.582	63920.4	63191.9
800.6536	245.8053	63915.85	63202.6
800.7961	248.0281	63936.8	63226.95
800.9387	250.2503	63991.2	63279.05
801.0812	252.472	63901.95	63185.55
801.2238	254.6932	63958.55	63238.3
801.3664	256.9139	63922.35	63205.25
801.509	259.134	64134.85	63411.4
801.6516	261.3536	63888.55	63168.15
801.7942	263.5727	64053.55	63333.45
801.9369	265.7912	63948.1	63223.65
802.0795	268.0092	63996.1	63275.6
802.2222	270.2267	64024.05	63306.45
802.3649	272.4436	63929.2	63201.2
802.5076	274.6601	64028.05	63291.5
802.6504	276.8759	64083	63354.15
802.7931	279.0913	64040.95	63311.25
802.9359	281.3061	64025.95	63294.5
803.0787	283.5204	64063.6	63325.75
803.2215	285.7341	64036.4	63297.7
803.3643	287.9473	64172.05	63425.6
803.5071	290.16	64068.8	63325.9
803.6499	292.3721	64148.8	63415.35
803.7928	294.5837	64033.9	63297.05
803.9357	296.7947	63967.1	63230.7
804.0786	299.0052	64126.45	63387.85
804.2215	301.2152	64059.3	63315.5
804.3644	303.4246	64170.75	63432.2
804.5074	305.6334	64160.8	63422.95
804.6503	307.8418	64013.95	63269.25
804.7933	310.0495	64059.4	63313.85
804.9363	312.2568	64042.15	63295.55
805.0793	314.4635	64048.15	63299.85
805.2223	316.6696	64093.7	63344.55
805.3653	318.8752	64132.8	63373.45
805.5084	321.0802	63903.25	63151.1
805.6514	323.2847	63999.8	63244.8
805.7945	325.4887	64032.9	63281.6
805.9376	327.692	63973.65	63217.8
806.0807	329.8949	64044.95	63287.5
806.2238	332.0972	63988.6	63230.55
806.367	334.2989	64028.7	63265.25
806.5101	336.5001	64140.6	63378.55
806.6533	338.7007	63937.75	63176.6
806.7965	340.9008	64021.05	63254.95
806.9397	343.1003	64026.4	63259.4
807.0829	345.2992	64105.2	63338.45
807.2261	347.4976	64012.75	63245.75
807.3693	349.6955	64037.9	63263.85
807.5126	351.8927	63977.1	63204.6
807.6559	354.0895	64073.75	63291.85
807.7991	356.2856	64048.85	63272.05
807.9424	358.4812	64112.4	63335.2
808.0857	360.6763	63994	63215.15
808.2291	362.8707	64075.45	63295.6
808.3724	365.0646	64019.8	63238.95
808.5158	367.258	64032.5	63245.6
808.6591	369.4508	63969.9	63183.9
808.8025	371.643	64064.55	63274
808.9459	373.8346	64036.55	63249.05
809.0893	376.0257	64042.35	63250
809.2327	378.2162	64000.25	63209.6
809.3762	380.4062	63926.05	63132.05
809.5196	382.5956	63974.15	63179.6
809.6631	384.7844	63988.05	63200.7
809.8066	386.9726	64032.8	63249.35
809.9501	389.1603	64040.5	63258.35
810.0936	391.3474	63930.25	63113.95
810.2371	393.5339	64029.75	63245.05
810.3806	395.7199	63894.95	63110.95
810.5241	397.9052	63906.3	63122.2
810.6677	400.09	63941.05	63151.95
810.8113	402.2743	63983.5	63198.25
810.9548	404.4579	63935.3	63149.3
811.0984	406.641	63916.3	63127.05
811.2421	408.8235	63977.1	63187.75
811.3857	411.0054	63963	63170.75
811.5293	413.1868	63968.2	63169.85
811.673	415.3675	63977.8	63177.95
811.8166	417.5477	63965.95	63166.75
811.9603	419.7273	63936.25	63131.75
812.104	421.9064	63915.7	63104.85
812.2477	424.0848	63937.05	63134.45
812.3914	426.2627	63985.55	63183.75
812.5351	428.4399	63886.45	63078.55
812.6788	430.6166	63812.45	63000.9
812.8226	432.7928	63914.1	63102.4
812.9663	434.9683	63820.6	63011
813.1101	437.1432	63834.65	63023.35
813.2539	439.3176	63886.1	63076.9
813.3977	441.4914	63758.75	62947.75
813.5415	443.6645	63779.35	62969.9
813.6853	445.8371	63781.4	62971.2
813.8291	448.0091	63697.3	62885.8
813.973	450.1806	63692.4	62881.4
814.1168	452.3514	63697.4	62887.8
814.2607	454.5216	63675.35	62854.2
814.4046	456.6913	63684.15	62866.9
814.5485	458.8603	63693.15	62878.7
814.6924	461.0288	63643.05	62829.2
814.8363	463.1967	63707.6	62896.8
814.9802	465.3639	63727.05	62913.5
815.1241	467.5306	63603.7	62791.6
815.2681	469.6967	63632.5	62819.75
815.412	471.8622	63657.8	62843.75
815.556	474.0271	63618.65	62804.15
815.7	476.1914	63622.4	62800.85
815.844	478.3551	63624.3	62805.05
815.988	480.5182	63707.55	62889.45
816.132	482.6807	63619.45	62804.25
816.276	484.8426	63629.1	62816.8
816.4201	487.0039	63699.45	62885.1
816.5641	489.1647	63694.35	62872.6
816.7082	491.3248	63610.15	62788.6
816.8522	493.4843	63694.5	62874.55
816.9963	495.6432	63701.9	62883.55
817.1404	497.8015	63622.55	62796.6
817.2845	499.9592	63659.8	62830.9
817.4286	502.1163	63646.45	62818.5
817.5727	504.2728	63626.85	62799.7
817.7168	506.4287	63651	62832
817.861	508.5839	63572.55	62751.35
818.0051	510.7386	63602.1	62773.9
818.1493	512.8927	63638	62807.15
818.2935	515.0461	63611.9	62781.35
818.4377	517.199	63650.5	62823.35
818.5818	519.3512	63619.85	62790.15
818.726	521.5029	63582.2	62746.95
818.8703	523.6539	63618	62786.9
819.0145	525.8043	63519.9	62688.4
819.1587	527.9541	63584.6	62750.05
819.303	530.1033	63564.25	62732.7
819.4472	532.2519	63547.4	62713.3
819.5915	534.3999	63559.5	62723.25
819.7357	536.5472	63601.5	62765.25
819.88	538.694	63510.25	62678.45
820.0243	540.8401	63575.45	62742.55
820.1686	542.9856	63564.45	62729.6
820.3129	545.1305	63574.6	62732.35
820.4572	547.2748	63514.9	62671.45
820.6016	549.4185	63553	62709.1
820.7459	551.5615	63566.7	62725.45
820.8902	553.704	63547.45	62703.6
821.0346	555.8458	63508.1	62669.35
821.1789	557.987	63514	62673.5
821.3233	560.1276	63536.75	62692.55
821.4677	562.2675	63538.2	62698.5
821.6121	564.4069	63545.05	62705
821.7565	566.5456	63551.35	62712.5
821.9009	568.6837	63502.15	62660.9
822.0453	570.8212	63517.35	62676.7
822.1897	572.958	63438.3	62594
822.3342	575.0942	63462.7	62619.55
822.4786	577.2299	63415.35	62572.85
822.6231	579.3648	63394.35	62558.4
822.7675	581.4992	63358.3	62523.1
822.912	583.6329	63353.75	62518.5
823.0565	585.766	63335.25	62498.55
823.201	587.8985	63359.1	62519.95
823.3454	590.0304	63267.5	62412.7
823.4899	592.1616	63318.15	62472.75
823.6345	594.2922	63305.05	62456.25
823.779	596.4222	63255.75	62407.4
823.9235	598.5515	63262.1	62411.75
824.068	600.6802	63256.4	62405.85
824.2126	602.8083	63196.55	62348.1
824.3571	604.9358	63184	62335.15
824.5017	607.0626	63212.05	62359.2
824.6462	609.1888	63152.8	62297.95
824.7908	611.3144	63185.25	62330.5
824.9354	613.4393	63153.25	62300.2
825.08	615.5636	63147.2	62292.3
825.2246	617.6873	63161.3	62308.1
825.3692	619.8103	63135.6	62281.85
825.5138	621.9327	63143.7	62289.5
825.6584	624.0544	63140.2	62287.95
825.803	626.1756	63116.7	62264.1
825.9477	628.2961	63112.95	62257.55
826.0923	630.4159	63083.65	62229.1
826.237	632.5351	63065.25	62210.85
826.3816	634.6537	63096.1	62238.65
826.5263	636.7716	63049.85	62190.4
826.6709	638.8889	63064.65	62204.75
826.8156	641.0056	63053	62194
826.9603	643.1216	63041.5	62182.6
827.105	645.237	63087.15	62224.55
827.2497	647.3518	63027	62169.5
827.3944	649.4659	63060.2	62203.6
827.5391	651.5793	63040.7	62184.85
827.6838	653.6922	63040.8	62184.65
827.8285	655.8043	62961.7	62104.6
827.9733	657.9159	63036.1	62176.9
828.118	660.0268	62861.55	61999.75
828.2627	662.137	62956.15	62094.85
828.4075	664.2466	63001.55	62136.95
828.5522	666.3556	62933.55	62071.8
828.697	668.4639	62940.05	62076.35
828.8418	670.5716	62914.25	62055.65
828.9865	672.6786	62954.45	62090.5
829.1313	674.785	62885.25	62017.9
829.2761	676.8907	62846.6	61978.65
829.4209	678.9958	62894.95	62034.6
829.5657	681.1002	62881.25	62017.9
829.7105	683.204	62792.4	61920.65
829.8553	685.3072	62762.15	61894.05
830.0001	687.4097	62804.3	61937.25
830.1449	689.5115	62760.1	61887.65
830.2898	691.6127	62812.2	61948.6
830.4346	693.7132	62735.95	61872.9
830.5794	695.8131	62744.85	61861.3
830.7243	697.9123	62782.35	61913.3
830.8691	700.0109	62765.25	61894.5
831.014	702.1089	62694.5	61827.4
831.1588	704.2061	62706.85	61839.4
831.3037	706.3028	62719.35	61848
831.4486	708.3987	62728.65	61860.3
831.5935	710.4941	62666.95	61800.7
831.7383	712.5887	62715.15	61845.7
831.8832	714.6827	62663.5	61790.9
832.0281	716.7761	62705.15	61840.55
832.173	718.8688	62700.35	61829.85
832.3179	720.9608	62625.85	61750.5
832.4628	723.0522	62643.85	61766.45
832.6077	725.1429	62582.5	61709.2
832.7527	727.233	62713.9	61841.85
832.8976	729.3224	62451.65	61576.15
833.0425	731.4112	62549.7	61675.8
833.1874	733.4993	62568.25	61694.55
833.3324	735.5867	62553.75	61677.1
833.4773	737.6735	62500.35	61623.8
833.6222	739.7596	62388.35	61510.25
833.7672	741.845	62371.75	61492.75
833.9122	743.9298	62483.8	61607.05
834.0571	746.014	62322.95	61446
834.2021	748.0974	62169.2	61290.15
834.347	750.1802	62368.05	61490.65
834.492	752.2624	62152.85	61274.15
834.637	754.3439	62144.2	61267.15
834.782	756.4247	62171	61283.5
834.9269	758.5048	62053.7	61178.15
835.0719	760.5843	62070.1	61188.6
835.2169	762.6631	62114.25	61233.25
835.3619	764.7413	62029.35	61151
835.5069	766.8188	62020.25	61142.5
835.6519	768.8956	62117.7	61235.6
835.7969	770.9718	62065.6	61184.45
835.9419	773.0473	62033.6	61153.6
836.0869	775.1221	61892.3	61012.75
836.232	777.1962	61856.4	60980.25
836.377	779.2697	61618.25	60736.75
836.522	781.3426	61780.8	60878.5
836.667	783.4147	61801.15	60917.15
836.8121	785.4862	61725.85	60847.25
836.9571	787.557	61500.45	60615.85
837.1021	789.6271	61757.3	60874.55
837.2472	791.6966	61580.35	60699.9
837.3922	793.7654	61313.35	60432
837.5373	795.8335	61369.4	60488.45
837.6823	797.901	61391.7	60511
837.8274	799.9678	61242.2	60356.65
837.9724	802.0339	61193.55	60311.85
838.1175	804.0993	61253.35	60362.15
838.2626	806.1641	61107.4	60222.3
838.4076	808.2282	61046.4	60165.05
838.5527	810.2916	60984.35	60101.2
838.6978	812.3544	61180.25	60299.55
838.8428	814.4164	60878.95	59996.4
838.9879	816.4778	60934.9	60049.75
839.133	818.5385	60910.05	60024.3
839.2781	820.5986	60885.55	60000.2
839.4232	822.658	60951.65	60064.2
839.5682	824.7166	60945.35	60061.5
839.7133	826.7747	60710.6	59826.95
839.8584	828.832	60847.3	59962.4
840.0035	830.8886	60999	60110.95
840.1486	832.9446	60976.45	60087.4
840.2937	834.9999	60471.95	59587.15
840.4388	837.0545	60697.25	59806.85
840.5839	839.1085	60782.4	59895.45
840.729	841.1618	60666.05	59775.55
840.8741	843.2143	60286.75	59401.6
841.0192	845.2662	60279.25	59390.45
841.1643	847.3175	60439.95	59554.15
841.3095	849.368	59957.9	59071.1
841.4546	851.4179	60372	59486.25
841.5997	853.467	60018.4	59130.4
841.7448	855.5155	60227.9	59339.9
841.8899	857.5633	59939	59050.55
842.0351	859.6105	59812.75	58923.55
842.1802	861.6569	60031.3	59143.05
842.3253	863.7027	59629.55	58738.5
842.4704	865.7478	59771.55	58884.2
842.6156	867.7922	59654.7	58764.5
842.7607	869.8359	59849.05	58958.55
842.9058	871.8789	59437.7	58544.6
843.0509	873.9212	59647.25	58726.1
843.1961	875.9629	59654.15	58764.85
843.3412	878.0039	59555.5	58664.85
843.4863	880.0441	59393.1	58504.4
843.6315	882.0837	59431.1	58539.55
843.7766	884.1226	59477.45	58586.95
843.9218	886.1609	59466.9	58576.85
844.0669	888.1984	59350.2	58460.95
844.212	890.2352	59593.65	58707
844.3572	892.2714	59229.8	58331.2
844.5023	894.3069	59392.25	58500.9
844.6475	896.3416	59188.9	58298.45
844.7926	898.3757	59173	58280.6
844.9377	900.4091	58653.35	57764.7
845.0829	902.4418	59278.8	58382.4
845.228	904.4739	58861.5	57966.45
845.3732	906.5052	59000.15	58106.25
845.5183	908.5358	58779.5	57886.15
845.6635	910.5658	58658.7	57765.1
845.8086	912.595	58678	57784.15
845.9538	914.6236	58120.85	57229.35
846.0989	916.6515	58938.95	58047.05
846.2441	918.6786	58081.1	57185.9
846.3892	920.7051	58309	57413.8
846.5344	922.7309	58140.9	57247.95
846.6795	924.756	58250.5	57356.65
846.8246	926.7804	58023.95	57130.65
846.9698	928.8041	57350.25	56455.75
847.1149	930.8272	57847.5	56954.75
847.2601	932.8495	57834.15	56936.15
847.4052	934.8711	57366.65	56471.9
847.5504	936.892	57007.6	56113.65
847.6955	938.9123	57372.05	56476.8
847.8407	940.9318	57069.8	56176.3
847.9858	942.9506	57013.4	56119.05
848.131	944.9688	57082.9	56187.25
848.2761	946.9862	56279.1	55383.5
848.4213	949.003	56544.85	55649.05
848.5664	951.019	55917.6	55022.95
848.7115	953.0344	56013.05	55118.55
848.8567	955.0491	55879.95	54983.15
849.0018	957.063	56082.85	55189.35
849.147	959.0763	56137.4	55242.8
849.2921	961.0888	55646.85	54747.75
849.4373	963.1007	56002.55	55108.6
849.5824	965.1119	56028.9	55135.8
849.7275	967.1223	55626.8	54737.4
849.8727	969.1321	56013.5	55123.25
850.0178	971.1412	55460.3	54571.3
850.1629	973.1495	55241.6	54348.4
850.3081	975.1572	55426.45	54499.15
850.4532	977.1641	55211.85	54317
850.5983	979.1704	55096.05	54198.3
850.7435	981.1759	55120.5	54222.45
850.8886	983.1808	54809.35	53913.4
851.0337	985.1849	54769.95	53863.5
851.1788	987.1884	54768.4	53867.25
851.324	989.1911	54966.85	54068.5
851.4691	991.1932	54168.6	53272.5
851.6142	993.1945	54292.75	53397.85
851.7593	995.1951	54412.65	53516.4
851.9045	997.1951	54092.4	53190.6
852.0496	999.1943	53872.75	52975.9
852.1947	1001.1928	53711.7	52815.2
852.3398	1003.1906	53726.15	52830.9
852.4849	1005.1877	53312.85	52415.45
852.63	1007.1841	53193.75	52298.15
852.7751	1009.1798	53151.25	52254.75
852.9202	1011.1748	53107.9	52211.75
853.0653	1013.1691	53041.9	52144.55
853.2104	1015.1627	52331.45	51435.8
853.3555	1017.1556	52328	51430.75
853.5006	1019.1477	52430.05	51533.75
853.6457	1021.1392	51976.9	51080.25
853.7908	1023.1299	51552.7	50662
853.9359	1025.12	51707.55	50814.8
854.081	1027.1093	51410.65	50525.15
854.2261	1029.0979	51373.8	50487.6
854.3712	1031.0859	51288.95	50400.1
854.5163	1033.0731	50881.05	49990.3
854.6613	1035.0596	50926.45	50032.1
854.8064	1037.0454	50815.35	49919.55
854.9515	1039.0304	50575.35	49679.4
855.0965	1041.0148	50245.1	49346.5
855.2416	1042.9985	50255.7	49356.45
855.3867	1044.9814	50350.55	49453.95
855.5317	1046.9636	49915.95	49016.8
855.6768	1048.9452	49849.25	48955.45
855.8219	1050.926	49835.6	48940.7
855.9669	1052.9061	49754.75	48857.5
856.112	1054.8855	49713.45	48816.55
856.257	1056.8642	49495.15	48597.3
856.4021	1058.8421	49371.25	48469.1
856.5471	1060.8194	49260.2	48361
856.6921	1062.7959	49143.75	48247.2
856.8372	1064.7717	49212.9	48313.75
856.9822	1066.7469	49052.55	48155.65
857.1272	1068.7213	49121.2	48220.3
857.2723	1070.695	48934.2	48037.65
857.4173	1072.6679	48651.9	47751.25
857.5623	1074.6402	48748.7	47847.5
857.7073	1076.6117	48597.3	47693.3
857.8523	1078.5826	48527.45	47626.35
857.9973	1080.5527	48500.15	47600.9
858.1423	1082.5221	48190.65	47291.3
858.2873	1084.4908	48214.25	47316.05
858.4323	1086.4587	48007.25	47105.9
858.5773	1088.426	47962.35	47062.35
858.7223	1090.3925	47833.1	46927
858.8673	1092.3584	47772.55	46874.75
859.0123	1094.3235	47460.9	46562.05
859.1573	1096.2879	47437.55	46536.05
859.3022	1098.2515	47467.95	46570.2
859.4472	1100.2145	47376	46477
859.5922	1102.1767	47196.75	46296.15
859.7371	1104.1382	47277.7	46378.1
859.8821	1106.099	47202.95	46302.9
860.027	1108.0591	47056.35	46158.2
860.172	1110.0185	46801.9	45901.9
860.3169	1111.9771	46993.7	46094.75
860.4619	1113.9351	46784.35	45882.8
860.6068	1115.8923	46598.3	45702.3
860.7517	1117.8488	46448.1	45544.2
860.8967	1119.8045	46163.95	45267.05
861.0416	1121.7596	46116.6	45216.85
861.1865	1123.7139	45899.2	45002.5
861.3314	1125.6675	45860.65	44962.45
861.4763	1127.6204	45855.65	44958
861.6212	1129.5726	45498.45	44599.6
861.7661	1131.524	45575.8	44677.55
861.911	1133.4748	45504.3	44607.55
862.0559	1135.4248	45269.15	44369.95
862.2008	1137.3741	45258.5	44359.7
862.3457	1139.3226	45080.8	44179.85
862.4905	1141.2705	45084.8	44184.5
862.6354	1143.2176	44865.95	43958.3
862.7803	1145.164	44721.5	43820.15
862.9251	1147.1097	44688.15	43788.3
863.07	1149.0546	44588.8	43688.15
863.2148	1150.9989	44558.45	43660.6
863.3597	1152.9424	44385.2	43484.8
863.5045	1154.8852	44407.8	43509.05
863.6493	1156.8272	44254.45	43354.6
863.7942	1158.7686	44398.2	43491.05
863.939	1160.7092	44008.8	43105.05
864.0838	1162.6491	43891.15	42988.6
864.2286	1164.5883	44031.3	43131
864.3734	1166.5267	43820.05	42922.85
864.5182	1168.4644	43886.45	42985.85
864.663	1170.4014	43830.25	42927.8
864.8078	1172.3377	43930.4	43032.85
864.9526	1174.2732	43975.7	43075.8
865.0974	1176.2081	43949.8	43048.85
865.2421	1178.1421	43929.2	43025.5
865.3869	1180.0755	44068.1	43167.15
865.5317	1182.0082	43891.6	42992.7
865.6764	1183.9401	43837	42937.4
865.8212	1185.8713	43609.5	42713.55
865.9659	1187.8017	43439.65	42544.85
866.1106	1189.7315	43393.9	42505.2
866.2554	1191.6605	43092.55	42200.3
866.4001	1193.5888	42844.2	41950.7
866.5448	1195.5163	42647.2	41752.35
866.6895	1197.4432	42545.95	41647.3
866.8342	1199.3693	42458.15	41560.25
866.9789	1201.2947	42273	41368
867.1236	1203.2193	42150.8	41251.3
867.2683	1205.1432	41974.05	41074.25
867.413	1207.0664	41906.3	41008.2
867.5576	1208.9889	41782.2	40881.05
867.7023	1210.9106	41640.6	40742.85
867.847	1212.8316	41389.55	40491.65
867.9916	1214.7519	41420.2	40512.35
868.1363	1216.6715	41295.6	40398.7
868.2809	1218.5903	41245.55	40349.1
868.4255	1220.5084	41197.9	40298.15
868.5701	1222.4257	41164.2	40262.85
868.7148	1224.3424	40947.6	40049.65
868.8594	1226.2583	40906.95	40006.2
869.004	1228.1735	40859.9	39959.7
869.1486	1230.0879	40672.95	39775.4
869.2932	1232.0016	40675.95	39776.45
869.4377	1233.9146	40561.5	39660.55
869.5823	1235.8269	40488.9	39590.15
869.7269	1237.7384	40490.6	39593.05
869.8715	1239.6492	40259.85	39363.6
870.016	1241.5592	40227.35	39327.2
870.1606	1243.4686	40138.7	39238.6
870.3051	1245.3772	40095.6	39198
870.4496	1247.285	40068.7	39168.95
870.5941	1249.1922	39921.15	39024.1
870.7387	1251.0986	39983.05	39085.65
870.8832	1253.0042	39806.75	38907.9
871.0277	1254.9092	39809.35	38909.7
871.1722	1256.8134	39705.55	38809.7
871.3167	1258.7169	39749.85	38850.35
871.4611	1260.6196	39621.65	38723.95
871.6056	1262.5216	39638.55	38739.25
871.7501	1264.4229	39589.6	38692.45
871.8945	1266.3234	39643.9	38743.45
872.039	1268.2232	39516.5	38614.35
872.1834	1270.1223	39395.6	38495.35
872.3278	1272.0207	39380.25	38480.35
872.4723	1273.9183	39263.3	38359.95
872.6167	1275.8151	39165.55	38266.05
872.7611	1277.7113	39176.25	38276.65
872.9055	1279.6067	39030.45	38132.55
873.0499	1281.5014	39057.85	38155.4
873.1943	1283.3953	39136.8	38234.15
873.3386	1285.2885	39230.5	38330.55
873.483	1287.181	39298.6	38400.35
873.6274	1289.0727	39431.05	38533.45
873.7717	1290.9637	39367.7	38469.15
873.9161	1292.854	39412.85	38515.1
874.0604	1294.7435	39274	38374.3
874.2047	1296.6323	39132.8	38233.15
874.349	1298.5204	39065.95	38164.6
874.4933	1300.4077	38969.45	38070.1
874.6376	1302.2943	38852.45	37952.8
874.7819	1304.1802	38756.6	37857.55
874.9262	1306.0653	38529.05	37628.45
875.0705	1307.9497	38369.75	37469.7
875.2147	1309.8333	38237.4	37338.55
875.359	1311.7162	38135.3	37238.05
875.5032	1313.5984	38046.2	37144.6
875.6475	1315.4798	37817.5	36914.5
875.7917	1317.3605	37790.2	36875.1
875.9359	1319.2405	37715.5	36814.65
876.0801	1321.1197	37587.4	36689.2
876.2243	1322.9982	37407.75	36503.6
876.3685	1324.876	37312.55	36412.65
876.5127	1326.753	37133.65	36234.85
876.6569	1328.6293	37088.95	36189.85
876.801	1330.5048	37071.35	36171.25
876.9452	1332.3796	36847.8	35948.05
877.0893	1334.2537	36854.45	35929.85
877.2335	1336.127	36719.4	35817.25
877.3776	1337.9996	36615.9	35715.9
877.5217	1339.8714	36545.85	35643.95
877.6658	1341.7426	36459.65	35519.05
877.8099	1343.6129	36481.55	35577.9
877.954	1345.4826	36313.25	35414.05
878.0981	1347.3515	36356	35453.45
878.2422	1349.2196	36285	35385.9
878.3862	1351.087	36260.45	35359.05
878.5303	1352.9537	36166.45	35262.95
878.6743	1354.8197	36201.15	35300.95
878.8184	1356.6849	36214	35314.6
878.9624	1358.5493	36101.95	35200.8
879.1064	1360.4131	36101.75	35201.7
879.2504	1362.276	36047	35147.6
879.3944	1364.1383	36019.75	35123.1
879.5384	1365.9998	35896.5	34990.7
879.6823	1367.8606	35656.55	34756
879.8263	1369.7206	35561.7	34663.1
879.9702	1371.5799	35456.75	34553.65
880.1142	1373.4384	35220.15	34321.3
880.2581	1375.2962	35123.3	34222.5
880.402	1377.1533	34889.25	33989.8
880.5459	1379.0096	34655.45	33754.5
880.6898	1380.8652	34517.1	33618.45
880.8337	1382.7201	34320.5	33422.6
880.9776	1384.5742	34148.45	33247
881.1215	1386.4275	33981.9	33081.15
881.2653	1388.2802	33795.2	32897.35
881.4092	1390.132	33662.4	32761.2
881.553	1391.9832	33622.2	32720.75
881.6968	1393.8336	33444.5	32542.55
881.8406	1395.6832	33385.75	32483.85
881.9844	1397.5322	33273.7	32373.6
882.1282	1399.3803	33186.8	32284.35
882.272	1401.2278	32977.95	32078.15
882.4158	1403.0745	32856.7	31959.8
882.5595	1404.9204	32697.7	31801.35
882.7033	1406.7656	32689.05	31790.8
882.847	1408.6101	32546	31645.55
882.9908	1410.4538	32420.3	31519.85
883.1345	1412.2968	32387.05	31489.05
883.2782	1414.139	32247.65	31350.1
883.4219	1415.9805	32237.25	31337.3
883.5656	1417.8213	32085.15	31181.1
883.7092	1419.6613	31990.6	31090.7
883.8529	1421.5006	31991.65	31093.1
883.9965	1423.3391	31972.95	31073.1
884.1402	1425.1769	31922.25	31022.15
884.2838	1427.0139	32016.9	31117.6
884.4274	1428.8502	32073.5	31173.5
884.571	1430.6858	32090.25	31192.15
884.7146	1432.5206	32012.2	31113
884.8582	1434.3547	32049.95	31151.4
885.0018	1436.188	32009.85	31112.1
885.1453	1438.0206	31944.95	31046.8
885.2889	1439.8524	31846.6	30945.9
885.4324	1441.6835	31799.5	30900.75
885.5759	1443.5139	31651.85	30750.6
885.7194	1445.3435	31563.15	30666.05
885.8629	1447.1724	31500.25	30602.4
886.0064	1449.0005	31494.85	30598.25
886.1499	1450.8279	31374.35	30474.05
886.2933	1452.6545	31408.7	30511.25
886.4368	1454.4804	31414.55	30518.25
886.5802	1456.3056	31260.15	30356.05
886.7237	1458.13	31191.85	30295.2
886.8671	1459.9536	31180.1	30283.45
887.0105	1461.7766	31039.8	30140.7
887.1539	1463.5987	30865.8	29965.3
887.2972	1465.4202	30689.3	29788.7
887.4406	1467.2409	30539.4	29642.25
887.584	1469.0608	30493.3	29596.2
887.7273	1470.88	30381.7	29481.9
887.8706	1472.6984	30312.15	29414.55
888.0139	1474.5161	30130.95	29230.8
888.1572	1476.3331	29993.4	29096
888.3005	1478.1493	29970.4	29070.65
888.4438	1479.9648	29982.8	29084.45
888.5871	1481.7795	29863.4	28964.55
888.7303	1483.5935	29805.85	28907.3
888.8736	1485.4067	29721.65	28822.9
889.0168	1487.2192	29697.45	28797.75
889.16	1489.031	29693.4	28791.9
889.3032	1490.842	29510.65	28615.05
889.4464	1492.6522	29531.9	28636.9
889.5896	1494.4618	29441.05	28542.3
889.7327	1496.2705	29421.6	28524.1
889.8759	1498.0785	29351.05	28454.45
890.019	1499.8858	29267.6	28369.15
890.1622	1501.6924	29171.7	28274.35
890.3053	1503.4981	29115.25	28217.3
890.4484	1505.3032	29070.95	28174.55
890.5914	1507.1075	28974.15	28077.25
890.7345	1508.911	28955.65	28057.5
890.8776	1510.7138	28848	27948.85
891.0206	1512.5159	28765.25	27868.3
891.1637	1514.3172	28671.1	27774.6
891.3067	1516.1178	28534.15	27638.85
891.4497	1517.9176	28519.15	27622.2
891.5927	1519.7166	28427.9	27533.2
891.7357	1521.515	28375.4	27475.4
891.8786	1523.3126	28269.75	27372.35
892.0216	1525.1094	28255.1	27357.4
892.1645	1526.9055	28093.15	27199.2
892.3074	1528.7008	28026.9	27129.25
892.4503	1530.4954	27822.2	26924.05
892.5932	1532.2893	27837.8	26944.45
892.7361	1534.0824	27697.4	26800.9
892.879	1535.8747	27682.85	26788.45
893.0218	1537.6663	27579.1	26685.15
893.1647	1539.4572	27488.3	26592.5
893.3075	1541.2473	27453.15	26556.05
893.4503	1543.0367	27361.9	26469.65
893.5931	1544.8253	27257.35	26357.7
893.7359	1546.6132	27229.3	26331.6
893.8787	1548.4003	27086.55	26182.45
894.0214	1550.1867	27086.15	26182.7
894.1642	1551.9723	27022.95	26122.85
894.3069	1553.7572	26985.15	26090.4
894.4496	1555.5414	26913.8	26019.75
894.5923	1557.3247	26917.4	26025.15
894.735	1559.1074	26878.15	25988.25
894.8777	1560.8893	26805.15	25914.6
895.0204	1562.6705	26736.3	25844.1
895.163	1564.4509	26698.15	25805.65
895.3056	1566.2305	26650.2	25759.6
895.4482	1568.0094	26732.05	25840.45
895.5908	1569.7876	26687.6	25795.55
895.7334	1571.565	26611.25	25719.45
895.876	1573.3417	26588.05	25694.45
896.0186	1575.1176	26469.45	25578.75
896.1611	1576.8928	26416.15	25525.7
896.3036	1578.6672	26317.5	25428.6
896.4461	1580.4409	26264.5	25376.7
896.5886	1582.2138	26191.45	25301.6
896.7311	1583.986	26143.25	25250.65
896.8736	1585.7575	26181.65	25291.25
897.0161	1587.5282	26090.65	25202.5
897.1585	1589.2981	26090.25	25202
897.3009	1591.0673	26009.6	25121
897.4433	1592.8358	26006.65	25120.35
897.5857	1594.6035	25957	25066.8
897.7281	1596.3704	25891.15	25000.55
897.8705	1598.1366	25773.4	24882.3
898.0128	1599.9021	25740.65	24852.8
898.1551	1601.6668	25661.4	24769.85
898.2975	1603.4308	25615	24723.25
898.4398	1605.194	25592.1	24699.95
898.5821	1606.9564	25612.4	24725.3
898.7243	1608.7182	25603.65	24714.8
898.8666	1610.4791	25627.5	24743.6
899.0088	1612.2394	25614.45	24731
899.1511	1613.9988	25604.3	24719.45
899.2933	1615.7576	25627.4	24741.25
899.4355	1617.5156	25682.05	24785.7
899.5776	1619.2728	25641.7	24750.55
899.7198	1621.0293	25559.1	24670.1
899.862	1622.785	25408.85	24516.4
900.0041	1624.54	25201.5	24311.25
900.1462	1626.2942	25047.9	24158.2
900.2883	1628.0477	24849.25	23960.6
900.4304	1629.8005	24679.75	23791
900.5725	1631.5525	24574.85	23687.8
900.7145	1633.3037	24426.95	23539.75
900.8566	1635.0542	24354.8	23468.85
900.9986	1636.804	24189.5	23303.75
901.1406	1638.553	24163.4	23232.9
901.2826	1640.3013	24027.55	23141
901.4245	1642.0488	23930.9	23042.6
901.5665	1643.7955	23904.9	23016.85
901.7085	1645.5416	23802.95	22915.75
901.8504	1647.2868	23779.7	22893.4
901.9923	1649.0313	23689.9	22801.9
902.1342	1650.7751	23754.05	22862.85
902.2761	1652.5181	23710.5	22826.4
902.4179	1654.2604	23627.2	22738.45
902.5598	1656.0019	23646.8	22760.15
902.7016	1657.7427	23632.7	22744.45
902.8434	1659.4828	23693.9	22807.25
902.9852	1661.222	23633.1	22746.3
903.127	1662.9606	23584.65	22696.35
903.2687	1664.6984	23487.75	22597
903.4105	1666.4354	23359.25	22469.35
903.5522	1668.1717	23217.1	22327.4
903.6939	1669.9072	22941.35	22050.9
903.8356	1671.642	22798.8	21906.35
903.9773	1673.3761	22665.7	21777.65
904.119	1675.1094	22534.6	21646.55
904.2606	1676.8419	22432.1	21546.2
904.4022	1678.5737	22282.05	21393.75
904.5439	1680.3048	22226.4	21339.6
904.6855	1682.0351	22048.2	21161.5
904.827	1683.7646	21946.3	21054.85
904.9686	1685.4934	21876.95	20989.55
905.1101	1687.2215	21778.15	20889.35
905.2517	1688.9488	21691.15	20803.5
905.3932	1690.6754	21566.3	20679.45
905.5347	1692.4012	21535	20649.85
905.6761	1694.1263	21441.75	20553
905.8176	1695.8506	21387.65	20501.05
905.9591	1697.5742	21334.25	20447.8
906.1005	1699.297	21222.05	20337.3
906.2419	1701.0191	21148.25	20263.05
906.3833	1702.7404	21072.75	20188.45
906.5246	1704.461	20978.45	20090.75
906.666	1706.1808	20887.1	19998.55
906.8073	1707.8999	20870.7	19983.1
906.9487	1709.6182	20809.4	19925.05
907.09	1711.3358	20733.3	19849.95
907.2313	1713.0527	20676.35	19791.95
907.3725	1714.7688	20583.7	19693.45
907.5138	1716.4841	20491.35	19605.65
907.655	1718.1987	20451.1	19559.2
907.7962	1719.9126	20391.5	19508.75
907.9374	1721.6257	20303.4	19415
908.0786	1723.338	20278.7	19394.45
908.2198	1725.0496	20184.8	19298.95
908.3609	1726.7605	20139.5	19254.35
908.502	1728.4706	20094.75	19208.2
908.6431	1730.18	19962.6	19075.6
908.7842	1731.8886	19949.55	19065.8
908.9253	1733.5964	19893.65	19004.5
909.0664	1735.3036	19834.1	18949.25
909.2074	1737.0099	19814.4	18931.2
909.3484	1738.7156	19786.75	18905.2
909.4894	1740.4204	19661.45	18771.9
909.6304	1742.1246	19614.2	18726.35
909.7714	1743.8279	19609.4	18725.55
909.9123	1745.5306	19580.7	18695.55
910.0532	1747.2325	19512.25	18627.9
910.1941	1748.9336	19454.45	18570.8
910.335	1750.634	19371.85	18483.6
910.4759	1752.3336	19365.75	18481.7
910.6168	1754.0325	19321.55	18438.8
910.7576	1755.7307	19269.8	18386.05
910.8984	1757.4281	19264.65	18380.35
911.0392	1759.1247	19228.45	18334.35
911.18	1760.8206	19163.85	18272.95
911.3208	1762.5158	19160.45	18268.75
911.4615	1764.2102	19047.45	18163.1
911.6022	1765.9039	19001.65	18119.15
911.7429	1767.5968	19010.5	18126.25
911.8836	1769.289	18949.5	18065.5
912.0243	1770.9804	18868.5	17981.7
912.1649	1772.6711	18896.85	18012.85
912.3056	1774.361	18810.9	17924.75
912.4462	1776.0502	18806.4	17920.15
912.5868	1777.7386	18757.1	17870.25
912.7274	1779.4263	18652.5	17766.55
912.8679	1781.1132	18637.95	17752.7
913.0084	1782.7994	18589.15	17702.25
913.149	1784.4849	18522.3	17638.1
913.2895	1786.1696	18505.45	17600.55
913.4299	1787.8535	18450.85	17570.85
913.5704	1789.5367	18421.85	17538.75
913.7108	1791.2192	18374.25	17492.3
913.8513	1792.9009	18310.3	17395.4
913.9917	1794.5818	18289.8	17405.5
914.132	1796.2621	18237.2	17353.35
914.2724	1797.9415	18179.95	17295.25
914.4128	1799.6202	18128.25	17245.25
914.5531	1801.2982	18096.95	17211.95
914.6934	1802.9755	18060.85	17175.35
914.8337	1804.6519	18031.05	17146.75
914.9739	1806.3277	17941.4	17055.35
915.1142	1808.0027	17869	16985.1
915.2544	1809.6769	17876.8	16994.95
915.3946	1811.3504	17805.65	16920.5
915.5348	1813.0231	17777.6	16894.15
915.675	1814.6951	17779.2	16897.45
915.8151	1816.3664	17781.6	16894.95
915.9553	1818.0369	17703.8	16819.35
916.0954	1819.7067	17640.05	16756.65
916.2355	1821.3757	17601.75	16715
916.3755	1823.044	17566.85	16683.35
916.5156	1824.7115	17519.1	16634.5
916.6556	1826.3783	17433.35	16549.55
916.7956	1828.0443	17405.75	16523.45
916.9356	1829.7096	17372.1	16486.25
917.0756	1831.3741	17363.3	16474.6
917.2155	1833.0379	17323.95	16440.4
917.3555	1834.701	17261.45	16376.65
917.4954	1836.3633	17227.75	16342.4
917.6353	1838.0248	17185.4	16299.75
917.7751	1839.6856	17149	16265.45
917.915	1841.3457	17141.05	16258.2
918.0548	1843.005	17122.75	16241.2
918.1946	1844.6636	17085.85	16202.6
918.3344	1846.3214	17020.9	16135.9
918.4742	1847.9785	17031.4	16148.2
918.6139	1849.6349	16968.05	16081
918.7537	1851.2904	16933.95	16039.5
918.8934	1852.9453	16849.9	15964.3
919.0331	1854.5994	16833.4	15946.35
919.1727	1856.2528	16847.5	15960.65
919.3124	1857.9054	16770.6	15885.3
919.452	1859.5572	16758.1	15874
919.5916	1861.2083	16743.35	15856.55
919.7312	1862.8587	16724.7	15841.3
919.8708	1864.5084	16668.95	15784.55
920.0103	1866.1572	16619.85	15735.5
920.1498	1867.8054	16541.3	15655.15
920.2893	1869.4528	16523.7	15638.7
920.4288	1871.0994	16478.9	15592.1
920.5683	1872.7453	16468	15581.65
920.7077	1874.3905	16417.2	15525.55
920.8471	1876.0349	16366.55	15482.05
920.9865	1877.6786	16363.45	15476.3
921.1259	1879.3215	16367.3	15483.85
921.2653	1880.9637	16320.65	15434.75
921.4046	1882.6051	16288.6	15403.45
921.5439	1884.2458	16237.2	15350.55
921.6832	1885.8858	16200.75	15314.85
921.8225	1887.525	16145.3	15260.95
921.9617	1889.1634	16103.05	15219.65
922.101	1890.8011	16026.65	15140.4
922.2402	1892.4381	15973.15	15088.8
922.3794	1894.0743	16000.7	15115.1
922.5185	1895.7098	15974.7	15090
922.6577	1897.3446	15936.45	15051.6
922.7968	1898.9786	15873.95	14986.45
922.9359	1900.6118	15847.05	14964.15
923.075	1902.2443	15763.95	14879.4
923.214	1903.8761	15707.05	14822.55
923.3531	1905.5071	15627.15	14740.55
923.4921	1907.1374	15592.6	14707.85
923.6311	1908.7669	15581.55	14696.25
923.77	1910.3957	15562.55	14678.7
923.909	1912.0237	15449.5	14565.7
924.0479	1913.651	15464.8	14577.9
924.1868	1915.2776	15420.45	14539.95
924.3257	1916.9034	15341.35	14457.7
924.4646	1918.5285	15272.7	14391.2
924.6034	1920.1528	15208.8	14324.7
924.7422	1921.7764	15195.1	14311.45
924.881	1923.3992	15158.55	14277.35
925.0198	1925.0213	15061	14175.45
925.1586	1926.6427	14998.4	14116.85
925.2973	1928.2633	15161.15	14025.55
925.436	1929.8832	14969	14081.35
925.5747	1931.5023	14855.8	13972.95
925.7134	1933.1207	14808.5	13923.75
925.852	1934.7383	14835.6	13952.05
925.9906	1936.3552	14771.9	13888.8
926.1292	1937.9714	14709.1	13824.05
926.2678	1939.5868	14667.55	13782.8
926.4064	1941.2015	14582.45	13697.6
926.5449	1942.8154	14535.25	13649.15
926.6834	1944.4286	14531.8	13645.6
926.8219	1946.041	14462.1	13553.85
926.9604	1947.6528	14375.2	13483.2
927.0988	1949.2637	14369	13485.8
927.2372	1950.8739	14309.7	13426.1
927.3756	1952.4834	14250.7	13367.95
927.514	1954.0921	14242.15	13358.25
927.6523	1955.7001	14188.3	13299.85
927.7907	1957.3074	14143.65	13263.35
927.929	1958.9139	14090.65	13208.05
928.0673	1960.5197	14092.8	13208.45
928.2055	1962.1247	14022.55	13139.15
928.3438	1963.729	13963.05	13082
928.482	1965.3325	13887.75	12982
928.6202	1966.9353	13842	12960.35
928.7584	1968.5374	13812.55	12929.35
928.8965	1970.1387	13776.45	12894.45
929.0346	1971.7393	13717.65	12835.05
929.1727	1973.3392	13695.5	12811.2
929.3108	1974.9383	13634.65	12754.1
929.4489	1976.5366	13557.6	12674.95
929.5869	1978.1342	13519.3	12637.55
929.7249	1979.7311	13488.45	12606.45
929.8629	1981.3273	13474.25	12591.85
930.0009	1982.9227	13443.9	12560.8
930.1388	1984.5173	13394.4	12514.2
930.2767	1986.1112	13350.25	12469.65
930.4146	1987.7044	13317.95	12436.75
930.5525	1989.2968	13297.6	12414.55
930.6904	1990.8885	13273.1	12390.35
930.8282	1992.4795	13234.3	12351.55
930.966	1994.0697	13182.75	12302.6
931.1038	1995.6592	13153.9	12272.6
931.2415	1997.2479	13114.5	12231.15
931.3793	1998.8359	13073.85	12192.95
931.517	2000.4232	13026.8	12147.5
931.6547	2002.0097	12989.5	12110.6
931.7923	2003.5955	12924.75	12043.1
931.93	2005.1805	12919.55	12036.2
932.0676	2006.7648	12888.3	12008.75
932.2052	2008.3484	12849.55	11969.85
932.3427	2009.9312	12861.05	11980.4
932.4803	2011.5133	12792.3	11911.95
932.6178	2013.0946	12753.05	11871.55
932.7553	2014.6752	12725.2	11844.85
932.8928	2016.2551	12684.9	11802.45
933.0302	2017.8342	12619.9	11738.65
933.1676	2019.4126	12597.7	11718.8
933.305	2020.9902	12553.1	11673.8
933.4424	2022.5672	12518.5	11637.5
933.5798	2024.1433	12495.6	11611.75
933.7171	2025.7188	12459.45	11582.4
933.8544	2027.2935	12419.95	11539.15
933.9917	2028.8674	12372.4	11494.7
934.129	2030.4406	12339.8	11461.8
934.2662	2032.0131	12267.15	11387.1
934.4034	2033.5849	12243	11356.75
934.5406	2035.1559	12223.95	11344.4
934.6778	2036.7261	12208.4	11328.9
934.8149	2038.2957	12187.05	11306.3
934.952	2039.8645	12134.8	11254.7
935.0891	2041.4325	12136.65	11252.55
935.2262	2042.9998	12072.35	11192
935.3632	2044.5664	12085.15	11200.9
935.5002	2046.1323	12026.75	11146.95
935.6372	2047.6974	11981.45	11100.85
935.7742	2049.2617	11978.2	11099.7
935.9111	2050.8254	11928.2	11043.45
936.048	2052.3883	11959.15	11077.75
936.1849	2053.9504	11894.05	11011.9
936.3218	2055.5118	11858.15	10976.6
936.4586	2057.0725	11793.9	10908.95
936.5955	2058.6325	11761.15	10880.7
936.7323	2060.1917	11731.1	10850.1
936.869	2061.7502	11724.15	10841.9
937.0058	2063.3079	11683.45	10804.6
937.1425	2064.8649	11616.75	10733.85
937.2792	2066.4212	11638.75	10758.85
937.4159	2067.9767	11603.45	10724.1
937.5525	2069.5315	11540.1	10659.2
937.6891	2071.0856	11503.75	10624.4
937.8257	2072.6389	11461.6	10580.3
937.9623	2074.1915	11422.45	10542.9
938.0989	2075.7433	11355.15	10474.85
938.2354	2077.2945	11343.9	10465.55
938.3719	2078.8448	11319.75	10437.7
938.5084	2080.3945	11273.85	10392.95
938.6448	2081.9434	11260.3	10382.2
938.7812	2083.4916	11219.55	10337.4
938.9176	2085.039	11191.2	10307.6
939.054	2086.5857	11167.25	10283.55
939.1903	2088.1317	11141.65	10260.1
939.3267	2089.677	11127.6	10243.45
939.463	2091.2215	11085.25	10202.75
939.5992	2092.7652	11035.05	10150
939.7355	2094.3083	11019.1	10135.6
939.8717	2095.8506	10997.5	10117.2
940.0079	2097.3921	11017.6	10137.3
940.1441	2098.933	10954.35	10074.15
940.2802	2100.4731	10950.95	10069.05
940.4163	2102.0124	10933.05	10032.75
940.5524	2103.5511	10891.3	10010.55
940.6885	2105.089	10864.9	9979.95
940.8245	2106.6261	10865.65	9983.55
940.9606	2108.1626	10832.15	9950.3
941.0965	2109.6983	10839.85	9928.75
941.2325	2111.2332	10758.85	9874.35
941.3684	2112.7675	10753.55	9870.85
941.5044	2114.301	10712.7	9828.55
941.6403	2115.8337	10679.8	9796.05
941.7761	2117.3657	10645.5	9763.5
941.912	2118.897	10642.75	9759.8
942.0478	2120.4276	10605.55	9717.45
942.1835	2121.9575	10559.65	9676.4
942.3193	2123.4866	10587.05	9691.35
942.455	2125.0149	10532.35	9646.25
942.5907	2126.5426	10449.35	9569.05
942.7264	2128.0695	10486.5	9601.3
942.8621	2129.5956	10444.15	9563.35
942.9977	2131.1211	10433.55	9547.35
943.1333	2132.6458	10405	9525.9
943.2689	2134.1698	10339.7	9459.45
943.4044	2135.693	10338.05	9453
943.54	2137.2155	10314.3	9430.6
943.6755	2138.7373	10286.95	9406.3
943.8109	2140.2584	10264.25	9383.45
943.9464	2141.7787	10226.55	9339.85
944.0818	2143.2983	10213.95	9335.15
944.2172	2144.8171	10124	9246.2
944.3526	2146.3353	10121.25	9240.5
944.4879	2147.8527	10069.05	9189.2
944.6232	2149.3693	10065.35	9182.35
944.7585	2150.8853	10006.25	9122.25
944.8938	2152.4005	9995.15	9113
945.029	2153.9149	9984.05	9102.85
945.1642	2155.4287	9952.3	9069.4
945.2994	2156.9417	9919.8	9036.6
945.4346	2158.454	9902.75	9018.75
945.5697	2159.9655	9879.9	8998.4
945.7048	2161.4764	9868.7	8986.25
945.8399	2162.9865	9840.3	8959.65
945.9749	2164.4958	9790.85	8909.4
946.1099	2166.0045	9758.9	8875.8
946.2449	2167.5124	9747.5	8866.25
946.3799	2169.0195	9721.7	8840.3
946.5148	2170.526	9729.55	8847.8
946.6498	2172.0317	9701.75	8821
946.7846	2173.5367	9660.15	8778.8
946.9195	2175.0409	9614.45	8732.5
947.0543	2176.5445	9608.8	8725.7
947.1891	2178.0473	9574	8691.3
947.3239	2179.5494	9552.3	8667.3
947.4587	2181.0507	9515.15	8633.85
947.5934	2182.5513	9480.7	8598.95
947.7281	2184.0512	9452.65	8570.9
947.8628	2185.5504	9424.85	8544.3
947.9974	2187.0488	9393.75	8512.3
948.132	2188.5465	9342.8	8463.4
948.2666	2190.0435	9327.55	8446.45
948.4012	2191.5397	9303.3	8421.4
948.5357	2193.0353	9277.2	8395.2
948.6702	2194.5301	9219.7	8337.7
948.8047	2196.0241	9220.2	8337.3
948.9392	2197.5175	9199.5	8314.9
949.0736	2199.0101	9179.1	8289.8
949.208	2200.502	9125.6	8242.65
949.3424	2201.9931	9084.5	8201.55
949.4767	2203.4835	9040.85	8159.05
949.611	2204.9733	9036.9	8149.45
949.7453	2206.4622	9003.65	8122.3
949.8796	2207.9505	9001	8117.75
950.0138	2209.438	8941.6	8060.75
950.148	2210.9248	8903.75	8020.25
950.2822	2212.4109	8911.9	8030.95
950.4164	2213.8962	8864.2	7978.1
950.5505	2215.3809	8882.3	7996.35
950.6846	2216.8648	8842.15	7958.7
950.8186	2218.3479	8823.4	7935
950.9527	2219.8304	8786.85	7900.5
951.0867	2221.3121	8760.55	7873.65
951.2207	2222.7931	8707.7	7824.7
951.3546	2224.2733	8686.2	7802.75
951.4886	2225.7529	8643.1	7761.35
951.6225	2227.2317	8622.75	7737.05
951.7563	2228.7098	8599	7718.95
951.8902	2230.1872	8564.85	7682.8
952.024	2231.6638	8574.95	7692.8
952.1578	2233.1397	8531	7644.35
952.2916	2234.6149	8500.1	7619
952.4253	2236.0894	8454.05	7572.8
952.559	2237.5632	8496.5	7604.55
952.6927	2239.0362	8440.6	7558.25
952.8263	2240.5085	8429.55	7548
952.9599	2241.9801	8380.8	7499.1
953.0935	2243.4509	8347.6	7466.25
953.2271	2244.921	8325.5	7441.9
953.3606	2246.3904	8303.1	7417.9
953.4941	2247.8591	8265.55	7382
953.6276	2249.3271	8240	7357.45
953.7611	2250.7943	8217.55	7333.4
953.8945	2252.2608	8215.15	7333.75
954.0279	2253.7266	8195.95	7313.9
954.1612	2255.1917	8174.55	7291.55
954.2946	2256.656	8123.4	7239.75
954.4279	2258.1197	8095.35	7215.25
954.5612	2259.5826	8078.65	7193.75
954.6944	2261.0447	8059.95	7177.2
954.8276	2262.5062	8033.75	7149.85
954.9608	2263.9669	8039.4	7152.8
955.094	2265.4269	8003	7119.05
955.2271	2266.8862	7972.55	7091.3
955.3602	2268.3448	7944.5	7061.15
955.4933	2269.8026	7948.9	7066.9
955.6264	2271.2598	7910.55	7028.9
955.7594	2272.7162	7900.55	7020.1
955.8924	2274.1719	7875.35	6995.3
956.0253	2275.6268	7870.7	6986.85
956.1583	2277.0811	7836.1	6953.6
956.2912	2278.5346	7808.95	6927
956.4241	2279.9874	7797.5	6916.6
956.5569	2281.4395	7778.7	6897
956.6897	2282.8908	7766.5	6877.4
956.8225	2284.3414	7762.25	6879
956.9553	2285.7914	7720.3	6839.5
957.088	2287.2406	7701.75	6818.95
957.2207	2288.689	7673.55	6789.95
957.3534	2290.1368	7649.7	6764.75
957.486	2291.5838	7618.95	6734.25
957.6186	2293.0302	7595.75	6710.85
957.7512	2294.4758	7566.1	6679.35
957.8838	2295.9206	7543.65	6657.85
958.0163	2297.3648	7522.3	6637.5
958.1488	2298.8082	7523.9	6640.4
958.2813	2300.251	7509.8	6626.55
958.4137	2301.693	7478.05	6592.9
958.5461	2303.1343	7463.75	6579.4
958.6785	2304.5748	7421	6540.65
958.8108	2306.0147	7411.25	6528.05
958.9432	2307.4538	7396.6	6510.85
959.0754	2308.8922	7371.15	6490.85
959.2077	2310.3299	7357.2	6475.85
959.3399	2311.7669	7320.8	6439.55
959.4721	2313.2031	7317	6435
959.6043	2314.6387	7275.35	6392.3
959.7365	2316.0735	7254.05	6372.5
959.8686	2317.5076	7248.3	6364.9
960.0006	2318.941	7248.15	6366.2
960.1327	2320.3737	7211.05	6327.2
960.2647	2321.8056	7176.3	6289.75
960.3967	2323.2369	7163.9	6279.95
960.5287	2324.6674	7162.3	6275.4
960.6606	2326.0972	7124.05	6238.15
960.7925	2327.5263	7101.2	6219.8
960.9244	2328.9547	7077.3	6192.35
961.0562	2330.3823	7048.75	6166.4
961.1881	2331.8092	7066.05	6177.65
961.3198	2333.2355	7031.65	6148.2
961.4516	2334.661	7020.15	6135.45
961.5833	2336.0858	6983.7	6098.4
961.715	2337.5098	6968.55	6083.2
961.8467	2338.9332	6973.1	6090.15
961.9783	2340.3558	6944.8	6058.95
962.1099	2341.7778	6926.4	6046.5
962.2415	2343.199	6899.85	6017.6
962.373	2344.6195	6884.35	6002.35
962.5045	2346.0393	6844.25	5962.3
962.636	2347.4583	6857	5975.15
962.7675	2348.8767	6826	5943.1
962.8989	2350.2943	6806.45	5921.5
963.0303	2351.7113	6793.2	5907.9
963.1617	2353.1275	6776.4	5892.4
963.293	2354.543	6756.4	5861.9
963.4243	2355.9578	6740.6	5856.85
963.5556	2357.3718	6685.55	5803.45
963.6868	2358.7852	6690.05	5805.6
963.818	2360.1978	6637.35	5755.65
963.9492	2361.6098	6640.35	5758.65
964.0803	2363.021	6620.85	5734.45
964.2114	2364.4315	6583.5	5699.55
964.3425	2365.8413	6562.3	5677.55
964.4736	2367.2504	6539.5	5657.55
964.6046	2368.6587	6503	5619.9
964.7356	2370.0664	6480	5595.3
964.8666	2371.4733	6467.35	5585.15
964.9975	2372.8795	6454.6	5570.4
965.1284	2374.285	6434.95	5552.4
965.2593	2375.6899	6373.25	5491.7
965.3901	2377.0939	6373.25	5490.95
965.5209	2378.4973	6345.45	5462.3
965.6517	2379.9	6328.95	5444.65
965.7825	2381.3019	6320	5438.95
965.9132	2382.7032	6291.45	5408.55
966.0439	2384.1037	6268.1	5388.05
966.1745	2385.5035	6252.4	5369.2
966.3051	2386.9027	6244.3	5362.45
966.4357	2388.3011	6226.65	5341.65
966.5663	2389.6987	6201.95	5319.8
966.6968	2391.0957	6179.4	5297.85
966.8273	2392.492	6154.9	5273.65
966.9578	2393.8876	6113.2	5230.15
967.0882	2395.2824	6093.9	5210.45
967.2186	2396.6765	6072.6	5192.35
967.349	2398.07	6069.8	5186.5
967.4793	2399.4627	6049.7	5166.05
967.6097	2400.8547	6031.15	5146.85
967.7399	2402.246	6037.75	5147.95
967.8702	2403.6366	5992.5	5108.3
968.0004	2405.0265	5963.5	5079.35
968.1306	2406.4156	5948.95	5065.05
968.2607	2407.8041	5938.6	5053.3
968.3909	2409.1918	5898.3	5015.05
968.521	2410.5789	5865.15	4980.7
968.651	2411.9652	5865.1	4978.4
968.781	2413.3508	5844.4	4961.75
968.911	2414.7358	5822.55	4937.4
969.041	2416.12	5797.8	4917.85
969.1709	2417.5035	5801.5	4917.6
969.3008	2418.8863	5755.85	4872.55
969.4307	2420.2684	5765.05	4882.7
969.5606	2421.6497	5733.15	4850.7
969.6904	2423.0304	5687.75	4807.55
969.8201	2424.4104	5697.25	4813.1
969.9499	2425.7896	5669.15	4784.7
970.0796	2427.1682	5656	4774.75
970.2093	2428.546	5640.3	4756.55
970.3389	2429.9232	5637.5	4749.6
970.4685	2431.2996	5616.05	4733.5
970.5981	2432.6753	5596.7	4713.8
970.7277	2434.0503	5598.2	4715.15
970.8572	2435.4246	5572.5	4690.75
970.9867	2436.7982	5548.55	4662.9
971.1161	2438.1711	5528.3	4647.25
971.2456	2439.5433	5519.35	4634.8
971.375	2440.9148	5494.95	4605.95
971.5043	2442.2856	5457.5	4575.75
971.6336	2443.6557	5448.05	4562.7
971.7629	2445.025	5447.7	4564.65
971.8922	2446.3937	5447.6	4563.15
972.0214	2447.7617	5414.25	4532.05
972.1506	2449.1289	5417.15	4533.45
972.2798	2450.4955	5401	4514.3
972.4089	2451.8613	5382.55	4501.2
972.538	2453.2265	5374.25	4488.35
972.6671	2454.5909	5337.15	4452.7
972.7961	2455.9546	5336.4	4454.65
972.9251	2457.3177	5327.15	4443.8
973.0541	2458.68	5314.05	4430.15
973.1831	2460.0416	5299.65	4415.95
973.312	2461.4025	5300.15	4418.05
973.4408	2462.7627	5276.75	4383.55
973.5697	2464.1222	5250.1	4370.3
973.6985	2465.4811	5244.4	4359.85
973.8273	2466.8392	5231.6	4349.4
973.956	2468.1966	5230.65	4344.65
974.0847	2469.5533	5210.45	4326.8
974.2134	2470.9093	5208.35	4323.75
974.3421	2472.2645	5189.7	4305.7
974.4707	2473.6191	5179.35	4297.1
974.5993	2474.973	5142.8	4258.7
974.7278	2476.3262	5119.9	4235.75
974.8563	2477.6787	5130.7	4247.05
974.9848	2479.0305	5101	4216.75
975.1132	2480.3816	5078.2	4194.6
975.2417	2481.7319	5053.7	4171.7
975.37	2483.0816	5041.65	4157.25
975.4984	2484.4306	5024.35	4140.9
975.6267	2485.7789	5017.3	4137.5
975.755	2487.1264	4987.6	4102.55
975.8833	2488.4733	4963.65	4082.55
976.0115	2489.8195	4962.5	4073.8
976.1397	2491.165	4950.9	4065.6
976.2678	2492.5097	4949.4	4064.4
976.3959	2493.8538	4918.2	4036.25
976.524	2495.1972	4897.45	4014.9
976.6521	2496.5398	4889.9	4005.75
976.7801	2497.8818	4881.75	3995.8
976.9081	2499.2231	4849.35	3966.65
977.036	2500.5637	4844.4	3960.4
977.164	2501.9035	4832.35	3948.65
977.2918	2503.2427	4813.2	3926.3
977.4197	2504.5812	4788.4	3906.85
977.5475	2505.919	4798.2	3910.15
977.6753	2507.256	4780.35	3898.5
977.8031	2508.5924	4765.5	3882.5
977.9308	2509.9281	4746.4	3858.55
978.0585	2511.2631	4730.7	3848.45
978.1861	2512.5974	4721.1	3838.05
978.3137	2513.9309	4705.6	3823.45
978.4413	2515.2638	4718.2	3801
978.5689	2516.596	4689.65	3806.2
978.6964	2517.9275	4669.7	3784.4
978.8239	2519.2583	4657.35	3774
978.9513	2520.5884	4632.35	3747.35
979.0788	2521.9178	4618.3	3734.35
979.2062	2523.2465	4602.75	3721.35
979.3335	2524.5745	4593.5	3711.75
979.4608	2525.9018	4581.2	3697.9
979.5881	2527.2284	4554.2	3673.35
979.7154	2528.5543	4551.25	3670.7
979.8426	2529.8796	4540	3655.95
979.9698	2531.2041	4534.7	3652.6
980.0969	2532.5279	4524.3	3641.95
980.224	2533.851	4513.7	3630.3
980.3511	2535.1735	4501.15	3618.4
980.4781	2536.4952	4484.55	3601.55
980.6052	2537.8163	4478.4	3592.3
980.7321	2539.1366	4460.75	3577.45
980.8591	2540.4562	4446.5	3562.45
980.986	2541.7752	4445.2	3561.95
981.1129	2543.0935	4435.25	3552.75
981.2397	2544.411	4432.55	3547
981.3665	2545.7279	4409.55	3525.9
981.4933	2547.0441	4395.6	3512.2
981.62	2548.3596	4417.6	3532.35
981.7467	2549.6744	4406.15	3522.15
981.8734	2550.9885	4400.6	3508.7
982.0001	2552.3019	4372.7	3487.5
982.1267	2553.6146	4362.7	3479.15
982.2532	2554.9266	4347.85	3461.55
982.3798	2556.2379	4335.5	3451.3
982.5063	2557.5485	4332.15	3452.5
982.6327	2558.8585	4324.95	3434.4
982.7592	2560.1677	4302.75	3417.85
982.8856	2561.4762	4300.4	3414.8
983.0119	2562.7841	4314.25	3429.9
983.1383	2564.0913	4282.45	3399.15
983.2646	2565.3977	4292.1	3409.55
983.3908	2566.7035	4282.55	3397.15
983.517	2568.0086	4272.4	3388.75
983.6432	2569.313	4262.35	3377.65
983.7694	2570.6167	4237	3350.05
983.8955	2571.9197	4237.95	3355.1
984.0216	2573.222	4248.15	3361.5
984.1476	2574.5236	4229.55	3347.35
984.2737	2575.8246	4221.25	3335.05
984.3996	2577.1248	4212.55	3325.8
984.5256	2578.4244	4192.8	3312.15
984.6515	2579.7232	4197	3316.15
984.7774	2581.0214	4194.9	3287.4
984.9032	2582.3189	4185.85	3302.9
985.029	2583.6157	4167.05	3279.8
985.1548	2584.9118	4154.65	3271.2
985.2806	2586.2072	4126.85	3243.95
985.4063	2587.5019	4125.2	3242.75
985.5319	2588.7959	4116.25	3233.15
985.6576	2590.0893	4121.5	3235.05
985.7832	2591.3819	4106.75	3223.75
985.9087	2592.6739	4088.45	3206.35
986.0343	2593.9652	4081.65	3196.55
986.1597	2595.2557	4076.45	3193.85
986.2852	2596.5456	4056.05	3171.5
986.4106	2597.8348	4041.05	3157.7
986.536	2599.1234	4025.8	3143.3
986.6614	2600.4112	4024.05	3140.4
986.7867	2601.6983	4017.7	3131
986.912	2602.9848	3989.3	3107.4
987.0372	2604.2705	3981.15	3088.65
987.1624	2605.5556	3968.95	3086.7
987.2876	2606.84	3954.25	3072.35
987.4128	2608.1237	3940.9	3057.8
987.5379	2609.4067	3928.4	3045.45
987.6629	2610.689	3921.85	3029.85
987.788	2611.9707	3910.2	3025.85
987.913	2613.2516	3886.4	3001.1
988.0379	2614.5319	3864.4	2982.2
988.1629	2615.8115	3847.65	2965.3
988.2878	2617.0903	3848.45	2962.35
988.4126	2618.3685	3827.95	2944.9
988.5375	2619.6461	3819.45	2934.8
988.6622	2620.9229	3818.15	2934.7
988.787	2622.199	3804.6	2922.3
988.9117	2623.4745	3812.55	2927.85
989.0364	2624.7493	3779.4	2896.8
989.161	2626.0234	3775.75	2895.15
989.2857	2627.2968	3745.65	2864.25
989.4102	2628.5695	3748.4	2863.3
989.5348	2629.8415	3734.05	2851.15
989.6593	2631.1128	3725.5	2841.3
989.7837	2632.3835	3704.75	2820.3
989.9082	2633.6535	3689.95	2808.85
990.0326	2634.9228	3690.6	2808.5
990.1569	2636.1914	3668.3	2783.35
990.2812	2637.4593	3680.95	2791.95
990.4055	2638.7265	3653.15	2771
990.5298	2639.9931	3654	2769.85
990.654	2641.259	3638.05	2753.45
990.7782	2642.5242	3619.8	2737.8
990.9023	2643.7887	3614.3	2731.85
991.0264	2645.0525	3611.8	2731.05
991.1505	2646.3156	3606.8	2723.7
991.2745	2647.5781	3593.1	2711.1
991.3985	2648.8398	3582.1	2698.65
991.5225	2650.1009	3563.2	2673.1
991.6464	2651.3613	3568.2	2686.65
991.7703	2652.6211	3554.9	2672.2
991.8942	2653.8801	3534.95	2654.6
992.018	2655.1385	3536.2	2651.25
992.1418	2656.3961	3518.6	2637.95
992.2655	2657.6531	3518.15	2635.35
992.3892	2658.9094	3503.55	2622.3
992.5129	2660.1651	3493.95	2612.8
992.6366	2661.42	3498.3	2616.75
992.7602	2662.6743	3492.9	2611
992.8837	2663.9279	3475.75	2595.45
993.0073	2665.1808	3472.9	2589.35
993.1307	2666.433	3461.05	2575.7
993.2542	2667.6846	3443.45	2561.15
993.3776	2668.9354	3459.65	2573.95
993.501	2670.1856	3434.05	2550.45
993.6244	2671.4351	3437.05	2552.75
993.7477	2672.6839	3421.3	2536.3
993.8709	2673.9321	3404.8	2522.6
993.9942	2675.1795	3404.05	2520.6
994.1174	2676.4263	3399.9	2517.5
994.2405	2677.6724	3378.5	2495.6
994.3637	2678.9179	3377.05	2495.35
994.4868	2680.1626	3368.25	2485.85
994.6098	2681.4067	3364.75	2481.2
994.7328	2682.6501	3358.45	2476.9
994.8558	2683.8928	3349.95	2467.25
994.9788	2685.1348	3340.95	2458.1
995.1017	2686.3761	3314.25	2431.45
995.2245	2687.6168	3309	2427.4
995.3474	2688.8568	3296.25	2412.4
995.4702	2690.0961	3302.45	2423.25
995.5929	2691.3348	3277.95	2394.35
995.7156	2692.5727	3277.4	2395.45
995.8383	2693.81	3256.65	2373.55
995.961	2695.0466	3269.95	2386.3
996.0836	2696.2826	3249.3	2366.4
996.2062	2697.5178	3256.5	2370
996.3287	2698.7524	3237.05	2356.25
996.4512	2699.9863	3243.85	2358.3
996.5737	2701.2195	3220.05	2339.75
996.6961	2702.452	3216.45	2333.15
996.8185	2703.6839	3210.1	2327.85
996.9408	2704.9151	3198.5	2319.3
997.0631	2706.1456	3191.05	2308.25
997.1854	2707.3755	3178.2	2295.55
997.3077	2708.6046	3185.65	2301
997.4299	2709.8331	3171.5	2287.65
997.552	2711.0609	3154.45	2271.35
997.6742	2712.2881	3151.1	2268.4
997.7963	2713.5145	3148.85	2264.9
997.9183	2714.7403	3139.65	2259.35
998.0403	2715.9654	3134.5	2250.65
998.1623	2717.1899	3137.35	2241
998.2842	2718.4136	3123.75	2240.75
998.4062	2719.6367	3108.9	2227.2
998.528	2720.8591	3107.3	2216.85
998.6498	2722.0809	3096.5	2215.75
998.7716	2723.3019	3082.6	2196.9
998.8934	2724.5223	3083.4	2201.05
999.0151	2725.7421	3057.9	2174.05
999.1368	2726.9611	3069.6	2186.05
999.2584	2728.1795	3053.35	2165.8
999.38	2729.3972	3043.7	2160.85
999.5016	2730.6142	3038.35	2141.6
999.6231	2731.8306	3017.45	2134.35
999.7446	2733.0462	3024.4	2140.35
999.8661	2734.2612	3009.05	2119.55
999.9875	2735.4756	2987.25	2106
1000.1089	2736.6892	2977.05	2095
1000.2302	2737.9022	2963.65	2084.05
1000.3515	2739.1145	2951.35	2070.7
1000.4728	2740.3262	2950.1	2058.25
1000.594	2741.5372	2927.15	2047.05
1000.7152	2742.7475	2921.15	2037.75
1000.8363	2743.9571	2926.15	2044.5
1000.9575	2745.1661	2921.1	2034.15
1001.0785	2746.3744	2901.75	2020.85
1001.1996	2747.582	2887.2	2004.65
1001.3206	2748.7889	2872.95	1986.95
1001.4415	2749.9952	2868.3	1987.95
1001.5625	2751.2008	2861.35	1978.2
1001.6833	2752.4057	2856.65	1971.1
1001.8042	2753.61	2830.65	1947.7
1001.925	2754.8136	2849.8	1965.85
1002.0458	2756.0165	2832.5	1951.7
1002.1665	2757.2188	2825.3	1944.55
1002.2872	2758.4204	2818.65	1936.4
1002.4078	2759.6213	2817.55	1933.95
1002.5285	2760.8215	2807.7	1922.15
1002.649	2762.0211	2804.5	1922.3
1002.7696	2763.22	2784	1900.6
1002.8901	2764.4182	2780.5	1896.95
1003.0106	2765.6158	2782.75	1899.9
1003.131	2766.8127	2775.85	1894.9
1003.2514	2768.009	2758.7	1877.7
1003.3717	2769.2045	2758.2	1875.15
1003.492	2770.3994	2752.65	1870.9
1003.6123	2771.5936	2742.5	1859.65
1003.7325	2772.7872	2721.5	1841.25
1003.8527	2773.9801	2699.7	1814
1003.9729	2775.1723	2724.4	1824.9
1004.093	2776.3639	2712.7	1831.9
1004.2131	2777.5548	2691.6	1808
1004.3331	2778.745	2689.5	1805.9
1004.4531	2779.9346	2681.35	1799.15
1004.5731	2781.1235	2686.8	1804.15
1004.693	2782.3117	2667.15	1786.5
1004.8129	2783.4992	2675.5	1794.25
1004.9328	2784.6861	2669.7	1789.8
1005.0526	2785.8723	2662.2	1777.6
1005.1723	2787.0579	2646.05	1763.85
1005.2921	2788.2428	2643.85	1760.75
1005.4118	2789.427	2637.9	1757.15
1005.5314	2790.6106	2620.75	1739.6
1005.651	2791.7935	2623.25	1741.8
1005.7706	2792.9757	2612.05	1732.3
1005.8902	2794.1573	2608.1	1724.85
1006.0097	2795.3382	2609.7	1729.9
1006.1291	2796.5184	2601.95	1719.95
1006.2485	2797.698	2598.8	1714.95
1006.3679	2798.8769	2581.2	1699
1006.4873	2800.0551	2583.2	1699.1
1006.6066	2801.2327	2571.85	1688.9
1006.7258	2802.4096	2576.45	1696.75
1006.8451	2803.5859	2564.5	1683.1
1006.9642	2804.7615	2563.45	1680.75
1007.0834	2805.9364	2570.5	1689.3
1007.2025	2807.1106	2562.05	1680.35
1007.3216	2808.2842	2559.15	1677.3
1007.4406	2809.4572	2564.95	1683.15
1007.5596	2810.6294	2561	1677.55
1007.6785	2811.801	2567.7	1687.9
1007.7975	2812.972	2564	1683.6
1007.9163	2814.1423	2563.05	1683
1008.0352	2815.3119	2583.1	1701.45
1008.154	2816.4808	2573.3	1693.55
1008.2727	2817.6491	2582.95	1702.75
1008.3914	2818.8167	2589.45	1709
1008.5101	2819.9837	2601.2	1716.45
1008.6288	2821.15	2606.65	1723.55
1008.7474	2822.3157	2600.1	1720.8
1008.8659	2823.4807	2625.75	1745.45
1008.9844	2824.645	2636.1	1752.85
1009.1029	2825.8086	2631.95	1750.4
1009.2214	2826.9716	2635.3	1755.5
1009.3398	2828.134	2654.05	1773.85
1009.4581	2829.2957	2667.05	1786.6
1009.5764	2830.4567	2670.85	1792.4
1009.6947	2831.617	2678.65	1796.85
1009.813	2832.7767	2661.7	1780.1
1009.9312	2833.9358	2660.4	1779.85
1010.0493	2835.0941	2658.5	1776.75
1010.1675	2836.2519	2657.8	1777.25
1010.2855	2837.4089	2634.15	1751.8
1010.4036	2838.5653	2629.85	1749.85
1010.5216	2839.7211	2629.7	1748.95
1010.6396	2840.8761	2625.75	1742.85
1010.7575	2842.0306	2624.15	1743.4
1010.8754	2843.1843	2608.05	1726.7
1010.9932	2844.3374	2608.25	1728.3
1011.111	2845.4899	2623.45	1742.7
1011.2288	2846.6417	2633.55	1752.4
1011.3465	2847.7928	2642.45	1760.95
1011.4642	2848.9433	2657.8	1778.35
1011.5818	2850.0931	2655.45	1774.25
1011.6995	2851.2422	2669.9	1787.8
1011.817	2852.3907	2682	1801.7
1011.9345	2853.5385	2695.2	1813.4
1012.052	2854.6857	2704	1814.05
1012.1695	2855.8323	2697.9	1816.9
1012.2869	2856.9781	2713.15	1833.6
1012.4042	2858.1233	2698.8	1818.3
1012.5216	2859.2679	2712.25	1832.8
1012.6389	2860.4118	2730.55	1850.1
1012.7561	2861.555	2732.6	1845.9
1012.8733	2862.6976	2730.4	1848.15
1012.9905	2863.8395	2731.45	1850.05
1013.1076	2864.9808	2740.35	1860.05
1013.2247	2866.1214	2731.7	1854.05
1013.3417	2867.2614	2747.85	1865.8
1013.4587	2868.4007	2733.8	1853.05
1013.5757	2869.5393	2729.15	1845.6
1013.6926	2870.6773	2734	1850.5
1013.8095	2871.8146	2736.7	1854.45
1013.9263	2872.9513	2728.2	1844.3
1014.0431	2874.0874	2718.05	1837.85
1014.1599	2875.2227	2714.65	1834.05
1014.2766	2876.3574	2700.9	1817.3
1014.3933	2877.4915	2681.15	1801.4
1014.51	2878.6249	2666.1	1786.85
1014.6266	2879.7577	2660.75	1780.45
1014.7431	2880.8898	2666.3	1773.1
1014.8596	2882.0212	2650.95	1770.45
1014.9761	2883.152	2633.1	1753.9
1015.0925	2884.2821	2638.8	1756.45
1015.2089	2885.4116	2616.85	1736.4
1015.3253	2886.5405	2620.45	1739.55
1015.4416	2887.6686	2622.9	1739.4
1015.5579	2888.7962	2600.7	1720.75
1015.6741	2889.923	2601.45	1722.75
1015.7903	2891.0493	2609.5	1729.35
1015.9065	2892.1748	2603.05	1723.7
1016.0226	2893.2997	2591.55	1711.25
1016.1387	2894.424	2583.5	1703.45
1016.2547	2895.5476	2599.75	1719.75
1016.3707	2896.6706	2588.7	1706.9
1016.4866	2897.7929	2584.25	1702.5
1016.6025	2898.9145	2586.8	1706.15
1016.7184	2900.0355	2580.85	1698.9
1016.8342	2901.1559	2591.05	1710.3
1016.95	2902.2756	2595.05	1714.55
1017.0658	2903.3946	2588.9	1708.7
1017.1815	2904.513	2598.35	1713.9
1017.2971	2905.6308	2587.65	1707.8
1017.4127	2906.7479	2592.6	1713.35
1017.5283	2907.8643	2587.45	1705.45
1017.6439	2908.9801	2601.3	1720.85
1017.7594	2910.0953	2589.65	1707
1017.8748	2911.2098	2583.5	1696.4
1017.9902	2912.3236	2588.1	1699.2
1018.1056	2913.4368	2568.2	1687.35
1018.2209	2914.5494	2555.75	1674.15
1018.3362	2915.6613	2545.95	1659.4
1018.4515	2916.7725	2539.6	1657.2
1018.5667	2917.8831	2518.15	1636.5
1018.6819	2918.9931	2512.6	1631.5
1018.797	2920.1024	2500.85	1622.1
1018.9121	2921.211	2497.75	1618
1019.0271	2922.319	2476.2	1594.25
1019.1421	2923.4264	2472.75	1591.4
1019.2571	2924.5331	2466.2	1586.5
1019.372	2925.6391	2470.15	1589.75
1019.4869	2926.7445	2455.15	1576.8
1019.6017	2927.8493	2449.7	1567.8
1019.7165	2928.9534	2454.25	1573.5
1019.8313	2930.0569	2447.1	1562.85
1019.946	2931.1597	2453.7	1570.7
1020.0606	2932.2619	2438.75	1558.45
1020.1753	2933.3634	2454.1	1573.6
1020.2899	2934.4643	2437.95	1551.5
1020.4044	2935.5645	2444.35	1558.1
1020.5189	2936.6641	2426.15	1542.4
1020.6334	2937.763	2409.95	1529.75
1020.7478	2938.8613	2404.7	1525.1
1020.8622	2939.959	2395.15	1510.65
1020.9765	2941.056	2375.15	1495.75
1021.0908	2942.1523	2353.25	1472.25
1021.2051	2943.248	2323.55	1443.3
1021.3193	2944.3431	2286.9	1405.95
1021.4334	2945.4375	2276.2	1394.05
1021.5476	2946.5313	2245.5	1366.9
1021.6617	2947.6244	2225.1	1344.5
1021.7757	2948.7169	2192.9	1313.85
1021.8897	2949.8087	2164.45	1283.7
1022.0037	2950.8999	2144.9	1265.3
1022.1176	2951.9904	2124.25	1246.25
1022.2315	2953.0803	2098.7	1217
1022.3453	2954.1696	2079.5	1200.8
1022.4591	2955.2582	2066.5	1185.75
1022.5728	2956.3462	2045.85	1165.95
1022.6865	2957.4335	2034.8	1154.3
1022.8002	2958.5202	2029.45	1146.5
1022.9138	2959.6062	2024.85	1145.7
1023.0274	2960.6916	2013.4	1133.3
1023.141	2961.7764	1989.9	1109.85
1023.2545	2962.8605	1990.8	1110.25
1023.3679	2963.9439	1998.95	1118.55
1023.4813	2965.0267	1990	1108.05
1023.5947	2966.1089	1998.6	1096.3
1023.708	2967.1905	1968	1089.1
1023.8213	2968.2714	1966.4	1086.45
1023.9346	2969.3516	1949.85	1070.4
1024.0478	2970.4312	1963.45	1075.75
1024.1609	2971.5102	1952.3	1074.45
1024.274	2972.5885	1945.65	1068.2
1024.3871	2973.6662	1949.75	1063.75
1024.5002	2974.7432	1942.6	1064.4
1024.6132	2975.8196	1945.8	1065.4
1024.7261	2976.8954	1936.4	1058.2
1024.839	2977.9705	1933.4	1052.7
1024.9519	2979.045	1927.8	1048.25
1025.0647	2980.1188	1919.05	1038.8
1025.1775	2981.192	1912.75	1035.25
1025.2902	2982.2645	1897.9	1016.25
1025.4029	2983.3364	1890	1010.65
1025.5156	2984.4077	1880.15	1000.65
1025.6282	2985.4783	1880.85	995.45
1025.7407	2986.5483	1860.15	980.9
1025.8532	2987.6177	1851.65	971.6
1025.9657	2988.6864	1841.4	963.1
1026.0782	2989.7545	1831.25	948.8
1026.1906	2990.8219	1824.8	945.1
1026.3029	2991.8887	1809.15	926.35
1026.4152	2992.9548	1806.6	925.6
1026.5275	2994.0204	1785	905.4
1026.6397	2995.0852	1776.7	898.8
1026.7519	2996.1495	1764.7	883.4
1026.864	2997.2131	1764.35	883.5
1026.9761	2998.276	1749.1	870.45
1027.0882	2999.3383	1743.25	862.9
1027.2002	3000.4	1734.65	854.45
1027.3122	3001.4611	1730.25	850.7
1027.4241	3002.5215	1722.5	843.4
1027.536	3003.5812	1716	837.75
1027.6478	3004.6404	1701.9	822.1
1027.7596	3005.6989	1704.55	822.35
1027.8714	3006.7567	1695.4	815.4
1027.9831	3007.8139	1708.85	806.85
1028.0947	3008.8705	1682.75	802.4
1028.2064	3009.9264	1683.25	798
1028.3179	3010.9818	1680.85	800.95
1028.4295	3012.0364	1672.45	791.6
1028.541	3013.0905	1664	782.6
1028.6524	3014.1439	1661.4	780.65
1028.7638	3015.1966	1656.35	776.6
1028.8752	3016.2487	1661.65	782.9
1028.9865	3017.3002	1656.4	775.15
1029.0978	3018.3511	1642.45	764.6
1029.209	3019.4013	1641.55	762
1029.3202	3020.4509	1634.85	756.85
1029.4314	3021.4998	1635.8	756.1
1029.5425	3022.5481	1635.15	756.7
1029.6535	3023.5958	1634.65	754.1
1029.7645	3024.6428	1626.35	744.9
1029.8755	3025.6892	1629.55	751.35
1029.9864	3026.735	1618.95	738.75
1030.0973	3027.7802	1612.75	733.7
1030.2082	3028.8247	1621.1	740.85
1030.319	3029.8685	1607.8	727.55
1030.4297	3030.9118	1607.75	726.95
1030.5404	3031.9544	1607.25	728.35
1030.6511	3032.9963	1604.35	724.3
1030.7617	3034.0376	1612.4	732.15
1030.8723	3035.0783	1609.8	727.7
1030.9829	3036.1184	1598.05	718.85
1031.0934	3037.1578	1593.05	714.8
1031.2038	3038.1966	1600.3	720.25
1031.3142	3039.2348	1592.55	714.2
1031.4246	3040.2723	1587.1	697.6
1031.5349	3041.3092	1586.7	707.85
1031.6452	3042.3455	1581.85	699.4
1031.7554	3043.3811	1573.55	692.75
1031.8656	3044.4161	1572.65	692.45
1031.9758	3045.4505	1571	693.25
1032.0859	3046.4842	1562.7	682.85
1032.1959	3047.5173	1563.75	684.2
1032.3059	3048.5498	1563.45	681.3
1032.4159	3049.5816	1556.9	678.35
1032.5258	3050.6128	1550.35	670.4
1032.6357	3051.6434	1554.95	672.95
1032.7455	3052.6734	1554.8	675.35
1032.8553	3053.7027	1549.7	670.7
1032.9651	3054.7314	1545.95	667.35
1033.0748	3055.7594	1543.65	664.55
1033.1845	3056.7868	1533.6	651.6
1033.2941	3057.8136	1529.7	651
1033.4037	3058.8398	1528.8	650.35
1033.5132	3059.8653	1533.45	654.1
1033.6227	3060.8902	1525.9	646.8
1033.7321	3061.9145	1525.75	646.75
1033.8415	3062.9381	1525.2	645.75
1033.9509	3063.9612	1525.95	630.2
1034.0602	3064.9835	1519.45	639.95
1034.1694	3066.0053	1513.05	633.35
1034.2787	3067.0264	1510.7	631.5
1034.3878	3068.0469	1511.35	631.3
1034.497	3069.0668	1503.95	621.25
1034.6061	3070.086	1494.95	616.6
1034.7151	3071.1046	1497.85	618.85
1034.8241	3072.1226	1498.4	616.4
1034.9331	3073.1399	1493.75	615.3
1035.042	3074.1567	1481.65	602.45
1035.1508	3075.1727	1475.95	595.75
1035.2597	3076.1882	1476.5	596.7
1035.3684	3077.203	1474.9	594.4
1035.4772	3078.2173	1472.15	590.5
1035.5859	3079.2308	1467.5	584.65
1035.6945	3080.2438	1468.35	587.45
1035.8031	3081.2561	1458.7	579
1035.9117	3082.2678	1454.45	575.7
1036.0202	3083.2789	1459.75	581.75
1036.1286	3084.2893	1447.65	568
1036.2371	3085.2991	1445.15	566.2
1036.3454	3086.3083	1444	560.65
1036.4538	3087.3169	1441.55	559.85
1036.562	3088.3248	1441.05	561.15
1036.6703	3089.3321	1432.85	551.35
1036.7785	3090.3388	1428.1	548.5
1036.8866	3091.3449	1427.75	548.55
1036.9948	3092.3503	1425	544.3
1037.1028	3093.3551	1418.15	541.15
1037.2108	3094.3593	1415.1	536.3
1037.3188	3095.3629	1416.05	535.35
1037.4267	3096.3658	1419.1	539.75
1037.5346	3097.3681	1404.2	523.5
1037.6425	3098.3698	1409.2	530.25
1037.7503	3099.3708	1405.4	519
1037.858	3100.3713	1395.75	519.1
1037.9657	3101.3711	1395.3	515.45
1038.0734	3102.3702	1525.9	508.65
1038.181	3103.3688	1396.95	516.1
1038.2886	3104.3667	1384.7	506
1038.3961	3105.364	1381.85	504.35
1038.5036	3106.3607	1382.7	500.4
1038.611	3107.3568	1374.55	493.9
1038.7184	3108.3522	1374.55	495.15
1038.8257	3109.347	1367.25	488.45
1038.933	3110.3412	1373.85	490.15
1039.0403	3111.3348	1362.65	484.8
1039.1475	3112.3277	1356.5	476.5
1039.2547	3113.32	1356.95	479.85
1039.3618	3114.3117	1361.3	481.4
1039.4689	3115.3028	1352.6	472.4
1039.5759	3116.2932	1351.35	469.75
1039.6829	3117.2831	1353.35	468.35
1039.7898	3118.2723	1346.75	467.35
1039.8967	3119.2608	1345.15	466.25
1040.0035	3120.2488	1333.75	454.35
1040.1103	3121.2361	1339.5	460.25
1040.2171	3122.2229	1329.55	452
1040.3238	3123.209	1327.4	446.9
1040.4305	3124.1944	1328.3	450.4
1040.5371	3125.1793	1330.05	449.85
1040.6437	3126.1635	1327.4	449.35
1040.7502	3127.1471	1320	442.45
1040.8567	3128.1301	1320.5	441.8
1040.9631	3129.1125	1314.8	436.2
1041.0695	3130.0942	1312	431.45
1041.1759	3131.0753	1317.95	431.7
1041.2822	3132.0558	1307.4	425.3
1041.3884	3133.0357	1307.8	426.95
1041.4946	3134.015	1306.9	426.55
1041.6008	3134.9936	1305.4	422.65
1041.7069	3135.9716	1327.3	426.55
1041.813	3136.949	1302.2	423.45
1041.919	3137.9258	1309.85	424.4
1042.025	3138.902	1301.85	417.3
1042.1309	3139.8775	1305.2	425.65
1042.2368	3140.8524	1289.8	411.05
1042.3427	3141.8267	1291.15	412.4
1042.4485	3142.8004	1290.55	411.6
1042.5542	3143.7735	1292.05	406.75
1042.6599	3144.7459	1293.35	413.25
1042.7656	3145.7178	1284.5	404.1
1042.8712	3146.689	1279.35	401.3
1042.9768	3147.6596	1286.55	405.2
1043.0823	3148.6295	1280.25	399.9
1043.1878	3149.5989	1280.5	403.1
1043.2932	3150.5676	1274.55	397.65
1043.3986	3151.5357	1270.55	394.2
1043.5039	3152.5032	1270.8	391.65
1043.6092	3153.4701	1261.65	382.25
1043.7145	3154.4364	1271.1	390.25
1043.8197	3155.402	1267.1	388.25
1043.9248	3156.367	1264.05	387.25
1044.03	3157.3315	1291.5	374.35
1044.135	3158.2952	1255	376.9
1044.24	3159.2584	1253.7	374.7
1044.345	3160.221	1255.3	375.3
1044.4499	3161.1829	1250.65	372.15
1044.5548	3162.1442	1243.9	365.95
1044.6596	3163.105	1247.6	368.35
1044.7644	3164.065	1241.5	360.9
1044.8692	3165.0245	1240.5	358.55
1044.9739	3165.9834	1237.9	361.4
1045.0785	3166.9416	1238.5	357.95
1045.1831	3167.8993	1236.55	357.75
1045.2877	3168.8563	1241.1	360.5
1045.3922	3169.8127	1234.6	356.7
1045.4966	3170.7684	1229.15	350.6
1045.6011	3171.7236	1234.2	352.85
1045.7054	3172.6782	1229.6	352.05
1045.8098	3173.6321	1229.9	352.15
1045.914	3174.5854	1223.1	340.05
1046.0183	3175.5381	1223.55	346.65
1046.1224	3176.4902	1223.85	342.95
1046.2266	3177.4417	1215.35	337.9
1046.3307	3178.3926	1217.1	336.35
1046.4347	3179.3428	1210.95	334.15
1046.5387	3180.2924	1209.15	331.05
1046.6427	3181.2415	1211.2	331.5
1046.7466	3182.1899	1206.8	326
1046.8504	3183.1377	1206.6	328.25
1046.9542	3184.0848	1205.9	322.3
1047.058	3185.0314	1208.7	327.95
1047.1617	3185.9773	1201.85	321.5
1047.2654	3186.9227	1195.8	316.8
1047.369	3187.8674	1202.85	323.2
1047.4726	3188.8115	1204.3	319.9
1047.5761	3189.755	1193.45	312
1047.6796	3190.6979	1186.85	308.8
1047.783	3191.6402	1184.55	304.75
1047.8864	3192.5818	1193.95	314.3
1047.9898	3193.5229	1207.1	306.55
1048.0931	3194.4633	1188.5	311.2
1048.1963	3195.4031	1178.75	297.85
1048.2995	3196.3423	1181.6	304.9
1048.4027	3197.2809	1181.15	304.7
1048.5058	3198.2189	1181.15	300.4
1048.6089	3199.1563	1198.25	301.95
1048.7119	3200.0931	1172.3	296.15
1048.8148	3201.0292	1178.85	300.7
1048.9178	3201.9648	1175.8	298.3
1049.0206	3202.8997	1170.3	287.1
1049.1235	3203.834	1169.45	289.85
1049.2262	3204.7677	1173.75	293.45
1049.329	3205.7008	1170.05	288.7
1049.4317	3206.6333	1165.95	287.75
1049.5343	3207.5652	1165	283.8
1049.6369	3208.4964	1164.25	286.35
1049.7394	3209.4271	1155.15	275.6
1049.8419	3210.3571	1160.3	283.3
1049.9444	3211.2865	1158	277.35
1050.0468	3212.2154	1153.3	273.45
1050.1491	3213.1436	1157.95	274.15
1050.2514	3214.0712	1157.25	272.05
1050.3537	3214.9982	1155.2	275.5
1050.4559	3215.9246	1153.75	273.45
1050.5581	3216.8503	1148.15	269.15
1050.6602	3217.7755	1149.75	270.15
1050.7623	3218.7001	1148.05	270.2
1050.8643	3219.624	1143.9	265.4
1050.9663	3220.5473	1140.4	260.5
1051.0682	3221.4701	1142.3	261.15
1051.1701	3222.3922	1148.15	268.2
1051.2719	3223.3137	1141.2	262.05
1051.3737	3224.2346	1143.25	264.05
1051.4754	3225.1549	1137	258.4
1051.5771	3226.0746	1135.35	257.2
1051.6788	3226.9937	1131.7	253.25
1051.7804	3227.9121	1132.1	254.1
1051.8819	3228.83	1128.65	248.6
1051.9834	3229.7473	1133.6	255.95
1052.0849	3230.6639	1130.8	252.6
1052.1863	3231.5799	1128.75	250.75
1052.2876	3232.4954	1131.55	252.5
1052.3889	3233.4102	1122.2	244.05
1052.4902	3234.3244	1123.1	243.7
1052.5914	3235.238	1124.6	247.2
1052.6926	3236.151	1141.8	239.65
1052.7937	3237.0634	1117.55	239.45
1052.8948	3237.9752	1114.65	235.5
1052.9958	3238.8864	1115.6	234.6
1053.0968	3239.797	1117.5	237.6
1053.1977	3240.7069	1110.9	230.3
1053.2986	3241.6163	1111.5	230.1
1053.3994	3242.5251	1111.45	234.3
1053.5002	3243.4332	1105.4	227
1053.6009	3244.3408	1106	226.3
1053.7016	3245.2477	1106.95	227.5
1053.8022	3246.154	1105.85	226
1053.9028	3247.0598	1106.95	227.55
1054.0034	3247.9649	1103.1	223.65
1054.1039	3248.8694	1097.1	216.6
1054.2043	3249.7733	1099.65	220.55
1054.3047	3250.6766	1098.2	219.65
1054.4051	3251.5793	1097.8	216.5
1054.5054	3252.4814	1092.75	216.7
1054.6056	3253.3829	1095.6	216.55
1054.7058	3254.2838	1096	217.45
1054.806	3255.1841	1094.05	215.3
1054.9061	3256.0838	1092.4	215.35
1055.0061	3256.9829	1086.55	210.8
1055.1062	3257.8814	1086.4	207.1
1055.2061	3258.7792	1089.55	209.2
1055.306	3259.6765	1081.8	201.95
1055.4059	3260.5731	1080.2	200.35
1055.5057	3261.4692	1074.35	195.25
1055.6055	3262.3647	1076.1	195.5
1055.7052	3263.2595	1072	194.55
1055.8049	3264.1538	1069.15	190.15
1055.9045	3265.0474	1067.7	188.9
1056.0041	3265.9404	1067.05	188
1056.1036	3266.8329	1058.35	181.45
1056.2031	3267.7247	1063.95	176.95
1056.3025	3268.616	1051	173.9
1056.4019	3269.5066	1049.25	168.05
1056.5013	3270.3966	1047.7	166.05
1056.6005	3271.286	1035.15	157.65
