Software Version:	3.9.2.0
Unit SN:	10000200
Spectrometer SN:	6960
Date:	3/6/2024 10:34:06 AM
Data Line Index:	25
Spectral Points:	2048
Integration time (ms):	125
Averages:	20
Delay (ms):	30
Sequence Number:	1
Processing:	dark subtract
Laser Power (mW):	305
Laser Current (mA):	825
Laser Diode Temp (C):	25.1
Laser Case Temp (C):	26.5
System Temp (C):	26.3
Spectrometer Temp (C):	23.7
CCD Temp (C):	0.001
Secondary Temp (C):	20.01
Heatsink Temp (C):	21.903
CCDPCB Temp (C):	35.929
SecondaryPCB Temp (C):	30.182

Wavelength	RamanShift	Raw Counts	Dark Subtracted
787.061	30.1047	1134.45	721.1
787.2016	32.3739	1174.6	762.6
787.3422	34.6426	1213.85	800.75
787.4828	36.9109	1257.2	841.7
787.6235	39.1787	1321.75	903.35
787.7642	41.4461	1380.55	958.3
787.9049	43.7131	1450.65	1023.7
788.0456	45.9796	1507.65	1078.5
788.1863	48.2456	1566.45	1131.75
788.3271	50.5112	1644.45	1207.25
788.4679	52.7764	1705.75	1266.3
788.6087	55.0411	1801.25	1357.5
788.7496	57.3054	1877.9	1431.5
788.8904	59.5692	1969.1	1518.5
789.0313	61.8326	2068.2	1615.25
789.1722	64.0955	2167.1	1709.15
789.3132	66.3579	2302.2	1840.95
789.4541	68.6199	2463.3	1999.4
789.5951	70.8815	2716.25	2248.6
789.7361	73.1426	3256.05	2783.7
789.8771	75.4032	4591.75	4115.2
790.0181	77.6634	8051.3	7567.7
790.1592	79.9231	17307.2	16818.8
790.3003	82.1824	56022	55519.7
790.4414	84.4412	65535	65012.65
790.5825	86.6995	65535	64983.45
790.7237	88.9574	65535	64957.15
790.8648	91.2148	65535	64938.9
791.006	93.4717	65535	64923.95
791.1472	95.7282	65535	64918.35
791.2885	97.9842	65535	64915.6
791.4297	100.2398	65535	64909.8
791.571	102.4949	65535	64910.7
791.7123	104.7495	65535	64906
791.8536	107.0036	65535	64906.5
791.9949	109.2573	65535	64907.1
792.1363	111.5105	65535	64905.9
792.2777	113.7632	65535	64903.15
792.4191	116.0154	65535	64893.15
792.5605	118.2672	65535	64898.35
792.7019	120.5185	65535	64898.45
792.8434	122.7693	65535	64889.85
792.9849	125.0197	65535	64889.3
793.1264	127.2696	65535	64887
793.2679	129.519	65535	64885.3
793.4094	131.7679	65535	64879.05
793.551	134.0163	65535	64876.05
793.6926	136.2642	65535	64872.85
793.8342	138.5117	65535	64862.55
793.9758	140.7587	65535	64872.5
794.1175	143.0052	65535	64867.1
794.2591	145.2512	65535	64868.05
794.4008	147.4967	65535	64864.95
794.5425	149.7417	65535	64865.35
794.6842	151.9863	65535	64860.9
794.826	154.2304	65535	64858
794.9677	156.4739	65535	64851.75
795.1095	158.717	65535	64851.7
795.2513	160.9596	65535	64845.5
795.3931	163.2017	65535	64848.6
795.535	165.4433	65535	64844.25
795.6768	167.6844	65535	64844.2
795.8187	169.925	65535	64841.4
795.9606	172.1651	65535	64834.15
796.1025	174.4047	65535	64830.25
796.2445	176.6439	65535	64831.65
796.3864	178.8825	65535	64828.25
796.5284	181.1206	65535	64822.55
796.6704	183.3582	65535	64822.2
796.8124	185.5954	65535	64817.95
796.9544	187.832	65535	64815.75
797.0965	190.0681	65535	64814.65
797.2386	192.3037	65535	64810.55
797.3806	194.5388	65535	64806.8
797.5228	196.7734	65535	64804.55
797.6649	199.0075	65535	64800.55
797.807	201.2411	65535	64800.45
797.9492	203.4742	65535	64802.2
798.0914	205.7068	65535	64798.8
798.2336	207.9389	65535	64793.9
798.3758	210.1704	65535	64793.5
798.518	212.4015	65535	64792.25
798.6603	214.632	65535	64798.1
798.8025	216.862	65535	64808
798.9448	219.0915	65535	64812.95
799.0871	221.3205	65535	64809.05
799.2294	223.549	65535	64818
799.3718	225.777	65535	64812.25
799.5141	228.0044	65535	64810.5
799.6565	230.2314	65535	64813.9
799.7989	232.4578	65535	64809.6
799.9413	234.6837	65535	64802.75
800.0837	236.909	65535	64800.5
800.2262	239.1339	65535	64775.85
800.3687	241.3582	65535	64787.35
800.5111	243.582	65535	64756
800.6536	245.8053	65535	64774
800.7961	248.0281	65535	64778.9
800.9387	250.2503	65535	64771.95
801.0812	252.472	65535	64767.5
801.2238	254.6932	65535	64765.25
801.3664	256.9139	65535	64763.9
801.509	259.134	65535	64762.85
801.6516	261.3536	65535	64766.3
801.7942	263.5727	65535	64759.65
801.9369	265.7912	65535	64765.4
802.0795	268.0092	65535	64764.45
802.2222	270.2267	65535	64754.45
802.3649	272.4436	65535	64763.6
802.5076	274.6601	65535	64757.65
802.6504	276.8759	65535	64756.25
802.7931	279.0913	65535	64755.7
802.9359	281.3061	65535	64750.7
803.0787	283.5204	65535	64749.95
803.2215	285.7341	65535	64749.85
803.3643	287.9473	65535	64735.65
803.5071	290.16	65535	64740.8
803.6499	292.3721	65535	64749.9
803.7928	294.5837	65535	64751.4
803.9357	296.7947	65535	64748.1
804.0786	299.0052	65535	64749.1
804.2215	301.2152	65535	64742.7
804.3644	303.4246	65535	64745.45
804.5074	305.6334	65535	64745.3
804.6503	307.8418	65535	64744.65
804.7933	310.0495	65535	64743.25
804.9363	312.2568	65535	64742.75
805.0793	314.4635	65535	64742.15
805.2223	316.6696	65535	64739.05
805.3653	318.8752	65535	64732.2
805.5084	321.0802	65535	64740.9
805.6514	323.2847	65535	64734.9
805.7945	325.4887	65535	64736
805.9376	327.692	65535	64737.25
806.0807	329.8949	65535	64730.45
806.2238	332.0972	65535	64729.7
806.367	334.2989	65535	64727.45
806.5101	336.5001	65535	64727.05
806.6533	338.7007	65535	64729.4
806.7965	340.9008	65535	64726.15
806.9397	343.1003	65535	64724.85
807.0829	345.2992	65535	64724.9
807.2261	347.4976	65535	64723.25
807.3693	349.6955	65535	64717.75
807.5126	351.8927	65535	64718.05
807.6559	354.0895	65535	64708.05
807.7991	356.2856	65535	64717.45
807.9424	358.4812	65535	64719.4
808.0857	360.6763	65535	64715.6
808.2291	362.8707	65535	64712.4
808.3724	365.0646	65535	64711.75
808.5158	367.258	65535	64707.65
808.6591	369.4508	65535	64702.8
808.8025	371.643	65535	64705.3
808.9459	373.8346	65535	64702.15
809.0893	376.0257	65535	64699.35
809.2327	378.2162	65535	64700.35
809.3762	380.4062	65535	64700.5
809.5196	382.5956	65535	64701.5
809.6631	384.7844	65535	64699.95
809.8066	386.9726	65535	64703.3
809.9501	389.1603	65535	64705
810.0936	391.3474	65535	64662.25
810.2371	393.5339	65535	64703.8
810.3806	395.7199	65535	64708.1
810.5241	397.9052	65535	64710.9
810.6677	400.09	65535	64710.05
810.8113	402.2743	65535	64710.7
810.9548	404.4579	65535	64710.15
811.0984	406.641	65535	64706.05
811.2421	408.8235	65535	64708.35
811.3857	411.0054	65535	64706.3
811.5293	413.1868	65535	64702.15
811.673	415.3675	65535	64695.6
811.8166	417.5477	65535	64695.8
811.9603	419.7273	65535	64692.55
812.104	421.9064	65535	64690
812.2477	424.0848	65535	64691.2
812.3914	426.2627	65535	64692
812.5351	428.4399	65535	64691.2
812.6788	430.6166	65535	64688.65
812.8226	432.7928	65535	64687.8
812.9663	434.9683	65535	64685.15
813.1101	437.1432	65535	64681.8
813.2539	439.3176	65535	64683.2
813.3977	441.4914	65535	64689
813.5415	443.6645	65535	64683
813.6853	445.8371	65535	64682.05
813.8291	448.0091	65535	64683.5
813.973	450.1806	65535	64685.8
814.1168	452.3514	65535	64682.7
814.2607	454.5216	65535	64676.2
814.4046	456.6913	65535	64680.8
814.5485	458.8603	65535	64682.2
814.6924	461.0288	65535	64683.1
814.8363	463.1967	65535	64681.4
814.9802	465.3639	65535	64680.55
815.1241	467.5306	65535	64680.2
815.2681	469.6967	65535	64683.5
815.412	471.8622	65535	64682.85
815.556	474.0271	65535	64680.65
815.7	476.1914	65535	64675.6
815.844	478.3551	65535	64675.9
815.988	480.5182	65535	64680.6
816.132	482.6807	65535	64675.15
816.276	484.8426	65535	64684.6
816.4201	487.0039	65535	64681.25
816.5641	489.1647	65535	64676.05
816.7082	491.3248	65535	64675.75
816.8522	493.4843	65535	64676.95
816.9963	495.6432	65535	64680.15
817.1404	497.8015	65535	64672.45
817.2845	499.9592	65535	64670.85
817.4286	502.1163	65535	64674.55
817.5727	504.2728	65535	64674.8
817.7168	506.4287	65535	64672.55
817.861	508.5839	65535	64678.25
818.0051	510.7386	65535	64674.9
818.1493	512.8927	65535	64666.4
818.2935	515.0461	65535	64669.55
818.4377	517.199	65535	64671.35
818.5818	519.3512	65535	64667.95
818.726	521.5029	65535	64663.5
818.8703	523.6539	65535	64670
819.0145	525.8043	65535	64667.9
819.1587	527.9541	65535	64664.35
819.303	530.1033	65535	64666.05
819.4472	532.2519	65535	64665.1
819.5915	534.3999	65535	64663.9
819.7357	536.5472	65535	64663.95
819.88	538.694	65535	64666.5
820.0243	540.8401	65535	64662.1
820.1686	542.9856	65535	64659.6
820.3129	545.1305	65535	64655.35
820.4572	547.2748	65535	64658
820.6016	549.4185	65535	64656.55
820.7459	551.5615	65535	64658.9
820.8902	553.704	65535	64658.2
821.0346	555.8458	65535	64658
821.1789	557.987	65535	64660.9
821.3233	560.1276	65535	64659.75
821.4677	562.2675	65535	64657.6
821.6121	564.4069	65535	64662.5
821.7565	566.5456	65535	64659.7
821.9009	568.6837	65535	64658.1
822.0453	570.8212	65535	64663
822.1897	572.958	65535	64656.2
822.3342	575.0942	65535	64661.95
822.4786	577.2299	65535	64662.1
822.6231	579.3648	65535	64663.85
822.7675	581.4992	65535	64661.6
822.912	583.6329	65535	64665.1
823.0565	585.766	65535	64665.2
823.201	587.8985	65535	64663.3
823.3454	590.0304	65535	64631.75
823.4899	592.1616	65535	64656.5
823.6345	594.2922	65535	64656.25
823.779	596.4222	65535	64656.7
823.9235	598.5515	65535	64652.7
824.068	600.6802	65535	64658.6
824.2126	602.8083	65535	64653.8
824.3571	604.9358	65535	64654.8
824.5017	607.0626	65535	64652.75
824.6462	609.1888	65535	64651.65
824.7908	611.3144	65535	64652.2
824.9354	613.4393	65535	64652.35
825.08	615.5636	65535	64653.05
825.2246	617.6873	65535	64653.75
825.3692	619.8103	65535	64653.7
825.5138	621.9327	65535	64650.35
825.6584	624.0544	65535	64652.65
825.803	626.1756	65535	64652.8
825.9477	628.2961	65535	64650.45
826.0923	630.4159	65535	64651.95
826.237	632.5351	65535	64650
826.3816	634.6537	65535	64646.95
826.5263	636.7716	65535	64646.7
826.6709	638.8889	65535	64645.4
826.8156	641.0056	65535	64647.1
826.9603	643.1216	65535	64645.95
827.105	645.237	65535	64645.6
827.2497	647.3518	65535	64647.5
827.3944	649.4659	65535	64649.05
827.5391	651.5793	65535	64647
827.6838	653.6922	65535	64649.05
827.8285	655.8043	65535	64648.25
827.9733	657.9159	65535	64648.9
828.118	660.0268	65535	64644.55
828.2627	662.137	65535	64647.7
828.4075	664.2466	65535	64645.05
828.5522	666.3556	65535	64646.45
828.697	668.4639	65535	64644.95
828.8418	670.5716	65535	64647.15
828.9865	672.6786	65535	64645
829.1313	674.785	65535	64641.85
829.2761	676.8907	65535	64643
829.4209	678.9958	65535	64650
829.5657	681.1002	65535	64642.05
829.7105	683.204	65535	64643.25
829.8553	685.3072	65535	64641.4
830.0001	687.4097	65535	64641.15
830.1449	689.5115	65535	64643.75
830.2898	691.6127	65535	64643.25
830.4346	693.7132	65535	64644.85
830.5794	695.8131	65535	64634.1
830.7243	697.9123	65535	64640.4
830.8691	700.0109	65535	64640.4
831.014	702.1089	65535	64641
831.1588	704.2061	65535	64643.25
831.3037	706.3028	65535	64638.35
831.4486	708.3987	65535	64639.8
831.5935	710.4941	65535	64640.45
831.7383	712.5887	65535	64638.9
831.8832	714.6827	65535	64636.3
832.0281	716.7761	65535	64642.35
832.173	718.8688	65535	64640.1
832.3179	720.9608	65535	64636.35
832.4628	723.0522	65535	64635.2
832.6077	725.1429	65535	64636.8
832.7527	727.233	65535	64638.75
832.8976	729.3224	65535	64637.65
833.0425	731.4112	65535	64639.05
833.1874	733.4993	65535	64633.75
833.3324	735.5867	65535	64636.5
833.4773	737.6735	65535	64634.8
833.6222	739.7596	65535	64638.85
833.7672	741.845	65535	64634.45
833.9122	743.9298	65535	64635.1
834.0571	746.014	65535	64637.4
834.2021	748.0974	65535	64636.7
834.347	750.1802	65535	64634.65
834.492	752.2624	65535	64634.5
834.637	754.3439	65535	64634.9
834.782	756.4247	65535	64625.05
834.9269	758.5048	65535	64637.6
835.0719	760.5843	65535	64634.85
835.2169	762.6631	65535	64637.2
835.3619	764.7413	65535	64637.2
835.5069	766.8188	65535	64634.15
835.6519	768.8956	65535	64633.3
835.7969	770.9718	65535	64636.8
835.9419	773.0473	65535	64636.9
836.0869	775.1221	65535	64636
836.232	777.1962	65535	64637.75
836.377	779.2697	65535	64636.2
836.522	781.3426	65535	64616.5
836.667	783.4147	65535	64635.05
836.8121	785.4862	65535	64635.55
836.9571	787.557	65535	64635.45
837.1021	789.6271	65535	64633.9
837.2472	791.6966	65535	64635
837.3922	793.7654	65535	64633.35
837.5373	795.8335	65535	64633
837.6823	797.901	65535	64635.6
837.8274	799.9678	65535	64634.9
837.9724	802.0339	65535	64632.4
838.1175	804.0993	65535	64623.65
838.2626	806.1641	65535	64632.6
838.4076	808.2282	65535	64634.1
838.5527	810.2916	65535	64631.05
838.6978	812.3544	65535	64633.65
838.8428	814.4164	65535	64634.85
838.9879	816.4778	65535	64629.65
839.133	818.5385	65535	64635.8
839.2781	820.5986	65535	64633.55
839.4232	822.658	65535	64629.95
839.5682	824.7166	65535	64632.65
839.7133	826.7747	65535	64633.3
839.8584	828.832	65535	64632.2
840.0035	830.8886	65535	64629.05
840.1486	832.9446	65535	64630.6
840.2937	834.9999	65535	64633.45
840.4388	837.0545	65535	64627.45
840.5839	839.1085	65535	64630.3
840.729	841.1618	65535	64627.75
840.8741	843.2143	65535	64633.55
841.0192	845.2662	65535	64631.55
841.1643	847.3175	65535	64631.05
841.3095	849.368	65535	64632.85
841.4546	851.4179	65535	64637.7
841.5997	853.467	65535	64631.3
841.7448	855.5155	65535	64630.45
841.8899	857.5633	65535	64630.45
842.0351	859.6105	65535	64631.45
842.1802	861.6569	65535	64629.85
842.3253	863.7027	65535	64631.4
842.4704	865.7478	65535	64628.5
842.6156	867.7922	65535	64628.95
842.7607	869.8359	65535	64629.85
842.9058	871.8789	65535	64629
843.0509	873.9212	65535	64599.5
843.1961	875.9629	65535	64631.5
843.3412	878.0039	65535	64630.75
843.4863	880.0441	65535	64629.55
843.6315	882.0837	65535	64629.9
843.7766	884.1226	65535	64627.9
843.9218	886.1609	65535	64632.5
844.0669	888.1984	65535	64631.05
844.212	890.2352	65535	64632.6
844.3572	892.2714	65535	64627.8
844.5023	894.3069	65535	64628.3
844.6475	896.3416	65535	64628.85
844.7926	898.3757	65535	64628.45
844.9377	900.4091	65535	64628.35
845.0829	902.4418	65535	64624.65
845.228	904.4739	65535	64626.55
845.3732	906.5052	65535	64631.2
845.5183	908.5358	65535	64629.6
845.6635	910.5658	65535	64628.8
845.8086	912.595	65535	64627.6
845.9538	914.6236	65535	64627.55
846.0989	916.6515	65535	64631.7
846.2441	918.6786	65535	64626.3
846.3892	920.7051	65535	64625.5
846.5344	922.7309	65535	64628.5
846.6795	924.756	65535	64628.1
846.8246	926.7804	65535	64626.85
846.9698	928.8041	65535	64622.65
847.1149	930.8272	65535	64628.9
847.2601	932.8495	65535	64628.8
847.4052	934.8711	65535	64627.65
847.5504	936.892	65535	64628.45
847.6955	938.9123	65535	64626.65
847.8407	940.9318	65535	64629.15
847.9858	942.9506	65535	64625.5
848.131	944.9688	65535	64628.05
848.2761	946.9862	65535	64626.8
848.4213	949.003	65535	64627.95
848.5664	951.019	65535	64628.45
848.7115	953.0344	65535	64628.8
848.8567	955.0491	65535	64626.9
849.0018	957.063	65535	64628.5
849.147	959.0763	65535	64628.1
849.2921	961.0888	65535	64625.95
849.4373	963.1007	65535	64627.55
849.5824	965.1119	65535	64629.2
849.7275	967.1223	65535	64631.4
849.8727	969.1321	65535	64632.2
850.0178	971.1412	65535	64630.85
850.1629	973.1495	65535	64627
850.3081	975.1572	65535	64596.95
850.4532	977.1641	65535	64627.15
850.5983	979.1704	65535	64626
850.7435	981.1759	65535	64626.1
850.8886	983.1808	65535	64626.1
851.0337	985.1849	65535	64616.5
851.1788	987.1884	65535	64624.25
851.324	989.1911	65535	64625.2
851.4691	991.1932	65535	64625.6
851.6142	993.1945	65535	64628.2
851.7593	995.1951	65535	64627.35
851.9045	997.1951	65535	64624
852.0496	999.1943	65535	64629.85
852.1947	1001.1928	65535	64627.55
852.3398	1003.1906	65535	64627.85
852.4849	1005.1877	65535	64628.85
852.63	1007.1841	65535	64626.75
852.7751	1009.1798	65535	64627
852.9202	1011.1748	65535	64627.4
853.0653	1013.1691	65535	64625.75
853.2104	1015.1627	65535	64627
853.3555	1017.1556	65535	64631.2
853.5006	1019.1477	65535	64629.2
853.6457	1021.1392	65535	64634
853.7908	1023.1299	65535	64630.7
853.9359	1025.12	65535	64629.25
854.081	1027.1093	65535	64633.8
854.2261	1029.0979	65535	64633.5
854.3712	1031.0859	65535	64633.7
854.5163	1033.0731	65535	64631.65
854.6613	1035.0596	65535	64629.05
854.8064	1037.0454	65535	64625.15
854.9515	1039.0304	65535	64628.1
855.0965	1041.0148	65535	64632.25
855.2416	1042.9985	65535	64629.6
855.3867	1044.9814	65535	64629.35
855.5317	1046.9636	65535	64625.8
855.6768	1048.9452	65535	64630.05
855.8219	1050.926	65535	64629.25
855.9669	1052.9061	65535	64628.95
856.112	1054.8855	65535	64626.85
856.257	1056.8642	65535	64630.7
856.4021	1058.8421	65535	64623.65
856.5471	1060.8194	65535	64626.6
856.6921	1062.7959	65535	64629.2
856.8372	1064.7717	65535	64627.25
856.9822	1066.7469	65535	64626.6
857.1272	1068.7213	65535	64627.7
857.2723	1070.695	65535	64626.55
857.4173	1072.6679	65535	64624.25
857.5623	1074.6402	65535	64627.95
857.7073	1076.6117	65535	64621.45
857.8523	1078.5826	65535	64630.1
857.9973	1080.5527	65535	64625.55
858.1423	1082.5221	65535	64628.55
858.2873	1084.4908	65535	64628.1
858.4323	1086.4587	65535	64629.25
858.5773	1088.426	65535	64627.8
858.7223	1090.3925	65535	64621.9
858.8673	1092.3584	65535	64627.3
859.0123	1094.3235	65535	64630.2
859.1573	1096.2879	65535	64626.45
859.3022	1098.2515	65535	64629.6
859.4472	1100.2145	65535	64631.1
859.5922	1102.1767	65535	64625.4
859.7371	1104.1382	65535	64626.4
859.8821	1106.099	65535	64626.85
860.027	1108.0591	65535	64628.1
860.172	1110.0185	65535	64627.95
860.3169	1111.9771	65535	64630.2
860.4619	1113.9351	65535	64629.9
860.6068	1115.8923	65535	64629.9
860.7517	1117.8488	65535	64626.65
860.8967	1119.8045	65535	64630
861.0416	1121.7596	65535	64628.15
861.1865	1123.7139	65535	64628.8
861.3314	1125.6675	65535	64628.35
861.4763	1127.6204	65535	64626.7
861.6212	1129.5726	65535	64625.25
861.7661	1131.524	65535	64627.25
861.911	1133.4748	65535	64625.5
862.0559	1135.4248	65535	64630.45
862.2008	1137.3741	65535	64629.05
862.3457	1139.3226	65535	64626.75
862.4905	1141.2705	65535	64626.95
862.6354	1143.2176	65535	64623.7
862.7803	1145.164	65535	64628.3
862.9251	1147.1097	65535	64627.75
863.07	1149.0546	65535	64628.65
863.2148	1150.9989	65535	64626.75
863.3597	1152.9424	65535	64627.7
863.5045	1154.8852	65535	64628.1
863.6493	1156.8272	65535	64630.2
863.7942	1158.7686	65535	64618.9
863.939	1160.7092	65535	64628.5
864.0838	1162.6491	65535	64624.2
864.2286	1164.5883	65535	64627.4
864.3734	1166.5267	65535	64623.05
864.5182	1168.4644	65535	64628.3
864.663	1170.4014	65535	64625.5
864.8078	1172.3377	65535	64631.35
864.9526	1174.2732	65535	64631.7
865.0974	1176.2081	65535	64630.15
865.2421	1178.1421	65535	64625.15
865.3869	1180.0755	65535	64628.75
865.5317	1182.0082	65535	64629.2
865.6764	1183.9401	65535	64628.2
865.8212	1185.8713	65535	64632.8
865.9659	1187.8017	65535	64631.6
866.1106	1189.7315	65535	64632.35
866.2554	1191.6605	65535	64605
866.4001	1193.5888	65535	64632.15
866.5448	1195.5163	65535	64629.5
866.6895	1197.4432	65535	64626.8
866.8342	1199.3693	65535	64631.9
866.9789	1201.2947	65535	64625.15
867.1236	1203.2193	65535	64629.8
867.2683	1205.1432	65535	64630.15
867.413	1207.0664	65535	64629.6
867.5576	1208.9889	65535	64626.7
867.7023	1210.9106	65535	64632.1
867.847	1212.8316	65535	64632.2
867.9916	1214.7519	65535	64620.75
868.1363	1216.6715	65535	64631.25
868.2809	1218.5903	65535	64631.2
868.4255	1220.5084	65535	64628.8
868.5701	1222.4257	65535	64628
868.7148	1224.3424	65535	64629.85
868.8594	1226.2583	65535	64625.8
869.004	1228.1735	65535	64629.2
869.1486	1230.0879	65535	64629.2
869.2932	1232.0016	65535	64630.8
869.4377	1233.9146	65535	64627.45
869.5823	1235.8269	65535	64633.7
869.7269	1237.7384	65535	64629.4
869.8715	1239.6492	65535	64628.2
870.016	1241.5592	65535	64626.7
870.1606	1243.4686	65535	64629.05
870.3051	1245.3772	65535	64630.4
870.4496	1247.285	65535	64629.4
870.5941	1249.1922	65535	64628.05
870.7387	1251.0986	65535	64630.25
870.8832	1253.0042	65535	64628.95
871.0277	1254.9092	65535	64630.55
871.1722	1256.8134	65535	64631.65
871.3167	1258.7169	65535	64630
871.4611	1260.6196	65535	64629.9
871.6056	1262.5216	65535	64629.35
871.7501	1264.4229	65535	64634
871.8945	1266.3234	65535	64632.95
872.039	1268.2232	65535	64628.3
872.1834	1270.1223	65535	64627
872.3278	1272.0207	65535	64630
872.4723	1273.9183	65535	64624.8
872.6167	1275.8151	65535	64630
872.7611	1277.7113	65535	64628.3
872.9055	1279.6067	65535	64630.05
873.0499	1281.5014	65535	64627.7
873.1943	1283.3953	65535	64627.7
873.3386	1285.2885	65535	64633.1
873.483	1287.181	65535	64630.6
873.6274	1289.0727	65535	64631.55
873.7717	1290.9637	65535	64630.3
873.9161	1292.854	65535	64632.9
874.0604	1294.7435	65535	64631.4
874.2047	1296.6323	65535	64629.6
874.349	1298.5204	65535	64627.1
874.4933	1300.4077	65535	64627.9
874.6376	1302.2943	65535	64631.65
874.7819	1304.1802	65535	64629.5
874.9262	1306.0653	65535	64631.15
875.0705	1307.9497	65535	64631.8
875.2147	1309.8333	65535	64631.8
875.359	1311.7162	65535	64629.35
875.5032	1313.5984	65535	64626.25
875.6475	1315.4798	65535	64619.6
875.7917	1317.3605	65535	64613.4
875.9359	1319.2405	65535	64630.4
876.0801	1321.1197	65535	64627.25
876.2243	1322.9982	65535	64624.65
876.3685	1324.876	65535	64629.65
876.5127	1326.753	65535	64631.3
876.6569	1328.6293	65535	64628
876.801	1330.5048	65535	64627.85
876.9452	1332.3796	65535	64631.25
877.0893	1334.2537	65535	64603.55
877.2335	1336.127	65535	64630.2
877.3776	1337.9996	65535	64630.8
877.5217	1339.8714	65535	64630.1
877.6658	1341.7426	65535	64587.85
877.8099	1343.6129	65535	64629.85
877.954	1345.4826	65535	64629.95
878.0981	1347.3515	65535	64625.1
878.2422	1349.2196	65535	64628.85
878.3862	1351.087	65535	64630.6
878.5303	1352.9537	65535	64631.85
878.6743	1354.8197	65535	64629.15
878.8184	1356.6849	65535	64631.2
878.9624	1358.5493	65535	64631.1
879.1064	1360.4131	65535	64631.45
879.2504	1362.276	65535	64631.4
879.3944	1364.1383	65535	64629.65
879.5384	1365.9998	65535	64625.65
879.6823	1367.8606	65535	64631.6
879.8263	1369.7206	65535	64631
879.9702	1371.5799	65535	64627
880.1142	1373.4384	65535	64629.7
880.2581	1375.2962	65535	64628.2
880.402	1377.1533	65535	64631.75
880.5459	1379.0096	65535	64630.65
880.6898	1380.8652	65535	64630.95
880.8337	1382.7201	65535	64629.7
880.9776	1384.5742	65535	64630.45
881.1215	1386.4275	65535	64629.2
881.2653	1388.2802	65535	64632.65
881.4092	1390.132	65535	64630.2
881.553	1391.9832	65535	64627.95
881.6968	1393.8336	65535	64630.45
881.8406	1395.6832	65535	64628.25
881.9844	1397.5322	65535	64629.9
882.1282	1399.3803	65535	64626.45
882.272	1401.2278	65535	64632.1
882.4158	1403.0745	65535	64633.05
882.5595	1404.9204	65535	64633.65
882.7033	1406.7656	65535	64629.85
882.847	1408.6101	65535	64632.5
882.9908	1410.4538	65535	64630.75
883.1345	1412.2968	65535	64632.35
883.2782	1414.139	65535	64632.25
883.4219	1415.9805	65535	64629
883.5656	1417.8213	65535	64624.95
883.7092	1419.6613	65535	64630.65
883.8529	1421.5006	65535	64631.4
883.9965	1423.3391	65535	64632.75
884.1402	1425.1769	65535	64631.45
884.2838	1427.0139	65535	64630.95
884.4274	1428.8502	65535	64627.8
884.571	1430.6858	65535	64631.55
884.7146	1432.5206	65535	64630.6
884.8582	1434.3547	65535	64632.05
885.0018	1436.188	65535	64630.95
885.1453	1438.0206	65535	64630.3
885.2889	1439.8524	65535	64631.6
885.4324	1441.6835	65535	64630.3
885.5759	1443.5139	65535	64627.65
885.7194	1445.3435	65535	64629.3
885.8629	1447.1724	65535	64632.45
886.0064	1449.0005	65535	64632.85
886.1499	1450.8279	65535	64629.4
886.2933	1452.6545	65535	64631.2
886.4368	1454.4804	65535	64631.9
886.5802	1456.3056	65535	64623.8
886.7237	1458.13	65535	64632.1
886.8671	1459.9536	65535	64631.8
887.0105	1461.7766	65535	64631.3
887.1539	1463.5987	65535	64632.15
887.2972	1465.4202	65535	64632.2
887.4406	1467.2409	65535	64631.55
887.584	1469.0608	65535	64630.15
887.7273	1470.88	65535	64631.7
887.8706	1472.6984	65535	64632.7
888.0139	1474.5161	65535	64628.1
888.1572	1476.3331	65535	64631.05
888.3005	1478.1493	65535	64631.7
888.4438	1479.9648	65535	64632.05
888.5871	1481.7795	65535	64630.55
888.7303	1483.5935	65535	64632.8
888.8736	1485.4067	65535	64633.8
889.0168	1487.2192	65535	64631.9
889.16	1489.031	65535	64628.9
889.3032	1490.842	65535	64632.35
889.4464	1492.6522	65535	64630.6
889.5896	1494.4618	65535	64630.3
889.7327	1496.2705	65535	64633.8
889.8759	1498.0785	65535	64632.15
890.019	1499.8858	65535	64632
890.1622	1501.6924	65535	64634.95
890.3053	1503.4981	65535	64630.9
890.4484	1505.3032	65535	64632.1
890.5914	1507.1075	65535	64631.5
890.7345	1508.911	65535	64633.75
890.8776	1510.7138	65535	64632.55
891.0206	1512.5159	65535	64630.6
891.1637	1514.3172	65535	64632.25
891.3067	1516.1178	65535	64632.25
891.4497	1517.9176	65535	64629.75
891.5927	1519.7166	65535	64634.6
891.7357	1521.515	65535	64625.5
891.8786	1523.3126	65535	64631.15
892.0216	1525.1094	65535	64630.25
892.1645	1526.9055	65535	64636.05
892.3074	1528.7008	65535	64634.6
892.4503	1530.4954	65535	64626.85
892.5932	1532.2893	65535	64635.05
892.7361	1534.0824	65535	64629.55
892.879	1535.8747	65535	64632
893.0218	1537.6663	65535	64632.45
893.1647	1539.4572	65535	64631.15
893.3075	1541.2473	65535	64632.8
893.4503	1543.0367	65535	64634.8
893.5931	1544.8253	65535	64630.95
893.7359	1546.6132	65535	64629.9
893.8787	1548.4003	65535	64623
894.0214	1550.1867	65535	64625.8
894.1642	1551.9723	65535	64629.4
894.3069	1553.7572	65535	64633.5
894.4496	1555.5414	65535	64636.1
894.5923	1557.3247	65535	64632.25
894.735	1559.1074	65535	64636.85
894.8777	1560.8893	65535	64634.8
895.0204	1562.6705	65535	64637.65
895.163	1564.4509	65535	64635.35
895.3056	1566.2305	65535	64635.75
895.4482	1568.0094	65535	64636.85
895.5908	1569.7876	65535	64636.9
895.7334	1571.565	65535	64633.3
895.876	1573.3417	65535	64637.05
896.0186	1575.1176	65535	64635.55
896.1611	1576.8928	65535	64632.65
896.3036	1578.6672	65535	64640.5
896.4461	1580.4409	65535	64638.85
896.5886	1582.2138	65535	64634.25
896.7311	1583.986	65535	64635.6
896.8736	1585.7575	65535	64637.4
897.0161	1587.5282	65535	64638.75
897.1585	1589.2981	65535	64639.3
897.3009	1591.0673	65535	64636.55
897.4433	1592.8358	65535	64637.65
897.5857	1594.6035	65535	64633.05
897.7281	1596.3704	65535	64637.2
897.8705	1598.1366	65535	64635.45
898.0128	1599.9021	65535	64638.85
898.1551	1601.6668	65535	64633.5
898.2975	1603.4308	65535	64634.65
898.4398	1605.194	65535	64632.3
898.5821	1606.9564	65535	64637.55
898.7243	1608.7182	65535	64636.1
898.8666	1610.4791	65535	64639
899.0088	1612.2394	65535	64640.05
899.1511	1613.9988	65535	64638.4
899.2933	1615.7576	65535	64637.95
899.4355	1617.5156	65535	64631.75
899.5776	1619.2728	65535	64636.85
899.7198	1621.0293	65535	64637.05
899.862	1622.785	65535	64636.3
900.0041	1624.54	65535	64635.05
900.1462	1626.2942	65535	64636.55
900.2883	1628.0477	65535	64635
900.4304	1629.8005	65535	64634.7
900.5725	1631.5525	65535	64639.45
900.7145	1633.3037	65535	64638.7
900.8566	1635.0542	65535	64640
900.9986	1636.804	65535	64639.5
901.1406	1638.553	65535	64546.6
901.2826	1640.3013	65535	64638.45
901.4245	1642.0488	65535	64636.85
901.5665	1643.7955	65535	64639
901.7085	1645.5416	65535	64640.95
901.8504	1647.2868	65527.55	64633.1
901.9923	1649.0313	65535	64639.55
902.1342	1650.7751	65531.45	64631.35
902.2761	1652.5181	65526.8	64630.05
902.4179	1654.2604	65530.75	64634.85
902.5598	1656.0019	65531.55	64637.8
902.7016	1657.7427	65531.95	64635.3
902.8434	1659.4828	65535	64638.75
902.9852	1661.222	65524.1	64626
903.127	1662.9606	65535	64638.15
903.2687	1664.6984	65521.55	64625.35
903.4105	1666.4354	65531.25	64633.85
903.5522	1668.1717	65515.7	64619.4
903.6939	1669.9072	65453.85	64557.3
903.8356	1671.642	65461.85	64562.7
903.9773	1673.3761	65450	64552.65
904.119	1675.1094	65422	64526.3
904.2606	1676.8419	65359	64464.8
904.4022	1678.5737	65400	64503.85
904.5439	1680.3048	65374.65	64479.5
904.6855	1682.0351	65353.05	64457.6
904.827	1683.7646	65322.2	64423.5
904.9686	1685.4934	65360.9	64465.2
905.1101	1687.2215	65127.1	64231.2
905.2517	1688.9488	65323.65	64429.05
905.3932	1690.6754	64933.55	64040.2
905.5347	1692.4012	65147.5	64252.65
905.6761	1694.1263	65203.35	64310.05
905.8176	1695.8506	64995.3	64100.05
905.9591	1697.5742	65026.3	64133.35
906.1005	1699.297	64991.45	64094.1
906.2419	1701.0191	65029.6	64135.6
906.3833	1702.7404	64787.85	63893.55
906.5246	1704.461	64721.6	63823.65
906.666	1706.1808	64901.85	64006.65
906.8073	1707.8999	64789.45	63893.4
906.9487	1709.6182	64736.1	63841.15
907.09	1711.3358	64721.2	63828.85
907.2313	1713.0527	64678.65	63785.2
907.3725	1714.7688	64698.65	63797.6
907.5138	1716.4841	64378.25	63481.7
907.655	1718.1987	64504.05	63604.2
907.7962	1719.9126	64392.8	63499.85
907.9374	1721.6257	64500.55	63605.25
908.0786	1723.338	64498.1	63604.1
908.2198	1725.0496	63975.55	63078.35
908.3609	1726.7605	64052.05	63155.6
908.502	1728.4706	63846.25	62952
908.6431	1730.18	64113.75	63216.8
908.7842	1731.8886	63814.3	62921.55
908.9253	1733.5964	63671.4	62771.6
909.0664	1735.3036	64064.45	63164.55
909.2074	1737.0099	63734.5	62839.05
909.3484	1738.7156	63430.55	62536.25
909.4894	1740.4204	63327.9	62432.4
909.6304	1742.1246	63458.45	62562.7
909.7714	1743.8279	63518.7	62625.25
909.9123	1745.5306	63426.15	62531.35
910.0532	1747.2325	62324.9	61430.65
910.1941	1748.9336	62414.05	61520.9
910.335	1750.634	62779.7	61882.95
910.4759	1752.3336	63079	62185.65
910.6168	1754.0325	62225	61332.2
910.7576	1755.7307	63052.5	62159.15
910.8984	1757.4281	61971.15	61077.4
911.0392	1759.1247	62744.4	61841.95
911.18	1760.8206	61561.95	60663.75
911.3208	1762.5158	61723	60824.6
911.4615	1764.2102	62010.15	61115.9
911.6022	1765.9039	61781.6	60889.25
911.7429	1767.5968	61475.65	60581.4
911.8836	1769.289	61287.75	60393.85
912.0243	1770.9804	61550.35	60655.05
912.1649	1772.6711	61257.55	60364.75
912.3056	1774.361	60996.95	60102.5
912.4462	1776.0502	61031.95	60138.4
912.5868	1777.7386	60102.1	59204.7
912.7274	1779.4263	60696.05	59802.75
912.8679	1781.1132	60627.7	59734.2
913.0084	1782.7994	60346.5	59454.2
913.149	1784.4849	60402.9	59510.25
913.2895	1786.1696	59290.65	58389.8
913.4299	1787.8535	59972.2	59079.8
913.5704	1789.5367	60128.15	59236.1
913.7108	1791.2192	59372.45	58479.4
913.8513	1792.9009	59029.05	58104.15
913.9917	1794.5818	59517.35	58622.25
914.132	1796.2621	58845.4	57954.55
914.2724	1797.9415	58889.6	57996.4
914.4128	1799.6202	58751.2	57858.65
914.5531	1801.2982	58862	57967.4
914.6934	1802.9755	58218.2	57323.85
914.8337	1804.6519	57997.15	57103.85
914.9739	1806.3277	58890.85	57997.85
915.1142	1808.0027	57442.45	56548.85
915.2544	1809.6769	57850.55	56958
915.3946	1811.3504	58028.8	57136.6
915.5348	1813.0231	56979.05	56084.7
915.675	1814.6951	57585.7	56693
915.8151	1816.3664	57142.05	56247.05
915.9553	1818.0369	57190.2	56297.05
916.0954	1819.7067	56943.6	56050.3
916.2355	1821.3757	57473.8	56578.65
916.3755	1823.044	56552.3	55660
916.5156	1824.7115	56274.7	55382.4
916.6556	1826.3783	56426.45	55532.65
916.7956	1828.0443	56362.1	55469.15
916.9356	1829.7096	56057.5	55161.65
917.0756	1831.3741	55627.55	54729.75
917.2155	1833.0379	55807.55	54914.85
917.3555	1834.701	55739.7	54845.15
917.4954	1836.3633	55315.5	54423.4
917.6353	1838.0248	55552.55	54659.9
917.7751	1839.6856	55324.1	54432.35
917.915	1841.3457	54895.85	54003.05
918.0548	1843.005	55348.75	54457.35
918.1946	1844.6636	54999.55	54108.55
918.3344	1846.3214	54470.6	53577.65
918.4742	1847.9785	54618.4	53727.65
918.6139	1849.6349	54489.45	53594.25
918.7537	1851.2904	54713.65	53811.5
918.8934	1852.9453	54140.75	53245.1
919.0331	1854.5994	54195.6	53298.75
919.1727	1856.2528	54298.65	53400.75
919.3124	1857.9054	53847.1	52954.75
919.452	1859.5572	53702.9	52811.2
919.5916	1861.2083	53764.85	52871
919.7312	1862.8587	54106.1	53213.5
919.8708	1864.5084	53109.6	52216.55
920.0103	1866.1572	53417.05	52523.75
920.1498	1867.8054	52984.75	52091.1
920.2893	1869.4528	53249.05	52356.15
920.4288	1871.0994	52669.85	51776.5
920.5683	1872.7453	52665.2	51768.05
920.7077	1874.3905	52709.95	51809.55
920.8471	1876.0349	52345.15	51452.7
920.9865	1877.6786	52504.3	51608.75
921.1259	1879.3215	52253.3	51360.85
921.2653	1880.9637	52414.1	51520.75
921.4046	1882.6051	52106.1	51212.6
921.5439	1884.2458	51841.5	50947.65
921.6832	1885.8858	51602.4	50709.3
921.8225	1887.525	51662.45	50769.65
921.9617	1889.1634	51428.25	50536.55
922.101	1890.8011	51270.4	50376.9
922.2402	1892.4381	50852.4	49957.8
922.3794	1894.0743	51172	50278.9
922.5185	1895.7098	50913.2	50020.9
922.6577	1897.3446	50615.6	49722.1
922.7968	1898.9786	50636.1	49739.6
922.9359	1900.6118	50464.8	49572.7
923.075	1902.2443	50153.45	49257.95
923.214	1903.8761	50268.3	49375.5
923.3531	1905.5071	49932.1	49039.2
923.4921	1907.1374	49533	48638.35
923.6311	1908.7669	49576.05	48684.6
923.77	1910.3957	49691.5	48798.6
923.909	1912.0237	49198.15	48305.1
924.0479	1913.651	48993.85	48100.2
924.1868	1915.2776	48928.15	48036.9
924.3257	1916.9034	48796.25	47907.25
924.4646	1918.5285	48593.15	47704.7
924.6034	1920.1528	48336.35	47442.5
924.7422	1921.7764	48299.05	47406.75
924.881	1923.3992	48148.6	47257.1
925.0198	1925.0213	47786.55	46895.7
925.1586	1926.6427	47536.3	46642.75
925.2973	1928.2633	47621.75	46621.65
925.436	1929.8832	47337.8	46440.8
925.5747	1931.5023	47160.35	46267.45
925.7134	1933.1207	46973.65	46081.95
925.852	1934.7383	47048.85	46156.95
925.9906	1936.3552	46777.5	45885.7
926.1292	1937.9714	46649.25	45758.55
926.2678	1939.5868	46489.55	45594.55
926.4064	1941.2015	46163	45269.65
926.5449	1942.8154	45961.05	45068.25
926.6834	1944.4286	45806.85	44913.6
926.8219	1946.041	45657.75	44745.4
926.9604	1947.6528	45408.35	44512.05
927.0988	1949.2637	45361.45	44468.55
927.2372	1950.8739	45167.7	44277.15
927.3756	1952.4834	45086.5	44194.5
927.514	1954.0921	44996.1	44104.15
927.6523	1955.7001	44808.7	43910.4
927.7907	1957.3074	44684.7	43791.45
927.929	1958.9139	44467.5	43577.95
928.0673	1960.5197	44410.55	43516.25
928.2055	1962.1247	44110.5	43218.6
928.3438	1963.729	43898.5	43008.8
928.482	1965.3325	43746.35	42831.75
928.6202	1966.9353	43652.2	42763.1
928.7584	1968.5374	43489.25	42596.4
928.8965	1970.1387	43350.75	42458.4
929.0346	1971.7393	43174.45	42281.3
929.1727	1973.3392	43035.35	42143.4
929.3108	1974.9383	42877.75	41987.4
929.4489	1976.5366	42619	41728.1
929.5869	1978.1342	42591.45	41700.1
929.7249	1979.7311	42516.05	41623.55
929.8629	1981.3273	42358.9	41466.5
930.0009	1982.9227	42206.55	41313.1
930.1388	1984.5173	42085.45	41193.05
930.2767	1986.1112	41853.85	40964.25
930.4146	1987.7044	41878.45	40989
930.5525	1989.2968	41647.4	40755.2
930.6904	1990.8885	41539.8	40646.65
930.8282	1992.4795	41468.6	40575.4
930.966	1994.0697	41198.9	40308.1
931.1038	1995.6592	41101.3	40209.5
931.2415	1997.2479	40934.65	40042.55
931.3793	1998.8359	40867.35	39976.6
931.517	2000.4232	40653	39763.6
931.6547	2002.0097	40553.65	39666.7
931.7923	2003.5955	40323.45	39434.85
931.93	2005.1805	40299.8	39407.05
932.0676	2006.7648	40174.1	39283.45
932.2052	2008.3484	40024.25	39132.05
932.3427	2009.9312	40064.2	39172.5
932.4803	2011.5133	39806.4	38917
932.6178	2013.0946	39727.6	38840.1
932.7553	2014.6752	39602.8	38712.7
932.8928	2016.2551	39466.65	38577.05
933.0302	2017.8342	39325.3	38434.8
933.1676	2019.4126	39196.05	38306.7
933.305	2020.9902	39059.85	38170.05
933.4424	2022.5672	38932.8	38041.6
933.5798	2024.1433	38903.25	38007.7
933.7171	2025.7188	38725.1	37834.25
933.8544	2027.2935	38688.45	37797.5
933.9917	2028.8674	38478.05	37586.8
934.129	2030.4406	38340.3	37452.5
934.2662	2032.0131	38171.7	37282.7
934.4034	2033.5849	38036.75	37139.1
934.5406	2035.1559	37947	37057.55
934.6778	2036.7261	37880.5	36988.35
934.8149	2038.2957	37721.7	36832.55
934.952	2039.8645	37669.45	36780.4
935.0891	2041.4325	37713.6	36822.6
935.2262	2042.9998	37498.95	36609.05
935.3632	2044.5664	37420.5	36527.7
935.5002	2046.1323	37248.1	36358.95
935.6372	2047.6974	37149.6	36260.1
935.7742	2049.2617	37046.05	36157
935.9111	2050.8254	36989.3	36093.8
936.048	2052.3883	36921.6	36030.35
936.1849	2053.9504	36754.75	35863.3
936.3218	2055.5118	36631.4	35738.35
936.4586	2057.0725	36459.3	35564.85
936.5955	2058.6325	36400.2	35509.8
936.7323	2060.1917	36228.3	35338.3
936.869	2061.7502	36150.3	35257.4
937.0058	2063.3079	36000.1	35110.4
937.1425	2064.8649	35876.6	34982.7
937.2792	2066.4212	35856.5	34965.6
937.4159	2067.9767	35746	34854.8
937.5525	2069.5315	35551.15	34660.35
937.6891	2071.0856	35438.75	34547.95
937.8257	2072.6389	35268.3	34377.65
937.9623	2074.1915	35127.7	34239.45
938.0989	2075.7433	34904.2	34012.95
938.2354	2077.2945	34831.85	33943.05
938.3719	2078.8448	34694.1	33804.75
938.5084	2080.3945	34589.4	33699.6
938.6448	2081.9434	34573.6	33684.7
938.7812	2083.4916	34432.2	33541.2
938.9176	2085.039	34304.15	33411.2
939.054	2086.5857	34222.35	33329.85
939.1903	2088.1317	34163.65	33271
939.3267	2089.677	34068	33175.7
939.463	2091.2215	33922.3	33030.1
939.5992	2092.7652	33842.25	32950
939.7355	2094.3083	33758	32866.2
939.8717	2095.8506	33692.45	32802.55
940.0079	2097.3921	33685.7	32797.35
940.1441	2098.933	33491.2	32599.3
940.2802	2100.4731	33415.45	32524.95
940.4163	2102.0124	33364.9	32467.15
940.5524	2103.5511	33304.5	32413.35
940.6885	2105.089	33221.85	32329.8
940.8245	2106.6261	33102.45	32213
940.9606	2108.1626	33006.55	32116.65
941.0965	2109.6983	32956.3	32038.25
941.2325	2111.2332	32792.35	31900.65
941.3684	2112.7675	32728.15	31835.3
941.5044	2114.301	32600.2	31707.65
941.6403	2115.8337	32602.8	31710.85
941.7761	2117.3657	32486.85	31597.85
941.912	2118.897	32416.85	31524.6
942.0478	2120.4276	32267.2	31370.05
942.1835	2121.9575	32107.05	31215.65
942.3193	2123.4866	32154.45	31247.35
942.455	2125.0149	31969.1	31076.05
942.5907	2126.5426	31743.15	30853.4
942.7264	2128.0695	31697.05	30802.55
942.8621	2129.5956	31638.2	30750.1
942.9977	2131.1211	31658.1	30763.55
943.1333	2132.6458	31567.65	30679.8
943.2689	2134.1698	31441.8	30549.7
943.4044	2135.693	31290.05	30395.6
943.54	2137.2155	31259.85	30367.2
943.6755	2138.7373	31178.75	30287.55
943.8109	2140.2584	31057.65	30167.65
943.9464	2141.7787	30944.8	30048.4
944.0818	2143.2983	30822.7	29934
944.2172	2144.8171	30684.45	29796.45
944.3526	2146.3353	30580.1	29687.45
944.4879	2147.8527	30524.35	29634.2
944.6232	2149.3693	30434.7	29542.7
944.7585	2150.8853	30289.8	29398.5
944.8938	2152.4005	30191.5	29301.25
945.029	2153.9149	30127.15	29236.5
945.1642	2155.4287	30033.8	29143.2
945.2994	2156.9417	29945.35	29053.5
945.4346	2158.454	29885.5	28992.7
945.5697	2159.9655	29788.95	28900.9
945.7048	2161.4764	29751.15	28861.15
945.8399	2162.9865	29608.85	28718.35
945.9749	2164.4958	29574.95	28683.95
946.1099	2166.0045	29434.8	28539.2
946.2449	2167.5124	29369.1	28479.6
946.3799	2169.0195	29274.35	28384.6
946.5148	2170.526	29264.45	28373.25
946.6498	2172.0317	29154.15	28263.7
946.7846	2173.5367	29069.8	28178
946.9195	2175.0409	28947.95	28058.45
947.0543	2176.5445	28927.6	28037.45
947.1891	2178.0473	28815.5	27924.2
947.3239	2179.5494	28663.6	27768.9
947.4587	2181.0507	28557.4	27665.55
947.5934	2182.5513	28516	27625.9
947.7281	2184.0512	28414.1	27524.3
947.8628	2185.5504	28320.1	27430.3
947.9974	2187.0488	28145.5	27254.4
948.132	2188.5465	28106.65	27216.75
948.2666	2190.0435	27940.2	27049.45
948.4012	2191.5397	27857.8	26965.65
948.5357	2193.0353	27814.35	26923.65
948.6702	2194.5301	27681.65	26788.4
948.8047	2196.0241	27553.1	26659.95
948.9392	2197.5175	27471.3	26580.6
949.0736	2199.0101	27376.85	26483.8
949.208	2200.502	27257.25	26366.6
949.3424	2201.9931	27120.4	26230.5
949.4767	2203.4835	26973.25	26081.75
949.611	2204.9733	26931.75	26033.35
949.7453	2206.4622	26921.75	26032.5
949.8796	2207.9505	26795.95	25905.75
950.0138	2209.438	26644.35	25756.15
950.148	2210.9248	26570.65	25679.75
950.2822	2212.4109	26437.15	25546
950.4164	2213.8962	26367.8	25474.2
950.5505	2215.3809	26339	25447.25
950.6846	2216.8648	26278.3	25388.7
950.8186	2218.3479	26130.8	25235.95
950.9527	2219.8304	26058.4	25163.95
951.0867	2221.3121	25948.4	25053.6
951.2207	2222.7931	25852	24962.05
951.3546	2224.2733	25795.75	24905.8
951.4886	2225.7529	25677.2	24786.35
951.6225	2227.2317	25583.5	24688.75
951.7563	2228.7098	25593.15	24700.25
951.8902	2230.1872	25412.05	24520
952.024	2231.6638	25399.75	24510.25
952.1578	2233.1397	25249.75	24352.6
952.2916	2234.6149	25173.05	24284.35
952.4253	2236.0894	25115.75	24224.95
952.559	2237.5632	25026.45	24135.1
952.6927	2239.0362	24953.05	24062.95
952.8263	2240.5085	24850.95	23961.15
952.9599	2241.9801	24732.65	23842.25
953.0935	2243.4509	24682.6	23791.65
953.2271	2244.921	24621.15	23730.15
953.3606	2246.3904	24503	23609
953.4941	2247.8591	24424.2	23530.45
953.6276	2249.3271	24379.6	23488.35
953.7611	2250.7943	24277.5	23385.55
953.8945	2252.2608	24150.35	23260.5
954.0279	2253.7266	24056.05	23166.5
954.1612	2255.1917	24017.4	23127.8
954.2946	2256.656	23963.3	23071.3
954.4279	2258.1197	23861.2	22970.3
954.5612	2259.5826	23783.15	22888.6
954.6944	2261.0447	23758.05	22867
954.8276	2262.5062	23649.75	22757.2
954.9608	2263.9669	23582.45	22689.65
955.094	2265.4269	23533.25	22642.55
955.2271	2266.8862	23429.1	22537.35
955.3602	2268.3448	23390.4	22501.55
955.4933	2269.8026	23337.75	22447.05
955.6264	2271.2598	23242.9	22352.65
955.7594	2272.7162	23170.85	22281.45
955.8924	2274.1719	23116.9	22224.6
956.0253	2275.6268	23034	22143.1
956.1583	2277.0811	22955.35	22063.75
956.2912	2278.5346	22894.4	22006.1
956.4241	2279.9874	22831.3	21942.5
956.5569	2281.4395	22860.35	21971.15
956.6897	2282.8908	22683.45	21787.5
956.8225	2284.3414	22619.9	21725
956.9553	2285.7914	22567.55	21676.7
957.088	2287.2406	22505.55	21613.15
957.2207	2288.689	22430.2	21537.9
957.3534	2290.1368	22332.95	21442.1
957.486	2291.5838	22269.45	21376.4
957.6186	2293.0302	22197.9	21305.2
957.7512	2294.4758	22074.55	21184.7
957.8838	2295.9206	21997.6	21104.1
958.0163	2297.3648	21929.2	21038.55
958.1488	2298.8082	21914.4	21023.1
958.2813	2300.251	21849.8	20959.55
958.4137	2301.693	21794.95	20902.6
958.5461	2303.1343	21807.25	20914.85
958.6785	2304.5748	21640.75	20749.75
958.8108	2306.0147	21542.4	20651.35
958.9432	2307.4538	21509.55	20616
959.0754	2308.8922	21432.15	20543.95
959.2077	2310.3299	21374.1	20483.5
959.3399	2311.7669	21275.45	20384
959.4721	2313.2031	21232.2	20341.05
959.6043	2314.6387	21166.15	20273.25
959.7365	2316.0735	21071.75	20181.35
959.8686	2317.5076	21025.15	20132.95
960.0006	2318.941	20953.15	20063.3
960.1327	2320.3737	20901.7	20010.65
960.2647	2321.8056	20818.2	19926.3
960.3967	2323.2369	20723.85	19832.8
960.5287	2324.6674	20692.25	19799.55
960.6606	2326.0972	20648.85	19756.35
960.7925	2327.5263	20538.4	19647.4
960.9244	2328.9547	20457.95	19564.95
961.0562	2330.3823	20375.65	19485.75
961.1881	2331.8092	20421.6	19525.7
961.3198	2333.2355	20276.85	19384.8
961.4516	2334.661	20292	19400.3
961.5833	2336.0858	20218.05	19325.25
961.715	2337.5098	20156.6	19266.6
961.8467	2338.9332	20095.4	19204.6
961.9783	2340.3558	19987.55	19093.15
962.1099	2341.7778	19965.2	19075.1
962.2415	2343.199	19862.5	18970.35
962.373	2344.6195	19854.7	18963.35
962.5045	2346.0393	19770.45	18879.15
962.636	2347.4583	19754.9	18863.75
962.7675	2348.8767	19610.55	18719.5
962.8989	2350.2943	19582.95	18690.05
963.0303	2351.7113	19518.35	18625
963.1617	2353.1275	19458.4	18568.1
963.293	2354.543	19429.2	18529.75
963.4243	2355.9578	19315.95	18425.5
963.5556	2357.3718	19216.1	18327.45
963.6868	2358.7852	19121.05	18226.75
963.818	2360.1978	19071.7	18180.3
963.9492	2361.6098	19044.9	18154.6
964.0803	2363.021	18962.65	18067.85
964.2114	2364.4315	18918.9	18027.35
964.3425	2365.8413	18850.9	17957.6
964.4736	2367.2504	18765.55	17875.5
964.6046	2368.6587	18667.35	17775.1
964.7356	2370.0664	18573.15	17682.75
964.8666	2371.4733	18560	17666.85
964.9975	2372.8795	18467.3	17576.75
965.1284	2374.285	18423.75	17533.25
965.2593	2375.6899	18310.5	17421.1
965.3901	2377.0939	18236.95	17348.75
965.5209	2378.4973	18172.4	17282.15
965.6517	2379.9	18099.75	17207.15
965.7825	2381.3019	18036.6	17146.1
965.9132	2382.7032	17975.25	17084.3
966.0439	2384.1037	17961.9	17073.85
966.1745	2385.5035	17860.45	16972.9
966.3051	2386.9027	17802.7	16913.7
966.4357	2388.3011	17760.85	16866.9
966.5663	2389.6987	17705.1	16813.35
966.6968	2391.0957	17613.2	16722.55
966.8273	2392.492	17559.1	16668.3
966.9578	2393.8876	17454.85	16564.7
967.0882	2395.2824	17384.2	16494.15
967.2186	2396.6765	17324.5	16434.85
967.349	2398.07	17243.35	16354.6
967.4793	2399.4627	17194.9	16302.9
967.6097	2400.8547	17160.2	16270.95
967.7399	2402.246	17083.25	16188.1
967.8702	2403.6366	17003.7	16112.5
968.0004	2405.0265	16913.4	16022.7
968.1306	2406.4156	16839.35	15944.35
968.2607	2407.8041	16785.95	15892.1
968.3909	2409.1918	16698.1	15804.6
968.521	2410.5789	16639.55	15749.7
968.651	2411.9652	16577.9	15687.65
968.781	2413.3508	16498.05	15608.4
968.911	2414.7358	16477	15585.95
969.041	2416.12	16404.15	15515.55
969.1709	2417.5035	16368.15	15478.55
969.3008	2418.8863	16261.05	15370.65
969.4307	2420.2684	16243.9	15353.6
969.5606	2421.6497	16153.95	15262.9
969.6904	2423.0304	16071.35	15182.25
969.8201	2424.4104	16042.4	15151.45
969.9499	2425.7896	15971.85	15080
970.0796	2427.1682	15940.4	15051.65
970.2093	2428.546	15905.9	15014
970.3389	2429.9232	15846.15	14955.95
970.4685	2431.2996	15817.75	14927.85
970.5981	2432.6753	15740.4	14850.65
970.7277	2434.0503	15703.95	14813.3
970.8572	2435.4246	15616.3	14725.75
970.9867	2436.7982	15563.9	14672.4
971.1161	2438.1711	15516.6	14627.95
971.2456	2439.5433	15489.1	14598.1
971.375	2440.9148	15419.8	14524.35
971.5043	2442.2856	15346.75	14456.2
971.6336	2443.6557	15300.6	14409.65
971.7629	2445.025	15265.6	14375.9
971.8922	2446.3937	15244.25	14353.8
972.0214	2447.7617	15178	14289.3
972.1506	2449.1289	15123.8	14232.7
972.2798	2450.4955	15076.45	14182.8
972.4089	2451.8613	15042.65	14154.2
972.538	2453.2265	14999	14108.9
972.6671	2454.5909	14958.55	14068.85
972.7961	2455.9546	14916.35	14027.25
972.9251	2457.3177	14847.85	13957.7
973.0541	2458.68	14810.85	13918.15
973.1831	2460.0416	14775.05	13885
973.312	2461.4025	14745.1	13855.05
973.4408	2462.7627	14701.25	13799.8
973.5697	2464.1222	14646.35	13757.45
973.6985	2465.4811	14586.8	13697.05
973.8273	2466.8392	14527.2	13637
973.956	2468.1966	14495.45	13603.35
974.0847	2469.5533	14501.55	13604.9
974.2134	2470.9093	14422.85	13534.05
974.3421	2472.2645	14379.85	13489.8
974.4707	2473.6191	14336.55	13446.2
974.5993	2474.973	14269.5	13379.1
974.7278	2476.3262	14215.05	13322
974.8563	2477.6787	14165.6	13276.85
974.9848	2479.0305	14100.3	13211.15
975.1132	2480.3816	14038.4	13147.2
975.2417	2481.7319	14018.85	13129.35
975.37	2483.0816	13940.4	13048.6
975.4984	2484.4306	13868.55	12976.8
975.6267	2485.7789	13829.65	12940.3
975.755	2487.1264	13777	12885.35
975.8833	2488.4733	13729.75	12841.15
976.0115	2489.8195	13675.15	12769.55
976.1397	2491.165	13624.95	12731.15
976.2678	2492.5097	13564.25	12671.1
976.3959	2493.8538	13519.55	12630.55
976.524	2495.1972	13439.25	12549.55
976.6521	2496.5398	13363.45	12472.15
976.7801	2497.8818	13365.65	12474.6
976.9081	2499.2231	13295.1	12405.75
977.036	2500.5637	13266.65	12375.45
977.164	2501.9035	13199.7	12308.1
977.2918	2503.2427	13176.6	12282.45
977.4197	2504.5812	13146.2	12255.1
977.5475	2505.919	13086.6	12194.35
977.6753	2507.256	13066.5	12174.85
977.8031	2508.5924	13010.95	12123.1
977.9308	2509.9281	12952.4	12055
978.0585	2511.2631	12921.95	12031.4
978.1861	2512.5974	12899.6	12009.55
978.3137	2513.9309	12810.15	11919.1
978.4413	2515.2638	12798.5	11884.1
978.5689	2516.596	12758.35	11868.35
978.6964	2517.9275	12680.55	11788.9
978.8239	2519.2583	12639.4	11748.5
978.9513	2520.5884	12577.1	11684.05
979.0788	2521.9178	12529.15	11639.3
979.2062	2523.2465	12495.8	11605.75
979.3335	2524.5745	12442.05	11552.4
979.4608	2525.9018	12416.3	11525.25
979.5881	2527.2284	12380.5	11492.75
979.7154	2528.5543	12335.15	11445.55
979.8426	2529.8796	12301.5	11409.9
979.9698	2531.2041	12275.1	11383.9
980.0969	2532.5279	12216.75	11329.55
980.224	2533.851	12229.3	11337.5
980.3511	2535.1735	12152.95	11263.65
980.4781	2536.4952	12135.9	11244.95
980.6052	2537.8163	12083.9	11194.2
980.7321	2539.1366	12067.65	11178.7
980.8591	2540.4562	12036.7	11144.35
980.986	2541.7752	12031.5	11139.6
981.1129	2543.0935	11996.95	11105.4
981.2397	2544.411	11955.3	11065.6
981.3665	2545.7279	11912.95	11025.1
981.4933	2547.0441	11891.05	11002.25
981.62	2548.3596	11861.45	10969.55
981.7467	2549.6744	11825.85	10934.1
981.8734	2550.9885	11796.95	10897.6
982.0001	2552.3019	11744.2	10853.95
982.1267	2553.6146	11738.7	10847.25
982.2532	2554.9266	11687.5	10797.25
982.3798	2556.2379	11650.75	10760.35
982.5063	2557.5485	11618.7	10731.5
982.6327	2558.8585	11584.7	10686.65
982.7592	2560.1677	11560.75	10666.1
982.8856	2561.4762	11522.2	10631.2
983.0119	2562.7841	11519.2	10627.05
983.1383	2564.0913	11500.85	10612.85
983.2646	2565.3977	11458.6	10569.3
983.3908	2566.7035	11455.45	10565.75
983.517	2568.0086	11452.15	10560.3
983.6432	2569.313	11383.25	10492.6
983.7694	2570.6167	11349.45	10454.4
983.8955	2571.9197	11306.1	10415.6
984.0216	2573.222	11293.45	10400.25
984.1476	2574.5236	11272.1	10381.2
984.2737	2575.8246	11242.8	10351.05
984.3996	2577.1248	11209.65	10316.55
984.5256	2578.4244	11188.4	10298.3
984.6515	2579.7232	11184.35	10295.15
984.7774	2581.0214	11163.55	10249.15
984.9032	2582.3189	11106.15	10215.7
985.029	2583.6157	11104.3	10209
985.1548	2584.9118	11067.6	10179.5
985.2806	2586.2072	11019.6	10129.55
985.4063	2587.5019	10996.5	10107.35
985.5319	2588.7959	10931.8	10041.15
985.6576	2590.0893	10941.7	10049.7
985.7832	2591.3819	10905.3	10013.5
985.9087	2592.6739	10860.8	9970.85
986.0343	2593.9652	10840.85	9947.8
986.1597	2595.2557	10815.95	9926.6
986.2852	2596.5456	10742.5	9849
986.4106	2597.8348	10719.9	9830.75
986.536	2599.1234	10672.3	9783.2
986.6614	2600.4112	10638.55	9746.3
986.7867	2601.6983	10593.9	9701.8
986.912	2602.9848	10567.8	9677.15
987.0372	2604.2705	10526	9628
987.1624	2605.5556	10483.95	9594.8
987.2876	2606.84	10474	9584.55
987.4128	2608.1237	10418.75	9528.55
987.5379	2609.4067	10376.85	9486.75
987.6629	2610.689	10364.15	9463.5
987.788	2611.9707	10288.35	9394.9
987.913	2613.2516	10262.9	9366.95
988.0379	2614.5319	10199.8	9309.45
988.1629	2615.8115	10188.8	9297.1
988.2878	2617.0903	10137.35	9246.15
988.4126	2618.3685	10106.45	9217.1
988.5375	2619.6461	10059.2	9168.7
988.6622	2620.9229	10021.65	9132.85
988.787	2622.199	9991.7	9100.55
988.9117	2623.4745	9967.8	9075.9
989.0364	2624.7493	9936	9047.8
989.161	2626.0234	9909.8	9021.55
989.2857	2627.2968	9851.55	8963.15
989.4102	2628.5695	9824.25	8933.1
989.5348	2629.8415	9781	8890.85
989.6593	2631.1128	9732.15	8840.3
989.7837	2632.3835	9707.4	8817.4
989.9082	2633.6535	9654.9	8764.15
990.0326	2634.9228	9620.35	8730.2
990.1569	2636.1914	9582.7	8693.25
990.2812	2637.4593	9556.8	8667.25
990.4055	2638.7265	9546.1	8654.35
990.5298	2639.9931	9505.35	8615.65
990.654	2641.259	9477.05	8585.35
990.7782	2642.5242	9438.25	8547.45
990.9023	2643.7887	9408.9	8519.45
991.0264	2645.0525	9380.6	8489.2
991.1505	2646.3156	9357	8467.45
991.2745	2647.5781	9303.85	8413.6
991.3985	2648.8398	9272.3	8381.75
991.5225	2650.1009	9214.55	8315.55
991.6464	2651.3613	9241.15	8350.25
991.7703	2652.6211	9211.7	8320.4
991.8942	2653.8801	9187.4	8299.15
992.018	2655.1385	9147.3	8253.2
992.1418	2656.3961	9117.95	8228.9
992.2655	2657.6531	9123.65	8233.65
992.3892	2658.9094	9076.45	8184.55
992.5129	2660.1651	9030.25	8142.9
992.6366	2661.42	9034.95	8145.45
992.7602	2662.6743	9025	8134.7
992.8837	2663.9279	8973.8	8085.9
993.0073	2665.1808	8949.45	8059.85
993.1307	2666.433	8912.55	8020.7
993.2542	2667.6846	8883.5	7992.45
993.3776	2668.9354	8882.9	7990.75
993.501	2670.1856	8830.75	7939.5
993.6244	2671.4351	8844.8	7953.75
993.7477	2672.6839	8799.15	7908.5
993.8709	2673.9321	8776.05	7886.05
993.9942	2675.1795	8756.65	7867.25
994.1174	2676.4263	8713.25	7824.7
994.2405	2677.6724	8687	7797.3
994.3637	2678.9179	8653.1	7763.45
994.4868	2680.1626	8655.65	7764.65
994.6098	2681.4067	8620.45	7729.45
994.7328	2682.6501	8589.75	7696.9
994.8558	2683.8928	8557.25	7667.1
994.9788	2685.1348	8508.75	7620.2
995.1017	2686.3761	8514.4	7625.5
995.2245	2687.6168	8472.75	7581.85
995.3474	2688.8568	8449.65	7558.1
995.4702	2690.0961	8394.1	7504.45
995.5929	2691.3348	8379.3	7489.1
995.7156	2692.5727	8358.35	7467.55
995.8383	2693.81	8311.65	7421.35
995.961	2695.0466	8301.3	7411.25
996.0836	2696.2826	8278.3	7386.7
996.2062	2697.5178	8239.45	7348.1
996.3287	2698.7524	8209.9	7319.25
996.4512	2699.9863	8209.35	7316.8
996.5737	2701.2195	8159.25	7271.45
996.6961	2702.452	8163.7	7271.9
996.8185	2703.6839	8162.65	7271.55
996.9408	2704.9151	8120.35	7230.65
997.0631	2706.1456	8071.45	7181.7
997.1854	2707.3755	8036.05	7143.9
997.3077	2708.6046	8032.85	7141.3
997.4299	2709.8331	8006.05	7116.55
997.552	2711.0609	7974.45	7081.75
997.6742	2712.2881	7960.65	7070.15
997.7963	2713.5145	7953.6	7060.65
997.9183	2714.7403	7932.7	7041.75
998.0403	2715.9654	7908.75	7018.95
998.1623	2717.1899	7890.25	6984.95
998.2842	2718.4136	7891.6	7001.5
998.4062	2719.6367	7833.75	6943.95
998.528	2720.8591	7813.85	6919.5
998.6498	2722.0809	7796.6	6906.4
998.7716	2723.3019	7778.45	6887.1
998.8934	2724.5223	7745.05	6853.85
999.0151	2725.7421	7727.05	6834.65
999.1368	2726.9611	7705.15	6812.4
999.2584	2728.1795	7700.95	6807.4
999.38	2729.3972	7665.55	6775.85
999.5016	2730.6142	7639.4	6736.5
999.6231	2731.8306	7584.15	6692.35
999.7446	2733.0462	7534	6642.55
999.8661	2734.2612	7502.95	6610.6
999.9875	2735.4756	7447.2	6556.05
1000.1089	2736.6892	7412.7	6521.5
1000.2302	2737.9022	7374.1	6486.05
1000.3515	2739.1145	7325.5	6437.65
1000.4728	2740.3262	7314.4	6415.3
1000.594	2741.5372	7247.1	6357.8
1000.7152	2742.7475	7224.8	6336.2
1000.8363	2743.9571	7225.35	6332.3
1000.9575	2745.1661	7175.65	6281.9
1001.0785	2746.3744	7104.4	6214.65
1001.1996	2747.582	7090.85	6201.85
1001.3206	2748.7889	7091.2	6199.85
1001.4415	2749.9952	7076.4	6185.75
1001.5625	2751.2008	7027.8	6137.55
1001.6833	2752.4057	7014.35	6122.65
1001.8042	2753.61	6996.5	6106.4
1001.925	2754.8136	6968.1	6076.15
1002.0458	2756.0165	6939.25	6049
1002.1665	2757.2188	6916.7	6026
1002.2872	2758.4204	6872.75	5983.75
1002.4078	2759.6213	6873.65	5980.35
1002.5285	2760.8215	6848.85	5954.3
1002.649	2762.0211	6817.95	5925.4
1002.7696	2763.22	6806.7	5915.1
1002.8901	2764.4182	6790.85	5900.4
1003.0106	2765.6158	6754.8	5866.4
1003.131	2766.8127	6731.2	5842.15
1003.2514	2768.009	6697.65	5807.7
1003.3717	2769.2045	6679.3	5789.45
1003.492	2770.3994	6669.75	5777.55
1003.6123	2771.5936	6645.65	5753.45
1003.7325	2772.7872	6600.65	5710.85
1003.8527	2773.9801	6569.8	5679.8
1003.9729	2775.1723	6571.05	5663.55
1004.093	2776.3639	6534.65	5644.4
1004.2131	2777.5548	6505.35	5613
1004.3331	2778.745	6474.1	5582.25
1004.4531	2779.9346	6489.75	5601.1
1004.5731	2781.1235	6470.25	5578.7
1004.693	2782.3117	6422.7	5532.85
1004.8129	2783.4992	6406.35	5518.05
1004.9328	2784.6861	6411.9	5522.85
1005.0526	2785.8723	6366.85	5476.7
1005.1723	2787.0579	6376.35	5486.35
1005.2921	2788.2428	6340.45	5450.6
1005.4118	2789.427	6340.1	5450.05
1005.5314	2790.6106	6328.85	5438.8
1005.651	2791.7935	6302.25	5411.35
1005.7706	2792.9757	6293.45	5404.8
1005.8902	2794.1573	6279.65	5389.4
1006.0097	2795.3382	6266.9	5377.1
1006.1291	2796.5184	6269.4	5381.2
1006.2485	2797.698	6260.95	5370.55
1006.3679	2798.8769	6261.85	5373.6
1006.4873	2800.0551	6237.85	5348.75
1006.6066	2801.2327	6237.65	5346.25
1006.7258	2802.4096	6218.55	5329.45
1006.8451	2803.5859	6215.7	5324.35
1006.9642	2804.7615	6190.9	5300.2
1007.0834	2805.9364	6229	5339.7
1007.2025	2807.1106	6232	5343.85
1007.3216	2808.2842	6246.15	5355.9
1007.4406	2809.4572	6229.05	5338.45
1007.5596	2810.6294	6276.7	5387.9
1007.6785	2811.801	6282.25	5393.65
1007.7975	2812.972	6283.75	5396.8
1007.9163	2814.1423	6314.9	5424.15
1008.0352	2815.3119	6376	5486.05
1008.154	2816.4808	6396.4	5507.9
1008.2727	2817.6491	6389.25	5500.8
1008.3914	2818.8167	6423.9	5534.05
1008.5101	2819.9837	6480	5584.3
1008.6288	2821.15	6492.5	5602.15
1008.7474	2822.3157	6504.5	5616.8
1008.8659	2823.4807	6529.05	5638.6
1008.9844	2824.645	6571.9	5681.7
1009.1029	2825.8086	6600.5	5711.3
1009.2214	2826.9716	6645.45	5755.55
1009.3398	2828.134	6656.5	5767.55
1009.4581	2829.2957	6676.85	5787.5
1009.5764	2830.4567	6696.65	5810.35
1009.6947	2831.617	6701.2	5810.6
1009.813	2832.7767	6701.2	5812.45
1009.9312	2833.9358	6663.75	5774.85
1010.0493	2835.0941	6641.95	5751.35
1010.1675	2836.2519	6648.8	5761
1010.2855	2837.4089	6624	5734.7
1010.4036	2838.5653	6600.55	5711.35
1010.5216	2839.7211	6589.8	5700.75
1010.6396	2840.8761	6593.95	5702.4
1010.7575	2842.0306	6592.25	5703.7
1010.8754	2843.1843	6617.25	5729.55
1010.9932	2844.3374	6655.3	5766.55
1011.111	2845.4899	6685.4	5795.3
1011.2288	2846.6417	6732.75	5844.85
1011.3465	2847.7928	6814.95	5927.15
1011.4642	2848.9433	6853.35	5963.8
1011.5818	2850.0931	6904.85	6016.6
1011.6995	2851.2422	6983.4	6093.15
1011.817	2852.3907	7026.45	6135.9
1011.9345	2853.5385	7062	6169.15
1012.052	2854.6857	7135.85	6217.7
1012.1695	2855.8323	7122.7	6234.9
1012.2869	2856.9781	7161.05	6273.45
1012.4042	2858.1233	7184.4	6296
1012.5216	2859.2679	7236.9	6348.45
1012.6389	2860.4118	7242.85	6353.35
1012.7561	2861.555	7255.3	6362
1012.8733	2862.6976	7272.65	6382
1012.9905	2863.8395	7293.55	6406
1013.1076	2864.9808	7321.6	6431.5
1013.2247	2866.1214	7312.4	6424.15
1013.3417	2867.2614	7298.1	6407.5
1013.4587	2868.4007	7290.7	6401
1013.5757	2869.5393	7283.15	6392.75
1013.6926	2870.6773	7282.7	6391.1
1013.8095	2871.8146	7277.5	6386.05
1013.9263	2872.9513	7248.2	6355.8
1014.0431	2874.0874	7219.85	6332.8
1014.1599	2875.2227	7210.2	6319.55
1014.2766	2876.3574	7174.6	6283.9
1014.3933	2877.4915	7130.15	6241.5
1014.51	2878.6249	7102.2	6213.65
1014.6266	2879.7577	7055.9	6165.1
1014.7431	2880.8898	7039.35	6139.35
1014.8596	2882.0212	6973.55	6082.4
1014.9761	2883.152	6980.95	6091.65
1015.0925	2884.2821	6945.95	6058.55
1015.2089	2885.4116	6915.3	6027.8
1015.3253	2886.5405	6875.35	5985.95
1015.4416	2887.6686	6891.85	5999.05
1015.5579	2888.7962	6868.7	5980.95
1015.6741	2889.923	6857.95	5968.7
1015.7903	2891.0493	6857.55	5968.6
1015.9065	2892.1748	6846.25	5957.55
1016.0226	2893.2997	6837.05	5947.8
1016.1387	2894.424	6839.75	5951.8
1016.2547	2895.5476	6835.1	5946.4
1016.3707	2896.6706	6833.8	5945.05
1016.4866	2897.7929	6855.45	5966.25
1016.6025	2898.9145	6869.05	5980.5
1016.7184	2900.0355	6864.75	5976.55
1016.8342	2901.1559	6879.3	5987.95
1016.95	2902.2756	6898.95	6009.8
1017.0658	2903.3946	6907.7	6019
1017.1815	2904.513	6940.4	6048.95
1017.2971	2905.6308	6925.65	6037
1017.4127	2906.7479	6923.45	6034.45
1017.5283	2907.8643	6963.6	6072.8
1017.6439	2908.9801	6954.55	6066.35
1017.7594	2910.0953	6930.8	6040.85
1017.8748	2911.2098	6906.95	6014.4
1017.9902	2912.3236	6904	6005.1
1018.1056	2913.4368	6880.65	5988.65
1018.2209	2914.5494	6847	5958.05
1018.3362	2915.6613	6804.95	5910.65
1018.4515	2916.7725	6760.3	5867.45
1018.5667	2917.8831	6720.2	5831.65
1018.6819	2918.9931	6691.75	5800.5
1018.797	2920.1024	6647.9	5756.15
1018.9121	2921.211	6607	5717.55
1019.0271	2922.319	6584.35	5695.35
1019.1421	2923.4264	6573.1	5684.85
1019.2571	2924.5331	6531.35	5643.95
1019.372	2925.6391	6521.55	5632.6
1019.4869	2926.7445	6490.35	5603.4
1019.6017	2927.8493	6468.8	5579.55
1019.7165	2928.9534	6466.65	5576.9
1019.8313	2930.0569	6442.55	5549.75
1019.946	2931.1597	6414.5	5524
1020.0606	2932.2619	6401.35	5512.15
1020.1753	2933.3634	6389.85	5500.9
1020.2899	2934.4643	6372.35	5476.75
1020.4044	2935.5645	6347.35	5452.05
1020.5189	2936.6641	6294.25	5400.15
1020.6334	2937.763	6241.15	5351.5
1020.7478	2938.8613	6185.7	5296
1020.8622	2939.959	6127.5	5232.85
1020.9765	2941.056	6034.65	5146
1021.0908	2942.1523	5928.4	5039.3
1021.2051	2943.248	5849.2	4961.25
1021.3193	2944.3431	5747.2	4859.2
1021.4334	2945.4375	5638.2	4747.95
1021.5476	2946.5313	5529.3	4641.7
1021.6617	2947.6244	5407.5	4518.15
1021.7757	2948.7169	5323.35	4432.9
1021.8897	2949.8087	5215.45	4326.8
1022.0037	2950.8999	5102.45	4215.75
1022.1176	2951.9904	5022.9	4133.85
1022.2315	2953.0803	4942.05	4054.65
1022.3453	2954.1696	4868.35	3980.3
1022.4591	2955.2582	4800.85	3913.45
1022.5728	2956.3462	4750.6	3861.8
1022.6865	2957.4335	4689.6	3799.15
1022.8002	2958.5202	4658.45	3766.35
1022.9138	2959.6062	4615	3724.8
1023.0274	2960.6916	4578.3	3688.7
1023.141	2961.7764	4536.95	3647.35
1023.2545	2962.8605	4519.45	3629.25
1023.3679	2963.9439	4484.8	3597.6
1023.4813	2965.0267	4460.3	3569.3
1023.5947	2966.1089	4469.1	3555.85
1023.708	2967.1905	4431.65	3544
1023.8213	2968.2714	4421.2	3530.9
1023.9346	2969.3516	4393.8	3505.85
1024.0478	2970.4312	4409.65	3513.85
1024.1609	2971.5102	4372.15	3482.8
1024.274	2972.5885	4363.55	3474.3
1024.3871	2973.6662	4373.1	3481.15
1024.5002	2974.7432	4340.45	3452.45
1024.6132	2975.8196	4334.05	3446.45
1024.7261	2976.8954	4307.9	3419.1
1024.839	2977.9705	4295.85	3408.15
1024.9519	2979.045	4278.35	3391.15
1025.0647	2980.1188	4228.3	3339.2
1025.1775	2981.192	4220.15	3332.15
1025.2902	2982.2645	4184.45	3294.25
1025.4029	2983.3364	4140.5	3251.2
1025.5156	2984.4077	4084.25	3195.1
1025.6282	2985.4783	4082.75	3187.55
1025.7407	2986.5483	4033.2	3146.55
1025.8532	2987.6177	3995.3	3107.4
1025.9657	2988.6864	3956.25	3067.9
1026.0782	2989.7545	3910.15	3020.6
1026.1906	2990.8219	3875.4	2986.65
1026.3029	2991.8887	3826.95	2937.25
1026.4152	2992.9548	3808.3	2919.05
1026.5275	2994.0204	3758.1	2872.1
1026.6397	2995.0852	3701.75	2813.85
1026.7519	2996.1495	3691	2799.75
1026.864	2997.2131	3657.05	2768.6
1026.9761	2998.276	3619.8	2730.85
1027.0882	2999.3383	3600.05	2710.8
1027.2002	3000.4	3566.05	2676.35
1027.3122	3001.4611	3546.35	2658.15
1027.4241	3002.5215	3520.35	2631.45
1027.536	3003.5812	3496.3	2607.15
1027.6478	3004.6404	3479.05	2590.5
1027.7596	3005.6989	3466.55	2575.8
1027.8714	3006.7567	3449.6	2560.35
1027.9831	3007.8139	3444.85	2536.05
1028.0947	3008.8705	3406.8	2519
1028.2064	3009.9264	3407.5	2515.1
1028.3179	3010.9818	3376.25	2486.15
1028.4295	3012.0364	3368.65	2480.4
1028.541	3013.0905	3356.3	2467.35
1028.6524	3014.1439	3356.9	2467.85
1028.7638	3015.1966	3336.9	2447.3
1028.8752	3016.2487	3329.35	2440.2
1028.9865	3017.3002	3342.9	2446.3
1029.0978	3018.3511	3322.05	2434.95
1029.209	3019.4013	3300.45	2410.65
1029.3202	3020.4509	3306.45	2418.95
1029.4314	3021.4998	3282.55	2396
1029.5425	3022.5481	3286.4	2397.9
1029.6535	3023.5958	3283.5	2396.55
1029.7645	3024.6428	3268.85	2379.45
1029.8755	3025.6892	3261.25	2372.15
1029.9864	3026.735	3242.95	2354.55
1030.0973	3027.7802	3248.4	2359.5
1030.2082	3028.8247	3231.8	2343.2
1030.319	3029.8685	3212.85	2325.75
1030.4297	3030.9118	3225.8	2337.7
1030.5404	3031.9544	3204.8	2317.3
1030.6511	3032.9963	3213.65	2326
1030.7617	3034.0376	3198.7	2312.45
1030.8723	3035.0783	3212.8	2323
1030.9829	3036.1184	3200.35	2309.85
1031.0934	3037.1578	3193.3	2305.85
1031.2038	3038.1966	3194.15	2303.7
1031.3142	3039.2348	3176.15	2287.65
1031.4246	3040.2723	3177.4	2279.95
1031.5349	3041.3092	3155.7	2268.15
1031.6452	3042.3455	3161.2	2272.9
1031.7554	3043.3811	3146.8	2257.75
1031.8656	3044.4161	3124.1	2234.85
1031.9758	3045.4505	3112.45	2225.25
1032.0859	3046.4842	3104.7	2216.95
1032.1959	3047.5173	3083.05	2194.5
1032.3059	3048.5498	3073.65	2184
1032.4159	3049.5816	3062.5	2173.2
1032.5258	3050.6128	3072.75	2183.15
1032.6357	3051.6434	3050.6	2160.25
1032.7455	3052.6734	3036.1	2147.4
1032.8553	3053.7027	3013.5	2125.6
1032.9651	3054.7314	3002.1	2115.3
1033.0748	3055.7594	2995.65	2107.35
1033.1845	3056.7868	2985.25	2097.1
1033.2941	3057.8136	2970.05	2082.8
1033.4037	3058.8398	2959.6	2070.85
1033.5132	3059.8653	2934.8	2046.05
1033.6227	3060.8902	2936.65	2048.6
1033.7321	3061.9145	2926.15	2039.75
1033.8415	3062.9381	2902.25	2013.75
1033.9509	3063.9612	2908.8	2003.45
1034.0602	3064.9835	2883.05	1993.65
1034.1694	3066.0053	2872.3	1981.65
1034.2787	3067.0264	2870.5	1982
1034.3878	3068.0469	2846.3	1957.45
1034.497	3069.0668	2834.45	1941.85
1034.6061	3070.086	2831.3	1943.5
1034.7151	3071.1046	2796.75	1909.05
1034.8241	3072.1226	2798.8	1908.25
1034.9331	3073.1399	2773.65	1886.3
1035.042	3074.1567	2769.4	1880.95
1035.1508	3075.1727	2743.6	1853.2
1035.2597	3076.1882	2727.4	1840
1035.3684	3077.203	2713.55	1825.75
1035.4772	3078.2173	2703.6	1814.8
1035.5859	3079.2308	2703.75	1812.15
1035.6945	3080.2438	2676.2	1785.95
1035.8031	3081.2561	2656.05	1767.6
1035.9117	3082.2678	2643.45	1754.95
1036.0202	3083.2789	2642.75	1755.55
1036.1286	3084.2893	2635.65	1747.45
1036.2371	3085.2991	2613.9	1725.8
1036.3454	3086.3083	2607.1	1714.75
1036.4538	3087.3169	2598.75	1709
1036.562	3088.3248	2586.55	1696.7
1036.6703	3089.3321	2580.65	1690.35
1036.7785	3090.3388	2556.8	1667.15
1036.8866	3091.3449	2551.25	1662.9
1036.9948	3092.3503	2540	1650.55
1037.1028	3093.3551	2533.75	1646.4
1037.2108	3094.3593	2519.4	1630.45
1037.3188	3095.3629	2505.6	1618.25
1037.4267	3096.3658	2513.4	1623.75
1037.5346	3097.3681	2489.25	1601.05
1037.6425	3098.3698	2479.2	1590.45
1037.7503	3099.3708	2469.2	1575.35
1037.858	3100.3713	2471.15	1581.95
1037.9657	3101.3711	2446.65	1557.55
1038.0734	3102.3702	2564.8	1540.8
1038.181	3103.3688	2454.15	1563.75
1038.2886	3104.3667	2425.25	1538.1
1038.3961	3105.364	2405.2	1516.95
1038.5036	3106.3607	2404.7	1516.9
1038.611	3107.3568	2389.55	1498.6
1038.7184	3108.3522	2378.8	1493
1038.8257	3109.347	2370.45	1481.05
1038.933	3110.3412	2378.55	1487.65
1039.0403	3111.3348	2354.7	1466.3
1039.1475	3112.3277	2348.3	1459.1
1039.2547	3113.32	2339.8	1453.9
1039.3618	3114.3117	2337.7	1450.1
1039.4689	3115.3028	2324.65	1436.5
1039.5759	3116.2932	2317.4	1426.55
1039.6829	3117.2831	2304.45	1410.35
1039.7898	3118.2723	2294.45	1404.65
1039.8967	3119.2608	2298.5	1412.5
1040.0035	3120.2488	2288.2	1399.35
1040.1103	3121.2361	2275.55	1387.8
1040.2171	3122.2229	2271.95	1385.4
1040.3238	3123.209	2267.3	1376.5
1040.4305	3124.1944	2255.25	1367.4
1040.5371	3125.1793	2250.05	1359.7
1040.6437	3126.1635	2242.6	1355.5
1040.7502	3127.1471	2238.15	1349.15
1040.8567	3128.1301	2229.3	1342.3
1040.9631	3129.1125	2228.7	1341
1041.0695	3130.0942	2219.9	1331.65
1041.1759	3131.0753	2219.5	1322.3
1041.2822	3132.0558	2205.8	1314.45
1041.3884	3133.0357	2189.35	1301.9
1041.4946	3134.015	2186.75	1298.75
1041.6008	3134.9936	2188.25	1297.45
1041.7069	3135.9716	2195.8	1287.35
1041.813	3136.949	2172.05	1282.95
1041.919	3137.9258	2176.9	1284.65
1042.025	3138.902	2160.6	1266.45
1042.1309	3139.8775	2148.4	1261.7
1042.2368	3140.8524	2147.55	1261.15
1042.3427	3141.8267	2140.95	1250.1
1042.4485	3142.8004	2132.3	1243.2
1042.5542	3143.7735	2144.65	1249.65
1042.6599	3144.7459	2136.85	1245.95
1042.7656	3145.7178	2117.85	1227.7
1042.8712	3146.689	2109.1	1221.25
1042.9768	3147.6596	2115.6	1225.8
1043.0823	3148.6295	2108.45	1220.2
1043.1878	3149.5989	2097.75	1210.1
1043.2932	3150.5676	2085.05	1196.75
1043.3986	3151.5357	2076.45	1190.65
1043.5039	3152.5032	2074.25	1184.7
1043.6092	3153.4701	2054.75	1167.3
1043.7145	3154.4364	2076.55	1186.2
1043.8197	3155.402	2059.35	1171.15
1043.9248	3156.367	2049.45	1159.9
1044.03	3157.3315	2069.35	1135.65
1044.135	3158.2952	2019.25	1129.8
1044.24	3159.2584	2025.1	1137.4
1044.345	3160.221	2021.75	1131.1
1044.4499	3161.1829	2011.9	1123.05
1044.5548	3162.1442	2005.15	1118.05
1044.6596	3163.105	2004.85	1116.35
1044.7644	3164.065	1996.95	1109.45
1044.8692	3165.0245	1993.55	1103.6
1044.9739	3165.9834	1981.6	1095.55
1045.0785	3166.9416	1975.35	1087.55
1045.1831	3167.8993	1970.75	1082.5
1045.2877	3168.8563	1959.45	1069.7
1045.3922	3169.8127	1960.35	1070.05
1045.4966	3170.7684	1956.35	1066.75
1045.6011	3171.7236	1938.2	1048.85
1045.7054	3172.6782	1932.9	1046.35
1045.8098	3173.6321	1928.7	1038.1
1045.914	3174.5854	1935.25	1042.85
1046.0183	3175.5381	1931.25	1044.8
1046.1224	3176.4902	1921.55	1034.65
1046.2266	3177.4417	1914.8	1027.25
1046.3307	3178.3926	1900	1012.95
1046.4347	3179.3428	1899.7	1013.2
1046.5387	3180.2924	1906.15	1019.2
1046.6427	3181.2415	1889	1001.55
1046.7466	3182.1899	1882.15	991.75
1046.8504	3183.1377	1869.75	982.95
1046.9542	3184.0848	1869.95	978.1
1047.058	3185.0314	1859.55	969.5
1047.1617	3185.9773	1862.2	975.55
1047.2654	3186.9227	1862.9	974.8
1047.369	3187.8674	1852.55	966.3
1047.4726	3188.8115	1850.35	958.4
1047.5761	3189.755	1838.5	949.75
1047.6796	3190.6979	1828.6	940
1047.783	3191.6402	1829.85	942.2
1047.8864	3192.5818	1817.1	930.4
1047.9898	3193.5229	1841.9	929.6
1048.0931	3194.4633	1822	933.5
1048.1963	3195.4031	1807.25	917.7
1048.2995	3196.3423	1808.8	922.15
1048.4027	3197.2809	1803.15	914.4
1048.5058	3198.2189	1795.95	906.7
1048.6089	3199.1563	1797.2	902.95
1048.7119	3200.0931	1786.25	898.2
1048.8148	3201.0292	1778.25	890.4
1048.9178	3201.9648	1777.2	889.55
1049.0206	3202.8997	1773.85	881.95
1049.1235	3203.834	1766.8	879.45
1049.2262	3204.7677	1759.7	873.55
1049.329	3205.7008	1765.5	874.45
1049.4317	3206.6333	1756.2	870.5
1049.5343	3207.5652	1743.95	853.95
1049.6369	3208.4964	1754.5	866.35
1049.7394	3209.4271	1748.5	859.7
1049.8419	3210.3571	1739.65	852.5
1049.9444	3211.2865	1735.2	847.95
1050.0468	3212.2154	1728.4	839.2
1050.1491	3213.1436	1727.9	835.45
1050.2514	3214.0712	1728.6	835.1
1050.3537	3214.9982	1721.95	833.35
1050.4559	3215.9246	1717	829.15
1050.5581	3216.8503	1704.6	816.55
1050.6602	3217.7755	1700.4	813.55
1050.7623	3218.7001	1705.4	817.1
1050.8643	3219.624	1698.4	809.5
1050.9663	3220.5473	1695.65	807.1
1051.0682	3221.4701	1690.25	800.7
1051.1701	3222.3922	1688.3	798.3
1051.2719	3223.3137	1686.2	798.4
1051.3737	3224.2346	1673.2	783.45
1051.4754	3225.1549	1664.95	778.7
1051.5771	3226.0746	1667.5	781
1051.6788	3226.9937	1664.35	776.6
1051.7804	3227.9121	1658.95	769.45
1051.8819	3228.83	1658.8	771.4
1051.9834	3229.7473	1657.4	769.35
1052.0849	3230.6639	1648.35	761.45
1052.1863	3231.5799	1641.2	750.3
1052.2876	3232.4954	1634.05	746.7
1052.3889	3233.4102	1631.55	744.4
1052.4902	3234.3244	1628	742.2
1052.5914	3235.238	1624.4	735.95
1052.6926	3236.151	1634.9	723.85
1052.7937	3237.0634	1620.5	734.35
1052.8948	3237.9752	1613.9	727.15
1052.9958	3238.8864	1609.35	722.15
1053.0968	3239.797	1602.9	714.7
1053.1977	3240.7069	1609	720.95
1053.2986	3241.6163	1595.4	705.65
1053.3994	3242.5251	1593.45	705.95
1053.5002	3243.4332	1592.55	704.9
1053.6009	3244.3408	1592.65	705.5
1053.7016	3245.2477	1577.4	689.25
1053.8022	3246.154	1580.15	692.2
1053.9028	3247.0598	1569.45	680.45
1054.0034	3247.9649	1560	673.35
1054.1039	3248.8694	1557.15	669.2
1054.2043	3249.7733	1555.95	666.3
1054.3047	3250.6766	1553.7	666.75
1054.4051	3251.5793	1554.25	664.45
1054.5054	3252.4814	1539.05	651.25
1054.6056	3253.3829	1542.2	655.25
1054.7058	3254.2838	1534.5	647.75
1054.806	3255.1841	1532.6	646
1054.9061	3256.0838	1526.2	639.4
1055.0061	3256.9829	1520.75	632.9
1055.1062	3257.8814	1518.1	627.4
1055.2061	3258.7792	1507.75	618.65
1055.306	3259.6765	1501.8	613.3
1055.4059	3260.5731	1503.95	618.15
1055.5057	3261.4692	1495.9	606.15
1055.6055	3262.3647	1484.9	596.25
1055.7052	3263.2595	1467.3	579
1055.8049	3264.1538	1463.25	577.1
1055.9045	3265.0474	1464.05	575.75
1056.0041	3265.9404	1450.7	563.45
1056.1036	3266.8329	1447.65	560.35
1056.2031	3267.7247	1439.5	543.35
1056.3025	3268.616	1415.85	529.7
1056.4019	3269.5066	1403.7	518.3
1056.5013	3270.3966	1395	504.15
1056.6005	3271.286	1371.1	486.15
