Software Version:	3.9.2.0
Unit SN:	10000200
Spectrometer SN:	6960
Date:	3/6/2024 9:42:09 AM
Data Line Index:	25
Spectral Points:	2048
Integration time (ms):	125
Averages:	20
Delay (ms):	30
Sequence Number:	1
Processing:	dark subtract
Laser Power (mW):	300
Laser Current (mA):	825
Laser Diode Temp (C):	25.1
Laser Case Temp (C):	24
System Temp (C):	23.8
Spectrometer Temp (C):	21.3
CCD Temp (C):	-0.031
Secondary Temp (C):	20.004
Heatsink Temp (C):	17.466
CCDPCB Temp (C):	30.504
SecondaryPCB Temp (C):	25.369

Wavelength	RamanShift	Raw Counts	Dark Subtracted
787.061	30.1047	455.3	47.15
787.2016	32.3739	460.75	55.25
787.3422	34.6426	460.8	52.65
787.4828	36.9109	466.35	57.25
787.6235	39.1787	472	59.75
787.7642	41.4461	481.6	65.4
787.9049	43.7131	490.85	71.6
788.0456	45.9796	493.6	72
788.1863	48.2456	505.45	79.65
788.3271	50.5112	511.8	81.3
788.4679	52.7764	521.4	87.9
788.6087	55.0411	528.3	91.75
788.7496	57.3054	536.45	93.8
788.8904	59.5692	547.55	104.35
789.0313	61.8326	552.45	105.7
789.1722	64.0955	566.85	118.55
789.3132	66.3579	581.8	128.7
789.4541	68.6199	600.15	142.8
789.5951	70.8815	627.3	166.35
789.7361	73.1426	681.05	215.7
789.8771	75.4032	815.75	346
790.0181	77.6634	1157.85	685.3
790.1592	79.9231	1960.7	1486.2
790.3003	82.1824	3664	3186.15
790.4414	84.4412	6646.05	6155.85
790.5825	86.6995	10706.55	10208.1
790.7237	88.9574	14685.65	14179.9
790.8648	91.2148	17623.95	17111.35
791.006	93.4717	19264.25	18749.25
791.1472	95.7282	19983.3	19465.1
791.2885	97.9842	20333.95	19813.6
791.4297	100.2398	20466.9	19943.5
791.571	102.4949	20529.6	20002.95
791.7123	104.7495	20542.35	20012.35
791.8536	107.0036	20536.95	20005.9
791.9949	109.2573	20545.8	20014.9
792.1363	111.5105	20555.05	20023.35
792.2777	113.7632	20530.1	19994.85
792.4191	116.0154	20584.25	20039.3
792.5605	118.2672	20619.65	20080.15
792.7019	120.5185	20632.65	20092.9
792.8434	122.7693	20663.45	20117.9
792.9849	125.0197	20727.35	20179.15
793.1264	127.2696	20733.55	20181.85
793.2679	129.519	20822.2	20267.3
793.4094	131.7679	20847.05	20289.35
793.551	134.0163	20917.5	20359.15
793.6926	136.2642	20927.9	20361.85
793.8342	138.5117	20919.25	20351.95
793.9758	140.7587	20956.95	20389.2
794.1175	143.0052	20995.3	20425.85
794.2591	145.2512	20947.55	20376.3
794.4008	147.4967	20936.8	20366.45
794.5425	149.7417	20967.8	20393.2
794.6842	151.9863	20929.2	20347.7
794.826	154.2304	20962.8	20379.3
794.9677	156.4739	20907.7	20318.2
795.1095	158.717	20966.9	20377.15
795.2513	160.9596	20967.55	20372.8
795.3931	163.2017	20968.85	20372.15
795.535	165.4433	20994.4	20397.15
795.6768	167.6844	20988.3	20390.15
795.8187	169.925	21027.65	20424.8
795.9606	172.1651	20969.05	20362.9
796.1025	174.4047	20970.6	20360.85
796.2445	176.6439	20987.55	20372.55
796.3864	178.8825	21002.5	20387.6
796.5284	181.1206	21031.65	20410.9
796.6704	183.3582	21057.6	20435.7
796.8124	185.5954	21058	20435.6
796.9544	187.832	21089.95	20460.45
797.0965	190.0681	21112.3	20481.05
797.2386	192.3037	21139.75	20505
797.3806	194.5388	21176	20537.2
797.5228	196.7734	21227.65	20589.55
797.6649	199.0075	21308.5	20669.65
797.807	201.2411	21393	20754.95
797.9492	203.4742	21422.85	20781.1
798.0914	205.7068	21555.35	20906.1
798.2336	207.9389	21542.8	20895.3
798.3758	210.1704	21628.95	20986.05
798.518	212.4015	21566.2	20937.25
798.6603	214.632	21650.05	21024.6
798.8025	216.862	21659	21035.9
798.9448	219.0915	21672.3	21047.1
799.0871	221.3205	21700.2	21069.6
799.2294	223.549	21755.25	21129.35
799.3718	225.777	21798.95	21172
799.5141	228.0044	21818.85	21182.85
799.6565	230.2314	21874.05	21239.15
799.7989	232.4578	21850	21208.55
799.9413	234.6837	21886.9	21237.55
800.0837	236.909	21895.65	21244.5
800.2262	239.1339	21919.25	21246.5
800.3687	241.3582	21936.85	21277.85
800.5111	243.582	21983.8	21293.65
800.6536	245.8053	22029.4	21352
800.7961	248.0281	22022.95	21350.25
800.9387	250.2503	22012.95	21335.55
801.0812	252.472	22019	21341.3
801.2238	254.6932	22113.2	21436.9
801.3664	256.9139	22039.85	21362
801.509	259.134	22111.1	21427.4
801.6516	261.3536	22112.3	21431.2
801.7942	263.5727	22171.05	21489.75
801.9369	265.7912	22164.05	21483.45
802.0795	268.0092	22210.95	21529.1
802.2222	270.2267	22229.65	21547.25
802.3649	272.4436	22272.85	21587.45
802.5076	274.6601	22278.05	21581.75
802.6504	276.8759	22267	21574.95
802.7931	279.0913	22290.55	21597.2
802.9359	281.3061	22309.4	21617.2
803.0787	283.5204	22371.45	21675.75
803.2215	285.7341	22417.6	21716.55
803.3643	287.9473	22464.25	21753.45
803.5071	290.16	22455.8	21752.85
803.6499	292.3721	22424.35	21727.85
803.7928	294.5837	22429.4	21732.35
803.9357	296.7947	22380.75	21683.9
804.0786	299.0052	22391.45	21690.6
804.2215	301.2152	22343.05	21638.35
804.3644	303.4246	22353.35	21651.6
804.5074	305.6334	22338.55	21636.15
804.6503	307.8418	22349.85	21644.7
804.7933	310.0495	22276.25	21571.85
804.9363	312.2568	22225.7	21521.15
805.0793	314.4635	22191.95	21483.1
805.2223	316.6696	22166.2	21452.4
805.3653	318.8752	22064.75	21342.75
805.5084	321.0802	22049.05	21335
805.6514	323.2847	22065	21349.15
805.7945	325.4887	22053.85	21338.5
805.9376	327.692	22001	21285.9
806.0807	329.8949	22097.25	21378.95
806.2238	332.0972	22087.05	21369.6
806.367	334.2989	22132.95	21408.45
806.5101	336.5001	22069.9	21346.4
806.6533	338.7007	22091.5	21366.8
806.7965	340.9008	22090.6	21366.5
806.9397	343.1003	22076.6	21346.5
807.0829	345.2992	22067	21338.95
807.2261	347.4976	22021.05	21289.25
807.3693	349.6955	22010.85	21276.45
807.5126	351.8927	22047.3	21313.25
807.6559	354.0895	21999.55	21253.6
807.7991	356.2856	21998.05	21260.05
807.9424	358.4812	21971.9	21233.35
808.0857	360.6763	21999.75	21259.7
808.2291	362.8707	21978.4	21235.85
808.3724	365.0646	22001.6	21256.25
808.5158	367.258	21898.1	21152.5
808.6591	369.4508	21913.8	21161.1
808.8025	371.643	21924.05	21173.55
808.9459	373.8346	21885.3	21134.4
809.0893	376.0257	21875.15	21122.25
809.2327	378.2162	21860.55	21107.3
809.3762	380.4062	21905.5	21151.75
809.5196	382.5956	21837.85	21086.5
809.6631	384.7844	21811.35	21063.8
809.8066	386.9726	21718.45	20971.8
809.9501	389.1603	21679.55	20935.6
810.0936	391.3474	21679.55	20894.6
810.2371	393.5339	21663.45	20918.05
810.3806	395.7199	21554.55	20809.1
810.5241	397.9052	21613.05	20868.7
810.6677	400.09	21598.6	20850.6
810.8113	402.2743	21634.95	20885.85
810.9548	404.4579	21604.85	20852.8
811.0984	406.641	21674.75	20921.45
811.2421	408.8235	21685.85	20929.45
811.3857	411.0054	21728.35	20970.15
811.5293	413.1868	21819.5	21056.65
811.673	415.3675	21822.25	21060.55
811.8166	417.5477	21803.25	21037.65
811.9603	419.7273	21778.4	21009.95
812.104	421.9064	21607.8	20833.7
812.2477	424.0848	21533	20766.1
812.3914	426.2627	21449.8	20678.85
812.5351	428.4399	21428.95	20658.4
812.6788	430.6166	21354.25	20580.2
812.8226	432.7928	21277.3	20500.85
812.9663	434.9683	21202.05	20424.15
813.1101	437.1432	21127.05	20350.15
813.2539	439.3176	21096.65	20321.8
813.3977	441.4914	21030.9	20258.4
813.5415	443.6645	21022.65	20243.8
813.6853	445.8371	20939.45	20163.15
813.8291	448.0091	20811.3	20036.4
813.973	450.1806	20799.35	20021.9
814.1168	452.3514	20756.45	19975.8
814.2607	454.5216	20725.1	19937.65
814.4046	456.6913	20655.95	19871.55
814.5485	458.8603	20646.7	19867.6
814.6924	461.0288	20654.35	19873.7
814.8363	463.1967	20652.4	19870.9
814.9802	465.3639	20676.9	19894.9
815.1241	467.5306	20611.9	19829.3
815.2681	469.6967	20572	19789.1
815.412	471.8622	20495.45	19712.1
815.556	474.0271	20462.5	19680.15
815.7	476.1914	20460.2	19671.8
815.844	478.3551	20454.25	19669
815.988	480.5182	20495.2	19706.55
816.132	482.6807	20468.05	19680.85
816.276	484.8426	20484.1	19698.2
816.4201	487.0039	20532.05	19745
816.5641	489.1647	20564.7	19776.65
816.7082	491.3248	20582.3	19796.15
816.8522	493.4843	20601.1	19813.25
816.9963	495.6432	20554.5	19763.75
817.1404	497.8015	20481	19686.75
817.2845	499.9592	20498.2	19705.8
817.4286	502.1163	20439.5	19647.65
817.5727	504.2728	20394.8	19598.8
817.7168	506.4287	20405.5	19611.45
817.861	508.5839	20330.65	19535.1
818.0051	510.7386	20339.15	19545.1
818.1493	512.8927	20385.25	19586.6
818.2935	515.0461	20357.8	19560.95
818.4377	517.199	20325.75	19530.5
818.5818	519.3512	20329.4	19532.05
818.726	521.5029	20341.05	19537.15
818.8703	523.6539	20311.85	19511.75
819.0145	525.8043	20332.15	19529.75
819.1587	527.9541	20291.1	19488.35
819.303	530.1033	20233.4	19431.6
819.4472	532.2519	20179.6	19376.7
819.5915	534.3999	20172.7	19366.75
819.7357	536.5472	20139.65	19337.4
819.88	538.694	20123.1	19321.15
820.0243	540.8401	20167.65	19364.45
820.1686	542.9856	20129.5	19324.3
820.3129	545.1305	20117.1	19310.8
820.4572	547.2748	20142.1	19335.15
820.6016	549.4185	20126.6	19319.15
820.7459	551.5615	20082.8	19273.5
820.8902	553.704	20109.5	19301
821.0346	555.8458	20071.3	19263.3
821.1789	557.987	20041.8	19233.85
821.3233	560.1276	20022.35	19211.6
821.4677	562.2675	20059.25	19250.55
821.6121	564.4069	20093.15	19284.9
821.7565	566.5456	20057	19248.75
821.9009	568.6837	20065.2	19256.55
822.0453	570.8212	19960.7	19151.75
822.1897	572.958	19931.85	19120.8
822.3342	575.0942	19847.95	19041.05
822.4786	577.2299	19755.9	18946.3
822.6231	579.3648	19695.5	18884.7
822.7675	581.4992	19585.5	18775.2
822.912	583.6329	19546.65	18737.5
823.0565	585.766	19535.5	18725.5
823.201	587.8985	19513.05	18701.25
823.3454	590.0304	19490.15	18665
823.4899	592.1616	19484.75	18668.7
823.6345	594.2922	19438.2	18623.2
823.779	596.4222	19362.6	18546.3
823.9235	598.5515	19293.65	18475.9
824.068	600.6802	19220.75	18402.2
824.2126	602.8083	19145.6	18328.45
824.3571	604.9358	19137.15	18318.15
824.5017	607.0626	19062.4	18246.6
824.6462	609.1888	19030.3	18210
824.7908	611.3144	19038.85	18217.75
824.9354	613.4393	19036.65	18216.3
825.08	615.5636	19070.65	18251.55
825.2246	617.6873	19062.75	18245.05
825.3692	619.8103	19073.05	18250.5
825.5138	621.9327	19032.85	18209.45
825.6584	624.0544	18986.75	18166.05
825.803	626.1756	18969.2	18146.8
825.9477	628.2961	18887.65	18064.95
826.0923	630.4159	18829	18006.35
826.237	632.5351	18850.05	18027.1
826.3816	634.6537	18816.7	17992.35
826.5263	636.7716	18825.4	17999.8
826.6709	638.8889	18794.35	17968.2
826.8156	641.0056	18813.3	17986.9
826.9603	643.1216	18781.4	17954.75
827.105	645.237	18796.65	17966.2
827.2497	647.3518	18758.9	17935.15
827.3944	649.4659	18736	17910.5
827.5391	651.5793	18709.5	17882.9
827.6838	653.6922	18666.55	17842.25
827.8285	655.8043	18676.35	17849.2
827.9733	657.9159	18588.25	17761
828.118	660.0268	18536.85	17705.85
828.2627	662.137	18514	17683.35
828.4075	664.2466	18503.8	17674.85
828.5522	666.3556	18524.75	17695.85
828.697	668.4639	18443.85	17610.9
828.8418	670.5716	18453.55	17623.45
828.9865	672.6786	18414.7	17582.65
829.1313	674.785	18368.8	17536.7
829.2761	676.8907	18330.3	17498.2
829.4209	678.9958	18335.25	17505.2
829.5657	681.1002	18263.35	17430
829.7105	683.204	18226.2	17388.45
829.8553	685.3072	18229.25	17394.1
830.0001	687.4097	18211.4	17377.25
830.1449	689.5115	18203.45	17366.9
830.2898	691.6127	18198.4	17366.2
830.4346	693.7132	18147.4	17313.4
830.5794	695.8131	18155.75	17303.35
830.7243	697.9123	18146	17308.45
830.8691	700.0109	18119.35	17283.55
831.014	702.1089	18075.2	17239.9
831.1588	704.2061	18035.75	17198.65
831.3037	706.3028	18066.55	17228.1
831.4486	708.3987	18080	17240.6
831.5935	710.4941	18050.65	17213
831.7383	712.5887	18058.05	17217.6
831.8832	714.6827	18048.9	17206.9
832.0281	716.7761	18009.3	17169
832.173	718.8688	18012.95	17171.8
832.3179	720.9608	17945.8	17101.45
832.4628	723.0522	17990.85	17147.3
832.6077	725.1429	17954.2	17114.8
832.7527	727.233	17905.1	17064.65
832.8976	729.3224	17967.6	17124.3
833.0425	731.4112	17943.1	17100.95
833.1874	733.4993	17897.7	17052.8
833.3324	735.5867	17841.45	16999.85
833.4773	737.6735	17806.7	16963.35
833.6222	739.7596	17769.65	16926.35
833.7672	741.845	17729.4	16883
833.9122	743.9298	17689.65	16845.05
834.0571	746.014	17660.5	16819.1
834.2021	748.0974	17625.05	16781.65
834.347	750.1802	17596.2	16751.7
834.492	752.2624	17542.25	16697.2
834.637	754.3439	17442.7	16596.35
834.782	756.4247	17373.65	16520.1
834.9269	758.5048	17352.2	16508.65
835.0719	760.5843	17343.8	16496.8
835.2169	762.6631	17297.55	16453.05
835.3619	764.7413	17299.85	16454.2
835.5069	766.8188	17300.35	16453.7
835.6519	768.8956	17303	16453.55
835.7969	770.9718	17347.4	16501.8
835.9419	773.0473	17263.05	16414.5
836.0869	775.1221	17211.35	16365.3
836.232	777.1962	17155.5	16306.75
836.377	779.2697	17150.8	16301.35
836.522	781.3426	17145.9	16279.95
836.667	783.4147	17162.85	16313.45
836.8121	785.4862	17137.2	16291.95
836.9571	787.557	17081.15	16232.8
837.1021	789.6271	16989.6	16139.35
837.2472	791.6966	16885.15	16035.75
837.3922	793.7654	16798.9	15949.5
837.5373	795.8335	16779.7	15930.9
837.6823	797.901	16715.25	15865.55
837.8274	799.9678	16669.8	15819.1
837.9724	802.0339	16674.5	15825.5
838.1175	804.0993	16652.1	15795.8
838.2626	806.1641	16585.65	15734.55
838.4076	808.2282	16536.8	15687.4
838.5527	810.2916	16534.9	15682.8
838.6978	812.3544	16511.45	15662.3
838.8428	814.4164	16487.65	15635.05
838.9879	816.4778	16509.6	15659.65
839.133	818.5385	16428.6	15576.9
839.2781	820.5986	16448.35	15596.7
839.4232	822.658	16467.05	15614.65
839.5682	824.7166	16439.35	15589.5
839.7133	826.7747	16530.45	15680.8
839.8584	828.832	16512.05	15657.2
840.0035	830.8886	16455.8	15598.15
840.1486	832.9446	16466.95	15612.7
840.2937	834.9999	16404.45	15553
840.4388	837.0545	16371.2	15514.45
840.5839	839.1085	16314.75	15460.7
840.729	841.1618	16241.4	15383.65
840.8741	843.2143	16217.25	15363.55
841.0192	845.2662	16145.45	15293.3
841.1643	847.3175	16155.5	15304.15
841.3095	849.368	16098.45	15244.55
841.4546	851.4179	16072.35	15218.75
841.5997	853.467	15994.9	15138.25
841.7448	855.5155	15999.25	15145.3
841.8899	857.5633	15975.95	15122.15
842.0351	859.6105	15895.5	15042.55
842.1802	861.6569	15908.15	15055.05
842.3253	863.7027	15864.2	15008.2
842.4704	865.7478	15853.25	14998.45
842.6156	867.7922	15845.45	14989.6
842.7607	869.8359	15791.6	14935.25
842.9058	871.8789	15754.15	14895.8
843.0509	873.9212	15759.7	14873.4
843.1961	875.9629	15713.95	14856.55
843.3412	878.0039	15698	14839.5
843.4863	880.0441	15675.6	14817.6
843.6315	882.0837	15704.75	14846.55
843.7766	884.1226	15675.8	14819.65
843.9218	886.1609	15687.85	14830.7
844.0669	888.1984	15711.35	14856.25
844.212	890.2352	15762.05	14906.05
844.3572	892.2714	15708.6	14845.1
844.5023	894.3069	15709.2	14851.15
844.6475	896.3416	15608.9	14749.55
844.7926	898.3757	15592.3	14732.5
844.9377	900.4091	15561.1	14701.4
845.0829	902.4418	15548.3	14684.8
845.228	904.4739	15480.15	14619.75
845.3732	906.5052	15484.05	14624.65
845.5183	908.5358	15457.7	14598.4
845.6635	910.5658	15431.45	14568.75
845.8086	912.595	15396.4	14536.2
845.9538	914.6236	15318.95	14460.75
846.0989	916.6515	15276.3	14417.1
846.2441	918.6786	15248.95	14388.4
846.3892	920.7051	15242.25	14379.4
846.5344	922.7309	15235.55	14375.35
846.6795	924.756	15192.4	14330.3
846.8246	926.7804	15178.1	14314.95
846.9698	928.8041	15091.6	14229.2
847.1149	930.8272	15099.15	14238.15
847.2601	932.8495	15041	14178.15
847.4052	934.8711	15072.8	14211.95
847.5504	936.892	15006.8	14145.8
847.6955	938.9123	14945.95	14083.15
847.8407	940.9318	14909.85	14047.55
847.9858	942.9506	14884.2	14021.1
848.131	944.9688	14824.55	13964.3
848.2761	946.9862	14761.55	13898.6
848.4213	949.003	14730.95	13868.95
848.5664	951.019	14675.45	13813.3
848.7115	953.0344	14639.55	13775.95
848.8567	955.0491	14576.25	13710.55
849.0018	957.063	14569.1	13705.65
849.147	959.0763	14598.65	13736.3
849.2921	961.0888	14561.45	13698.45
849.4373	963.1007	14552.75	13690.75
849.5824	965.1119	14514.9	13653.55
849.7275	967.1223	14524.2	13662.1
849.8727	969.1321	14480.8	13620.5
850.0178	971.1412	14436.25	13573.85
850.1629	973.1495	14386.15	13520.95
850.3081	975.1572	14428.55	13517.75
850.4532	977.1641	14372.35	13508.1
850.5983	979.1704	14309.65	13445.25
850.7435	981.1759	14294.85	13428.9
850.8886	983.1808	14308.9	13441.8
851.0337	985.1849	14239	13362.8
851.1788	987.1884	14207.15	13338.95
851.324	989.1911	14179.95	13310.8
851.4691	991.1932	14174.75	13308.7
851.6142	993.1945	14128.05	13264.7
851.7593	995.1951	14071.3	13206.3
851.9045	997.1951	14040.6	13171.1
852.0496	999.1943	13962.45	13098.15
852.1947	1001.1928	13890.95	13023.75
852.3398	1003.1906	13850.45	12986
852.4849	1005.1877	13883.4	13015.6
852.63	1007.1841	13833.6	12968.8
852.7751	1009.1798	13794.95	12929
852.9202	1011.1748	13740.2	12874.75
853.0653	1013.1691	13728.45	12860.9
853.2104	1015.1627	13682.95	12816.6
853.3555	1017.1556	13536.4	12673
853.5006	1019.1477	13511.35	12645.35
853.6457	1021.1392	13419.55	12553.7
853.7908	1023.1299	13380.95	12514
853.9359	1025.12	13360.9	12495.2
854.081	1027.1093	13291.9	12428.3
854.2261	1029.0979	13274.9	12409.6
854.3712	1031.0859	13223.1	12359.15
854.5163	1033.0731	13218.3	12352.3
854.6613	1035.0596	13153.3	12286.1
854.8064	1037.0454	13068.65	12202.15
854.9515	1039.0304	13065.5	12196.8
855.0965	1041.0148	13012.05	12145.1
855.2416	1042.9985	12980.05	12110.8
855.3867	1044.9814	12948.9	12080.4
855.5317	1046.9636	12909.2	12041
855.6768	1048.9452	12872.35	12005.7
855.8219	1050.926	12832.9	11966.15
855.9669	1052.9061	12802.15	11935.95
856.112	1054.8855	12783.1	11915.65
856.257	1056.8642	12754.2	11887.75
856.4021	1058.8421	12777.75	11905.7
856.5471	1060.8194	12716.25	11846.2
856.6921	1062.7959	12667.45	11799.8
856.8372	1064.7717	12643.8	11773.5
856.9822	1066.7469	12637.4	11768.65
857.1272	1068.7213	12616.75	11745.45
857.2723	1070.695	12593	11724.8
857.4173	1072.6679	12553.4	11684.65
857.5623	1074.6402	12566.95	11696.15
857.7073	1076.6117	12545.6	11672.55
857.8523	1078.5826	12549	11679.15
857.9973	1080.5527	12464.7	11591.95
858.1423	1082.5221	12423.65	11552.9
858.2873	1084.4908	12380.2	11511.3
858.4323	1086.4587	12354.75	11483.8
858.5773	1088.426	12350.3	11478.6
858.7223	1090.3925	12308.85	11433.45
858.8673	1092.3584	12297.85	11428.65
859.0123	1094.3235	12201.9	11333.6
859.1573	1096.2879	12196.2	11324.9
859.3022	1098.2515	12195.35	11324.65
859.4472	1100.2145	12162.95	11291.05
859.5922	1102.1767	12170.05	11296.25
859.7371	1104.1382	12175	11305.8
859.8821	1106.099	12186.35	11314.35
860.027	1108.0591	12166.35	11295.4
860.172	1110.0185	12160.65	11288.35
860.3169	1111.9771	12157.1	11286.25
860.4619	1113.9351	12142.65	11271.4
860.6068	1115.8923	12141.45	11268.35
860.7517	1117.8488	12161.9	11290.25
860.8967	1119.8045	12086.1	11216.9
861.0416	1121.7596	12010	11138.8
861.1865	1123.7139	11891.9	11023.45
861.3314	1125.6675	11874.4	11003.3
861.4763	1127.6204	11844.5	10974.75
861.6212	1129.5726	11845.65	10972.25
861.7661	1131.524	11819.6	10947.4
861.911	1133.4748	11778.55	10907.55
862.0559	1135.4248	11728.95	10854.7
862.2008	1137.3741	11671.05	10800.05
862.3457	1139.3226	11606.8	10733.3
862.4905	1141.2705	11618.15	10747.55
862.6354	1143.2176	11559.25	10680.6
862.7803	1145.164	11560.85	10686.85
862.9251	1147.1097	11518.1	10644.55
863.07	1149.0546	11494.5	10621.95
863.2148	1150.9989	11498.3	10626.6
863.3597	1152.9424	11467.9	10595.85
863.5045	1154.8852	11425.35	10552.15
863.6493	1156.8272	11425.75	10553.95
863.7942	1158.7686	11429	10550.9
863.939	1160.7092	11386.7	10512.95
864.0838	1162.6491	11350.45	10474.5
864.2286	1164.5883	11334	10462
864.3734	1166.5267	11347	10474.15
864.5182	1168.4644	11317.95	10443.45
864.663	1170.4014	11313.55	10435.8
864.8078	1172.3377	11332.45	10462.7
864.9526	1174.2732	11354.85	10483.85
865.0974	1176.2081	11393.95	10522.5
865.2421	1178.1421	11444.05	10568.25
865.3869	1180.0755	11493.95	10623.25
865.5317	1182.0082	11475.55	10602.7
865.6764	1183.9401	11467.1	10591.3
865.8212	1185.8713	11353.7	10478.9
865.9659	1187.8017	11315.55	10443.35
866.1106	1189.7315	11236.45	10365.25
866.2554	1191.6605	11090	10217.8
866.4001	1193.5888	11024.05	10152.55
866.5448	1195.5163	11014.05	10143.15
866.6895	1197.4432	10961.45	10088.3
866.8342	1199.3693	10927.15	10054.8
866.9789	1201.2947	10872.9	9992.1
867.1236	1203.2193	10825.5	9953.45
867.2683	1205.1432	10802.35	9928.25
867.413	1207.0664	10783.55	9910.1
867.5576	1208.9889	10763.45	9886.15
867.7023	1210.9106	10711.85	9838.85
867.847	1212.8316	10667.55	9794.6
867.9916	1214.7519	10665.2	9782.85
868.1363	1216.6715	10606.05	9734.5
868.2809	1218.5903	10610	9736.9
868.4255	1220.5084	10594.1	9720.7
868.5701	1222.4257	10603.7	9727.9
868.7148	1224.3424	10579.1	9704.4
868.8594	1226.2583	10572.6	9694.3
869.004	1228.1735	10553.85	9679.6
869.1486	1230.0879	10523	9647.55
869.2932	1232.0016	10530.95	9657.8
869.4377	1233.9146	10523.35	9649
869.5823	1235.8269	10518.15	9644.05
869.7269	1237.7384	10506.15	9630.5
869.8715	1239.6492	10464.25	9588.7
870.016	1241.5592	10462.85	9587.4
870.1606	1243.4686	10433.15	9558.7
870.3051	1245.3772	10459.35	9584.75
870.4496	1247.285	10482.4	9609.05
870.5941	1249.1922	10511	9638.7
870.7387	1251.0986	10555.1	9681.35
870.8832	1253.0042	10572	9696.75
871.0277	1254.9092	10594.25	9718.7
871.1722	1256.8134	10626.95	9752.75
871.3167	1258.7169	10690.35	9814.7
871.4611	1260.6196	10658.5	9784.55
871.6056	1262.5216	10657.95	9780.8
871.7501	1264.4229	10618.45	9745.1
871.8945	1266.3234	10640.5	9764.35
872.039	1268.2232	10577.4	9703.2
872.1834	1270.1223	10517.9	9641.3
872.3278	1272.0207	10483.85	9608.2
872.4723	1273.9183	10458	9576.4
872.6167	1275.8151	10426.7	9550.05
872.7611	1277.7113	10447.2	9569.15
872.9055	1279.6067	10482.7	9608.1
873.0499	1281.5014	10522	9643.55
873.1943	1283.3953	10622.65	9742.5
873.3386	1285.2885	10727.05	9853.85
873.483	1287.181	10821.2	9944.95
873.6274	1289.0727	10847.3	9972.5
873.7717	1290.9637	10806.25	9931.2
873.9161	1292.854	10761.3	9884.7
874.0604	1294.7435	10650.75	9775.6
874.2047	1296.6323	10586.6	9709.5
874.349	1298.5204	10512.3	9631.35
874.4933	1300.4077	10439	9562.55
874.6376	1302.2943	10400.6	9523.6
874.7819	1304.1802	10387.4	9513.1
874.9262	1306.0653	10337.55	9459.2
875.0705	1307.9497	10299.7	9422.15
875.2147	1309.8333	10279	9405.15
875.359	1311.7162	10257.4	9379.75
875.5032	1313.5984	10220.9	9342.65
875.6475	1315.4798	10204.05	9316.65
875.7917	1317.3605	10195.35	9303
875.9359	1319.2405	10181.2	9307.3
876.0801	1321.1197	10161.65	9283.25
876.2243	1322.9982	10091.95	9211.95
876.3685	1324.876	10043.45	9167.8
876.5127	1326.753	9971.15	9093
876.6569	1328.6293	9919.65	9042.1
876.801	1330.5048	9889.1	9010.05
876.9452	1332.3796	9778.2	8903.05
877.0893	1334.2537	9771.2	8871.4
877.2335	1336.127	9722.95	8845.6
877.3776	1337.9996	9665.55	8790.25
877.5217	1339.8714	9648.55	8772
877.6658	1341.7426	9661.85	8740.55
877.8099	1343.6129	9610	8731.55
877.954	1345.4826	9582.95	8705.75
878.0981	1347.3515	9576.8	8697.5
878.2422	1349.2196	9541.05	8665.7
878.3862	1351.087	9538.3	8660.65
878.5303	1352.9537	9513.65	8637.95
878.6743	1354.8197	9535.1	8658.4
878.8184	1356.6849	9502.1	8624.35
878.9624	1358.5493	9477.55	8601.15
879.1064	1360.4131	9496.65	8621.05
879.2504	1362.276	9490.2	8615.7
879.3944	1364.1383	9509.6	8633.45
879.5384	1365.9998	9459.1	8576.75
879.6823	1367.8606	9457.3	8582.2
879.8263	1369.7206	9432.7	8556.95
879.9702	1371.5799	9423.35	8545.3
880.1142	1373.4384	9392.9	8514.15
880.2581	1375.2962	9343.05	8465.7
880.402	1377.1533	9286.95	8410.55
880.5459	1379.0096	9245.1	8366.05
880.6898	1380.8652	9185.25	8307.55
880.8337	1382.7201	9163.25	8285.55
880.9776	1384.5742	9101.25	8225.35
881.1215	1386.4275	9040.85	8163.6
881.2653	1388.2802	8998.35	8122.55
881.4092	1390.132	8963.3	8086.25
881.553	1391.9832	8977.55	8099
881.6968	1393.8336	8925.85	8048.3
881.8406	1395.6832	8910.35	8032.35
881.9844	1397.5322	8878.5	7999.65
882.1282	1399.3803	8865.55	7983.15
882.272	1401.2278	8781.25	7903.25
882.4158	1403.0745	8762.75	7885.4
882.5595	1404.9204	8714.65	7838.3
882.7033	1406.7656	8691.2	7813.95
882.847	1408.6101	8667.85	7791.25
882.9908	1410.4538	8648.5	7771.45
883.1345	1412.2968	8627.4	7748.65
883.2782	1414.139	8591.35	7714.15
883.4219	1415.9805	8595.85	7718.65
883.5656	1417.8213	8570.6	7672.1
883.7092	1419.6613	8549.15	7673.8
883.8529	1421.5006	8559.95	7682.4
883.9965	1423.3391	8555.25	7678
884.1402	1425.1769	8522.25	7641.7
884.2838	1427.0139	8562.9	7687.3
884.4274	1428.8502	8591.8	7714.5
884.571	1430.6858	8633.65	7756.6
884.7146	1432.5206	8615.25	7738.95
884.8582	1434.3547	8620.3	7742.05
885.0018	1436.188	8579.15	7700.8
885.1453	1438.0206	8561.9	7682.95
885.2889	1439.8524	8535.7	7658.25
885.4324	1441.6835	8531	7652.15
885.5759	1443.5139	8506.65	7626.15
885.7194	1445.3435	8497.35	7619.6
885.8629	1447.1724	8482.15	7604.85
886.0064	1449.0005	8456.7	7579.4
886.1499	1450.8279	8447.1	7567.6
886.2933	1452.6545	8449.35	7571.5
886.4368	1454.4804	8428	7551.85
886.5802	1456.3056	8429.85	7543.5
886.7237	1458.13	8400.2	7523.5
886.8671	1459.9536	8369.2	7490.6
887.0105	1461.7766	8340.4	7463.6
887.1539	1463.5987	8287.75	7408.2
887.2972	1465.4202	8234.75	7357.75
887.4406	1467.2409	8206.95	7329.65
887.584	1469.0608	8180.65	7304.7
887.7273	1470.88	8157.3	7280.25
887.8706	1472.6984	8111.6	7235.65
888.0139	1474.5161	8081.05	7203
888.1572	1476.3331	8060.3	7181.95
888.3005	1478.1493	8024.3	7146.85
888.4438	1479.9648	8018.8	7139.85
888.5871	1481.7795	7985.1	7107.55
888.7303	1483.5935	7999.95	7122.2
888.8736	1485.4067	7959.5	7081.8
889.0168	1487.2192	7969.2	7091.1
889.16	1489.031	7956.25	7074.6
889.3032	1490.842	7946	7068
889.4464	1492.6522	7913.6	7037.6
889.5896	1494.4618	7895.15	7015.25
889.7327	1496.2705	7871.15	6993.85
889.8759	1498.0785	7860.65	6982.95
890.019	1499.8858	7847.8	6969.55
890.1622	1501.6924	7828	6951.15
890.3053	1503.4981	7824.5	6947.6
890.4484	1505.3032	7802.25	6923.8
890.5914	1507.1075	7768.75	6889.9
890.7345	1508.911	7729.95	6849.65
890.8776	1510.7138	7741.35	6862.95
891.0206	1512.5159	7679.25	6801.3
891.1637	1514.3172	7670.65	6793
891.3067	1516.1178	7638.1	6761.4
891.4497	1517.9176	7651.1	6771.5
891.5927	1519.7166	7579.15	6701.35
891.7357	1521.515	7585.95	6701.95
891.8786	1523.3126	7581.35	6703.1
892.0216	1525.1094	7540.2	6657.45
892.1645	1526.9055	7488.45	6611.5
892.3074	1528.7008	7468.1	6590.2
892.4503	1530.4954	7412.05	6532.4
892.5932	1532.2893	7417.65	6541.55
892.7361	1534.0824	7385.6	6503.4
892.879	1535.8747	7356.85	6479.45
893.0218	1537.6663	7333.1	6454.7
893.1647	1539.4572	7308.85	6426.1
893.3075	1541.2473	7285.9	6407.4
893.4503	1543.0367	7260.55	6384.2
893.5931	1544.8253	7224.7	6343.35
893.7359	1546.6132	7215.7	6335.2
893.8787	1548.4003	7200.9	6314.35
894.0214	1550.1867	7197.9	6311.15
894.1642	1551.9723	7171.65	6288.35
894.3069	1553.7572	7153.7	6275
894.4496	1555.5414	7142.95	6263.45
894.5923	1557.3247	7145.85	6267.45
894.735	1559.1074	7146.8	6270.85
894.8777	1560.8893	7137.55	6260.65
895.0204	1562.6705	7143.1	6264.9
895.163	1564.4509	7128.3	6251.3
895.3056	1566.2305	7114.9	6239.75
895.4482	1568.0094	7130.85	6254.1
895.5908	1569.7876	7120.3	6242.2
895.7334	1571.565	7096.75	6218.45
895.876	1573.3417	7072.15	6196.05
896.0186	1575.1176	7058.1	6179.9
896.1611	1576.8928	7044.45	6164.45
896.3036	1578.6672	7018.05	6141.6
896.4461	1580.4409	7027.9	6153.1
896.5886	1582.2138	7021.25	6142.75
896.7311	1583.986	6998.85	6122.65
896.8736	1585.7575	7018.45	6140.9
897.0161	1587.5282	7021.2	6144.2
897.1585	1589.2981	7035.95	6161.45
897.3009	1591.0673	7011.35	6132.05
897.4433	1592.8358	7005.4	6127.65
897.5857	1594.6035	7001.05	6123.45
897.7281	1596.3704	6949.7	6070.3
897.8705	1598.1366	6938.2	6060.2
898.0128	1599.9021	6885	6005.9
898.1551	1601.6668	6824.6	5945.15
898.2975	1603.4308	6792.65	5914.7
898.4398	1605.194	6789.95	5909
898.5821	1606.9564	6776.6	5900.5
898.7243	1608.7182	6787.2	5907.8
898.8666	1610.4791	6819	5943.65
899.0088	1612.2394	6859.1	5983.3
899.1511	1613.9988	6906.75	6030.95
899.2933	1615.7576	6931.65	6056.65
899.4355	1617.5156	6952.65	6071.65
899.5776	1619.2728	6918.8	6043.3
899.7198	1621.0293	6855.25	5979.05
899.862	1622.785	6758.3	5877.65
900.0041	1624.54	6668.95	5790
900.1462	1626.2942	6573.7	5693.8
900.2883	1628.0477	6479.6	5599.6
900.4304	1629.8005	6416.5	5535.75
900.5725	1631.5525	6342.35	5465.8
900.7145	1633.3037	6301.15	5422.7
900.8566	1635.0542	6243.4	5367
900.9986	1636.804	6212	5335.25
901.1406	1638.553	6241.25	5274.95
901.2826	1640.3013	6138.25	5262.15
901.4245	1642.0488	6106.65	5227.3
901.5665	1643.7955	6086.55	5209.5
901.7085	1645.5416	6043	5166.1
901.8504	1647.2868	6026.2	5151.15
901.9923	1649.0313	5997.15	5120.2
902.1342	1650.7751	5982.15	5101.15
902.2761	1652.5181	5983.6	5106.6
902.4179	1654.2604	5957.45	5078.25
902.5598	1656.0019	5936.55	5059.7
902.7016	1657.7427	5930.3	5055
902.8434	1659.4828	5925.3	5049.05
902.9852	1661.222	5926.15	5048.85
903.127	1662.9606	5935.85	5057.3
903.2687	1664.6984	5917.8	5041.05
903.4105	1666.4354	5920.1	5042.2
903.5522	1668.1717	5901.3	5024.1
903.6939	1669.9072	5835.5	4955.35
903.8356	1671.642	5807.05	4927
903.9773	1673.3761	5775.2	4897.65
904.119	1675.1094	5726.8	4850.45
904.2606	1676.8419	5686.1	4809.35
904.4022	1678.5737	5650.55	4773.3
904.5439	1680.3048	5632.15	4751.05
904.6855	1682.0351	5603.15	4724.65
904.827	1683.7646	5575.5	4694.8
904.9686	1685.4934	5563.5	4688.8
905.1101	1687.2215	5533.55	4654.8
905.2517	1688.9488	5479.8	4603.25
905.3932	1690.6754	5471.9	4595.9
905.5347	1692.4012	5463.8	4587.3
905.6761	1694.1263	5437	4560.7
905.8176	1695.8506	5443.75	4564.9
905.9591	1697.5742	5397.2	4520.1
906.1005	1699.297	5380.05	4502.85
906.2419	1701.0191	5344.2	4468.4
906.3833	1702.7404	5326.35	4449.85
906.5246	1704.461	5300.95	4421.8
906.666	1706.1808	5284.1	4405.35
906.8073	1707.8999	5282.25	4402.35
906.9487	1709.6182	5266.95	4389.45
907.09	1711.3358	5243.55	4368
907.2313	1713.0527	5240.55	4364.85
907.3725	1714.7688	5205	4323.9
907.5138	1716.4841	5211.2	4333.45
907.655	1718.1987	5210.05	4327.85
907.7962	1719.9126	5187.55	4311.75
907.9374	1721.6257	5169.3	4289.4
908.0786	1723.338	5136.35	4259.55
908.2198	1725.0496	5136.1	4257
908.3609	1726.7605	5119.1	4242.55
908.502	1728.4706	5108.35	4230.05
908.6431	1730.18	5089.9	4210.65
908.7842	1731.8886	5081.75	4205.1
908.9253	1733.5964	5089.35	4208.2
909.0664	1735.3036	5077.3	4199.15
909.2074	1737.0099	5060.35	4182.2
909.3484	1738.7156	5046.8	4169.1
909.4894	1740.4204	5029.85	4151.3
909.6304	1742.1246	5030.25	4151.85
909.7714	1743.8279	5024.3	4150
909.9123	1745.5306	5026.75	4150
910.0532	1747.2325	5011.1	4133.6
910.1941	1748.9336	4989.25	4113.25
910.335	1750.634	4970.75	4091.7
910.4759	1752.3336	4986.9	4111.15
910.6168	1754.0325	4973.95	4099.75
910.7576	1755.7307	4955.75	4078.7
910.8984	1757.4281	4985.45	4107.95
911.0392	1759.1247	4974.1	4087.55
911.18	1760.8206	4951.55	4069.55
911.3208	1762.5158	4958.6	4077.45
911.4615	1764.2102	4929.9	4051.5
911.6022	1765.9039	4916.9	4039.5
911.7429	1767.5968	4908.35	4031.65
911.8836	1769.289	4891.15	4013.1
912.0243	1770.9804	4885.55	4007.85
912.1649	1772.6711	4877.75	4002.05
912.3056	1774.361	4877.2	4000.2
912.4462	1776.0502	4863.55	3988.85
912.5868	1777.7386	4862.95	3983.5
912.7274	1779.4263	4837.95	3961.1
912.8679	1781.1132	4841.15	3963.2
913.0084	1782.7994	4827.4	3947.35
913.149	1784.4849	4811.65	3934.75
913.2895	1786.1696	4817.3	3920.95
913.4299	1787.8535	4796	3921.9
913.5704	1789.5367	4790.1	3913.8
913.7108	1791.2192	4764.05	3885.55
913.8513	1792.9009	4777	3873.2
913.9917	1794.5818	4765.6	3888.85
914.132	1796.2621	4746.7	3870.8
914.2724	1797.9415	4736.9	3858.75
914.4128	1799.6202	4713.6	3835.85
914.5531	1801.2982	4709.95	3833.7
914.6934	1802.9755	4709.2	3831.1
914.8337	1804.6519	4703.65	3827.45
914.9739	1806.3277	4680.85	3803.65
915.1142	1808.0027	4641.9	3766.7
915.2544	1809.6769	4653.35	3778.05
915.3946	1811.3504	4642.8	3763.75
915.5348	1813.0231	4650.1	3771.4
915.675	1814.6951	4643.25	3766.55
915.8151	1816.3664	4638.95	3758.25
915.9553	1818.0369	4612.55	3737.55
916.0954	1819.7067	4604.2	3725.9
916.2355	1821.3757	4596.4	3716.75
916.3755	1823.044	4587.5	3711.2
916.5156	1824.7115	4573.5	3694.65
916.6556	1826.3783	4569	3693.65
916.7956	1828.0443	4546.05	3670
916.9356	1829.7096	4550.85	3672.05
917.0756	1831.3741	4526.35	3648.15
917.2155	1833.0379	4537.45	3659.4
917.3555	1834.701	4510.7	3632.25
917.4954	1836.3633	4522.9	3646.05
917.6353	1838.0248	4512.85	3634.5
917.7751	1839.6856	4509.8	3631.45
917.915	1841.3457	4493.45	3617.3
918.0548	1843.005	4477.25	3599.9
918.1946	1844.6636	4481.65	3604.6
918.3344	1846.3214	4465.6	3588.6
918.4742	1847.9785	4459.6	3582.65
918.6139	1849.6349	4460.75	3582.35
918.7537	1851.2904	4454.15	3565.3
918.8934	1852.9453	4436.8	3559.2
919.0331	1854.5994	4423.3	3544.25
919.1727	1856.2528	4428.55	3546.45
919.3124	1857.9054	4417	3540
919.452	1859.5572	4412.4	3536.25
919.5916	1861.2083	4411.35	3533.15
919.7312	1862.8587	4386.5	3507.35
919.8708	1864.5084	4362.2	3485.2
920.0103	1866.1572	4360.25	3483.9
920.1498	1867.8054	4362.65	3487
920.2893	1869.4528	4348.2	3471.75
920.4288	1871.0994	4321.2	3444.65
920.5683	1872.7453	4341.4	3464.35
920.7077	1874.3905	4326.85	3443.95
920.8471	1876.0349	4313.95	3432.3
920.9865	1877.6786	4316.2	3437.65
921.1259	1879.3215	4311.2	3433.6
921.2653	1880.9637	4299.1	3419.15
921.4046	1882.6051	4299.8	3423.2
921.5439	1884.2458	4271	3391.65
921.6832	1885.8858	4257.65	3380.2
921.8225	1887.525	4262.2	3382.8
921.9617	1889.1634	4239.6	3361.2
922.101	1890.8011	4225.4	3346.75
922.2402	1892.4381	4225.2	3348.8
922.3794	1894.0743	4232.35	3355.6
922.5185	1895.7098	4226.6	3350.05
922.6577	1897.3446	4221.05	3341.7
922.7968	1898.9786	4200.35	3318.5
922.9359	1900.6118	4196.35	3320.6
923.075	1902.2443	4176.45	3297.95
923.214	1903.8761	4178.7	3302
923.3531	1905.5071	4159.65	3280.35
923.4921	1907.1374	4151.65	3273.65
923.6311	1908.7669	4147.95	3269.35
923.77	1910.3957	4142.45	3265.1
923.909	1912.0237	4115.35	3237.75
924.0479	1913.651	4116.55	3238.55
924.1868	1915.2776	4103.25	3226.55
924.3257	1916.9034	4099.65	3222.95
924.4646	1918.5285	4094.9	3218.35
924.6034	1920.1528	4069.05	3191.6
924.7422	1921.7764	4074.8	3196.65
924.881	1923.3992	4050.35	3174.25
925.0198	1925.0213	4032.1	3153.75
925.1586	1926.6427	4024.55	3148.85
925.2973	1928.2633	4191.5	3097.6
925.436	1929.8832	4051.45	3171.55
925.5747	1931.5023	4008.3	3130.15
925.7134	1933.1207	3992.2	3114.55
925.852	1934.7383	3976.5	3101.45
925.9906	1936.3552	3968.7	3092.4
926.1292	1937.9714	3966.7	3090.5
926.2678	1939.5868	3961.95	3084.9
926.4064	1941.2015	3944.4	3068.3
926.5449	1942.8154	3943.75	3064.65
926.6834	1944.4286	3915.4	3037.35
926.8219	1946.041	3932.3	3032.6
926.9604	1947.6528	3905.5	3022.35
927.0988	1949.2637	3876.05	2998.35
927.2372	1950.8739	3887.2	3010.35
927.3756	1952.4834	3873.3	2996.5
927.514	1954.0921	3864.05	2987.7
927.6523	1955.7001	3859.85	2978.5
927.7907	1957.3074	3857.15	2981.3
927.929	1958.9139	3850.35	2974
928.0673	1960.5197	3829.3	2953.3
928.2055	1962.1247	3814.95	2936.95
928.3438	1963.729	3801.35	2927.2
928.482	1965.3325	3825.25	2924.75
928.6202	1966.9353	3799.45	2921.8
928.7584	1968.5374	3788.8	2910.55
928.8965	1970.1387	3785.65	2906.6
929.0346	1971.7393	3765.85	2887.85
929.1727	1973.3392	3757.2	2880.8
929.3108	1974.9383	3754.8	2878.35
929.4489	1976.5366	3740.3	2863.65
929.5869	1978.1342	3738.55	2860.5
929.7249	1979.7311	3735.35	2858.15
929.8629	1981.3273	3708.2	2831.05
930.0009	1982.9227	3712.4	2836.1
930.1388	1984.5173	3708.15	2832.75
930.2767	1986.1112	3697.8	2822.1
930.4146	1987.7044	3692.3	2816.9
930.5525	1989.2968	3682.8	2803.95
930.6904	1990.8885	3688.7	2809.6
930.8282	1992.4795	3687.7	2809.1
930.966	1994.0697	3662.85	2787.85
931.1038	1995.6592	3645.65	2770.85
931.2415	1997.2479	3647.9	2771.35
931.3793	1998.8359	3639.25	2763.55
931.517	2000.4232	3632.3	2757
931.6547	2002.0097	3622.15	2747.95
931.7923	2003.5955	3621.05	2744.3
931.93	2005.1805	3621.85	2743.35
932.0676	2006.7648	3614.7	2737.7
932.2052	2008.3484	3607.8	2729.45
932.3427	2009.9312	3604.15	2724.45
932.4803	2011.5133	3591.4	2717.3
932.6178	2013.0946	3593.25	2718.05
932.7553	2014.6752	3572.85	2697.65
932.8928	2016.2551	3582.8	2705.75
933.0302	2017.8342	3564.55	2688.45
933.1676	2019.4126	3549.05	2674.75
933.305	2020.9902	3543	2668.2
933.4424	2022.5672	3538.8	2662.8
933.5798	2024.1433	3542.7	2661
933.7171	2025.7188	3527.65	2652.5
933.8544	2027.2935	3527.55	2648.85
933.9917	2028.8674	3528.85	2654.3
934.129	2030.4406	3499.3	2625.05
934.2662	2032.0131	3483.75	2609.05
934.4034	2033.5849	3482.15	2602.65
934.5406	2035.1559	3462.95	2587.6
934.6778	2036.7261	3489.9	2613.9
934.8149	2038.2957	3473.25	2597.45
934.952	2039.8645	3485.7	2610
935.0891	2041.4325	3474.95	2594.75
935.2262	2042.9998	3462.3	2586.05
935.3632	2044.5664	3457	2577.4
935.5002	2046.1323	3451.8	2576.45
935.6372	2047.6974	3450.15	2576.15
935.7742	2049.2617	3457.2	2582.9
935.9111	2050.8254	3453.75	2575.25
936.048	2052.3883	3459.6	2581.8
936.1849	2053.9504	3444.25	2569.7
936.3218	2055.5118	3440.45	2562.25
936.4586	2057.0725	3417.05	2537.55
936.5955	2058.6325	3419.4	2541.2
936.7323	2060.1917	3417.8	2539.7
936.869	2061.7502	3412.6	2533.65
937.0058	2063.3079	3403.4	2526.7
937.1425	2064.8649	3404.9	2525.85
937.2792	2066.4212	3400.95	2523.4
937.4159	2067.9767	3384.85	2509.7
937.5525	2069.5315	3390.5	2514.25
937.6891	2071.0856	3381.65	2505.25
937.8257	2072.6389	3352.95	2476.1
937.9623	2074.1915	3354.75	2481.75
938.0989	2075.7433	3347.25	2469.85
938.2354	2077.2945	3346.85	2473.25
938.3719	2078.8448	3333.95	2459.1
938.5084	2080.3945	3338.25	2464.8
938.6448	2081.9434	3339.85	2464.85
938.7812	2083.4916	3328.35	2451.25
938.9176	2085.039	3318.1	2440.9
939.054	2086.5857	3316.55	2439.25
939.1903	2088.1317	3313.25	2436.4
939.3267	2089.677	3308.75	2433.15
939.463	2091.2215	3298.55	2422.25
939.5992	2092.7652	3296.95	2419.15
939.7355	2094.3083	3286.3	2410.45
939.8717	2095.8506	3279.4	2403.25
940.0079	2097.3921	3290.7	2415.15
940.1441	2098.933	3297.4	2421.8
940.2802	2100.4731	3283.95	2409.1
940.4163	2102.0124	3309.85	2416.3
940.5524	2103.5511	3281.2	2407.2
940.6885	2105.089	3281.95	2405.1
940.8245	2106.6261	3268.3	2391.7
940.9606	2108.1626	3271.05	2392.95
941.0965	2109.6983	3280.15	2374.75
941.2325	2111.2332	3248.7	2372.6
941.3684	2112.7675	3247.75	2370.65
941.5044	2114.301	3242.1	2363.6
941.6403	2115.8337	3258.5	2383.2
941.7761	2117.3657	3251.45	2377.1
941.912	2118.897	3241.85	2365.6
942.0478	2120.4276	3250.5	2368.65
942.1835	2121.9575	3227.15	2351.95
942.3193	2123.4866	3218.5	2341.2
942.455	2125.0149	3222.05	2340.05
942.5907	2126.5426	3222.25	2345.95
942.7264	2128.0695	3216.4	2337.55
942.8621	2129.5956	3207.9	2331.7
942.9977	2131.1211	3203.15	2323.5
943.1333	2132.6458	3179.45	2305.9
943.2689	2134.1698	3179.55	2302.9
943.4044	2135.693	3184.4	2305.35
943.54	2137.2155	3178.8	2301.15
943.6755	2138.7373	3175.45	2297.55
943.8109	2140.2584	3174.55	2297.2
943.9464	2141.7787	3162.65	2280.95
944.0818	2143.2983	3148.7	2274.75
944.2172	2144.8171	3139.3	2264.65
944.3526	2146.3353	3139.05	2262.35
944.4879	2147.8527	3150.4	2276.2
944.6232	2149.3693	3130.4	2253.05
944.7585	2150.8853	3137.4	2260.45
944.8938	2152.4005	3116.7	2240.15
945.029	2153.9149	3123.7	2247.35
945.1642	2155.4287	3106.75	2230.95
945.2994	2156.9417	3109.65	2232.6
945.4346	2158.454	3110.25	2232.05
945.5697	2159.9655	3090.95	2215.65
945.7048	2161.4764	3093.45	2216.5
945.8399	2162.9865	3091.85	2217.65
945.9749	2164.4958	3080.45	2203.1
946.1099	2166.0045	3083.75	2203.85
946.2449	2167.5124	3082.3	2206.8
946.3799	2169.0195	3081	2206.7
946.5148	2170.526	3059.75	2182.85
946.6498	2172.0317	3052.55	2175.9
946.7846	2173.5367	3064.8	2187.65
946.9195	2175.0409	3044.95	2168.7
947.0543	2176.5445	3051.85	2176.95
947.1891	2178.0473	3031.2	2153.45
947.3239	2179.5494	3025.15	2145.85
947.4587	2181.0507	3026.9	2148.6
947.5934	2182.5513	3023.35	2148.05
947.7281	2184.0512	3003.95	2127.4
947.8628	2185.5504	3010.2	2133.05
947.9974	2187.0488	2989.05	2114.65
948.132	2188.5465	2982.75	2106.8
948.2666	2190.0435	2992.65	2118.25
948.4012	2191.5397	2969.65	2094.3
948.5357	2193.0353	2965.75	2089.6
948.6702	2194.5301	2964.6	2088.3
948.8047	2196.0241	2952.9	2076.35
948.9392	2197.5175	2951.35	2075.8
949.0736	2199.0101	2948.25	2067.75
949.208	2200.502	2922.9	2047.2
949.3424	2201.9931	2928	2052.2
949.4767	2203.4835	2926	2048.6
949.611	2204.9733	2929.05	2047.9
949.7453	2206.4622	2919.3	2043.15
949.8796	2207.9505	2910.65	2033.5
950.0138	2209.438	2912.2	2038.3
950.148	2210.9248	2897.35	2019.95
950.2822	2212.4109	2893.6	2018.2
950.4164	2213.8962	2876.2	1997.25
950.5505	2215.3809	2884.8	2007.65
950.6846	2216.8648	2882.65	2005.25
950.8186	2218.3479	2868.05	1986.4
950.9527	2219.8304	2856.7	1979.2
951.0867	2221.3121	2846.85	1970.35
951.2207	2222.7931	2838.2	1961.65
951.3546	2224.2733	2826.8	1949.85
951.4886	2225.7529	2825.9	1950.1
951.6225	2227.2317	2827.15	1948.9
951.7563	2228.7098	2816.1	1941.15
951.8902	2230.1872	2810.3	1933.85
952.024	2231.6638	2806	1930.6
952.1578	2233.1397	2803.55	1919.5
952.2916	2234.6149	2798.6	1923.4
952.4253	2236.0894	2800.25	1924.85
952.559	2237.5632	2792.15	1905.65
952.6927	2239.0362	2774.5	1898.75
952.8263	2240.5085	2774.2	1898.4
952.9599	2241.9801	2764.85	1888.65
953.0935	2243.4509	2766.45	1891.35
953.2271	2244.921	2750.3	1874.1
953.3606	2246.3904	2752.5	1874.45
953.4941	2247.8591	2738.9	1863.4
953.6276	2249.3271	2734.3	1858.55
953.7611	2250.7943	2724.15	1846.75
953.8945	2252.2608	2730.1	1854.7
954.0279	2253.7266	2723.75	1848.45
954.1612	2255.1917	2706.2	1831.95
954.2946	2256.656	2705.8	1828.95
954.4279	2258.1197	2690.95	1815.3
954.5612	2259.5826	2696.7	1819.4
954.6944	2261.0447	2696.05	1818.15
954.8276	2262.5062	2689.15	1811.8
954.9608	2263.9669	2684.8	1807.35
955.094	2265.4269	2676.9	1800.45
955.2271	2266.8862	2670.85	1796
955.3602	2268.3448	2674.55	1797.75
955.4933	2269.8026	2668.65	1793.6
955.6264	2271.2598	2650.45	1774.95
955.7594	2272.7162	2640	1765.2
955.8924	2274.1719	2646	1770.75
956.0253	2275.6268	2650	1773.35
956.1583	2277.0811	2641.6	1765.9
956.2912	2278.5346	2631.05	1754.2
956.4241	2279.9874	2632	1756.2
956.5569	2281.4395	2628.65	1753.2
956.6897	2282.8908	2631.15	1751.35
956.8225	2284.3414	2626.85	1749.95
956.9553	2285.7914	2607.35	1733.35
957.088	2287.2406	2611.65	1734.75
957.2207	2288.689	2608.2	1732.3
957.3534	2290.1368	2593.65	1715.75
957.486	2291.5838	2587.35	1711.85
957.6186	2293.0302	2593.5	1713
957.7512	2294.4758	2593.35	1716.85
957.8838	2295.9206	2575.65	1696.4
958.0163	2297.3648	2567.35	1691.75
958.1488	2298.8082	2566.1	1690.75
958.2813	2300.251	2562.45	1686.45
958.4137	2301.693	2564.85	1686.15
958.5461	2303.1343	2550.6	1673.5
958.6785	2304.5748	2539.55	1664
958.8108	2306.0147	2556.9	1680.4
958.9432	2307.4538	2531.85	1652.4
959.0754	2308.8922	2526.45	1650.85
959.2077	2310.3299	2523.85	1646.35
959.3399	2311.7669	2516.45	1640.3
959.4721	2313.2031	2523.45	1646.8
959.6043	2314.6387	2510.8	1634.35
959.7365	2316.0735	2504.25	1629.25
959.8686	2317.5076	2499.8	1623.55
960.0006	2318.941	2496.95	1622.2
960.1327	2320.3737	2503.45	1627.65
960.2647	2321.8056	2491.55	1615.85
960.3967	2323.2369	2472.95	1596
960.5287	2324.6674	2473.9	1593.65
960.6606	2326.0972	2478.9	1601.15
960.7925	2327.5263	2465.5	1590.5
960.9244	2328.9547	2467.35	1590.3
961.0562	2330.3823	2457.7	1583.3
961.1881	2331.8092	2455.9	1576.45
961.3198	2333.2355	2444.85	1568.25
961.4516	2334.661	2437.95	1562.75
961.5833	2336.0858	2436.6	1558.45
961.715	2337.5098	2438.3	1561.4
961.8467	2338.9332	2434.05	1556.75
961.9783	2340.3558	2427.05	1548.5
962.1099	2341.7778	2415.95	1538.95
962.2415	2343.199	2406.8	1527.1
962.373	2344.6195	2399.55	1523.65
962.5045	2346.0393	2410.95	1535.25
962.636	2347.4583	2403.25	1525.7
962.7675	2348.8767	2398.85	1522.8
962.8989	2350.2943	2391.3	1511.85
963.0303	2351.7113	2386.1	1506.5
963.1617	2353.1275	2376.8	1499.55
963.293	2354.543	2389.35	1503.7
963.4243	2355.9578	2373.6	1498
963.5556	2357.3718	2361.35	1484.6
963.6868	2358.7852	2359.05	1477.35
963.818	2360.1978	2350.45	1471.75
963.9492	2361.6098	2346.8	1470.35
964.0803	2363.021	2345.35	1464.1
964.2114	2364.4315	2333.2	1457.4
964.3425	2365.8413	2323.2	1443.7
964.4736	2367.2504	2323.85	1448.95
964.6046	2368.6587	2316.65	1441.2
964.7356	2370.0664	2317.45	1440.85
964.8666	2371.4733	2306.25	1431.15
964.9975	2372.8795	2304.05	1428.35
965.1284	2374.285	2289.4	1412.55
965.2593	2375.6899	2287	1411.3
965.3901	2377.0939	2285	1408.3
965.5209	2378.4973	2278.05	1400.35
965.6517	2379.9	2270.75	1393.7
965.7825	2381.3019	2262.85	1384.7
965.9132	2382.7032	2255.55	1380.25
966.0439	2384.1037	2251.25	1373.75
966.1745	2385.5035	2253.6	1376.35
966.3051	2386.9027	2246	1369.5
966.4357	2388.3011	2243.9	1363.15
966.5663	2389.6987	2232.65	1354.5
966.6968	2391.0957	2218.3	1345.05
966.8273	2392.492	2229.35	1351.9
966.9578	2393.8876	2212.9	1337.4
967.0882	2395.2824	2208.7	1329.2
967.2186	2396.6765	2200	1324.05
967.349	2398.07	2195.45	1318
967.4793	2399.4627	2194	1315.75
967.6097	2400.8547	2191.35	1314.6
967.7399	2402.246	2196.35	1314.6
967.8702	2403.6366	2184.85	1308.75
968.0004	2405.0265	2163.3	1287.05
968.1306	2406.4156	2173.15	1290.4
968.2607	2407.8041	2162.45	1282.15
968.3909	2409.1918	2157.6	1279.5
968.521	2410.5789	2155.25	1279.25
968.651	2411.9652	2146.15	1265.6
968.781	2413.3508	2128.6	1249.45
968.911	2414.7358	2137.7	1259.75
969.041	2416.12	2131.75	1256.5
969.1709	2417.5035	2128.65	1252.85
969.3008	2418.8863	2117.55	1240.6
969.4307	2420.2684	2115.8	1239.3
969.5606	2421.6497	2115.3	1236.9
969.6904	2423.0304	2111.4	1234.35
969.8201	2424.4104	2108.35	1230.2
969.9499	2425.7896	2094.65	1214.3
970.0796	2427.1682	2092.5	1216.8
970.2093	2428.546	2086.5	1208.05
970.3389	2429.9232	2089.15	1211.45
970.4685	2431.2996	2087.45	1208.6
970.5981	2432.6753	2078.1	1201.3
970.7277	2434.0503	2074.45	1199.3
970.8572	2435.4246	2072.15	1195.45
970.9867	2436.7982	2067.6	1189.15
971.1161	2438.1711	2068.1	1191.8
971.2456	2439.5433	2055.6	1177.5
971.375	2440.9148	2052.15	1169.25
971.5043	2442.2856	2045.5	1172.25
971.6336	2443.6557	2046.6	1169.8
971.7629	2445.025	2043.7	1166.8
971.8922	2446.3937	2041	1163.3
972.0214	2447.7617	2040.65	1163.35
972.1506	2449.1289	2025.65	1147.6
972.2798	2450.4955	2030.4	1151.25
972.4089	2451.8613	2028.55	1150.8
972.538	2453.2265	2019.55	1143.25
972.6671	2454.5909	2025.9	1148.15
972.7961	2455.9546	2016.2	1137.9
972.9251	2457.3177	2005.65	1129.2
973.0541	2458.68	2007.15	1127.75
973.1831	2460.0416	2000.4	1122.35
973.312	2461.4025	2006.6	1129.95
973.4408	2462.7627	2008.15	1118.45
973.5697	2464.1222	1993.65	1119.4
973.6985	2465.4811	1992.5	1114
973.8273	2466.8392	1988.2	1109.85
973.956	2468.1966	1986.15	1106.4
974.0847	2469.5533	1979.75	1099.35
974.2134	2470.9093	1974.7	1096.1
974.3421	2472.2645	1975.4	1095.5
974.4707	2473.6191	1960.3	1084.8
974.5993	2474.973	1952.45	1077.3
974.7278	2476.3262	1960.45	1082.3
974.8563	2477.6787	1952.9	1074.9
974.9848	2479.0305	1951.9	1076.1
975.1132	2480.3816	1946.35	1068.45
975.2417	2481.7319	1943	1067.6
975.37	2483.0816	1940.15	1062.7
975.4984	2484.4306	1930.15	1051
975.6267	2485.7789	1931.7	1054.55
975.755	2487.1264	1925.95	1045.65
975.8833	2488.4733	1923.45	1047.9
976.0115	2489.8195	1927.6	1043.45
976.1397	2491.165	1909.25	1030.1
976.2678	2492.5097	1916.6	1038.2
976.3959	2493.8538	1899.25	1022.45
976.524	2495.1972	1907.65	1029.45
976.6521	2496.5398	1890.8	1012.95
976.7801	2497.8818	1894.85	1016.15
976.9081	2499.2231	1898.4	1020.55
977.036	2500.5637	1891.3	1013.5
977.164	2501.9035	1882.7	1005.4
977.2918	2503.2427	1887.5	1004.8
977.4197	2504.5812	1874.1	998.35
977.5475	2505.919	1869.05	990.8
977.6753	2507.256	1872.85	996.2
977.8031	2508.5924	1868.5	992.65
977.9308	2509.9281	1862.2	979.3
978.0585	2511.2631	1852.85	976.2
978.1861	2512.5974	1855.65	980.75
978.3137	2513.9309	1853.2	976.05
978.4413	2515.2638	1866.2	961.75
978.5689	2516.596	1850.9	973.6
978.6964	2517.9275	1845.5	967.4
978.8239	2519.2583	1842.5	964.5
978.9513	2520.5884	1832.4	954.25
979.0788	2521.9178	1825.35	948.65
979.2062	2523.2465	1821.95	945.1
979.3335	2524.5745	1823.8	947.4
979.4608	2525.9018	1809.75	932
979.5881	2527.2284	1817.55	943.25
979.7154	2528.5543	1816.95	941.9
979.8426	2529.8796	1809.4	931.85
979.9698	2531.2041	1810.35	929.75
980.0969	2532.5279	1804.2	930.1
980.224	2533.851	1807.35	930
980.3511	2535.1735	1795.6	918.1
980.4781	2536.4952	1793.65	917.5
980.6052	2537.8163	1795.7	919.45
980.7321	2539.1366	1786.45	912.3
980.8591	2540.4562	1781.15	903.25
980.986	2541.7752	1793.1	915.6
981.1129	2543.0935	1785.95	909.1
981.2397	2544.411	1782.15	905.3
981.3665	2545.7279	1779.2	903.15
981.4933	2547.0441	1771.65	894.75
981.62	2548.3596	1768.55	889.4
981.7467	2549.6744	1773.15	896.85
981.8734	2550.9885	1777.9	891.25
982.0001	2552.3019	1766.5	891.7
982.1267	2553.6146	1761.95	884.45
982.2532	2554.9266	1749.35	870.75
982.3798	2556.2379	1756.15	876.85
982.5063	2557.5485	1747.1	871.8
982.6327	2558.8585	1759.35	874.6
982.7592	2560.1677	1742.2	862.15
982.8856	2561.4762	1736.25	858.2
983.0119	2562.7841	1740.6	859.85
983.1383	2564.0913	1737.15	862.4
983.2646	2565.3977	1738.9	861.2
983.3908	2566.7035	1728.75	850.9
983.517	2568.0086	1745.5	865.85
983.6432	2569.313	1738.6	861
983.7694	2570.6167	1718.05	837.45
983.8955	2571.9197	1722.95	847.2
984.0216	2573.222	1721.6	840.85
984.1476	2574.5236	1715.95	839.3
984.2737	2575.8246	1717.7	838.7
984.3996	2577.1248	1721.9	844.95
984.5256	2578.4244	1712.65	836.85
984.6515	2579.7232	1714.45	837.85
984.7774	2581.0214	1749.4	831.9
984.9032	2582.3189	1709.85	833.45
985.029	2583.6157	1706.4	824.2
985.1548	2584.9118	1702.05	825.45
985.2806	2586.2072	1700.2	824
985.4063	2587.5019	1691.8	814.95
985.5319	2588.7959	1693.15	813.75
985.6576	2590.0893	1696.9	819.85
985.7832	2591.3819	1690.55	814.6
985.9087	2592.6739	1690.8	814.2
986.0343	2593.9652	1686.7	809.95
986.1597	2595.2557	1675.15	798.8
986.2852	2596.5456	1673.15	794.15
986.4106	2597.8348	1665.1	787.05
986.536	2599.1234	1661.8	786.95
986.6614	2600.4112	1666.8	788.35
986.7867	2601.6983	1671.55	791.05
986.912	2602.9848	1655.65	781.25
987.0372	2604.2705	1660.8	776.6
987.1624	2605.5556	1660.1	784.4
987.2876	2606.84	1643.7	767.85
987.4128	2608.1237	1645.75	765.75
987.5379	2609.4067	1646.6	770.6
987.6629	2610.689	1646.8	761.35
987.788	2611.9707	1631.4	750.9
987.913	2613.2516	1638.9	759.25
988.0379	2614.5319	1628.45	751.95
988.1629	2615.8115	1619.45	744.5
988.2878	2617.0903	1620.45	742.6
988.4126	2618.3685	1624.2	745.95
988.5375	2619.6461	1610.25	732.95
988.6622	2620.9229	1613.3	737.55
988.787	2622.199	1610.25	731.85
988.9117	2623.4745	1614.25	734.9
989.0364	2624.7493	1597.85	721.8
989.161	2626.0234	1601.65	725.7
989.2857	2627.2968	1594.65	718.55
989.4102	2628.5695	1598.8	722.85
989.5348	2629.8415	1593.3	717.3
989.6593	2631.1128	1588.05	709.45
989.7837	2632.3835	1578.65	703
989.9082	2633.6535	1574.75	697.45
990.0326	2634.9228	1579.4	703.45
990.1569	2636.1914	1577.45	702.2
990.2812	2637.4593	1575.05	692.65
990.4055	2638.7265	1570	692.9
990.5298	2639.9931	1565.65	689.05
990.654	2641.259	1568.35	691.1
990.7782	2642.5242	1565.6	687.35
990.9023	2643.7887	1561.25	682.5
991.0264	2645.0525	1552.3	676.75
991.1505	2646.3156	1549.5	674.1
991.2745	2647.5781	1554.3	678.75
991.3985	2648.8398	1544.45	669.35
991.5225	2650.1009	1561.3	673.45
991.6464	2651.3613	1541.5	666.15
991.7703	2652.6211	1538.1	659.85
991.8942	2653.8801	1532.4	655.25
992.018	2655.1385	1539.1	660.1
992.1418	2656.3961	1533.4	656.65
992.2655	2657.6531	1535.55	657.95
992.3892	2658.9094	1534.15	658.25
992.5129	2660.1651	1521.9	646.3
992.6366	2661.42	1521	644.05
992.7602	2662.6743	1530.4	650.95
992.8837	2663.9279	1525.2	649.1
993.0073	2665.1808	1517.65	640
993.1307	2666.433	1509.95	632.35
993.2542	2667.6846	1514.75	638.1
993.3776	2668.9354	1512.15	630.95
993.501	2670.1856	1510.5	630.35
993.6244	2671.4351	1511.95	634.25
993.7477	2672.6839	1505.3	625.4
993.8709	2673.9321	1507.5	630.7
993.9942	2675.1795	1500.15	624.5
994.1174	2676.4263	1495.65	618.15
994.2405	2677.6724	1498.5	623.65
994.3637	2678.9179	1486.25	605.75
994.4868	2680.1626	1493.85	619
994.6098	2681.4067	1492.55	616.2
994.7328	2682.6501	1487.3	609.65
994.8558	2683.8928	1479.35	603.3
994.9788	2685.1348	1484.35	606.85
995.1017	2686.3761	1481.4	606.75
995.2245	2687.6168	1474.9	597.35
995.3474	2688.8568	1474.1	595.65
995.4702	2690.0961	1465.7	589.45
995.5929	2691.3348	1469.8	591.8
995.7156	2692.5727	1466.3	588.5
995.8383	2693.81	1463.7	586.45
995.961	2695.0466	1456.65	582.15
996.0836	2696.2826	1457.95	578.9
996.2062	2697.5178	1484.55	588.2
996.3287	2698.7524	1458.5	583
996.4512	2699.9863	1454.7	574.25
996.5737	2701.2195	1449.75	572.95
996.6961	2702.452	1452.15	574.55
996.8185	2703.6839	1448.35	572.05
996.9408	2704.9151	1446.7	570.45
997.0631	2706.1456	1445.8	568
997.1854	2707.3755	1437.5	560.8
997.3077	2708.6046	1448.65	570.55
997.4299	2709.8331	1437	559
997.552	2711.0609	1432.6	555.75
997.6742	2712.2881	1436.15	559
997.7963	2713.5145	1432.6	553
997.9183	2714.7403	1427.45	551.7
998.0403	2715.9654	1424.25	546.65
998.1623	2717.1899	1446.5	554.6
998.2842	2718.4136	1420.25	544.6
998.4062	2719.6367	1420.15	543.05
998.528	2720.8591	1424.7	541.45
998.6498	2722.0809	1421.2	545.05
998.7716	2723.3019	1420.35	540.85
998.8934	2724.5223	1408.6	532.35
999.0151	2725.7421	1410.3	530.65
999.1368	2726.9611	1409.2	532.1
999.2584	2728.1795	1416.75	535.95
999.38	2729.3972	1396.1	521.05
999.5016	2730.6142	1407.15	517.65
999.6231	2731.8306	1395.5	519.25
999.7446	2733.0462	1400.15	521.9
999.8661	2734.2612	1391.15	508.3
999.9875	2735.4756	1387.3	507.9
1000.1089	2736.6892	1386.6	508.3
1000.2302	2737.9022	1385.45	508.9
1000.3515	2739.1145	1382.1	506.8
1000.4728	2740.3262	1382.55	500.15
1000.594	2741.5372	1372.8	497.65
1000.7152	2742.7475	1375	498.65
1000.8363	2743.9571	1367.05	487.35
1000.9575	2745.1661	1376.3	495.9
1001.0785	2746.3744	1367.15	490.7
1001.1996	2747.582	1367.25	491.7
1001.3206	2748.7889	1359.15	481.6
1001.4415	2749.9952	1357.3	481.3
1001.5625	2751.2008	1358.35	480.65
1001.6833	2752.4057	1357.3	478
1001.8042	2753.61	1355.75	479.6
1001.925	2754.8136	1353.45	475.6
1002.0458	2756.0165	1350.85	475.95
1002.1665	2757.2188	1344.85	469.75
1002.2872	2758.4204	1347.55	471.75
1002.4078	2759.6213	1343.3	465.4
1002.5285	2760.8215	1351.2	468.85
1002.649	2762.0211	1343.2	465.05
1002.7696	2763.22	1344.85	465.65
1002.8901	2764.4182	1337.4	460
1003.0106	2765.6158	1334.95	458.35
1003.131	2766.8127	1333.2	456.4
1003.2514	2768.009	1330.45	455.65
1003.3717	2769.2045	1332.65	455.45
1003.492	2770.3994	1334	454.95
1003.6123	2771.5936	1330.15	451.8
1003.7325	2772.7872	1316.8	441.9
1003.8527	2773.9801	1320.85	442.7
1003.9729	2775.1723	1336.1	442.3
1004.093	2776.3639	1316	441.85
1004.2131	2777.5548	1315.1	435.3
1004.3331	2778.745	1314.75	436.5
1004.4531	2779.9346	1311.4	434.65
1004.5731	2781.1235	1310.6	432.4
1004.693	2782.3117	1307.3	431.75
1004.8129	2783.4992	1306.25	429.6
1004.9328	2784.6861	1301.1	424.1
1005.0526	2785.8723	1304.25	426.45
1005.1723	2787.0579	1299.5	422.45
1005.2921	2788.2428	1298.65	422
1005.4118	2789.427	1295.35	418.55
1005.5314	2790.6106	1295.55	418.8
1005.651	2791.7935	1288.55	411.55
1005.7706	2792.9757	1288.8	413.7
1005.8902	2794.1573	1295.7	417
1006.0097	2795.3382	1291.1	413.35
1006.1291	2796.5184	1285.15	410.45
1006.2485	2797.698	1285.75	408.6
1006.3679	2798.8769	1283	407
1006.4873	2800.0551	1283.95	406.65
1006.6066	2801.2327	1285.8	406.25
1006.7258	2802.4096	1273.45	396.7
1006.8451	2803.5859	1281.4	405.35
1006.9642	2804.7615	1276.95	400.25
1007.0834	2805.9364	1268.6	393.25
1007.2025	2807.1106	1268.15	394.9
1007.3216	2808.2842	1272.75	395.15
1007.4406	2809.4572	1267.9	392.35
1007.5596	2810.6294	1270.4	394.9
1007.6785	2811.801	1269.1	391.85
1007.7975	2812.972	1268.95	392.6
1007.9163	2814.1423	1272.05	397.4
1008.0352	2815.3119	1266.5	391.05
1008.154	2816.4808	1267.75	390.95
1008.2727	2817.6491	1281.35	395
1008.3914	2818.8167	1275.55	399.8
1008.5101	2819.9837	1280.1	400.85
1008.6288	2821.15	1278.65	402.25
1008.7474	2822.3157	1277.55	400.9
1008.8659	2823.4807	1280.8	405.15
1008.9844	2824.645	1284.65	408.2
1009.1029	2825.8086	1290.5	414.4
1009.2214	2826.9716	1290.1	414.8
1009.3398	2828.134	1302.1	426.15
1009.4581	2829.2957	1303.4	425.45
1009.5764	2830.4567	1303.55	427.7
1009.6947	2831.617	1304.05	427.1
1009.813	2832.7767	1298.4	422.45
1009.9312	2833.9358	1301.2	426.4
1010.0493	2835.0941	1312.6	435.75
1010.1675	2836.2519	1293.65	417.05
1010.2855	2837.4089	1297.95	419.65
1010.4036	2838.5653	1293	417
1010.5216	2839.7211	1291.45	415.55
1010.6396	2840.8761	1280.75	402.25
1010.7575	2842.0306	1274.2	399.45
1010.8754	2843.1843	1288.65	413.15
1010.9932	2844.3374	1276.85	401.35
1011.111	2845.4899	1280.65	403.75
1011.2288	2846.6417	1283.05	407.6
1011.3465	2847.7928	1284.4	409.85
1011.4642	2848.9433	1283.1	407.5
1011.5818	2850.0931	1282.6	405.95
1011.6995	2851.2422	1283.9	405.4
1011.817	2852.3907	1278.25	401.1
1011.9345	2853.5385	1275.65	397.95
1012.052	2854.6857	1288.75	401.1
1012.1695	2855.8323	1284.75	410.1
1012.2869	2856.9781	1278.9	404.7
1012.4042	2858.1233	1286.8	410.05
1012.5216	2859.2679	1285.55	409.15
1012.6389	2860.4118	1282	406.45
1012.7561	2861.555	1288.75	408.1
1012.8733	2862.6976	1293.1	416.8
1012.9905	2863.8395	1280	404.25
1013.1076	2864.9808	1286.3	409.2
1013.2247	2866.1214	1288.75	415.8
1013.3417	2867.2614	1288.5	412.1
1013.4587	2868.4007	1286.35	408.75
1013.5757	2869.5393	1283.5	404.3
1013.6926	2870.6773	1291.05	413.45
1013.8095	2871.8146	1295.55	417.2
1013.9263	2872.9513	1290.4	412.4
1014.0431	2874.0874	1277.75	401.5
1014.1599	2875.2227	1285.8	409.1
1014.2766	2876.3574	1284.6	410.4
1014.3933	2877.4915	1285.15	408.85
1014.51	2878.6249	1280	404.55
1014.6266	2879.7577	1290.9	413.5
1014.7431	2880.8898	1292.75	408.25
1014.8596	2882.0212	1283.35	410.25
1014.9761	2883.152	1283.8	405.1
1015.0925	2884.2821	1289.85	416.1
1015.2089	2885.4116	1283.7	407.65
1015.3253	2886.5405	1282.25	407.7
1015.4416	2887.6686	1286.2	406.9
1015.5579	2888.7962	1289.45	414.35
1015.6741	2889.923	1278.3	403.1
1015.7903	2891.0493	1281.85	406.45
1015.9065	2892.1748	1283.9	408.05
1016.0226	2893.2997	1271.1	395
1016.1387	2894.424	1274.05	398.5
1016.2547	2895.5476	1270.5	394.25
1016.3707	2896.6706	1274.3	397.6
1016.4866	2897.7929	1272.9	397.1
1016.6025	2898.9145	1272	394.3
1016.7184	2900.0355	1272.05	393.4
1016.8342	2901.1559	1264.75	388.35
1016.95	2902.2756	1268	392.6
1017.0658	2903.3946	1267.6	390.75
1017.1815	2904.513	1267.1	388.35
1017.2971	2905.6308	1260.1	384.25
1017.4127	2906.7479	1267	390.4
1017.5283	2907.8643	1264.2	387.3
1017.6439	2908.9801	1255.35	379.65
1017.7594	2910.0953	1256.2	381.1
1017.8748	2911.2098	1255.7	377.65
1017.9902	2912.3236	1261.9	378.35
1018.1056	2913.4368	1251.45	374.55
1018.2209	2914.5494	1250.55	373
1018.3362	2915.6613	1255.85	373.9
1018.4515	2916.7725	1248.45	371.35
1018.5667	2917.8831	1248.25	369.7
1018.6819	2918.9931	1239.55	359.65
1018.797	2920.1024	1243.25	365.2
1018.9121	2921.211	1237.8	364
1019.0271	2922.319	1232.6	357.7
1019.1421	2923.4264	1231.05	358.05
1019.2571	2924.5331	1233.9	359.7
1019.372	2925.6391	1231.75	355.55
1019.4869	2926.7445	1226.2	352.8
1019.6017	2927.8493	1230.2	352.6
1019.7165	2928.9534	1230.6	354.1
1019.8313	2930.0569	1225.8	347.4
1019.946	2931.1597	1229.5	352.05
1020.0606	2932.2619	1229.55	355.15
1020.1753	2933.3634	1227.85	351.3
1020.2899	2934.4643	1236.5	354.15
1020.4044	2935.5645	1234.9	354.95
1020.5189	2936.6641	1233.4	353.3
1020.6334	2937.763	1230.5	357.7
1020.7478	2938.8613	1226.05	349.55
1020.8622	2939.959	1225.2	343.7
1020.9765	2941.056	1221.95	345.3
1021.0908	2942.1523	1211.5	333.4
1021.2051	2943.248	1207.65	331.4
1021.3193	2944.3431	1202	327.35
1021.4334	2945.4375	1191.15	315.55
1021.5476	2946.5313	1185.05	309.7
1021.6617	2947.6244	1184.8	308.95
1021.7757	2948.7169	1176.95	300.2
1021.8897	2949.8087	1169	294.65
1022.0037	2950.8999	1162.2	286.05
1022.1176	2951.9904	1153.7	278.25
1022.2315	2953.0803	1155.7	279.05
1022.3453	2954.1696	1150.9	273.15
1022.4591	2955.2582	1148.1	272.8
1022.5728	2956.3462	1141.65	264.6
1022.6865	2957.4335	1141.75	265.1
1022.8002	2958.5202	1142.65	264.95
1022.9138	2959.6062	1142.15	265.7
1023.0274	2960.6916	1134.6	257.6
1023.141	2961.7764	1133.1	256.9
1023.2545	2962.8605	1135.8	259.45
1023.3679	2963.9439	1129.85	255.35
1023.4813	2965.0267	1134.45	257.8
1023.5947	2966.1089	1156.5	257.45
1023.708	2967.1905	1125.4	250.2
1023.8213	2968.2714	1129.55	253.7
1023.9346	2969.3516	1129.75	254.25
1024.0478	2970.4312	1133.35	248
1024.1609	2971.5102	1124.9	248.85
1024.274	2972.5885	1118.55	243.1
1024.3871	2973.6662	1128.45	248.2
1024.5002	2974.7432	1121.65	248.15
1024.6132	2975.8196	1119.7	243.6
1024.7261	2976.8954	1120.8	246.45
1024.839	2977.9705	1119.6	241.65
1024.9519	2979.045	1120.75	244.2
1025.0647	2980.1188	1119.9	244.05
1025.1775	2981.192	1112.2	235.65
1025.2902	2982.2645	1113.1	236.85
1025.4029	2983.3364	1113.05	236.8
1025.5156	2984.4077	1107.15	232.65
1025.6282	2985.4783	1114.1	232.5
1025.7407	2986.5483	1105.6	232.2
1025.8532	2987.6177	1101.7	226.75
1025.9657	2988.6864	1103.15	227.05
1026.0782	2989.7545	1098.8	218.7
1026.1906	2990.8219	1101.35	226
1026.3029	2991.8887	1096.5	218.35
1026.4152	2992.9548	1094.15	217
1026.5275	2994.0204	1084.15	209.4
1026.6397	2995.0852	1085.05	209.15
1026.7519	2996.1495	1083.8	207
1026.864	2997.2131	1086.3	211.6
1026.9761	2998.276	1077.7	201.35
1027.0882	2999.3383	1078.3	202.4
1027.2002	3000.4	1076.35	200
1027.3122	3001.4611	1075.1	199.2
1027.4241	3002.5215	1073.25	194.8
1027.536	3003.5812	1066.2	189.9
1027.6478	3004.6404	1068.55	193
1027.7596	3005.6989	1070	193.85
1027.8714	3006.7567	1061.7	186.5
1027.9831	3007.8139	1088	186.55
1028.0947	3008.8705	1065.8	189.7
1028.2064	3009.9264	1065.35	188.4
1028.3179	3010.9818	1061.8	186.1
1028.4295	3012.0364	1063.5	186.25
1028.541	3013.0905	1059.3	183.75
1028.6524	3014.1439	1056.4	180.95
1028.7638	3015.1966	1057.25	180.85
1028.8752	3016.2487	1059.2	186.05
1028.9865	3017.3002	1059.5	178.1
1029.0978	3018.3511	1050.85	176.25
1029.209	3019.4013	1053.7	178.5
1029.3202	3020.4509	1052.8	178.05
1029.4314	3021.4998	1057.25	182.55
1029.5425	3022.5481	1045.3	168.75
1029.6535	3023.5958	1050.4	175.7
1029.7645	3024.6428	1049.15	171.65
1029.8755	3025.6892	1049.9	175.1
1029.9864	3026.735	1051.2	175.25
1030.0973	3027.7802	1046.7	171.1
1030.2082	3028.8247	1043.35	167.05
1030.319	3029.8685	1040.75	163.45
1030.4297	3030.9118	1043.55	169.75
1030.5404	3031.9544	1039.8	165
1030.6511	3032.9963	1043.75	167.45
1030.7617	3034.0376	1042.6	166.25
1030.8723	3035.0783	1041.75	163.5
1030.9829	3036.1184	1038.8	160.65
1031.0934	3037.1578	1041	166.65
1031.2038	3038.1966	1041.3	165.8
1031.3142	3039.2348	1040.8	166
1031.4246	3040.2723	1043.9	158.75
1031.5349	3041.3092	1036.25	161.35
1031.6452	3042.3455	1038.85	164.3
1031.7554	3043.3811	1036.75	159.15
1031.8656	3044.4161	1037	159.65
1031.9758	3045.4505	1033.25	156
1032.0859	3046.4842	1037.8	160.5
1032.1959	3047.5173	1033.35	158.65
1032.3059	3048.5498	1034.4	158.55
1032.4159	3049.5816	1033.5	156.6
1032.5258	3050.6128	1035.75	159.15
1032.6357	3051.6434	1031.05	154.05
1032.7455	3052.6734	1032.7	154.35
1032.8553	3053.7027	1029.55	155.1
1032.9651	3054.7314	1031.1	156.15
1033.0748	3055.7594	1029.15	155.3
1033.1845	3056.7868	1028.5	153.6
1033.2941	3057.8136	1030.65	155.55
1033.4037	3058.8398	1028.25	154.45
1033.5132	3059.8653	1028.85	151.75
1033.6227	3060.8902	1031	155.7
1033.7321	3061.9145	1029.35	152.65
1033.8415	3062.9381	1027.9	154.7
1033.9509	3063.9612	1039.75	148.1
1034.0602	3064.9835	1022.75	148
1034.1694	3066.0053	1027.95	148.55
1034.2787	3067.0264	1022.35	147.6
1034.3878	3068.0469	1020.55	143
1034.497	3069.0668	1026.5	148.2
1034.6061	3070.086	1025.05	150.7
1034.7151	3071.1046	1022.65	146.15
1034.8241	3072.1226	1023.85	147.4
1034.9331	3073.1399	1020.2	144.55
1035.042	3074.1567	1022.25	146.2
1035.1508	3075.1727	1021.9	145.8
1035.2597	3076.1882	1016.15	140.5
1035.3684	3077.203	1015.15	139.1
1035.4772	3078.2173	1019.05	142.4
1035.5859	3079.2308	1015.95	137.05
1035.6945	3080.2438	1018.35	139.75
1035.8031	3081.2561	1013.15	137.65
1035.9117	3082.2678	1014	138.85
1036.0202	3083.2789	1016.65	142.3
1036.1286	3084.2893	1008.6	134.65
1036.2371	3085.2991	1005.65	129.45
1036.3454	3086.3083	1018.9	139.1
1036.4538	3087.3169	1010.65	133.5
1036.562	3088.3248	1011.3	136
1036.6703	3089.3321	1009.45	131.75
1036.7785	3090.3388	1007.95	133.5
1036.8866	3091.3449	1005.65	128.25
1036.9948	3092.3503	1006.65	129
1037.1028	3093.3551	1003.9	130.9
1037.2108	3094.3593	1005.3	129.25
1037.3188	3095.3629	1000.7	125.4
1037.4267	3096.3658	1004.2	129.2
1037.5346	3097.3681	998.25	121.55
1037.6425	3098.3698	1005.45	128.05
1037.7503	3099.3708	1006.75	125.8
1037.858	3100.3713	995.75	120.25
1037.9657	3101.3711	998.2	121.9
1038.0734	3102.3702	1136.4	125.95
1038.181	3103.3688	997.2	119.5
1038.2886	3104.3667	999.4	124.9
1038.3961	3105.364	996.25	120.8
1038.5036	3106.3607	995.4	117.4
1038.611	3107.3568	998.65	121.1
1038.7184	3108.3522	990.85	115.95
1038.8257	3109.347	991.05	115.25
1038.933	3110.3412	996	116.3
1039.0403	3111.3348	992.95	119.55
1039.1475	3112.3277	990.3	115.05
1039.2547	3113.32	989.6	115.35
1039.3618	3114.3117	991	114.8
1039.4689	3115.3028	986.7	110.4
1039.5759	3116.2932	992.2	113.3
1039.6829	3117.2831	993.1	113.15
1039.7898	3118.2723	985.95	109.75
1039.8967	3119.2608	982.1	106.1
1040.0035	3120.2488	987.9	111.75
1040.1103	3121.2361	984.6	109.5
1040.2171	3122.2229	983.15	106.7
1040.3238	3123.209	984.75	107.75
1040.4305	3124.1944	983.45	107.65
1040.5371	3125.1793	983.4	105.3
1040.6437	3126.1635	982.4	106.95
1040.7502	3127.1471	982.9	107.55
1040.8567	3128.1301	978.4	103.5
1040.9631	3129.1125	978.35	103.35
1041.0695	3130.0942	981.15	106.35
1041.1759	3131.0753	986.05	102.9
1041.2822	3132.0558	985.9	107.6
1041.3884	3133.0357	977.8	102.75
1041.4946	3134.015	975.85	101.05
1041.6008	3134.9936	979.6	101.15
1041.7069	3135.9716	992.7	98.85
1041.813	3136.949	978.85	104.7
1041.919	3137.9258	976.25	94.35
1042.025	3138.902	981	101.25
1042.1309	3139.8775	974.1	98.3
1042.2368	3140.8524	973.6	98.45
1042.3427	3141.8267	973.9	97.65
1042.4485	3142.8004	972.65	98.45
1042.5542	3143.7735	982.4	101.35
1042.6599	3144.7459	977.4	97.45
1042.7656	3145.7178	970.55	95.45
1042.8712	3146.689	972.55	97.55
1042.9768	3147.6596	974.35	95.95
1043.0823	3148.6295	969.7	92.35
1043.1878	3149.5989	974.1	99.05
1043.2932	3150.5676	968.1	94.05
1043.3986	3151.5357	969.5	95.55
1043.5039	3152.5032	967.9	93.7
1043.6092	3153.4701	963.8	89.4
1043.7145	3154.4364	969.95	93.9
1043.8197	3155.402	969.5	95.7
1043.9248	3156.367	965.9	89.45
1044.03	3157.3315	1004.15	88.2
1044.135	3158.2952	967.5	91.65
1044.24	3159.2584	965.95	90.4
1044.345	3160.221	964.2	88.85
1044.4499	3161.1829	963.6	87.05
1044.5548	3162.1442	963.65	88.1
1044.6596	3163.105	963.85	87.65
1044.7644	3164.065	964.75	89.35
1044.8692	3165.0245	963.35	85.05
1044.9739	3165.9834	963.25	90.35
1045.0785	3166.9416	962.5	87.55
1045.1831	3167.8993	960.1	84.7
1045.2877	3168.8563	958.9	82
1045.3922	3169.8127	959.25	83.8
1045.4966	3170.7684	960.1	84.9
1045.6011	3171.7236	957.8	81.55
1045.7054	3172.6782	961.5	85.5
1045.8098	3173.6321	958.95	85
1045.914	3174.5854	962.65	80.9
1046.0183	3175.5381	956.5	80.3
1046.1224	3176.4902	957.3	83.95
1046.2266	3177.4417	953.85	79.3
1046.3307	3178.3926	956.7	81.35
1046.4347	3179.3428	953.2	77.15
1046.5387	3180.2924	956.05	80.4
1046.6427	3181.2415	953.95	79.15
1046.7466	3182.1899	953.8	77.25
1046.8504	3183.1377	952.65	79.4
1046.9542	3184.0848	956.05	78.15
1047.058	3185.0314	952.05	77.25
1047.1617	3185.9773	952.35	74.95
1047.2654	3186.9227	954.85	76.7
1047.369	3187.8674	953.15	78.1
1047.4726	3188.8115	952.95	74.25
1047.5761	3189.755	953.45	79.35
1047.6796	3190.6979	951.3	74
1047.783	3191.6402	949.45	74.6
1047.8864	3192.5818	949.7	74.55
1047.9898	3193.5229	957.35	73.3
1048.0931	3194.4633	952.6	78.35
1048.1963	3195.4031	950.2	72.3
1048.2995	3196.3423	950.45	73.6
1048.4027	3197.2809	946.5	71.45
1048.5058	3198.2189	946.05	68.9
1048.6089	3199.1563	956	73.15
1048.7119	3200.0931	946.25	72.35
1048.8148	3201.0292	947.15	73.95
1048.9178	3201.9648	943.35	68.3
1049.0206	3202.8997	948.6	70.1
1049.1235	3203.834	946.15	70.55
1049.2262	3204.7677	944.7	69.15
1049.329	3205.7008	948	70.4
1049.4317	3206.6333	941.2	66.75
1049.5343	3207.5652	944.3	66.35
1049.6369	3208.4964	945.05	70
1049.7394	3209.4271	946.1	70.5
1049.8419	3210.3571	945.25	71.45
1049.9444	3211.2865	944.15	69
1050.0468	3212.2154	942.6	67.6
1050.1491	3213.1436	945.5	66.65
1050.2514	3214.0712	948.2	65.1
1050.3537	3214.9982	941.2	65
1050.4559	3215.9246	940.75	64.25
1050.5581	3216.8503	937.35	61.3
1050.6602	3217.7755	939.65	63.8
1050.7623	3218.7001	939.35	65.3
1050.8643	3219.624	941.2	65.95
1050.9663	3220.5473	940	66.05
1051.0682	3221.4701	939.4	62.9
1051.1701	3222.3922	938.5	59.6
1051.2719	3223.3137	936.85	61.95
1051.3737	3224.2346	938.15	62.7
1051.4754	3225.1549	937.9	64.15
1051.5771	3226.0746	935.7	59.65
1051.6788	3226.9937	935.1	58.7
1051.7804	3227.9121	936.4	63.35
1051.8819	3228.83	935.45	60.8
1051.9834	3229.7473	938.65	62.35
1052.0849	3230.6639	937.3	61.45
1052.1863	3231.5799	935.2	58.55
1052.2876	3232.4954	937.05	61.3
1052.3889	3233.4102	936.85	62.1
1052.4902	3234.3244	934.3	57.7
1052.5914	3235.238	933.75	56.9
1052.6926	3236.151	956.6	59.25
1052.7937	3237.0634	932.2	59.8
1052.8948	3237.9752	930.55	55.65
1052.9958	3238.8864	931.7	53.75
1053.0968	3239.797	929.3	51.7
1053.1977	3240.7069	930.75	54
1053.2986	3241.6163	935.1	57.6
1053.3994	3242.5251	928.65	54.85
1053.5002	3243.4332	931.5	57.35
1053.6009	3244.3408	931.5	56.55
1053.7016	3245.2477	929.75	55.7
1053.8022	3246.154	932.25	56.3
1053.9028	3247.0598	927.8	50.85
1054.0034	3247.9649	927.9	52.25
1054.1039	3248.8694	930.95	54
1054.2043	3249.7733	927	52.45
1054.3047	3250.6766	929.95	55.1
1054.4051	3251.5793	927.25	51.75
1054.5054	3252.4814	928.55	54.5
1054.6056	3253.3829	928.95	53.35
1054.7058	3254.2838	928.5	52.55
1054.806	3255.1841	922.6	48.4
1054.9061	3256.0838	927.05	51.6
1055.0061	3256.9829	923.35	48.5
1055.1062	3257.8814	928.65	51.05
1055.2061	3258.7792	925.5	48.7
1055.306	3259.6765	922.8	45.85
1055.4059	3260.5731	923.3	49.25
1055.5057	3261.4692	922.25	47.55
1055.6055	3262.3647	923.65	45.75
1055.7052	3263.2595	921.65	46.35
1055.8049	3264.1538	920.2	43.95
1055.9045	3265.0474	922.35	45.95
1056.0041	3265.9404	917.35	43.05
1056.1036	3266.8329	918.85	44.25
1056.2031	3267.7247	926.95	40.55
1056.3025	3268.616	918.65	45.8
1056.4019	3269.5066	915.3	40.9
1056.5013	3270.3966	917.75	40.85
1056.6005	3271.286	912.7	39.2
