Software Version:	3.9.2.0
Unit SN:	10000200
Spectrometer SN:	6960
Date:	3/6/2024 10:14:52 AM
Data Line Index:	25
Spectral Points:	2048
Integration time (ms):	125
Averages:	20
Delay (ms):	30
Sequence Number:	1
Processing:	dark subtract
Laser Power (mW):	305
Laser Current (mA):	825
Laser Diode Temp (C):	25.1
Laser Case Temp (C):	25
System Temp (C):	24.8
Spectrometer Temp (C):	22.3
CCD Temp (C):	0.007
Secondary Temp (C):	20.006
Heatsink Temp (C):	19.293
CCDPCB Temp (C):	32.294
SecondaryPCB Temp (C):	26.047

Wavelength	RamanShift	Raw Counts	Dark Subtracted
787.061	30.1047	1037.8	630.1
787.2016	32.3739	1064.2	659.95
787.3422	34.6426	1109.05	702.25
787.4828	36.9109	1150.3	741.7
787.6235	39.1787	1200.4	787.2
787.7642	41.4461	1252.6	835.45
787.9049	43.7131	1314.05	892.7
788.0456	45.9796	1360	935.7
788.1863	48.2456	1425.05	998.45
788.3271	50.5112	1478.25	1047.15
788.4679	52.7764	1541.1	1107.1
788.6087	55.0411	1610.2	1171.65
788.7496	57.3054	1685.4	1240.5
788.8904	59.5692	1756.95	1309.3
789.0313	61.8326	1845.45	1397.5
789.1722	64.0955	1935.1	1482.45
789.3132	66.3579	2051.9	1595.05
789.4541	68.6199	2194.65	1733.8
789.5951	70.8815	2423.25	1959.35
789.7361	73.1426	2912.2	2442.35
789.8771	75.4032	4201.2	3729.65
790.0181	77.6634	7522.85	7046.95
790.1592	79.9231	16084.75	15602.8
790.3003	82.1824	50676.75	50184.9
790.4414	84.4412	65535	65026.45
790.5825	86.6995	65535	65007.15
790.7237	88.9574	65535	64988.65
790.8648	91.2148	65535	64979.8
791.006	93.4717	65535	64968.5
791.1472	95.7282	65535	64963.6
791.2885	97.9842	65535	64964.4
791.4297	100.2398	65535	64959.55
791.571	102.4949	65535	64956.4
791.7123	104.7495	65535	64950.15
791.8536	107.0036	65535	64952.8
791.9949	109.2573	65535	64954.4
792.1363	111.5105	65535	64950.8
792.2777	113.7632	65535	64950.25
792.4191	116.0154	65535	64938.25
792.5605	118.2672	65535	64942.25
792.7019	120.5185	65535	64944.35
792.8434	122.7693	65535	64938.9
792.9849	125.0197	65535	64933.25
793.1264	127.2696	65535	64930.85
793.2679	129.519	65535	64926.75
793.4094	131.7679	65535	64926.45
793.551	134.0163	65535	64924.2
793.6926	136.2642	65535	64919.35
793.8342	138.5117	65535	64914.95
793.9758	140.7587	65535	64914.55
794.1175	143.0052	65535	64913.35
794.2591	145.2512	65535	64912.6
794.4008	147.4967	65535	64911.95
794.5425	149.7417	65535	64907.5
794.6842	151.9863	65535	64903.35
794.826	154.2304	65535	64898.55
794.9677	156.4739	65535	64894.25
795.1095	158.717	65535	64894.6
795.2513	160.9596	65535	64890
795.3931	163.2017	65535	64889.75
795.535	165.4433	65535	64886.55
795.6768	167.6844	65535	64883.8
795.8187	169.925	65535	64879.75
795.9606	172.1651	65535	64877.75
796.1025	174.4047	65535	64876.2
796.2445	176.6439	65535	64871.5
796.3864	178.8825	65535	64870
796.5284	181.1206	65535	64866.4
796.6704	183.3582	65535	64862.2
796.8124	185.5954	65535	64863.3
796.9544	187.832	65535	64853.75
797.0965	190.0681	65535	64853.6
797.2386	192.3037	65535	64851.5
797.3806	194.5388	65535	64848.6
797.5228	196.7734	65535	64845.3
797.6649	199.0075	65535	64845.85
797.807	201.2411	65535	64847.45
797.9492	203.4742	65535	64843.2
798.0914	205.7068	65535	64835.5
798.2336	207.9389	65535	64835.15
798.3758	210.1704	65535	64837.7
798.518	212.4015	65535	64847.95
798.6603	214.632	65535	64854.45
798.8025	216.862	65535	64857.2
798.9448	219.0915	65535	64858.05
799.0871	221.3205	65535	64856.5
799.2294	223.549	65535	64858.75
799.3718	225.777	65535	64861.25
799.5141	228.0044	65535	64852.3
799.6565	230.2314	65535	64852.35
799.7989	232.4578	65535	64847.8
799.9413	234.6837	65535	64838.9
800.0837	236.909	65535	64835.6
800.2262	239.1339	65535	64811.85
800.3687	241.3582	65535	64827.75
800.5111	243.582	65535	64798.8
800.6536	245.8053	65535	64813.7
800.7961	248.0281	65535	64816.1
800.9387	250.2503	65535	64811.8
801.0812	252.472	65535	64807.7
801.2238	254.6932	65535	64808.4
801.3664	256.9139	65535	64809.1
801.509	259.134	65535	64804.65
801.6516	261.3536	65535	64804.4
801.7942	263.5727	65535	64806
801.9369	265.7912	65535	64804.85
802.0795	268.0092	65535	64799.1
802.2222	270.2267	65535	64802.9
802.3649	272.4436	65535	64802.15
802.5076	274.6601	65535	64788.6
802.6504	276.8759	65535	64794.9
802.7931	279.0913	65535	64794.6
802.9359	281.3061	65535	64794.75
803.0787	283.5204	65535	64790.95
803.2215	285.7341	65535	64790.5
803.3643	287.9473	65535	64775.95
803.5071	290.16	65535	64785.15
803.6499	292.3721	65535	64791.4
803.7928	294.5837	65535	64788.45
803.9357	296.7947	65535	64787.15
804.0786	299.0052	65535	64789.8
804.2215	301.2152	65535	64785.05
804.3644	303.4246	65535	64788.35
804.5074	305.6334	65535	64786.9
804.6503	307.8418	65535	64783.7
804.7933	310.0495	65535	64785.2
804.9363	312.2568	65535	64780.8
805.0793	314.4635	65535	64780.7
805.2223	316.6696	65535	64779.45
805.3653	318.8752	65535	64767.2
805.5084	321.0802	65535	64778.05
805.6514	323.2847	65535	64776.25
805.7945	325.4887	65535	64775.25
805.9376	327.692	65535	64771.25
806.0807	329.8949	65535	64772.45
806.2238	332.0972	65535	64770.75
806.367	334.2989	65535	64764.6
806.5101	336.5001	65535	64766.95
806.6533	338.7007	65535	64766.3
806.7965	340.9008	65535	64763.1
806.9397	343.1003	65535	64765.1
807.0829	345.2992	65535	64760.5
807.2261	347.4976	65535	64758.5
807.3693	349.6955	65535	64754.2
807.5126	351.8927	65535	64754.2
807.6559	354.0895	65535	64748.95
807.7991	356.2856	65535	64755.75
807.9424	358.4812	65535	64753.35
808.0857	360.6763	65535	64753.65
808.2291	362.8707	65535	64751.85
808.3724	365.0646	65535	64744.65
808.5158	367.258	65535	64746.25
808.6591	369.4508	65535	64739.85
808.8025	371.643	65535	64743.25
808.9459	373.8346	65535	64738.75
809.0893	376.0257	65535	64738.2
809.2327	378.2162	65535	64737.65
809.3762	380.4062	65535	64738.45
809.5196	382.5956	65535	64737
809.6631	384.7844	65535	64741.6
809.8066	386.9726	65535	64746
809.9501	389.1603	65535	64747.4
810.0936	391.3474	65535	64706.2
810.2371	393.5339	65535	64750.15
810.3806	395.7199	65535	64747.55
810.5241	397.9052	65535	64748.25
810.6677	400.09	65535	64745.5
810.8113	402.2743	65535	64743.85
810.9548	404.4579	65535	64743.7
811.0984	406.641	65535	64744.2
811.2421	408.8235	65535	64741.5
811.3857	411.0054	65535	64738.45
811.5293	413.1868	65535	64734.75
811.673	415.3675	65535	64733.4
811.8166	417.5477	65535	64732.65
811.9603	419.7273	65535	64728.8
812.104	421.9064	65535	64722.7
812.2477	424.0848	65535	64726.45
812.3914	426.2627	65535	64727.25
812.5351	428.4399	65535	64723.35
812.6788	430.6166	65535	64719.95
812.8226	432.7928	65535	64719.65
812.9663	434.9683	65535	64718.6
813.1101	437.1432	65535	64721.2
813.2539	439.3176	65535	64719.5
813.3977	441.4914	65535	64718.1
813.5415	443.6645	65535	64720.7
813.6853	445.8371	65535	64718.85
813.8291	448.0091	65535	64723
813.973	450.1806	65535	64720.5
814.1168	452.3514	65535	64718.6
814.2607	454.5216	65535	64707.25
814.4046	456.6913	65535	64714.7
814.5485	458.8603	65535	64715.15
814.6924	461.0288	65535	64717.1
814.8363	463.1967	65535	64715.75
814.9802	465.3639	65535	64715.2
815.1241	467.5306	65535	64715.25
815.2681	469.6967	65535	64712.9
815.412	471.8622	65535	64714.7
815.556	474.0271	65535	64717.25
815.7	476.1914	65535	64710
815.844	478.3551	65535	64712.5
815.988	480.5182	65535	64711.25
816.132	482.6807	65535	64708.55
816.276	484.8426	65535	64711.15
816.4201	487.0039	65535	64712.1
816.5641	489.1647	65535	64710.5
816.7082	491.3248	65535	64709.05
816.8522	493.4843	65535	64707.25
816.9963	495.6432	65535	64707.55
817.1404	497.8015	65535	64707.45
817.2845	499.9592	65535	64705.95
817.4286	502.1163	65535	64705.85
817.5727	504.2728	65535	64705.4
817.7168	506.4287	65535	64706.55
817.861	508.5839	65535	64704.2
818.0051	510.7386	65535	64703.1
818.1493	512.8927	65535	64702.8
818.2935	515.0461	65535	64700.8
818.4377	517.199	65535	64703.5
818.5818	519.3512	65535	64701.35
818.726	521.5029	65535	64695.3
818.8703	523.6539	65535	64699.75
819.0145	525.8043	65535	64699.1
819.1587	527.9541	65535	64694.1
819.303	530.1033	65535	64697.75
819.4472	532.2519	65535	64697.1
819.5915	534.3999	65535	64695.8
819.7357	536.5472	65535	64693.8
819.88	538.694	65535	64694.35
820.0243	540.8401	65535	64692.75
820.1686	542.9856	65535	64690.75
820.3129	545.1305	65535	64691.35
820.4572	547.2748	65535	64690.85
820.6016	549.4185	65535	64690.9
820.7459	551.5615	65535	64689.75
820.8902	553.704	65535	64696.8
821.0346	555.8458	65535	64695.75
821.1789	557.987	65535	64695.05
821.3233	560.1276	65535	64695.6
821.4677	562.2675	65535	64696.65
821.6121	564.4069	65535	64693.9
821.7565	566.5456	65535	64693.2
821.9009	568.6837	65535	64695.5
822.0453	570.8212	65535	64692.35
822.1897	572.958	65535	64690.55
822.3342	575.0942	65535	64695.35
822.4786	577.2299	65535	64689.4
822.6231	579.3648	65535	64690.55
822.7675	581.4992	65535	64693.5
822.912	583.6329	65535	64691.8
823.0565	585.766	65535	64691.5
823.201	587.8985	65535	64694.65
823.3454	590.0304	65535	64665.15
823.4899	592.1616	65535	64681.5
823.6345	594.2922	65535	64685.65
823.779	596.4222	65535	64685.15
823.9235	598.5515	65535	64685.15
824.068	600.6802	65535	64685.35
824.2126	602.8083	65535	64684.3
824.3571	604.9358	65535	64685.6
824.5017	607.0626	65535	64684.6
824.6462	609.1888	65535	64683.75
824.7908	611.3144	65535	64682.8
824.9354	613.4393	65535	64686.95
825.08	615.5636	65535	64684.7
825.2246	617.6873	65535	64684.4
825.3692	619.8103	65535	64681.05
825.5138	621.9327	65535	64679.25
825.6584	624.0544	65535	64683.1
825.803	626.1756	65535	64682.45
825.9477	628.2961	65535	64680.7
826.0923	630.4159	65535	64682.9
826.237	632.5351	65535	64680.35
826.3816	634.6537	65535	64679.35
826.5263	636.7716	65535	64679.9
826.6709	638.8889	65535	64677.3
826.8156	641.0056	65535	64678.7
826.9603	643.1216	65535	64677.15
827.105	645.237	65535	64677.55
827.2497	647.3518	65535	64679.9
827.3944	649.4659	65535	64678.95
827.5391	651.5793	65535	64676.45
827.6838	653.6922	65535	64677.25
827.8285	655.8043	65535	64675.65
827.9733	657.9159	65535	64679.25
828.118	660.0268	65535	64675.3
828.2627	662.137	65535	64675.7
828.4075	664.2466	65535	64669.85
828.5522	666.3556	65535	64674.3
828.697	668.4639	65535	64674.55
828.8418	670.5716	65535	64677.25
828.9865	672.6786	65535	64674.3
829.1313	674.785	65535	64672.2
829.2761	676.8907	65535	64675.7
829.4209	678.9958	65535	64675.45
829.5657	681.1002	65535	64673.1
829.7105	683.204	65535	64668.75
829.8553	685.3072	65535	64668.45
830.0001	687.4097	65535	64669.35
830.1449	689.5115	65535	64668.6
830.2898	691.6127	65535	64669.2
830.4346	693.7132	65535	64671.65
830.5794	695.8131	65535	64652.3
830.7243	697.9123	65535	64670.65
830.8691	700.0109	65535	64670.65
831.014	702.1089	65535	64673.25
831.1588	704.2061	65535	64670.15
831.3037	706.3028	65535	64668.3
831.4486	708.3987	65535	64667.8
831.5935	710.4941	65535	64670.15
831.7383	712.5887	65535	64668.1
831.8832	714.6827	65535	64662.75
832.0281	716.7761	65535	64667.35
832.173	718.8688	65535	64667.4
832.3179	720.9608	65535	64664.45
832.4628	723.0522	65535	64663.3
832.6077	725.1429	65535	64665.65
832.7527	727.233	65535	64667.8
832.8976	729.3224	65535	64667.95
833.0425	731.4112	65535	64667.1
833.1874	733.4993	65535	64663.55
833.3324	735.5867	65535	64664.65
833.4773	737.6735	65535	64664.65
833.6222	739.7596	65535	64665.5
833.7672	741.845	65535	64664.05
833.9122	743.9298	65535	64661.35
834.0571	746.014	65535	64669.7
834.2021	748.0974	65535	64662.85
834.347	750.1802	65535	64663.85
834.492	752.2624	65535	64663.3
834.637	754.3439	65535	64662.65
834.782	756.4247	65535	64656.65
834.9269	758.5048	65535	64662.55
835.0719	760.5843	65535	64664.6
835.2169	762.6631	65535	64661.5
835.3619	764.7413	65535	64662.4
835.5069	766.8188	65535	64664.85
835.6519	768.8956	65535	64659.2
835.7969	770.9718	65535	64665.05
835.9419	773.0473	65535	64663.1
836.0869	775.1221	65535	64665.2
836.232	777.1962	65535	64663.4
836.377	779.2697	65535	64658.65
836.522	781.3426	65535	64644.25
836.667	783.4147	65535	64659.3
836.8121	785.4862	65535	64661.4
836.9571	787.557	65535	64661.35
837.1021	789.6271	65535	64660.65
837.2472	791.6966	65535	64660.55
837.3922	793.7654	65535	64657.85
837.5373	795.8335	65535	64663.45
837.6823	797.901	65535	64662.8
837.8274	799.9678	65535	64661.3
837.9724	802.0339	65535	64659.8
838.1175	804.0993	65535	64652.1
838.2626	806.1641	65535	64663
838.4076	808.2282	65535	64659.85
838.5527	810.2916	65535	64658.25
838.6978	812.3544	65535	64660.9
838.8428	814.4164	65535	64660.9
838.9879	816.4778	65535	64655.8
839.133	818.5385	65535	64659.6
839.2781	820.5986	65535	64661.35
839.4232	822.658	65535	64656.75
839.5682	824.7166	65535	64659.85
839.7133	826.7747	65535	64658.4
839.8584	828.832	65535	64658.8
840.0035	830.8886	65535	64658
840.1486	832.9446	65535	64658
840.2937	834.9999	65535	64659.65
840.4388	837.0545	65535	64652.6
840.5839	839.1085	65535	64658.55
840.729	841.1618	65535	64652.35
840.8741	843.2143	65535	64657.5
841.0192	845.2662	65535	64659
841.1643	847.3175	65535	64660.35
841.3095	849.368	65535	64656.95
841.4546	851.4179	65535	64658.45
841.5997	853.467	65535	64657.5
841.7448	855.5155	65535	64657.1
841.8899	857.5633	65535	64656.65
842.0351	859.6105	65535	64657.05
842.1802	861.6569	65535	64656.45
842.3253	863.7027	65535	64657.2
842.4704	865.7478	65535	64657.55
842.6156	867.7922	65535	64654.85
842.7607	869.8359	65535	64657.35
842.9058	871.8789	65535	64658.65
843.0509	873.9212	65535	64622.25
843.1961	875.9629	65535	64656.3
843.3412	878.0039	65535	64655.5
843.4863	880.0441	65535	64657.8
843.6315	882.0837	65535	64655.95
843.7766	884.1226	65535	64653.8
843.9218	886.1609	65535	64656.55
844.0669	888.1984	65535	64655.8
844.212	890.2352	65535	64657.25
844.3572	892.2714	65535	64650.25
844.5023	894.3069	65535	64653.1
844.6475	896.3416	65535	64655.8
844.7926	898.3757	65535	64655.6
844.9377	900.4091	65535	64654.35
845.0829	902.4418	65535	64648.95
845.228	904.4739	65535	64652.35
845.3732	906.5052	65535	64653.3
845.5183	908.5358	65535	64654.9
845.6635	910.5658	65535	64650.3
845.8086	912.595	65535	64653.25
845.9538	914.6236	65535	64654.1
846.0989	916.6515	65535	64654.9
846.2441	918.6786	65535	64651.5
846.3892	920.7051	65535	64652.05
846.5344	922.7309	65535	64653.95
846.6795	924.756	65535	64654.65
846.8246	926.7804	65535	64651.55
846.9698	928.8041	65535	64645
847.1149	930.8272	65535	64652
847.2601	932.8495	65535	64650.5
847.4052	934.8711	65535	64650.9
847.5504	936.892	65535	64654.1
847.6955	938.9123	65535	64651.3
847.8407	940.9318	65535	64654.35
847.9858	942.9506	65535	64653.7
848.131	944.9688	65535	64654.25
848.2761	946.9862	65535	64652.5
848.4213	949.003	65535	64653.75
848.5664	951.019	65535	64652.5
848.7115	953.0344	65535	64652.55
848.8567	955.0491	65535	64651.2
849.0018	957.063	65535	64653.75
849.147	959.0763	65535	64653.55
849.2921	961.0888	65535	64650.6
849.4373	963.1007	65535	64654.2
849.5824	965.1119	65535	64653.1
849.7275	967.1223	65535	64652.25
849.8727	969.1321	65535	64653.3
850.0178	971.1412	65535	64651.5
850.1629	973.1495	65535	64652.8
850.3081	975.1572	65535	64617.7
850.4532	977.1641	65535	64652.5
850.5983	979.1704	65535	64652.05
850.7435	981.1759	65535	64647.75
850.8886	983.1808	65535	64650.6
851.0337	985.1849	65535	64639.7
851.1788	987.1884	65535	64649.05
851.324	989.1911	65535	64648.45
851.4691	991.1932	65535	64647.85
851.6142	993.1945	65535	64649.5
851.7593	995.1951	65535	64651.6
851.9045	997.1951	65535	64644.1
852.0496	999.1943	65535	64651.15
852.1947	1001.1928	65535	64647.55
852.3398	1003.1906	65535	64652.45
852.4849	1005.1877	65535	64650
852.63	1007.1841	65535	64652.05
852.7751	1009.1798	65535	64651.25
852.9202	1011.1748	65535	64650.05
853.0653	1013.1691	65535	64648.4
853.2104	1015.1627	65535	64649.1
853.3555	1017.1556	65535	64652.9
853.5006	1019.1477	65535	64648.25
853.6457	1021.1392	65535	64653.2
853.7908	1023.1299	65535	64650.7
853.9359	1025.12	65535	64648.9
854.081	1027.1093	65535	64652.4
854.2261	1029.0979	65535	64654.8
854.3712	1031.0859	65535	64653.1
854.5163	1033.0731	65535	64651.3
854.6613	1035.0596	65535	64652.35
854.8064	1037.0454	65535	64651.45
854.9515	1039.0304	65535	64651.1
855.0965	1041.0148	65535	64651.5
855.2416	1042.9985	65535	64648.7
855.3867	1044.9814	65535	64649.75
855.5317	1046.9636	65535	64647.45
855.6768	1048.9452	65535	64649.8
855.8219	1050.926	65535	64652.35
855.9669	1052.9061	65535	64650.25
856.112	1054.8855	65535	64649.8
856.257	1056.8642	65535	64646.35
856.4021	1058.8421	65535	64646.35
856.5471	1060.8194	65535	64649.95
856.6921	1062.7959	65535	64649.95
856.8372	1064.7717	65535	64648.35
856.9822	1066.7469	65535	64647.55
857.1272	1068.7213	65535	64647.95
857.2723	1070.695	65535	64649.7
857.4173	1072.6679	65535	64650.6
857.5623	1074.6402	65535	64648.85
857.7073	1076.6117	65535	64647.6
857.8523	1078.5826	65535	64648.85
857.9973	1080.5527	65535	64647.65
858.1423	1082.5221	65535	64650.9
858.2873	1084.4908	65535	64649.5
858.4323	1086.4587	65535	64648.65
858.5773	1088.426	65535	64649
858.7223	1090.3925	65535	64644.3
858.8673	1092.3584	65535	64649.25
859.0123	1094.3235	65535	64652.8
859.1573	1096.2879	65535	64647.6
859.3022	1098.2515	65535	64647.85
859.4472	1100.2145	65535	64650.35
859.5922	1102.1767	65535	64646.85
859.7371	1104.1382	65535	64650.05
859.8821	1106.099	65535	64647.85
860.027	1108.0591	65535	64648.7
860.172	1110.0185	65535	64647.4
860.3169	1111.9771	65535	64650.5
860.4619	1113.9351	65535	64649.5
860.6068	1115.8923	65535	64649.7
860.7517	1117.8488	65535	64647.05
860.8967	1119.8045	65535	64649.3
861.0416	1121.7596	65535	64648.55
861.1865	1123.7139	65535	64648.6
861.3314	1125.6675	65535	64648.9
861.4763	1127.6204	65535	64649.55
861.6212	1129.5726	65535	64650.75
861.7661	1131.524	65535	64652.6
861.911	1133.4748	65535	64649.8
862.0559	1135.4248	65535	64650.15
862.2008	1137.3741	65535	64648.05
862.3457	1139.3226	65535	64648.8
862.4905	1141.2705	65535	64650.7
862.6354	1143.2176	65535	64641.1
862.7803	1145.164	65535	64646.25
862.9251	1147.1097	65535	64647.3
863.07	1149.0546	65535	64648.8
863.2148	1150.9989	65535	64648.3
863.3597	1152.9424	65535	64651
863.5045	1154.8852	65535	64650.1
863.6493	1156.8272	65535	64649.35
863.7942	1158.7686	65535	64639.7
863.939	1160.7092	65535	64652.2
864.0838	1162.6491	65535	64647.95
864.2286	1164.5883	65535	64650.5
864.3734	1166.5267	65535	64648.7
864.5182	1168.4644	65535	64647.95
864.663	1170.4014	65535	64642.9
864.8078	1172.3377	65535	64650.5
864.9526	1174.2732	65535	64649.15
865.0974	1176.2081	65535	64648.15
865.2421	1178.1421	65535	64644.45
865.3869	1180.0755	65535	64650
865.5317	1182.0082	65535	64650.55
865.6764	1183.9401	65535	64646.35
865.8212	1185.8713	65535	64652.8
865.9659	1187.8017	65535	64649.15
866.1106	1189.7315	65535	64651.15
866.2554	1191.6605	65535	64621.75
866.4001	1193.5888	65535	64649.7
866.5448	1195.5163	65535	64651.6
866.6895	1197.4432	65535	64646.55
866.8342	1199.3693	65535	64649.8
866.9789	1201.2947	65535	64646.3
867.1236	1203.2193	65535	64648.8
867.2683	1205.1432	65535	64648.15
867.413	1207.0664	65535	64649.1
867.5576	1208.9889	65535	64646.5
867.7023	1210.9106	65535	64648.3
867.847	1212.8316	65535	64648.8
867.9916	1214.7519	65535	64640
868.1363	1216.6715	65535	64650.7
868.2809	1218.5903	65535	64649.9
868.4255	1220.5084	65535	64648.3
868.5701	1222.4257	65535	64647.85
868.7148	1224.3424	65535	64650.05
868.8594	1226.2583	65535	64645.2
869.004	1228.1735	65535	64647.7
869.1486	1230.0879	65535	64648.4
869.2932	1232.0016	65535	64649.15
869.4377	1233.9146	65535	64647.1
869.5823	1235.8269	65535	64648.55
869.7269	1237.7384	65535	64648.15
869.8715	1239.6492	65535	64649.1
870.016	1241.5592	65535	64650
870.1606	1243.4686	65535	64646.2
870.3051	1245.3772	65535	64647.7
870.4496	1247.285	65535	64647.6
870.5941	1249.1922	65535	64648.35
870.7387	1251.0986	65535	64646.9
870.8832	1253.0042	65535	64650.55
871.0277	1254.9092	65535	64647.7
871.1722	1256.8134	65535	64648.75
871.3167	1258.7169	65535	64647.05
871.4611	1260.6196	65535	64648.75
871.6056	1262.5216	65535	64645.75
871.7501	1264.4229	65535	64648.2
871.8945	1266.3234	65535	64648.85
872.039	1268.2232	65535	64646.15
872.1834	1270.1223	65535	64648.05
872.3278	1272.0207	65535	64648.6
872.4723	1273.9183	65535	64642.35
872.6167	1275.8151	65535	64649.85
872.7611	1277.7113	65535	64647.05
872.9055	1279.6067	65535	64649.15
873.0499	1281.5014	65535	64647
873.1943	1283.3953	65535	64645.7
873.3386	1285.2885	65535	64648.2
873.483	1287.181	65535	64645.7
873.6274	1289.0727	65535	64650.25
873.7717	1290.9637	65535	64648.05
873.9161	1292.854	65535	64648.9
874.0604	1294.7435	65535	64649.4
874.2047	1296.6323	65535	64647.9
874.349	1298.5204	65535	64644.8
874.4933	1300.4077	65535	64647.75
874.6376	1302.2943	65535	64650.15
874.7819	1304.1802	65535	64648.55
874.9262	1306.0653	65535	64644.55
875.0705	1307.9497	65535	64649.05
875.2147	1309.8333	65535	64649.45
875.359	1311.7162	65535	64648.15
875.5032	1313.5984	65535	64646
875.6475	1315.4798	65535	64632.1
875.7917	1317.3605	65535	64634.85
875.9359	1319.2405	65535	64648.7
876.0801	1321.1197	65535	64647.65
876.2243	1322.9982	65535	64646.25
876.3685	1324.876	65535	64648.55
876.5127	1326.753	65535	64647.65
876.6569	1328.6293	65535	64648.3
876.801	1330.5048	65535	64645.9
876.9452	1332.3796	65535	64649.95
877.0893	1334.2537	65535	64623.35
877.2335	1336.127	65535	64647.2
877.3776	1337.9996	65535	64649.35
877.5217	1339.8714	65535	64647.5
877.6658	1341.7426	65535	64605.65
877.8099	1343.6129	65535	64648.1
877.954	1345.4826	65535	64646.25
878.0981	1347.3515	65535	64648.65
878.2422	1349.2196	65535	64647.65
878.3862	1351.087	65535	64648.85
878.5303	1352.9537	65535	64648.15
878.6743	1354.8197	65535	64647.45
878.8184	1356.6849	65535	64647.2
878.9624	1358.5493	65535	64646.55
879.1064	1360.4131	65535	64646.55
879.2504	1362.276	65535	64648.1
879.3944	1364.1383	65535	64648.75
879.5384	1365.9998	65535	64644.15
879.6823	1367.8606	65535	64648.95
879.8263	1369.7206	65535	64648.2
879.9702	1371.5799	65535	64646.4
880.1142	1373.4384	65535	64648.3
880.2581	1375.2962	65535	64648.35
880.402	1377.1533	65535	64646
880.5459	1379.0096	65535	64648.75
880.6898	1380.8652	65535	64646.75
880.8337	1382.7201	65535	64650
880.9776	1384.5742	65535	64647.3
881.1215	1386.4275	65535	64647.05
881.2653	1388.2802	65535	64650.9
881.4092	1390.132	65535	64648.65
881.553	1391.9832	65535	64648.35
881.6968	1393.8336	65535	64647.3
881.8406	1395.6832	65535	64646.85
881.9844	1397.5322	65535	64646.7
882.1282	1399.3803	65535	64642.95
882.272	1401.2278	65535	64648.55
882.4158	1403.0745	65535	64647.05
882.5595	1404.9204	65535	64648.25
882.7033	1406.7656	65535	64648.5
882.847	1408.6101	65535	64647.75
882.9908	1410.4538	65535	64648.4
883.1345	1412.2968	65535	64647.4
883.2782	1414.139	65535	64648.1
883.4219	1415.9805	65535	64647.3
883.5656	1417.8213	65535	64643.05
883.7092	1419.6613	65535	64648.8
883.8529	1421.5006	65535	64646.05
883.9965	1423.3391	65535	64648.8
884.1402	1425.1769	65535	64648.1
884.2838	1427.0139	65535	64647
884.4274	1428.8502	65535	64645.85
884.571	1430.6858	65535	64648.1
884.7146	1432.5206	65535	64649.5
884.8582	1434.3547	65535	64647.35
885.0018	1436.188	65535	64649.15
885.1453	1438.0206	65535	64648.6
885.2889	1439.8524	65535	64647.9
885.4324	1441.6835	65535	64648.65
885.5759	1443.5139	65535	64645.45
885.7194	1445.3435	65535	64649.5
885.8629	1447.1724	65535	64647.7
886.0064	1449.0005	65535	64648.05
886.1499	1450.8279	65535	64645
886.2933	1452.6545	65535	64648.2
886.4368	1454.4804	65535	64648.65
886.5802	1456.3056	65535	64640.85
886.7237	1458.13	65535	64648.6
886.8671	1459.9536	65535	64646.8
887.0105	1461.7766	65535	64648.65
887.1539	1463.5987	65535	64645.85
887.2972	1465.4202	65535	64649.1
887.4406	1467.2409	65535	64649.05
887.584	1469.0608	65535	64648.4
887.7273	1470.88	65535	64645.65
887.8706	1472.6984	65535	64648.75
888.0139	1474.5161	65535	64644.6
888.1572	1476.3331	65535	64649
888.3005	1478.1493	65535	64647.15
888.4438	1479.9648	65535	64648.65
888.5871	1481.7795	65535	64649.5
888.7303	1483.5935	65535	64650.95
888.8736	1485.4067	65535	64649.15
889.0168	1487.2192	65535	64649.5
889.16	1489.031	65535	64646.75
889.3032	1490.842	65535	64648.45
889.4464	1492.6522	65535	64648.8
889.5896	1494.4618	65535	64649.55
889.7327	1496.2705	65535	64648.15
889.8759	1498.0785	65535	64647.1
890.019	1499.8858	65535	64648.6
890.1622	1501.6924	65535	64648.2
890.3053	1503.4981	65535	64648.7
890.4484	1505.3032	65535	64648.2
890.5914	1507.1075	65535	64649.3
890.7345	1508.911	65535	64651.25
890.8776	1510.7138	65535	64648.55
891.0206	1512.5159	65535	64646.85
891.1637	1514.3172	65535	64648.05
891.3067	1516.1178	65535	64648.2
891.4497	1517.9176	65535	64645.6
891.5927	1519.7166	65535	64651.05
891.7357	1521.515	65535	64642.3
891.8786	1523.3126	65535	64648
892.0216	1525.1094	65535	64645.55
892.1645	1526.9055	65535	64649.45
892.3074	1528.7008	65535	64650.2
892.4503	1530.4954	65535	64648
892.5932	1532.2893	65535	64653.45
892.7361	1534.0824	65535	64644.4
892.879	1535.8747	65535	64650.25
893.0218	1537.6663	65535	64648.4
893.1647	1539.4572	65535	64648.5
893.3075	1541.2473	65535	64649.9
893.4503	1543.0367	65535	64650.2
893.5931	1544.8253	65535	64646.5
893.7359	1546.6132	65535	64647.75
893.8787	1548.4003	65535	64637.5
894.0214	1550.1867	65535	64640.8
894.1642	1551.9723	65535	64645.75
894.3069	1553.7572	65535	64645.15
894.4496	1555.5414	65535	64650
894.5923	1557.3247	65535	64648.85
894.735	1559.1074	65535	64649.3
894.8777	1560.8893	65535	64650.05
895.0204	1562.6705	65535	64650
895.163	1564.4509	65535	64648.55
895.3056	1566.2305	65535	64650.15
895.4482	1568.0094	65535	64652.45
895.5908	1569.7876	65535	64652.1
895.7334	1571.565	65535	64652.1
895.876	1573.3417	65535	64652.35
896.0186	1575.1176	65535	64650.05
896.1611	1576.8928	65535	64651.4
896.3036	1578.6672	65535	64650.35
896.4461	1580.4409	65535	64652.7
896.5886	1582.2138	65535	64650.9
896.7311	1583.986	65535	64649.05
896.8736	1585.7575	65535	64652.75
897.0161	1587.5282	65535	64653.15
897.1585	1589.2981	65535	64652.45
897.3009	1591.0673	65535	64650.4
897.4433	1592.8358	65535	64651.55
897.5857	1594.6035	65535	64646.25
897.7281	1596.3704	65535	64650.05
897.8705	1598.1366	65535	64651.2
898.0128	1599.9021	65535	64654.35
898.1551	1601.6668	65535	64648.5
898.2975	1603.4308	65535	64652.5
898.4398	1605.194	65535	64646.55
898.5821	1606.9564	65535	64650.95
898.7243	1608.7182	65535	64649.4
898.8666	1610.4791	65535	64652.05
899.0088	1612.2394	65535	64652.75
899.1511	1613.9988	65535	64650.95
899.2933	1615.7576	65535	64651.2
899.4355	1617.5156	65535	64645.7
899.5776	1619.2728	65535	64652.85
899.7198	1621.0293	65535	64653.6
899.862	1622.785	65535	64647.55
900.0041	1624.54	65535	64649.65
900.1462	1626.2942	65535	64651.75
900.2883	1628.0477	65535	64649.1
900.4304	1629.8005	65535	64647.9
900.5725	1631.5525	65535	64651.85
900.7145	1633.3037	65535	64652.35
900.8566	1635.0542	65535	64652.5
900.9986	1636.804	65535	64652.6
901.1406	1638.553	65535	64565.9
901.2826	1640.3013	65535	64652
901.4245	1642.0488	65535	64651.9
901.5665	1643.7955	65535	64652.5
901.7085	1645.5416	65535	64651.2
901.8504	1647.2868	65535	64653.5
901.9923	1649.0313	65535	64650.55
902.1342	1650.7751	65535	64649.85
902.2761	1652.5181	65535	64654.5
902.4179	1654.2604	65535	64652
902.5598	1656.0019	65535	64653.05
902.7016	1657.7427	65535	64651.85
902.8434	1659.4828	65535	64652.25
902.9852	1661.222	65535	64651.9
903.127	1662.9606	65535	64654.5
903.2687	1664.6984	65535	64652.1
903.4105	1666.4354	65535	64654.25
903.5522	1668.1717	65535	64652.25
903.6939	1669.9072	65525.5	64644.7
903.8356	1671.642	65531.85	64647.1
903.9773	1673.3761	65527.55	64643
904.119	1675.1094	65523.65	64639.95
904.2606	1676.8419	65455.2	64572.7
904.4022	1678.5737	65512	64630
904.5439	1680.3048	65490	64607.45
904.6855	1682.0351	65441.25	64557.6
904.827	1683.7646	65384.2	64500.7
904.9686	1685.4934	65463.45	64581.9
905.1101	1687.2215	65098.65	64214.9
905.2517	1688.9488	65411.8	64527.7
905.3932	1690.6754	64743.25	63859.4
905.5347	1692.4012	65172.4	64290.85
905.6761	1694.1263	65292.05	64410.7
905.8176	1695.8506	64880.2	63996.85
905.9591	1697.5742	64977.1	64096.1
906.1005	1699.297	64894.85	64012.45
906.2419	1701.0191	65010.85	64129.95
906.3833	1702.7404	64500.15	63617.3
906.5246	1704.461	64319.3	63435.15
906.666	1706.1808	64736.1	63853
906.8073	1707.8999	64489.8	63607.35
906.9487	1709.6182	64391.05	63507.9
907.09	1711.3358	64311.5	63430.7
907.2313	1713.0527	64271.15	63388.9
907.3725	1714.7688	64317.75	63427.9
907.5138	1716.4841	63732.6	62849.9
907.655	1718.1987	63949	63061
907.7962	1719.9126	63788.55	62909.6
907.9374	1721.6257	63951.95	63066.5
908.0786	1723.338	63942.7	63062.15
908.2198	1725.0496	63258.75	62377.3
908.3609	1726.7605	63374.4	62491.2
908.502	1728.4706	63206	62323.45
908.6431	1730.18	63466.75	62581.8
908.7842	1731.8886	63192.05	62310.2
908.9253	1733.5964	62969.35	62082.2
909.0664	1735.3036	63332.15	62447.9
909.2074	1737.0099	63104.35	62223.7
909.3484	1738.7156	62822.1	61940.85
909.4894	1740.4204	62748.8	61864
909.6304	1742.1246	62859.7	61977.35
909.7714	1743.8279	62914.05	62030.6
909.9123	1745.5306	62856.25	61974.35
910.0532	1747.2325	62036.85	61155.35
910.1941	1748.9336	62085.65	61204.8
910.335	1750.634	62303.4	61419.45
910.4759	1752.3336	62605.75	61723.8
910.6168	1754.0325	61947.2	61067.55
910.7576	1755.7307	62509.2	61626.45
910.8984	1757.4281	61710.45	60830.6
911.0392	1759.1247	62274.3	61383.55
911.18	1760.8206	61365.6	60480.5
911.3208	1762.5158	61498.25	60611.85
911.4615	1764.2102	61708.25	60826.5
911.6022	1765.9039	61517.35	60635.3
911.7429	1767.5968	61344.1	60462.75
911.8836	1769.289	61175.15	60293.7
912.0243	1770.9804	61346.7	60466.05
912.1649	1772.6711	61133	60250.45
912.3056	1774.361	61002.9	60121.5
912.4462	1776.0502	61003.2	60122.25
912.5868	1777.7386	60234.2	59348.85
912.7274	1779.4263	60695.3	59815.25
912.8679	1781.1132	60708.8	59829.3
913.0084	1782.7994	60495.95	59613.45
913.149	1784.4849	60557.65	59675.4
913.2895	1786.1696	59564.8	58678.4
913.4299	1787.8535	60129.1	59250.55
913.5704	1789.5367	60226.35	59343.5
913.7108	1791.2192	59632.8	58750.5
913.8513	1792.9009	59194.1	58284.75
913.9917	1794.5818	59682.1	58798.75
914.132	1796.2621	59140.1	58261.9
914.2724	1797.9415	59235.3	58353.55
914.4128	1799.6202	59114.2	58232.55
914.5531	1801.2982	59094.1	58213.85
914.6934	1802.9755	58562	57680.9
914.8337	1804.6519	58386.8	57503.2
914.9739	1806.3277	59219.15	58338.8
915.1142	1808.0027	57865.15	56985.05
915.2544	1809.6769	58306.85	57425.2
915.3946	1811.3504	58444.65	57560.75
915.5348	1813.0231	57483.65	56601.85
915.675	1814.6951	58095.4	57216.1
915.8151	1816.3664	57671.1	56787
915.9553	1818.0369	57665.25	56785.15
916.0954	1819.7067	57379.7	56499.05
916.2355	1821.3757	57891.4	57007.65
916.3755	1823.044	57040.6	56158.85
916.5156	1824.7115	56735.7	55855.9
916.6556	1826.3783	56887.25	56006.9
916.7956	1828.0443	56963.55	56084
916.9356	1829.7096	56615.2	55732
917.0756	1831.3741	56025.8	55141.5
917.2155	1833.0379	56345.55	55466
917.3555	1834.701	56273.85	55389.8
917.4954	1836.3633	55866.5	54985.05
917.6353	1838.0248	56136.95	55253.9
917.7751	1839.6856	55897.8	55017
917.915	1841.3457	55451.85	54572.85
918.0548	1843.005	55939.3	55058.6
918.1946	1844.6636	55600.65	54720.15
918.3344	1846.3214	55017.05	54135.85
918.4742	1847.9785	55152.5	54272.85
918.6139	1849.6349	55029.75	54147
918.7537	1851.2904	55359.55	54468.65
918.8934	1852.9453	54671.35	53789.1
919.0331	1854.5994	54830.35	53946.6
919.1727	1856.2528	54912.4	54025.25
919.3124	1857.9054	54452.55	53573.2
919.452	1859.5572	54309.7	53429.3
919.5916	1861.2083	54390.45	53508.95
919.7312	1862.8587	54867.55	53985.7
919.8708	1864.5084	53774.6	52893.05
920.0103	1866.1572	54162.85	53283.4
920.1498	1867.8054	53507.05	52625.75
920.2893	1869.4528	53836.45	52955.8
920.4288	1871.0994	53274.15	52394.2
920.5683	1872.7453	53326.7	52443.9
920.7077	1874.3905	53404.25	52516.1
920.8471	1876.0349	53003.35	52120.6
920.9865	1877.6786	53291.7	52408.85
921.1259	1879.3215	52918.95	52038.15
921.2653	1880.9637	53161.05	52277.35
921.4046	1882.6051	52793.9	51914.1
921.5439	1884.2458	52574.1	51692.2
921.6832	1885.8858	52269.5	51389.7
921.8225	1887.525	52373.35	51491.6
921.9617	1889.1634	52251.85	51370.95
922.101	1890.8011	52062.9	51182.8
922.2402	1892.4381	51625.4	50744.95
922.3794	1894.0743	51976.75	51094.85
922.5185	1895.7098	51667.75	50785.95
922.6577	1897.3446	51390.45	50507.1
922.7968	1898.9786	51432.9	50547.4
922.9359	1900.6118	51204.45	50324.25
923.075	1902.2443	50920.35	50036.8
923.214	1903.8761	51088.1	50205.85
923.3531	1905.5071	50731.8	49850.4
923.4921	1907.1374	50293.95	49412.15
923.6311	1908.7669	50403.65	49523
923.77	1910.3957	50515.75	49634.5
923.909	1912.0237	49966.9	49084.8
924.0479	1913.651	49859.3	48978.55
924.1868	1915.2776	49729.6	48848.85
924.3257	1916.9034	49632.55	48752.4
924.4646	1918.5285	49332	48452.55
924.6034	1920.1528	49255.35	48373.25
924.7422	1921.7764	49153.85	48273.55
924.881	1923.3992	48990.2	48112.1
925.0198	1925.0213	48683.95	47801.6
925.1586	1926.6427	48408.55	47529.55
925.2973	1928.2633	48452.35	47490
925.436	1929.8832	48276.4	47394.9
925.5747	1931.5023	48087.15	47206.25
925.7134	1933.1207	47842.05	46960.25
925.852	1934.7383	47866.25	46983.7
925.9906	1936.3552	47580.85	46700.85
926.1292	1937.9714	47488.2	46606.1
926.2678	1939.5868	47411.1	46528.7
926.4064	1941.2015	47065.25	46182.65
926.5449	1942.8154	46833.85	45953.35
926.6834	1944.4286	46710.65	45830.85
926.8219	1946.041	46606.85	45707.65
926.9604	1947.6528	46345.45	45459.45
927.0988	1949.2637	46255.45	45376.6
927.2372	1950.8739	46017.35	45136.15
927.3756	1952.4834	45962.15	45080.1
927.514	1954.0921	45885.3	45004.95
927.6523	1955.7001	45667.85	44782.3
927.7907	1957.3074	45612.15	44732.9
927.929	1958.9139	45318.7	44437.6
928.0673	1960.5197	45291.9	44409.15
928.2055	1962.1247	45029.25	44149
928.3438	1963.729	44739.05	43859.05
928.482	1965.3325	44652	43745.9
928.6202	1966.9353	44516.45	43637.1
928.7584	1968.5374	44324.6	43441.3
928.8965	1970.1387	44199.05	43318
929.0346	1971.7393	44068.2	43188.6
929.1727	1973.3392	43955.2	43073.4
929.3108	1974.9383	43722.4	42843
929.4489	1976.5366	43546.75	42665.8
929.5869	1978.1342	43488.85	42609.45
929.7249	1979.7311	43402.55	42519.65
929.8629	1981.3273	43262.05	42380.35
930.0009	1982.9227	43130.8	42249.2
930.1388	1984.5173	42968.7	42089.55
930.2767	1986.1112	42782.9	41903.3
930.4146	1987.7044	42756.9	41876.5
930.5525	1989.2968	42503.8	41619.65
930.6904	1990.8885	42444.55	41560.55
930.8282	1992.4795	42379.85	41496.5
930.966	1994.0697	42193.85	41312.15
931.1038	1995.6592	42063.55	41184.15
931.2415	1997.2479	41932.75	41051.85
931.3793	1998.8359	41836.45	40955.5
931.517	2000.4232	41635.2	40755.2
931.6547	2002.0097	41542.65	40664.65
931.7923	2003.5955	41300.25	40419.65
931.93	2005.1805	41239.35	40358.8
932.0676	2006.7648	41181.1	40302.05
932.2052	2008.3484	41044.9	40163.35
932.3427	2009.9312	41067.3	40185.2
932.4803	2011.5133	40828.95	39952.1
932.6178	2013.0946	40733.15	39854.45
932.7553	2014.6752	40571.4	39692.45
932.8928	2016.2551	40520.85	39640.15
933.0302	2017.8342	40289.7	39408.95
933.1676	2019.4126	40137.85	39256.55
933.305	2020.9902	40008.95	39130.25
933.4424	2022.5672	39896.2	39015.9
933.5798	2024.1433	39842.9	38957
933.7171	2025.7188	39719.4	38841.65
933.8544	2027.2935	39584.3	38704.1
933.9917	2028.8674	39460.6	38580.65
934.129	2030.4406	39348.65	38469
934.2662	2032.0131	39129.95	38250.95
934.4034	2033.5849	39003.05	38116.95
934.5406	2035.1559	38983.6	38104.35
934.6778	2036.7261	38858.6	37977.7
934.8149	2038.2957	38768.1	37887.45
934.952	2039.8645	38661.4	37780.95
935.0891	2041.4325	38692	37806.9
935.2262	2042.9998	38480.95	37602.1
935.3632	2044.5664	38369.6	37486.85
935.5002	2046.1323	38225.85	37347
935.6372	2047.6974	38133.8	37255.85
935.7742	2049.2617	38067.65	37190
935.9111	2050.8254	38023.2	37139.15
936.048	2052.3883	37917.45	37035.95
936.1849	2053.9504	37716.6	36836.35
936.3218	2055.5118	37615	36733.9
936.4586	2057.0725	37448.8	36563.8
936.5955	2058.6325	37408.55	36529.55
936.7323	2060.1917	37257.25	36377.2
936.869	2061.7502	37129.35	36247.85
937.0058	2063.3079	36987.3	36108.9
937.1425	2064.8649	36868.4	35984.65
937.2792	2066.4212	36779.45	35899.5
937.4159	2067.9767	36669.6	35790.35
937.5525	2069.5315	36501.2	35620.15
937.6891	2071.0856	36341.45	35460.8
937.8257	2072.6389	36210.95	35328.4
937.9623	2074.1915	36013.55	35135.75
938.0989	2075.7433	35907.8	35026.35
938.2354	2077.2945	35832.7	34954.55
938.3719	2078.8448	35756.2	34876.8
938.5084	2080.3945	35574.15	34692.9
938.6448	2081.9434	35516.75	34635.7
938.7812	2083.4916	35410.75	34529.25
938.9176	2085.039	35292.5	34410.7
939.054	2086.5857	35211.05	34330.5
939.1903	2088.1317	35146.05	34265.55
939.3267	2089.677	35079.7	34199.5
939.463	2091.2215	34958.95	34079.9
939.5992	2092.7652	34825.6	33943.45
939.7355	2094.3083	34741.2	33861.7
939.8717	2095.8506	34666.35	33785.9
940.0079	2097.3921	34639.8	33761.2
940.1441	2098.933	34497.1	33616.45
940.2802	2100.4731	34454.25	33572.5
940.4163	2102.0124	34375.45	33478.55
940.5524	2103.5511	34345.7	33466.45
940.6885	2105.089	34189.05	33309.7
940.8245	2106.6261	34110.8	33231.5
940.9606	2108.1626	34002	33121.7
941.0965	2109.6983	33924.3	33016.15
941.2325	2111.2332	33790.65	32908.65
941.3684	2112.7675	33679.05	32798.3
941.5044	2114.301	33617.35	32737.15
941.6403	2115.8337	33552.15	32670.8
941.7761	2117.3657	33447.65	32566.65
941.912	2118.897	33347.7	32465.8
942.0478	2120.4276	33234.35	32347.3
942.1835	2121.9575	33109.8	32229
942.3193	2123.4866	33130.05	32234.15
942.455	2125.0149	32994.65	32111.55
942.5907	2126.5426	32804.35	31924.85
942.7264	2128.0695	32776.2	31892.95
942.8621	2129.5956	32708.15	31829.4
942.9977	2131.1211	32647.3	31761.45
943.1333	2132.6458	32504.8	31625.5
943.2689	2134.1698	32413.95	31534.2
943.4044	2135.693	32348.7	31467
943.54	2137.2155	32290	31408.3
943.6755	2138.7373	32209.9	31330.4
943.8109	2140.2584	32072.4	31190.85
943.9464	2141.7787	31987.7	31102.8
944.0818	2143.2983	31823.3	30946
944.2172	2144.8171	31686.05	30806.55
944.3526	2146.3353	31603.85	30720.95
944.4879	2147.8527	31459.5	30579.95
944.6232	2149.3693	31461.2	30580.95
944.7585	2150.8853	31307.35	30424.75
944.8938	2152.4005	31130.1	30250.45
945.029	2153.9149	31082.6	30201.15
945.1642	2155.4287	31033.25	30153.95
945.2994	2156.9417	30976.45	30097.65
945.4346	2158.454	30869.7	29987.05
945.5697	2159.9655	30796.75	29916.65
945.7048	2161.4764	30713.9	29834.5
945.8399	2162.9865	30636.65	29755.35
945.9749	2164.4958	30537.95	29656.05
946.1099	2166.0045	30376.5	29493.15
946.2449	2167.5124	30355	29475.95
946.3799	2169.0195	30231.15	29351
946.5148	2170.526	30257.05	29374.15
946.6498	2172.0317	30105.1	29224.05
946.7846	2173.5367	30039.05	29158.4
946.9195	2175.0409	29913.6	29034.05
947.0543	2176.5445	29952.85	29071
947.1891	2178.0473	29722.55	28843.45
947.3239	2179.5494	29613.2	28729
947.4587	2181.0507	29530.5	28651.2
947.5934	2182.5513	29428.6	28546.7
947.7281	2184.0512	29389.5	28509.45
947.8628	2185.5504	29289	28409
947.9974	2187.0488	29136.1	28256.95
948.132	2188.5465	29024.75	28144.4
948.2666	2190.0435	28926.6	28043.8
948.4012	2191.5397	28814.5	27934.65
948.5357	2193.0353	28755.35	27875.65
948.6702	2194.5301	28559.25	27678.9
948.8047	2196.0241	28497.55	27617.1
948.9392	2197.5175	28438.55	27558.85
949.0736	2199.0101	28309.75	27425.95
949.208	2200.502	28185.9	27308.95
949.3424	2201.9931	28066.85	27186.3
949.4767	2203.4835	27994.5	27113.85
949.611	2204.9733	27963.55	27077.85
949.7453	2206.4622	27841.55	26963.3
949.8796	2207.9505	27735.95	26851.55
950.0138	2209.438	27587.4	26708.4
950.148	2210.9248	27540.45	26659.25
950.2822	2212.4109	27452.5	26574.5
950.4164	2213.8962	27347.8	26464.65
950.5505	2215.3809	27257.45	26374.2
950.6846	2216.8648	27196.6	26315.9
950.8186	2218.3479	27088.65	26204.35
950.9527	2219.8304	26967.95	26086.65
951.0867	2221.3121	26900.5	26017.1
951.2207	2222.7931	26811.5	25932.9
951.3546	2224.2733	26705.4	25823.2
951.4886	2225.7529	26628.8	25747.25
951.6225	2227.2317	26525.55	25644.65
951.7563	2228.7098	26462.5	25583.15
951.8902	2230.1872	26343.9	25462.3
952.024	2231.6638	26324.15	25443.45
952.1578	2233.1397	26211.5	25324.9
952.2916	2234.6149	26153.55	25273.65
952.4253	2236.0894	26038.2	25159.1
952.559	2237.5632	25983.5	25102.25
952.6927	2239.0362	25846.85	24967.3
952.8263	2240.5085	25784.55	24904.7
952.9599	2241.9801	25691.9	24810.1
953.0935	2243.4509	25614.2	24735.2
953.2271	2244.921	25491.75	24612.4
953.3606	2246.3904	25449.65	24568.85
953.4941	2247.8591	25334.55	24454.6
953.6276	2249.3271	25227.4	24348.05
953.7611	2250.7943	25122.85	24242.45
953.8945	2252.2608	25060.2	24182.15
954.0279	2253.7266	25009.7	24130.4
954.1612	2255.1917	24958.15	24078.5
954.2946	2256.656	24824.35	23943
954.4279	2258.1197	24763.7	23885.5
954.5612	2259.5826	24731.85	23849.8
954.6944	2261.0447	24689.3	23809.15
954.8276	2262.5062	24531.35	23648.2
954.9608	2263.9669	24493.45	23611.05
955.094	2265.4269	24441.9	23560.9
955.2271	2266.8862	24341.95	23459.6
955.3602	2268.3448	24298.35	23416.4
955.4933	2269.8026	24232.8	23351.35
955.6264	2271.2598	24181.55	23300.6
955.7594	2272.7162	24073	23193.85
955.8924	2274.1719	23990.15	23110.6
956.0253	2275.6268	23913	23034.5
956.1583	2277.0811	23854.8	22973.55
956.2912	2278.5346	23827.35	22947.7
956.4241	2279.9874	23772.3	22892.65
956.5569	2281.4395	23717.35	22838
956.6897	2282.8908	23624.4	22738.95
956.8225	2284.3414	23535.2	22652.05
956.9553	2285.7914	23469.8	22591.65
957.088	2287.2406	23369.2	22489.9
957.2207	2288.689	23336.95	22457.95
957.3534	2290.1368	23249.1	22367.05
957.486	2291.5838	23162.2	22281.1
957.6186	2293.0302	23115.75	22233.25
957.7512	2294.4758	22997.8	22118.75
957.8838	2295.9206	22883.15	21999.95
958.0163	2297.3648	22895.25	22017.65
958.1488	2298.8082	22825.1	21944.75
958.2813	2300.251	22726.65	21848.45
958.4137	2301.693	22646.25	21763.75
958.5461	2303.1343	22619	21736.4
958.6785	2304.5748	22539.5	21659.95
958.8108	2306.0147	22461.4	21581.45
958.9432	2307.4538	22399.15	21517.6
959.0754	2308.8922	22332.8	21452.65
959.2077	2310.3299	22224.8	21343.65
959.3399	2311.7669	22194.75	21315.35
959.4721	2313.2031	22119.95	21239.9
959.6043	2314.6387	22020.45	21138.8
959.7365	2316.0735	21917.65	21037.3
959.8686	2317.5076	21873.1	20993.55
960.0006	2318.941	21848.85	20969.05
960.1327	2320.3737	21770.8	20890.15
960.2647	2321.8056	21688.45	20805.75
960.3967	2323.2369	21623.45	20742.4
960.5287	2324.6674	21580.05	20699.4
960.6606	2326.0972	21504.9	20623.3
960.7925	2327.5263	21397.05	20516.8
960.9244	2328.9547	21346.7	20465.7
961.0562	2330.3823	21272.5	20393.05
961.1881	2331.8092	21280.3	20397.35
961.3198	2333.2355	21120.4	20240.35
961.4516	2334.661	21094.3	20212.95
961.5833	2336.0858	21063.8	20182.95
961.715	2337.5098	21028.95	20149.15
961.8467	2338.9332	20953.3	20072.25
961.9783	2340.3558	20868.9	19984.95
962.1099	2341.7778	20784.25	19904.6
962.2415	2343.199	20713.05	19830.2
962.373	2344.6195	20646.55	19767.9
962.5045	2346.0393	20646.2	19766.25
962.636	2347.4583	20576.2	19696.5
962.7675	2348.8767	20486.8	19605.5
962.8989	2350.2943	20403.4	19522.55
963.0303	2351.7113	20392	19510.85
963.1617	2353.1275	20303.1	19421.85
963.293	2354.543	20231.45	19343.05
963.4243	2355.9578	20205.15	19324.4
963.5556	2357.3718	20039.75	19159.05
963.6868	2358.7852	19969.9	19086.6
963.818	2360.1978	19901.4	19020.55
963.9492	2361.6098	19910.95	19032
964.0803	2363.021	19821.9	18938
964.2114	2364.4315	19772.65	18894.25
964.3425	2365.8413	19682.35	18800.6
964.4736	2367.2504	19613.9	18734
964.6046	2368.6587	19543.6	18663.45
964.7356	2370.0664	19422.1	18541
964.8666	2371.4733	19394.2	18513.5
964.9975	2372.8795	19348.05	18468.7
965.1284	2374.285	19288.6	18410.2
965.2593	2375.6899	19171.35	18291.15
965.3901	2377.0939	19058.2	18178.95
965.5209	2378.4973	19011.1	18132.5
965.6517	2379.9	18936.65	18054.8
965.7825	2381.3019	18876.25	17996.65
965.9132	2382.7032	18828.3	17948.35
966.0439	2384.1037	18810.3	17930.45
966.1745	2385.5035	18716.7	17836.75
966.3051	2386.9027	18606.8	17727.3
966.4357	2388.3011	18588.65	17705.55
966.5663	2389.6987	18531.2	17651.8
966.6968	2391.0957	18444.15	17565.25
966.8273	2392.492	18403.85	17523.2
966.9578	2393.8876	18314	17433.85
967.0882	2395.2824	18221.4	17343.05
967.2186	2396.6765	18143.45	17263.65
967.349	2398.07	18061.7	17182.35
967.4793	2399.4627	18049.3	17168.95
967.6097	2400.8547	18025.25	17146.6
967.7399	2402.246	17914.15	17030.15
967.8702	2403.6366	17787.3	16907
968.0004	2405.0265	17735.25	16857.15
968.1306	2406.4156	17705.45	16821.3
968.2607	2407.8041	17592.5	16708.4
968.3909	2409.1918	17533.25	16650.65
968.521	2410.5789	17434.65	16553.7
968.651	2411.9652	17424.6	16539.2
968.781	2413.3508	17363.95	16484.65
968.911	2414.7358	17277.1	16396.55
969.041	2416.12	17218.85	16340.7
969.1709	2417.5035	17186.05	16306.3
969.3008	2418.8863	17085.45	16203.65
969.4307	2420.2684	17069.05	16187.35
969.5606	2421.6497	16972.35	16093.15
969.6904	2423.0304	16886.5	16008.55
969.8201	2424.4104	16836.5	15954.25
969.9499	2425.7896	16755.85	15874.35
970.0796	2427.1682	16746.1	15865
970.2093	2428.546	16688.8	15807.05
970.3389	2429.9232	16643.6	15763
970.4685	2431.2996	16595.35	15715.35
970.5981	2432.6753	16567.1	15688.5
970.7277	2434.0503	16478.1	15597.75
970.8572	2435.4246	16424.8	15547.3
970.9867	2436.7982	16328	15446.6
971.1161	2438.1711	16296.05	15416.15
971.2456	2439.5433	16253.75	15371.1
971.375	2440.9148	16169.95	15289.6
971.5043	2442.2856	16117	15237.05
971.6336	2443.6557	16088.5	15209.8
971.7629	2445.025	15974.25	15095.65
971.8922	2446.3937	15948.65	15067.05
972.0214	2447.7617	15917.1	15035.8
972.1506	2449.1289	15862.45	14981.7
972.2798	2450.4955	15831.6	14946.35
972.4089	2451.8613	15783.7	14904.1
972.538	2453.2265	15758.6	14878.25
972.6671	2454.5909	15692.45	14811.8
972.7961	2455.9546	15620.75	14741
972.9251	2457.3177	15595.45	14718.5
973.0541	2458.68	15546.95	14665.15
973.1831	2460.0416	15525.95	14645.8
973.312	2461.4025	15499.05	14617.05
973.4408	2462.7627	15473.5	14581
973.5697	2464.1222	15379.65	14498.8
973.6985	2465.4811	15309	14428.25
973.8273	2466.8392	15233.15	14352.45
973.956	2468.1966	15231.15	14349.85
974.0847	2469.5533	15190.35	14308.05
974.2134	2470.9093	15154.95	14275.35
974.3421	2472.2645	15070.9	14189.95
974.4707	2473.6191	15028.45	14149.95
974.5993	2474.973	14977.45	14098.5
974.7278	2476.3262	14926.7	14045.55
974.8563	2477.6787	14869.65	13991.85
974.9848	2479.0305	14778.65	13898
975.1132	2480.3816	14741.5	13859.7
975.2417	2481.7319	14692.85	13811.4
975.37	2483.0816	14628.8	13746.45
975.4984	2484.4306	14606.75	13728.5
975.6267	2485.7789	14542.15	13663.55
975.755	2487.1264	14489.65	13609.25
975.8833	2488.4733	14392.6	13513.05
976.0115	2489.8195	14369.2	13484.6
976.1397	2491.165	14318.95	13435.65
976.2678	2492.5097	14280.85	13399.55
976.3959	2493.8538	14202.65	13322.95
976.524	2495.1972	14126.95	13246.55
976.6521	2496.5398	14060.2	13178.95
976.7801	2497.8818	14040.05	13157.3
976.9081	2499.2231	14013.25	13133.8
977.036	2500.5637	13938.35	13055.55
977.164	2501.9035	13879.3	12998.35
977.2918	2503.2427	13859.4	12975.2
977.4197	2504.5812	13814.2	12933.95
977.5475	2505.919	13760.6	12878.8
977.6753	2507.256	13736.05	12854.6
977.8031	2508.5924	13660.2	12780.75
977.9308	2509.9281	13640.75	12755.8
978.0585	2511.2631	13580.6	12702.65
978.1861	2512.5974	13548.15	12669.75
978.3137	2513.9309	13495.1	12613.65
978.4413	2515.2638	13444.1	12533.3
978.5689	2516.596	13402.4	12523.75
978.6964	2517.9275	13339.2	12458.2
978.8239	2519.2583	13287.1	12406.1
978.9513	2520.5884	13221.55	12339.75
979.0788	2521.9178	13175.85	12296.2
979.2062	2523.2465	13148.35	12268.5
979.3335	2524.5745	13086.05	12205.8
979.4608	2525.9018	13018.85	12139
979.5881	2527.2284	13012.1	12133.15
979.7154	2528.5543	12973	12094.2
979.8426	2529.8796	12911.1	12031.9
979.9698	2531.2041	12897.2	12015.8
980.0969	2532.5279	12867.55	11989.45
980.224	2533.851	12833.4	11953.9
980.3511	2535.1735	12796.55	11918.2
980.4781	2536.4952	12767.45	11886.15
980.6052	2537.8163	12742.2	11862.25
980.7321	2539.1366	12701.4	11822.6
980.8591	2540.4562	12625.35	11743.7
980.986	2541.7752	12652.65	11775.55
981.1129	2543.0935	12607.2	11726.8
981.2397	2544.411	12587.4	11706.4
981.3665	2545.7279	12553.45	11674.2
981.4933	2547.0441	12540.9	11660
981.62	2548.3596	12516.85	11634.4
981.7467	2549.6744	12436.05	11556.3
981.8734	2550.9885	12447.85	11559.35
982.0001	2552.3019	12370.95	11492.45
982.1267	2553.6146	12348.55	11467.65
982.2532	2554.9266	12327.9	11448.15
982.3798	2556.2379	12261.1	11379.3
982.5063	2557.5485	12233.45	11354.35
982.6327	2558.8585	12200.65	11313.9
982.7592	2560.1677	12180.7	11297.7
982.8856	2561.4762	12137.8	11257.35
983.0119	2562.7841	12132.55	11248.65
983.1383	2564.0913	12092.75	11213.15
983.2646	2565.3977	12070.25	11190.25
983.3908	2566.7035	12040.75	11158.2
983.517	2568.0086	12035.55	11153.45
983.6432	2569.313	11999.1	11118.5
983.7694	2570.6167	11958.15	11075.95
983.8955	2571.9197	11930.5	11053.85
984.0216	2573.222	11903.5	11021.3
984.1476	2574.5236	11870.35	10992.6
984.2737	2575.8246	11840.65	10956.4
984.3996	2577.1248	11819.6	10937.8
984.5256	2578.4244	11813.95	10934.15
984.6515	2579.7232	11802	10920.35
984.7774	2581.0214	11788.5	10883.55
984.9032	2582.3189	11701.5	10824.5
985.029	2583.6157	11668.85	10781.3
985.1548	2584.9118	11643.8	10765.4
985.2806	2586.2072	11620.75	10741.1
985.4063	2587.5019	11559.95	10679.5
985.5319	2588.7959	11542.85	10663.2
985.6576	2590.0893	11528.8	10645.95
985.7832	2591.3819	11508.15	10630.6
985.9087	2592.6739	11447.3	10569.1
986.0343	2593.9652	11407.55	10526.05
986.1597	2595.2557	11383.3	10503.75
986.2852	2596.5456	11317.8	10437.1
986.4106	2597.8348	11311.55	10432.1
986.536	2599.1234	11217.7	10339.15
986.6614	2600.4112	11193.9	10313.55
986.7867	2601.6983	11164.5	10280.85
986.912	2602.9848	11120.8	10240.4
987.0372	2604.2705	11080.65	10194.85
987.1624	2605.5556	11051.45	10172
987.2876	2606.84	11016.1	10135.1
987.4128	2608.1237	10958.05	10076.8
987.5379	2609.4067	10936.95	10057.3
987.6629	2610.689	10902.55	10013.9
987.788	2611.9707	10843.85	9962.6
987.913	2613.2516	10805.25	9920.7
988.0379	2614.5319	10752.55	9873.7
988.1629	2615.8115	10726.05	9847
988.2878	2617.0903	10703.8	9822.9
988.4126	2618.3685	10634.25	9753.95
988.5375	2619.6461	10580.55	9699.7
988.6622	2620.9229	10550.85	9671.3
988.787	2622.199	10540.05	9661.35
988.9117	2623.4745	10507.7	9627.55
989.0364	2624.7493	10464.45	9584.75
989.161	2626.0234	10432.3	9553.45
989.2857	2627.2968	10384.65	9504.65
989.4102	2628.5695	10352.3	9470.6
989.5348	2629.8415	10285.65	9407.25
989.6593	2631.1128	10240.8	9358.35
989.7837	2632.3835	10186	9306.85
989.9082	2633.6535	10128	9248.85
990.0326	2634.9228	10137.35	9257.2
990.1569	2636.1914	10089	9208.9
990.2812	2637.4593	10062.55	9176.45
990.4055	2638.7265	10014.85	9135.3
990.5298	2639.9931	10009.05	9129.6
990.654	2641.259	9989.45	9108.25
990.7782	2642.5242	9926.5	9045.35
990.9023	2643.7887	9903.55	9023.85
991.0264	2645.0525	9857.25	8975.4
991.1505	2646.3156	9812.05	8930.1
991.2745	2647.5781	9765.55	8883.7
991.3985	2648.8398	9771.55	8893.5
991.5225	2650.1009	9742.9	8824.7
991.6464	2651.3613	9722.05	8841.9
991.7703	2652.6211	9692	8813.5
991.8942	2653.8801	9645.25	8767.45
992.018	2655.1385	9646.45	8764.35
992.1418	2656.3961	9600.75	8721.15
992.2655	2657.6531	9585.65	8705.2
992.3892	2658.9094	9551.55	8671.6
992.5129	2660.1651	9521.8	8643.55
992.6366	2661.42	9483.75	8603
992.7602	2662.6743	9489.25	8607
992.8837	2663.9279	9478.9	8597.5
993.0073	2665.1808	9407.3	8528.05
993.1307	2666.433	9387.95	8505.6
993.2542	2667.6846	9334.75	8455.35
993.3776	2668.9354	9341.3	8457.95
993.501	2670.1856	9304.9	8424.95
993.6244	2671.4351	9299.55	8420.1
993.7477	2672.6839	9256.7	8375.85
993.8709	2673.9321	9209.9	8330.8
993.9942	2675.1795	9206.1	8326.25
994.1174	2676.4263	9174.95	8296.05
994.2405	2677.6724	9136.55	8256.85
994.3637	2678.9179	9110.1	8230.1
994.4868	2680.1626	9090.45	8213.25
994.6098	2681.4067	9060.2	8181.3
994.7328	2682.6501	9028.95	8148.85
994.8558	2683.8928	9005.25	8126.3
994.9788	2685.1348	8953.6	8074.7
995.1017	2686.3761	8931.2	8052.05
995.2245	2687.6168	8891.8	8012.25
995.3474	2688.8568	8873.95	7993.55
995.4702	2690.0961	8825.65	7947.55
995.5929	2691.3348	8839.55	7959.65
995.7156	2692.5727	8786.45	7905.85
995.8383	2693.81	8744.1	7865.1
995.961	2695.0466	8726.55	7847.25
996.0836	2696.2826	8694.5	7814.5
996.2062	2697.5178	8684.65	7803.8
996.3287	2698.7524	8633.95	7754.75
996.4512	2699.9863	8643.3	7762.45
996.5737	2701.2195	8583	7704.15
996.6961	2702.452	8585.6	7704
996.8185	2703.6839	8570.05	7689.95
996.9408	2704.9151	8529.4	7649.8
997.0631	2706.1456	8500.3	7623.05
997.1854	2707.3755	8465.65	7586.05
997.3077	2708.6046	8452.8	7572.85
997.4299	2709.8331	8442.25	7560.7
997.552	2711.0609	8386.8	7505.7
997.6742	2712.2881	8367	7487.8
997.7963	2713.5145	8330.5	7449.45
997.9183	2714.7403	8312.3	7435.15
998.0403	2715.9654	8293.85	7412.65
998.1623	2717.1899	8272.1	7392.15
998.2842	2718.4136	8253.6	7375.85
998.4062	2719.6367	8213.65	7333
998.528	2720.8591	8198	7310.05
998.6498	2722.0809	8166.65	7286.1
998.7716	2723.3019	8147.4	7264.1
998.8934	2724.5223	8116.9	7236.5
999.0151	2725.7421	8083	7203.25
999.1368	2726.9611	8077.2	7196.35
999.2584	2728.1795	8049.2	7164.15
999.38	2729.3972	8022	7141.3
999.5016	2730.6142	7959.45	7072.55
999.6231	2731.8306	7934.55	7053.95
999.7446	2733.0462	7872.95	6992.65
999.8661	2734.2612	7848.15	6963.5
999.9875	2735.4756	7797.95	6916.9
1000.1089	2736.6892	7774.15	6894.1
1000.2302	2737.9022	7720.85	6842.5
1000.3515	2739.1145	7686.95	6809
1000.4728	2740.3262	7646.55	6758.2
1000.594	2741.5372	7621.9	6744.2
1000.7152	2742.7475	7591.9	6711.95
1000.8363	2743.9571	7571	6690.7
1000.9575	2745.1661	7533.2	6648.6
1001.0785	2746.3744	7525.65	6646.25
1001.1996	2747.582	7486	6606
1001.3206	2748.7889	7439.95	6556.75
1001.4415	2749.9952	7433.85	6555.55
1001.5625	2751.2008	7403.5	6522.8
1001.6833	2752.4057	7366	6485.05
1001.8042	2753.61	7339.55	6459.05
1001.925	2754.8136	7331.7	6450.75
1002.0458	2756.0165	7306	6425.2
1002.1665	2757.2188	7287.95	6407.65
1002.2872	2758.4204	7252.5	6373.1
1002.4078	2759.6213	7201.7	6320.25
1002.5285	2760.8215	7184.35	6301.4
1002.649	2762.0211	7153.3	6270.75
1002.7696	2763.22	7144.6	6261.5
1002.8901	2764.4182	7126.2	6245
1003.0106	2765.6158	7087.85	6208.4
1003.131	2766.8127	7083.95	6205.55
1003.2514	2768.009	7028.8	6149.85
1003.3717	2769.2045	7024.1	6145.15
1003.492	2770.3994	6999.95	6117.95
1003.6123	2771.5936	6995.05	6113.65
1003.7325	2772.7872	6948.15	6069.9
1003.8527	2773.9801	6925.3	6044.35
1003.9729	2775.1723	6896.7	6000.8
1004.093	2776.3639	6881.6	6002.1
1004.2131	2777.5548	6870.85	5987.1
1004.3331	2778.745	6831	5950.7
1004.4531	2779.9346	6822.4	5944.15
1004.5731	2781.1235	6822	5941.75
1004.693	2782.3117	6765.4	5886.05
1004.8129	2783.4992	6753.2	5874.4
1004.9328	2784.6861	6731.95	5851.9
1005.0526	2785.8723	6692.25	5810.1
1005.1723	2787.0579	6684.15	5805.25
1005.2921	2788.2428	6649.9	5769.3
1005.4118	2789.427	6646.65	5769.9
1005.5314	2790.6106	6648.3	5769.75
1005.651	2791.7935	6605.55	5724.65
1005.7706	2792.9757	6574.55	5696.95
1005.8902	2794.1573	6564.7	5681.3
1006.0097	2795.3382	6526.5	5648
1006.1291	2796.5184	6527.55	5650.25
1006.2485	2797.698	6506.9	5624.65
1006.3679	2798.8769	6503.85	5624.55
1006.4873	2800.0551	6474.3	5593.9
1006.6066	2801.2327	6487.3	5603.95
1006.7258	2802.4096	6468.9	5588.25
1006.8451	2803.5859	6462	5582.75
1006.9642	2804.7615	6422.5	5541.2
1007.0834	2805.9364	6435.1	5555.55
1007.2025	2807.1106	6415.2	5538.25
1007.3216	2808.2842	6423.65	5543.45
1007.4406	2809.4572	6404.65	5525.6
1007.5596	2810.6294	6432.85	5552.75
1007.6785	2811.801	6441.35	5563.35
1007.7975	2812.972	6457.35	5580.5
1007.9163	2814.1423	6469.1	5587.25
1008.0352	2815.3119	6482	5602.55
1008.154	2816.4808	6502.15	5623.15
1008.2727	2817.6491	6532.2	5652.4
1008.3914	2818.8167	6531	5654.55
1008.5101	2819.9837	6559.6	5673.85
1008.6288	2821.15	6605.45	5726.65
1008.7474	2822.3157	6624.35	5745.4
1008.8659	2823.4807	6631.2	5752.05
1008.9844	2824.645	6676.35	5796.4
1009.1029	2825.8086	6711.85	5832.6
1009.2214	2826.9716	6722	5843.7
1009.3398	2828.134	6760.85	5883.25
1009.4581	2829.2957	6781.15	5902.05
1009.5764	2830.4567	6777.25	5898.85
1009.6947	2831.617	6757.85	5877.65
1009.813	2832.7767	6763.35	5885.95
1009.9312	2833.9358	6752.55	5874.3
1010.0493	2835.0941	6747.9	5867.4
1010.1675	2836.2519	6724.3	5845.85
1010.2855	2837.4089	6691.85	5809.95
1010.4036	2838.5653	6665.8	5785.95
1010.5216	2839.7211	6654.65	5777.85
1010.6396	2840.8761	6614.3	5732.7
1010.7575	2842.0306	6612.15	5734.6
1010.8754	2843.1843	6651.15	5772.15
1010.9932	2844.3374	6655.05	5774.7
1011.111	2845.4899	6690.4	5809.55
1011.2288	2846.6417	6701.1	5822.45
1011.3465	2847.7928	6744.75	5868.1
1011.4642	2848.9433	6791.45	5912.6
1011.5818	2850.0931	6805.9	5928.35
1011.6995	2851.2422	6843.35	5962.9
1011.817	2852.3907	6900.45	6020.65
1011.9345	2853.5385	6904.8	6023.8
1012.052	2854.6857	6949.2	6060.05
1012.1695	2855.8323	6940.85	6063.15
1012.2869	2856.9781	6947.85	6068.15
1012.4042	2858.1233	6994.9	6115.15
1012.5216	2859.2679	7025.05	6146.45
1012.6389	2860.4118	7059.1	6180.8
1012.7561	2861.555	7060.85	6177.7
1012.8733	2862.6976	7064.8	6184.05
1012.9905	2863.8395	7068.95	6188.95
1013.1076	2864.9808	7071.3	6193.95
1013.2247	2866.1214	7063	6184.3
1013.3417	2867.2614	7076.75	6195.75
1013.4587	2868.4007	7050.55	6169.1
1013.5757	2869.5393	7059.05	6178.65
1013.6926	2870.6773	7039.6	6156.85
1013.8095	2871.8146	7031.95	6150.15
1013.9263	2872.9513	7027.15	6144.1
1014.0431	2874.0874	6982.15	6104.2
1014.1599	2875.2227	6980.1	6099.9
1014.2766	2876.3574	6923.2	6045.25
1014.3933	2877.4915	6880.4	6000.15
1014.51	2878.6249	6858.8	5980
1014.6266	2879.7577	6800.45	5920.2
1014.7431	2880.8898	6778.6	5889.45
1014.8596	2882.0212	6755.45	5877.85
1014.9761	2883.152	6727.45	5846.1
1015.0925	2884.2821	6685.1	5805.15
1015.2089	2885.4116	6669.55	5789.65
1015.3253	2886.5405	6646.1	5767.65
1015.4416	2887.6686	6652.5	5770.25
1015.5579	2888.7962	6631.55	5754.6
1015.6741	2889.923	6616.4	5739.35
1015.7903	2891.0493	6601.55	5722.25
1015.9065	2892.1748	6576.95	5698.35
1016.0226	2893.2997	6587.65	5708.95
1016.1387	2894.424	6581.45	5703.65
1016.2547	2895.5476	6573.45	5694.25
1016.3707	2896.6706	6585.2	5706.75
1016.4866	2897.7929	6566.35	5685.6
1016.6025	2898.9145	6560.95	5683.65
1016.7184	2900.0355	6568	5688.45
1016.8342	2901.1559	6570.85	5691.5
1016.95	2902.2756	6582.55	5702.8
1017.0658	2903.3946	6594.05	5717.4
1017.1815	2904.513	6593	5712.5
1017.2971	2905.6308	6604.1	5724.6
1017.4127	2906.7479	6597	5719.65
1017.5283	2907.8643	6636.35	5756.3
1017.6439	2908.9801	6602.35	5723
1017.7594	2910.0953	6591.05	5711.55
1017.8748	2911.2098	6550.2	5667.15
1017.9902	2912.3236	6550.45	5662.2
1018.1056	2913.4368	6525.6	5641.9
1018.2209	2914.5494	6500.8	5621.8
1018.3362	2915.6613	6452.75	5566.9
1018.4515	2916.7725	6437.3	5556
1018.5667	2917.8831	6410.8	5529.65
1018.6819	2918.9931	6365.3	5481.05
1018.797	2920.1024	6311.95	5432.7
1018.9121	2921.211	6290.45	5410.4
1019.0271	2922.319	6256.15	5375.35
1019.1421	2923.4264	6226.8	5349.25
1019.2571	2924.5331	6206.05	5328.4
1019.372	2925.6391	6200.6	5323.4
1019.4869	2926.7445	6166.65	5288.75
1019.6017	2927.8493	6163	5283.35
1019.7165	2928.9534	6125.7	5245.95
1019.8313	2930.0569	6134.65	5251.65
1019.946	2931.1597	6119.65	5241.1
1020.0606	2932.2619	6105.55	5227.3
1020.1753	2933.3634	6096.55	5220
1020.2899	2934.4643	6090.25	5202.5
1020.4044	2935.5645	6055.9	5170.45
1020.5189	2936.6641	6035.75	5152.75
1020.6334	2937.763	5997.7	5119.45
1020.7478	2938.8613	5949.3	5068.7
1020.8622	2939.959	5911.2	5026.3
1020.9765	2941.056	5843.4	4966.15
1021.0908	2942.1523	5765.85	4886
1021.2051	2943.248	5707.4	4827.7
1021.3193	2944.3431	5615.45	4735.55
1021.4334	2945.4375	5516.3	4637.8
1021.5476	2946.5313	5437.55	4558.75
1021.6617	2947.6244	5331.1	4450.75
1021.7757	2948.7169	5230.15	4349.75
1021.8897	2949.8087	5163.55	4282.6
1022.0037	2950.8999	5039.25	4160.15
1022.1176	2951.9904	4985.05	4107.1
1022.2315	2953.0803	4908.65	4028.9
1022.3453	2954.1696	4860.35	3979.9
1022.4591	2955.2582	4795.4	3916.15
1022.5728	2956.3462	4740.15	3861.4
1022.6865	2957.4335	4706.6	3827.4
1022.8002	2958.5202	4650.2	3767.85
1022.9138	2959.6062	4627.9	3748.3
1023.0274	2960.6916	4598.45	3719.75
1023.141	2961.7764	4576.8	3697.35
1023.2545	2962.8605	4537.75	3657.8
1023.3679	2963.9439	4517.7	3637.15
1023.4813	2965.0267	4495.3	3615.1
1023.5947	2966.1089	4482.45	3581.05
1023.708	2967.1905	4460.65	3582.5
1023.8213	2968.2714	4435.3	3558.1
1023.9346	2969.3516	4420.65	3542.25
1024.0478	2970.4312	4429	3543.2
1024.1609	2971.5102	4409.05	3529.15
1024.274	2972.5885	4392.6	3512.45
1024.3871	2973.6662	4377.8	3493.4
1024.5002	2974.7432	4358.05	3479.25
1024.6132	2975.8196	4365.7	3488.2
1024.7261	2976.8954	4342.95	3467
1024.839	2977.9705	4324.65	3445.1
1024.9519	2979.045	4288.05	3408.65
1025.0647	2980.1188	4263	3385.1
1025.1775	2981.192	4238.8	3361.9
1025.2902	2982.2645	4217.1	3338.15
1025.4029	2983.3364	4165	3284.05
1025.5156	2984.4077	4138.7	3261.4
1025.6282	2985.4783	4134.55	3249.2
1025.7407	2986.5483	4103.25	3224.9
1025.8532	2987.6177	4052.85	3173.25
1025.9657	2988.6864	4021.85	3142.7
1026.0782	2989.7545	3986.05	3105.1
1026.1906	2990.8219	3960.55	3083.35
1026.3029	2991.8887	3924.3	3042.65
1026.4152	2992.9548	3894.25	3016
1026.5275	2994.0204	3848.6	2970.75
1026.6397	2995.0852	3816.05	2938.85
1026.7519	2996.1495	3782.75	2900.1
1026.864	2997.2131	3767.8	2890.45
1026.9761	2998.276	3728.1	2850.3
1027.0882	2999.3383	3700.5	2820.2
1027.2002	3000.4	3673.1	2795.35
1027.3122	3001.4611	3666	2786.8
1027.4241	3002.5215	3635.9	2756.05
1027.536	3003.5812	3611.7	2734.3
1027.6478	3004.6404	3581.65	2700.8
1027.7596	3005.6989	3570.6	2692.65
1027.8714	3006.7567	3543.8	2664.8
1027.9831	3007.8139	3553.4	2644.15
1028.0947	3008.8705	3517.45	2638.4
1028.2064	3009.9264	3513.25	2629.45
1028.3179	3010.9818	3495.2	2616.55
1028.4295	3012.0364	3477.25	2599.55
1028.541	3013.0905	3448.15	2567.5
1028.6524	3014.1439	3443.3	2563.45
1028.7638	3015.1966	3436.65	2556.3
1028.8752	3016.2487	3430.45	2551.8
1028.9865	3017.3002	3394.6	2511.75
1029.0978	3018.3511	3396.35	2518.25
1029.209	3019.4013	3389.1	2510.1
1029.3202	3020.4509	3384.6	2505.15
1029.4314	3021.4998	3378.05	2496.75
1029.5425	3022.5481	3357.25	2479.35
1029.6535	3023.5958	3359.85	2482.25
1029.7645	3024.6428	3351.25	2472.15
1029.8755	3025.6892	3338.05	2460.7
1029.9864	3026.735	3319.1	2439.45
1030.0973	3027.7802	3320.05	2441.85
1030.2082	3028.8247	3304.85	2424.35
1030.319	3029.8685	3272.3	2392.3
1030.4297	3030.9118	3271.85	2393.6
1030.5404	3031.9544	3269.8	2390.05
1030.6511	3032.9963	3262.3	2385
1030.7617	3034.0376	3251.85	2373.1
1030.8723	3035.0783	3255.85	2374.8
1030.9829	3036.1184	3242.1	2361.05
1031.0934	3037.1578	3243.15	2366.05
1031.2038	3038.1966	3226.2	2345.3
1031.3142	3039.2348	3213.45	2335.9
1031.4246	3040.2723	3217.25	2329.5
1031.5349	3041.3092	3202.05	2327.1
1031.6452	3042.3455	3190.6	2310.95
1031.7554	3043.3811	3183.9	2304.4
1031.8656	3044.4161	3167.65	2288.65
1031.9758	3045.4505	3172.4	2295.65
1032.0859	3046.4842	3151.1	2271.25
1032.1959	3047.5173	3133.9	2255.2
1032.3059	3048.5498	3125	2246.25
1032.4159	3049.5816	3114.3	2234.05
1032.5258	3050.6128	3098.3	2219.2
1032.6357	3051.6434	3093.3	2213.8
1032.7455	3052.6734	3105.6	2226.25
1032.8553	3053.7027	3082.7	2204.2
1032.9651	3054.7314	3062.1	2182.95
1033.0748	3055.7594	3058.7	2180.7
1033.1845	3056.7868	3042.4	2163.7
1033.2941	3057.8136	3020.35	2142.15
1033.4037	3058.8398	3017.9	2140.6
1033.5132	3059.8653	3019.9	2140.15
1033.6227	3060.8902	3002.95	2125
1033.7321	3061.9145	2989.75	2110.85
1033.8415	3062.9381	2982.55	2104.15
1033.9509	3063.9612	2984.15	2087
1034.0602	3064.9835	2957.45	2079
1034.1694	3066.0053	2948.55	2068.25
1034.2787	3067.0264	2937.15	2057.8
1034.3878	3068.0469	2926.7	2046.9
1034.497	3069.0668	2913	2030.75
1034.6061	3070.086	2913	2035.9
1034.7151	3071.1046	2896.45	2016.4
1034.8241	3072.1226	2880.2	1999.8
1034.9331	3073.1399	2858.3	1980.8
1035.042	3074.1567	2849.45	1969.4
1035.1508	3075.1727	2840.95	1959.85
1035.2597	3076.1882	2822.3	1943.45
1035.3684	3077.203	2830.8	1952.85
1035.4772	3078.2173	2815.05	1935.25
1035.5859	3079.2308	2800.95	1918
1035.6945	3080.2438	2794.75	1912.9
1035.8031	3081.2561	2780.8	1902.3
1035.9117	3082.2678	2767.55	1890.1
1036.0202	3083.2789	2739.45	1860.3
1036.1286	3084.2893	2731.4	1852.55
1036.2371	3085.2991	2721	1840.85
1036.3454	3086.3083	2705.5	1821.8
1036.4538	3087.3169	2702.6	1821.8
1036.562	3088.3248	2698.8	1819.05
1036.6703	3089.3321	2689.4	1808.35
1036.7785	3090.3388	2675.85	1799.85
1036.8866	3091.3449	2665.15	1788.15
1036.9948	3092.3503	2642.15	1760.8
1037.1028	3093.3551	2641.5	1762.5
1037.2108	3094.3593	2631.2	1754.55
1037.3188	3095.3629	2620.2	1743
1037.4267	3096.3658	2609.25	1729.3
1037.5346	3097.3681	2592.65	1714.6
1037.6425	3098.3698	2591.3	1711
1037.7503	3099.3708	2580.55	1694.2
1037.858	3100.3713	2554.8	1676.05
1037.9657	3101.3711	2568.2	1689.9
1038.0734	3102.3702	2662.8	1648.95
1038.181	3103.3688	2557.45	1676.05
1038.2886	3104.3667	2531.3	1654.9
1038.3961	3105.364	2516.05	1639.8
1038.5036	3106.3607	2505.6	1625.9
1038.611	3107.3568	2492.75	1612.35
1038.7184	3108.3522	2477.8	1600.6
1038.8257	3109.347	2479.2	1598.85
1038.933	3110.3412	2470.45	1588.2
1039.0403	3111.3348	2453.95	1576.25
1039.1475	3112.3277	2441.1	1560.75
1039.2547	3113.32	2431.15	1553.1
1039.3618	3114.3117	2432.6	1552.2
1039.4689	3115.3028	2427.15	1549.35
1039.5759	3116.2932	2419.75	1540.15
1039.6829	3117.2831	2401.1	1516.5
1039.7898	3118.2723	2396.1	1516.75
1039.8967	3119.2608	2382.75	1503.4
1040.0035	3120.2488	2376.6	1497.5
1040.1103	3121.2361	2363.35	1484.95
1040.2171	3122.2229	2375.1	1497.05
1040.3238	3123.209	2354.05	1473.15
1040.4305	3124.1944	2343.2	1464.85
1040.5371	3125.1793	2346.55	1468.25
1040.6437	3126.1635	2336.15	1458.5
1040.7502	3127.1471	2325.45	1448.05
1040.8567	3128.1301	2308	1429.25
1040.9631	3129.1125	2300.5	1422.65
1041.0695	3130.0942	2312.35	1434
1041.1759	3131.0753	2309.8	1423.5
1041.2822	3132.0558	2285.65	1404.65
1041.3884	3133.0357	2279.25	1399.9
1041.4946	3134.015	2269.45	1390.65
1041.6008	3134.9936	2269.45	1388.45
1041.7069	3135.9716	2285.25	1387.5
1041.813	3136.949	2255.9	1378.4
1041.919	3137.9258	2254.65	1370.55
1042.025	3138.902	2249.65	1365.3
1042.1309	3139.8775	2241.7	1363.2
1042.2368	3140.8524	2235.25	1356.65
1042.3427	3141.8267	2237.15	1355.9
1042.4485	3142.8004	2223.05	1342.6
1042.5542	3143.7735	2226.45	1341.05
1042.6599	3144.7459	2221.8	1341.85
1042.7656	3145.7178	2215.15	1334.2
1042.8712	3146.689	2197.95	1319.55
1042.9768	3147.6596	2190.75	1309.45
1043.0823	3148.6295	2180.8	1301.2
1043.1878	3149.5989	2164.75	1285.7
1043.2932	3150.5676	2165.8	1290.2
1043.3986	3151.5357	2155.3	1278.3
1043.5039	3152.5032	2154.35	1277.2
1043.6092	3153.4701	2153.7	1274.85
1043.7145	3154.4364	2143.75	1262.7
1043.8197	3155.402	2134.55	1256.55
1043.9248	3156.367	2126.4	1247.3
1044.03	3157.3315	2148.9	1233.6
1044.135	3158.2952	2113.4	1236.2
1044.24	3159.2584	2104.2	1224.8
1044.345	3160.221	2092.3	1213.35
1044.4499	3161.1829	2086.35	1208.4
1044.5548	3162.1442	2077.35	1198.15
1044.6596	3163.105	2073.6	1194.6
1044.7644	3164.065	2072.15	1192.9
1044.8692	3165.0245	2064.95	1182.85
1044.9739	3165.9834	2057	1180.5
1045.0785	3166.9416	2051.4	1173
1045.1831	3167.8993	2036.5	1158.5
1045.2877	3168.8563	2038.95	1160.5
1045.3922	3169.8127	2027.25	1148.45
1045.4966	3170.7684	2019.7	1141.6
1045.6011	3171.7236	2011.85	1130.65
1045.7054	3172.6782	2019.7	1141.25
1045.8098	3173.6321	2016.55	1138.7
1045.914	3174.5854	2006.65	1124.75
1046.0183	3175.5381	1988.55	1111.15
1046.1224	3176.4902	1993.35	1115.7
1046.2266	3177.4417	1974.85	1096.05
1046.3307	3178.3926	1983.05	1104.7
1046.4347	3179.3428	1969.35	1091.05
1046.5387	3180.2924	1967.85	1090.6
1046.6427	3181.2415	1961.35	1080.75
1046.7466	3182.1899	1942.4	1062.3
1046.8504	3183.1377	1943	1065.55
1046.9542	3184.0848	1946.9	1064.2
1047.058	3185.0314	1933.65	1055.35
1047.1617	3185.9773	1919.3	1040.15
1047.2654	3186.9227	1910.2	1032.55
1047.369	3187.8674	1915.2	1036.4
1047.4726	3188.8115	1911.25	1028.45
1047.5761	3189.755	1899.85	1021.9
1047.6796	3190.6979	1899.7	1022.45
1047.783	3191.6402	1893.4	1015.5
1047.8864	3192.5818	1890.35	1013.35
1047.9898	3193.5229	1893.8	996.55
1048.0931	3194.4633	1880.75	1002.1
1048.1963	3195.4031	1876.4	996.45
1048.2995	3196.3423	1867.4	991.35
1048.4027	3197.2809	1866.65	987.65
1048.5058	3198.2189	1856.95	978.9
1048.6089	3199.1563	1871.55	973.45
1048.7119	3200.0931	1849	971.9
1048.8148	3201.0292	1844.65	965.5
1048.9178	3201.9648	1834.65	958.85
1049.0206	3202.8997	1829.3	946.25
1049.1235	3203.834	1824.35	945.65
1049.2262	3204.7677	1818.65	940
1049.329	3205.7008	1818.25	938.05
1049.4317	3206.6333	1810.95	933.4
1049.5343	3207.5652	1810.2	929.15
1049.6369	3208.4964	1805.3	925.8
1049.7394	3209.4271	1801.9	924.6
1049.8419	3210.3571	1795.2	916.65
1049.9444	3211.2865	1791.95	911.3
1050.0468	3212.2154	1784.95	905.05
1050.1491	3213.1436	1789.15	909.4
1050.2514	3214.0712	1789.6	905.6
1050.3537	3214.9982	1771.15	892.5
1050.4559	3215.9246	1769.35	891.5
1050.5581	3216.8503	1770.55	892.3
1050.6602	3217.7755	1762.9	883.85
1050.7623	3218.7001	1759.35	881.05
1050.8643	3219.624	1742.75	863.05
1050.9663	3220.5473	1750.95	872.8
1051.0682	3221.4701	1738.9	859.65
1051.1701	3222.3922	1734.55	853.2
1051.2719	3223.3137	1739.3	861.55
1051.3737	3224.2346	1726.05	846.7
1051.4754	3225.1549	1732.65	855.85
1051.5771	3226.0746	1722.5	845.15
1051.6788	3226.9937	1715.3	837.9
1051.7804	3227.9121	1709.2	830.55
1051.8819	3228.83	1702.15	826.5
1051.9834	3229.7473	1702.4	822.05
1052.0849	3230.6639	1688.3	808.05
1052.1863	3231.5799	1695.85	816.85
1052.2876	3232.4954	1688.7	809.35
1052.3889	3233.4102	1681.5	803.6
1052.4902	3234.3244	1671.8	792.15
1052.5914	3235.238	1676.65	799.2
1052.6926	3236.151	1687.7	788.15
1052.7937	3237.0634	1658.5	780.9
1052.8948	3237.9752	1654.25	775.25
1052.9958	3238.8864	1652.9	772.55
1053.0968	3239.797	1645.7	767.65
1053.1977	3240.7069	1639.7	758.9
1053.2986	3241.6163	1640.25	759.45
1053.3994	3242.5251	1634.85	756.9
1053.5002	3243.4332	1631.05	752.6
1053.6009	3244.3408	1628.05	747.4
1053.7016	3245.2477	1625.45	747.25
1053.8022	3246.154	1615.55	735.4
1053.9028	3247.0598	1615.15	736.3
1054.0034	3247.9649	1612.05	734.25
1054.1039	3248.8694	1602	725.55
1054.2043	3249.7733	1596.5	717.9
1054.3047	3250.6766	1592.1	713.75
1054.4051	3251.5793	1587.05	708.3
1054.5054	3252.4814	1587.95	709.35
1054.6056	3253.3829	1577.85	699.7
1054.7058	3254.2838	1575.8	698.3
1054.806	3255.1841	1570.25	691.6
1054.9061	3256.0838	1567.9	691.6
1055.0061	3256.9829	1557.1	681.55
1055.1062	3257.8814	1556.5	676.65
1055.2061	3258.7792	1550.05	668.75
1055.306	3259.6765	1548.65	669.95
1055.4059	3260.5731	1537.7	662
1055.5057	3261.4692	1525	645.8
1055.6055	3262.3647	1519.5	641.2
1055.7052	3263.2595	1510.25	632.6
1055.8049	3264.1538	1496.85	620.3
1055.9045	3265.0474	1488.9	610.6
1056.0041	3265.9404	1483.95	605.7
1056.1036	3266.8329	1479.1	600.25
1056.2031	3267.7247	1470.6	581.95
1056.3025	3268.616	1445.3	568.5
1056.4019	3269.5066	1430.55	549.35
1056.5013	3270.3966	1419.7	539.6
1056.6005	3271.286	1399.25	522.35
