Software Version:	3.9.2.0
Unit SN:	10000200
Spectrometer SN:	6960
Date:	3/6/2024 10:46:04 AM
Data Line Index:	25
Spectral Points:	2048
Integration time (ms):	125
Averages:	20
Delay (ms):	30
Sequence Number:	1
Processing:	dark subtract
Laser Power (mW):	300
Laser Current (mA):	823
Laser Diode Temp (C):	25
Laser Case Temp (C):	27.3
System Temp (C):	27.1
Spectrometer Temp (C):	24.5
CCD Temp (C):	-0.002
Secondary Temp (C):	20.01
Heatsink Temp (C):	22.95
CCDPCB Temp (C):	36.496
SecondaryPCB Temp (C):	34.15

Wavelength	RamanShift	Raw Counts	Dark Subtracted
787.061	30.1047	1136.3	722.65
787.2016	32.3739	1163.25	749.65
787.3422	34.6426	1211.85	799.15
787.4828	36.9109	1262.15	845.15
787.6235	39.1787	1319.6	899.35
787.7642	41.4461	1383.3	959.7
787.9049	43.7131	1444.65	1018.6
788.0456	45.9796	1512.45	1082.65
788.1863	48.2456	1577.65	1142.4
788.3271	50.5112	1656.75	1219.3
788.4679	52.7764	1720.85	1280.15
788.6087	55.0411	1799.65	1355.35
788.7496	57.3054	1882.5	1432.3
788.8904	59.5692	1977.55	1525
789.0313	61.8326	2085.65	1630.1
789.1722	64.0955	2188.6	1728.9
789.3132	66.3579	2318.95	1853
789.4541	68.6199	2464.45	1997.55
789.5951	70.8815	2721.6	2251.25
789.7361	73.1426	3245.55	2768.8
789.8771	75.4032	4585.7	4105.35
790.0181	77.6634	7964.65	7480.85
790.1592	79.9231	16822.25	16332.8
790.3003	82.1824	55313.85	54814.95
790.4414	84.4412	65535	65016.9
790.5825	86.6995	65535	64989.2
790.7237	88.9574	65535	64967.4
790.8648	91.2148	65535	64953.25
791.006	93.4717	65535	64941.85
791.1472	95.7282	65535	64932.15
791.2885	97.9842	65535	64930.4
791.4297	100.2398	65535	64931.05
791.571	102.4949	65535	64922.7
791.7123	104.7495	65535	64924.9
791.8536	107.0036	65535	64918
791.9949	109.2573	65535	64920.25
792.1363	111.5105	65535	64916.9
792.2777	113.7632	65535	64914.6
792.4191	116.0154	65535	64906.65
792.5605	118.2672	65535	64913.45
792.7019	120.5185	65535	64914.6
792.8434	122.7693	65535	64910.05
792.9849	125.0197	65535	64907.2
793.1264	127.2696	65535	64904.8
793.2679	129.519	65535	64896.9
793.4094	131.7679	65535	64893.75
793.551	134.0163	65535	64891.65
793.6926	136.2642	65535	64890.7
793.8342	138.5117	65535	64878.9
793.9758	140.7587	65535	64885.35
794.1175	143.0052	65535	64884.95
794.2591	145.2512	65535	64886.2
794.4008	147.4967	65535	64880.3
794.5425	149.7417	65535	64878.1
794.6842	151.9863	65535	64872
794.826	154.2304	65535	64874.55
794.9677	156.4739	65535	64866.65
795.1095	158.717	65535	64866.05
795.2513	160.9596	65535	64861.15
795.3931	163.2017	65535	64858.2
795.535	165.4433	65535	64860.15
795.6768	167.6844	65535	64860.4
795.8187	169.925	65535	64853.7
795.9606	172.1651	65535	64851.35
796.1025	174.4047	65535	64845.75
796.2445	176.6439	65535	64846.3
796.3864	178.8825	65535	64845.1
796.5284	181.1206	65535	64838.9
796.6704	183.3582	65535	64835.65
796.8124	185.5954	65535	64834.55
796.9544	187.832	65535	64828.95
797.0965	190.0681	65535	64829.6
797.2386	192.3037	65535	64824.7
797.3806	194.5388	65535	64824.7
797.5228	196.7734	65535	64819.15
797.6649	199.0075	65535	64812.95
797.807	201.2411	65535	64813.9
797.9492	203.4742	65535	64815
798.0914	205.7068	65535	64815.65
798.2336	207.9389	65535	64810.95
798.3758	210.1704	65535	64805.9
798.518	212.4015	65535	64808.85
798.6603	214.632	65535	64815.15
798.8025	216.862	65535	64827.55
798.9448	219.0915	65535	64827.7
799.0871	221.3205	65535	64826.55
799.2294	223.549	65535	64828.6
799.3718	225.777	65535	64830.2
799.5141	228.0044	65535	64829.8
799.6565	230.2314	65535	64827.75
799.7989	232.4578	65535	64825.05
799.9413	234.6837	65535	64810.95
800.0837	236.909	65535	64814.5
800.2262	239.1339	65535	64791.25
800.3687	241.3582	65535	64804.9
800.5111	243.582	65535	64771.25
800.6536	245.8053	65535	64788.95
800.7961	248.0281	65535	64789.7
800.9387	250.2503	65535	64784.4
801.0812	252.472	65535	64782.95
801.2238	254.6932	65535	64782
801.3664	256.9139	65535	64780.45
801.509	259.134	65535	64780.25
801.6516	261.3536	65535	64779.15
801.7942	263.5727	65535	64775.15
801.9369	265.7912	65535	64776.05
802.0795	268.0092	65535	64777.5
802.2222	270.2267	65535	64773.85
802.3649	272.4436	65535	64775.25
802.5076	274.6601	65535	64766.85
802.6504	276.8759	65535	64769.05
802.7931	279.0913	65535	64769.4
802.9359	281.3061	65535	64768.4
803.0787	283.5204	65535	64766.6
803.2215	285.7341	65535	64761.55
803.3643	287.9473	65535	64746.7
803.5071	290.16	65535	64753.9
803.6499	292.3721	65535	64763.55
803.7928	294.5837	65535	64763.1
803.9357	296.7947	65535	64764.1
804.0786	299.0052	65535	64759.25
804.2215	301.2152	65535	64757.35
804.3644	303.4246	65535	64763.25
804.5074	305.6334	65535	64760.7
804.6503	307.8418	65535	64756
804.7933	310.0495	65535	64760.05
804.9363	312.2568	65535	64756.2
805.0793	314.4635	65535	64753.75
805.2223	316.6696	65535	64751.35
805.3653	318.8752	65535	64745.95
805.5084	321.0802	65535	64752.9
805.6514	323.2847	65535	64748.1
805.7945	325.4887	65535	64749.15
805.9376	327.692	65535	64745.25
806.0807	329.8949	65535	64748.3
806.2238	332.0972	65535	64742.75
806.367	334.2989	65535	64738.85
806.5101	336.5001	65535	64742.85
806.6533	338.7007	65535	64740.75
806.7965	340.9008	65535	64739.3
806.9397	343.1003	65535	64738.85
807.0829	345.2992	65535	64733.85
807.2261	347.4976	65535	64733.3
807.3693	349.6955	65535	64728.2
807.5126	351.8927	65535	64732.95
807.6559	354.0895	65535	64721.05
807.7991	356.2856	65535	64729.4
807.9424	358.4812	65535	64731.65
808.0857	360.6763	65535	64729
808.2291	362.8707	65535	64725.2
808.3724	365.0646	65535	64723.15
808.5158	367.258	65535	64723.15
808.6591	369.4508	65535	64717.5
808.8025	371.643	65535	64715.3
808.9459	373.8346	65535	64718.95
809.0893	376.0257	65535	64713.45
809.2327	378.2162	65535	64715
809.3762	380.4062	65535	64713.25
809.5196	382.5956	65535	64711
809.6631	384.7844	65535	64713.65
809.8066	386.9726	65535	64714.2
809.9501	389.1603	65535	64716.45
810.0936	391.3474	65535	64677.9
810.2371	393.5339	65535	64718.2
810.3806	395.7199	65535	64718.15
810.5241	397.9052	65535	64724.75
810.6677	400.09	65535	64718.85
810.8113	402.2743	65535	64723.7
810.9548	404.4579	65535	64721.15
811.0984	406.641	65535	64717.5
811.2421	408.8235	65535	64717.75
811.3857	411.0054	65535	64714.75
811.5293	413.1868	65535	64714.35
811.673	415.3675	65535	64710.75
811.8166	417.5477	65535	64709.75
811.9603	419.7273	65535	64707.65
812.104	421.9064	65535	64698.4
812.2477	424.0848	65535	64704.15
812.3914	426.2627	65535	64702.65
812.5351	428.4399	65535	64704.3
812.6788	430.6166	65535	64697.3
812.8226	432.7928	65535	64693.7
812.9663	434.9683	65535	64697.1
813.1101	437.1432	65535	64692.65
813.2539	439.3176	65535	64695.25
813.3977	441.4914	65535	64696.9
813.5415	443.6645	65535	64695.4
813.6853	445.8371	65535	64696.3
813.8291	448.0091	65535	64696
813.973	450.1806	65535	64693.1
814.1168	452.3514	65535	64694.4
814.2607	454.5216	65535	64688
814.4046	456.6913	65535	64690.8
814.5485	458.8603	65535	64690.15
814.6924	461.0288	65535	64692.95
814.8363	463.1967	65535	64690.65
814.9802	465.3639	65535	64688.85
815.1241	467.5306	65535	64693.2
815.2681	469.6967	65535	64691.35
815.412	471.8622	65535	64689.2
815.556	474.0271	65535	64691.45
815.7	476.1914	65535	64686.6
815.844	478.3551	65535	64690.15
815.988	480.5182	65535	64687.4
816.132	482.6807	65535	64688.65
816.276	484.8426	65535	64691.3
816.4201	487.0039	65535	64685.9
816.5641	489.1647	65535	64683.45
816.7082	491.3248	65535	64688.2
816.8522	493.4843	65535	64687.9
816.9963	495.6432	65535	64683.4
817.1404	497.8015	65535	64681.7
817.2845	499.9592	65535	64683.45
817.4286	502.1163	65535	64684.35
817.5727	504.2728	65535	64679.2
817.7168	506.4287	65535	64683.65
817.861	508.5839	65535	64683.7
818.0051	510.7386	65535	64683.75
818.1493	512.8927	65535	64679.35
818.2935	515.0461	65535	64679.05
818.4377	517.199	65535	64679.1
818.5818	519.3512	65535	64680.65
818.726	521.5029	65535	64673.9
818.8703	523.6539	65535	64677.95
819.0145	525.8043	65535	64676.45
819.1587	527.9541	65535	64673.95
819.303	530.1033	65535	64676.65
819.4472	532.2519	65535	64676.45
819.5915	534.3999	65535	64672.1
819.7357	536.5472	65535	64672.9
819.88	538.694	65535	64674.45
820.0243	540.8401	65535	64674.75
820.1686	542.9856	65535	64669.3
820.3129	545.1305	65535	64669.95
820.4572	547.2748	65535	64667.75
820.6016	549.4185	65535	64667.05
820.7459	551.5615	65535	64669.1
820.8902	553.704	65535	64667.25
821.0346	555.8458	65535	64674.45
821.1789	557.987	65535	64670.9
821.3233	560.1276	65535	64672.2
821.4677	562.2675	65535	64672
821.6121	564.4069	65535	64672.9
821.7565	566.5456	65535	64674.45
821.9009	568.6837	65535	64673.45
822.0453	570.8212	65535	64672.9
822.1897	572.958	65535	64670.5
822.3342	575.0942	65535	64670.85
822.4786	577.2299	65535	64670.65
822.6231	579.3648	65535	64669.65
822.7675	581.4992	65535	64672.15
822.912	583.6329	65535	64673.25
823.0565	585.766	65535	64670.35
823.201	587.8985	65535	64671.8
823.3454	590.0304	65535	64644.1
823.4899	592.1616	65535	64666.7
823.6345	594.2922	65535	64665.6
823.779	596.4222	65535	64665.8
823.9235	598.5515	65535	64664.05
824.068	600.6802	65535	64663.05
824.2126	602.8083	65535	64666.75
824.3571	604.9358	65535	64662.25
824.5017	607.0626	65535	64665.15
824.6462	609.1888	65535	64660.35
824.7908	611.3144	65535	64658.6
824.9354	613.4393	65535	64662.25
825.08	615.5636	65535	64663.35
825.2246	617.6873	65535	64663.5
825.3692	619.8103	65535	64662.1
825.5138	621.9327	65535	64662.15
825.6584	624.0544	65535	64664.3
825.803	626.1756	65535	64663.1
825.9477	628.2961	65535	64660.4
826.0923	630.4159	65535	64659.8
826.237	632.5351	65535	64661.4
826.3816	634.6537	65535	64658.75
826.5263	636.7716	65535	64658.8
826.6709	638.8889	65535	64654.8
826.8156	641.0056	65535	64655.45
826.9603	643.1216	65535	64658.7
827.105	645.237	65535	64654.75
827.2497	647.3518	65535	64657.7
827.3944	649.4659	65535	64659.35
827.5391	651.5793	65535	64658
827.6838	653.6922	65535	64659.3
827.8285	655.8043	65535	64656.15
827.9733	657.9159	65535	64657.8
828.118	660.0268	65535	64654.15
828.2627	662.137	65535	64655.15
828.4075	664.2466	65535	64653.9
828.5522	666.3556	65535	64655.55
828.697	668.4639	65535	64652
828.8418	670.5716	65535	64655.8
828.9865	672.6786	65535	64654.1
829.1313	674.785	65535	64653
829.2761	676.8907	65535	64651.4
829.4209	678.9958	65535	64651.8
829.5657	681.1002	65535	64654.6
829.7105	683.204	65535	64646.85
829.8553	685.3072	65535	64651.2
830.0001	687.4097	65535	64650.2
830.1449	689.5115	65535	64647.5
830.2898	691.6127	65535	64651.6
830.4346	693.7132	65535	64651.9
830.5794	695.8131	65535	64643.1
830.7243	697.9123	65535	64648.5
830.8691	700.0109	65535	64648.75
831.014	702.1089	65535	64652.15
831.1588	704.2061	65535	64652.2
831.3037	706.3028	65535	64647.65
831.4486	708.3987	65535	64649.2
831.5935	710.4941	65535	64647.3
831.7383	712.5887	65535	64649.3
831.8832	714.6827	65535	64645.4
832.0281	716.7761	65535	64651.55
832.173	718.8688	65535	64648.85
832.3179	720.9608	65535	64644.05
832.4628	723.0522	65535	64642.9
832.6077	725.1429	65535	64645.6
832.7527	727.233	65535	64649.8
832.8976	729.3224	65535	64644.65
833.0425	731.4112	65535	64646.8
833.1874	733.4993	65535	64644.65
833.3324	735.5867	65535	64643.25
833.4773	737.6735	65535	64645.5
833.6222	739.7596	65535	64641.4
833.7672	741.845	65535	64643.25
833.9122	743.9298	65535	64643.05
834.0571	746.014	65535	64645.7
834.2021	748.0974	65535	64642.8
834.347	750.1802	65535	64644.15
834.492	752.2624	65535	64643.5
834.637	754.3439	65535	64643.15
834.782	756.4247	65535	64630.85
834.9269	758.5048	65535	64644.85
835.0719	760.5843	65535	64641.25
835.2169	762.6631	65535	64644.55
835.3619	764.7413	65535	64646.5
835.5069	766.8188	65535	64642.55
835.6519	768.8956	65535	64641.55
835.7969	770.9718	65535	64643.35
835.9419	773.0473	65535	64641.9
836.0869	775.1221	65535	64642.75
836.232	777.1962	65535	64642
836.377	779.2697	65535	64639.6
836.522	781.3426	65535	64626.6
836.667	783.4147	65535	64641.6
836.8121	785.4862	65535	64643.45
836.9571	787.557	65535	64641.8
837.1021	789.6271	65535	64644.5
837.2472	791.6966	65535	64641.5
837.3922	793.7654	65535	64638.8
837.5373	795.8335	65535	64640.9
837.6823	797.901	65535	64642.95
837.8274	799.9678	65535	64641.75
837.9724	802.0339	65535	64643.85
838.1175	804.0993	65535	64632.2
838.2626	806.1641	65535	64638.2
838.4076	808.2282	65535	64641.65
838.5527	810.2916	65535	64637.65
838.6978	812.3544	65535	64642.2
838.8428	814.4164	65535	64644.9
838.9879	816.4778	65535	64639.75
839.133	818.5385	65535	64639.05
839.2781	820.5986	65535	64641.2
839.4232	822.658	65535	64637.95
839.5682	824.7166	65535	64638.25
839.7133	826.7747	65535	64640.55
839.8584	828.832	65535	64640.6
840.0035	830.8886	65535	64638.45
840.1486	832.9446	65535	64640
840.2937	834.9999	65535	64639.35
840.4388	837.0545	65535	64634.65
840.5839	839.1085	65535	64638.2
840.729	841.1618	65535	64635.7
840.8741	843.2143	65535	64638.65
841.0192	845.2662	65535	64640.4
841.1643	847.3175	65535	64642.3
841.3095	849.368	65535	64638.75
841.4546	851.4179	65535	64639.05
841.5997	853.467	65535	64640.35
841.7448	855.5155	65535	64636.6
841.8899	857.5633	65535	64638.8
842.0351	859.6105	65535	64637.55
842.1802	861.6569	65535	64636.2
842.3253	863.7027	65535	64636.4
842.4704	865.7478	65535	64635.35
842.6156	867.7922	65535	64637.45
842.7607	869.8359	65535	64637
842.9058	871.8789	65535	64636
843.0509	873.9212	65535	64606.85
843.1961	875.9629	65535	64637.85
843.3412	878.0039	65535	64635.95
843.4863	880.0441	65535	64638.25
843.6315	882.0837	65535	64636
843.7766	884.1226	65535	64634.65
843.9218	886.1609	65535	64636.55
844.0669	888.1984	65535	64639.75
844.212	890.2352	65535	64638.1
844.3572	892.2714	65535	64632.5
844.5023	894.3069	65535	64634.4
844.6475	896.3416	65535	64637.05
844.7926	898.3757	65535	64636.65
844.9377	900.4091	65535	64637
845.0829	902.4418	65535	64629.95
845.228	904.4739	65535	64632.65
845.3732	906.5052	65535	64635.3
845.5183	908.5358	65535	64637.8
845.6635	910.5658	65535	64632.8
845.8086	912.595	65535	64636.6
845.9538	914.6236	65535	64638.45
846.0989	916.6515	65535	64635.35
846.2441	918.6786	65535	64633
846.3892	920.7051	65535	64634.3
846.5344	922.7309	65535	64634.35
846.6795	924.756	65535	64636.45
846.8246	926.7804	65535	64633.75
846.9698	928.8041	65535	64629.75
847.1149	930.8272	65535	64635.6
847.2601	932.8495	65535	64631.15
847.4052	934.8711	65535	64635.25
847.5504	936.892	65535	64634.7
847.6955	938.9123	65535	64630.35
847.8407	940.9318	65535	64635.6
847.9858	942.9506	65535	64633.5
848.131	944.9688	65535	64636.15
848.2761	946.9862	65535	64635.05
848.4213	949.003	65535	64631.4
848.5664	951.019	65535	64633
848.7115	953.0344	65535	64632.75
848.8567	955.0491	65535	64634.75
849.0018	957.063	65535	64634.55
849.147	959.0763	65535	64635.55
849.2921	961.0888	65535	64634.35
849.4373	963.1007	65535	64634
849.5824	965.1119	65535	64634.4
849.7275	967.1223	65535	64635.8
849.8727	969.1321	65535	64636.55
850.0178	971.1412	65535	64636.65
850.1629	973.1495	65535	64633.7
850.3081	975.1572	65535	64600.45
850.4532	977.1641	65535	64635.6
850.5983	979.1704	65535	64632.7
850.7435	981.1759	65535	64631.3
850.8886	983.1808	65535	64635
851.0337	985.1849	65535	64623.25
851.1788	987.1884	65535	64629.55
851.324	989.1911	65535	64630.25
851.4691	991.1932	65535	64633.4
851.6142	993.1945	65535	64632.85
851.7593	995.1951	65535	64631.65
851.9045	997.1951	65535	64630.4
852.0496	999.1943	65535	64632.45
852.1947	1001.1928	65535	64631.9
852.3398	1003.1906	65535	64634.55
852.4849	1005.1877	65535	64631.4
852.63	1007.1841	65535	64635.1
852.7751	1009.1798	65535	64632.45
852.9202	1011.1748	65535	64631.8
853.0653	1013.1691	65535	64633.6
853.2104	1015.1627	65535	64633.25
853.3555	1017.1556	65535	64634.15
853.5006	1019.1477	65535	64634.05
853.6457	1021.1392	65535	64635.85
853.7908	1023.1299	65535	64636.55
853.9359	1025.12	65535	64631.55
854.081	1027.1093	65535	64638.5
854.2261	1029.0979	65535	64635.75
854.3712	1031.0859	65535	64636.65
854.5163	1033.0731	65535	64635.8
854.6613	1035.0596	65535	64636.1
854.8064	1037.0454	65535	64633
854.9515	1039.0304	65535	64632.75
855.0965	1041.0148	65535	64632.9
855.2416	1042.9985	65535	64634.15
855.3867	1044.9814	65535	64635.3
855.5317	1046.9636	65535	64635.8
855.6768	1048.9452	65535	64633.35
855.8219	1050.926	65535	64634.6
855.9669	1052.9061	65535	64636.3
856.112	1054.8855	65535	64631.55
856.257	1056.8642	65535	64630.45
856.4021	1058.8421	65535	64628.05
856.5471	1060.8194	65535	64632
856.6921	1062.7959	65535	64634.1
856.8372	1064.7717	65535	64635.1
856.9822	1066.7469	65535	64632.05
857.1272	1068.7213	65535	64631.55
857.2723	1070.695	65535	64633.65
857.4173	1072.6679	65535	64635.55
857.5623	1074.6402	65535	64633.25
857.7073	1076.6117	65535	64630.45
857.8523	1078.5826	65535	64633.15
857.9973	1080.5527	65535	64630.65
858.1423	1082.5221	65535	64633.55
858.2873	1084.4908	65535	64633.35
858.4323	1086.4587	65535	64631.65
858.5773	1088.426	65535	64634.6
858.7223	1090.3925	65535	64628.25
858.8673	1092.3584	65535	64633.65
859.0123	1094.3235	65535	64631.3
859.1573	1096.2879	65535	64633.95
859.3022	1098.2515	65535	64633.05
859.4472	1100.2145	65535	64631.35
859.5922	1102.1767	65535	64634.25
859.7371	1104.1382	65535	64632.85
859.8821	1106.099	65535	64633.4
860.027	1108.0591	65535	64633.6
860.172	1110.0185	65535	64630.15
860.3169	1111.9771	65535	64632.3
860.4619	1113.9351	65535	64631.55
860.6068	1115.8923	65535	64633.3
860.7517	1117.8488	65535	64632.2
860.8967	1119.8045	65535	64632.15
861.0416	1121.7596	65535	64632.45
861.1865	1123.7139	65535	64634
861.3314	1125.6675	65535	64633.7
861.4763	1127.6204	65535	64635.65
861.6212	1129.5726	65535	64630.75
861.7661	1131.524	65535	64633.7
861.911	1133.4748	65535	64634.4
862.0559	1135.4248	65535	64631.45
862.2008	1137.3741	65535	64634.4
862.3457	1139.3226	65535	64629.95
862.4905	1141.2705	65535	64633
862.6354	1143.2176	65535	64629.15
862.7803	1145.164	65535	64630.15
862.9251	1147.1097	65535	64634.6
863.07	1149.0546	65535	64633
863.2148	1150.9989	65535	64633.8
863.3597	1152.9424	65535	64631.1
863.5045	1154.8852	65535	64633.45
863.6493	1156.8272	65535	64633.25
863.7942	1158.7686	65535	64627.05
863.939	1160.7092	65535	64631.45
864.0838	1162.6491	65535	64630.35
864.2286	1164.5883	65535	64632.5
864.3734	1166.5267	65535	64633.4
864.5182	1168.4644	65535	64633.35
864.663	1170.4014	65535	64627.7
864.8078	1172.3377	65535	64632.55
864.9526	1174.2732	65535	64631.3
865.0974	1176.2081	65535	64631.2
865.2421	1178.1421	65535	64630.4
865.3869	1180.0755	65535	64635.4
865.5317	1182.0082	65535	64633.95
865.6764	1183.9401	65535	64631.7
865.8212	1185.8713	65535	64634.95
865.9659	1187.8017	65535	64633.5
866.1106	1189.7315	65535	64635.1
866.2554	1191.6605	65535	64609.05
866.4001	1193.5888	65535	64635.55
866.5448	1195.5163	65535	64635.1
866.6895	1197.4432	65535	64634.55
866.8342	1199.3693	65535	64634.25
866.9789	1201.2947	65535	64629.05
867.1236	1203.2193	65535	64634.35
867.2683	1205.1432	65535	64633.2
867.413	1207.0664	65535	64631.7
867.5576	1208.9889	65535	64630.45
867.7023	1210.9106	65535	64632.5
867.847	1212.8316	65535	64633.55
867.9916	1214.7519	65535	64622.9
868.1363	1216.6715	65535	64636.1
868.2809	1218.5903	65535	64633.95
868.4255	1220.5084	65535	64632.5
868.5701	1222.4257	65535	64634.05
868.7148	1224.3424	65535	64635.95
868.8594	1226.2583	65535	64629.3
869.004	1228.1735	65535	64633.35
869.1486	1230.0879	65535	64635
869.2932	1232.0016	65535	64634.5
869.4377	1233.9146	65535	64630.45
869.5823	1235.8269	65535	64633.85
869.7269	1237.7384	65535	64634.75
869.8715	1239.6492	65535	64635.15
870.016	1241.5592	65535	64630.4
870.1606	1243.4686	65535	64631.95
870.3051	1245.3772	65535	64632.9
870.4496	1247.285	65535	64634.2
870.5941	1249.1922	65535	64635.15
870.7387	1251.0986	65535	64635.6
870.8832	1253.0042	65535	64631.25
871.0277	1254.9092	65535	64631.7
871.1722	1256.8134	65535	64636.6
871.3167	1258.7169	65535	64632.8
871.4611	1260.6196	65535	64633.8
871.6056	1262.5216	65535	64630.2
871.7501	1264.4229	65535	64634.3
871.8945	1266.3234	65535	64634.35
872.039	1268.2232	65535	64633.65
872.1834	1270.1223	65535	64632.2
872.3278	1272.0207	65535	64631.7
872.4723	1273.9183	65535	64626.15
872.6167	1275.8151	65535	64632.9
872.7611	1277.7113	65535	64632.6
872.9055	1279.6067	65535	64634.7
873.0499	1281.5014	65535	64632.05
873.1943	1283.3953	65535	64631.4
873.3386	1285.2885	65535	64636.75
873.483	1287.181	65535	64632.2
873.6274	1289.0727	65535	64636.5
873.7717	1290.9637	65535	64634.55
873.9161	1292.854	65535	64633.7
874.0604	1294.7435	65535	64630.75
874.2047	1296.6323	65535	64633.65
874.349	1298.5204	65535	64630.6
874.4933	1300.4077	65535	64632.45
874.6376	1302.2943	65535	64632.85
874.7819	1304.1802	65535	64633.45
874.9262	1306.0653	65535	64632.95
875.0705	1307.9497	65535	64633.3
875.2147	1309.8333	65535	64635.75
875.359	1311.7162	65535	64635.8
875.5032	1313.5984	65535	64631.95
875.6475	1315.4798	65535	64616.15
875.7917	1317.3605	65535	64618.05
875.9359	1319.2405	65535	64628.55
876.0801	1321.1197	65535	64632.6
876.2243	1322.9982	65535	64628.95
876.3685	1324.876	65535	64634.5
876.5127	1326.753	65535	64633.9
876.6569	1328.6293	65535	64632.3
876.801	1330.5048	65535	64631.1
876.9452	1332.3796	65535	64632.95
877.0893	1334.2537	65535	64609.35
877.2335	1336.127	65535	64633.35
877.3776	1337.9996	65535	64635.2
877.5217	1339.8714	65535	64633.35
877.6658	1341.7426	65535	64590.4
877.8099	1343.6129	65535	64633.6
877.954	1345.4826	65535	64628.85
878.0981	1347.3515	65535	64629
878.2422	1349.2196	65535	64634.15
878.3862	1351.087	65535	64634
878.5303	1352.9537	65535	64632.1
878.6743	1354.8197	65535	64635.25
878.8184	1356.6849	65535	64632.9
878.9624	1358.5493	65535	64633.85
879.1064	1360.4131	65535	64634.1
879.2504	1362.276	65535	64633.95
879.3944	1364.1383	65535	64634.3
879.5384	1365.9998	65535	64630.25
879.6823	1367.8606	65535	64630.5
879.8263	1369.7206	65535	64632.9
879.9702	1371.5799	65535	64631.85
880.1142	1373.4384	65535	64633.95
880.2581	1375.2962	65535	64632.3
880.402	1377.1533	65535	64634.85
880.5459	1379.0096	65535	64634.05
880.6898	1380.8652	65535	64633.55
880.8337	1382.7201	65535	64632.75
880.9776	1384.5742	65535	64632.85
881.1215	1386.4275	65535	64630.9
881.2653	1388.2802	65535	64634.55
881.4092	1390.132	65535	64635.1
881.553	1391.9832	65535	64632.3
881.6968	1393.8336	65535	64634
881.8406	1395.6832	65535	64632.35
881.9844	1397.5322	65535	64632.65
882.1282	1399.3803	65535	64629.6
882.272	1401.2278	65535	64632.35
882.4158	1403.0745	65535	64632.6
882.5595	1404.9204	65535	64634.45
882.7033	1406.7656	65535	64634.3
882.847	1408.6101	65535	64636.6
882.9908	1410.4538	65535	64633.85
883.1345	1412.2968	65535	64633.8
883.2782	1414.139	65535	64632.7
883.4219	1415.9805	65535	64633.15
883.5656	1417.8213	65535	64625.4
883.7092	1419.6613	65535	64634.75
883.8529	1421.5006	65535	64631.8
883.9965	1423.3391	65535	64634.2
884.1402	1425.1769	65535	64633.95
884.2838	1427.0139	65535	64633.65
884.4274	1428.8502	65535	64632.1
884.571	1430.6858	65535	64634.3
884.7146	1432.5206	65535	64634.05
884.8582	1434.3547	65535	64632.95
885.0018	1436.188	65535	64634.15
885.1453	1438.0206	65535	64634.2
885.2889	1439.8524	65535	64633.45
885.4324	1441.6835	65535	64632.9
885.5759	1443.5139	65535	64629.75
885.7194	1445.3435	65535	64631.95
885.8629	1447.1724	65535	64632.8
886.0064	1449.0005	65535	64635.8
886.1499	1450.8279	65535	64632.5
886.2933	1452.6545	65535	64634.25
886.4368	1454.4804	65535	64635.3
886.5802	1456.3056	65535	64626.75
886.7237	1458.13	65535	64636.7
886.8671	1459.9536	65535	64634
887.0105	1461.7766	65535	64633.8
887.1539	1463.5987	65535	64631.15
887.2972	1465.4202	65535	64635.2
887.4406	1467.2409	65535	64632.85
887.584	1469.0608	65535	64633.55
887.7273	1470.88	65535	64633.55
887.8706	1472.6984	65535	64633
888.0139	1474.5161	65535	64632.9
888.1572	1476.3331	65535	64635.3
888.3005	1478.1493	65535	64633.6
888.4438	1479.9648	65535	64637.25
888.5871	1481.7795	65535	64636.05
888.7303	1483.5935	65535	64636.15
888.8736	1485.4067	65535	64636.3
889.0168	1487.2192	65535	64634.45
889.16	1489.031	65535	64631.95
889.3032	1490.842	65535	64633.35
889.4464	1492.6522	65535	64633.65
889.5896	1494.4618	65535	64635.4
889.7327	1496.2705	65535	64633.8
889.8759	1498.0785	65535	64633.9
890.019	1499.8858	65535	64632.3
890.1622	1501.6924	65535	64634.4
890.3053	1503.4981	65535	64634.75
890.4484	1505.3032	65535	64633.4
890.5914	1507.1075	65535	64635.4
890.7345	1508.911	65535	64634.3
890.8776	1510.7138	65535	64633.9
891.0206	1512.5159	65535	64636.05
891.1637	1514.3172	65535	64635.6
891.3067	1516.1178	65535	64636.85
891.4497	1517.9176	65535	64631.35
891.5927	1519.7166	65535	64634.1
891.7357	1521.515	65535	64626.45
891.8786	1523.3126	65535	64633.15
892.0216	1525.1094	65535	64633.45
892.1645	1526.9055	65535	64636.2
892.3074	1528.7008	65535	64635.6
892.4503	1530.4954	65535	64629.35
892.5932	1532.2893	65535	64634.45
892.7361	1534.0824	65535	64630.25
892.879	1535.8747	65535	64634.15
893.0218	1537.6663	65535	64635.65
893.1647	1539.4572	65535	64636.2
893.3075	1541.2473	65535	64636.4
893.4503	1543.0367	65535	64635.2
893.5931	1544.8253	65535	64632.7
893.7359	1546.6132	65535	64632.7
893.8787	1548.4003	65535	64626.05
894.0214	1550.1867	65535	64625.9
894.1642	1551.9723	65535	64633.45
894.3069	1553.7572	65535	64635.75
894.4496	1555.5414	65535	64635.9
894.5923	1557.3247	65535	64634.85
894.735	1559.1074	65535	64636.1
894.8777	1560.8893	65535	64636.45
895.0204	1562.6705	65535	64636.85
895.163	1564.4509	65535	64637.15
895.3056	1566.2305	65535	64637.1
895.4482	1568.0094	65535	64636.6
895.5908	1569.7876	65535	64636.95
895.7334	1571.565	65535	64637
895.876	1573.3417	65535	64637.45
896.0186	1575.1176	65535	64636.55
896.1611	1576.8928	65535	64636.25
896.3036	1578.6672	65530.5	64633.1
896.4461	1580.4409	65535	64640.75
896.5886	1582.2138	65521.85	64622
896.7311	1583.986	65530.55	64632.6
896.8736	1585.7575	65484.8	64589.2
897.0161	1587.5282	65513.05	64616.7
897.1585	1589.2981	65507.35	64611.55
897.3009	1591.0673	65447.4	64548.1
897.4433	1592.8358	65353.1	64455.15
897.5857	1594.6035	65448.85	64549.8
897.7281	1596.3704	65439.35	64541.45
897.8705	1598.1366	65190	64294.2
898.0128	1599.9021	64975.7	64079.75
898.1551	1601.6668	65318.2	64418.05
898.2975	1603.4308	65157.5	64259.2
898.4398	1605.194	65135.7	64233.7
898.5821	1606.9564	64636.75	63740.5
898.7243	1608.7182	64929.25	64028.1
898.8666	1610.4791	64618.15	63721.95
899.0088	1612.2394	64954.2	64059.3
899.1511	1613.9988	64501.75	63608.3
899.2933	1615.7576	64955.55	64059.9
899.4355	1617.5156	64942.7	64040.65
899.5776	1619.2728	65299.5	64400.6
899.7198	1621.0293	64659.05	63762.75
899.862	1622.785	64710.05	63810.2
900.0041	1624.54	64952	64055.3
900.1462	1626.2942	64488.55	63591
900.2883	1628.0477	63708.5	62811.45
900.4304	1629.8005	62993.1	62094.25
900.5725	1631.5525	63762.4	62868.15
900.7145	1633.3037	62687.15	61792.05
900.8566	1635.0542	62567.3	61670.15
900.9986	1636.804	63014.2	62117.75
901.1406	1638.553	61889.6	60910.5
901.2826	1640.3013	62235.9	61340.85
901.4245	1642.0488	61482.05	60585.2
901.5665	1643.7955	62060.95	61165
901.7085	1645.5416	61535.6	60640.25
901.8504	1647.2868	60971.25	60075.5
901.9923	1649.0313	61862.65	60968.1
902.1342	1650.7751	61395.65	60496.1
902.2761	1652.5181	61000.8	60106.15
902.4179	1654.2604	61084.5	60189.6
902.5598	1656.0019	61494.1	60598.5
902.7016	1657.7427	61263.45	60368.85
902.8434	1659.4828	61864.3	60967.6
902.9852	1661.222	61331.05	60435.2
903.127	1662.9606	61996.9	61100.65
903.2687	1664.6984	61082.55	60189.25
903.4105	1666.4354	61293.05	60396.8
903.5522	1668.1717	60028.65	59132.75
903.6939	1669.9072	59225.25	58331.6
903.8356	1671.642	58968.75	58069.45
903.9773	1673.3761	58669.4	57774.4
904.119	1675.1094	58349.6	57455.75
904.2606	1676.8419	57704.3	56807.85
904.4022	1678.5737	57606.95	56713.2
904.5439	1680.3048	57262.45	56367.3
904.6855	1682.0351	56988.6	56093.8
904.827	1683.7646	56630.1	55729.35
904.9686	1685.4934	56769.7	55875.95
905.1101	1687.2215	55688.7	54793.15
905.2517	1688.9488	56361	55466.1
905.3932	1690.6754	54887.35	53993.55
905.5347	1692.4012	55444.25	54550.7
905.6761	1694.1263	55296.45	54400.15
905.8176	1695.8506	54897.4	54002.25
905.9591	1697.5742	54732.4	53837.25
906.1005	1699.297	54521.45	53625.8
906.2419	1701.0191	54418.25	53522.9
906.3833	1702.7404	53823.1	52929.1
906.5246	1704.461	53566.4	52668.7
906.666	1706.1808	53583.5	52686.25
906.8073	1707.8999	53413.6	52518.25
906.9487	1709.6182	53152.95	52259.05
907.09	1711.3358	53097.75	52203.1
907.2313	1713.0527	52843.25	51952.35
907.3725	1714.7688	52696.65	51797.5
907.5138	1716.4841	52138.35	51242.65
907.655	1718.1987	52254.95	51354.75
907.7962	1719.9126	52056.4	51162.6
907.9374	1721.6257	51892.75	50996.75
908.0786	1723.338	51903.3	51008.4
908.2198	1725.0496	51307.15	50412.05
908.3609	1726.7605	51205.15	50310.75
908.502	1728.4706	51061.45	50166.35
908.6431	1730.18	50846.25	49949.85
908.7842	1731.8886	50692.55	49800.2
908.9253	1733.5964	50583.85	49670.1
909.0664	1735.3036	50446.4	49549.9
909.2074	1737.0099	50265.35	49370.95
909.3484	1738.7156	50027.4	49133.35
909.4894	1740.4204	49794.15	48897.55
909.6304	1742.1246	49763.6	48869.1
909.7714	1743.8279	49638.9	48746.55
909.9123	1745.5306	49519.7	48625.25
910.0532	1747.2325	49183.65	48289.7
910.1941	1748.9336	49009.35	48116.7
910.335	1750.634	48852.65	47956.85
910.4759	1752.3336	48815.4	47921.9
910.6168	1754.0325	48647.5	47755.35
910.7576	1755.7307	48570.95	47676.4
910.8984	1757.4281	48407.85	47512.35
911.0392	1759.1247	48366.1	47465.8
911.18	1760.8206	48104.25	47206.05
911.3208	1762.5158	48068.7	47170.15
911.4615	1764.2102	47830.5	46938.55
911.6022	1765.9039	47694.65	46800.45
911.7429	1767.5968	47552.55	46658.45
911.8836	1769.289	47413.7	46519.4
912.0243	1770.9804	47297.4	46402.95
912.1649	1772.6711	47236.65	46343.55
912.3056	1774.361	47075.25	46181.65
912.4462	1776.0502	46927.95	46035.65
912.5868	1777.7386	46779.4	45884.15
912.7274	1779.4263	46605.55	45711.15
912.8679	1781.1132	46585.9	45693.05
913.0084	1782.7994	46364.55	45470.6
913.149	1784.4849	46296.45	45403.5
913.2895	1786.1696	46042.55	45142.75
913.4299	1787.8535	45941.05	45047.6
913.5704	1789.5367	45772.95	44879.4
913.7108	1791.2192	45703.35	44811
913.8513	1792.9009	45449	44524.95
913.9917	1794.5818	45450.65	44555.9
914.132	1796.2621	45289.35	44397.9
914.2724	1797.9415	45129.1	44235.7
914.4128	1799.6202	44970.6	44080.25
914.5531	1801.2982	44887.1	43993.7
914.6934	1802.9755	44789.45	43893.25
914.8337	1804.6519	44746	43852.15
914.9739	1806.3277	44422.05	43530.3
915.1142	1808.0027	44227.55	43335.45
915.2544	1809.6769	44209	43316.2
915.3946	1811.3504	44047.15	43152.35
915.5348	1813.0231	43956.95	43061.6
915.675	1814.6951	43862.25	42967.85
915.8151	1816.3664	43863.9	42968.8
915.9553	1818.0369	43708.2	42815.85
916.0954	1819.7067	43574.85	42681.9
916.2355	1821.3757	43428.3	42532.15
916.3755	1823.044	43315.45	42420.35
916.5156	1824.7115	43203.95	42309.8
916.6556	1826.3783	43011.5	42118.95
916.7956	1828.0443	42857.1	41965.45
916.9356	1829.7096	42752.35	41860.2
917.0756	1831.3741	42709.9	41814
917.2155	1833.0379	42528.3	41636.9
917.3555	1834.701	42321.65	41425.6
917.4954	1836.3633	42256.95	41360.75
917.6353	1838.0248	42130.35	41235.4
917.7751	1839.6856	42005.3	41112.45
917.915	1841.3457	41972.45	41080.2
918.0548	1843.005	41834.35	40942.45
918.1946	1844.6636	41784.35	40892.7
918.3344	1846.3214	41625.8	40731.55
918.4742	1847.9785	41562.35	40667.85
918.6139	1849.6349	41429.55	40535.1
918.7537	1851.2904	41334.75	40432.7
918.8934	1852.9453	41152.35	40258.75
919.0331	1854.5994	41030.7	40133.15
919.1727	1856.2528	41052.15	40153.25
919.3124	1857.9054	40898.3	40005
919.452	1859.5572	40869.9	39979.05
919.5916	1861.2083	40709.1	39817.1
919.7312	1862.8587	40676.1	39783.15
919.8708	1864.5084	40511.6	39616.85
920.0103	1866.1572	40391.45	39499.5
920.1498	1867.8054	40125.05	39230.8
920.2893	1869.4528	40190.3	39296.7
920.4288	1871.0994	39986.4	39092.65
920.5683	1872.7453	39927.75	39034
920.7077	1874.3905	39812.1	38912
920.8471	1876.0349	39629.6	38734.9
920.9865	1877.6786	39620.8	38725.85
921.1259	1879.3215	39515.6	38620.2
921.2653	1880.9637	39430.95	38535.85
921.4046	1882.6051	39334.05	38440.9
921.5439	1884.2458	39208	38311.65
921.6832	1885.8858	39044.4	38151.55
921.8225	1887.525	39006.25	38113.5
921.9617	1889.1634	38795	37902.95
922.101	1890.8011	38651.9	37760.6
922.2402	1892.4381	38559.6	37666.7
922.3794	1894.0743	38530.9	37638.8
922.5185	1895.7098	38366.5	37475.05
922.6577	1897.3446	38290.05	37397.05
922.7968	1898.9786	38127.15	37231
922.9359	1900.6118	38019.95	37125.1
923.075	1902.2443	37849.3	36952.6
923.214	1903.8761	37725.65	36832.9
923.3531	1905.5071	37570.1	36674.8
923.4921	1907.1374	37412.85	36518.4
923.6311	1908.7669	37326.3	36432.15
923.77	1910.3957	37266.45	36370.95
923.909	1912.0237	37013.15	36120.1
924.0479	1913.651	36959.25	36066.3
924.1868	1915.2776	36845.6	35955.3
924.3257	1916.9034	36617.5	35726.45
924.4646	1918.5285	36500	35607.5
924.6034	1920.1528	36332.1	35438.1
924.7422	1921.7764	36290	35396.6
924.881	1923.3992	36163.25	35271.2
925.0198	1925.0213	35803.3	34912.3
925.1586	1926.6427	35710.5	34817.8
925.2973	1928.2633	35729.3	34721.4
925.436	1929.8832	35540.8	34644.05
925.5747	1931.5023	35358.85	34468.6
925.7134	1933.1207	35267.2	34373.5
925.852	1934.7383	35199.8	34306.9
925.9906	1936.3552	35015.45	34123.6
926.1292	1937.9714	34930.05	34036.7
926.2678	1939.5868	34766.75	33871.95
926.4064	1941.2015	34602.25	33707.95
926.5449	1942.8154	34453.25	33560.75
926.6834	1944.4286	34357.55	33466.4
926.8219	1946.041	34201.9	33292.9
926.9604	1947.6528	33940.95	33044.3
927.0988	1949.2637	33862.8	32968.5
927.2372	1950.8739	33772.45	32879.45
927.3756	1952.4834	33676.7	32783.65
927.514	1954.0921	33587.7	32693.2
927.6523	1955.7001	33386.3	32487.65
927.7907	1957.3074	33347.45	32456.9
927.929	1958.9139	33152.55	32262.05
928.0673	1960.5197	33080.1	32184.05
928.2055	1962.1247	32911.8	32021.1
928.3438	1963.729	32801.3	31908.8
928.482	1965.3325	32599.9	31685.2
928.6202	1966.9353	32512.6	31621.35
928.7584	1968.5374	32386.2	31491.3
928.8965	1970.1387	32257.55	31366.7
929.0346	1971.7393	32153.85	31260.4
929.1727	1973.3392	32042	31151.35
929.3108	1974.9383	31905.65	31016.15
929.4489	1976.5366	31774.2	30881.65
929.5869	1978.1342	31727.1	30833.8
929.7249	1979.7311	31622.5	30728.55
929.8629	1981.3273	31554.15	30662.2
930.0009	1982.9227	31432.55	30538.85
930.1388	1984.5173	31251.45	30359.45
930.2767	1986.1112	31142.25	30250.25
930.4146	1987.7044	31061.5	30169
930.5525	1989.2968	30954	30060.8
930.6904	1990.8885	30877.05	29979.95
930.8282	1992.4795	30797.2	29904.55
930.966	1994.0697	30619.95	29730.15
931.1038	1995.6592	30563.6	29672.15
931.2415	1997.2479	30419.05	29527.15
931.3793	1998.8359	30318.3	29425.05
931.517	2000.4232	30185.55	29294
931.6547	2002.0097	30100.5	29208.6
931.7923	2003.5955	29904.3	29011.9
931.93	2005.1805	29891.35	28997.1
932.0676	2006.7648	29824.55	28933.35
932.2052	2008.3484	29719.75	28827.6
932.3427	2009.9312	29732.55	28839.9
932.4803	2011.5133	29560.15	28666.95
932.6178	2013.0946	29440.15	28549.4
932.7553	2014.6752	29346.2	28454.75
932.8928	2016.2551	29297.2	28404.65
933.0302	2017.8342	29203.15	28312.5
933.1676	2019.4126	29057.45	28165.85
933.305	2020.9902	28875.7	27985.15
933.4424	2022.5672	28853.3	27960.1
933.5798	2024.1433	28793.45	27897.3
933.7171	2025.7188	28659.15	27768.3
933.8544	2027.2935	28566.85	27674.75
933.9917	2028.8674	28414.25	27524.05
934.129	2030.4406	28320.95	27430.25
934.2662	2032.0131	28183.3	27292
934.4034	2033.5849	28084.95	27187.6
934.5406	2035.1559	28025.05	27133.3
934.6778	2036.7261	28000.55	27110.95
934.8149	2038.2957	27866.95	26975.45
934.952	2039.8645	27833.3	26943.1
935.0891	2041.4325	27848.95	26952.35
935.2262	2042.9998	27645.1	26753.05
935.3632	2044.5664	27574.75	26680.4
935.5002	2046.1323	27496.55	26603.9
935.6372	2047.6974	27431.95	26540.15
935.7742	2049.2617	27295.75	26405.25
935.9111	2050.8254	27308.85	26396.3
936.048	2052.3883	27258.05	26365.1
936.1849	2053.9504	27095.75	26204.65
936.3218	2055.5118	27002.85	26110.7
936.4586	2057.0725	26868.4	25975.05
936.5955	2058.6325	26831.6	25938.6
936.7323	2060.1917	26682.75	25792.75
936.869	2061.7502	26667.8	25771.7
937.0058	2063.3079	26593.75	25702.55
937.1425	2064.8649	26410.7	25515.75
937.2792	2066.4212	26415.75	25523.65
937.4159	2067.9767	26311.2	25419.65
937.5525	2069.5315	26154.25	25263.1
937.6891	2071.0856	26046.4	25154.05
937.8257	2072.6389	25990.95	25100.4
937.9623	2074.1915	25775.9	24885.4
938.0989	2075.7433	25639.45	24745.7
938.2354	2077.2945	25595.1	24704.95
938.3719	2078.8448	25500.55	24608.3
938.5084	2080.3945	25441.25	24548.7
938.6448	2081.9434	25385.05	24493.3
938.7812	2083.4916	25314.5	24422.45
938.9176	2085.039	25163.9	24269.4
939.054	2086.5857	25154.95	24262.2
939.1903	2088.1317	25072.05	24180.6
939.3267	2089.677	24998.8	24105.7
939.463	2091.2215	24906.8	24014.75
939.5992	2092.7652	24842.15	23947.55
939.7355	2094.3083	24757.4	23865.2
939.8717	2095.8506	24720.95	23829.4
940.0079	2097.3921	24680.5	23789.15
940.1441	2098.933	24589.95	23698.5
940.2802	2100.4731	24480.85	23590.65
940.4163	2102.0124	24473.6	23575.4
940.5524	2103.5511	24405.7	23513.85
940.6885	2105.089	24341.35	23447.65
940.8245	2106.6261	24265.85	23373.15
940.9606	2108.1626	24176.45	23282.85
941.0965	2109.6983	24123	23204.2
941.2325	2111.2332	24027.4	23135.5
941.3684	2112.7675	23954.85	23061.85
941.5044	2114.301	23884.15	22990.4
941.6403	2115.8337	23849.35	22956.2
941.7761	2117.3657	23760.6	22868.9
941.912	2118.897	23673.1	22780
942.0478	2120.4276	23612.5	22714.35
942.1835	2121.9575	23461.8	22570.55
942.3193	2123.4866	23527.05	22620.05
942.455	2125.0149	23397.9	22503.4
942.5907	2126.5426	23261.15	22371.05
942.7264	2128.0695	23209.65	22314.2
942.8621	2129.5956	23145.7	22254.8
942.9977	2131.1211	23097.75	22200.75
943.1333	2132.6458	23010.85	22120.6
943.2689	2134.1698	22968.8	22076.6
943.4044	2135.693	22903.1	22009.45
943.54	2137.2155	22882.75	21989.5
943.6755	2138.7373	22797.45	21905.55
943.8109	2140.2584	22673.6	21780.95
943.9464	2141.7787	22608.7	21711.8
944.0818	2143.2983	22481.2	21591.55
944.2172	2144.8171	22372.85	21483.15
944.3526	2146.3353	22299.9	21406.9
944.4879	2147.8527	22178.15	21287.1
944.6232	2149.3693	22178.1	21285.05
944.7585	2150.8853	22083.3	21188.7
944.8938	2152.4005	21978.55	21086.95
945.029	2153.9149	21948.5	21056.95
945.1642	2155.4287	21894.1	21000.15
945.2994	2156.9417	21833.75	20940.5
945.4346	2158.454	21750.45	20855.4
945.5697	2159.9655	21698.2	20805.4
945.7048	2161.4764	21653.15	20761.5
945.8399	2162.9865	21577.5	20685.2
945.9749	2164.4958	21506.6	20615.15
946.1099	2166.0045	21423.1	20528.65
946.2449	2167.5124	21393.4	20501.5
946.3799	2169.0195	21330.5	20439.25
946.5148	2170.526	21326.65	20434.65
946.6498	2172.0317	21200.3	20307.8
946.7846	2173.5367	21158.45	20264.85
946.9195	2175.0409	21073.1	20180.4
947.0543	2176.5445	21055.35	20165.15
947.1891	2178.0473	20933.75	20040.25
947.3239	2179.5494	20840.05	19945.55
947.4587	2181.0507	20785	19892.6
947.5934	2182.5513	20713.85	19822.95
947.7281	2184.0512	20636.7	19744.3
947.8628	2185.5504	20572.5	19682
947.9974	2187.0488	20452.05	19561.2
948.132	2188.5465	20377.85	19485.9
948.2666	2190.0435	20325.05	19432.2
948.4012	2191.5397	20245.45	19353.7
948.5357	2193.0353	20192.4	19301.8
948.6702	2194.5301	20107.95	19215.3
948.8047	2196.0241	20056.5	19163
948.9392	2197.5175	19963.25	19070.05
949.0736	2199.0101	19863.85	18967.3
949.208	2200.502	19747.05	18854.3
949.3424	2201.9931	19678.45	18786.8
949.4767	2203.4835	19599.8	18705.35
949.611	2204.9733	19546	18649.55
949.7453	2206.4622	19518.35	18625.85
949.8796	2207.9505	19438.85	18545.65
950.0138	2209.438	19288.1	18396.25
950.148	2210.9248	19267.15	18374.95
950.2822	2212.4109	19206.25	18315.25
950.4164	2213.8962	19159.9	18264
950.5505	2215.3809	19103	18210.45
950.6846	2216.8648	19030.15	18136.65
950.8186	2218.3479	18979	18081.1
950.9527	2219.8304	18893.95	17999.05
951.0867	2221.3121	18841	17946.6
951.2207	2222.7931	18755.3	17862.1
951.3546	2224.2733	18714.9	17822.05
951.4886	2225.7529	18621.7	17728.15
951.6225	2227.2317	18520.6	17626.25
951.7563	2228.7098	18502.95	17611.25
951.8902	2230.1872	18393.3	17501.55
952.024	2231.6638	18379.25	17486.95
952.1578	2233.1397	18350	17452
952.2916	2234.6149	18245.55	17353.65
952.4253	2236.0894	18195.6	17301.55
952.559	2237.5632	18154.6	17253.85
952.6927	2239.0362	18056.05	17163.9
952.8263	2240.5085	18003.85	17111.85
952.9599	2241.9801	17889.2	16995.3
953.0935	2243.4509	17845.65	16953.7
953.2271	2244.921	17768.1	16874.2
953.3606	2246.3904	17697.9	16802.95
953.4941	2247.8591	17630.7	16738.85
953.6276	2249.3271	17597.85	16705.75
953.7611	2250.7943	17534.1	16640.55
953.8945	2252.2608	17480.95	16590.7
954.0279	2253.7266	17439	16546.7
954.1612	2255.1917	17375.45	16483.75
954.2946	2256.656	17299.35	16404.65
954.4279	2258.1197	17260.35	16368.85
954.5612	2259.5826	17214.85	16320.95
954.6944	2261.0447	17167.5	16274.35
954.8276	2262.5062	17069.15	16174.15
954.9608	2263.9669	17046.7	16151.05
955.094	2265.4269	16977.55	16086.15
955.2271	2266.8862	16913.55	16021.3
955.3602	2268.3448	16854.25	15962.25
955.4933	2269.8026	16882.25	15989.75
955.6264	2271.2598	16777.75	15886
955.7594	2272.7162	16697.3	15806.55
955.8924	2274.1719	16672.1	15778.3
956.0253	2275.6268	16607.75	15716.15
956.1583	2277.0811	16563.75	15671.05
956.2912	2278.5346	16491.9	15601.75
956.4241	2279.9874	16492	15599.45
956.5569	2281.4395	16442.5	15550.9
956.6897	2282.8908	16333.8	15434.7
956.8225	2284.3414	16325.65	15429.55
956.9553	2285.7914	16261.2	15370.75
957.088	2287.2406	16214.25	15320.4
957.2207	2288.689	16179.35	15285.9
957.3534	2290.1368	16131.65	15237.25
957.486	2291.5838	16051.75	15157.25
957.6186	2293.0302	15983.3	15087.5
957.7512	2294.4758	15900.05	15008.3
957.8838	2295.9206	15863	14967.8
958.0163	2297.3648	15831.4	14937.4
958.1488	2298.8082	15806.45	14914.55
958.2813	2300.251	15755.45	14863.45
958.4137	2301.693	15672.8	14778.45
958.5461	2303.1343	15663.35	14769.8
958.6785	2304.5748	15597.75	14705.15
958.8108	2306.0147	15536.8	14643.8
958.9432	2307.4538	15495.55	14600.7
959.0754	2308.8922	15418.65	14528.6
959.2077	2310.3299	15366.55	14475.45
959.3399	2311.7669	15307.05	14414.65
959.4721	2313.2031	15296.35	14404.05
959.6043	2314.6387	15215.75	14323.7
959.7365	2316.0735	15150.9	14257.8
959.8686	2317.5076	15124.8	14234.05
960.0006	2318.941	15056.1	14164.35
960.1327	2320.3737	15020.15	14127.95
960.2647	2321.8056	14949	14054
960.3967	2323.2369	14923.1	14031.4
960.5287	2324.6674	14895.15	14001.85
960.6606	2326.0972	14835	13940.85
960.7925	2327.5263	14769.55	13877.8
960.9244	2328.9547	14738.85	13844.75
961.0562	2330.3823	14682.05	13789.4
961.1881	2331.8092	14673.55	13777.6
961.3198	2333.2355	14577.3	13684.6
961.4516	2334.661	14551.75	13659.2
961.5833	2336.0858	14522.55	13627.1
961.715	2337.5098	14496.45	13603.8
961.8467	2338.9332	14455.2	13559.95
961.9783	2340.3558	14408.35	13511.9
962.1099	2341.7778	14311.5	13419.75
962.2415	2343.199	14262.85	13368.65
962.373	2344.6195	14227.4	13334.9
962.5045	2346.0393	14179.75	13288.2
962.636	2347.4583	14148.05	13256.45
962.7675	2348.8767	14107.75	13213.4
962.8989	2350.2943	14067.35	13173.5
963.0303	2351.7113	14042.05	13147.8
963.1617	2353.1275	13962.7	13068.7
963.293	2354.543	13933.15	13031.75
963.4243	2355.9578	13884.1	12991.6
963.5556	2357.3718	13797.85	12906
963.6868	2358.7852	13715.05	12820.2
963.818	2360.1978	13678.2	12786.35
963.9492	2361.6098	13648.85	12755.95
964.0803	2363.021	13611.05	12714.6
964.2114	2364.4315	13582	12687.9
964.3425	2365.8413	13502.75	12609.2
964.4736	2367.2504	13445.4	12553.85
964.6046	2368.6587	13397.35	12502.6
964.7356	2370.0664	13338.45	12447.15
964.8666	2371.4733	13262.4	12369.85
964.9975	2372.8795	13240.65	12347.45
965.1284	2374.285	13169.55	12277.7
965.2593	2375.6899	13119.8	12226.8
965.3901	2377.0939	13048.05	12156
965.5209	2378.4973	13034.05	12141.1
965.6517	2379.9	12972.1	12078.2
965.7825	2381.3019	12937.55	12045.6
965.9132	2382.7032	12871.15	11982
966.0439	2384.1037	12831.65	11940.85
966.1745	2385.5035	12770.85	11880.35
966.3051	2386.9027	12729.4	11837.1
966.4357	2388.3011	12711.35	11816.9
966.5663	2389.6987	12648.6	11755.95
966.6968	2391.0957	12606.55	11714.9
966.8273	2392.492	12545.05	11653.9
966.9578	2393.8876	12477.1	11585.25
967.0882	2395.2824	12419.1	11528.55
967.2186	2396.6765	12378.35	11486.85
967.349	2398.07	12326.25	11434.3
967.4793	2399.4627	12300.75	11409.05
967.6097	2400.8547	12247.45	11354.85
967.7399	2402.246	12203	11305.65
967.8702	2403.6366	12162.3	11269.9
968.0004	2405.0265	12069.95	11179.55
968.1306	2406.4156	12048.95	11154.35
968.2607	2407.8041	12000.25	11104.6
968.3909	2409.1918	11916.7	11022.55
968.521	2410.5789	11898.6	11005.35
968.651	2411.9652	11863	10968.35
968.781	2413.3508	11802.55	10910.55
968.911	2414.7358	11742	10850.45
969.041	2416.12	11702.2	10812.8
969.1709	2417.5035	11684.95	10795.35
969.3008	2418.8863	11642.7	10752.6
969.4307	2420.2684	11597.6	10707.05
969.5606	2421.6497	11535.25	10643.6
969.6904	2423.0304	11467.85	10577.15
969.8201	2424.4104	11439.7	10547.9
969.9499	2425.7896	11418	10524.05
970.0796	2427.1682	11378.35	10487.05
970.2093	2428.546	11360.95	10468.75
970.3389	2429.9232	11301.15	10407.8
970.4685	2431.2996	11300.4	10410.5
970.5981	2432.6753	11249.4	10356.8
970.7277	2434.0503	11236.25	10344.45
970.8572	2435.4246	11167.05	10276.45
970.9867	2436.7982	11105.15	10212.65
971.1161	2438.1711	11092.9	10201.9
971.2456	2439.5433	11038.35	10146
971.375	2440.9148	10983.15	10089.8
971.5043	2442.2856	10935.2	10044.7
971.6336	2443.6557	10920.8	10029.1
971.7629	2445.025	10880.1	9990.15
971.8922	2446.3937	10882.5	9990.55
972.0214	2447.7617	10800.8	9907.2
972.1506	2449.1289	10776.75	9883.6
972.2798	2450.4955	10759.3	9863.65
972.4089	2451.8613	10710.05	9819.4
972.538	2453.2265	10682.9	9791.45
972.6671	2454.5909	10655.15	9762.9
972.7961	2455.9546	10629.7	9738.65
972.9251	2457.3177	10588.15	9695.55
973.0541	2458.68	10541.4	9648.6
973.1831	2460.0416	10529.25	9636.2
973.312	2461.4025	10523.4	9631.75
973.4408	2462.7627	10485.3	9582.5
973.5697	2464.1222	10449	9558.3
973.6985	2465.4811	10422.35	9530.15
973.8273	2466.8392	10345.7	9453.4
973.956	2468.1966	10348.45	9454.35
974.0847	2469.5533	10339	9444.5
974.2134	2470.9093	10306.8	9412.85
974.3421	2472.2645	10258.35	9366.1
974.4707	2473.6191	10216.55	9323.65
974.5993	2474.973	10165.45	9274.25
974.7278	2476.3262	10151.65	9259.15
974.8563	2477.6787	10108.15	9216.95
974.9848	2479.0305	10053.35	9161.7
975.1132	2480.3816	10027.7	9135.15
975.2417	2481.7319	9996.6	9104.45
975.37	2483.0816	9942	9048.9
975.4984	2484.4306	9930.45	9037.1
975.6267	2485.7789	9886.8	8995.75
975.755	2487.1264	9793.65	8901
975.8833	2488.4733	9783.1	8891.5
976.0115	2489.8195	9775.7	8869.35
976.1397	2491.165	9715.4	8819.05
976.2678	2492.5097	9693.5	8800.05
976.3959	2493.8538	9636.15	8743.05
976.524	2495.1972	9577.85	8683.4
976.6521	2496.5398	9561.05	8667.6
976.7801	2497.8818	9544	8650.6
976.9081	2499.2231	9485.55	8594.6
977.036	2500.5637	9448.05	8555.2
977.164	2501.9035	9425.95	8532.15
977.2918	2503.2427	9402	8505.75
977.4197	2504.5812	9368.4	8474.45
977.5475	2505.919	9339.8	8444.95
977.6753	2507.256	9320	8426.85
977.8031	2508.5924	9267.05	8374.3
977.9308	2509.9281	9241.3	8341
978.0585	2511.2631	9217.4	8325.35
978.1861	2512.5974	9176.9	8284.65
978.3137	2513.9309	9145.05	8253
978.4413	2515.2638	9137.4	8214.4
978.5689	2516.596	9112.3	8221.3
978.6964	2517.9275	9055.75	8162.5
978.8239	2519.2583	9033.1	8140.15
978.9513	2520.5884	8977.15	8083.65
979.0788	2521.9178	8970.1	8078
979.2062	2523.2465	8909.75	8018
979.3335	2524.5745	8888.1	7994.25
979.4608	2525.9018	8845.5	7953
979.5881	2527.2284	8814.95	7925.85
979.7154	2528.5543	8820.1	7929.45
979.8426	2529.8796	8773.95	7881.9
979.9698	2531.2041	8740.65	7848.6
980.0969	2532.5279	8737.75	7845.15
980.224	2533.851	8719	7827
980.3511	2535.1735	8688.3	7797.2
980.4781	2536.4952	8644.9	7754.4
980.6052	2537.8163	8632.25	7738.85
980.7321	2539.1366	8604.3	7711.55
980.8591	2540.4562	8562.65	7670.15
980.986	2541.7752	8563.45	7671.15
981.1129	2543.0935	8561.75	7671.05
981.2397	2544.411	8527.3	7636.1
981.3665	2545.7279	8505.3	7614.5
981.4933	2547.0441	8495.4	7603.9
981.62	2548.3596	8473.3	7576.35
981.7467	2549.6744	8458.3	7565
981.8734	2550.9885	8418.5	7522.9
982.0001	2552.3019	8413.2	7521.2
982.1267	2553.6146	8363.2	7472.5
982.2532	2554.9266	8323.35	7431.45
982.3798	2556.2379	8308.25	7414.15
982.5063	2557.5485	8279.2	7389.15
982.6327	2558.8585	8275.7	7375.8
982.7592	2560.1677	8252.6	7357.25
982.8856	2561.4762	8224.95	7333.5
983.0119	2562.7841	8214.05	7319.8
983.1383	2564.0913	8177.45	7286.95
983.2646	2565.3977	8175.15	7282.85
983.3908	2566.7035	8144.7	7252.65
983.517	2568.0086	8131.25	7237.7
983.6432	2569.313	8141.05	7248.15
983.7694	2570.6167	8111.5	7215.9
983.8955	2571.9197	8060.65	7170.2
984.0216	2573.222	8054.7	7159.4
984.1476	2574.5236	8033.7	7142.85
984.2737	2575.8246	7990.65	7095.6
984.3996	2577.1248	7990.5	7096.9
984.5256	2578.4244	7964.85	7074.05
984.6515	2579.7232	7949.5	7058.25
984.7774	2581.0214	7959.2	7041.75
984.9032	2582.3189	7919.25	7028.55
985.029	2583.6157	7910.65	7014.7
985.1548	2584.9118	7904.1	7012.2
985.2806	2586.2072	7886.45	6993.8
985.4063	2587.5019	7837	6945.25
985.5319	2588.7959	7821.1	6928.05
985.6576	2590.0893	7811.2	6916.15
985.7832	2591.3819	7779.8	6888.5
985.9087	2592.6739	7728.75	6837.4
986.0343	2593.9652	7724.25	6830
986.1597	2595.2557	7692	6799.8
986.2852	2596.5456	7663.65	6770.35
986.4106	2597.8348	7631.75	6739.5
986.536	2599.1234	7602.15	6710.45
986.6614	2600.4112	7594.75	6702.4
986.7867	2601.6983	7568.1	6674
986.912	2602.9848	7513.5	6621.8
987.0372	2604.2705	7536	6637.3
987.1624	2605.5556	7480.5	6588.4
987.2876	2606.84	7470.3	6578.85
987.4128	2608.1237	7448.7	6555.6
987.5379	2609.4067	7408.5	6516.05
987.6629	2610.689	7372.3	6471.3
987.788	2611.9707	7357.5	6462.6
987.913	2613.2516	7327.3	6431.1
988.0379	2614.5319	7273.9	6380.2
988.1629	2615.8115	7255.2	6362.2
988.2878	2617.0903	7228.5	6335.65
988.4126	2618.3685	7238.9	6346.85
988.5375	2619.6461	7187.95	6293.3
988.6622	2620.9229	7183.35	6292.4
988.787	2622.199	7170.7	6277.9
988.9117	2623.4745	7138.85	6245.7
989.0364	2624.7493	7115.95	6224.25
989.161	2626.0234	7073.5	6180.1
989.2857	2627.2968	7052.25	6160
989.4102	2628.5695	7036.2	6143.65
989.5348	2629.8415	6983.7	6092.55
989.6593	2631.1128	6972.65	6077.7
989.7837	2632.3835	6921.75	6030.5
989.9082	2633.6535	6896.2	6003.9
990.0326	2634.9228	6869.7	5978.8
990.1569	2636.1914	6858.5	5965.7
990.2812	2637.4593	6852	5955.8
990.4055	2638.7265	6818.3	5925.05
990.5298	2639.9931	6797.2	5905.25
990.654	2641.259	6787.75	5893.95
990.7782	2642.5242	6753.85	5859
990.9023	2643.7887	6749.25	5855.65
991.0264	2645.0525	6733.3	5841.45
991.1505	2646.3156	6695.05	5800.4
991.2745	2647.5781	6671.75	5780.75
991.3985	2648.8398	6641.3	5750.1
991.5225	2650.1009	6640.55	5739.1
991.6464	2651.3613	6616.9	5725
991.7703	2652.6211	6599.35	5706.15
991.8942	2653.8801	6571.9	5681.75
992.018	2655.1385	6554.65	5662.95
992.1418	2656.3961	6532.25	5639.35
992.2655	2657.6531	6531.35	5639
992.3892	2658.9094	6500.15	5607.5
992.5129	2660.1651	6465.3	5574.2
992.6366	2661.42	6474.25	5582.5
992.7602	2662.6743	6453.85	5560.95
992.8837	2663.9279	6439.1	5548.3
993.0073	2665.1808	6418.2	5524.05
993.1307	2666.433	6390.45	5498.15
993.2542	2667.6846	6384.5	5492.95
993.3776	2668.9354	6378.35	5482.7
993.501	2670.1856	6338.75	5444.7
993.6244	2671.4351	6338.35	5445.4
993.7477	2672.6839	6338.3	5445.45
993.8709	2673.9321	6306.4	5414.8
993.9942	2675.1795	6283.4	5391.05
994.1174	2676.4263	6265.85	5372.2
994.2405	2677.6724	6246.5	5355.25
994.3637	2678.9179	6219.05	5326.45
994.4868	2680.1626	6209.15	5317.7
994.6098	2681.4067	6200.85	5309.75
994.7328	2682.6501	6195.7	5305.25
994.8558	2683.8928	6167.85	5276
994.9788	2685.1348	6146.8	5256.6
995.1017	2686.3761	6102.1	5213.45
995.2245	2687.6168	6077.65	5184.9
995.3474	2688.8568	6083.8	5189.75
995.4702	2690.0961	6041.2	5149.7
995.5929	2691.3348	6015.45	5123.8
995.7156	2692.5727	6003.55	5112.6
995.8383	2693.81	5995.55	5103.6
995.961	2695.0466	5975.4	5085.35
996.0836	2696.2826	5938.15	5042.6
996.2062	2697.5178	5937.9	5043.5
996.3287	2698.7524	5924.8	5031.7
996.4512	2699.9863	5904.1	5010.3
996.5737	2701.2195	5883.85	4992.3
996.6961	2702.452	5871.55	4976.85
996.8185	2703.6839	5865.15	4972.3
996.9408	2704.9151	5834.65	4943.3
997.0631	2706.1456	5811.15	4918.45
997.1854	2707.3755	5804.95	4911.9
997.3077	2708.6046	5789.75	4894.1
997.4299	2709.8331	5792.15	4897.8
997.552	2711.0609	5756.55	4865.2
997.6742	2712.2881	5761.6	4867.9
997.7963	2713.5145	5754.05	4860.65
997.9183	2714.7403	5724.9	4834.7
998.0403	2715.9654	5720.1	4828.2
998.1623	2717.1899	5716.85	4809.65
998.2842	2718.4136	5701.55	4808.05
998.4062	2719.6367	5706.9	4816.1
998.528	2720.8591	5702.75	4804.7
998.6498	2722.0809	5671.55	4778
998.7716	2723.3019	5664.9	4769.65
998.8934	2724.5223	5648.6	4755.65
999.0151	2725.7421	5636.5	4742.65
999.1368	2726.9611	5630.65	4737
999.2584	2728.1795	5609.2	4712.15
999.38	2729.3972	5588.05	4696.7
999.5016	2730.6142	5582.6	4682.4
999.6231	2731.8306	5517.55	4624.25
999.7446	2733.0462	5499.15	4605.1
999.8661	2734.2612	5464.55	4567.15
999.9875	2735.4756	5417	4523.4
1000.1089	2736.6892	5390.65	4496.65
1000.2302	2737.9022	5348.05	4458.6
1000.3515	2739.1145	5341.85	4450.15
1000.4728	2740.3262	5315.3	4415
1000.594	2741.5372	5267.35	4375.05
1000.7152	2742.7475	5232.7	4339.15
1000.8363	2743.9571	5235.2	4342.45
1000.9575	2745.1661	5210.8	4314.15
1001.0785	2746.3744	5176.8	4284.35
1001.1996	2747.582	5154.4	4265.15
1001.3206	2748.7889	5124.8	4232.25
1001.4415	2749.9952	5116.55	4225.05
1001.5625	2751.2008	5091.85	4200.2
1001.6833	2752.4057	5081.35	4186.8
1001.8042	2753.61	5047.9	4154
1001.925	2754.8136	5049.6	4154.1
1002.0458	2756.0165	5024.05	4130.95
1002.1665	2757.2188	5015.55	4124.3
1002.2872	2758.4204	4992.75	4099.85
1002.4078	2759.6213	4974.75	4081.7
1002.5285	2760.8215	4969.6	4073
1002.649	2762.0211	4920.3	4025.35
1002.7696	2763.22	4925.85	4030.55
1002.8901	2764.4182	4929	4035.3
1003.0106	2765.6158	4895.85	4003.75
1003.131	2766.8127	4876.4	3984.85
1003.2514	2768.009	4865.15	3972.95
1003.3717	2769.2045	4848.7	3954.95
1003.492	2770.3994	4840.2	3946.2
1003.6123	2771.5936	4816.45	3923.15
1003.7325	2772.7872	4791.35	3900.2
1003.8527	2773.9801	4786.15	3893.55
1003.9729	2775.1723	4774	3866
1004.093	2776.3639	4757.85	3865.7
1004.2131	2777.5548	4743.05	3849.5
1004.3331	2778.745	4714.9	3823
1004.4531	2779.9346	4713.9	3820.35
1004.5731	2781.1235	4705.1	3811.85
1004.693	2782.3117	4685.45	3794.65
1004.8129	2783.4992	4668.4	3777.2
1004.9328	2784.6861	4665.6	3775
1005.0526	2785.8723	4658.5	3767.45
1005.1723	2787.0579	4648	3755.9
1005.2921	2788.2428	4647	3753.05
1005.4118	2789.427	4624.8	3732.95
1005.5314	2790.6106	4629.7	3737.6
1005.651	2791.7935	4631.85	3739.25
1005.7706	2792.9757	4619.75	3730.1
1005.8902	2794.1573	4617.5	3723.4
1006.0097	2795.3382	4613.15	3721.6
1006.1291	2796.5184	4606.7	3714.65
1006.2485	2797.698	4607.3	3713.15
1006.3679	2798.8769	4616.1	3725.05
1006.4873	2800.0551	4607.75	3715.55
1006.6066	2801.2327	4601.5	3707.75
1006.7258	2802.4096	4633.55	3740.5
1006.8451	2803.5859	4635.25	3741.75
1006.9642	2804.7615	4630.8	3739.25
1007.0834	2805.9364	4649.8	3757.55
1007.2025	2807.1106	4654.45	3762.8
1007.3216	2808.2842	4674.6	3782.15
1007.4406	2809.4572	4679.35	3784
1007.5596	2810.6294	4728.6	3836.65
1007.6785	2811.801	4760.05	3869.1
1007.7975	2812.972	4770.7	3879.2
1007.9163	2814.1423	4807.45	3916.75
1008.0352	2815.3119	4838.75	3946.4
1008.154	2816.4808	4865.5	3973.75
1008.2727	2817.6491	4897.75	4004.85
1008.3914	2818.8167	4959.4	4070.05
1008.5101	2819.9837	5005.9	4109.4
1008.6288	2821.15	5038.25	4147.5
1008.7474	2822.3157	5069.4	4178.6
1008.8659	2823.4807	5083.5	4191.8
1008.9844	2824.645	5129.6	4237.25
1009.1029	2825.8086	5175.9	4283.8
1009.2214	2826.9716	5202.95	4310.5
1009.3398	2828.134	5219.3	4328.3
1009.4581	2829.2957	5258.05	4364.7
1009.5764	2830.4567	5265.05	4373.8
1009.6947	2831.617	5291.35	4398.95
1009.813	2832.7767	5277.2	4387.9
1009.9312	2833.9358	5270.5	4381.05
1010.0493	2835.0941	5253.75	4358.95
1010.1675	2836.2519	5244.75	4351.3
1010.2855	2837.4089	5231.05	4339.4
1010.4036	2838.5653	5213.6	4323
1010.5216	2839.7211	5199.2	4308.45
1010.6396	2840.8761	5205.7	4314.15
1010.7575	2842.0306	5213.3	4323.35
1010.8754	2843.1843	5250.9	4358.8
1010.9932	2844.3374	5290	4398.55
1011.111	2845.4899	5340.8	4449.6
1011.2288	2846.6417	5422.2	4532.8
1011.3465	2847.7928	5469.25	4577.45
1011.4642	2848.9433	5548	4656.5
1011.5818	2850.0931	5613.95	4722.2
1011.6995	2851.2422	5680.55	4787.6
1011.817	2852.3907	5748.3	4857.05
1011.9345	2853.5385	5794.2	4900.45
1012.052	2854.6857	5851.3	4932.05
1012.1695	2855.8323	5867.85	4976.8
1012.2869	2856.9781	5920.7	5029.7
1012.4042	2858.1233	5953.3	5062.5
1012.5216	2859.2679	5984.6	5093.1
1012.6389	2860.4118	6022.9	5131.85
1012.7561	2861.555	6062.05	5165.2
1012.8733	2862.6976	6082.7	5187.8
1012.9905	2863.8395	6089.65	5198.75
1013.1076	2864.9808	6117.95	5226.75
1013.2247	2866.1214	6114.55	5224.95
1013.3417	2867.2614	6132	5239.75
1013.4587	2868.4007	6104.65	5211.35
1013.5757	2869.5393	6117.75	5225.65
1013.6926	2870.6773	6126.9	5230.9
1013.8095	2871.8146	6124.75	5228.95
1013.9263	2872.9513	6116.3	5222.05
1014.0431	2874.0874	6083	5191.75
1014.1599	2875.2227	6074.95	5183.5
1014.2766	2876.3574	6052.95	5162.7
1014.3933	2877.4915	6007.6	5116.9
1014.51	2878.6249	5970.25	5076.05
1014.6266	2879.7577	5952.75	5060
1014.7431	2880.8898	5920.1	5016.15
1014.8596	2882.0212	5888.65	4996.85
1014.9761	2883.152	5866.45	4974.35
1015.0925	2884.2821	5846.25	4956.85
1015.2089	2885.4116	5836.9	4947.2
1015.3253	2886.5405	5804.15	4911.85
1015.4416	2887.6686	5808.85	4914.95
1015.5579	2888.7962	5796.15	4904.75
1015.6741	2889.923	5805.9	4915.75
1015.7903	2891.0493	5800.3	4908.85
1015.9065	2892.1748	5784.55	4893.75
1016.0226	2893.2997	5808.2	4916.3
1016.1387	2894.424	5805.45	4915.55
1016.2547	2895.5476	5828.2	4936
1016.3707	2896.6706	5849.8	4959.9
1016.4866	2897.7929	5859.55	4968.85
1016.6025	2898.9145	5856.95	4965.45
1016.7184	2900.0355	5884.8	4991.55
1016.8342	2901.1559	5913.5	5019.95
1016.95	2902.2756	5923.85	5032.85
1017.0658	2903.3946	5939.9	5047.15
1017.1815	2904.513	5974.15	5081.45
1017.2971	2905.6308	5990.25	5098.55
1017.4127	2906.7479	6011.3	5120.45
1017.5283	2907.8643	6008.85	5117.05
1017.6439	2908.9801	6002.95	5111.15
1017.7594	2910.0953	6004.75	5113.45
1017.8748	2911.2098	5989.45	5094.6
1017.9902	2912.3236	5978.7	5079.6
1018.1056	2913.4368	5955.8	5059.55
1018.2209	2914.5494	5933.3	5042.1
1018.3362	2915.6613	5896.9	5002.75
1018.4515	2916.7725	5856.1	4961.75
1018.5667	2917.8831	5830.75	4936.1
1018.6819	2918.9931	5802.5	4908.8
1018.797	2920.1024	5758.1	4866.5
1018.9121	2921.211	5723.95	4833.35
1019.0271	2922.319	5704.95	4812.8
1019.1421	2923.4264	5682.35	4791.15
1019.2571	2924.5331	5648.95	4759.35
1019.372	2925.6391	5631.4	4741
1019.4869	2926.7445	5605.85	4716.55
1019.6017	2927.8493	5598.65	4707.55
1019.7165	2928.9534	5587	4695.2
1019.8313	2930.0569	5572	4677.1
1019.946	2931.1597	5544.4	4652
1020.0606	2932.2619	5538.6	4647.1
1020.1753	2933.3634	5537.85	4647.45
1020.2899	2934.4643	5521.3	4623.35
1020.4044	2935.5645	5479.7	4583.55
1020.5189	2936.6641	5429.3	4535.5
1020.6334	2937.763	5356.95	4466.65
1020.7478	2938.8613	5316.5	4423.7
1020.8622	2939.959	5267.8	4371.65
1020.9765	2941.056	5178.85	4288.5
1021.0908	2942.1523	5080.1	4187.75
1021.2051	2943.248	4995.35	4103.75
1021.3193	2944.3431	4890.4	3999.3
1021.4334	2945.4375	4777.05	3886
1021.5476	2946.5313	4657.1	3767.55
1021.6617	2947.6244	4550.75	3661.15
1021.7757	2948.7169	4445.45	3553.7
1021.8897	2949.8087	4348.05	3456.7
1022.0037	2950.8999	4244	3351.95
1022.1176	2951.9904	4165.1	3274.95
1022.2315	2953.0803	4084.65	3191.65
1022.3453	2954.1696	3993.1	3101.15
1022.4591	2955.2582	3933.6	3043.45
1022.5728	2956.3462	3885.2	2995.55
1022.6865	2957.4335	3829.1	2936.05
1022.8002	2958.5202	3791.8	2900.3
1022.9138	2959.6062	3754.75	2863.45
1023.0274	2960.6916	3713.25	2823.6
1023.141	2961.7764	3692.65	2802.65
1023.2545	2962.8605	3674.9	2785.4
1023.3679	2963.9439	3638.7	2749.55
1023.4813	2965.0267	3640.95	2748.45
1023.5947	2966.1089	3636.7	2721.85
1023.708	2967.1905	3603.95	2713.35
1023.8213	2968.2714	3582	2691.7
1023.9346	2969.3516	3585.85	2695.15
1024.0478	2970.4312	3579.55	2682.2
1024.1609	2971.5102	3561.7	2669.45
1024.274	2972.5885	3550.55	2659.5
1024.3871	2973.6662	3551.15	2656.3
1024.5002	2974.7432	3533.5	2643.35
1024.6132	2975.8196	3522.95	2630.8
1024.7261	2976.8954	3498.35	2607.1
1024.839	2977.9705	3487.2	2594.75
1024.9519	2979.045	3471.75	2581.65
1025.0647	2980.1188	3447.45	2554.9
1025.1775	2981.192	3415.15	2525.05
1025.2902	2982.2645	3392.8	2502.3
1025.4029	2983.3364	3358.9	2466.7
1025.5156	2984.4077	3311.6	2420.2
1025.6282	2985.4783	3305.1	2407.65
1025.7407	2986.5483	3249.5	2357.4
1025.8532	2987.6177	3234	2345.15
1025.9657	2988.6864	3178.75	2287.25
1026.0782	2989.7545	3140.95	2248.15
1026.1906	2990.8219	3105.5	2214
1026.3029	2991.8887	3057.95	2164.85
1026.4152	2992.9548	3018.3	2125.65
1026.5275	2994.0204	2976.35	2084.6
1026.6397	2995.0852	2951.65	2063.05
1026.7519	2996.1495	2933.15	2039.95
1026.864	2997.2131	2895.85	2004.5
1026.9761	2998.276	2859.4	1969.55
1027.0882	2999.3383	2837.45	1944.3
1027.2002	3000.4	2804.2	1914.05
1027.3122	3001.4611	2791.8	1900.3
1027.4241	3002.5215	2780.1	1888.65
1027.536	3003.5812	2745.85	1856.05
1027.6478	3004.6404	2736.55	1844.7
1027.7596	3005.6989	2729.25	1834.75
1027.8714	3006.7567	2712.65	1821.6
1027.9831	3007.8139	2702.5	1788.9
1028.0947	3008.8705	2684.65	1794.95
1028.2064	3009.9264	2681.3	1787.95
1028.3179	3010.9818	2664.05	1772.2
1028.4295	3012.0364	2665.75	1773.8
1028.541	3013.0905	2641	1747.95
1028.6524	3014.1439	2629.7	1739.7
1028.7638	3015.1966	2626.85	1737.15
1028.8752	3016.2487	2612.25	1722.3
1028.9865	3017.3002	2616.95	1718.1
1029.0978	3018.3511	2613	1721.9
1029.209	3019.4013	2621.9	1730.45
1029.3202	3020.4509	2604.05	1712.45
1029.4314	3021.4998	2599.5	1707.85
1029.5425	3022.5481	2597.1	1704.3
1029.6535	3023.5958	2593.6	1701.8
1029.7645	3024.6428	2584.15	1691.3
1029.8755	3025.6892	2586	1696.65
1029.9864	3026.735	2584.5	1692.35
1030.0973	3027.7802	2573.2	1681.55
1030.2082	3028.8247	2569.35	1679.6
1030.319	3029.8685	2572.55	1680.25
1030.4297	3030.9118	2565.3	1673.7
1030.5404	3031.9544	2565.65	1676.75
1030.6511	3032.9963	2570.2	1681.2
1030.7617	3034.0376	2553.9	1662.95
1030.8723	3035.0783	2565.85	1673.3
1030.9829	3036.1184	2556.45	1664.35
1031.0934	3037.1578	2552.35	1662.95
1031.2038	3038.1966	2550.6	1659.2
1031.3142	3039.2348	2536.7	1646.25
1031.4246	3040.2723	2552.5	1653.15
1031.5349	3041.3092	2530.7	1638.8
1031.6452	3042.3455	2530.85	1641.4
1031.7554	3043.3811	2515.6	1624.75
1031.8656	3044.4161	2502.95	1611.75
1031.9758	3045.4505	2512.3	1622.85
1032.0859	3046.4842	2500.45	1608.75
1032.1959	3047.5173	2484.8	1594.1
1032.3059	3048.5498	2467.95	1576.3
1032.4159	3049.5816	2463.4	1572.85
1032.5258	3050.6128	2451.25	1559.85
1032.6357	3051.6434	2437	1543.85
1032.7455	3052.6734	2424.25	1532.65
1032.8553	3053.7027	2417.9	1524.55
1032.9651	3054.7314	2413.75	1523.6
1033.0748	3055.7594	2393	1503.5
1033.1845	3056.7868	2380.55	1489.65
1033.2941	3057.8136	2376.6	1487.25
1033.4037	3058.8398	2361	1470.3
1033.5132	3059.8653	2348.85	1459.7
1033.6227	3060.8902	2351.2	1460.65
1033.7321	3061.9145	2337.95	1446.2
1033.8415	3062.9381	2320.45	1430.25
1033.9509	3063.9612	2333.4	1427.35
1034.0602	3064.9835	2306	1415.6
1034.1694	3066.0053	2298.35	1406.75
1034.2787	3067.0264	2278.05	1388.5
1034.3878	3068.0469	2276.95	1386.7
1034.497	3069.0668	2266.15	1371.95
1034.6061	3070.086	2238.8	1350.05
1034.7151	3071.1046	2223.8	1333.9
1034.8241	3072.1226	2223.8	1331.4
1034.9331	3073.1399	2210.25	1320.35
1035.042	3074.1567	2199.75	1307.9
1035.1508	3075.1727	2191.35	1298.9
1035.2597	3076.1882	2165	1275.4
1035.3684	3077.203	2151.15	1259.9
1035.4772	3078.2173	2146.3	1253.3
1035.5859	3079.2308	2135.8	1243.3
1035.6945	3080.2438	2126.4	1231.9
1035.8031	3081.2561	2109.55	1220.2
1035.9117	3082.2678	2093.35	1201.8
1036.0202	3083.2789	2091.4	1200.85
1036.1286	3084.2893	2079.55	1189.6
1036.2371	3085.2991	2076.7	1185.8
1036.3454	3086.3083	2059.65	1163.65
1036.4538	3087.3169	2049.65	1157.4
1036.562	3088.3248	2039.1	1147.6
1036.6703	3089.3321	2036.3	1145.95
1036.7785	3090.3388	2019.85	1128.65
1036.8866	3091.3449	2014.45	1124.65
1036.9948	3092.3503	2003	1107.4
1037.1028	3093.3551	2001	1112.3
1037.2108	3094.3593	1997.3	1109.15
1037.3188	3095.3629	1990.9	1100.75
1037.4267	3096.3658	1974.45	1083.75
1037.5346	3097.3681	1970.75	1081.55
1037.6425	3098.3698	1968.3	1075.8
1037.7503	3099.3708	1960.85	1063.2
1037.858	3100.3713	1942.05	1052.15
1037.9657	3101.3711	1940.6	1049.5
1038.0734	3102.3702	2040.5	1032.75
1038.181	3103.3688	1950.5	1058.45
1038.2886	3104.3667	1925.4	1034.15
1038.3961	3105.364	1911.05	1021.85
1038.5036	3106.3607	1909.95	1018.15
1038.611	3107.3568	1906.85	1013.8
1038.7184	3108.3522	1893.85	1003.35
1038.8257	3109.347	1889.2	997.55
1038.933	3110.3412	1895	1000.45
1039.0403	3111.3348	1877.8	989
1039.1475	3112.3277	1872.3	981.4
1039.2547	3113.32	1860.7	971.45
1039.3618	3114.3117	1855.35	963.4
1039.4689	3115.3028	1852.05	962.05
1039.5759	3116.2932	1851.1	958.5
1039.6829	3117.2831	1852.75	957.7
1039.7898	3118.2723	1836.2	944
1039.8967	3119.2608	1824.3	934.05
1040.0035	3120.2488	1820.5	930.5
1040.1103	3121.2361	1819.55	929.25
1040.2171	3122.2229	1816.2	924.2
1040.3238	3123.209	1808.1	917.1
1040.4305	3124.1944	1810.2	919.45
1040.5371	3125.1793	1799.65	905.9
1040.6437	3126.1635	1790.05	898.95
1040.7502	3127.1471	1787.8	897.9
1040.8567	3128.1301	1785.55	897.05
1040.9631	3129.1125	1774.45	884.45
1041.0695	3130.0942	1780.25	889.05
1041.1759	3131.0753	1782	885.15
1041.2822	3132.0558	1761.75	869.85
1041.3884	3133.0357	1761.7	871.2
1041.4946	3134.015	1761.95	871.25
1041.6008	3134.9936	1765.6	873.5
1041.7069	3135.9716	1767.05	854.45
1041.813	3136.949	1745.2	855.75
1041.919	3137.9258	1742.8	846.75
1042.025	3138.902	1737.2	841.35
1042.1309	3139.8775	1734.85	844.15
1042.2368	3140.8524	1736.4	845.65
1042.3427	3141.8267	1725.45	834.8
1042.4485	3142.8004	1723.55	833
1042.5542	3143.7735	1721.35	824.55
1042.6599	3144.7459	1719.65	827.15
1042.7656	3145.7178	1711.25	819.8
1042.8712	3146.689	1708.5	819.5
1042.9768	3147.6596	1700.8	807.9
1043.0823	3148.6295	1692.75	801.3
1043.1878	3149.5989	1691.2	800.5
1043.2932	3150.5676	1680.55	789.55
1043.3986	3151.5357	1683.3	793.6
1043.5039	3152.5032	1675.2	787.4
1043.6092	3153.4701	1673.4	784.65
1043.7145	3154.4364	1674.8	782.2
1043.8197	3155.402	1666.85	777.85
1043.9248	3156.367	1665.15	774.2
1044.03	3157.3315	1706.5	771.8
1044.135	3158.2952	1656.2	766.45
1044.24	3159.2584	1643.95	753.45
1044.345	3160.221	1640.9	748.7
1044.4499	3161.1829	1641	750.15
1044.5548	3162.1442	1636.8	746.85
1044.6596	3163.105	1624.4	732.75
1044.7644	3164.065	1624.4	734.4
1044.8692	3165.0245	1627.35	734.3
1044.9739	3165.9834	1608.35	718.15
1045.0785	3166.9416	1617.35	727.3
1045.1831	3167.8993	1605.8	713.5
1045.2877	3168.8563	1600.5	710.35
1045.3922	3169.8127	1600	708.7
1045.4966	3170.7684	1598.6	708.5
1045.6011	3171.7236	1592.95	700.4
1045.7054	3172.6782	1592.85	703.25
1045.8098	3173.6321	1591.15	700.9
1045.914	3174.5854	1586.35	691.65
1046.0183	3175.5381	1575.55	683.15
1046.1224	3176.4902	1574.1	684.75
1046.2266	3177.4417	1566.8	677.9
1046.3307	3178.3926	1555	664.35
1046.4347	3179.3428	1564.15	673.6
1046.5387	3180.2924	1563.3	673.1
1046.6427	3181.2415	1552.55	662.75
1046.7466	3182.1899	1553.95	663
1046.8504	3183.1377	1552.85	664.2
1046.9542	3184.0848	1545.3	653.05
1047.058	3185.0314	1540.8	650.8
1047.1617	3185.9773	1537.85	646.6
1047.2654	3186.9227	1528.65	637.65
1047.369	3187.8674	1530.25	638.9
1047.4726	3188.8115	1534.85	639.15
1047.5761	3189.755	1531.95	643.55
1047.6796	3190.6979	1516.3	625.6
1047.783	3191.6402	1517.5	628.45
1047.8864	3192.5818	1514.95	626.05
1047.9898	3193.5229	1518.9	616.4
1048.0931	3194.4633	1514.65	624.3
1048.1963	3195.4031	1507.45	617.7
1048.2995	3196.3423	1506.8	617.65
1048.4027	3197.2809	1500.85	610.3
1048.5058	3198.2189	1503.55	614.25
1048.6089	3199.1563	1496.6	601.6
1048.7119	3200.0931	1484.3	595.15
1048.8148	3201.0292	1486.15	596.9
1048.9178	3201.9648	1482.85	592.35
1049.0206	3202.8997	1483.1	590.25
1049.1235	3203.834	1465.5	576.15
1049.2262	3204.7677	1472.1	583.6
1049.329	3205.7008	1467.85	576.35
1049.4317	3206.6333	1469.5	581.35
1049.5343	3207.5652	1458.5	565.65
1049.6369	3208.4964	1461.2	572.9
1049.7394	3209.4271	1462.85	572.85
1049.8419	3210.3571	1454.65	565.15
1049.9444	3211.2865	1450.65	559.45
1050.0468	3212.2154	1446	554.1
1050.1491	3213.1436	1453.65	560.45
1050.2514	3214.0712	1455	558.9
1050.3537	3214.9982	1440	550.05
1050.4559	3215.9246	1443.5	552.05
1050.5581	3216.8503	1434.45	545
1050.6602	3217.7755	1436	545.95
1050.7623	3218.7001	1429.5	538.65
1050.8643	3219.624	1416.05	525.8
1050.9663	3220.5473	1428.05	539.25
1051.0682	3221.4701	1421.15	530.1
1051.1701	3222.3922	1421.15	529.8
1051.2719	3223.3137	1416.35	526.55
1051.3737	3224.2346	1410.9	521.4
1051.4754	3225.1549	1409.5	520.15
1051.5771	3226.0746	1406.25	516.3
1051.6788	3226.9937	1410.4	519.9
1051.7804	3227.9121	1400.75	510.8
1051.8819	3228.83	1401.75	513
1051.9834	3229.7473	1393.6	504.4
1052.0849	3230.6639	1402.7	513.25
1052.1863	3231.5799	1387.8	496.25
1052.2876	3232.4954	1391.8	501.6
1052.3889	3233.4102	1377.45	487.45
1052.4902	3234.3244	1383.3	493.85
1052.5914	3235.238	1376.85	487.05
1052.6926	3236.151	1389.75	477.05
1052.7937	3237.0634	1367.1	478.55
1052.8948	3237.9752	1368.6	480.15
1052.9958	3238.8864	1367.8	477.75
1053.0968	3239.797	1367.55	477.9
1053.1977	3240.7069	1363.3	472.7
1053.2986	3241.6163	1364.45	474.65
1053.3994	3242.5251	1357.1	468
1053.5002	3243.4332	1359.1	469.6
1053.6009	3244.3408	1348.9	457.6
1053.7016	3245.2477	1347.85	458.1
1053.8022	3246.154	1348.6	457.85
1053.9028	3247.0598	1343	451.95
1054.0034	3247.9649	1336.1	447.35
1054.1039	3248.8694	1339.05	448.6
1054.2043	3249.7733	1335.8	446.25
1054.3047	3250.6766	1329.05	441.15
1054.4051	3251.5793	1331.55	440.9
1054.5054	3252.4814	1322.05	433.75
1054.6056	3253.3829	1317.7	428.5
1054.7058	3254.2838	1319.4	427.55
1054.806	3255.1841	1313.5	422.55
1054.9061	3256.0838	1313.15	423.55
1055.0061	3256.9829	1308.4	419.65
1055.1062	3257.8814	1309.7	419
1055.2061	3258.7792	1302.7	411.5
1055.306	3259.6765	1304.7	414.15
1055.4059	3260.5731	1296.8	406.85
1055.5057	3261.4692	1290.3	401.4
1055.6055	3262.3647	1285.45	394.9
1055.7052	3263.2595	1277.65	388.5
1055.8049	3264.1538	1275.6	387.65
1055.9045	3265.0474	1272.75	381.7
1056.0041	3265.9404	1263.6	374.4
1056.1036	3266.8329	1258.8	369.7
1056.2031	3267.7247	1263.65	366.35
1056.3025	3268.616	1239.05	349.95
1056.4019	3269.5066	1234.45	343
1056.5013	3270.3966	1221.9	329.8
1056.6005	3271.286	1214.9	326.5
