Software Version:	3.9.2.0
Unit SN:	10000200
Spectrometer SN:	6960
Date:	3/6/2024 9:50:40 AM
Data Line Index:	25
Spectral Points:	2048
Integration time (ms):	125
Averages:	20
Delay (ms):	30
Sequence Number:	1
Processing:	dark subtract
Laser Power (mW):	300
Laser Current (mA):	823
Laser Diode Temp (C):	25.1
Laser Case Temp (C):	24.3
System Temp (C):	24.1
Spectrometer Temp (C):	21.7
CCD Temp (C):	0.008
Secondary Temp (C):	20.007
Heatsink Temp (C):	18.294
CCDPCB Temp (C):	30.882
SecondaryPCB Temp (C):	26.169

Wavelength	RamanShift	Raw Counts	Dark Subtracted
787.061	30.1047	445.3	36.85
787.2016	32.3739	444.95	39.35
787.3422	34.6426	447.4	41
787.4828	36.9109	452.1	42.7
787.6235	39.1787	458.6	47.55
787.7642	41.4461	464.8	48.85
787.9049	43.7131	470.15	51.35
788.0456	45.9796	480.5	57.7
788.1863	48.2456	486	60.95
788.3271	50.5112	493.95	63.75
788.4679	52.7764	499.1	68.15
788.6087	55.0411	505.5	67.4
788.7496	57.3054	515.95	71.75
788.8904	59.5692	521.7	77.45
789.0313	61.8326	529.15	82.35
789.1722	64.0955	537.45	86.85
789.3132	66.3579	548.35	94
789.4541	68.6199	560.3	102
789.5951	70.8815	588.25	126.45
789.7361	73.1426	627.9	160.7
789.8771	75.4032	730.45	258.75
790.0181	77.6634	988.25	512.7
790.1592	79.9231	1600.85	1123.2
790.3003	82.1824	2902.1	2416.65
790.4414	84.4412	5140.55	4643.95
790.5825	86.6995	8224.6	7713.85
790.7237	88.9574	11240	10715.7
790.8648	91.2148	13479.3	12948
791.006	93.4717	14741.6	14204.45
791.1472	95.7282	15308.05	14767.7
791.2885	97.9842	15584.4	15041.55
791.4297	100.2398	15687.35	15142.6
791.571	102.4949	15754.45	15206
791.7123	104.7495	15764.65	15212.65
791.8536	107.0036	15746.25	15192.45
791.9949	109.2573	15752.15	15200.45
792.1363	111.5105	15757.35	15201.35
792.2777	113.7632	15740.85	15184.55
792.4191	116.0154	15769.25	15201.6
792.5605	118.2672	15799.35	15238.2
792.7019	120.5185	15786.3	15221.6
792.8434	122.7693	15796.75	15231.55
792.9849	125.0197	15812.05	15240.55
793.1264	127.2696	15811.9	15236.7
793.2679	129.519	15886.75	15308.7
793.4094	131.7679	15907.85	15326.65
793.551	134.0163	15975.25	15394.85
793.6926	136.2642	15965.1	15375.7
793.8342	138.5117	15992.95	15405.6
793.9758	140.7587	15987.9	15399.05
794.1175	143.0052	16016.5	15422.9
794.2591	145.2512	15995.65	15404.3
794.4008	147.4967	15974.45	15378.85
794.5425	149.7417	15960.75	15363.1
794.6842	151.9863	15975.65	15374.3
794.826	154.2304	16014.35	15409.15
794.9677	156.4739	15949.65	15335.35
795.1095	158.717	15991	15382.05
795.2513	160.9596	15980.55	15364.3
795.3931	163.2017	15964.25	15347
795.535	165.4433	16009	15388.1
795.6768	167.6844	16009.2	15386.6
795.8187	169.925	16020.65	15395.55
795.9606	172.1651	15958.9	15331.25
796.1025	174.4047	15948.7	15316.7
796.2445	176.6439	15965.75	15334.45
796.3864	178.8825	15973.75	15336.25
796.5284	181.1206	15993.85	15352.35
796.6704	183.3582	16009.9	15361.6
796.8124	185.5954	16035.6	15388
796.9544	187.832	16012.6	15364
797.0965	190.0681	16062.85	15409.75
797.2386	192.3037	16087	15431.25
797.3806	194.5388	16115.45	15456.65
797.5228	196.7734	16148.8	15490.85
797.6649	199.0075	16211.8	15552.05
797.807	201.2411	16287.35	15623.35
797.9492	203.4742	16300.7	15635.5
798.0914	205.7068	16371.95	15702
798.2336	207.9389	16394.7	15725.65
798.3758	210.1704	16417	15752.2
798.518	212.4015	16394.55	15740.15
798.6603	214.632	16436.9	15789.85
798.8025	216.862	16420.75	15775.45
798.9448	219.0915	16444	15793.05
799.0871	221.3205	16483.3	15831.75
799.2294	223.549	16523.45	15878.4
799.3718	225.777	16538.9	15891.7
799.5141	228.0044	16543.7	15889.65
799.6565	230.2314	16596.2	15938.95
799.7989	232.4578	16588.65	15927.9
799.9413	234.6837	16620.8	15948.55
800.0837	236.909	16599.25	15927.05
800.2262	239.1339	16673.8	15977.25
800.3687	241.3582	16660.85	15978.85
800.5111	243.582	16668.65	15956.2
800.6536	245.8053	16684.8	15984.15
800.7961	248.0281	16674.55	15980.55
800.9387	250.2503	16686.6	15989
801.0812	252.472	16711.1	16011.9
801.2238	254.6932	16746.85	16049.65
801.3664	256.9139	16741.7	16039.8
801.509	259.134	16755.35	16049.65
801.6516	261.3536	16774.75	16072.6
801.7942	263.5727	16797.95	16093.65
801.9369	265.7912	16789.55	16084.45
802.0795	268.0092	16847.5	16145.05
802.2222	270.2267	16843.15	16136.15
802.3649	272.4436	16825.2	16115.4
802.5076	274.6601	16885.5	16168
802.6504	276.8759	16881.3	16166.6
802.7931	279.0913	16891.55	16176
802.9359	281.3061	16899.65	16184.1
803.0787	283.5204	16919.5	16201
803.2215	285.7341	16972.65	16250.1
803.3643	287.9473	17011.3	16278.3
803.5071	290.16	17000.95	16276.6
803.6499	292.3721	16983.9	16263.45
803.7928	294.5837	16975.85	16256.4
803.9357	296.7947	16903.9	16181.75
804.0786	299.0052	16930.3	16209.65
804.2215	301.2152	16892.8	16166.2
804.3644	303.4246	16929.9	16208.9
804.5074	305.6334	16899.6	16177.1
804.6503	307.8418	16902.05	16174.15
804.7933	310.0495	16881.1	16154.35
804.9363	312.2568	16873.75	16146.3
805.0793	314.4635	16830.45	16096.8
805.2223	316.6696	16764.6	16028.65
805.3653	318.8752	16705.4	15960.8
805.5084	321.0802	16660.65	15924.45
805.6514	323.2847	16676.35	15938.85
805.7945	325.4887	16646.05	15908.5
805.9376	327.692	16669.2	15932.25
806.0807	329.8949	16703.85	15966
806.2238	332.0972	16673.45	15931.35
806.367	334.2989	16729.45	15983.15
806.5101	336.5001	16691.05	15945.8
806.6533	338.7007	16671.95	15924.85
806.7965	340.9008	16701.25	15954.2
806.9397	343.1003	16668.8	15921.45
807.0829	345.2992	16670.5	15919.55
807.2261	347.4976	16624.35	15874.35
807.3693	349.6955	16600.75	15845.25
807.5126	351.8927	16653.2	15896.45
807.6559	354.0895	16599.25	15829.25
807.7991	356.2856	16609.25	15850.7
807.9424	358.4812	16565	15805.85
808.0857	360.6763	16594.8	15831.1
808.2291	362.8707	16559.85	15796.45
808.3724	365.0646	16582.95	15819.3
808.5158	367.258	16552.45	15785.65
808.6591	369.4508	16551.15	15778.7
808.8025	371.643	16557.65	15789.3
808.9459	373.8346	16513.35	15740.35
809.0893	376.0257	16515.95	15740.1
809.2327	378.2162	16488.3	15716.05
809.3762	380.4062	16530	15753.25
809.5196	382.5956	16475.75	15705.85
809.6631	384.7844	16451.8	15687.15
809.8066	386.9726	16386.25	15618.8
809.9501	389.1603	16353.25	15590.6
810.0936	391.3474	16376.4	15574.35
810.2371	393.5339	16358.6	15589.65
810.3806	395.7199	16308.15	15541.7
810.5241	397.9052	16310.3	15542.25
810.6677	400.09	16280.45	15511.65
810.8113	402.2743	16315.2	15545.65
810.9548	404.4579	16297.8	15523.85
811.0984	406.641	16345.95	15571.7
811.2421	408.8235	16373.15	15598
811.3857	411.0054	16388.05	15608.8
811.5293	413.1868	16458.3	15678.35
811.673	415.3675	16515.15	15732.35
811.8166	417.5477	16500.4	15715.55
811.9603	419.7273	16423.95	15636.4
812.104	421.9064	16306.55	15511.35
812.2477	424.0848	16239.45	15451.5
812.3914	426.2627	16176.15	15388.1
812.5351	428.4399	16146.65	15355.85
812.6788	430.6166	16089	15297.3
812.8226	432.7928	16038.3	15244.5
812.9663	434.9683	15967.15	15172.25
813.1101	437.1432	15951.3	15156.05
813.2539	439.3176	15903.6	15111.25
813.3977	441.4914	15845.8	15051.95
813.5415	443.6645	15854.15	15058.05
813.6853	445.8371	15764.1	14967.55
813.8291	448.0091	15712.75	14916.1
813.973	450.1806	15677.7	14881.6
814.1168	452.3514	15634.55	14836.8
814.2607	454.5216	15671.4	14864.7
814.4046	456.6913	15561	14760.35
814.5485	458.8603	15569.35	14769.9
814.6924	461.0288	15561.85	14765.1
814.8363	463.1967	15482.5	14686.65
814.9802	465.3639	15515.95	14714.95
815.1241	467.5306	15508.15	14707.3
815.2681	469.6967	15456.35	14659.2
815.412	471.8622	15428.75	14629.3
815.556	474.0271	15450.4	14650.55
815.7	476.1914	15398.8	14591.4
815.844	478.3551	15408.45	14605.05
815.988	480.5182	15411.55	14607.25
816.132	482.6807	15389.7	14586.2
816.276	484.8426	15417.9	14620.65
816.4201	487.0039	15430.65	14625.6
816.5641	489.1647	15499.4	14693.9
816.7082	491.3248	15493.25	14687.6
816.8522	493.4843	15476	14670.45
816.9963	495.6432	15461.9	14656.15
817.1404	497.8015	15408.05	14596.3
817.2845	499.9592	15408	14598.45
817.4286	502.1163	15372.9	14561.85
817.5727	504.2728	15324.1	14510.5
817.7168	506.4287	15359.75	14551.15
817.861	508.5839	15327.6	14517.15
818.0051	510.7386	15296.85	14486.6
818.1493	512.8927	15293	14475.35
818.2935	515.0461	15303.45	14486.4
818.4377	517.199	15290.55	14477.15
818.5818	519.3512	15276	14459.45
818.726	521.5029	15310	14491.2
818.8703	523.6539	15283.65	14467.75
819.0145	525.8043	15270.3	14454.05
819.1587	527.9541	15254.95	14434.75
819.303	530.1033	15165.2	14346.85
819.4472	532.2519	15150.85	14329.7
819.5915	534.3999	15157.4	14335
819.7357	536.5472	15126.4	14306.7
819.88	538.694	15144.35	14325.5
820.0243	540.8401	15131.1	14308.8
820.1686	542.9856	15160.2	14335.45
820.3129	545.1305	15148.05	14320.35
820.4572	547.2748	15134	14309.2
820.6016	549.4185	15129.25	14300.6
820.7459	551.5615	15104.7	14278.55
820.8902	553.704	15091.25	14262.95
821.0346	555.8458	15067.4	14241.05
821.1789	557.987	15081	14256
821.3233	560.1276	15077.25	14248.05
821.4677	562.2675	15092.65	14267.2
821.6121	564.4069	15098.35	14270.25
821.7565	566.5456	15094.75	14269.3
821.9009	568.6837	15081.85	14258.05
822.0453	570.8212	15037.8	14210.05
822.1897	572.958	14928.45	14098.45
822.3342	575.0942	14915.05	14085.55
822.4786	577.2299	14868.3	14042
822.6231	579.3648	14820.8	13996.55
822.7675	581.4992	14736.65	13911.7
822.912	583.6329	14695.85	13871.05
823.0565	585.766	14685.4	13861.85
823.201	587.8985	14682.65	13857.4
823.3454	590.0304	14633.8	13792.05
823.4899	592.1616	14643.7	13808.85
823.6345	594.2922	14609.4	13776.7
823.779	596.4222	14561.05	13726.25
823.9235	598.5515	14488.95	13654.4
824.068	600.6802	14457.15	13621.15
824.2126	602.8083	14385.7	13552.4
824.3571	604.9358	14392.75	13560
824.5017	607.0626	14351.2	13515.15
824.6462	609.1888	14330.6	13493.15
824.7908	611.3144	14319.8	13480.1
824.9354	613.4393	14310.95	13471.75
825.08	615.5636	14295.6	13457.35
825.2246	617.6873	14316.75	13477.25
825.3692	619.8103	14338.8	13499
825.5138	621.9327	14274.75	13434.3
825.6584	624.0544	14277.25	13438.55
825.803	626.1756	14258.35	13420.5
825.9477	628.2961	14225	13386.6
826.0923	630.4159	14157.6	13316.65
826.237	632.5351	14139.45	13297.35
826.3816	634.6537	14127.75	13286.35
826.5263	636.7716	14149.85	13307.35
826.6709	638.8889	14107.45	13261
826.8156	641.0056	14147.6	13304.75
826.9603	643.1216	14093.55	13246.8
827.105	645.237	14136.3	13288.95
827.2497	647.3518	14070.05	13230.5
827.3944	649.4659	14102.75	13260.6
827.5391	651.5793	14068.15	13226.1
827.6838	653.6922	14023.55	13181.55
827.8285	655.8043	13987.35	13142.2
827.9733	657.9159	13981.75	13136.9
828.118	660.0268	13952.1	13103.4
828.2627	662.137	13935.95	13086.95
828.4075	664.2466	13930.75	13080.9
828.5522	666.3556	13919.95	13071.1
828.697	668.4639	13838.7	12988.35
828.8418	670.5716	13892.85	13048.55
828.9865	672.6786	13900.25	13050.9
829.1313	674.785	13818.9	12965.4
829.2761	676.8907	13762.7	12915.7
829.4209	678.9958	13751.55	12904.5
829.5657	681.1002	13732.3	12881.75
829.7105	683.204	13724.25	12867.5
829.8553	685.3072	13698.7	12847.75
830.0001	687.4097	13673.9	12820.9
830.1449	689.5115	13656.1	12799.6
830.2898	691.6127	13647.2	12796.4
830.4346	693.7132	13611.75	12761.45
830.5794	695.8131	13632.3	12771.7
830.7243	697.9123	13648.7	12793.8
830.8691	700.0109	13619.45	12766.85
831.014	702.1089	13578	12726.35
831.1588	704.2061	13575.55	12720.45
831.3037	706.3028	13596.3	12741.55
831.4486	708.3987	13599.1	12744.65
831.5935	710.4941	13565.3	12712.15
831.7383	712.5887	13545.3	12688.6
831.8832	714.6827	13539.4	12678.55
832.0281	716.7761	13527.75	12669.15
832.173	718.8688	13524.45	12666.4
832.3179	720.9608	13495.8	12633.5
832.4628	723.0522	13510.35	12649.15
832.6077	725.1429	13480.7	12623.55
832.7527	727.233	13468	12610
832.8976	729.3224	13500.6	12643.3
833.0425	731.4112	13471.05	12609
833.1874	733.4993	13473.95	12613.65
833.3324	735.5867	13422.3	12562.8
833.4773	737.6735	13409.55	12546.95
833.6222	739.7596	13341.85	12481.85
833.7672	741.845	13303.2	12442.4
833.9122	743.9298	13280	12417.45
834.0571	746.014	13300.4	12442.05
834.2021	748.0974	13280.6	12415.75
834.347	750.1802	13252.05	12388.25
834.492	752.2624	13178.15	12317.55
834.637	754.3439	13171	12304.95
834.782	756.4247	13103.6	12230.5
834.9269	758.5048	13071.2	12207.2
835.0719	760.5843	13033.4	12170.65
835.2169	762.6631	13013.4	12149.7
835.3619	764.7413	13013.7	12150.55
835.5069	766.8188	13039.5	12173.75
835.6519	768.8956	13007.15	12141.6
835.7969	770.9718	13026.85	12163.7
835.9419	773.0473	12975.2	12112.1
836.0869	775.1221	12975.3	12111.4
836.232	777.1962	12903.1	12037.95
836.377	779.2697	12901.65	12036.55
836.522	781.3426	12928.3	12045.8
836.667	783.4147	12925.9	12059.3
836.8121	785.4862	12920.8	12056.7
836.9571	787.557	12863.15	11997.3
837.1021	789.6271	12791.4	11924.7
837.2472	791.6966	12719.25	11852.55
837.3922	793.7654	12621.45	11754.55
837.5373	795.8335	12617.65	11752.2
837.6823	797.901	12585.75	11720.25
837.8274	799.9678	12538.3	11666.15
837.9724	802.0339	12507.6	11639.4
838.1175	804.0993	12533.75	11657.55
838.2626	806.1641	12490.95	11623.35
838.4076	808.2282	12436.95	11572.2
838.5527	810.2916	12444.25	11572.7
838.6978	812.3544	12433.85	11568.05
838.8428	814.4164	12395.2	11528.05
838.9879	816.4778	12423.45	11551.45
839.133	818.5385	12385.45	11516.85
839.2781	820.5986	12387.15	11519.7
839.4232	822.658	12380.6	11508.25
839.5682	824.7166	12356.45	11489.75
839.7133	826.7747	12422.9	11552.5
839.8584	828.832	12433.85	11563.85
840.0035	830.8886	12404.15	11529.3
840.1486	832.9446	12400.15	11529.3
840.2937	834.9999	12357.05	11486.55
840.4388	837.0545	12322.3	11445.95
840.5839	839.1085	12281.5	11409.75
840.729	841.1618	12231.8	11358.05
840.8741	843.2143	12184.1	11314.55
841.0192	845.2662	12128.4	11257.85
841.1643	847.3175	12136.1	11264.75
841.3095	849.368	12100.25	11229.25
841.4546	851.4179	12067.35	11198.1
841.5997	853.467	12048.65	11175.15
841.7448	855.5155	12028.4	11156
841.8899	857.5633	11994.9	11123.15
842.0351	859.6105	11972.9	11101.95
842.1802	861.6569	11944.3	11071.6
842.3253	863.7027	11924.4	11048.95
842.4704	865.7478	11915.35	11043.65
842.6156	867.7922	11902.05	11026.75
842.7607	869.8359	11902.3	11027.65
842.9058	871.8789	11844.85	10971.65
843.0509	873.9212	11884.6	10977.4
843.1961	875.9629	11818.35	10942.25
843.3412	878.0039	11837.9	10963.05
843.4863	880.0441	11826.6	10953.1
843.6315	882.0837	11799.2	10926.15
843.7766	884.1226	11805.25	10928.7
843.9218	886.1609	11786.3	10914.6
844.0669	888.1984	11834.65	10960.55
844.212	890.2352	11882.9	11008.45
844.3572	892.2714	11832.85	10955.65
844.5023	894.3069	11806.6	10930.2
844.6475	896.3416	11740.6	10864.8
844.7926	898.3757	11743.1	10867.1
844.9377	900.4091	11701	10823.75
845.0829	902.4418	11695.4	10811.45
845.228	904.4739	11682.75	10801.8
845.3732	906.5052	11656	10778.9
845.5183	908.5358	11628.55	10753.95
845.6635	910.5658	11594.35	10715.8
845.8086	912.595	11558.05	10683.1
845.9538	914.6236	11534.75	10658.45
846.0989	916.6515	11509.4	10633.8
846.2441	918.6786	11466.25	10587.3
846.3892	920.7051	11462.5	10580.3
846.5344	922.7309	11460.55	10581.5
846.6795	924.756	11400.25	10520.3
846.8246	926.7804	11424.2	10544.5
846.9698	928.8041	11350.9	10471.55
847.1149	930.8272	11373.7	10496.75
847.2601	932.8495	11314.85	10434.75
847.4052	934.8711	11294.35	10415.15
847.5504	936.892	11244.1	10363.85
847.6955	938.9123	11266.8	10386.55
847.8407	940.9318	11241.8	10361.2
847.9858	942.9506	11205.4	10324.3
848.131	944.9688	11179.15	10300.2
848.2761	946.9862	11154.55	10276.35
848.4213	949.003	11074.9	10194.8
848.5664	951.019	11047.85	10169.8
848.7115	953.0344	11009.95	10129.3
848.8567	955.0491	10979.15	10100.9
849.0018	957.063	10966.65	10088.85
849.147	959.0763	10995.9	10114.65
849.2921	961.0888	10928.5	10049.35
849.4373	963.1007	10932.05	10051
849.5824	965.1119	10939.6	10061.75
849.7275	967.1223	10928.25	10049.9
849.8727	969.1321	10900.8	10022.65
850.0178	971.1412	10875.65	9995.5
850.1629	973.1495	10840.55	9961.75
850.3081	975.1572	10864.8	9939.5
850.4532	977.1641	10806.85	9926.95
850.5983	979.1704	10774.4	9892.2
850.7435	981.1759	10741.25	9859.7
850.8886	983.1808	10760.1	9877.55
851.0337	985.1849	10711.35	9818.75
851.1788	987.1884	10711.25	9825.5
851.324	989.1911	10692.1	9807.15
851.4691	991.1932	10695.55	9813.4
851.6142	993.1945	10610.95	9731.45
851.7593	995.1951	10553.9	9672.35
851.9045	997.1951	10549.1	9665.05
852.0496	999.1943	10509.6	9627.2
852.1947	1001.1928	10503.95	9622.65
852.3398	1003.1906	10453.35	9569.7
852.4849	1005.1877	10437.5	9552.9
852.63	1007.1841	10418.35	9536.5
852.7751	1009.1798	10389.95	9509.1
852.9202	1011.1748	10357.2	9475.85
853.0653	1013.1691	10319.8	9437.55
853.2104	1015.1627	10268.1	9384.8
853.3555	1017.1556	10215.75	9335.2
853.5006	1019.1477	10172.35	9288.8
853.6457	1021.1392	10103.8	9224.55
853.7908	1023.1299	10087.55	9206.3
853.9359	1025.12	10064.85	9181.2
854.081	1027.1093	10010.75	9132.3
854.2261	1029.0979	9978.35	9103.65
854.3712	1031.0859	9958.55	9080.3
854.5163	1033.0731	9938	9057.5
854.6613	1035.0596	9914.4	9034.85
854.8064	1037.0454	9849.3	8966.7
854.9515	1039.0304	9859.5	8977.65
855.0965	1041.0148	9808.45	8927
855.2416	1042.9985	9776.65	8891.5
855.3867	1044.9814	9758.85	8876.95
855.5317	1046.9636	9705.8	8823.35
855.6768	1048.9452	9669.6	8787.7
855.8219	1050.926	9665.95	8783.3
855.9669	1052.9061	9633.6	8749.4
856.112	1054.8855	9617.55	8733.05
856.257	1056.8642	9604	8721.95
856.4021	1058.8421	9591.9	8704.25
856.5471	1060.8194	9586.7	8702.6
856.6921	1062.7959	9562.9	8678.15
856.8372	1064.7717	9533.9	8648.2
856.9822	1066.7469	9536.1	8647.95
857.1272	1068.7213	9521.35	8635.1
857.2723	1070.695	9500.65	8620
857.4173	1072.6679	9449.4	8564
857.5623	1074.6402	9460.2	8574.15
857.7073	1076.6117	9467.55	8577.25
857.8523	1078.5826	9447.1	8562.15
857.9973	1080.5527	9422.7	8536.4
858.1423	1082.5221	9351.25	8466.3
858.2873	1084.4908	9344.6	8462.2
858.4323	1086.4587	9268.65	8382.7
858.5773	1088.426	9294.9	8410.15
858.7223	1090.3925	9236.05	8345.1
858.8673	1092.3584	9240.45	8356.55
859.0123	1094.3235	9229.8	8345.7
859.1573	1096.2879	9218.6	8333.2
859.3022	1098.2515	9190.4	8308.75
859.4472	1100.2145	9214.65	8328.9
859.5922	1102.1767	9197.75	8311.6
859.7371	1104.1382	9173.25	8288.15
859.8821	1106.099	9175.3	8289.4
860.027	1108.0591	9150	8265.5
860.172	1110.0185	9196.45	8310.05
860.3169	1111.9771	9172.25	8286.25
860.4619	1113.9351	9134.9	8250
860.6068	1115.8923	9161.2	8274.95
860.7517	1117.8488	9160.5	8273.15
860.8967	1119.8045	9119.05	8233.75
861.0416	1121.7596	9062	8176.15
861.1865	1123.7139	8991.8	8107.7
861.3314	1125.6675	8953	8067.15
861.4763	1127.6204	8947.3	8061.9
861.6212	1129.5726	8922.65	8034.1
861.7661	1131.524	8897.05	8009.9
861.911	1133.4748	8881.95	7995.25
862.0559	1135.4248	8844.25	7958.8
862.2008	1137.3741	8802.4	7919.25
862.3457	1139.3226	8768.3	7880.25
862.4905	1141.2705	8747.85	7862.65
862.6354	1143.2176	8743.9	7851.8
862.7803	1145.164	8722.3	7834.25
862.9251	1147.1097	8713.05	7827.95
863.07	1149.0546	8691.25	7803.3
863.2148	1150.9989	8684.65	7796.75
863.3597	1152.9424	8622.5	7734.8
863.5045	1154.8852	8607.55	7722.1
863.6493	1156.8272	8604.55	7718.9
863.7942	1158.7686	8601.85	7707.1
863.939	1160.7092	8577.65	7690.15
864.0838	1162.6491	8534.55	7647.15
864.2286	1164.5883	8549.3	7662.05
864.3734	1166.5267	8542.7	7656.1
864.5182	1168.4644	8541.65	7651.5
864.663	1170.4014	8555.5	7663.75
864.8078	1172.3377	8563.45	7678.25
864.9526	1174.2732	8548.6	7660.85
865.0974	1176.2081	8597.95	7713.6
865.2421	1178.1421	8651.5	7761.4
865.3869	1180.0755	8669.95	7784.9
865.5317	1182.0082	8677.9	7792.35
865.6764	1183.9401	8641.05	7752.15
865.8212	1185.8713	8575.15	7692.05
865.9659	1187.8017	8537.35	7651.6
866.1106	1189.7315	8450	7567.25
866.2554	1191.6605	8374.4	7491.3
866.4001	1193.5888	8329.65	7446.9
866.5448	1195.5163	8300.2	7416.45
866.6895	1197.4432	8240.55	7355.25
866.8342	1199.3693	8232.2	7347.7
866.9789	1201.2947	8198.4	7304.8
867.1236	1203.2193	8167.7	7279.4
867.2683	1205.1432	8163.85	7277.8
867.413	1207.0664	8126.1	7242.4
867.5576	1208.9889	8114.35	7224.3
867.7023	1210.9106	8081.75	7192.85
867.847	1212.8316	8045.05	7156.55
867.9916	1214.7519	8037.95	7141.95
868.1363	1216.6715	8006	7121.15
868.2809	1218.5903	8013.85	7125.95
868.4255	1220.5084	8026.15	7138.15
868.5701	1222.4257	8002.95	7118.05
868.7148	1224.3424	7971.9	7083.95
868.8594	1226.2583	7989.7	7098.9
869.004	1228.1735	7965.4	7076.15
869.1486	1230.0879	7950.25	7063.8
869.2932	1232.0016	7925.35	7038.95
869.4377	1233.9146	7953.2	7063.8
869.5823	1235.8269	7954.85	7066.65
869.7269	1237.7384	7924.15	7034.4
869.8715	1239.6492	7888.7	7001.75
870.016	1241.5592	7903.05	7014.8
870.1606	1243.4686	7887.05	6999.05
870.3051	1245.3772	7921.2	7032.65
870.4496	1247.285	7937.35	7048.9
870.5941	1249.1922	7950.8	7062.95
870.7387	1251.0986	7989.3	7103
870.8832	1253.0042	7984.15	7096.7
871.0277	1254.9092	8012.85	7124.6
871.1722	1256.8134	8040.5	7154.25
871.3167	1258.7169	8070.55	7182.75
871.4611	1260.6196	8072.7	7184.65
871.6056	1262.5216	8077	7185.5
871.7501	1264.4229	8019.8	7132.45
871.8945	1266.3234	8019.2	7132.15
872.039	1268.2232	7976.35	7087.65
872.1834	1270.1223	7959.9	7071.4
872.3278	1272.0207	7908.7	7018.25
872.4723	1273.9183	7900.95	7005.45
872.6167	1275.8151	7896.55	7009
872.7611	1277.7113	7905.4	7017.95
872.9055	1279.6067	7919.2	7029.4
873.0499	1281.5014	7983.9	7092.95
873.1943	1283.3953	8050.9	7159.85
873.3386	1285.2885	8116.15	7228
873.483	1287.181	8166	7277
873.6274	1289.0727	8178.55	7292.45
873.7717	1290.9637	8141.75	7253.3
873.9161	1292.854	8130.85	7243.95
874.0604	1294.7435	8059.45	7168.9
874.2047	1296.6323	8001.1	7112.35
874.349	1298.5204	7955.55	7063.95
874.4933	1300.4077	7910.3	7019.9
874.6376	1302.2943	7891.45	7004.9
874.7819	1304.1802	7858.85	6972.95
874.9262	1306.0653	7822.85	6932.05
875.0705	1307.9497	7788.8	6899.15
875.2147	1309.8333	7796.65	6908.15
875.359	1311.7162	7759.85	6870.15
875.5032	1313.5984	7746.55	6856.45
875.6475	1315.4798	7674.05	6783.9
875.7917	1317.3605	7685.1	6781.15
875.9359	1319.2405	7688.05	6796.2
876.0801	1321.1197	7645.35	6755.55
876.2243	1322.9982	7629.25	6735.95
876.3685	1324.876	7566.05	6678.8
876.5127	1326.753	7519.55	6631.55
876.6569	1328.6293	7482.95	6593.75
876.801	1330.5048	7458.9	6569.7
876.9452	1332.3796	7396.65	6508.65
877.0893	1334.2537	7381.85	6467.25
877.2335	1336.127	7312.15	6422.1
877.3776	1337.9996	7285.25	6395.5
877.5217	1339.8714	7273.35	6383.25
877.6658	1341.7426	7284.8	6351.05
877.8099	1343.6129	7256.1	6365.75
877.954	1345.4826	7226	6337.85
878.0981	1347.3515	7238.1	6345.25
878.2422	1349.2196	7196.9	6307.35
878.3862	1351.087	7188.2	6299.95
878.5303	1352.9537	7184.35	6295.95
878.6743	1354.8197	7179.35	6290.05
878.8184	1356.6849	7175.55	6288.1
878.9624	1358.5493	7140.25	6252.65
879.1064	1360.4131	7187.8	6299.8
879.2504	1362.276	7167.75	6279.6
879.3944	1364.1383	7160.15	6271.5
879.5384	1365.9998	7178.1	6284.85
879.6823	1367.8606	7125.05	6235.25
879.8263	1369.7206	7118.8	6229.8
879.9702	1371.5799	7108.05	6215.15
880.1142	1373.4384	7057.8	6166.35
880.2581	1375.2962	7065.85	6176.65
880.402	1377.1533	7003.5	6113.5
880.5459	1379.0096	6938.7	6050.55
880.6898	1380.8652	6920.65	6034.45
880.8337	1382.7201	6903.25	6015
880.9776	1384.5742	6853.9	5963.95
881.1215	1386.4275	6815.65	5923.45
881.2653	1388.2802	6782.45	5893.9
881.4092	1390.132	6754.7	5865.75
881.553	1391.9832	6755.45	5864.35
881.6968	1393.8336	6722.1	5834
881.8406	1395.6832	6713	5822.55
881.9844	1397.5322	6698.55	5811.8
882.1282	1399.3803	6655.1	5761.1
882.272	1401.2278	6632.6	5742.65
882.4158	1403.0745	6603	5714.8
882.5595	1404.9204	6574.9	5686.8
882.7033	1406.7656	6553.4	5664.9
882.847	1408.6101	6555.1	5665.9
882.9908	1410.4538	6499.45	5609.05
883.1345	1412.2968	6507.7	5618.25
883.2782	1414.139	6484.3	5597.3
883.4219	1415.9805	6505.5	5617.4
883.5656	1417.8213	6485.1	5591.45
883.7092	1419.6613	6438.45	5549.1
883.8529	1421.5006	6448.2	5558.75
883.9965	1423.3391	6444.9	5553.85
884.1402	1425.1769	6438.95	5548.1
884.2838	1427.0139	6487.6	5598.5
884.4274	1428.8502	6521.7	5630.9
884.571	1430.6858	6520.75	5632.05
884.7146	1432.5206	6511.05	5622.3
884.8582	1434.3547	6527.8	5640.25
885.0018	1436.188	6482.9	5595.4
885.1453	1438.0206	6481.3	5591.15
885.2889	1439.8524	6422.45	5531.5
885.4324	1441.6835	6445.1	5555.25
885.5759	1443.5139	6431.9	5541.05
885.7194	1445.3435	6405.05	5516.35
885.8629	1447.1724	6406.75	5516.5
886.0064	1449.0005	6396.7	5508.25
886.1499	1450.8279	6392.15	5499.75
886.2933	1452.6545	6365.5	5476.1
886.4368	1454.4804	6359.15	5473.2
886.5802	1456.3056	6348.7	5454.9
886.7237	1458.13	6342.05	5453.7
886.8671	1459.9536	6333.8	5444.45
887.0105	1461.7766	6284.95	5396.5
887.1539	1463.5987	6248.05	5359.3
887.2972	1465.4202	6228.5	5337.8
887.4406	1467.2409	6199.1	5310.65
887.584	1469.0608	6196	5306.55
887.7273	1470.88	6168.75	5278.65
887.8706	1472.6984	6138.4	5249.05
888.0139	1474.5161	6097	5206.7
888.1572	1476.3331	6078.5	5191.8
888.3005	1478.1493	6060.75	5169.55
888.4438	1479.9648	6068.45	5178.5
888.5871	1481.7795	6032.85	5142.95
888.7303	1483.5935	6037.1	5148.6
888.8736	1485.4067	6035.05	5146.55
889.0168	1487.2192	6022.4	5134
889.16	1489.031	5993.5	5100.55
889.3032	1490.842	5977.35	5087.9
889.4464	1492.6522	5994.7	5106.8
889.5896	1494.4618	5969.95	5080.25
889.7327	1496.2705	5957.5	5069.15
889.8759	1498.0785	5937.95	5049.45
890.019	1499.8858	5928.8	5039.1
890.1622	1501.6924	5893.3	5005.75
890.3053	1503.4981	5897.6	5007.5
890.4484	1505.3032	5883.15	4994.25
890.5914	1507.1075	5869.6	4979
890.7345	1508.911	5853.7	4963.15
890.8776	1510.7138	5817.45	4927
891.0206	1512.5159	5802.85	4912.6
891.1637	1514.3172	5799.15	4910.85
891.3067	1516.1178	5748.5	4861.1
891.4497	1517.9176	5749.5	4857.9
891.5927	1519.7166	5740	4852.8
891.7357	1521.515	5716.65	4823.25
891.8786	1523.3126	5701	4812.1
892.0216	1525.1094	5688.3	4797.6
892.1645	1526.9055	5662.65	4774.45
892.3074	1528.7008	5641.7	4753.9
892.4503	1530.4954	5610.9	4721.5
892.5932	1532.2893	5597.15	4712.15
892.7361	1534.0824	5589.35	4697.15
892.879	1535.8747	5568.7	4680.95
893.0218	1537.6663	5548.65	4662.5
893.1647	1539.4572	5516.7	4629.55
893.3075	1541.2473	5513	4622.4
893.4503	1543.0367	5514.05	4626.6
893.5931	1544.8253	5487	4593.1
893.7359	1546.6132	5470.75	4578.95
893.8787	1548.4003	5452.55	4556.5
894.0214	1550.1867	5455.1	4557.25
894.1642	1551.9723	5428.95	4537.5
894.3069	1553.7572	5435.3	4547.4
894.4496	1555.5414	5408.75	4521
894.5923	1557.3247	5391.2	4504.8
894.735	1559.1074	5410.05	4526.25
894.8777	1560.8893	5422.2	4536.75
895.0204	1562.6705	5404.5	4518.4
895.163	1564.4509	5417	4530.9
895.3056	1566.2305	5381	4495.75
895.4482	1568.0094	5388.35	4504.45
895.5908	1569.7876	5366.6	4479.45
895.7334	1571.565	5361.9	4475.75
895.876	1573.3417	5338.75	4452.8
896.0186	1575.1176	5340.35	4457.2
896.1611	1576.8928	5340.25	4457.1
896.3036	1578.6672	5322.8	4439.45
896.4461	1580.4409	5297.85	4415.75
896.5886	1582.2138	5315.5	4427.65
896.7311	1583.986	5315.3	4430.8
896.8736	1585.7575	5327	4441
897.0161	1587.5282	5331.35	4447.35
897.1585	1589.2981	5309.6	4428.15
897.3009	1591.0673	5317.15	4433.65
897.4433	1592.8358	5295.55	4410.55
897.5857	1594.6035	5301.5	4415
897.7281	1596.3704	5285.9	4398.2
897.8705	1598.1366	5248.45	4364.6
898.0128	1599.9021	5233.1	4349.85
898.1551	1601.6668	5190.85	4306.35
898.2975	1603.4308	5189.85	4304.5
898.4398	1605.194	5169.65	4281.6
898.5821	1606.9564	5142.55	4260.7
898.7243	1608.7182	5179.6	4294.2
898.8666	1610.4791	5186.05	4304.9
899.0088	1612.2394	5205.85	4325.45
899.1511	1613.9988	5254.15	4373.25
899.2933	1615.7576	5280.65	4397.9
899.4355	1617.5156	5293.15	4403.85
899.5776	1619.2728	5279	4394.9
899.7198	1621.0293	5223.25	4340.4
899.862	1622.785	5163.2	4274.7
900.0041	1624.54	5057.05	4169.7
900.1462	1626.2942	5001.45	4116.05
900.2883	1628.0477	4904.5	4018.65
900.4304	1629.8005	4857.95	3969.15
900.5725	1631.5525	4814.45	3929.6
900.7145	1633.3037	4776.55	3894
900.8566	1635.0542	4766.65	3882.2
900.9986	1636.804	4724.95	3839.6
901.1406	1638.553	4755.75	3793.9
901.2826	1640.3013	4675.7	3794.1
901.4245	1642.0488	4642.45	3756.7
901.5665	1643.7955	4622.1	3740.9
901.7085	1645.5416	4595.45	3711.05
901.8504	1647.2868	4594.1	3711.8
901.9923	1649.0313	4564.35	3680.6
902.1342	1650.7751	4552.95	3667.7
902.2761	1652.5181	4529.05	3645.9
902.4179	1654.2604	4525.8	3641.45
902.5598	1656.0019	4507.3	3623.5
902.7016	1657.7427	4518.4	3635.15
902.8434	1659.4828	4512.4	3627.35
902.9852	1661.222	4508.7	3624.1
903.127	1662.9606	4514.4	3631.4
903.2687	1664.6984	4511.6	3627.65
903.4105	1666.4354	4503.45	3618.1
903.5522	1668.1717	4486.5	3601.95
903.6939	1669.9072	4436.2	3551.9
903.8356	1671.642	4414.2	3528.4
903.9773	1673.3761	4389.25	3505.1
904.119	1675.1094	4335.25	3451.85
904.2606	1676.8419	4318.9	3437.2
904.4022	1678.5737	4305.4	3421.75
904.5439	1680.3048	4290.45	3403.7
904.6855	1682.0351	4245.9	3360.75
904.827	1683.7646	4241.4	3354.4
904.9686	1685.4934	4222.5	3338.95
905.1101	1687.2215	4187.35	3302.85
905.2517	1688.9488	4175.55	3288.8
905.3932	1690.6754	4161.55	3278.75
905.5347	1692.4012	4154.35	3271.7
905.6761	1694.1263	4137.5	3255.7
905.8176	1695.8506	4124.85	3241.15
905.9591	1697.5742	4099.45	3216.2
906.1005	1699.297	4095.6	3212.95
906.2419	1701.0191	4083	3199
906.3833	1702.7404	4070.85	3188.8
906.5246	1704.461	4050.35	3164.2
906.666	1706.1808	4039.4	3156.5
906.8073	1707.8999	4018.8	3134.65
906.9487	1709.6182	4015.85	3133.95
907.09	1711.3358	3995.1	3112.3
907.2313	1713.0527	3991.75	3112.95
907.3725	1714.7688	3975.05	3087
907.5138	1716.4841	3954.4	3070.5
907.655	1718.1987	3957.8	3067.85
907.7962	1719.9126	3941	3059.25
907.9374	1721.6257	3934.65	3050.4
908.0786	1723.338	3915.5	3035.15
908.2198	1725.0496	3918.6	3034.95
908.3609	1726.7605	3912.5	3031.45
908.502	1728.4706	3891.1	3005.35
908.6431	1730.18	3893	3008.6
908.7842	1731.8886	3883.8	3001.95
908.9253	1733.5964	3876.5	2989.65
909.0664	1735.3036	3889.75	3006.2
909.2074	1737.0099	3860.3	2977.1
909.3484	1738.7156	3854.45	2973.25
909.4894	1740.4204	3856	2969.55
909.6304	1742.1246	3844.65	2961.45
909.7714	1743.8279	3828.95	2947.4
909.9123	1745.5306	3829.7	2945.25
910.0532	1747.2325	3824.25	2943.55
910.1941	1748.9336	3815.2	2932.7
910.335	1750.634	3825.65	2939.75
910.4759	1752.3336	3817.65	2937.45
910.6168	1754.0325	3801.85	2920.7
910.7576	1755.7307	3793.9	2912.3
910.8984	1757.4281	3799.9	2917.6
911.0392	1759.1247	3798.8	2905.95
911.18	1760.8206	3792.8	2904.5
911.3208	1762.5158	3788.05	2902
911.4615	1764.2102	3770.45	2889.45
911.6022	1765.9039	3757.05	2873.15
911.7429	1767.5968	3750.8	2868.6
911.8836	1769.289	3744.15	2862.15
912.0243	1770.9804	3727.1	2844.2
912.1649	1772.6711	3734.5	2849.5
912.3056	1774.361	3727.95	2843.15
912.4462	1776.0502	3719.4	2835.05
912.5868	1777.7386	3718.3	2832.7
912.7274	1779.4263	3704.8	2823.65
912.8679	1781.1132	3690.8	2807.7
913.0084	1782.7994	3686.2	2803.35
913.149	1784.4849	3686.7	2806.15
913.2895	1786.1696	3686.2	2785.15
913.4299	1787.8535	3669.45	2787.35
913.5704	1789.5367	3670.1	2788.4
913.7108	1791.2192	3665.5	2784.05
913.8513	1792.9009	3663.15	2749.9
913.9917	1794.5818	3653.2	2769.4
914.132	1796.2621	3636.4	2755.1
914.2724	1797.9415	3616.1	2732.35
914.4128	1799.6202	3619.2	2737.4
914.5531	1801.2982	3600.95	2719.05
914.6934	1802.9755	3600.75	2719.65
914.8337	1804.6519	3597.35	2716.5
914.9739	1806.3277	3562.75	2681
915.1142	1808.0027	3570.1	2690.95
915.2544	1809.6769	3578.45	2696.1
915.3946	1811.3504	3569.6	2687.7
915.5348	1813.0231	3546.35	2664.3
915.675	1814.6951	3563.25	2681.95
915.8151	1816.3664	3569.1	2686.9
915.9553	1818.0369	3556.95	2674.3
916.0954	1819.7067	3539.7	2655.9
916.2355	1821.3757	3534.95	2650.6
916.3755	1823.044	3524.25	2641.5
916.5156	1824.7115	3522.35	2639.1
916.6556	1826.3783	3504.15	2622.95
916.7956	1828.0443	3498.5	2616.65
916.9356	1829.7096	3494.55	2611.85
917.0756	1831.3741	3494.5	2609.3
917.2155	1833.0379	3489.65	2609.8
917.3555	1834.701	3471.3	2586.95
917.4954	1836.3633	3479.25	2596.6
917.6353	1838.0248	3452.8	2569.2
917.7751	1839.6856	3462.75	2580.15
917.915	1841.3457	3458.35	2575.85
918.0548	1843.005	3439.4	2557.7
918.1946	1844.6636	3449.55	2565.8
918.3344	1846.3214	3429.35	2547.6
918.4742	1847.9785	3434.75	2552.55
918.6139	1849.6349	3421.55	2537.55
918.7537	1851.2904	3432.75	2539.85
918.8934	1852.9453	3399.9	2516.45
919.0331	1854.5994	3401.65	2517.05
919.1727	1856.2528	3409.85	2522.25
919.3124	1857.9054	3380.95	2498.4
919.452	1859.5572	3385	2501.8
919.5916	1861.2083	3394.25	2510.7
919.7312	1862.8587	3393.75	2512.4
919.8708	1864.5084	3383.8	2499.65
920.0103	1866.1572	3377.15	2496.5
920.1498	1867.8054	3363.05	2480.9
920.2893	1869.4528	3357.8	2470.25
920.4288	1871.0994	3353.1	2470.25
920.5683	1872.7453	3340.8	2456.85
920.7077	1874.3905	3340.8	2450.9
920.8471	1876.0349	3334.1	2452.4
920.9865	1877.6786	3319.8	2436.45
921.1259	1879.3215	3313.55	2433.15
921.2653	1880.9637	3308.15	2425.3
921.4046	1882.6051	3307.3	2427.3
921.5439	1884.2458	3305.8	2419.45
921.6832	1885.8858	3300.3	2415.7
921.8225	1887.525	3294.85	2411.75
921.9617	1889.1634	3271.35	2388.4
922.101	1890.8011	3275.75	2390.8
922.2402	1892.4381	3268.5	2387.1
922.3794	1894.0743	3260.65	2377.15
922.5185	1895.7098	3258.6	2376.6
922.6577	1897.3446	3247.2	2363.2
922.7968	1898.9786	3247.2	2360.1
922.9359	1900.6118	3225.95	2344.05
923.075	1902.2443	3235.65	2350.3
923.214	1903.8761	3218.55	2336.15
923.3531	1905.5071	3214.8	2329.1
923.4921	1907.1374	3200.5	2316.15
923.6311	1908.7669	3203.2	2321.85
923.77	1910.3957	3191.1	2308.9
923.909	1912.0237	3191.1	2309.8
924.0479	1913.651	3188.1	2304.7
924.1868	1915.2776	3173.75	2291.55
924.3257	1916.9034	3167.25	2285.9
924.4646	1918.5285	3150.35	2267.85
924.6034	1920.1528	3157.4	2275.25
924.7422	1921.7764	3152.8	2272.25
924.881	1923.3992	3124.45	2240.95
925.0198	1925.0213	3126.3	2243.45
925.1586	1926.6427	3121.4	2238.9
925.2973	1928.2633	3323.8	2196.2
925.436	1929.8832	3144.8	2258.7
925.5747	1931.5023	3104.85	2221.35
925.7134	1933.1207	3105.4	2220.3
925.852	1934.7383	3081.1	2198.4
925.9906	1936.3552	3089.05	2208.35
926.1292	1937.9714	3076.5	2194.3
926.2678	1939.5868	3074.65	2189.45
926.4064	1941.2015	3054.8	2169.4
926.5449	1942.8154	3058.3	2173.5
926.6834	1944.4286	3052.5	2167.9
926.8219	1946.041	3054.1	2151.25
926.9604	1947.6528	3029.5	2140.95
927.0988	1949.2637	3027.1	2144.75
927.2372	1950.8739	3017.75	2134.05
927.3756	1952.4834	3017	2135.25
927.514	1954.0921	3016.6	2132.4
927.6523	1955.7001	3007.45	2121.05
927.7907	1957.3074	2990.7	2111.45
927.929	1958.9139	2986.75	2106.8
928.0673	1960.5197	2990.1	2105.1
928.2055	1962.1247	2978.95	2097.8
928.3438	1963.729	2960.15	2078
928.482	1965.3325	2978.25	2074.5
928.6202	1966.9353	2958.15	2079.65
928.7584	1968.5374	2968.65	2086.85
928.8965	1970.1387	2948.95	2065.75
929.0346	1971.7393	2945.75	2065.55
929.1727	1973.3392	2928.45	2045.45
929.3108	1974.9383	2922.5	2043.05
929.4489	1976.5366	2910.25	2029.5
929.5869	1978.1342	2912.7	2031.55
929.7249	1979.7311	2909.85	2027.75
929.8629	1981.3273	2913.1	2031.55
930.0009	1982.9227	2892.05	2008.35
930.1388	1984.5173	2895.75	2015.1
930.2767	1986.1112	2897.15	2015.6
930.4146	1987.7044	2874.85	1994.85
930.5525	1989.2968	2877.5	1995.2
930.6904	1990.8885	2881.65	1997.8
930.8282	1992.4795	2876.45	1994.1
930.966	1994.0697	2861.4	1982.15
931.1038	1995.6592	2844.45	1963.05
931.2415	1997.2479	2856.2	1974.25
931.3793	1998.8359	2845.45	1965.3
931.517	2000.4232	2843.5	1965.7
931.6547	2002.0097	2829.05	1950.35
931.7923	2003.5955	2824.15	1944.75
931.93	2005.1805	2840.95	1959.15
932.0676	2006.7648	2833.25	1951.65
932.2052	2008.3484	2829.4	1949.4
932.3427	2009.9312	2811.5	1929.05
932.4803	2011.5133	2816.05	1937.65
932.6178	2013.0946	2820.9	1942.85
932.7553	2014.6752	2807.35	1928.95
932.8928	2016.2551	2801.65	1918.9
933.0302	2017.8342	2798.15	1918.25
933.1676	2019.4126	2796.9	1917.2
933.305	2020.9902	2767.4	1886.6
933.4424	2022.5672	2784.6	1903.6
933.5798	2024.1433	2789.2	1905.45
933.7171	2025.7188	2773.4	1893.7
933.8544	2027.2935	2766.4	1887.85
933.9917	2028.8674	2767.85	1890.35
934.129	2030.4406	2757.25	1879.9
934.2662	2032.0131	2758.55	1879.2
934.4034	2033.5849	2749.7	1862.45
934.5406	2035.1559	2757.6	1879.35
934.6778	2036.7261	2739.65	1859.85
934.8149	2038.2957	2733.25	1853.25
934.952	2039.8645	2733.25	1853.8
935.0891	2041.4325	2741.55	1859.45
935.2262	2042.9998	2726.6	1846.75
935.3632	2044.5664	2736.75	1855.75
935.5002	2046.1323	2718.3	1838.3
935.6372	2047.6974	2719.1	1839.35
935.7742	2049.2617	2707.55	1831.75
935.9111	2050.8254	2714.8	1830.9
936.048	2052.3883	2717.1	1837.45
936.1849	2053.9504	2709.45	1828.25
936.3218	2055.5118	2716.05	1836.1
936.4586	2057.0725	2699.65	1817
936.5955	2058.6325	2696.75	1816.8
936.7323	2060.1917	2696.15	1816.75
936.869	2061.7502	2697.2	1816.45
937.0058	2063.3079	2685.95	1807.2
937.1425	2064.8649	2682.7	1801.15
937.2792	2066.4212	2672.2	1793.05
937.4159	2067.9767	2672.5	1793.95
937.5525	2069.5315	2675.9	1796.25
937.6891	2071.0856	2662.5	1782.8
937.8257	2072.6389	2664.8	1783.35
937.9623	2074.1915	2665.8	1786.3
938.0989	2075.7433	2652.35	1770.25
938.2354	2077.2945	2643.35	1766.15
938.3719	2078.8448	2636.9	1756.55
938.5084	2080.3945	2629.75	1750.2
938.6448	2081.9434	2637.35	1756.95
938.7812	2083.4916	2633	1751.95
938.9176	2085.039	2630.3	1748.65
939.054	2086.5857	2622.55	1740.4
939.1903	2088.1317	2629.35	1747.6
939.3267	2089.677	2616.05	1736.2
939.463	2091.2215	2612.8	1731.55
939.5992	2092.7652	2603.75	1721.9
939.7355	2094.3083	2615.45	1732.55
939.8717	2095.8506	2600.15	1720.75
940.0079	2097.3921	2618.8	1739
940.1441	2098.933	2594.9	1714.45
940.2802	2100.4731	2604.25	1724.85
940.4163	2102.0124	2613.55	1714.7
940.5524	2103.5511	2601.3	1722.2
940.6885	2105.089	2599.9	1718.75
940.8245	2106.6261	2604.9	1724.95
940.9606	2108.1626	2589.9	1710.95
941.0965	2109.6983	2608.7	1699.3
941.2325	2111.2332	2579.6	1699.75
941.3684	2112.7675	2580.85	1699.7
941.5044	2114.301	2578.9	1697.2
941.6403	2115.8337	2574.2	1693.9
941.7761	2117.3657	2575.55	1693.7
941.912	2118.897	2574.25	1693.7
942.0478	2120.4276	2571.25	1683.1
942.1835	2121.9575	2560.9	1680.45
942.3193	2123.4866	2584.95	1689.55
942.455	2125.0149	2555.85	1672.15
942.5907	2126.5426	2545	1663.1
942.7264	2128.0695	2554.8	1671.05
942.8621	2129.5956	2531.15	1652.35
942.9977	2131.1211	2545.1	1663.25
943.1333	2132.6458	2531.3	1651.35
943.2689	2134.1698	2541.8	1659.85
943.4044	2135.693	2535.9	1653.4
943.54	2137.2155	2541.4	1657.8
943.6755	2138.7373	2531.45	1651.1
943.8109	2140.2584	2524.25	1645.7
943.9464	2141.7787	2528.05	1642.1
944.0818	2143.2983	2510.85	1632.3
944.2172	2144.8171	2500.5	1622.15
944.3526	2146.3353	2504.1	1623.2
944.4879	2147.8527	2493.3	1613.1
944.6232	2149.3693	2493.55	1612.2
944.7585	2150.8853	2495.25	1614.75
944.8938	2152.4005	2486.4	1605.6
945.029	2153.9149	2497.3	1616.95
945.1642	2155.4287	2479.05	1596.45
945.2994	2156.9417	2477.1	1596.7
945.4346	2158.454	2473.25	1590.3
945.5697	2159.9655	2477.4	1597.1
945.7048	2161.4764	2466.85	1589.5
945.8399	2162.9865	2461.6	1581.05
945.9749	2164.4958	2465.1	1584.3
946.1099	2166.0045	2457.4	1576.4
946.2449	2167.5124	2449.5	1568.5
946.3799	2169.0195	2452.55	1572.5
946.5148	2170.526	2437.15	1556.3
946.6498	2172.0317	2443.45	1563.65
946.7846	2173.5367	2449.65	1570.6
946.9195	2175.0409	2434.6	1555.85
947.0543	2176.5445	2433.9	1553.95
947.1891	2178.0473	2433.55	1554.7
947.3239	2179.5494	2430.5	1543.8
947.4587	2181.0507	2422.7	1542.55
947.5934	2182.5513	2415.3	1533.75
947.7281	2184.0512	2411.15	1529.1
947.8628	2185.5504	2407.7	1529.35
947.9974	2187.0488	2390.65	1511.2
948.132	2188.5465	2396.8	1517.1
948.2666	2190.0435	2381.85	1500.7
948.4012	2191.5397	2382.2	1500.6
948.5357	2193.0353	2396.55	1520.1
948.6702	2194.5301	2380.3	1498.25
948.8047	2196.0241	2370.7	1493.05
948.9392	2197.5175	2367.3	1485.85
949.0736	2199.0101	2357.6	1472.2
949.208	2200.502	2355.95	1477.05
949.3424	2201.9931	2342.4	1460.7
949.4767	2203.4835	2341.2	1460.1
949.611	2204.9733	2345.85	1459.1
949.7453	2206.4622	2344.7	1464.55
949.8796	2207.9505	2338.8	1456.75
950.0138	2209.438	2322.35	1443.45
950.148	2210.9248	2341.55	1459.65
950.2822	2212.4109	2323.8	1445.25
950.4164	2213.8962	2314.4	1429.2
950.5505	2215.3809	2312.95	1431.3
950.6846	2216.8648	2312.45	1431.75
950.8186	2218.3479	2310.55	1422.8
950.9527	2219.8304	2313.5	1429.8
951.0867	2221.3121	2296.6	1413.3
951.2207	2222.7931	2288.8	1409.25
951.3546	2224.2733	2295.05	1414.05
951.4886	2225.7529	2290.2	1408.95
951.6225	2227.2317	2276.7	1394.9
951.7563	2228.7098	2275.05	1397
951.8902	2230.1872	2272.7	1393.7
952.024	2231.6638	2272.3	1392.2
952.1578	2233.1397	2266.65	1380.85
952.2916	2234.6149	2270.1	1391.85
952.4253	2236.0894	2256.55	1375.3
952.559	2237.5632	2266.95	1377
952.6927	2239.0362	2250.95	1372.1
952.8263	2240.5085	2243.4	1363.95
952.9599	2241.9801	2231.75	1353.15
953.0935	2243.4509	2233.9	1353.6
953.2271	2244.921	2228.7	1347.65
953.3606	2246.3904	2230.65	1348.85
953.4941	2247.8591	2215.8	1335.4
953.6276	2249.3271	2213.4	1334.45
953.7611	2250.7943	2213	1332.55
953.8945	2252.2608	2209.65	1330.7
954.0279	2253.7266	2213.5	1334
954.1612	2255.1917	2200.6	1319.3
954.2946	2256.656	2206.9	1326.6
954.4279	2258.1197	2193.6	1314.05
954.5612	2259.5826	2195.6	1314.3
954.6944	2261.0447	2177.05	1295.95
954.8276	2262.5062	2184.1	1300.85
954.9608	2263.9669	2175.65	1292.95
955.094	2265.4269	2183.3	1303.05
955.2271	2266.8862	2180.15	1299.2
955.3602	2268.3448	2173.15	1292.9
955.4933	2269.8026	2162.75	1282.7
955.6264	2271.2598	2171.4	1291.1
955.7594	2272.7162	2156.05	1275.15
955.8924	2274.1719	2167.95	1286.25
956.0253	2275.6268	2159.4	1280.75
956.1583	2277.0811	2142	1260
956.2912	2278.5346	2148.45	1268.15
956.4241	2279.9874	2139.95	1261.05
956.5569	2281.4395	2145.75	1267.35
956.6897	2282.8908	2128.2	1243.55
956.8225	2284.3414	2129.45	1248.95
956.9553	2285.7914	2132.2	1253.2
957.088	2287.2406	2126.5	1243.55
957.2207	2288.689	2115.95	1235.5
957.3534	2290.1368	2122.75	1240.95
957.486	2291.5838	2117.65	1233.35
957.6186	2293.0302	2113.6	1230.7
957.7512	2294.4758	2107.8	1226.95
957.8838	2295.9206	2091.2	1208.25
958.0163	2297.3648	2097.55	1217.85
958.1488	2298.8082	2095.55	1214.5
958.2813	2300.251	2091.25	1211.75
958.4137	2301.693	2089.45	1205.9
958.5461	2303.1343	2088.65	1208.4
958.6785	2304.5748	2079.9	1201.4
958.8108	2306.0147	2067.8	1187.25
958.9432	2307.4538	2082.3	1200.1
959.0754	2308.8922	2068.05	1190.65
959.2077	2310.3299	2067.35	1189.1
959.3399	2311.7669	2057.55	1177.85
959.4721	2313.2031	2055.1	1174.6
959.6043	2314.6387	2050.75	1169.05
959.7365	2316.0735	2050.55	1170.65
959.8686	2317.5076	2043.95	1163.65
960.0006	2318.941	2045.65	1166.05
960.1327	2320.3737	2040.05	1158.6
960.2647	2321.8056	2033.6	1148.2
960.3967	2323.2369	2021.65	1142.1
960.5287	2324.6674	2039.55	1156.75
960.6606	2326.0972	2021.55	1139.6
960.7925	2327.5263	2018.75	1139.85
960.9244	2328.9547	2025.2	1145.7
961.0562	2330.3823	2028.05	1147
961.1881	2331.8092	2022.7	1139.95
961.3198	2333.2355	2004.05	1121.5
961.4516	2334.661	2008.7	1128.35
961.5833	2336.0858	2001.6	1119.5
961.715	2337.5098	1992.95	1112.35
961.8467	2338.9332	1995	1114.55
961.9783	2340.3558	1991.55	1108.4
962.1099	2341.7778	1991.9	1112.35
962.2415	2343.199	1993.1	1110.2
962.373	2344.6195	1976.9	1097
962.5045	2346.0393	1984.95	1105.9
962.636	2347.4583	1972.8	1092.75
962.7675	2348.8767	1977.15	1097.05
962.8989	2350.2943	1980.5	1099.45
963.0303	2351.7113	1962.6	1079.95
963.1617	2353.1275	1964.85	1083.35
963.293	2354.543	1973	1084.35
963.4243	2355.9578	1962.15	1081.65
963.5556	2357.3718	1944.65	1065
963.6868	2358.7852	1941.9	1057.75
963.818	2360.1978	1942.15	1060.5
963.9492	2361.6098	1937.5	1056.1
964.0803	2363.021	1943.8	1059.35
964.2114	2364.4315	1931.3	1050
964.3425	2365.8413	1915.65	1032.05
964.4736	2367.2504	1915.65	1037.4
964.6046	2368.6587	1913.3	1032.25
964.7356	2370.0664	1914.4	1031.75
964.8666	2371.4733	1904.25	1022.45
964.9975	2372.8795	1903.15	1022.75
965.1284	2374.285	1894.25	1013.45
965.2593	2375.6899	1891.65	1009.6
965.3901	2377.0939	1880.9	998.95
965.5209	2378.4973	1879.8	999.45
965.6517	2379.9	1881.05	999.25
965.7825	2381.3019	1878.15	997.4
965.9132	2382.7032	1867.9	989.65
966.0439	2384.1037	1871	992.15
966.1745	2385.5035	1870	991.7
966.3051	2386.9027	1853.15	971.6
966.4357	2388.3011	1860	975.4
966.5663	2389.6987	1854.05	973.15
966.6968	2391.0957	1850.95	971.1
966.8273	2392.492	1841.65	961.3
966.9578	2393.8876	1843.4	961.5
967.0882	2395.2824	1836.1	954.05
967.2186	2396.6765	1822.55	941.45
967.349	2398.07	1830.75	947.35
967.4793	2399.4627	1824.25	941.25
967.6097	2400.8547	1819.7	935.9
967.7399	2402.246	1820.85	931.9
967.8702	2403.6366	1812.85	930.85
968.0004	2405.0265	1803.75	922.5
968.1306	2406.4156	1805.45	919.8
968.2607	2407.8041	1804.4	922.25
968.3909	2409.1918	1794.75	910.15
968.521	2410.5789	1791.75	909.7
968.651	2411.9652	1789.35	903.4
968.781	2413.3508	1792.6	908.65
968.911	2414.7358	1769.75	886.6
969.041	2416.12	1774.8	892.75
969.1709	2417.5035	1781.85	901.6
969.3008	2418.8863	1771.8	889
969.4307	2420.2684	1771.65	891.5
969.5606	2421.6497	1764.7	881.7
969.6904	2423.0304	1761.55	880.55
969.8201	2424.4104	1767.35	886.65
969.9499	2425.7896	1765.9	882.4
970.0796	2427.1682	1750.6	869.35
970.2093	2428.546	1756	873.2
970.3389	2429.9232	1737.15	855.1
970.4685	2431.2996	1748.75	865.95
970.5981	2432.6753	1746.6	864.95
970.7277	2434.0503	1727.15	843.7
970.8572	2435.4246	1739.15	858
970.9867	2436.7982	1729.35	844.55
971.1161	2438.1711	1731.55	851.5
971.2456	2439.5433	1733.8	850.55
971.375	2440.9148	1731.65	844.7
971.5043	2442.2856	1718.55	840.1
971.6336	2443.6557	1712.3	828.1
971.7629	2445.025	1719.55	838
971.8922	2446.3937	1718	837.4
972.0214	2447.7617	1706	821.45
972.1506	2449.1289	1700.35	819.4
972.2798	2450.4955	1715.95	830.5
972.4089	2451.8613	1701.9	823.05
972.538	2453.2265	1697.15	816.4
972.6671	2454.5909	1693.95	811.65
972.7961	2455.9546	1692.4	812.65
972.9251	2457.3177	1692.75	812
973.0541	2458.68	1681	796.5
973.1831	2460.0416	1695.95	814.9
973.312	2461.4025	1693.6	808.25
973.4408	2462.7627	1685	793.2
973.5697	2464.1222	1678.55	798.95
973.6985	2465.4811	1685.2	803.85
973.8273	2466.8392	1671.65	791
973.956	2468.1966	1677.25	791.75
974.0847	2469.5533	1677.25	796.45
974.2134	2470.9093	1668.25	784.6
974.3421	2472.2645	1664.15	779.75
974.4707	2473.6191	1658.7	776.2
974.5993	2474.973	1655.25	773.75
974.7278	2476.3262	1662.65	776.55
974.8563	2477.6787	1665.7	785.35
974.9848	2479.0305	1651	768.55
975.1132	2480.3816	1644.15	761.55
975.2417	2481.7319	1635.6	754.4
975.37	2483.0816	1647.75	763.05
975.4984	2484.4306	1642.55	761.45
975.6267	2485.7789	1626.8	744.95
975.755	2487.1264	1635.4	755.7
975.8833	2488.4733	1627.85	745.3
976.0115	2489.8195	1629.4	740.95
976.1397	2491.165	1621.85	737.2
976.2678	2492.5097	1611.9	727.6
976.3959	2493.8538	1618.05	737.3
976.524	2495.1972	1613.9	731.25
976.6521	2496.5398	1611.75	729.7
976.7801	2497.8818	1611.7	729.3
976.9081	2499.2231	1606.45	725.1
977.036	2500.5637	1605.75	724.25
977.164	2501.9035	1601.1	718.55
977.2918	2503.2427	1610.15	725.95
977.4197	2504.5812	1594.25	711.2
977.5475	2505.919	1597.3	714.1
977.6753	2507.256	1588.1	707.45
977.8031	2508.5924	1592.5	709.7
977.9308	2509.9281	1600.3	713.85
978.0585	2511.2631	1584.25	703.9
978.1861	2512.5974	1585.75	703.65
978.3137	2513.9309	1583.3	702.75
978.4413	2515.2638	1601.75	690.4
978.5689	2516.596	1580.75	698.85
978.6964	2517.9275	1583.3	700.65
978.8239	2519.2583	1572	689.9
978.9513	2520.5884	1575.85	692.55
979.0788	2521.9178	1566.05	685.65
979.2062	2523.2465	1560.2	679.35
979.3335	2524.5745	1555.3	674
979.4608	2525.9018	1558.35	676.4
979.5881	2527.2284	1551.2	671.05
979.7154	2528.5543	1550.4	669.15
979.8426	2529.8796	1545.8	661.3
979.9698	2531.2041	1550.05	669
980.0969	2532.5279	1542.3	662.05
980.224	2533.851	1546.3	664
980.3511	2535.1735	1544.05	661
980.4781	2536.4952	1536.7	654.25
980.6052	2537.8163	1538.3	657.9
980.7321	2539.1366	1533.8	651.5
980.8591	2540.4562	1528.7	644.9
980.986	2541.7752	1529.9	647.2
981.1129	2543.0935	1530.2	648.75
981.2397	2544.411	1527.75	643.8
981.3665	2545.7279	1523.35	640.75
981.4933	2547.0441	1523.85	641.85
981.62	2548.3596	1518.2	634.65
981.7467	2549.6744	1523.45	641.3
981.8734	2550.9885	1524.7	636.2
982.0001	2552.3019	1516.05	634.65
982.1267	2553.6146	1521.15	639.25
982.2532	2554.9266	1517.45	635.3
982.3798	2556.2379	1507.9	623.9
982.5063	2557.5485	1506.25	626.3
982.6327	2558.8585	1519.4	627.1
982.7592	2560.1677	1510.4	624.6
982.8856	2561.4762	1511.8	632.95
983.0119	2562.7841	1510.9	623.9
983.1383	2564.0913	1498.3	618.9
983.2646	2565.3977	1497.85	616.15
983.3908	2566.7035	1500.25	618.3
983.517	2568.0086	1501.55	617.5
983.6432	2569.313	1485.65	600.95
983.7694	2570.6167	1494.25	608.4
983.8955	2571.9197	1489.5	607.55
984.0216	2573.222	1492.25	607.55
984.1476	2574.5236	1492.15	608.65
984.2737	2575.8246	1492.35	607.45
984.3996	2577.1248	1491.85	607.75
984.5256	2578.4244	1482.75	602.25
984.6515	2579.7232	1476.3	593.75
984.7774	2581.0214	1502.5	595.65
984.9032	2582.3189	1474.75	594.1
985.029	2583.6157	1481.3	596.35
985.1548	2584.9118	1475.9	594.35
985.2806	2586.2072	1473.2	590.9
985.4063	2587.5019	1470.9	591.45
985.5319	2588.7959	1469.85	586.8
985.6576	2590.0893	1466.55	582.5
985.7832	2591.3819	1463.35	582.35
985.9087	2592.6739	1463.25	580.55
986.0343	2593.9652	1462	577.6
986.1597	2595.2557	1462.9	581.6
986.2852	2596.5456	1458.15	576.35
986.4106	2597.8348	1454	573.65
986.536	2599.1234	1446.2	565.1
986.6614	2600.4112	1443.7	561.65
986.7867	2601.6983	1450.2	565.85
986.912	2602.9848	1441.25	559.9
987.0372	2604.2705	1448.4	559.5
987.1624	2605.5556	1442.75	560.55
987.2876	2606.84	1436.15	554.3
987.4128	2608.1237	1434.15	551.1
987.5379	2609.4067	1428.6	547.1
987.6629	2610.689	1430.2	538.05
987.788	2611.9707	1429.9	545.7
987.913	2613.2516	1425.65	538.45
988.0379	2614.5319	1421.65	540.65
988.1629	2615.8115	1415.1	532.35
988.2878	2617.0903	1417.85	534.05
988.4126	2618.3685	1411.75	528.35
988.5375	2619.6461	1397	514.65
988.6622	2620.9229	1407.45	526.2
988.787	2622.199	1401.8	519.9
988.9117	2623.4745	1404.7	522.65
989.0364	2624.7493	1397.75	517.25
989.161	2626.0234	1403.25	524.3
989.2857	2627.2968	1394.65	511.85
989.4102	2628.5695	1394.55	511.35
989.5348	2629.8415	1384.45	503.05
989.6593	2631.1128	1390.75	509.4
989.7837	2632.3835	1380.7	497.8
989.9082	2633.6535	1386.1	505.65
990.0326	2634.9228	1377	497.1
990.1569	2636.1914	1384.6	503.2
990.2812	2637.4593	1382.7	496.55
990.4055	2638.7265	1381.75	501.7
990.5298	2639.9931	1370.3	488.75
990.654	2641.259	1379.95	497.4
990.7782	2642.5242	1373.5	492.35
990.9023	2643.7887	1369.25	486.05
991.0264	2645.0525	1369.45	488.9
991.1505	2646.3156	1364.95	482
991.2745	2647.5781	1366.75	486.9
991.3985	2648.8398	1360.3	481
991.5225	2650.1009	1365.1	478.65
991.6464	2651.3613	1360.6	480.7
991.7703	2652.6211	1357.65	476.85
991.8942	2653.8801	1347.85	466.3
992.018	2655.1385	1359.35	475.25
992.1418	2656.3961	1348.8	467.7
992.2655	2657.6531	1354.05	474.15
992.3892	2658.9094	1344.25	462.55
992.5129	2660.1651	1342	461.9
992.6366	2661.42	1345.9	466.4
992.7602	2662.6743	1347.5	462.45
992.8837	2663.9279	1347	467.1
993.0073	2665.1808	1342.7	460.95
993.1307	2666.433	1341.15	457.35
993.2542	2667.6846	1337.3	457.3
993.3776	2668.9354	1343.45	459.2
993.501	2670.1856	1339.5	458.8
993.6244	2671.4351	1328.4	447.6
993.7477	2672.6839	1331.9	449.5
993.8709	2673.9321	1326.8	448.2
993.9942	2675.1795	1330.2	448.25
994.1174	2676.4263	1329.65	449.35
994.2405	2677.6724	1323.2	441.45
994.3637	2678.9179	1328.85	447.95
994.4868	2680.1626	1318	437.9
994.6098	2681.4067	1325.05	446.2
994.7328	2682.6501	1319.15	437.55
994.8558	2683.8928	1315.45	432.5
994.9788	2685.1348	1316.15	435.15
995.1017	2686.3761	1306.25	425.1
995.2245	2687.6168	1308.4	428.15
995.3474	2688.8568	1308.1	426.15
995.4702	2690.0961	1304.55	426.7
995.5929	2691.3348	1307.3	424.75
995.7156	2692.5727	1306.95	426
995.8383	2693.81	1303.05	421.05
995.961	2695.0466	1297.75	418.1
996.0836	2696.2826	1298.75	416.75
996.2062	2697.5178	1301.4	415.5
996.3287	2698.7524	1291.25	409.05
996.4512	2699.9863	1303.65	420.9
996.5737	2701.2195	1293.1	413.85
996.6961	2702.452	1291.75	408.25
996.8185	2703.6839	1294.25	413.2
996.9408	2704.9151	1287.25	408.2
997.0631	2706.1456	1283.2	403.1
997.1854	2707.3755	1287.35	405.25
997.3077	2708.6046	1287.5	404.15
997.4299	2709.8331	1284.8	403.25
997.552	2711.0609	1282.9	401.1
997.6742	2712.2881	1284.7	405.75
997.7963	2713.5145	1279.65	396.45
997.9183	2714.7403	1281.85	402.15
998.0403	2715.9654	1282.35	399.6
998.1623	2717.1899	1286.55	390.25
998.2842	2718.4136	1272.15	393.5
998.4062	2719.6367	1274.55	392.8
998.528	2720.8591	1287.3	401.2
998.6498	2722.0809	1270.85	389.7
998.7716	2723.3019	1268.45	384.1
998.8934	2724.5223	1272.2	389.75
999.0151	2725.7421	1263.6	380.8
999.1368	2726.9611	1263.7	382.45
999.2584	2728.1795	1271.7	385.65
999.38	2729.3972	1261.9	383.2
999.5016	2730.6142	1268.05	373.95
999.6231	2731.8306	1260.1	376.3
999.7446	2733.0462	1253.15	370.9
999.8661	2734.2612	1252.8	368.1
999.9875	2735.4756	1245.05	360.8
1000.1089	2736.6892	1243.25	362.4
1000.2302	2737.9022	1242.4	362.8
1000.3515	2739.1145	1247.05	367.95
1000.4728	2740.3262	1250.6	361.2
1000.594	2741.5372	1232.9	353.5
1000.7152	2742.7475	1235.3	354
1000.8363	2743.9571	1235.65	349.9
1000.9575	2745.1661	1236.75	350.45
1001.0785	2746.3744	1231.7	352.35
1001.1996	2747.582	1228.95	348.4
1001.3206	2748.7889	1230.95	349.8
1001.4415	2749.9952	1225.45	345.15
1001.5625	2751.2008	1228.35	347
1001.6833	2752.4057	1228.7	346.35
1001.8042	2753.61	1224.45	343.4
1001.925	2754.8136	1221.85	339.5
1002.0458	2756.0165	1215.3	333
1002.1665	2757.2188	1216.1	338.7
1002.2872	2758.4204	1214.55	334.05
1002.4078	2759.6213	1214.1	330.4
1002.5285	2760.8215	1219.05	334.8
1002.649	2762.0211	1219.15	337.25
1002.7696	2763.22	1213.25	329.5
1002.8901	2764.4182	1210.25	327.75
1003.0106	2765.6158	1207.2	326
1003.131	2766.8127	1212.45	333.65
1003.2514	2768.009	1207.6	325.7
1003.3717	2769.2045	1206.4	325.3
1003.492	2770.3994	1203.85	321.5
1003.6123	2771.5936	1206.65	326.15
1003.7325	2772.7872	1198	319.55
1003.8527	2773.9801	1192.75	309.75
1003.9729	2775.1723	1212.8	314.75
1004.093	2776.3639	1196.5	319.75
1004.2131	2777.5548	1194	310.2
1004.3331	2778.745	1201.1	318.05
1004.4531	2779.9346	1190.45	310.7
1004.5731	2781.1235	1191.25	309
1004.693	2782.3117	1190	310.05
1004.8129	2783.4992	1189.05	308.05
1004.9328	2784.6861	1192.1	310.75
1005.0526	2785.8723	1185.1	303.2
1005.1723	2787.0579	1185.85	303.1
1005.2921	2788.2428	1180.1	299.35
1005.4118	2789.427	1178.4	297.8
1005.5314	2790.6106	1181.35	302.4
1005.651	2791.7935	1180.45	299
1005.7706	2792.9757	1177.05	297
1005.8902	2794.1573	1178.25	296.1
1006.0097	2795.3382	1175.35	295.4
1006.1291	2796.5184	1171.3	292.35
1006.2485	2797.698	1168.2	286.65
1006.3679	2798.8769	1172.35	291.5
1006.4873	2800.0551	1169.25	289.9
1006.6066	2801.2327	1175.65	291.95
1006.7258	2802.4096	1164.85	284.8
1006.8451	2803.5859	1166.7	285.1
1006.9642	2804.7615	1167.45	286.2
1007.0834	2805.9364	1166.4	286.55
1007.2025	2807.1106	1161.9	283.15
1007.3216	2808.2842	1162.4	280.95
1007.4406	2809.4572	1165.2	284.35
1007.5596	2810.6294	1166.1	283.5
1007.6785	2811.801	1158.15	279
1007.7975	2812.972	1162	283
1007.9163	2814.1423	1159.85	280.9
1008.0352	2815.3119	1163.7	283.95
1008.154	2816.4808	1161.95	280
1008.2727	2817.6491	1163.35	282.4
1008.3914	2818.8167	1162.8	284.9
1008.5101	2819.9837	1168.4	284.25
1008.6288	2821.15	1166.25	286.8
1008.7474	2822.3157	1171.65	291.45
1008.8659	2823.4807	1170.85	290.45
1008.9844	2824.645	1175.4	294.25
1009.1029	2825.8086	1177.9	297.15
1009.2214	2826.9716	1185.95	309.3
1009.3398	2828.134	1180.1	299.2
1009.4581	2829.2957	1188.95	309.25
1009.5764	2830.4567	1191	312.15
1009.6947	2831.617	1192.6	310.9
1009.813	2832.7767	1196.1	316.25
1009.9312	2833.9358	1192.4	311.95
1010.0493	2835.0941	1195.75	313.25
1010.1675	2836.2519	1187	308
1010.2855	2837.4089	1180	298.8
1010.4036	2838.5653	1175.95	296.3
1010.5216	2839.7211	1177.75	298.55
1010.6396	2840.8761	1186.05	302.1
1010.7575	2842.0306	1177.85	299.35
1010.8754	2843.1843	1177.35	298.25
1010.9932	2844.3374	1177.1	297.5
1011.111	2845.4899	1174.85	291.6
1011.2288	2846.6417	1176.6	298.3
1011.3465	2847.7928	1178.1	299.75
1011.4642	2848.9433	1175.5	295.45
1011.5818	2850.0931	1177.9	300.65
1011.6995	2851.2422	1177.9	293.7
1011.817	2852.3907	1177.5	298
1011.9345	2853.5385	1178.85	296.4
1012.052	2854.6857	1185.3	292.85
1012.1695	2855.8323	1178	300.05
1012.2869	2856.9781	1178.25	297.25
1012.4042	2858.1233	1176.6	295.65
1012.5216	2859.2679	1178.05	299.95
1012.6389	2860.4118	1178.85	299.55
1012.7561	2861.555	1180.3	295.6
1012.8733	2862.6976	1183.4	301.4
1012.9905	2863.8395	1179.95	299.7
1013.1076	2864.9808	1177.65	295.9
1013.2247	2866.1214	1180.55	301.2
1013.3417	2867.2614	1181.35	300.6
1013.4587	2868.4007	1177.25	295.55
1013.5757	2869.5393	1183.9	303.3
1013.6926	2870.6773	1184.55	300.55
1013.8095	2871.8146	1181.1	297
1013.9263	2872.9513	1177.75	297.6
1014.0431	2874.0874	1182.1	302.2
1014.1599	2875.2227	1187.35	304.85
1014.2766	2876.3574	1180.85	299.65
1014.3933	2877.4915	1179.25	301.6
1014.51	2878.6249	1177.2	300.25
1014.6266	2879.7577	1183.4	303.15
1014.7431	2880.8898	1190.7	301.1
1014.8596	2882.0212	1184	304.95
1014.9761	2883.152	1181.15	299.35
1015.0925	2884.2821	1183.55	304.5
1015.2089	2885.4116	1177.1	297.2
1015.3253	2886.5405	1185.25	305.1
1015.4416	2887.6686	1181.7	300
1015.5579	2888.7962	1180.35	301.3
1015.6741	2889.923	1176.85	297.9
1015.7903	2891.0493	1182.1	303
1015.9065	2892.1748	1176.6	295.55
1016.0226	2893.2997	1175.15	297.2
1016.1387	2894.424	1173.85	294.6
1016.2547	2895.5476	1173.8	293.7
1016.3707	2896.6706	1174.15	294.55
1016.4866	2897.7929	1172.05	290.25
1016.6025	2898.9145	1173.15	294.65
1016.7184	2900.0355	1171.75	291.65
1016.8342	2901.1559	1171.05	289.75
1016.95	2902.2756	1171.1	292.85
1017.0658	2903.3946	1167.15	286.5
1017.1815	2904.513	1170.4	290.15
1017.2971	2905.6308	1159.5	278.45
1017.4127	2906.7479	1159.8	280.2
1017.5283	2907.8643	1171.3	291.05
1017.6439	2908.9801	1166.05	285.95
1017.7594	2910.0953	1165.35	286.3
1017.8748	2911.2098	1168.25	284.75
1017.9902	2912.3236	1163.55	275.35
1018.1056	2913.4368	1161.25	279.45
1018.2209	2914.5494	1160.75	278.85
1018.3362	2915.6613	1157.45	271.55
1018.4515	2916.7725	1160	277.45
1018.5667	2917.8831	1151.6	271.05
1018.6819	2918.9931	1152.25	270.6
1018.797	2920.1024	1150.15	269.6
1018.9121	2921.211	1139.25	260
1019.0271	2922.319	1144.7	265.85
1019.1421	2923.4264	1144.4	265.25
1019.2571	2924.5331	1144	264.95
1019.372	2925.6391	1139.7	259.1
1019.4869	2926.7445	1139.05	261.6
1019.6017	2927.8493	1139.4	259.4
1019.7165	2928.9534	1138.65	255.8
1019.8313	2930.0569	1145.55	263.4
1019.946	2931.1597	1145.4	263.95
1020.0606	2932.2619	1137.85	260.45
1020.1753	2933.3634	1138.35	261
1020.2899	2934.4643	1146.05	262.3
1020.4044	2935.5645	1151.55	267.5
1020.5189	2936.6641	1141.55	257.75
1020.6334	2937.763	1140.25	259.55
1020.7478	2938.8613	1138.3	257.75
1020.8622	2939.959	1143.1	258.3
1020.9765	2941.056	1138.65	259.25
1021.0908	2942.1523	1132.1	249.05
1021.2051	2943.248	1121.9	240.3
1021.3193	2944.3431	1120.8	243.2
1021.4334	2945.4375	1110.95	230.1
1021.5476	2946.5313	1110.75	234.2
1021.6617	2947.6244	1100.9	222.1
1021.7757	2948.7169	1099.55	220.1
1021.8897	2949.8087	1096.45	217.9
1022.0037	2950.8999	1095.4	216.05
1022.1176	2951.9904	1089.3	210.85
1022.2315	2953.0803	1085.55	203.85
1022.3453	2954.1696	1082.8	203.5
1022.4591	2955.2582	1072.7	194.25
1022.5728	2956.3462	1071.95	192.7
1022.6865	2957.4335	1077.85	199.3
1022.8002	2958.5202	1072.65	191.8
1022.9138	2959.6062	1066.1	186.6
1023.0274	2960.6916	1071.45	192.45
1023.141	2961.7764	1069.85	187.9
1023.2545	2962.8605	1071.6	192.75
1023.3679	2963.9439	1067.8	191.35
1023.4813	2965.0267	1071.35	189.7
1023.5947	2966.1089	1090.8	189.05
1023.708	2967.1905	1065.7	186.3
1023.8213	2968.2714	1063.7	184.2
1023.9346	2969.3516	1059.95	179.5
1024.0478	2970.4312	1070.6	182.1
1024.1609	2971.5102	1058.5	178.95
1024.274	2972.5885	1062.25	183.6
1024.3871	2973.6662	1066.6	182.75
1024.5002	2974.7432	1057.85	180.3
1024.6132	2975.8196	1060.5	181.75
1024.7261	2976.8954	1062.45	185.85
1024.839	2977.9705	1061.2	180.2
1024.9519	2979.045	1056.6	177.65
1025.0647	2980.1188	1058.75	179.45
1025.1775	2981.192	1055.95	176.4
1025.2902	2982.2645	1057.2	177.1
1025.4029	2983.3364	1058.65	179.15
1025.5156	2984.4077	1050.45	172.1
1025.6282	2985.4783	1053.5	168
1025.7407	2986.5483	1050	170.65
1025.8532	2987.6177	1046.5	166.15
1025.9657	2988.6864	1049.2	169.05
1026.0782	2989.7545	1042.15	162
1026.1906	2990.8219	1039.85	161.7
1026.3029	2991.8887	1042.7	160.55
1026.4152	2992.9548	1037.1	156.45
1026.5275	2994.0204	1035.3	158.05
1026.6397	2995.0852	1033.35	156
1026.7519	2996.1495	1031.85	151.1
1026.864	2997.2131	1026.65	146.75
1026.9761	2998.276	1031.45	150.9
1027.0882	2999.3383	1027.5	145.55
1027.2002	3000.4	1023.85	144.1
1027.3122	3001.4611	1022.6	142.75
1027.4241	3002.5215	1018.7	139.25
1027.536	3003.5812	1013.75	135.2
1027.6478	3004.6404	1016.65	137.05
1027.7596	3005.6989	1019.6	136.95
1027.8714	3006.7567	1015.1	136.85
1027.9831	3007.8139	1039.65	138.5
1028.0947	3008.8705	1016.05	138.85
1028.2064	3009.9264	1017	131.85
1028.3179	3010.9818	1014	134.85
1028.4295	3012.0364	1013.1	131.75
1028.541	3013.0905	1013.5	131.95
1028.6524	3014.1439	1010.2	129.55
1028.7638	3015.1966	1011.3	134.5
1028.8752	3016.2487	1007.75	130.2
1028.9865	3017.3002	1018.35	134.25
1029.0978	3018.3511	1007.5	130.55
1029.209	3019.4013	1006.7	126.75
1029.3202	3020.4509	1006.15	127.15
1029.4314	3021.4998	1008.1	128.2
1029.5425	3022.5481	1005.25	127
1029.6535	3023.5958	1003.6	124.05
1029.7645	3024.6428	1005.45	124.8
1029.8755	3025.6892	1004	128.1
1029.9864	3026.735	1005.45	125.8
1030.0973	3027.7802	1003	123.1
1030.2082	3028.8247	999.5	119.7
1030.319	3029.8685	1003.5	125.05
1030.4297	3030.9118	1002.95	122.5
1030.5404	3031.9544	1000.8	123.4
1030.6511	3032.9963	998.35	120.2
1030.7617	3034.0376	998.7	121.55
1030.8723	3035.0783	1002.6	122.75
1030.9829	3036.1184	997.8	119.55
1031.0934	3037.1578	997.35	118.65
1031.2038	3038.1966	997.2	115.2
1031.3142	3039.2348	994.25	117
1031.4246	3040.2723	1006.7	118.95
1031.5349	3041.3092	999.35	121.65
1031.6452	3042.3455	995.4	115.1
1031.7554	3043.3811	997.4	120.9
1031.8656	3044.4161	993.75	114.85
1031.9758	3045.4505	998.6	119.8
1032.0859	3046.4842	995.15	114.55
1032.1959	3047.5173	993.75	115.75
1032.3059	3048.5498	992.15	111.05
1032.4159	3049.5816	996.55	118.65
1032.5258	3050.6128	992.45	114.6
1032.6357	3051.6434	996.1	114.95
1032.7455	3052.6734	992.5	111.95
1032.8553	3053.7027	990.4	111.75
1032.9651	3054.7314	993.15	114.1
1033.0748	3055.7594	989.3	112.45
1033.1845	3056.7868	989.95	109.45
1033.2941	3057.8136	991.35	111
1033.4037	3058.8398	989.8	111.1
1033.5132	3059.8653	986.25	108.2
1033.6227	3060.8902	984.4	105.25
1033.7321	3061.9145	989.7	109.7
1033.8415	3062.9381	991.55	111.95
1033.9509	3063.9612	1005.4	111.15
1034.0602	3064.9835	991.35	112.75
1034.1694	3066.0053	991.35	108.7
1034.2787	3067.0264	987.3	109.9
1034.3878	3068.0469	986.9	104.8
1034.497	3069.0668	988	105.55
1034.6061	3070.086	985.05	107.25
1034.7151	3071.1046	984.2	104.7
1034.8241	3072.1226	981.85	102.15
1034.9331	3073.1399	984.55	105.95
1035.042	3074.1567	982.45	102.9
1035.1508	3075.1727	986.75	105.8
1035.2597	3076.1882	979.35	100.55
1035.3684	3077.203	982.9	102.95
1035.4772	3078.2173	983.35	105.8
1035.5859	3079.2308	983.4	99.35
1035.6945	3080.2438	981.05	101
1035.8031	3081.2561	981.55	101.3
1035.9117	3082.2678	977.25	98.25
1036.0202	3083.2789	976.4	98.05
1036.1286	3084.2893	978.4	100.75
1036.2371	3085.2991	978.05	100.5
1036.3454	3086.3083	978.75	94.95
1036.4538	3087.3169	976.6	97.2
1036.562	3088.3248	975.8	97.15
1036.6703	3089.3321	976.2	96.4
1036.7785	3090.3388	973.75	94.8
1036.8866	3091.3449	972.7	93.35
1036.9948	3092.3503	973.05	92.45
1037.1028	3093.3551	972.3	94.1
1037.2108	3094.3593	970.95	92.2
1037.3188	3095.3629	971.05	93.7
1037.4267	3096.3658	972.75	91.4
1037.5346	3097.3681	968.65	91.1
1037.6425	3098.3698	971.55	90.5
1037.7503	3099.3708	974.2	91.1
1037.858	3100.3713	965.75	89.05
1037.9657	3101.3711	967.65	88.4
1038.0734	3102.3702	1101.65	87.7
1038.181	3103.3688	968.3	87.95
1038.2886	3104.3667	966.15	89.15
1038.3961	3105.364	964.45	86.75
1038.5036	3106.3607	966.8	85.3
1038.611	3107.3568	965.3	83.85
1038.7184	3108.3522	962.05	85.5
1038.8257	3109.347	966.75	88.5
1038.933	3110.3412	965.9	85.1
1039.0403	3111.3348	962.45	80.45
1039.1475	3112.3277	959.35	80.3
1039.2547	3113.32	957.95	81.05
1039.3618	3114.3117	962.9	81.35
1039.4689	3115.3028	963.3	84.95
1039.5759	3116.2932	963.8	82.55
1039.6829	3117.2831	963.65	80.15
1039.7898	3118.2723	959.55	81.65
1039.8967	3119.2608	959.4	80.35
1040.0035	3120.2488	960	81.05
1040.1103	3121.2361	955.95	76.7
1040.2171	3122.2229	959.7	80.1
1040.3238	3123.209	957.15	77.95
1040.4305	3124.1944	954.4	77
1040.5371	3125.1793	955.55	74.6
1040.6437	3126.1635	954.75	75.75
1040.7502	3127.1471	952.35	74.7
1040.8567	3128.1301	949.75	71.1
1040.9631	3129.1125	955.8	77.1
1041.0695	3130.0942	952.7	73.7
1041.1759	3131.0753	962.3	73.3
1041.2822	3132.0558	954.8	75.1
1041.3884	3133.0357	952.15	71.85
1041.4946	3134.015	953	73.3
1041.6008	3134.9936	954.45	74.5
1041.7069	3135.9716	973.75	74.15
1041.813	3136.949	952	73.95
1041.919	3137.9258	959.85	76.45
1042.025	3138.902	956.8	72.7
1042.1309	3139.8775	950	71.9
1042.2368	3140.8524	950.55	72.35
1042.3427	3141.8267	952.25	71.5
1042.4485	3142.8004	949.2	69.3
1042.5542	3143.7735	954.75	69.05
1042.6599	3144.7459	949.4	67.45
1042.7656	3145.7178	950.35	70.45
1042.8712	3146.689	948.45	67.4
1042.9768	3147.6596	945.6	64.3
1043.0823	3148.6295	950.15	71.2
1043.1878	3149.5989	948.55	70.25
1043.2932	3150.5676	946.5	70.15
1043.3986	3151.5357	945.4	67.6
1043.5039	3152.5032	946.9	68.9
1043.6092	3153.4701	944.15	66
1043.7145	3154.4364	946.95	65.1
1043.8197	3155.402	943.85	66.4
1043.9248	3156.367	945.5	62
1044.03	3157.3315	985.75	69.65
1044.135	3158.2952	947.1	66.9
1044.24	3159.2584	943.05	64
1044.345	3160.221	943.75	64.2
1044.4499	3161.1829	942.5	64.45
1044.5548	3162.1442	941.9	63.75
1044.6596	3163.105	945.05	66.4
1044.7644	3164.065	939.15	60.4
1044.8692	3165.0245	943.85	63
1044.9739	3165.9834	939.7	61.15
1045.0785	3166.9416	938.55	62.1
1045.1831	3167.8993	941.4	60.15
1045.2877	3168.8563	940.45	60
1045.3922	3169.8127	940.85	62.6
1045.4966	3170.7684	941.85	62.8
1045.6011	3171.7236	937.2	59.4
1045.7054	3172.6782	939.5	60.6
1045.8098	3173.6321	939.8	59.45
1045.914	3174.5854	941.05	60.45
1046.0183	3175.5381	937.85	58.2
1046.1224	3176.4902	935.1	55.7
1046.2266	3177.4417	934.95	55.45
1046.3307	3178.3926	936.85	59.3
1046.4347	3179.3428	934.35	57.95
1046.5387	3180.2924	935.5	57.1
1046.6427	3181.2415	936.55	58.4
1046.7466	3182.1899	936.1	57.5
1046.8504	3183.1377	936.5	57.8
1046.9542	3184.0848	937.05	55.15
1047.058	3185.0314	933.95	54.1
1047.1617	3185.9773	934.2	55.8
1047.2654	3186.9227	933.9	53.5
1047.369	3187.8674	931.65	52.9
1047.4726	3188.8115	937	53.4
1047.5761	3189.755	933.9	54.5
1047.6796	3190.6979	929.25	50.95
1047.783	3191.6402	928.9	49.9
1047.8864	3192.5818	930.9	54.65
1047.9898	3193.5229	947.25	52.9
1048.0931	3194.4633	932.3	55.1
1048.1963	3195.4031	934.4	54.55
1048.2995	3196.3423	932.55	54.7
1048.4027	3197.2809	930.4	50.65
1048.5058	3198.2189	932.2	53.75
1048.6089	3199.1563	948.3	51.85
1048.7119	3200.0931	930.5	52.25
1048.8148	3201.0292	928.55	51.5
1048.9178	3201.9648	927.5	48
1049.0206	3202.8997	933.9	52.25
1049.1235	3203.834	932.7	52.65
1049.2262	3204.7677	928.35	50.15
1049.329	3205.7008	929.45	50.75
1049.4317	3206.6333	929.1	51.45
1049.5343	3207.5652	929.85	50.7
1049.6369	3208.4964	931.2	53.45
1049.7394	3209.4271	924.55	47.55
1049.8419	3210.3571	926.6	47.75
1049.9444	3211.2865	928.35	46.75
1050.0468	3212.2154	928.55	49.55
1050.1491	3213.1436	931.05	49.9
1050.2514	3214.0712	930.9	46.8
1050.3537	3214.9982	925.2	49
1050.4559	3215.9246	925.25	46.9
1050.5581	3216.8503	923.65	45.95
1050.6602	3217.7755	924.7	46.3
1050.7623	3218.7001	926.2	47.25
1050.8643	3219.624	925.2	46.65
1050.9663	3220.5473	924.9	45.85
1051.0682	3221.4701	922.15	39.85
1051.1701	3222.3922	925.6	44.05
1051.2719	3223.3137	925.7	46.45
1051.3737	3224.2346	921.85	44.45
1051.4754	3225.1549	924.9	46.7
1051.5771	3226.0746	920.1	42.5
1051.6788	3226.9937	925.4	47.95
1051.7804	3227.9121	920.55	43.4
1051.8819	3228.83	922.1	44
1051.9834	3229.7473	920.7	41.25
1052.0849	3230.6639	921.45	42.4
1052.1863	3231.5799	922.05	43.55
1052.2876	3232.4954	922.5	41.45
1052.3889	3233.4102	919.1	40.15
1052.4902	3234.3244	921.1	43.4
1052.5914	3235.238	918.95	41.45
1052.6926	3236.151	944	42.45
1052.7937	3237.0634	918.7	39.85
1052.8948	3237.9752	920.5	43.45
1052.9958	3238.8864	918.4	38.95
1053.0968	3239.797	918.3	39.65
1053.1977	3240.7069	922.2	41.9
1053.2986	3241.6163	921.85	43.5
1053.3994	3242.5251	916.4	37.45
1053.5002	3243.4332	918.1	41.9
1053.6009	3244.3408	920.15	41.05
1053.7016	3245.2477	917.9	42.55
1053.8022	3246.154	920.6	39.45
1053.9028	3247.0598	918.85	37.9
1054.0034	3247.9649	918.1	38
1054.1039	3248.8694	917.9	40.6
1054.2043	3249.7733	919.1	42.4
1054.3047	3250.6766	915.15	35.95
1054.4051	3251.5793	916.45	38.95
1054.5054	3252.4814	916.85	38.15
1054.6056	3253.3829	913.3	34.25
1054.7058	3254.2838	914.5	36.1
1054.806	3255.1841	914.85	35.5
1054.9061	3256.0838	915.85	38.5
1055.0061	3256.9829	913	35.55
1055.1062	3257.8814	917.65	36
1055.2061	3258.7792	914.8	33.8
1055.306	3259.6765	915.7	36.15
1055.4059	3260.5731	913.9	34.9
1055.5057	3261.4692	915	35.55
1055.6055	3262.3647	914.45	35.1
1055.7052	3263.2595	911.5	33.05
1055.8049	3264.1538	911.2	33.85
1055.9045	3265.0474	911.25	33.25
1056.0041	3265.9404	908.7	31.5
1056.1036	3266.8329	908.8	29.95
1056.2031	3267.7247	916.35	30.25
1056.3025	3268.616	907.75	30.05
1056.4019	3269.5066	907.65	28.2
1056.5013	3270.3966	912.1	31.4
1056.6005	3271.286	905.8	28.2
