Software Version:	3.9.2.0
Unit SN:	10000200
Spectrometer SN:	6960
Date:	3/6/2024 10:02:45 AM
Data Line Index:	25
Spectral Points:	2048
Integration time (ms):	125
Averages:	20
Delay (ms):	30
Sequence Number:	1
Processing:	dark subtract
Laser Power (mW):	300
Laser Current (mA):	826
Laser Diode Temp (C):	25.1
Laser Case Temp (C):	24.7
System Temp (C):	24.5
Spectrometer Temp (C):	22.1
CCD Temp (C):	0.001
Secondary Temp (C):	20.013
Heatsink Temp (C):	18.49
CCDPCB Temp (C):	31.983
SecondaryPCB Temp (C):	26.392

Wavelength	RamanShift	Raw Counts	Dark Subtracted
787.061	30.1047	660.8	252.65
787.2016	32.3739	673.8	267.1
787.3422	34.6426	686.15	279.1
787.4828	36.9109	704.05	293.75
787.6235	39.1787	733.2	318.75
787.7642	41.4461	750.7	332.45
787.9049	43.7131	773.1	354.75
788.0456	45.9796	795.4	372.4
788.1863	48.2456	824.6	396.55
788.3271	50.5112	853.15	421.85
788.4679	52.7764	878.9	443.25
788.6087	55.0411	908.5	468.6
788.7496	57.3054	941.3	497.7
788.8904	59.5692	971.45	527.7
789.0313	61.8326	1003.35	554.65
789.1722	64.0955	1040.4	590.75
789.3132	66.3579	1097.7	642.55
789.4541	68.6199	1159.25	699.75
789.5951	70.8815	1266.25	803.8
789.7361	73.1426	1489.35	1022.5
789.8771	75.4032	2074.8	1603.4
790.0181	77.6634	3537.6	3062.4
790.1592	79.9231	7191.05	6712.55
790.3003	82.1824	16408.15	15918.15
790.4414	84.4412	33247.8	32740.8
790.5825	86.6995	50561.8	50034.6
790.7237	88.9574	58146.15	57602.05
790.8648	91.2148	61019.15	60462.55
791.006	93.4717	61822.75	61258.1
791.1472	95.7282	62153.95	61581.95
791.2885	97.9842	62275.55	61702.45
791.4297	100.2398	62341.85	61766.5
791.571	102.4949	62249.05	61670.85
791.7123	104.7495	62323.35	61741.4
791.8536	107.0036	62219.9	61636.85
791.9949	109.2573	62374.4	61797.15
792.1363	111.5105	62200.1	61614.9
792.2777	113.7632	62339.6	61753.3
792.4191	116.0154	62367	61766.55
792.5605	118.2672	62417	61828.7
792.7019	120.5185	62419.75	61826.75
792.8434	122.7693	62432.4	61834.3
792.9849	125.0197	62340.25	61737.7
793.1264	127.2696	62545.6	61943.35
793.2679	129.519	62535.35	61929.5
793.4094	131.7679	62623.05	62012.25
793.551	134.0163	62342.85	61732.5
793.6926	136.2642	62451.15	61836.3
793.8342	138.5117	62634.65	62017.6
793.9758	140.7587	62543.8	61924.2
794.1175	143.0052	62577.25	61955.15
794.2591	145.2512	62443.05	61820.95
794.4008	147.4967	62634.5	62010.8
794.5425	149.7417	62560.05	61933.75
794.6842	151.9863	62582.2	61948.25
794.826	154.2304	62436.4	61799.75
794.9677	156.4739	62573.65	61933.45
795.1095	158.717	62637.85	61996.9
795.2513	160.9596	62566.75	61920.4
795.3931	163.2017	62436.55	61788.2
795.535	165.4433	62593.95	61940
795.6768	167.6844	62502.65	61851.05
795.8187	169.925	62579.7	61928.15
795.9606	172.1651	62519.65	61864.6
796.1025	174.4047	62501.65	61841.05
796.2445	176.6439	62547.05	61886.05
796.3864	178.8825	62551.15	61885.35
796.5284	181.1206	62606.95	61939.05
796.6704	183.3582	62621.1	61945.2
796.8124	185.5954	62495.45	61819.9
796.9544	187.832	62565.4	61883.55
797.0965	190.0681	62500.7	61818.45
797.2386	192.3037	62636.85	61952.1
797.3806	194.5388	62788.75	62099.05
797.5228	196.7734	62452.75	61764.4
797.6649	199.0075	62729.05	62038.6
797.807	201.2411	62656.05	61962.8
797.9492	203.4742	62796.15	62098.1
798.0914	205.7068	62767.2	62066.45
798.2336	207.9389	62761.15	62062
798.3758	210.1704	62735.9	62042.4
798.518	212.4015	62889.75	62207.85
798.6603	214.632	62671.9	61993.1
798.8025	216.862	62867.55	62193.55
798.9448	219.0915	62869.2	62188.4
799.0871	221.3205	62787.8	62105.1
799.2294	223.549	62915.25	62236.7
799.3718	225.777	62904.75	62224.1
799.5141	228.0044	62944.05	62257.05
799.6565	230.2314	62930.35	62245.55
799.7989	232.4578	62929.1	62237.95
799.9413	234.6837	62930.75	62228.55
800.0837	236.909	63198.15	62495.15
800.2262	239.1339	62834.6	62109.15
800.3687	241.3582	63009.5	62299.3
800.5111	243.582	63010.45	62268.8
800.6536	245.8053	63013.1	62283.55
800.7961	248.0281	63014.35	62290.3
800.9387	250.2503	63079.05	62351.05
801.0812	252.472	62986.8	62260.15
801.2238	254.6932	63012.55	62281.4
801.3664	256.9139	63000.95	62269.65
801.509	259.134	63244.6	62510.3
801.6516	261.3536	62937.75	62203.45
801.7942	263.5727	63154.85	62420.85
801.9369	265.7912	63028.35	62291.75
802.0795	268.0092	63055.55	62316.7
802.2222	270.2267	63060.15	62324.9
802.3649	272.4436	62982.1	62244.7
802.5076	274.6601	63062.85	62314.5
802.6504	276.8759	63118.4	62372.4
802.7931	279.0913	63120.15	62379.05
802.9359	281.3061	63076.05	62330.9
803.0787	283.5204	63125.05	62379.05
803.2215	285.7341	63100.2	62350.6
803.3643	287.9473	63230.7	62465.6
803.5071	290.16	63111.05	62355.55
803.6499	292.3721	63244.3	62496.6
803.7928	294.5837	63062	62312.55
803.9357	296.7947	63008.2	62256.45
804.0786	299.0052	63173.9	62418.65
804.2215	301.2152	63089.45	62334.95
804.3644	303.4246	63234.6	62485.9
804.5074	305.6334	63219.35	62471.8
804.6503	307.8418	63044.85	62289.1
804.7933	310.0495	63118.4	62359.75
804.9363	312.2568	63055.55	62299.9
805.0793	314.4635	63053.25	62293.6
805.2223	316.6696	63092.6	62326.25
805.3653	318.8752	63192.95	62422.05
805.5084	321.0802	62919.4	62154.8
805.6514	323.2847	63028.75	62261.85
805.7945	325.4887	63054.05	62286.8
805.9376	327.692	62988.4	62221.85
806.0807	329.8949	63043.35	62274.15
806.2238	332.0972	62975.6	62205.75
806.367	334.2989	63036.6	62262.4
806.5101	336.5001	63128.4	62355.35
806.6533	338.7007	62937.7	62161.5
806.7965	340.9008	63021.15	62247.7
806.9397	343.1003	63041.1	62266.4
807.0829	345.2992	63130.15	62349.4
807.2261	347.4976	63019.15	62238.9
807.3693	349.6955	63053.85	62269.65
807.5126	351.8927	62996.6	62206.85
807.6559	354.0895	63074.5	62278.35
807.7991	356.2856	63060.25	62272.55
807.9424	358.4812	63162.3	62372.7
808.0857	360.6763	63035.35	62245
808.2291	362.8707	63087.1	62295.55
808.3724	365.0646	63044.95	62251.45
808.5158	367.258	63040.25	62243.8
808.6591	369.4508	62958.2	62157.9
808.8025	371.643	63064.95	62265.3
808.9459	373.8346	63041.4	62245
809.0893	376.0257	63031.95	62230.55
809.2327	378.2162	62977.65	62174.05
809.3762	380.4062	62892.85	62090.15
809.5196	382.5956	62956.8	62157.35
809.6631	384.7844	62974.3	62176.05
809.8066	386.9726	63004.05	62207.2
809.9501	389.1603	63029.7	62235.5
810.0936	391.3474	62905.15	62074.5
810.2371	393.5339	63024.8	62227.9
810.3806	395.7199	62873.65	62078.35
810.5241	397.9052	62890.7	62095.85
810.6677	400.09	62929.05	62130.9
810.8113	402.2743	62944.9	62149.55
810.9548	404.4579	62921.1	62121.05
811.0984	406.641	62877.65	62079.25
811.2421	408.8235	62951.45	62146.3
811.3857	411.0054	62934.35	62130.05
811.5293	413.1868	62939.4	62128.65
811.673	415.3675	62929.35	62115.6
811.8166	417.5477	62948.7	62139.2
811.9603	419.7273	62919.4	62104.8
812.104	421.9064	62892.85	62072.1
812.2477	424.0848	62924.4	62107.5
812.3914	426.2627	62965.4	62152.2
812.5351	428.4399	62857.65	62040.8
812.6788	430.6166	62797.2	61976.4
812.8226	432.7928	62854.85	62033.3
812.9663	434.9683	62755.5	61935.65
813.1101	437.1432	62779.6	61960.75
813.2539	439.3176	62838.25	62018.5
813.3977	441.4914	62686.7	61867.3
813.5415	443.6645	62723.35	61905.65
813.6853	445.8371	62694	61871.8
813.8291	448.0091	62648.85	61827.4
813.973	450.1806	62623.1	61800.25
814.1168	452.3514	62616.7	61795.2
814.2607	454.5216	62589.95	61756.95
814.4046	456.6913	62599.8	61776.35
814.5485	458.8603	62623.85	61801.25
814.6924	461.0288	62564.9	61743.25
814.8363	463.1967	62565.65	61743.75
814.9802	465.3639	62581.75	61754.75
815.1241	467.5306	62479.45	61651.7
815.2681	469.6967	62543.7	61721.25
815.412	471.8622	62530.05	61703.85
815.556	474.0271	62513.75	61690.7
815.7	476.1914	62505.3	61677.5
815.844	478.3551	62496.55	61667.9
815.988	480.5182	62564.2	61734.6
816.132	482.6807	62516.65	61690.35
816.276	484.8426	62530.6	61709.1
816.4201	487.0039	62595.5	61772.35
816.5641	489.1647	62582.8	61752.05
816.7082	491.3248	62529.25	61697.7
816.8522	493.4843	62601.45	61773.3
816.9963	495.6432	62605.55	61777.4
817.1404	497.8015	62491.75	61655.15
817.2845	499.9592	62539.05	61701.65
817.4286	502.1163	62543.4	61706
817.5727	504.2728	62523.05	61685.4
817.7168	506.4287	62540	61708.95
817.861	508.5839	62473.9	61642.45
818.0051	510.7386	62498.05	61666.25
818.1493	512.8927	62516.45	61675.75
818.2935	515.0461	62502.85	61662.8
818.4377	517.199	62537.3	61699.1
818.5818	519.3512	62510.75	61669.35
818.726	521.5029	62467	61621.35
818.8703	523.6539	62505.5	61666.6
819.0145	525.8043	62444.15	61602.45
819.1587	527.9541	62494.05	61651.2
819.303	530.1033	62476	61629.8
819.4472	532.2519	62451.75	61607.5
819.5915	534.3999	62450.6	61600.95
819.7357	536.5472	62509.7	61666.45
819.88	538.694	62443	61600.45
820.0243	540.8401	62468.2	61626.15
820.1686	542.9856	62442.55	61592.9
820.3129	545.1305	62478.25	61624.95
820.4572	547.2748	62474.25	61621.85
820.6016	549.4185	62477	61624.85
820.7459	551.5615	62457.45	61606.35
820.8902	553.704	62446.35	61594.7
821.0346	555.8458	62401.05	61549.8
821.1789	557.987	62410.4	61561.45
821.3233	560.1276	62413.3	61563.2
821.4677	562.2675	62416.8	61563.85
821.6121	564.4069	62401.55	61547.75
821.7565	566.5456	62433	61581.9
821.9009	568.6837	62357.95	61507.1
822.0453	570.8212	62386.7	61534.6
822.1897	572.958	62306.15	61455.5
822.3342	575.0942	62355.45	61503.8
822.4786	577.2299	62290.05	61441.75
822.6231	579.3648	62264.95	61418.25
822.7675	581.4992	62215.5	61371.65
822.912	583.6329	62207.2	61365.7
823.0565	585.766	62217.35	61371.1
823.201	587.8985	62198.75	61349.5
823.3454	590.0304	62113.15	61238.5
823.4899	592.1616	62142.85	61289.85
823.6345	594.2922	62148.3	61293.5
823.779	596.4222	62091.75	61233.1
823.9235	598.5515	62080.7	61220.65
824.068	600.6802	62079	61219.4
824.2126	602.8083	62009.1	61149.6
824.3571	604.9358	62042.85	61185.4
824.5017	607.0626	62032.45	61173.1
824.6462	609.1888	62000.95	61138.85
824.7908	611.3144	62016.6	61153.2
824.9354	613.4393	61963.3	61101.1
825.08	615.5636	61972.75	61107
825.2246	617.6873	61957.3	61093.25
825.3692	619.8103	61972.1	61108.3
825.5138	621.9327	61929.8	61064.35
825.6584	624.0544	61945.95	61086
825.803	626.1756	61907.05	61047.85
825.9477	628.2961	61914.55	61051.45
826.0923	630.4159	61885.4	61023.05
826.237	632.5351	61888.65	61021.5
826.3816	634.6537	61899.9	61036
826.5263	636.7716	61858.5	60988.6
826.6709	638.8889	61888.65	61020.4
826.8156	641.0056	61883.8	61015.85
826.9603	643.1216	61874.15	61005
827.105	645.237	61876.45	61007.6
827.2497	647.3518	61844.55	60979.85
827.3944	649.4659	61861.3	60997.4
827.5391	651.5793	61842.25	60976.55
827.6838	653.6922	61813.7	60948.6
827.8285	655.8043	61815.75	60950.35
827.9733	657.9159	61842.35	60976.85
828.118	660.0268	61755.05	60886.95
828.2627	662.137	61782.2	60913.4
828.4075	664.2466	61771.3	60899.45
828.5522	666.3556	61766.6	60899
828.697	668.4639	61740.45	60870.5
828.8418	670.5716	61721.95	60854.5
828.9865	672.6786	61738.4	60864.35
829.1313	674.785	61690.4	60815.65
829.2761	676.8907	61663.75	60789.2
829.4209	678.9958	61678.2	60809.2
829.5657	681.1002	61659.35	60788.85
829.7105	683.204	61659.2	60781.8
829.8553	685.3072	61608.65	60732.95
830.0001	687.4097	61605.3	60730.55
830.1449	689.5115	61608.35	60734.75
830.2898	691.6127	61622.7	60750.45
830.4346	693.7132	61578.15	60707.4
830.5794	695.8131	61595.3	60701.35
830.7243	697.9123	61595.35	60716.7
830.8691	700.0109	61584.3	60705.15
831.014	702.1089	61547	60672.15
831.1588	704.2061	61545.6	60666.65
831.3037	706.3028	61549.15	60672.15
831.4486	708.3987	61537	60658.8
831.5935	710.4941	61503.25	60625.9
831.7383	712.5887	61513.1	60636.3
831.8832	714.6827	61491	60610.2
832.0281	716.7761	61515.65	60639.95
832.173	718.8688	61518.65	60641.7
832.3179	720.9608	61506.95	60621.75
832.4628	723.0522	61502.2	60617.25
832.6077	725.1429	61481.05	60599.8
832.7527	727.233	61473.9	60591.75
832.8976	729.3224	61414.1	60532.2
833.0425	731.4112	61424.3	60543.25
833.1874	733.4993	61426.5	60543.3
833.3324	735.5867	61375.9	60495.2
833.4773	737.6735	61362.5	60482.1
833.6222	739.7596	61323.8	60442.05
833.7672	741.845	61289.35	60407.9
833.9122	743.9298	61304.7	60420.65
834.0571	746.014	61216.8	60334.55
834.2021	748.0974	61196	60310
834.347	750.1802	61232.85	60351.4
834.492	752.2624	61138.25	60254.85
834.637	754.3439	61137.25	60250.55
834.782	756.4247	61140.8	60249.75
834.9269	758.5048	61066.45	60183.05
835.0719	760.5843	61079.7	60191.85
835.2169	762.6631	61075.8	60190.85
835.3619	764.7413	60995.7	60111.45
835.5069	766.8188	61018.75	60132.55
835.6519	768.8956	61034.45	60147.1
835.7969	770.9718	61015.7	60132.7
835.9419	773.0473	60968.7	60080
836.0869	775.1221	60858.5	59973.6
836.232	777.1962	60828.75	59941.9
836.377	779.2697	60714.35	59826.45
836.522	781.3426	60777.3	59869.35
836.667	783.4147	60779.8	59892.75
836.8121	785.4862	60734.7	59848.8
836.9571	787.557	60616.95	59727.15
837.1021	789.6271	60718.9	59828.75
837.2472	791.6966	60631.3	59743.85
837.3922	793.7654	60521.7	59636.45
837.5373	795.8335	60535.55	59646.9
837.6823	797.901	60522.05	59633.3
837.8274	799.9678	60467	59576.95
837.9724	802.0339	60450.1	59562.4
838.1175	804.0993	60439.45	59543.7
838.2626	806.1641	60354.2	59463.65
838.4076	808.2282	60314	59425.05
838.5527	810.2916	60322.95	59433.35
838.6978	812.3544	60370.1	59480.05
838.8428	814.4164	60259.7	59372.55
838.9879	816.4778	60278.55	59388.05
839.133	818.5385	60234.05	59341.85
839.2781	820.5986	60237.35	59346.3
839.4232	822.658	60266.5	59371.25
839.5682	824.7166	60197.55	59309.4
839.7133	826.7747	60114.55	59223.95
839.8584	828.832	60163.15	59271.9
840.0035	830.8886	60148.5	59251.65
840.1486	832.9446	60156.25	59263.6
840.2937	834.9999	59996.1	59105.65
840.4388	837.0545	60059.15	59165.55
840.5839	839.1085	60078.65	59185.95
840.729	841.1618	60036.9	59135.7
840.8741	843.2143	59934.6	59041
841.0192	845.2662	59872.7	58978.35
841.1643	847.3175	59921.25	59026.85
841.3095	849.368	59779.2	58887.55
841.4546	851.4179	59859.95	58966.9
841.5997	853.467	59728	58834.55
841.7448	855.5155	59794	58898.65
841.8899	857.5633	59690.6	58795.8
842.0351	859.6105	59613.7	58718.7
842.1802	861.6569	59673.05	58777.65
842.3253	863.7027	59590.25	58694
842.4704	865.7478	59614.9	58719.1
842.6156	867.7922	59574.2	58680.95
842.7607	869.8359	59598.95	58703.25
842.9058	871.8789	59471.9	58576.3
843.0509	873.9212	59528.55	58600.55
843.1961	875.9629	59503.25	58606.45
843.3412	878.0039	59458.75	58563.65
843.4863	880.0441	59412.35	58515.5
843.6315	882.0837	59409.3	58516.2
843.7766	884.1226	59410.75	58514.05
843.9218	886.1609	59413.3	58519.4
844.0669	888.1984	59328.9	58434.15
844.212	890.2352	59455.75	58560.75
844.3572	892.2714	59284	58384.25
844.5023	894.3069	59364.85	58470.35
844.6475	896.3416	59237.05	58341.45
844.7926	898.3757	59210.35	58314.7
844.9377	900.4091	59016	58119.2
845.0829	902.4418	59243.9	58341.05
845.228	904.4739	59093.8	58192.95
845.3732	906.5052	59116.25	58218.35
845.5183	908.5358	59058.95	58161.55
845.6635	910.5658	59031.65	58131.75
845.8086	912.595	59000.75	58102.25
845.9538	914.6236	58694.15	57795.6
846.0989	916.6515	58994.95	58097.4
846.2441	918.6786	58648.55	57749.4
846.3892	920.7051	58725.15	57824.6
846.5344	922.7309	58667.5	57770.35
846.6795	924.756	58702.35	57802.05
846.8246	926.7804	58583.35	57682.35
846.9698	928.8041	58286.65	57385.85
847.1149	930.8272	58480.45	57580.7
847.2601	932.8495	58462.3	57561.4
847.4052	934.8711	58262.7	57361.65
847.5504	936.892	58123	57224.15
847.6955	938.9123	58209.35	57309.1
847.8407	940.9318	58085.9	57186.1
847.9858	942.9506	58074.5	57174.6
848.131	944.9688	58076.2	57174.8
848.2761	946.9862	57727.95	56826.6
848.4213	949.003	57845.1	56943.9
848.5664	951.019	57570.35	56672.25
848.7115	953.0344	57603.1	56706.1
848.8567	955.0491	57526.35	56625.65
849.0018	957.063	57606.45	56708.45
849.147	959.0763	57641.05	56742.05
849.2921	961.0888	57403.05	56499.4
849.4373	963.1007	57529.3	56629.9
849.5824	965.1119	57498.9	56600.45
849.7275	967.1223	57331.35	56439.95
849.8727	969.1321	57502.6	56609.65
850.0178	971.1412	57255.05	56358.5
850.1629	973.1495	57070.5	56170.35
850.3081	975.1572	57185.05	56249.4
850.4532	977.1641	57044.45	56146.75
850.5983	979.1704	57005.3	56103.85
850.7435	981.1759	57029.55	56126.8
850.8886	983.1808	56839.8	55936.55
851.0337	985.1849	56770.1	55857.95
851.1788	987.1884	56810.2	55908
851.324	989.1911	56894.1	55990.25
851.4691	991.1932	56423.5	55522.15
851.6142	993.1945	56454.25	55553.85
851.7593	995.1951	56523.65	55622.1
851.9045	997.1951	56281.4	55371.65
852.0496	999.1943	56170.85	55269.7
852.1947	1001.1928	56067.8	55165.55
852.3398	1003.1906	56098.55	55197.3
852.4849	1005.1877	55799.8	54900.9
852.63	1007.1841	55664.3	54762.35
852.7751	1009.1798	55677.25	54777.55
852.9202	1011.1748	55670.9	54770.3
853.0653	1013.1691	55601.9	54698
853.2104	1015.1627	55072.75	54169.6
853.3555	1017.1556	55191.85	54292
853.5006	1019.1477	55270.35	54370.2
853.6457	1021.1392	54925.9	54028.75
853.7908	1023.1299	54640.5	53740.25
853.9359	1025.12	54825.35	53927.6
854.081	1027.1093	54530.75	53640.25
854.2261	1029.0979	54512.25	53622.35
854.3712	1031.0859	54445.2	53550.6
854.5163	1033.0731	54156.8	53257.95
854.6613	1035.0596	54238.65	53342.45
854.8064	1037.0454	54119.05	53217.75
854.9515	1039.0304	53945.55	53043.3
855.0965	1041.0148	53571.6	52671.65
855.2416	1042.9985	53630.65	52728.05
855.3867	1044.9814	53831.9	52933.95
855.5317	1046.9636	53422.75	52521
855.6768	1048.9452	53465.75	52567.65
855.8219	1050.926	53373.45	52472.95
855.9669	1052.9061	53285.95	52382.5
856.112	1054.8855	53285.4	52383.6
856.257	1056.8642	53091.15	52190.1
856.4021	1058.8421	52924.5	52019.55
856.5471	1060.8194	52929.35	52026.9
856.6921	1062.7959	52774.75	51873.2
856.8372	1064.7717	52950.1	52048.15
856.9822	1066.7469	52790.3	51887.9
857.1272	1068.7213	52823.8	51918.55
857.2723	1070.695	52674.75	51772.3
857.4173	1072.6679	52422.65	51522.5
857.5623	1074.6402	52543.15	51638.15
857.7073	1076.6117	52393.4	51484.65
857.8523	1078.5826	52354.15	51450.8
857.9973	1080.5527	52322.9	51419.5
858.1423	1082.5221	52075.55	51173.6
858.2873	1084.4908	52143.35	51242.25
858.4323	1086.4587	51999.25	51095.95
858.5773	1088.426	51942.15	51038.35
858.7223	1090.3925	51836.85	50929.95
858.8673	1092.3584	51809.8	50909.4
859.0123	1094.3235	51570.9	50669.15
859.1573	1096.2879	51547.8	50645.4
859.3022	1098.2515	51579.35	50677.55
859.4472	1100.2145	51498.3	50596.5
859.5922	1102.1767	51385.55	50480.5
859.7371	1104.1382	51420.7	50517.25
859.8821	1106.099	51313.4	50408.4
860.027	1108.0591	51182.3	50278.65
860.172	1110.0185	50898.8	49993.5
860.3169	1111.9771	51193.3	50290.95
860.4619	1113.9351	50998.7	50093.85
860.6068	1115.8923	50853.2	49951.25
860.7517	1117.8488	50696.3	49789.4
860.8967	1119.8045	50423.9	49519.6
861.0416	1121.7596	50466.1	49563.3
861.1865	1123.7139	50340.1	49439.7
861.3314	1125.6675	50288.4	49386.9
861.4763	1127.6204	50229.4	49327.05
861.6212	1129.5726	49986.7	49079.5
861.7661	1131.524	50131.75	49229.15
861.911	1133.4748	50078	49172.6
862.0559	1135.4248	49865	48961.35
862.2008	1137.3741	49800.2	48897.4
862.3457	1139.3226	49750.05	48847.9
862.4905	1141.2705	49704.9	48803.5
862.6354	1143.2176	49589.1	48680.85
862.7803	1145.164	49361.9	48457.2
862.9251	1147.1097	49430.9	48528.55
863.07	1149.0546	49322.35	48416.35
863.2148	1150.9989	49302.1	48397.25
863.3597	1152.9424	49169.25	48266.05
863.5045	1154.8852	49212.4	48308.95
863.6493	1156.8272	49038.65	48136.65
863.7942	1158.7686	49245.4	48337.8
863.939	1160.7092	48872.9	47970.55
864.0838	1162.6491	48799.7	47894.35
864.2286	1164.5883	48854.95	47950.7
864.3734	1166.5267	48720.25	47815.65
864.5182	1168.4644	48783.45	47878.05
864.663	1170.4014	48723.85	47815.4
864.8078	1172.3377	48822.45	47922.35
864.9526	1174.2732	48856.55	47955.6
865.0974	1176.2081	48739.2	47837.1
865.2421	1178.1421	48729.8	47824.3
865.3869	1180.0755	48871.5	47970.4
865.5317	1182.0082	48681.5	47780.05
865.6764	1183.9401	48682.6	47779.75
865.8212	1185.8713	48492.35	47592.4
865.9659	1187.8017	48437.15	47539.8
866.1106	1189.7315	48393.9	47501.15
866.2554	1191.6605	48140.85	47221.35
866.4001	1193.5888	47944.25	47047.65
866.5448	1195.5163	47790.1	46891.25
866.6895	1197.4432	47720.75	46818.8
866.8342	1199.3693	47716.1	46813.45
866.9789	1201.2947	47494.8	46588.3
867.1236	1203.2193	47451.15	46546.15
867.2683	1205.1432	47311.8	46410.5
867.413	1207.0664	47217.85	46315.7
867.5576	1208.9889	47138.6	46233.3
867.7023	1210.9106	47103.9	46204.05
867.847	1212.8316	46930	46027.6
867.9916	1214.7519	46898.7	45988.1
868.1363	1216.6715	46760.45	45855.6
868.2809	1218.5903	46751.7	45853.35
868.4255	1220.5084	46609.75	45707.4
868.5701	1222.4257	46675.7	45774
868.7148	1224.3424	46509.6	45609.65
868.8594	1226.2583	46354.35	45446.15
869.004	1228.1735	46376.1	45474.6
869.1486	1230.0879	46224.05	45321.2
869.2932	1232.0016	46271.25	45370.7
869.4377	1233.9146	46063.4	45159.7
869.5823	1235.8269	46066.2	45166.25
869.7269	1237.7384	46025.4	45126.6
869.8715	1239.6492	45848.25	44947.5
870.016	1241.5592	45749.25	44845.25
870.1606	1243.4686	45716.75	44814.9
870.3051	1245.3772	45587.75	44685.15
870.4496	1247.285	45617.8	44713.8
870.5941	1249.1922	45465.95	44565.2
870.7387	1251.0986	45543.65	44641.65
870.8832	1253.0042	45340.7	44439.5
871.0277	1254.9092	45345.75	44445.05
871.1722	1256.8134	45170.55	44270.15
871.3167	1258.7169	45283.8	44382.55
871.4611	1260.6196	45114.2	44212.75
871.6056	1262.5216	45150.45	44247.45
871.7501	1264.4229	45169.4	44269.55
871.8945	1266.3234	45214.3	44311.8
872.039	1268.2232	45146.35	44242.8
872.1834	1270.1223	45020	44117.75
872.3278	1272.0207	44980.05	44079.35
872.4723	1273.9183	44910.4	44004.3
872.6167	1275.8151	44832.05	43929.9
872.7611	1277.7113	44792.5	43891.2
872.9055	1279.6067	44656.5	43756.9
873.0499	1281.5014	44606.8	43703.2
873.1943	1283.3953	44674.35	43770.75
873.3386	1285.2885	44669.55	43769.55
873.483	1287.181	44713.3	43811.4
873.6274	1289.0727	44807.9	43907.95
873.7717	1290.9637	44691.4	43789.5
873.9161	1292.854	44794.65	43893.7
874.0604	1294.7435	44692.2	43792.7
874.2047	1296.6323	44660.4	43757.25
874.349	1298.5204	44568.2	43663.75
874.4933	1300.4077	44555.35	43651.65
874.6376	1302.2943	44425.85	43525.55
874.7819	1304.1802	44342.45	43443.9
874.9262	1306.0653	44165.6	43261.4
875.0705	1307.9497	44061.6	43161.45
875.2147	1309.8333	44001.05	43100.15
875.359	1311.7162	43863.5	42960.75
875.5032	1313.5984	43794.25	42890.55
875.6475	1315.4798	43654.25	42750.7
875.7917	1317.3605	43597.85	42683.2
875.9359	1319.2405	43555.5	42652.35
876.0801	1321.1197	43467.9	42564.25
876.2243	1322.9982	43379.55	42471
876.3685	1324.876	43328.85	42427.25
876.5127	1326.753	43136.75	42234.9
876.6569	1328.6293	43152.05	42249.25
876.801	1330.5048	43119.85	42212.15
876.9452	1332.3796	42955.95	42053
877.0893	1334.2537	42907.65	41979.15
877.2335	1336.127	42864.6	41964.1
877.3776	1337.9996	42767.45	41864.1
877.5217	1339.8714	42741.1	41840.25
877.6658	1341.7426	42605.7	41659.05
877.8099	1343.6129	42634.3	41730.9
877.954	1345.4826	42551.05	41649.95
878.0981	1347.3515	42464.55	41560.4
878.2422	1349.2196	42518.3	41617.05
878.3862	1351.087	42481.6	41579
878.5303	1352.9537	42411.4	41507.1
878.6743	1354.8197	42483.45	41580.15
878.8184	1356.6849	42429.5	41527.65
878.9624	1358.5493	42364.6	41461.05
879.1064	1360.4131	42303.95	41400.75
879.2504	1362.276	42333.4	41432.15
879.3944	1364.1383	42134.75	41233.7
879.5384	1365.9998	42000.8	41093.55
879.6823	1367.8606	41928.45	41026.6
879.8263	1369.7206	41772.15	40871.25
879.9702	1371.5799	41600.55	40697.1
880.1142	1373.4384	41435.8	40534.35
880.2581	1375.2962	41442.8	40541.3
880.402	1377.1533	41111.6	40210.5
880.5459	1379.0096	40885.15	39985
880.6898	1380.8652	40747	39847.95
880.8337	1382.7201	40602.5	39705.45
880.9776	1384.5742	40488	39585.6
881.1215	1386.4275	40128.55	39226.25
881.2653	1388.2802	40164.9	39263.4
881.4092	1390.132	40069.2	39166.4
881.553	1391.9832	39875.6	38970.35
881.6968	1393.8336	39643.4	38742.4
881.8406	1395.6832	39656.3	38753.3
881.9844	1397.5322	39577.95	38677.25
882.1282	1399.3803	39376.1	38470.75
882.272	1401.2278	39244.15	38341.9
882.4158	1403.0745	39147.8	38247.2
882.5595	1404.9204	39038.05	38136.95
882.7033	1406.7656	38990.5	38087.4
882.847	1408.6101	38791.65	37888.65
882.9908	1410.4538	38730.15	37831.3
883.1345	1412.2968	38701.2	37797.95
883.2782	1414.139	38503.1	37600.9
883.4219	1415.9805	38534.7	37633.55
883.5656	1417.8213	38362.75	37457.05
883.7092	1419.6613	38341.95	37440.6
883.8529	1421.5006	38272.75	37372.3
883.9965	1423.3391	38254.7	37354.65
884.1402	1425.1769	38237	37335.45
884.2838	1427.0139	38336.35	37434.45
884.4274	1428.8502	38361.3	37456.55
884.571	1430.6858	38432.95	37532.5
884.7146	1432.5206	38475.2	37573.2
884.8582	1434.3547	38430.5	37528.95
885.0018	1436.188	38319.35	37419.95
885.1453	1438.0206	38328.15	37426.15
885.2889	1439.8524	38204.75	37303.1
885.4324	1441.6835	38096.5	37193.7
885.5759	1443.5139	38006.8	37103.6
885.7194	1445.3435	37850.25	36950.6
885.8629	1447.1724	37920.3	37020.9
886.0064	1449.0005	37749.25	36849.2
886.1499	1450.8279	37748.85	36846.75
886.2933	1452.6545	37673.5	36773.75
886.4368	1454.4804	37668.05	36768.5
886.5802	1456.3056	37588.15	36677.7
886.7237	1458.13	37549.15	36649.1
886.8671	1459.9536	37558.3	36660.05
887.0105	1461.7766	37362.9	36462.55
887.1539	1463.5987	37171.25	36271.2
887.2972	1465.4202	37038.9	36139.2
887.4406	1467.2409	36895.3	35996.65
887.584	1469.0608	36807.35	35906.2
887.7273	1470.88	36677.3	35775.25
887.8706	1472.6984	36568.75	35670.05
888.0139	1474.5161	36341.05	35438.1
888.1572	1476.3331	36335	35434.6
888.3005	1478.1493	36246.2	35344.7
888.4438	1479.9648	36201.3	35299.05
888.5871	1481.7795	36139.25	35239.95
888.7303	1483.5935	36132	35230.75
888.8736	1485.4067	35978.5	35077.75
889.0168	1487.2192	35946.45	35047.7
889.16	1489.031	35901.8	34999.45
889.3032	1490.842	35861.9	34961.5
889.4464	1492.6522	35816.9	34919.1
889.5896	1494.4618	35722.95	34821.95
889.7327	1496.2705	35632.6	34732.5
889.8759	1498.0785	35542.2	34640.1
890.019	1499.8858	35535.25	34634.6
890.1622	1501.6924	35469	34569.7
890.3053	1503.4981	35369.95	34472.6
890.4484	1505.3032	35319.15	34418.8
890.5914	1507.1075	35222.85	34322.05
890.7345	1508.911	35214.85	34316.25
890.8776	1510.7138	35133.2	34233.6
891.0206	1512.5159	35046.3	34147.05
891.1637	1514.3172	34913.6	34014.55
891.3067	1516.1178	34842.3	33945.35
891.4497	1517.9176	34829.25	33928.55
891.5927	1519.7166	34685.75	33786.45
891.7357	1521.515	34623.45	33715.25
891.8786	1523.3126	34587.7	33688.15
892.0216	1525.1094	34511.65	33610.65
892.1645	1526.9055	34370.2	33472.35
892.3074	1528.7008	34323.95	33426.75
892.4503	1530.4954	34149.9	33250.7
892.5932	1532.2893	34153.5	33257.75
892.7361	1534.0824	33962	33061
892.879	1535.8747	33945.25	33046.8
893.0218	1537.6663	33861.2	32964.9
893.1647	1539.4572	33695.25	32797.05
893.3075	1541.2473	33707.4	32810.45
893.4503	1543.0367	33641.8	32744.65
893.5931	1544.8253	33563.3	32659.4
893.7359	1546.6132	33537.2	32638.15
893.8787	1548.4003	33429.8	32524.35
894.0214	1550.1867	33380.45	32475.6
894.1642	1551.9723	33320.5	32420.45
894.3069	1553.7572	33313.8	32416.9
894.4496	1555.5414	33259.5	32363.9
894.5923	1557.3247	33196.35	32302.2
894.735	1559.1074	33165.9	32272.5
894.8777	1560.8893	33136.15	32241.25
895.0204	1562.6705	33045.15	32150.9
895.163	1564.4509	33024.85	32129.5
895.3056	1566.2305	32949	32057.9
895.4482	1568.0094	33019.8	32127.1
895.5908	1569.7876	32973.05	32078.5
895.7334	1571.565	32924.65	32028.35
895.876	1573.3417	32863.85	31970.65
896.0186	1575.1176	32746.85	31852.45
896.1611	1576.8928	32691.1	31798.1
896.3036	1578.6672	32591.35	31701.35
896.4461	1580.4409	32543.2	31652.25
896.5886	1582.2138	32400.75	31509.05
896.7311	1583.986	32354.5	31462.1
896.8736	1585.7575	32351.55	31459.45
897.0161	1587.5282	32288.55	31398.95
897.1585	1589.2981	32287.9	31399.45
897.3009	1591.0673	32189.15	31299.65
897.4433	1592.8358	32199.95	31310.85
897.5857	1594.6035	32172.5	31278.45
897.7281	1596.3704	32074	31179.5
897.8705	1598.1366	31997.75	31105.15
898.0128	1599.9021	31941.4	31051.55
898.1551	1601.6668	31889.25	30994.5
898.2975	1603.4308	31830.3	30935.05
898.4398	1605.194	31866.8	30971.1
898.5821	1606.9564	31802.5	30913.5
898.7243	1608.7182	31844.4	30955.2
898.8666	1610.4791	31804.3	30920.25
899.0088	1612.2394	31834.7	30947.7
899.1511	1613.9988	31819.25	30932.45
899.2933	1615.7576	31834.45	30945.45
899.4355	1617.5156	31876.9	30981.15
899.5776	1619.2728	31865.5	30972.55
899.7198	1621.0293	31779.25	30887.55
899.862	1622.785	31730.1	30833.95
900.0041	1624.54	31534.25	30642.95
900.1462	1626.2942	31404.65	30514.5
900.2883	1628.0477	31202.15	30310.9
900.4304	1629.8005	31039.2	30146.35
900.5725	1631.5525	30928.5	30040.3
900.7145	1633.3037	30810.45	29920.4
900.8566	1635.0542	30723.55	29835.5
900.9986	1636.804	30585.9	29697.85
901.1406	1638.553	30575.15	29639.25
901.2826	1640.3013	30431.2	29543.45
901.4245	1642.0488	30385.35	29493.8
901.5665	1643.7955	30307.3	29421.95
901.7085	1645.5416	30237.25	29349.05
901.8504	1647.2868	30245.8	29356.95
901.9923	1649.0313	30194.85	29303.25
902.1342	1650.7751	30193.25	29301.8
902.2761	1652.5181	30185.4	29298.45
902.4179	1654.2604	30097.25	29209.55
902.5598	1656.0019	30109.7	29221.9
902.7016	1657.7427	30125.7	29237.3
902.8434	1659.4828	30198.5	29311
902.9852	1661.222	30174.65	29284.5
903.127	1662.9606	30078.15	29190.35
903.2687	1664.6984	29994.65	29104.25
903.4105	1666.4354	29870.05	28980.1
903.5522	1668.1717	29685.35	28792.15
903.6939	1669.9072	29440.4	28552.3
903.8356	1671.642	29279.05	28387.55
903.9773	1673.3761	29156.05	28263.75
904.119	1675.1094	28982.8	28092.9
904.2606	1676.8419	28848.75	27959.65
904.4022	1678.5737	28717.95	27826.6
904.5439	1680.3048	28590.75	27700.45
904.6855	1682.0351	28449.4	27560.8
904.827	1683.7646	28347	27454.85
904.9686	1685.4934	28330.55	27443
905.1101	1687.2215	28099.95	27211.3
905.2517	1688.9488	28069.35	27181.4
905.3932	1690.6754	27787.65	26898.65
905.5347	1692.4012	27871.65	26983.65
905.6761	1694.1263	27801.95	26913.75
905.8176	1695.8506	27683.9	26793.65
905.9591	1697.5742	27614.5	26727.6
906.1005	1699.297	27516.4	26629.65
906.2419	1701.0191	27417	26532.6
906.3833	1702.7404	27281.35	26396.6
906.5246	1704.461	27164.85	26277.25
906.666	1706.1808	27155.05	26267.45
906.8073	1707.8999	27092.85	26204.7
906.9487	1709.6182	26970.1	26084.95
907.09	1711.3358	26894.6	26009.5
907.2313	1713.0527	26827.15	25941.4
907.3725	1714.7688	26751.5	25858.3
907.5138	1716.4841	26536.45	25648.15
907.655	1718.1987	26568.45	25677.2
907.7962	1719.9126	26469.25	25583.85
907.9374	1721.6257	26453.05	25566.65
908.0786	1723.338	26382.9	25498.4
908.2198	1725.0496	26127.1	25241.15
908.3609	1726.7605	26152.85	25265.55
908.502	1728.4706	26023.65	25136.85
908.6431	1730.18	26008	25119.75
908.7842	1731.8886	25868.5	24982.55
908.9253	1733.5964	25815.35	24923.2
909.0664	1735.3036	25845.3	24956.6
909.2074	1737.0099	25727.75	24843.25
909.3484	1738.7156	25647.65	24764.1
909.4894	1740.4204	25524.45	24637.8
909.6304	1742.1246	25525.25	24637.65
909.7714	1743.8279	25491.15	24606.1
909.9123	1745.5306	25426.65	24543
910.0532	1747.2325	25239.55	24354.4
910.1941	1748.9336	25192.25	24308.35
910.335	1750.634	25149.1	24261.15
910.4759	1752.3336	25168.65	24281.1
910.6168	1754.0325	25029.05	24147.4
910.7576	1755.7307	25083.05	24197.9
910.8984	1757.4281	24938.85	24051.4
911.0392	1759.1247	24983.45	24089.75
911.18	1760.8206	24832.4	23942.4
911.3208	1762.5158	24833.1	23941.7
911.4615	1764.2102	24749.5	23863.2
911.6022	1765.9039	24674.5	23788.05
911.7429	1767.5968	24622.15	23737.05
911.8836	1769.289	24496.75	23612.35
912.0243	1770.9804	24485.9	23600.6
912.1649	1772.6711	24434.65	23547.8
912.3056	1774.361	24378.45	23491.35
912.4462	1776.0502	24335.15	23449.95
912.5868	1777.7386	24233.4	23344.9
912.7274	1779.4263	24217.4	23328.7
912.8679	1781.1132	24193.55	23308.6
913.0084	1782.7994	24107.45	23223.1
913.149	1784.4849	24085.35	23202.35
913.2895	1786.1696	23944.45	23041.3
913.4299	1787.8535	23968.55	23085.3
913.5704	1789.5367	23874.15	22989.05
913.7108	1791.2192	23819.4	22938.2
913.8513	1792.9009	23730.05	22813.7
913.9917	1794.5818	23730.9	22843
914.132	1796.2621	23667.55	22782.9
914.2724	1797.9415	23563.05	22678
914.4128	1799.6202	23480.8	22595.5
914.5531	1801.2982	23496.9	22611.6
914.6934	1802.9755	23419.35	22532.85
914.8337	1804.6519	23405.5	22518.75
914.9739	1806.3277	23382.45	22496.75
915.1142	1808.0027	23187.15	22303.7
915.2544	1809.6769	23192.9	22307.05
915.3946	1811.3504	23122.7	22239.35
915.5348	1813.0231	23086.5	22201.4
915.675	1814.6951	23054.2	22167.8
915.8151	1816.3664	23020.7	22135.65
915.9553	1818.0369	22992.1	22105.75
916.0954	1819.7067	22838.05	21956
916.2355	1821.3757	22899.15	22012.8
916.3755	1823.044	22766.3	21880.4
916.5156	1824.7115	22742.95	21856
916.6556	1826.3783	22636.65	21751.25
916.7956	1828.0443	22575.25	21689.9
916.9356	1829.7096	22558.35	21673.75
917.0756	1831.3741	22481.9	21592.5
917.2155	1833.0379	22471.75	21589.6
917.3555	1834.701	22364.7	21478.8
917.4954	1836.3633	22345.6	21460.65
917.6353	1838.0248	22315.7	21431.1
917.7751	1839.6856	22252.4	21368.05
917.915	1841.3457	22250.2	21364.8
918.0548	1843.005	22204.95	21320.35
918.1946	1844.6636	22154.3	21269.65
918.3344	1846.3214	22090.5	21204.05
918.4742	1847.9785	22062.05	21177.95
918.6139	1849.6349	22001.95	21115.25
918.7537	1851.2904	21998.45	21103.55
918.8934	1852.9453	21921.35	21034.85
919.0331	1854.5994	21861.15	20973.6
919.1727	1856.2528	21863.15	20973.45
919.3124	1857.9054	21739.4	20854.1
919.452	1859.5572	21748.05	20864.15
919.5916	1861.2083	21715.4	20830.05
919.7312	1862.8587	21747.65	20863.2
919.8708	1864.5084	21631.45	20746.5
920.0103	1866.1572	21602.1	20716.4
920.1498	1867.8054	21503.05	20614.85
920.2893	1869.4528	21464.7	20577.6
920.4288	1871.0994	21377.3	20491.35
920.5683	1872.7453	21352.85	20466.9
920.7077	1874.3905	21298	20405.25
920.8471	1876.0349	21206.35	20320.8
920.9865	1877.6786	21222.1	20335.2
921.1259	1879.3215	21209.35	20324.7
921.2653	1880.9637	21150.55	20264.85
921.4046	1882.6051	21128.3	20243.55
921.5439	1884.2458	21058.2	20170
921.6832	1885.8858	20962.95	20078.4
921.8225	1887.525	20932.85	20045.4
921.9617	1889.1634	20846.35	19962.7
922.101	1890.8011	20779.25	19893.9
922.2402	1892.4381	20714.2	19827.85
922.3794	1894.0743	20721.45	19836.15
922.5185	1895.7098	20695.55	19809.55
922.6577	1897.3446	20628.55	19743.7
922.7968	1898.9786	20564.8	19674.7
922.9359	1900.6118	20518.5	19633.55
923.075	1902.2443	20382.7	19494.4
923.214	1903.8761	20398.55	19511.5
923.3531	1905.5071	20304.35	19417.35
923.4921	1907.1374	20233.85	19346.9
923.6311	1908.7669	20216.75	19332.55
923.77	1910.3957	20184.75	19301.35
923.909	1912.0237	20042.2	19155.6
924.0479	1913.651	20010.35	19126
924.1868	1915.2776	19979.55	19097.15
924.3257	1916.9034	19874	18989.55
924.4646	1918.5285	19781.85	18899.75
924.6034	1920.1528	19721.85	18837.6
924.7422	1921.7764	19698.35	18815.2
924.881	1923.3992	19604.05	18720.6
925.0198	1925.0213	19522.2	18636.65
925.1586	1926.6427	19440.2	18556.25
925.2973	1928.2633	19614.8	18481
925.436	1929.8832	19402.95	18515.25
925.5747	1931.5023	19280.15	18395
925.7134	1933.1207	19270.55	18385.6
925.852	1934.7383	19184.3	18298.4
925.9906	1936.3552	19107.35	18223.9
926.1292	1937.9714	19099.25	18216.3
926.2678	1939.5868	18988.25	18101.85
926.4064	1941.2015	18881.35	17995.75
926.5449	1942.8154	18823.45	17937.65
926.6834	1944.4286	18748.05	17861.6
926.8219	1946.041	18708.1	17798.4
926.9604	1947.6528	18625.7	17734.85
927.0988	1949.2637	18564.4	17679.55
927.2372	1950.8739	18473	17588.7
927.3756	1952.4834	18469.25	17583.25
927.514	1954.0921	18429	17543.65
927.6523	1955.7001	18382.35	17491.8
927.7907	1957.3074	18335.1	17452.65
927.929	1958.9139	18280.9	17400.3
928.0673	1960.5197	18179.1	17292.15
928.2055	1962.1247	18107.15	17224.3
928.3438	1963.729	18035.2	17153.65
928.482	1965.3325	17971.55	17067.8
928.6202	1966.9353	17898	17014.55
928.7584	1968.5374	17917.5	17034.25
928.8965	1970.1387	17817.65	16933.85
929.0346	1971.7393	17749.95	16865.45
929.1727	1973.3392	17730.7	16847.2
929.3108	1974.9383	17636.4	16753.95
929.4489	1976.5366	17528.85	16645.25
929.5869	1978.1342	17536.95	16654.6
929.7249	1979.7311	17490.25	16606.35
929.8629	1981.3273	17418.25	16535.4
930.0009	1982.9227	17383.35	16499.9
930.1388	1984.5173	17313.05	16431.35
930.2767	1986.1112	17249.95	16368.4
930.4146	1987.7044	17224.8	16343.15
930.5525	1989.2968	17178.8	16295.5
930.6904	1990.8885	17159.5	16274.45
930.8282	1992.4795	17108.1	16226.05
930.966	1994.0697	17007.75	16126.4
931.1038	1995.6592	16986.95	16106.85
931.2415	1997.2479	16919	16035.6
931.3793	1998.8359	16882.2	16000.8
931.517	2000.4232	16794.7	15913.2
931.6547	2002.0097	16763.05	15883.6
931.7923	2003.5955	16660.05	15777.95
931.93	2005.1805	16700.35	15816.2
932.0676	2006.7648	16643.75	15761.7
932.2052	2008.3484	16588.85	15708.45
932.3427	2009.9312	16615.2	15733.9
932.4803	2011.5133	16514.3	15634.55
932.6178	2013.0946	16451.1	15570.1
932.7553	2014.6752	16427.8	15550.05
932.8928	2016.2551	16377.55	15495.45
933.0302	2017.8342	16299.05	15417.45
933.1676	2019.4126	16255.2	15374.5
933.305	2020.9902	16201.1	15319.45
933.4424	2022.5672	16155.9	15274.1
933.5798	2024.1433	16125.25	15239.2
933.7171	2025.7188	16065.85	15186.75
933.8544	2027.2935	16058.95	15176.95
933.9917	2028.8674	15946.35	15065.75
934.129	2030.4406	15939.7	15062.05
934.2662	2032.0131	15862.6	14982.65
934.4034	2033.5849	15803.95	14917.5
934.5406	2035.1559	15748.25	14870.5
934.6778	2036.7261	15744.85	14865.25
934.8149	2038.2957	15688.95	14807.75
934.952	2039.8645	15685.4	14804.75
935.0891	2041.4325	15662.45	14777.7
935.2262	2042.9998	15596.05	14716.35
935.3632	2044.5664	15584.45	14699.9
935.5002	2046.1323	15527.85	14647.25
935.6372	2047.6974	15460.45	14581.15
935.7742	2049.2617	15387.35	14503.75
935.9111	2050.8254	15433.8	14548.2
936.048	2052.3883	15359.75	14474.1
936.1849	2053.9504	15340.25	14454.25
936.3218	2055.5118	15253.6	14368.3
936.4586	2057.0725	15197.9	14305.8
936.5955	2058.6325	15164.2	14275.8
936.7323	2060.1917	15115.1	14225.45
936.869	2061.7502	15099.05	14205.25
937.0058	2063.3079	15031.85	14139.9
937.1425	2064.8649	14982.7	14087.5
937.2792	2066.4212	14952.15	14061.5
937.4159	2067.9767	14930.8	14041.35
937.5525	2069.5315	14852.45	13963.3
937.6891	2071.0856	14805.25	13919.3
937.8257	2072.6389	14765.05	13879.6
937.9623	2074.1915	14710.9	13829.4
938.0989	2075.7433	14644.55	13760.15
938.2354	2077.2945	14602.25	13721.05
938.3719	2078.8448	14544.65	13662.85
938.5084	2080.3945	14510.8	13628.55
938.6448	2081.9434	14482.45	13600.2
938.7812	2083.4916	14445.65	13562.4
938.9176	2085.039	14362.55	13473.3
939.054	2086.5857	14382.35	13497
939.1903	2088.1317	14323	13436.55
939.3267	2089.677	14299.95	13414.4
939.463	2091.2215	14237.9	13354.15
939.5992	2092.7652	14201.6	13313.15
939.7355	2094.3083	14187.55	13301.9
939.8717	2095.8506	14153.05	13268.85
940.0079	2097.3921	14140.65	13257.35
940.1441	2098.933	14067.85	13185
940.2802	2100.4731	14054.95	13171.25
940.4163	2102.0124	14040.8	13139.65
940.5524	2103.5511	13986.4	13103.6
940.6885	2105.089	13952.8	13071.25
940.8245	2106.6261	13943.05	13060
940.9606	2108.1626	13898.5	13015.85
941.0965	2109.6983	13899.25	12989.25
941.2325	2111.2332	13817.15	12933.65
941.3684	2112.7675	13786.05	12901.85
941.5044	2114.301	13783	12896.3
941.6403	2115.8337	13758.4	12875.05
941.7761	2117.3657	13703.9	12823.25
941.912	2118.897	13690.4	12807.65
942.0478	2120.4276	13636.8	12748.7
942.1835	2121.9575	13558.2	12676.25
942.3193	2123.4866	13586.25	12689.8
942.455	2125.0149	13519.35	12632.35
942.5907	2126.5426	13434.1	12550.45
942.7264	2128.0695	13404.35	12517.2
942.8621	2129.5956	13398.4	12521.05
942.9977	2131.1211	13358.75	12473.15
943.1333	2132.6458	13325	12444.3
943.2689	2134.1698	13291.35	12409.15
943.4044	2135.693	13250.5	12364.65
943.54	2137.2155	13227.85	12341.05
943.6755	2138.7373	13181.75	12297.65
943.8109	2140.2584	13134.15	12254.4
943.9464	2141.7787	13115.15	12228.55
944.0818	2143.2983	13033.45	12152.65
944.2172	2144.8171	12977.55	12099.25
944.3526	2146.3353	12976.05	12095.1
944.4879	2147.8527	12903.35	12024.6
944.6232	2149.3693	12926.05	12044.05
944.7585	2150.8853	12890.65	12006.8
944.8938	2152.4005	12791.8	11909.7
945.029	2153.9149	12780.4	11897.75
945.1642	2155.4287	12760.55	11877.55
945.2994	2156.9417	12735.25	11850.85
945.4346	2158.454	12689.3	11803.85
945.5697	2159.9655	12661.5	11781.45
945.7048	2161.4764	12608.8	11726.15
945.8399	2162.9865	12600.85	11718.9
945.9749	2164.4958	12550.4	11667.65
946.1099	2166.0045	12489.75	11605.6
946.2449	2167.5124	12505.45	11626.25
946.3799	2169.0195	12456.05	11573.35
946.5148	2170.526	12461.35	11579.75
946.6498	2172.0317	12397.75	11515.6
946.7846	2173.5367	12366.8	11483.85
946.9195	2175.0409	12328.6	11447.15
947.0543	2176.5445	12335.6	11455.9
947.1891	2178.0473	12262.55	11379.2
947.3239	2179.5494	12225.8	11340.05
947.4587	2181.0507	12160.3	11277.3
947.5934	2182.5513	12126.9	11244.8
947.7281	2184.0512	12100.8	11217.25
947.8628	2185.5504	12075.2	11194.2
947.9974	2187.0488	12003.15	11122.65
948.132	2188.5465	11974.8	11092.6
948.2666	2190.0435	11918.65	11035.3
948.4012	2191.5397	11885.75	11004.35
948.5357	2193.0353	11850.95	10967.55
948.6702	2194.5301	11785.5	10903.2
948.8047	2196.0241	11768	10885.15
948.9392	2197.5175	11740.05	10856.35
949.0736	2199.0101	11700.05	10813.6
949.208	2200.502	11650.35	10767.55
949.3424	2201.9931	11605	10722.65
949.4767	2203.4835	11569.6	10687
949.611	2204.9733	11559.25	10672.85
949.7453	2206.4622	11548.9	10668.1
949.8796	2207.9505	11493.8	10611.05
950.0138	2209.438	11424.9	10544.8
950.148	2210.9248	11391.85	10509.4
950.2822	2212.4109	11377.95	10497.45
950.4164	2213.8962	11322.05	10437.5
950.5505	2215.3809	11304.75	10420
950.6846	2216.8648	11276.95	10393.95
950.8186	2218.3479	11242.8	10352.35
950.9527	2219.8304	11194.35	10305.65
951.0867	2221.3121	11155.75	10268.55
951.2207	2222.7931	11107.05	10223.1
951.3546	2224.2733	11090.75	10206.45
951.4886	2225.7529	11036.3	10152.85
951.6225	2227.2317	11001.6	10116.2
951.7563	2228.7098	11018.6	10137.5
951.8902	2230.1872	10925.5	10046.55
952.024	2231.6638	10932.6	10053.2
952.1578	2233.1397	10894.75	10007.4
952.2916	2234.6149	10853.1	9973.5
952.4253	2236.0894	10813.65	9930.2
952.559	2237.5632	10800.2	9908.6
952.6927	2239.0362	10758.65	9875.35
952.8263	2240.5085	10730.55	9847.15
952.9599	2241.9801	10677.45	9792.7
953.0935	2243.4509	10661.35	9779.05
953.2271	2244.921	10591.05	9706.85
953.3606	2246.3904	10589.95	9705.9
953.4941	2247.8591	10563.5	9682.05
953.6276	2249.3271	10509.15	9626.3
953.7611	2250.7943	10460.55	9577.35
953.8945	2252.2608	10405.55	9520.05
954.0279	2253.7266	10416.05	9533.75
954.1612	2255.1917	10379	9494.45
954.2946	2256.656	10330.5	9447.95
954.4279	2258.1197	10316.4	9434.6
954.5612	2259.5826	10296.05	9413.8
954.6944	2261.0447	10281.85	9398.75
954.8276	2262.5062	10231.7	9348.6
954.9608	2263.9669	10232	9346.35
955.094	2265.4269	10194.65	9313.4
955.2271	2266.8862	10146.55	9263.75
955.3602	2268.3448	10140.55	9258.75
955.4933	2269.8026	10132.4	9248.2
955.6264	2271.2598	10081.5	9200.35
955.7594	2272.7162	10049.75	9167.45
955.8924	2274.1719	10030.25	9148
956.0253	2275.6268	9999.65	9115.9
956.1583	2277.0811	9998	9114.35
956.2912	2278.5346	9966.8	9083.45
956.4241	2279.9874	9951.05	9070.35
956.5569	2281.4395	9929.85	9049.95
956.6897	2282.8908	9857.6	8974
956.8225	2284.3414	9852.4	8969.35
956.9553	2285.7914	9813.45	8931.9
957.088	2287.2406	9778.5	8894.1
957.2207	2288.689	9760.6	8877.65
957.3534	2290.1368	9736.8	8852.4
957.486	2291.5838	9711.2	8824.1
957.6186	2293.0302	9695.75	8808.75
957.7512	2294.4758	9645.35	8758.95
957.8838	2295.9206	9603.4	8718.25
958.0163	2297.3648	9577	8694.05
958.1488	2298.8082	9552.65	8670.35
958.2813	2300.251	9517.1	8634.05
958.4137	2301.693	9488.6	8602.95
958.5461	2303.1343	9510.9	8624.7
958.6785	2304.5748	9452.45	8569.8
958.8108	2306.0147	9407.35	8524.1
958.9432	2307.4538	9397.9	8514.2
959.0754	2308.8922	9372.8	8492.1
959.2077	2310.3299	9355.65	8474.4
959.3399	2311.7669	9326	8444.2
959.4721	2313.2031	9291.6	8410
959.6043	2314.6387	9259.95	8376.6
959.7365	2316.0735	9228.25	8345.1
959.8686	2317.5076	9210.9	8328.15
960.0006	2318.941	9187.4	8304.3
960.1327	2320.3737	9171.6	8288.35
960.2647	2321.8056	9143.2	8258.9
960.3967	2323.2369	9125.25	8242.75
960.5287	2324.6674	9099.55	8215.5
960.6606	2326.0972	9055.55	8171
960.7925	2327.5263	9015.25	8133.05
960.9244	2328.9547	8986	8101.7
961.0562	2330.3823	8960.65	8075
961.1881	2331.8092	8939.1	8050.4
961.3198	2333.2355	8907.75	8021.95
961.4516	2334.661	8899.6	8014.35
961.5833	2336.0858	8890.4	8001.7
961.715	2337.5098	8884.45	8001.5
961.8467	2338.9332	8826.85	7943.8
961.9783	2340.3558	8823.3	7936
962.1099	2341.7778	8780.85	7898.35
962.2415	2343.199	8731.35	7846.95
962.373	2344.6195	8738.3	7855.95
962.5045	2346.0393	8695.7	7813.85
962.636	2347.4583	8677.3	7793.7
962.7675	2348.8767	8647.5	7761.75
962.8989	2350.2943	8641.35	7756.35
963.0303	2351.7113	8615.15	7729.7
963.1617	2353.1275	8593.45	7706.95
963.293	2354.543	8565.35	7671.05
963.4243	2355.9578	8530.55	7646.1
963.5556	2357.3718	8475.7	7593.2
963.6868	2358.7852	8476.35	7591.6
963.818	2360.1978	8425.35	7542.25
963.9492	2361.6098	8419.55	7536.7
964.0803	2363.021	8367.15	7481
964.2114	2364.4315	8388.45	7503.6
964.3425	2365.8413	8339	7454.6
964.4736	2367.2504	8301.9	7420.5
964.6046	2368.6587	8278.1	7395.7
964.7356	2370.0664	8250.15	7368.05
964.8666	2371.4733	8230.05	7347.85
964.9975	2372.8795	8209.25	7327.7
965.1284	2374.285	8153.25	7271
965.2593	2375.6899	8132.9	7247.95
965.3901	2377.0939	8090.3	7210.55
965.5209	2378.4973	8064.8	7181.8
965.6517	2379.9	8053.4	7170.4
965.7825	2381.3019	8009.2	7127.15
965.9132	2382.7032	7978.3	7096.3
966.0439	2384.1037	8000.3	7121.1
966.1745	2385.5035	7955.35	7074.85
966.3051	2386.9027	7916.95	7035.55
966.4357	2388.3011	7924	7036.7
966.5663	2389.6987	7883.05	7000.4
966.6968	2391.0957	7850.75	6968.6
966.8273	2392.492	7850	6967.1
966.9578	2393.8876	7784.55	6901.9
967.0882	2395.2824	7773.85	6892
967.2186	2396.6765	7728.25	6846.8
967.349	2398.07	7698.15	6815.35
967.4793	2399.4627	7696.7	6811.7
967.6097	2400.8547	7666.5	6786.05
967.7399	2402.246	7638	6750.8
967.8702	2403.6366	7580.9	6698.45
968.0004	2405.0265	7558.1	6676.9
968.1306	2406.4156	7533.85	6646.8
968.2607	2407.8041	7510.7	6623.55
968.3909	2409.1918	7474.5	6588.2
968.521	2410.5789	7453.65	6570.85
968.651	2411.9652	7439.15	6551.55
968.781	2413.3508	7409.25	6526.45
968.911	2414.7358	7370.05	6486.85
969.041	2416.12	7336.1	6453.35
969.1709	2417.5035	7353.05	6469.55
969.3008	2418.8863	7321.45	6438.15
969.4307	2420.2684	7280.75	6395.1
969.5606	2421.6497	7265.1	6381.45
969.6904	2423.0304	7205.1	6323.15
969.8201	2424.4104	7215	6333.05
969.9499	2425.7896	7175.55	6290.3
970.0796	2427.1682	7158.1	6273.85
970.2093	2428.546	7150.55	6265.4
970.3389	2429.9232	7136.7	6253.05
970.4685	2431.2996	7116.75	6232.95
970.5981	2432.6753	7106.55	6225.05
970.7277	2434.0503	7071.85	6188.95
970.8572	2435.4246	7068.8	6185
970.9867	2436.7982	7027.15	6142.85
971.1161	2438.1711	7008.65	6125.7
971.2456	2439.5433	6991.8	6108.5
971.375	2440.9148	6974.8	6087.6
971.5043	2442.2856	6920.75	6037.45
971.6336	2443.6557	6896.7	6010.85
971.7629	2445.025	6881.9	6000.5
971.8922	2446.3937	6884.5	6001.55
972.0214	2447.7617	6844.8	5960.6
972.1506	2449.1289	6849.3	5967.9
972.2798	2450.4955	6826.05	5938.95
972.4089	2451.8613	6801.3	5919.7
972.538	2453.2265	6788.75	5906.5
972.6671	2454.5909	6775.55	5892.25
972.7961	2455.9546	6767.7	5884.8
972.9251	2457.3177	6740.3	5857.7
973.0541	2458.68	6706.9	5821.8
973.1831	2460.0416	6717.6	5834.35
973.312	2461.4025	6674.7	5791.15
973.4408	2462.7627	6664.35	5770.55
973.5697	2464.1222	6641.95	5760.7
973.6985	2465.4811	6627.85	5745.25
973.8273	2466.8392	6610.1	5725.4
973.956	2468.1966	6579.15	5693.6
974.0847	2469.5533	6576.75	5691.3
974.2134	2470.9093	6538.75	5656.55
974.3421	2472.2645	6525.95	5641.2
974.4707	2473.6191	6516.1	5632.95
974.5993	2474.973	6481.35	5597.8
974.7278	2476.3262	6486.35	5602.3
974.8563	2477.6787	6436.25	5553.45
974.9848	2479.0305	6409.35	5526.05
975.1132	2480.3816	6418.4	5534.2
975.2417	2481.7319	6373.05	5491.85
975.37	2483.0816	6360.85	5477.4
975.4984	2484.4306	6354.4	5472.5
975.6267	2485.7789	6305.95	5424.85
975.755	2487.1264	6273.6	5390.2
975.8833	2488.4733	6265.75	5382.5
976.0115	2489.8195	6246.05	5355.85
976.1397	2491.165	6234.6	5348.8
976.2678	2492.5097	6218.35	5333.55
976.3959	2493.8538	6190.8	5310.05
976.524	2495.1972	6164.75	5280
976.6521	2496.5398	6133.8	5247.8
976.7801	2497.8818	6141.4	5257.25
976.9081	2499.2231	6097.95	5215.25
977.036	2500.5637	6071.15	5186.75
977.164	2501.9035	6080.65	5197.5
977.2918	2503.2427	6069.25	5183.3
977.4197	2504.5812	6027.8	5144.5
977.5475	2505.919	6009.05	5123.65
977.6753	2507.256	5984.4	5102.8
977.8031	2508.5924	5964.45	5079.75
977.9308	2509.9281	5947.1	5057.7
978.0585	2511.2631	5955.85	5072.65
978.1861	2512.5974	5922.6	5038.6
978.3137	2513.9309	5922	5039
978.4413	2515.2638	5926.75	5015.2
978.5689	2516.596	5882.6	5000.3
978.6964	2517.9275	5855.65	4971.2
978.8239	2519.2583	5846.1	4962.25
978.9513	2520.5884	5822.9	4939.05
979.0788	2521.9178	5802.25	4921.7
979.2062	2523.2465	5777.25	4895.9
979.3335	2524.5745	5746.95	4865.1
979.4608	2525.9018	5732.65	4848.3
979.5881	2527.2284	5713.1	4830.85
979.7154	2528.5543	5700.9	4818.05
979.8426	2529.8796	5685.65	4802.8
979.9698	2531.2041	5675.05	4792.35
980.0969	2532.5279	5680.05	4799.95
980.224	2533.851	5650.95	4767.7
980.3511	2535.1735	5628.3	4746.5
980.4781	2536.4952	5631.55	4749.8
980.6052	2537.8163	5600.75	4716.25
980.7321	2539.1366	5596.25	4713.9
980.8591	2540.4562	5586.7	4701.35
980.986	2541.7752	5575.8	4692.5
981.1129	2543.0935	5563.75	4680.3
981.2397	2544.411	5542.7	4656.25
981.3665	2545.7279	5543	4660.9
981.4933	2547.0441	5536.25	4654.4
981.62	2548.3596	5541.95	4656.25
981.7467	2549.6744	5508.15	4625.75
981.8734	2550.9885	5494.5	4601.6
982.0001	2552.3019	5480.8	4599.1
982.1267	2553.6146	5461	4577.5
982.2532	2554.9266	5439.15	4555
982.3798	2556.2379	5424.55	4541.4
982.5063	2557.5485	5408.2	4525.2
982.6327	2558.8585	5392.05	4501.4
982.7592	2560.1677	5384.8	4495.25
982.8856	2561.4762	5394.85	4513.65
983.0119	2562.7841	5386.55	4499.05
983.1383	2564.0913	5367.55	4485.25
983.2646	2565.3977	5334.55	4452.35
983.3908	2566.7035	5341.2	4458.65
983.517	2568.0086	5329.4	4444.2
983.6432	2569.313	5315.5	4433.45
983.7694	2570.6167	5313.45	4425.65
983.8955	2571.9197	5303.6	4421.4
984.0216	2573.222	5292.75	4406.95
984.1476	2574.5236	5281	4396.7
984.2737	2575.8246	5287.65	4402.6
984.3996	2577.1248	5253.95	4368.65
984.5256	2578.4244	5231.5	4347.2
984.6515	2579.7232	5226.1	4342.75
984.7774	2581.0214	5238.85	4330.85
984.9032	2582.3189	5221.75	4340.65
985.029	2583.6157	5203.65	4314.85
985.1548	2584.9118	5189.25	4305.85
985.2806	2586.2072	5184.95	4302.9
985.4063	2587.5019	5163.8	4283.7
985.5319	2588.7959	5133.05	4250.45
985.6576	2590.0893	5141.4	4256.15
985.7832	2591.3819	5133.3	4251.2
985.9087	2592.6739	5101.8	4218.8
986.0343	2593.9652	5089.15	4204.1
986.1597	2595.2557	5067.4	4182.55
986.2852	2596.5456	5061.35	4176.7
986.4106	2597.8348	5045.15	4162.8
986.536	2599.1234	5034.9	4152.85
986.6614	2600.4112	5009.45	4127.45
986.7867	2601.6983	4994.9	4108.15
986.912	2602.9848	4972.85	4088.9
987.0372	2604.2705	4969	4079.45
987.1624	2605.5556	4946.05	4062.25
987.2876	2606.84	4922.3	4040.8
987.4128	2608.1237	4909.5	4024.15
987.5379	2609.4067	4893.7	4011.8
987.6629	2610.689	4877.8	3986.7
987.788	2611.9707	4868.35	3982.25
987.913	2613.2516	4860.4	3973.25
988.0379	2614.5319	4823.95	3943.05
988.1629	2615.8115	4808.05	3925.15
988.2878	2617.0903	4791.2	3905.95
988.4126	2618.3685	4772.5	3888.5
988.5375	2619.6461	4762.25	3879.85
988.6622	2620.9229	4747.5	3865.4
988.787	2622.199	4736.05	3852.7
988.9117	2623.4745	4745.55	3861.7
989.0364	2624.7493	4709.55	3828.95
989.161	2626.0234	4703.9	3820.6
989.2857	2627.2968	4702.15	3821.45
989.4102	2628.5695	4665.15	3782.4
989.5348	2629.8415	4643.75	3761.2
989.6593	2631.1128	4637.7	3755.05
989.7837	2632.3835	4615.35	3732.15
989.9082	2633.6535	4594.6	3712.15
990.0326	2634.9228	4580.75	3697.5
990.1569	2636.1914	4574	3690.95
990.2812	2637.4593	4549.15	3661.3
990.4055	2638.7265	4550.85	3667.6
990.5298	2639.9931	4524	3639.85
990.654	2641.259	4512	3627.5
990.7782	2642.5242	4508.5	3624.5
990.9023	2643.7887	4497.15	3612.8
991.0264	2645.0525	4475.2	3593.2
991.1505	2646.3156	4459.4	3576.8
991.2745	2647.5781	4446.55	3564.25
991.3985	2648.8398	4460.15	3578.6
991.5225	2650.1009	4449.35	3532.6
991.6464	2651.3613	4423.4	3541.8
991.7703	2652.6211	4406.85	3524.2
991.8942	2653.8801	4385.2	3505.15
992.018	2655.1385	4380.05	3493.85
992.1418	2656.3961	4367.15	3484.95
992.2655	2657.6531	4382.15	3498.45
992.3892	2658.9094	4353.35	3470.8
992.5129	2660.1651	4354.65	3472.85
992.6366	2661.42	4351	3467.9
992.7602	2662.6743	4336.5	3454.55
992.8837	2663.9279	4315.8	3433.65
993.0073	2665.1808	4307.75	3425.55
993.1307	2666.433	4292.95	3410.4
993.2542	2667.6846	4288.5	3404.7
993.3776	2668.9354	4270.15	3386.05
993.501	2670.1856	4257.25	3373.8
993.6244	2671.4351	4238.05	3356.65
993.7477	2672.6839	4241.25	3357.7
993.8709	2673.9321	4227.05	3345.55
993.9942	2675.1795	4223	3341.1
994.1174	2676.4263	4213.9	3332.75
994.2405	2677.6724	4196.05	3315.25
994.3637	2678.9179	4185.45	3302.9
994.4868	2680.1626	4166.55	3285.05
994.6098	2681.4067	4178.15	3295.95
994.7328	2682.6501	4147.35	3265.3
994.8558	2683.8928	4139.65	3259
994.9788	2685.1348	4120.2	3237.2
995.1017	2686.3761	4100.7	3218.25
995.2245	2687.6168	4100.6	3218.45
995.3474	2688.8568	4087.5	3207.3
995.4702	2690.0961	4067.55	3186.85
995.5929	2691.3348	4062.5	3181.95
995.7156	2692.5727	4051.1	3167.1
995.8383	2693.81	4051.35	3167.7
995.961	2695.0466	4031.7	3152
996.0836	2696.2826	4019.5	3134.7
996.2062	2697.5178	4030.35	3128.9
996.3287	2698.7524	4008.45	3125.55
996.4512	2699.9863	3988	3103.95
996.5737	2701.2195	3986.95	3105.4
996.6961	2702.452	3980.15	3093.9
996.8185	2703.6839	3965.65	3081.8
996.9408	2704.9151	3944.3	3064.45
997.0631	2706.1456	3936.4	3055.1
997.1854	2707.3755	3905.6	3023.35
997.3077	2708.6046	3913.15	3027.65
997.4299	2709.8331	3909.85	3028.55
997.552	2711.0609	3911.6	3031.85
997.6742	2712.2881	3902.2	3018.05
997.7963	2713.5145	3877.1	2993.2
997.9183	2714.7403	3866.7	2983.45
998.0403	2715.9654	3858.7	2975.2
998.1623	2717.1899	3844.6	2960.75
998.2842	2718.4136	3848.95	2966.35
998.4062	2719.6367	3844.7	2962.75
998.528	2720.8591	3822.85	2933.05
998.6498	2722.0809	3807.95	2926.35
998.7716	2723.3019	3805.75	2918.9
998.8934	2724.5223	3805.5	2922.05
999.0151	2725.7421	3791.35	2908.15
999.1368	2726.9611	3795.5	2910.85
999.2584	2728.1795	3768.4	2882.45
999.38	2729.3972	3750.1	2868.8
999.5016	2730.6142	3736.35	2846.15
999.6231	2731.8306	3726.45	2843.4
999.7446	2733.0462	3707.05	2824.6
999.8661	2734.2612	3676.7	2790.7
999.9875	2735.4756	3677.9	2794.15
1000.1089	2736.6892	3646.05	2762.45
1000.2302	2737.9022	3630.15	2751.15
1000.3515	2739.1145	3628.3	2747.2
1000.4728	2740.3262	3615.05	2725.05
1000.594	2741.5372	3592.2	2712
1000.7152	2742.7475	3573.4	2689.2
1000.8363	2743.9571	3571.4	2688.75
1000.9575	2745.1661	3572	2683.65
1001.0785	2746.3744	3561.8	2678
1001.1996	2747.582	3534.45	2653.85
1001.3206	2748.7889	3540.1	2654.15
1001.4415	2749.9952	3525.1	2643.3
1001.5625	2751.2008	3515.8	2634.05
1001.6833	2752.4057	3492.8	2609.6
1001.8042	2753.61	3479.7	2598.1
1001.925	2754.8136	3459.75	2576
1002.0458	2756.0165	3454.2	2574.4
1002.1665	2757.2188	3449.35	2567.5
1002.2872	2758.4204	3432.25	2550.05
1002.4078	2759.6213	3436.45	2552.5
1002.5285	2760.8215	3422.7	2537.35
1002.649	2762.0211	3416.85	2533.85
1002.7696	2763.22	3412.9	2528.4
1002.8901	2764.4182	3400.15	2516.1
1003.0106	2765.6158	3397.7	2514.9
1003.131	2766.8127	3375.45	2493.4
1003.2514	2768.009	3360.65	2481
1003.3717	2769.2045	3355.4	2474.15
1003.492	2770.3994	3360.75	2476.25
1003.6123	2771.5936	3349.3	2466.9
1003.7325	2772.7872	3317.95	2437.15
1003.8527	2773.9801	3313.55	2429.3
1003.9729	2775.1723	3327.65	2428.35
1004.093	2776.3639	3297.65	2416.35
1004.2131	2777.5548	3273.95	2389.5
1004.3331	2778.745	3279.7	2397
1004.4531	2779.9346	3271.1	2391.15
1004.5731	2781.1235	3268.45	2385.85
1004.693	2782.3117	3252	2371.95
1004.8129	2783.4992	3237.25	2356.5
1004.9328	2784.6861	3238.9	2355.9
1005.0526	2785.8723	3225.6	2343.05
1005.1723	2787.0579	3212.3	2330.55
1005.2921	2788.2428	3207.1	2325.5
1005.4118	2789.427	3198.4	2319.45
1005.5314	2790.6106	3193.6	2312.95
1005.651	2791.7935	3183.45	2301.3
1005.7706	2792.9757	3170.7	2289.85
1005.8902	2794.1573	3169.5	2287.85
1006.0097	2795.3382	3162.05	2277.8
1006.1291	2796.5184	3155.75	2276.3
1006.2485	2797.698	3148.6	2267.3
1006.3679	2798.8769	3148.75	2268.9
1006.4873	2800.0551	3151.35	2269.35
1006.6066	2801.2327	3139.8	2257.85
1006.7258	2802.4096	3119.5	2238.9
1006.8451	2803.5859	3128.35	2246.4
1006.9642	2804.7615	3125.7	2245
1007.0834	2805.9364	3121	2240.05
1007.2025	2807.1106	3126.3	2245.8
1007.3216	2808.2842	3112.6	2231.15
1007.4406	2809.4572	3116.3	2233.65
1007.5596	2810.6294	3129.05	2246.55
1007.6785	2811.801	3123.15	2243.95
1007.7975	2812.972	3137.95	2256
1007.9163	2814.1423	3136.9	2256.6
1008.0352	2815.3119	3151.15	2269.25
1008.154	2816.4808	3166.8	2287.75
1008.2727	2817.6491	3171.65	2287.8
1008.3914	2818.8167	3176.75	2295.8
1008.5101	2819.9837	3189.6	2303.9
1008.6288	2821.15	3192.1	2309.65
1008.7474	2822.3157	3211.35	2331.85
1008.8659	2823.4807	3222.85	2341.7
1008.9844	2824.645	3233	2350.7
1009.1029	2825.8086	3241.45	2361.9
1009.2214	2826.9716	3262.95	2383.25
1009.3398	2828.134	3274	2393.8
1009.4581	2829.2957	3291.05	2410.55
1009.5764	2830.4567	3290.8	2412
1009.6947	2831.617	3288.85	2407.4
1009.813	2832.7767	3296	2413.6
1009.9312	2833.9358	3274.65	2394.25
1010.0493	2835.0941	3272.85	2387.95
1010.1675	2836.2519	3274.1	2393.1
1010.2855	2837.4089	3249.9	2367.75
1010.4036	2838.5653	3238.25	2357.3
1010.5216	2839.7211	3241.5	2362.05
1010.6396	2840.8761	3227.6	2345.75
1010.7575	2842.0306	3232.85	2353.05
1010.8754	2843.1843	3234.35	2355.45
1010.9932	2844.3374	3240.15	2358.45
1011.111	2845.4899	3249.4	2367.95
1011.2288	2846.6417	3262.5	2381.2
1011.3465	2847.7928	3268.65	2390.1
1011.4642	2848.9433	3282.55	2404.1
1011.5818	2850.0931	3301.4	2421.4
1011.6995	2851.2422	3334.25	2452.7
1011.817	2852.3907	3336.85	2455.35
1011.9345	2853.5385	3355.85	2473.7
1012.052	2854.6857	3369.4	2478.15
1012.1695	2855.8323	3375.55	2494.5
1012.2869	2856.9781	3387.2	2506.4
1012.4042	2858.1233	3400.7	2517.75
1012.5216	2859.2679	3397.3	2516.9
1012.6389	2860.4118	3421.55	2541.75
1012.7561	2861.555	3422.45	2535.2
1012.8733	2862.6976	3421.1	2539.95
1012.9905	2863.8395	3424.95	2546.35
1013.1076	2864.9808	3428.6	2547.7
1013.2247	2866.1214	3429.4	2552.05
1013.3417	2867.2614	3428.75	2548.8
1013.4587	2868.4007	3435.05	2553.95
1013.5757	2869.5393	3433.05	2550.5
1013.6926	2870.6773	3430.25	2546.5
1013.8095	2871.8146	3415.65	2530.65
1013.9263	2872.9513	3406.65	2523.9
1014.0431	2874.0874	3403	2523.15
1014.1599	2875.2227	3377.35	2497.15
1014.2766	2876.3574	3371.6	2489.9
1014.3933	2877.4915	3357.45	2478.25
1014.51	2878.6249	3340.6	2459.2
1014.6266	2879.7577	3316.75	2435.1
1014.7431	2880.8898	3320.7	2428.4
1014.8596	2882.0212	3303.05	2423.05
1014.9761	2883.152	3291	2410.8
1015.0925	2884.2821	3278.05	2397.7
1015.2089	2885.4116	3269.15	2390.5
1015.3253	2886.5405	3258.9	2378.25
1015.4416	2887.6686	3261	2377.5
1015.5579	2888.7962	3251	2371.85
1015.6741	2889.923	3244.5	2364.4
1015.7903	2891.0493	3250.6	2371.9
1015.9065	2892.1748	3255.35	2374.85
1016.0226	2893.2997	3244.25	2362.35
1016.1387	2894.424	3234.75	2354.65
1016.2547	2895.5476	3238.85	2355.6
1016.3707	2896.6706	3225.4	2345.5
1016.4866	2897.7929	3223.7	2342.4
1016.6025	2898.9145	3239.7	2359.6
1016.7184	2900.0355	3229.2	2348.6
1016.8342	2901.1559	3251.85	2371
1016.95	2902.2756	3253.8	2372.4
1017.0658	2903.3946	3252	2373.25
1017.1815	2904.513	3264.75	2381.85
1017.2971	2905.6308	3261.25	2381.95
1017.4127	2906.7479	3256.1	2374.85
1017.5283	2907.8643	3261.75	2380.45
1017.6439	2908.9801	3261.4	2380.2
1017.7594	2910.0953	3246.1	2364.3
1017.8748	2911.2098	3242.95	2360.05
1017.9902	2912.3236	3236.35	2349.75
1018.1056	2913.4368	3223	2340.25
1018.2209	2914.5494	3213.3	2334.4
1018.3362	2915.6613	3190.65	2304.2
1018.4515	2916.7725	3174.85	2291.7
1018.5667	2917.8831	3160.65	2279.2
1018.6819	2918.9931	3149.95	2268.35
1018.797	2920.1024	3126.65	2243.9
1018.9121	2921.211	3125.45	2244.85
1019.0271	2922.319	3101.9	2219.5
1019.1421	2923.4264	3081.85	2202.15
1019.2571	2924.5331	3094.3	2215.4
1019.372	2925.6391	3076.95	2197.4
1019.4869	2926.7445	3063.65	2182.9
1019.6017	2927.8493	3071.4	2192.55
1019.7165	2928.9534	3060.75	2181.45
1019.8313	2930.0569	3062.3	2181.05
1019.946	2931.1597	3050.55	2169.7
1020.0606	2932.2619	3046.5	2167.65
1020.1753	2933.3634	3052.65	2172.85
1020.2899	2934.4643	3045.95	2159.65
1020.4044	2935.5645	3032.7	2147.25
1020.5189	2936.6641	3032.7	2147.7
1020.6334	2937.763	3002.05	2122.45
1020.7478	2938.8613	2991.3	2110.6
1020.8622	2939.959	2975.4	2090.85
1020.9765	2941.056	2927.3	2044.75
1021.0908	2942.1523	2904.2	2023.8
1021.2051	2943.248	2869.45	1989.05
1021.3193	2944.3431	2840.2	1960.55
1021.4334	2945.4375	2795.35	1916.25
1021.5476	2946.5313	2763.15	1885
1021.6617	2947.6244	2720.75	1843.8
1021.7757	2948.7169	2686.2	1804
1021.8897	2949.8087	2649.1	1769.1
1022.0037	2950.8999	2604.35	1726.3
1022.1176	2951.9904	2573.05	1693.1
1022.2315	2953.0803	2538.3	1659.75
1022.3453	2954.1696	2511.9	1630.7
1022.4591	2955.2582	2493.55	1612.5
1022.5728	2956.3462	2464.95	1585.6
1022.6865	2957.4335	2446.25	1565.5
1022.8002	2958.5202	2447.5	1566.8
1022.9138	2959.6062	2424.75	1544.15
1023.0274	2960.6916	2409.4	1531.9
1023.141	2961.7764	2393.6	1512.4
1023.2545	2962.8605	2381.85	1501.9
1023.3679	2963.9439	2371	1489.75
1023.4813	2965.0267	2371.15	1492
1023.5947	2966.1089	2377.7	1474.35
1023.708	2967.1905	2357.55	1479
1023.8213	2968.2714	2348.65	1468.3
1023.9346	2969.3516	2339.95	1458.35
1024.0478	2970.4312	2332.4	1443.75
1024.1609	2971.5102	2344.1	1464.15
1024.274	2972.5885	2325.4	1447.6
1024.3871	2973.6662	2326.95	1442.7
1024.5002	2974.7432	2309.25	1430.2
1024.6132	2975.8196	2310.55	1431.2
1024.7261	2976.8954	2307.55	1428.9
1024.839	2977.9705	2295.2	1416.55
1024.9519	2979.045	2297.05	1417.1
1025.0647	2980.1188	2275.15	1396.95
1025.1775	2981.192	2275.85	1397.85
1025.2902	2982.2645	2255.25	1375
1025.4029	2983.3364	2246.75	1369.2
1025.5156	2984.4077	2239.4	1360.85
1025.6282	2985.4783	2220.25	1333.15
1025.7407	2986.5483	2206.9	1327.4
1025.8532	2987.6177	2185.9	1304.65
1025.9657	2988.6864	2169.5	1290.35
1026.0782	2989.7545	2170.9	1289
1026.1906	2990.8219	2151.3	1271.5
1026.3029	2991.8887	2138.65	1257.3
1026.4152	2992.9548	2131.55	1252.05
1026.5275	2994.0204	2098.4	1219.85
1026.6397	2995.0852	2086.6	1210.15
1026.7519	2996.1495	2074.5	1193.85
1026.864	2997.2131	2059.3	1179.3
1026.9761	2998.276	2048.05	1166.75
1027.0882	2999.3383	2037.05	1156
1027.2002	3000.4	2020.9	1140.8
1027.3122	3001.4611	2011.65	1131.75
1027.4241	3002.5215	1998.2	1118.1
1027.536	3003.5812	1996.95	1118.55
1027.6478	3004.6404	1987.8	1107.85
1027.7596	3005.6989	1971.4	1090.2
1027.8714	3006.7567	1974.95	1094.6
1027.9831	3007.8139	1996	1085.1
1028.0947	3008.8705	1958.65	1077.9
1028.2064	3009.9264	1951.25	1067.55
1028.3179	3010.9818	1941.7	1063.25
1028.4295	3012.0364	1935.05	1053.15
1028.541	3013.0905	1930.55	1051.8
1028.6524	3014.1439	1931.4	1052.2
1028.7638	3015.1966	1915.5	1036.6
1028.8752	3016.2487	1919.85	1040.85
1028.9865	3017.3002	1911.75	1028.45
1029.0978	3018.3511	1905.35	1028.05
1029.209	3019.4013	1895.65	1016.95
1029.3202	3020.4509	1902.3	1022.65
1029.4314	3021.4998	1892.2	1013.75
1029.5425	3022.5481	1897.65	1018.15
1029.6535	3023.5958	1896.35	1018.05
1029.7645	3024.6428	1874.15	992.1
1029.8755	3025.6892	1874.85	994.6
1029.9864	3026.735	1871.45	993.4
1030.0973	3027.7802	1867.9	986.8
1030.2082	3028.8247	1857.35	979.15
1030.319	3029.8685	1859.95	980.55
1030.4297	3030.9118	1861	979.9
1030.5404	3031.9544	1853.65	974.9
1030.6511	3032.9963	1849.05	969.15
1030.7617	3034.0376	1845.45	968.3
1030.8723	3035.0783	1853.7	972.7
1030.9829	3036.1184	1844	962.15
1031.0934	3037.1578	1832.85	955.25
1031.2038	3038.1966	1837.75	957.65
1031.3142	3039.2348	1827.15	948.1
1031.4246	3040.2723	1828.55	941.2
1031.5349	3041.3092	1826.95	945.9
1031.6452	3042.3455	1819.8	939.65
1031.7554	3043.3811	1810.95	929.15
1031.8656	3044.4161	1812.05	932.1
1031.9758	3045.4505	1806.55	929
1032.0859	3046.4842	1796.25	916.2
1032.1959	3047.5173	1800.9	923.9
1032.3059	3048.5498	1797.85	919.05
1032.4159	3049.5816	1785.4	905.9
1032.5258	3050.6128	1785.5	904.6
1032.6357	3051.6434	1781.85	900.95
1032.7455	3052.6734	1779.55	899.2
1032.8553	3053.7027	1773.15	893
1032.9651	3054.7314	1771.95	892.4
1033.0748	3055.7594	1764.7	885.9
1033.1845	3056.7868	1762.25	883.55
1033.2941	3057.8136	1760.3	882.3
1033.4037	3058.8398	1755.1	876.3
1033.5132	3059.8653	1744.45	863
1033.6227	3060.8902	1747.25	868.3
1033.7321	3061.9145	1733.15	853.55
1033.8415	3062.9381	1746.2	867
1033.9509	3063.9612	1756.7	862.05
1034.0602	3064.9835	1729.25	848.2
1034.1694	3066.0053	1719.85	839.75
1034.2787	3067.0264	1723.45	844.55
1034.3878	3068.0469	1718.05	837.6
1034.497	3069.0668	1713.45	831.6
1034.6061	3070.086	1708	829.55
1034.7151	3071.1046	1705.2	827.15
1034.8241	3072.1226	1697	816
1034.9331	3073.1399	1688.35	810.9
1035.042	3074.1567	1686.45	806.35
1035.1508	3075.1727	1682.4	800.5
1035.2597	3076.1882	1669.5	790.2
1035.3684	3077.203	1669.25	789.3
1035.4772	3078.2173	1664.6	783.5
1035.5859	3079.2308	1666.75	783.55
1035.6945	3080.2438	1654.9	772.2
1035.8031	3081.2561	1652.4	772.45
1035.9117	3082.2678	1638.6	760.25
1036.0202	3083.2789	1641	763.2
1036.1286	3084.2893	1638.7	761.9
1036.2371	3085.2991	1626.55	746.5
1036.3454	3086.3083	1630.05	747.15
1036.4538	3087.3169	1626.35	745.65
1036.562	3088.3248	1616.15	734.2
1036.6703	3089.3321	1624.6	743.2
1036.7785	3090.3388	1603.1	724.35
1036.8866	3091.3449	1604.1	724.35
1036.9948	3092.3503	1600.85	720.2
1037.1028	3093.3551	1592.75	715.7
1037.2108	3094.3593	1593.25	716.95
1037.3188	3095.3629	1585.25	706.8
1037.4267	3096.3658	1582.6	701.9
1037.5346	3097.3681	1578.15	697.9
1037.6425	3098.3698	1576.75	697.2
1037.7503	3099.3708	1574.45	688.8
1037.858	3100.3713	1571.7	692.1
1037.9657	3101.3711	1558.25	679.45
1038.0734	3102.3702	1693.5	680.85
1038.181	3103.3688	1554.4	674
1038.2886	3104.3667	1547.05	667.7
1038.3961	3105.364	1545.7	668.15
1038.5036	3106.3607	1541.95	660
1038.611	3107.3568	1543.25	661.9
1038.7184	3108.3522	1530.65	653.05
1038.8257	3109.347	1525.2	646.2
1038.933	3110.3412	1527.7	642.8
1039.0403	3111.3348	1522.5	642.9
1039.1475	3112.3277	1510.25	631.25
1039.2547	3113.32	1512.5	632.2
1039.3618	3114.3117	1509.8	631.2
1039.4689	3115.3028	1507.7	629.35
1039.5759	3116.2932	1496.6	614.2
1039.6829	3117.2831	1503.8	619.65
1039.7898	3118.2723	1491.95	612.15
1039.8967	3119.2608	1490.95	614
1040.0035	3120.2488	1494.45	615.45
1040.1103	3121.2361	1485.65	605.65
1040.2171	3122.2229	1483.2	604.6
1040.3238	3123.209	1483.35	604
1040.4305	3124.1944	1476.05	597.75
1040.5371	3125.1793	1474.85	593.75
1040.6437	3126.1635	1469.8	591.9
1040.7502	3127.1471	1460.7	581.55
1040.8567	3128.1301	1460.35	580.7
1040.9631	3129.1125	1459.2	580.1
1041.0695	3130.0942	1459.65	579.25
1041.1759	3131.0753	1461.05	574.3
1041.2822	3132.0558	1449.9	567.65
1041.3884	3133.0357	1451.1	571.6
1041.4946	3134.015	1449.6	568.8
1041.6008	3134.9936	1447.9	567.5
1041.7069	3135.9716	1458.35	558.7
1041.813	3136.949	1435.05	556.25
1041.919	3137.9258	1440.95	557.7
1042.025	3138.902	1440.65	554.9
1042.1309	3139.8775	1431.1	553.1
1042.2368	3140.8524	1426.95	548.5
1042.3427	3141.8267	1433	550.3
1042.4485	3142.8004	1426.4	547.45
1042.5542	3143.7735	1429	544.6
1042.6599	3144.7459	1419	538.25
1042.7656	3145.7178	1420.95	542.75
1042.8712	3146.689	1414.85	536.85
1042.9768	3147.6596	1417.85	536.25
1043.0823	3148.6295	1415.3	534.95
1043.1878	3149.5989	1404.15	525.55
1043.2932	3150.5676	1403.95	524.75
1043.3986	3151.5357	1402.65	525.5
1043.5039	3152.5032	1398.65	518.7
1043.6092	3153.4701	1396	518.25
1043.7145	3154.4364	1389.15	506.5
1043.8197	3155.402	1390.95	513.8
1043.9248	3156.367	1385.25	504.65
1044.03	3157.3315	1422.6	503.95
1044.135	3158.2952	1381.25	502.95
1044.24	3159.2584	1376.65	498.1
1044.345	3160.221	1371.5	492.25
1044.4499	3161.1829	1371.35	493.55
1044.5548	3162.1442	1370	493.25
1044.6596	3163.105	1371.75	492.7
1044.7644	3164.065	1365.35	486.25
1044.8692	3165.0245	1357.3	476.6
1044.9739	3165.9834	1354.85	479.45
1045.0785	3166.9416	1354.4	475.7
1045.1831	3167.8993	1351.1	471.8
1045.2877	3168.8563	1351.55	472.35
1045.3922	3169.8127	1344.1	466.05
1045.4966	3170.7684	1341.1	461.2
1045.6011	3171.7236	1336.1	454.25
1045.7054	3172.6782	1336.95	458.65
1045.8098	3173.6321	1342.7	460.9
1045.914	3174.5854	1334.75	451.55
1046.0183	3175.5381	1336.15	458.35
1046.1224	3176.4902	1326.05	447.2
1046.2266	3177.4417	1328.85	452.6
1046.3307	3178.3926	1319.25	441.3
1046.4347	3179.3428	1320	443.8
1046.5387	3180.2924	1323	444.75
1046.6427	3181.2415	1322.05	442.75
1046.7466	3182.1899	1308.15	427.95
1046.8504	3183.1377	1308.25	427.3
1046.9542	3184.0848	1308.6	426.55
1047.058	3185.0314	1305.9	424.7
1047.1617	3185.9773	1302.2	423.2
1047.2654	3186.9227	1300.45	420.05
1047.369	3187.8674	1301.3	421.9
1047.4726	3188.8115	1302.7	421.35
1047.5761	3189.755	1296.15	418.2
1047.6796	3190.6979	1292.75	415.75
1047.783	3191.6402	1290.05	411
1047.8864	3192.5818	1283.85	403.2
1047.9898	3193.5229	1296.9	403
1048.0931	3194.4633	1285.95	407.2
1048.1963	3195.4031	1283.45	403.2
1048.2995	3196.3423	1281.5	402.95
1048.4027	3197.2809	1281.95	404.75
1048.5058	3198.2189	1277.55	399.75
1048.6089	3199.1563	1293.5	398.65
1048.7119	3200.0931	1276.1	398.25
1048.8148	3201.0292	1268.7	388.65
1048.9178	3201.9648	1275.2	395.25
1049.0206	3202.8997	1274.2	392.6
1049.1235	3203.834	1262.85	385.05
1049.2262	3204.7677	1264.5	386.35
1049.329	3205.7008	1256.05	375.5
1049.4317	3206.6333	1258.95	382.25
1049.5343	3207.5652	1258.85	377.35
1049.6369	3208.4964	1254.8	376.95
1049.7394	3209.4271	1249.6	370.2
1049.8419	3210.3571	1246.35	370.1
1049.9444	3211.2865	1245.2	365
1050.0468	3212.2154	1249.1	369.45
1050.1491	3213.1436	1246.2	364.7
1050.2514	3214.0712	1252.2	368.25
1050.3537	3214.9982	1240.85	362.85
1050.4559	3215.9246	1241.1	362.55
1050.5581	3216.8503	1236.45	359.75
1050.6602	3217.7755	1237	357.1
1050.7623	3218.7001	1233.5	355.25
1050.8643	3219.624	1233	354.75
1050.9663	3220.5473	1232.15	350.7
1051.0682	3221.4701	1228.1	347.7
1051.1701	3222.3922	1226.1	346.35
1051.2719	3223.3137	1230.25	352.3
1051.3737	3224.2346	1228.15	347.35
1051.4754	3225.1549	1213.65	337.4
1051.5771	3226.0746	1220.5	342.1
1051.6788	3226.9937	1220.7	342.95
1051.7804	3227.9121	1210.55	333.9
1051.8819	3228.83	1216.55	337.65
1051.9834	3229.7473	1215.95	335.8
1052.0849	3230.6639	1217.3	335.95
1052.1863	3231.5799	1206.4	329.4
1052.2876	3232.4954	1207.15	326.2
1052.3889	3233.4102	1202.4	322.45
1052.4902	3234.3244	1205.55	327.05
1052.5914	3235.238	1197.4	319.3
1052.6926	3236.151	1223.65	320.8
1052.7937	3237.0634	1196.8	318.3
1052.8948	3237.9752	1192.2	314.25
1052.9958	3238.8864	1197.8	317.55
1053.0968	3239.797	1193	312.65
1053.1977	3240.7069	1196.65	316.55
1053.2986	3241.6163	1187.85	308.2
1053.3994	3242.5251	1185.7	306.7
1053.5002	3243.4332	1181.95	304.65
1053.6009	3244.3408	1182.6	303.95
1053.7016	3245.2477	1175.5	297.85
1053.8022	3246.154	1184.15	305.1
1053.9028	3247.0598	1174	292.9
1054.0034	3247.9649	1176.6	299.2
1054.1039	3248.8694	1174.65	295.3
1054.2043	3249.7733	1170.45	290.75
1054.3047	3250.6766	1165.8	287.9
1054.4051	3251.5793	1165.55	285.05
1054.5054	3252.4814	1161	283.1
1054.6056	3253.3829	1162.8	284.45
1054.7058	3254.2838	1158.55	281.95
1054.806	3255.1841	1163.35	284.7
1054.9061	3256.0838	1158.1	280.4
1055.0061	3256.9829	1157.95	280.35
1055.1062	3257.8814	1160.25	278.05
1055.2061	3258.7792	1153.4	274.55
1055.306	3259.6765	1150.95	273.5
1055.4059	3260.5731	1141.6	261.25
1055.5057	3261.4692	1143.6	265
1055.6055	3262.3647	1137.25	259.45
1055.7052	3263.2595	1131.8	252.65
1055.8049	3264.1538	1128.05	250.45
1055.9045	3265.0474	1128.25	248.2
1056.0041	3265.9404	1124.2	245.1
1056.1036	3266.8329	1114.55	236.95
1056.2031	3267.7247	1126.9	236.35
1056.3025	3268.616	1104.1	228.6
1056.4019	3269.5066	1107.05	226.7
1056.5013	3270.3966	1105.2	223.65
1056.6005	3271.286	1085.75	207.3
