Software Version:	3.9.2.0
Unit SN:	10000200
Spectrometer SN:	6960
Date:	3/6/2024 10:13:41 AM
Data Line Index:	25
Spectral Points:	2048
Integration time (ms):	125
Averages:	20
Delay (ms):	30
Sequence Number:	1
Processing:	dark subtract
Laser Power (mW):	305
Laser Current (mA):	824
Laser Diode Temp (C):	25.1
Laser Case Temp (C):	24.9
System Temp (C):	24.8
Spectrometer Temp (C):	22.3
CCD Temp (C):	0.002
Secondary Temp (C):	20.008
Heatsink Temp (C):	18.649
CCDPCB Temp (C):	31.849
SecondaryPCB Temp (C):	25.758

Wavelength	RamanShift	Raw Counts	Dark Subtracted
787.061	30.1047	1018.6	610.7
787.2016	32.3739	1041.7	635
787.3422	34.6426	1078.5	671.9
787.4828	36.9109	1118.6	707.85
787.6235	39.1787	1164.55	752.25
787.7642	41.4461	1215.1	796.8
787.9049	43.7131	1265.5	843.8
788.0456	45.9796	1324.25	900.85
788.1863	48.2456	1374.45	946.3
788.3271	50.5112	1438.55	1006.4
788.4679	52.7764	1503.45	1069
788.6087	55.0411	1568.7	1128.8
788.7496	57.3054	1633.3	1188.05
788.8904	59.5692	1711	1265.05
789.0313	61.8326	1785.4	1335.95
789.1722	64.0955	1869.85	1417.3
789.3132	66.3579	1978	1521.6
789.4541	68.6199	2108	1647.65
789.5951	70.8815	2339.5	1873.2
789.7361	73.1426	2826.75	2357.6
789.8771	75.4032	4088.45	3616.3
790.0181	77.6634	7302.35	6823.65
790.1592	79.9231	15561.75	15081.15
790.3003	82.1824	47955.55	47464.9
790.4414	84.4412	65535	65021.95
790.5825	86.6995	65535	65002.7
790.7237	88.9574	65535	64982.9
790.8648	91.2148	65535	64973.15
791.006	93.4717	65535	64961.9
791.1472	95.7282	65535	64957.6
791.2885	97.9842	65535	64956.25
791.4297	100.2398	65535	64952.2
791.571	102.4949	65535	64950.25
791.7123	104.7495	65535	64946.6
791.8536	107.0036	65535	64946.85
791.9949	109.2573	65535	64945.25
792.1363	111.5105	65535	64940.55
792.2777	113.7632	65535	64941.35
792.4191	116.0154	65535	64932.25
792.5605	118.2672	65535	64933.95
792.7019	120.5185	65535	64936
792.8434	122.7693	65535	64928.65
792.9849	125.0197	65535	64928.7
793.1264	127.2696	65535	64924.7
793.2679	129.519	65535	64920.95
793.4094	131.7679	65535	64918.75
793.551	134.0163	65535	64916.2
793.6926	136.2642	65535	64913.65
793.8342	138.5117	65535	64910.75
793.9758	140.7587	65535	64911.65
794.1175	143.0052	65535	64903.4
794.2591	145.2512	65535	64908.9
794.4008	147.4967	65535	64903.75
794.5425	149.7417	65535	64899.6
794.6842	151.9863	65535	64895.65
794.826	154.2304	65535	64893.45
794.9677	156.4739	65535	64889.05
795.1095	158.717	65535	64888.7
795.2513	160.9596	65535	64884.3
795.3931	163.2017	65535	64884.95
795.535	165.4433	65535	64880.85
795.6768	167.6844	65535	64876.05
795.8187	169.925	65535	64874.8
795.9606	172.1651	65535	64871.95
796.1025	174.4047	65535	64865
796.2445	176.6439	65535	64866.45
796.3864	178.8825	65535	64861.05
796.5284	181.1206	65535	64860.8
796.6704	183.3582	65535	64855.7
796.8124	185.5954	65535	64853.85
796.9544	187.832	65535	64851.05
797.0965	190.0681	65535	64846.1
797.2386	192.3037	65535	64842.95
797.3806	194.5388	65535	64840.15
797.5228	196.7734	65535	64841.65
797.6649	199.0075	65535	64837
797.807	201.2411	65535	64837.45
797.9492	203.4742	65535	64835.8
798.0914	205.7068	65535	64832.25
798.2336	207.9389	65535	64830.3
798.3758	210.1704	65535	64833.35
798.518	212.4015	65535	64843.45
798.6603	214.632	65535	64854.2
798.8025	216.862	65535	64852.7
798.9448	219.0915	65535	64852.85
799.0871	221.3205	65535	64847.05
799.2294	223.549	65535	64853.05
799.3718	225.777	65535	64852.35
799.5141	228.0044	65535	64848.4
799.6565	230.2314	65535	64843.85
799.7989	232.4578	65535	64838.45
799.9413	234.6837	65535	64830.6
800.0837	236.909	65535	64827.5
800.2262	239.1339	65535	64806.9
800.3687	241.3582	65535	64820.65
800.5111	243.582	65535	64787.75
800.6536	245.8053	65535	64801.95
800.7961	248.0281	65535	64806.65
800.9387	250.2503	65535	64804.2
801.0812	252.472	65535	64805.5
801.2238	254.6932	65535	64801.75
801.3664	256.9139	65535	64805.45
801.509	259.134	65535	64796.55
801.6516	261.3536	65535	64802.3
801.7942	263.5727	65535	64797.55
801.9369	265.7912	65535	64795.15
802.0795	268.0092	65535	64798.9
802.2222	270.2267	65535	64799.3
802.3649	272.4436	65535	64797.9
802.5076	274.6601	65535	64784.95
802.6504	276.8759	65535	64788.75
802.7931	279.0913	65535	64786.1
802.9359	281.3061	65535	64786.05
803.0787	283.5204	65535	64787.6
803.2215	285.7341	65535	64781.55
803.3643	287.9473	65535	64770.65
803.5071	290.16	65535	64780.05
803.6499	292.3721	65535	64785
803.7928	294.5837	65535	64783.45
803.9357	296.7947	65535	64785.25
804.0786	299.0052	65535	64784.25
804.2215	301.2152	65535	64780.45
804.3644	303.4246	65535	64778.75
804.5074	305.6334	65535	64780.15
804.6503	307.8418	65535	64778.2
804.7933	310.0495	65535	64773.6
804.9363	312.2568	65535	64780.95
805.0793	314.4635	65535	64776.9
805.2223	316.6696	65535	64770
805.3653	318.8752	65535	64762.65
805.5084	321.0802	65535	64769.2
805.6514	323.2847	65535	64770.95
805.7945	325.4887	65535	64771.2
805.9376	327.692	65535	64767.65
806.0807	329.8949	65535	64767.2
806.2238	332.0972	65535	64764.95
806.367	334.2989	65535	64763.6
806.5101	336.5001	65535	64756.7
806.6533	338.7007	65535	64763.3
806.7965	340.9008	65535	64760.75
806.9397	343.1003	65535	64755.85
807.0829	345.2992	65535	64757.65
807.2261	347.4976	65535	64757.2
807.3693	349.6955	65535	64750.25
807.5126	351.8927	65535	64753.1
807.6559	354.0895	65535	64740.45
807.7991	356.2856	65535	64750.75
807.9424	358.4812	65535	64746.9
808.0857	360.6763	65535	64745.05
808.2291	362.8707	65535	64744.65
808.3724	365.0646	65535	64741.25
808.5158	367.258	65535	64736.75
808.6591	369.4508	65535	64737.75
808.8025	371.643	65535	64738.7
808.9459	373.8346	65535	64734.5
809.0893	376.0257	65535	64731.3
809.2327	378.2162	65535	64736.25
809.3762	380.4062	65535	64735
809.5196	382.5956	65535	64737.55
809.6631	384.7844	65535	64741.55
809.8066	386.9726	65535	64742.45
809.9501	389.1603	65535	64745.6
810.0936	391.3474	65535	64699.85
810.2371	393.5339	65535	64741.1
810.3806	395.7199	65535	64744.15
810.5241	397.9052	65535	64741.4
810.6677	400.09	65535	64737.1
810.8113	402.2743	65535	64741.5
810.9548	404.4579	65535	64742.25
811.0984	406.641	65535	64737.6
811.2421	408.8235	65535	64736.85
811.3857	411.0054	65535	64727.4
811.5293	413.1868	65535	64728.45
811.673	415.3675	65535	64724.2
811.8166	417.5477	65535	64725.4
811.9603	419.7273	65535	64723.8
812.104	421.9064	65535	64715.95
812.2477	424.0848	65535	64723.4
812.3914	426.2627	65535	64720.55
812.5351	428.4399	65535	64720.65
812.6788	430.6166	65535	64719.55
812.8226	432.7928	65535	64714.3
812.9663	434.9683	65535	64713
813.1101	437.1432	65535	64713.8
813.2539	439.3176	65535	64718
813.3977	441.4914	65535	64718.85
813.5415	443.6645	65535	64715.45
813.6853	445.8371	65535	64716.3
813.8291	448.0091	65535	64713
813.973	450.1806	65535	64711.25
814.1168	452.3514	65535	64711.8
814.2607	454.5216	65535	64703.2
814.4046	456.6913	65535	64711.45
814.5485	458.8603	65535	64712.9
814.6924	461.0288	65535	64710.35
814.8363	463.1967	65535	64712.35
814.9802	465.3639	65535	64713.3
815.1241	467.5306	65535	64711.5
815.2681	469.6967	65535	64709.1
815.412	471.8622	65535	64710
815.556	474.0271	65535	64710.6
815.7	476.1914	65535	64704
815.844	478.3551	65535	64708.8
815.988	480.5182	65535	64708.2
816.132	482.6807	65535	64709.45
816.276	484.8426	65535	64709.25
816.4201	487.0039	65535	64707.8
816.5641	489.1647	65535	64704.45
816.7082	491.3248	65535	64706.7
816.8522	493.4843	65535	64704.2
816.9963	495.6432	65535	64707
817.1404	497.8015	65535	64701.3
817.2845	499.9592	65535	64700.5
817.4286	502.1163	65535	64703.5
817.5727	504.2728	65535	64700.35
817.7168	506.4287	65535	64701.7
817.861	508.5839	65535	64703.55
818.0051	510.7386	65535	64699.75
818.1493	512.8927	65535	64698.9
818.2935	515.0461	65535	64696.95
818.4377	517.199	65535	64698.85
818.5818	519.3512	65535	64699.3
818.726	521.5029	65535	64691.7
818.8703	523.6539	65535	64697
819.0145	525.8043	65535	64694.15
819.1587	527.9541	65535	64694.45
819.303	530.1033	65535	64693
819.4472	532.2519	65535	64692.95
819.5915	534.3999	65535	64693
819.7357	536.5472	65535	64694.7
819.88	538.694	65535	64691.7
820.0243	540.8401	65535	64694.05
820.1686	542.9856	65535	64690.05
820.3129	545.1305	65535	64690
820.4572	547.2748	65535	64689.4
820.6016	549.4185	65535	64687.35
820.7459	551.5615	65535	64688.75
820.8902	553.704	65535	64690.05
821.0346	555.8458	65535	64691.65
821.1789	557.987	65535	64692.95
821.3233	560.1276	65535	64691.05
821.4677	562.2675	65535	64690.95
821.6121	564.4069	65535	64688.05
821.7565	566.5456	65535	64691.85
821.9009	568.6837	65535	64690.15
822.0453	570.8212	65535	64690.45
822.1897	572.958	65535	64686.7
822.3342	575.0942	65535	64687.45
822.4786	577.2299	65535	64687.75
822.6231	579.3648	65535	64684.15
822.7675	581.4992	65535	64689.05
822.912	583.6329	65535	64687.65
823.0565	585.766	65535	64685.8
823.201	587.8985	65535	64687.6
823.3454	590.0304	65535	64661.65
823.4899	592.1616	65535	64683.35
823.6345	594.2922	65535	64681.8
823.779	596.4222	65535	64682.85
823.9235	598.5515	65535	64682.2
824.068	600.6802	65535	64684.7
824.2126	602.8083	65535	64683.2
824.3571	604.9358	65535	64682.75
824.5017	607.0626	65535	64683.9
824.6462	609.1888	65535	64679.8
824.7908	611.3144	65535	64681.3
824.9354	613.4393	65535	64680.15
825.08	615.5636	65535	64680.3
825.2246	617.6873	65535	64680.2
825.3692	619.8103	65535	64680.45
825.5138	621.9327	65535	64676.25
825.6584	624.0544	65535	64683.25
825.803	626.1756	65535	64679.2
825.9477	628.2961	65535	64678.95
826.0923	630.4159	65535	64677.05
826.237	632.5351	65535	64678.1
826.3816	634.6537	65535	64676.55
826.5263	636.7716	65535	64677.5
826.6709	638.8889	65535	64675.7
826.8156	641.0056	65535	64673.7
826.9603	643.1216	65535	64675.5
827.105	645.237	65535	64671.95
827.2497	647.3518	65535	64676.3
827.3944	649.4659	65535	64674.2
827.5391	651.5793	65535	64674.35
827.6838	653.6922	65535	64676.8
827.8285	655.8043	65535	64673.2
827.9733	657.9159	65535	64673.7
828.118	660.0268	65535	64670.7
828.2627	662.137	65535	64673.1
828.4075	664.2466	65535	64672
828.5522	666.3556	65535	64672.7
828.697	668.4639	65535	64669.5
828.8418	670.5716	65535	64671.15
828.9865	672.6786	65535	64671.65
829.1313	674.785	65535	64670.05
829.2761	676.8907	65535	64672.6
829.4209	678.9958	65535	64671.3
829.5657	681.1002	65535	64667.95
829.7105	683.204	65535	64664.85
829.8553	685.3072	65535	64672.1
830.0001	687.4097	65535	64669.75
830.1449	689.5115	65535	64669.05
830.2898	691.6127	65535	64670
830.4346	693.7132	65535	64666.95
830.5794	695.8131	65535	64648.15
830.7243	697.9123	65535	64668
830.8691	700.0109	65535	64667.95
831.014	702.1089	65535	64667.85
831.1588	704.2061	65535	64669
831.3037	706.3028	65535	64665.05
831.4486	708.3987	65535	64665.65
831.5935	710.4941	65535	64666.2
831.7383	712.5887	65535	64666.4
831.8832	714.6827	65535	64661.3
832.0281	716.7761	65535	64666.95
832.173	718.8688	65535	64666.75
832.3179	720.9608	65535	64659.7
832.4628	723.0522	65535	64660.85
832.6077	725.1429	65535	64664.5
832.7527	727.233	65535	64664.9
832.8976	729.3224	65535	64665.4
833.0425	731.4112	65535	64663.15
833.1874	733.4993	65535	64660.3
833.3324	735.5867	65535	64663.3
833.4773	737.6735	65535	64662.15
833.6222	739.7596	65535	64661.45
833.7672	741.845	65535	64663.7
833.9122	743.9298	65535	64659.35
834.0571	746.014	65535	64665.7
834.2021	748.0974	65535	64660.7
834.347	750.1802	65535	64662.35
834.492	752.2624	65535	64661.95
834.637	754.3439	65535	64661.3
834.782	756.4247	65535	64650.45
834.9269	758.5048	65535	64659.85
835.0719	760.5843	65535	64660.1
835.2169	762.6631	65535	64661.55
835.3619	764.7413	65535	64663.2
835.5069	766.8188	65535	64658.55
835.6519	768.8956	65535	64659.55
835.7969	770.9718	65535	64661.75
835.9419	773.0473	65535	64659.9
836.0869	775.1221	65535	64661.45
836.232	777.1962	65535	64659.9
836.377	779.2697	65535	64658.6
836.522	781.3426	65535	64641.55
836.667	783.4147	65535	64658.9
836.8121	785.4862	65535	64662.6
836.9571	787.557	65535	64659.65
837.1021	789.6271	65535	64657.6
837.2472	791.6966	65535	64657.25
837.3922	793.7654	65535	64658.9
837.5373	795.8335	65535	64659.15
837.6823	797.901	65535	64658.9
837.8274	799.9678	65535	64657.5
837.9724	802.0339	65535	64662
838.1175	804.0993	65535	64648.2
838.2626	806.1641	65535	64657.7
838.4076	808.2282	65535	64660.1
838.5527	810.2916	65535	64657.2
838.6978	812.3544	65535	64661.2
838.8428	814.4164	65535	64661.3
838.9879	816.4778	65535	64655
839.133	818.5385	65535	64657.35
839.2781	820.5986	65535	64657.55
839.4232	822.658	65535	64656.15
839.5682	824.7166	65535	64658.05
839.7133	826.7747	65535	64660.55
839.8584	828.832	65535	64655.85
840.0035	830.8886	65535	64653.6
840.1486	832.9446	65535	64653.95
840.2937	834.9999	65535	64657.5
840.4388	837.0545	65535	64650.55
840.5839	839.1085	65535	64655.4
840.729	841.1618	65535	64650.65
840.8741	843.2143	65535	64658.95
841.0192	845.2662	65535	64654.45
841.1643	847.3175	65535	64658.85
841.3095	849.368	65535	64655.05
841.4546	851.4179	65535	64655.35
841.5997	853.467	65535	64657.15
841.7448	855.5155	65535	64654.8
841.8899	857.5633	65535	64656.15
842.0351	859.6105	65535	64653.85
842.1802	861.6569	65535	64659.05
842.3253	863.7027	65535	64652.2
842.4704	865.7478	65535	64652.75
842.6156	867.7922	65535	64654.15
842.7607	869.8359	65535	64654.05
842.9058	871.8789	65535	64654.4
843.0509	873.9212	65535	64622.05
843.1961	875.9629	65535	64655.15
843.3412	878.0039	65535	64653.65
843.4863	880.0441	65535	64653.75
843.6315	882.0837	65535	64655.05
843.7766	884.1226	65535	64654.7
843.9218	886.1609	65535	64652.5
844.0669	888.1984	65535	64655.3
844.212	890.2352	65535	64654.25
844.3572	892.2714	65535	64649.3
844.5023	894.3069	65535	64653.55
844.6475	896.3416	65535	64653.85
844.7926	898.3757	65535	64653.75
844.9377	900.4091	65535	64651.4
845.0829	902.4418	65535	64648.4
845.228	904.4739	65535	64651.55
845.3732	906.5052	65535	64651.9
845.5183	908.5358	65535	64654
845.6635	910.5658	65535	64649.6
845.8086	912.595	65535	64652.5
845.9538	914.6236	65535	64651.8
846.0989	916.6515	65535	64652.1
846.2441	918.6786	65535	64648.85
846.3892	920.7051	65535	64650.35
846.5344	922.7309	65535	64653.5
846.6795	924.756	65535	64652.45
846.8246	926.7804	65535	64647
846.9698	928.8041	65535	64649.15
847.1149	930.8272	65535	64651.25
847.2601	932.8495	65535	64649.95
847.4052	934.8711	65535	64650.25
847.5504	936.892	65535	64651.65
847.6955	938.9123	65535	64651.4
847.8407	940.9318	65535	64650.5
847.9858	942.9506	65535	64649.05
848.131	944.9688	65535	64651.15
848.2761	946.9862	65535	64650.55
848.4213	949.003	65535	64651
848.5664	951.019	65535	64652.1
848.7115	953.0344	65535	64649.6
848.8567	955.0491	65535	64650.75
849.0018	957.063	65535	64650.5
849.147	959.0763	65535	64651.95
849.2921	961.0888	65535	64648.45
849.4373	963.1007	65535	64649.4
849.5824	965.1119	65535	64651
849.7275	967.1223	65535	64649.85
849.8727	969.1321	65535	64652.4
850.0178	971.1412	65535	64653.75
850.1629	973.1495	65535	64650.65
850.3081	975.1572	65535	64615.35
850.4532	977.1641	65535	64648.9
850.5983	979.1704	65535	64646.5
850.7435	981.1759	65535	64648.05
850.8886	983.1808	65535	64649.1
851.0337	985.1849	65535	64640.75
851.1788	987.1884	65535	64648.7
851.324	989.1911	65535	64649.3
851.4691	991.1932	65535	64648.25
851.6142	993.1945	65535	64649.65
851.7593	995.1951	65535	64647.95
851.9045	997.1951	65535	64644.3
852.0496	999.1943	65535	64648.2
852.1947	1001.1928	65535	64648.05
852.3398	1003.1906	65535	64652.2
852.4849	1005.1877	65535	64647.35
852.63	1007.1841	65535	64650.7
852.7751	1009.1798	65535	64649.65
852.9202	1011.1748	65535	64650.4
853.0653	1013.1691	65535	64650.35
853.2104	1015.1627	65535	64646.8
853.3555	1017.1556	65535	64648.7
853.5006	1019.1477	65535	64647.9
853.6457	1021.1392	65535	64651
853.7908	1023.1299	65535	64650.9
853.9359	1025.12	65535	64650.15
854.081	1027.1093	65535	64654.85
854.2261	1029.0979	65535	64651.15
854.3712	1031.0859	65535	64654.05
854.5163	1033.0731	65535	64652.25
854.6613	1035.0596	65535	64651.8
854.8064	1037.0454	65535	64647.95
854.9515	1039.0304	65535	64650.3
855.0965	1041.0148	65535	64648.75
855.2416	1042.9985	65535	64651.65
855.3867	1044.9814	65535	64648.7
855.5317	1046.9636	65535	64647.9
855.6768	1048.9452	65535	64649
855.8219	1050.926	65535	64649.15
855.9669	1052.9061	65535	64651.15
856.112	1054.8855	65535	64647.75
856.257	1056.8642	65535	64650.45
856.4021	1058.8421	65535	64647.05
856.5471	1060.8194	65535	64651.35
856.6921	1062.7959	65535	64650.25
856.8372	1064.7717	65535	64647.85
856.9822	1066.7469	65535	64649.25
857.1272	1068.7213	65535	64647.85
857.2723	1070.695	65535	64650.55
857.4173	1072.6679	65535	64648.05
857.5623	1074.6402	65535	64646.55
857.7073	1076.6117	65535	64644.35
857.8523	1078.5826	65535	64648.75
857.9973	1080.5527	65535	64646.55
858.1423	1082.5221	65535	64646.6
858.2873	1084.4908	65535	64649.5
858.4323	1086.4587	65535	64647.1
858.5773	1088.426	65535	64650.5
858.7223	1090.3925	65535	64642.85
858.8673	1092.3584	65535	64648.5
859.0123	1094.3235	65535	64650.35
859.1573	1096.2879	65535	64650.6
859.3022	1098.2515	65535	64647.9
859.4472	1100.2145	65535	64647.55
859.5922	1102.1767	65535	64646.55
859.7371	1104.1382	65535	64649.2
859.8821	1106.099	65535	64647.5
860.027	1108.0591	65535	64651.6
860.172	1110.0185	65535	64647.25
860.3169	1111.9771	65535	64647.65
860.4619	1113.9351	65535	64647.65
860.6068	1115.8923	65535	64646.9
860.7517	1117.8488	65535	64647.9
860.8967	1119.8045	65535	64649.35
861.0416	1121.7596	65535	64649.45
861.1865	1123.7139	65535	64650.85
861.3314	1125.6675	65535	64649.15
861.4763	1127.6204	65535	64651.65
861.6212	1129.5726	65535	64649.6
861.7661	1131.524	65535	64649.65
861.911	1133.4748	65535	64649.65
862.0559	1135.4248	65535	64647.25
862.2008	1137.3741	65535	64650.65
862.3457	1139.3226	65535	64647.7
862.4905	1141.2705	65535	64648.2
862.6354	1143.2176	65535	64643.6
862.7803	1145.164	65535	64644.85
862.9251	1147.1097	65535	64649.15
863.07	1149.0546	65535	64646.85
863.2148	1150.9989	65535	64649
863.3597	1152.9424	65535	64651.3
863.5045	1154.8852	65535	64648.8
863.6493	1156.8272	65535	64649.75
863.7942	1158.7686	65535	64642.1
863.939	1160.7092	65535	64649.4
864.0838	1162.6491	65535	64645.85
864.2286	1164.5883	65535	64649.6
864.3734	1166.5267	65535	64648.9
864.5182	1168.4644	65535	64647.2
864.663	1170.4014	65535	64641.3
864.8078	1172.3377	65535	64648.25
864.9526	1174.2732	65535	64648.1
865.0974	1176.2081	65535	64648.4
865.2421	1178.1421	65535	64644.75
865.3869	1180.0755	65535	64648.7
865.5317	1182.0082	65535	64649.65
865.6764	1183.9401	65535	64647.95
865.8212	1185.8713	65535	64651.75
865.9659	1187.8017	65535	64649.15
866.1106	1189.7315	65535	64648.85
866.2554	1191.6605	65535	64622.25
866.4001	1193.5888	65535	64649.6
866.5448	1195.5163	65535	64650.8
866.6895	1197.4432	65535	64645.75
866.8342	1199.3693	65535	64647.15
866.9789	1201.2947	65535	64646.8
867.1236	1203.2193	65535	64645.65
867.2683	1205.1432	65535	64647.45
867.413	1207.0664	65535	64647.45
867.5576	1208.9889	65535	64646.1
867.7023	1210.9106	65535	64648.1
867.847	1212.8316	65535	64648.7
867.9916	1214.7519	65535	64639.45
868.1363	1216.6715	65535	64648.8
868.2809	1218.5903	65535	64649.65
868.4255	1220.5084	65535	64648.35
868.5701	1222.4257	65535	64648.15
868.7148	1224.3424	65535	64651.45
868.8594	1226.2583	65535	64644.75
869.004	1228.1735	65535	64647.05
869.1486	1230.0879	65535	64647.75
869.2932	1232.0016	65535	64648.45
869.4377	1233.9146	65535	64647.15
869.5823	1235.8269	65535	64646.75
869.7269	1237.7384	65535	64647.25
869.8715	1239.6492	65535	64650.35
870.016	1241.5592	65535	64646.15
870.1606	1243.4686	65535	64649.15
870.3051	1245.3772	65535	64650.9
870.4496	1247.285	65535	64648.75
870.5941	1249.1922	65535	64648.55
870.7387	1251.0986	65535	64649.35
870.8832	1253.0042	65535	64650.2
871.0277	1254.9092	65535	64649.35
871.1722	1256.8134	65535	64649.45
871.3167	1258.7169	65535	64648.7
871.4611	1260.6196	65535	64649.8
871.6056	1262.5216	65535	64646.2
871.7501	1264.4229	65535	64648.75
871.8945	1266.3234	65535	64648.35
872.039	1268.2232	65535	64646.5
872.1834	1270.1223	65535	64648.5
872.3278	1272.0207	65535	64646.9
872.4723	1273.9183	65535	64642.85
872.6167	1275.8151	65535	64651.2
872.7611	1277.7113	65535	64649.6
872.9055	1279.6067	65535	64648.7
873.0499	1281.5014	65535	64647.05
873.1943	1283.3953	65535	64649.05
873.3386	1285.2885	65535	64648.2
873.483	1287.181	65535	64648.75
873.6274	1289.0727	65535	64649
873.7717	1290.9637	65535	64647.3
873.9161	1292.854	65535	64651.35
874.0604	1294.7435	65535	64645.55
874.2047	1296.6323	65535	64649.25
874.349	1298.5204	65535	64646.6
874.4933	1300.4077	65535	64648.65
874.6376	1302.2943	65535	64648.45
874.7819	1304.1802	65535	64647.25
874.9262	1306.0653	65535	64647.1
875.0705	1307.9497	65535	64649.25
875.2147	1309.8333	65535	64649.95
875.359	1311.7162	65535	64647.65
875.5032	1313.5984	65535	64645.7
875.6475	1315.4798	65535	64638.3
875.7917	1317.3605	65535	64635.35
875.9359	1319.2405	65535	64648.65
876.0801	1321.1197	65535	64648.85
876.2243	1322.9982	65535	64641.85
876.3685	1324.876	65535	64647.6
876.5127	1326.753	65535	64651
876.6569	1328.6293	65535	64647.75
876.801	1330.5048	65535	64645.6
876.9452	1332.3796	65535	64649.4
877.0893	1334.2537	65535	64623.55
877.2335	1336.127	65535	64649
877.3776	1337.9996	65535	64647.85
877.5217	1339.8714	65535	64648.05
877.6658	1341.7426	65535	64608
877.8099	1343.6129	65535	64648
877.954	1345.4826	65535	64649.55
878.0981	1347.3515	65535	64645.1
878.2422	1349.2196	65535	64649.75
878.3862	1351.087	65535	64650.25
878.5303	1352.9537	65535	64650.35
878.6743	1354.8197	65535	64647.35
878.8184	1356.6849	65535	64649
878.9624	1358.5493	65535	64647.05
879.1064	1360.4131	65535	64650.25
879.2504	1362.276	65535	64646.55
879.3944	1364.1383	65535	64647.95
879.5384	1365.9998	65535	64643.05
879.6823	1367.8606	65535	64648.85
879.8263	1369.7206	65535	64648.1
879.9702	1371.5799	65535	64645.3
880.1142	1373.4384	65535	64650
880.2581	1375.2962	65535	64647.05
880.402	1377.1533	65535	64648.75
880.5459	1379.0096	65535	64646.4
880.6898	1380.8652	65535	64647.95
880.8337	1382.7201	65535	64648.8
880.9776	1384.5742	65535	64648.6
881.1215	1386.4275	65535	64647
881.2653	1388.2802	65535	64649.35
881.4092	1390.132	65535	64647.75
881.553	1391.9832	65535	64645.85
881.6968	1393.8336	65535	64647.6
881.8406	1395.6832	65535	64646.9
881.9844	1397.5322	65535	64649.35
882.1282	1399.3803	65535	64643.85
882.272	1401.2278	65535	64647.15
882.4158	1403.0745	65535	64648.25
882.5595	1404.9204	65535	64649.85
882.7033	1406.7656	65535	64648.45
882.847	1408.6101	65535	64648.35
882.9908	1410.4538	65535	64648.95
883.1345	1412.2968	65535	64650.15
883.2782	1414.139	65535	64647.3
883.4219	1415.9805	65535	64647.25
883.5656	1417.8213	65535	64639.95
883.7092	1419.6613	65535	64648.05
883.8529	1421.5006	65535	64647.55
883.9965	1423.3391	65535	64649.1
884.1402	1425.1769	65535	64647.75
884.2838	1427.0139	65535	64651.05
884.4274	1428.8502	65535	64647.9
884.571	1430.6858	65535	64648.25
884.7146	1432.5206	65535	64648.8
884.8582	1434.3547	65535	64647.7
885.0018	1436.188	65535	64648.45
885.1453	1438.0206	65535	64649.1
885.2889	1439.8524	65535	64646.85
885.4324	1441.6835	65535	64647.3
885.5759	1443.5139	65535	64646.35
885.7194	1445.3435	65535	64647.4
885.8629	1447.1724	65535	64649.45
886.0064	1449.0005	65535	64649.5
886.1499	1450.8279	65535	64647.15
886.2933	1452.6545	65535	64647.7
886.4368	1454.4804	65535	64650.75
886.5802	1456.3056	65535	64641.85
886.7237	1458.13	65535	64651.05
886.8671	1459.9536	65535	64648.6
887.0105	1461.7766	65535	64652.8
887.1539	1463.5987	65535	64647
887.2972	1465.4202	65535	64648.85
887.4406	1467.2409	65535	64649.1
887.584	1469.0608	65535	64650.7
887.7273	1470.88	65535	64647.15
887.8706	1472.6984	65535	64646.7
888.0139	1474.5161	65535	64646.4
888.1572	1476.3331	65535	64648.6
888.3005	1478.1493	65535	64647.5
888.4438	1479.9648	65535	64650.15
888.5871	1481.7795	65535	64649.5
888.7303	1483.5935	65535	64649.8
888.8736	1485.4067	65535	64650.9
889.0168	1487.2192	65535	64648.85
889.16	1489.031	65535	64646.55
889.3032	1490.842	65535	64650.7
889.4464	1492.6522	65535	64648.75
889.5896	1494.4618	65535	64650.4
889.7327	1496.2705	65535	64649.45
889.8759	1498.0785	65535	64647.15
890.019	1499.8858	65535	64647.05
890.1622	1501.6924	65535	64650.4
890.3053	1503.4981	65535	64650.55
890.4484	1505.3032	65535	64648.9
890.5914	1507.1075	65535	64648.4
890.7345	1508.911	65535	64648.7
890.8776	1510.7138	65535	64650.2
891.0206	1512.5159	65535	64651.05
891.1637	1514.3172	65535	64649.15
891.3067	1516.1178	65535	64650.7
891.4497	1517.9176	65535	64645.85
891.5927	1519.7166	65535	64650.8
891.7357	1521.515	65535	64645.05
891.8786	1523.3126	65526.75	64644.15
892.0216	1525.1094	65535	64647.9
892.1645	1526.9055	65533.55	64647.95
892.3074	1528.7008	65534.6	64648.5
892.4503	1530.4954	65522.8	64636.75
892.5932	1532.2893	65535	64650.55
892.7361	1534.0824	65521.55	64633.1
892.879	1535.8747	65500.55	64617.05
893.0218	1537.6663	65535	64648.65
893.1647	1539.4572	65457.1	64571.8
893.3075	1541.2473	65508.05	64622.85
893.4503	1543.0367	65503.25	64619.1
893.5931	1544.8253	65485.85	64595.8
893.7359	1546.6132	65504.15	64617.95
893.8787	1548.4003	65468.5	64574.1
894.0214	1550.1867	65454	64561.55
894.1642	1551.9723	65448.85	64556.8
894.3069	1553.7572	65450.4	64563.4
894.4496	1555.5414	65480.1	64593.4
894.5923	1557.3247	65371.3	64485.5
894.735	1559.1074	65468.1	64586.2
894.8777	1560.8893	65427.4	64542
895.0204	1562.6705	65449.85	64566.3
895.163	1564.4509	65389.6	64507.3
895.3056	1566.2305	65422	64537.8
895.4482	1568.0094	65461.55	64579.85
895.5908	1569.7876	65422.8	64538.9
895.7334	1571.565	65384.35	64498.3
895.876	1573.3417	65395.85	64512.3
896.0186	1575.1176	65382.45	64497.9
896.1611	1576.8928	65369.7	64486.85
896.3036	1578.6672	65337.2	64453.55
896.4461	1580.4409	65363.2	64481.65
896.5886	1582.2138	65315	64430.9
896.7311	1583.986	65333.85	64448.75
896.8736	1585.7575	65310.2	64427.75
897.0161	1587.5282	65334.4	64453.4
897.1585	1589.2981	65347.55	64464.05
897.3009	1591.0673	65300.45	64418.35
897.4433	1592.8358	65277.75	64392.3
897.5857	1594.6035	65307.65	64421.9
897.7281	1596.3704	65326.25	64442.2
897.8705	1598.1366	65274.75	64391.75
898.0128	1599.9021	65239.85	64356.05
898.1551	1601.6668	65284.95	64400.45
898.2975	1603.4308	65268.2	64385.15
898.4398	1605.194	65278.95	64390.35
898.5821	1606.9564	65218.55	64337.1
898.7243	1608.7182	65262.3	64374.35
898.8666	1610.4791	65225.55	64343.05
899.0088	1612.2394	65260.4	64378.75
899.1511	1613.9988	65211.4	64330
899.2933	1615.7576	65236.7	64353.6
899.4355	1617.5156	65240.8	64352.6
899.5776	1619.2728	65282.05	64399.5
899.7198	1621.0293	65202.15	64319.6
899.862	1622.785	65190.65	64305.8
900.0041	1624.54	65218.1	64334.95
900.1462	1626.2942	65170.4	64288.95
900.2883	1628.0477	65086.7	64201
900.4304	1629.8005	64979.45	64092.25
900.5725	1631.5525	65086.3	64203.85
900.7145	1633.3037	64941.25	64060.3
900.8566	1635.0542	64929.3	64048.6
900.9986	1636.804	65018.9	64136.45
901.1406	1638.553	64812.9	63852.6
901.2826	1640.3013	64882.15	63999.95
901.4245	1642.0488	64749.7	63865.35
901.5665	1643.7955	64875.8	63995.5
901.7085	1645.5416	64773.65	63891.3
901.8504	1647.2868	64661.3	63780.8
901.9923	1649.0313	64857.2	63972.95
902.1342	1650.7751	64746.05	63860.5
902.2761	1652.5181	64656.65	63775.7
902.4179	1654.2604	64659.75	63776.75
902.5598	1656.0019	64705.55	63824.6
902.7016	1657.7427	64633.75	63751.4
902.8434	1659.4828	64731.85	63850
902.9852	1661.222	64583.85	63700.1
903.127	1662.9606	64727.9	63845.45
903.2687	1664.6984	64543.6	63660.8
903.4105	1666.4354	64608.15	63724.1
903.5522	1668.1717	64385.2	63503.4
903.6939	1669.9072	64202.05	63322.65
903.8356	1671.642	64206.85	63321.9
903.9773	1673.3761	64173.3	63291.5
904.119	1675.1094	64131	63251.4
904.2606	1676.8419	63886	63004.05
904.4022	1678.5737	63961.95	63080.65
904.5439	1680.3048	63839.45	62956.35
904.6855	1682.0351	63717.25	62836.3
904.827	1683.7646	63606.7	62721.2
904.9686	1685.4934	63748.05	62866.55
905.1101	1687.2215	63225.8	62343.05
905.2517	1688.9488	63603.15	62724.65
905.3932	1690.6754	62708.85	61827.45
905.5347	1692.4012	63192.3	62311.45
905.6761	1694.1263	63260.1	62377.3
905.8176	1695.8506	62882.55	62003.2
905.9591	1697.5742	62937.6	62057.05
906.1005	1699.297	62818.25	61937.9
906.2419	1701.0191	62907.1	62028.25
906.3833	1702.7404	62386.45	61505.65
906.5246	1704.461	62196.6	61313.7
906.666	1706.1808	62525.9	61641.8
906.8073	1707.8999	62334.95	61452.2
906.9487	1709.6182	62202.1	61320.6
907.09	1711.3358	62156.15	61273.95
907.2313	1713.0527	62099.95	61218.9
907.3725	1714.7688	62126.7	61238.6
907.5138	1716.4841	61516.45	60636.4
907.655	1718.1987	61715.15	60827.05
907.7962	1719.9126	61536.4	60656.6
907.9374	1721.6257	61674.95	60791.35
908.0786	1723.338	61638.6	60757.95
908.2198	1725.0496	60875.55	59993.55
908.3609	1726.7605	61032.45	60151.6
908.502	1728.4706	60766.25	59885.15
908.6431	1730.18	61017.85	60134.3
908.7842	1731.8886	60681.9	59800
908.9253	1733.5964	60448.35	59563.2
909.0664	1735.3036	60886.1	60002.9
909.2074	1737.0099	60568.8	59689.2
909.3484	1738.7156	60238.85	59358.15
909.4894	1740.4204	60138.3	59255.2
909.6304	1742.1246	60223.45	59342.8
909.7714	1743.8279	60313.9	59433.05
909.9123	1745.5306	60239.2	59359.25
910.0532	1747.2325	59395.75	58513.7
910.1941	1748.9336	59435.1	58553
910.335	1750.634	59608.15	58724.55
910.4759	1752.3336	59851.2	58971.05
910.6168	1754.0325	59239.5	58362.35
910.7576	1755.7307	59739.5	58859.65
910.8984	1757.4281	59017.85	58136
911.0392	1759.1247	59515.7	58627.6
911.18	1760.8206	58767.6	57881.25
911.3208	1762.5158	58837.35	57952.8
911.4615	1764.2102	58913.05	58032.2
911.6022	1765.9039	58737.45	57856.1
911.7429	1767.5968	58544.45	57663.3
911.8836	1769.289	58461.35	57579.15
912.0243	1770.9804	58546.15	57664.3
912.1649	1772.6711	58370	57489.1
912.3056	1774.361	58213.35	57331.3
912.4462	1776.0502	58166.05	57286.6
912.5868	1777.7386	57667.5	56782.15
912.7274	1779.4263	57899.15	57019.5
912.8679	1781.1132	57905.55	57024.5
913.0084	1782.7994	57718.7	56835.2
913.149	1784.4849	57770.45	56889.3
913.2895	1786.1696	56996.95	56110.9
913.4299	1787.8535	57421.85	56541.2
913.5704	1789.5367	57477.9	56597.05
913.7108	1791.2192	57025.25	56144.8
913.8513	1792.9009	56706.05	55791.2
913.9917	1794.5818	57016.45	56134.7
914.132	1796.2621	56624.45	55744.75
914.2724	1797.9415	56580.95	55701.55
914.4128	1799.6202	56461.75	55582.05
914.5531	1801.2982	56518.4	55637.9
914.6934	1802.9755	56118.25	55236.25
914.8337	1804.6519	55970.5	55090.55
914.9739	1806.3277	56436.25	55555.75
915.1142	1808.0027	55568.25	54689.85
915.2544	1809.6769	55855.55	54975.4
915.3946	1811.3504	55928.25	55046.45
915.5348	1813.0231	55236.3	54357
915.675	1814.6951	55573.1	54692.7
915.8151	1816.3664	55334.8	54453.95
915.9553	1818.0369	55307.75	54427.25
916.0954	1819.7067	55146.2	54267.05
916.2355	1821.3757	55389.3	54506.45
916.3755	1823.044	54886.6	54006.85
916.5156	1824.7115	54692.9	53811.95
916.6556	1826.3783	54748.75	53867.85
916.7956	1828.0443	54629.45	53750.7
916.9356	1829.7096	54418.2	53533.5
917.0756	1831.3741	54085.25	53201.3
917.2155	1833.0379	54189.45	53310.65
917.3555	1834.701	54154.4	53272.35
917.4954	1836.3633	53879.8	52995.2
917.6353	1838.0248	54012.05	53129.35
917.7751	1839.6856	53841.7	52961.15
917.915	1841.3457	53480.25	52600.85
918.0548	1843.005	53828.85	52948.4
918.1946	1844.6636	53563.7	52685.65
918.3344	1846.3214	53050.5	52170.35
918.4742	1847.9785	53164.6	52285.05
918.6139	1849.6349	53090.15	52207.05
918.7537	1851.2904	53298.7	52411.55
918.8934	1852.9453	52708.9	51829
919.0331	1854.5994	52890.65	52010.15
919.1727	1856.2528	52933.05	52046
919.3124	1857.9054	52509.85	51629.5
919.452	1859.5572	52299.35	51420.3
919.5916	1861.2083	52424.75	51542.1
919.7312	1862.8587	52781.1	51901.55
919.8708	1864.5084	51839.8	50960.95
920.0103	1866.1572	52165.6	51286.95
920.1498	1867.8054	51641.45	50762.6
920.2893	1869.4528	51896.65	51016.6
920.4288	1871.0994	51476.35	50595.4
920.5683	1872.7453	51448.65	50567.95
920.7077	1874.3905	51479.15	50591.8
920.8471	1876.0349	51109.15	50229.05
920.9865	1877.6786	51319.15	50434.35
921.1259	1879.3215	50994.4	50117.1
921.2653	1880.9637	51302.05	50420.4
921.4046	1882.6051	50908.75	50029.9
921.5439	1884.2458	50717.2	49834.8
921.6832	1885.8858	50411.5	49531.3
921.8225	1887.525	50471.85	49590.45
921.9617	1889.1634	50338.15	49459.6
922.101	1890.8011	50142.2	49263.25
922.2402	1892.4381	49755.7	48877.7
922.3794	1894.0743	50092.15	49212.05
922.5185	1895.7098	49813.55	48933.45
922.6577	1897.3446	49593.1	48712.35
922.7968	1898.9786	49596.25	48712.6
922.9359	1900.6118	49330.6	48451.2
923.075	1902.2443	49046.15	48162.3
923.214	1903.8761	49259.55	48379.3
923.3531	1905.5071	48895.9	48014.75
923.4921	1907.1374	48494	47612.9
923.6311	1908.7669	48620.4	47740
923.77	1910.3957	48729.15	47849.1
923.909	1912.0237	48229.6	47348.45
924.0479	1913.651	48108.8	47227.6
924.1868	1915.2776	47967.4	47090.15
924.3257	1916.9034	47803.1	46924
924.4646	1918.5285	47628	46748.8
924.6034	1920.1528	47407.75	46524.85
924.7422	1921.7764	47338.3	46459.1
924.881	1923.3992	47244.15	46362
925.0198	1925.0213	46911.4	46033.05
925.1586	1926.6427	46629.8	45748.85
925.2973	1928.2633	46820.75	45732.8
925.436	1929.8832	46537.3	45655.5
925.5747	1931.5023	46310.3	45430.2
925.7134	1933.1207	46109.2	45228.8
925.852	1934.7383	46155.25	45275.7
925.9906	1936.3552	45859.55	44979.95
926.1292	1937.9714	45821.95	44943.2
926.2678	1939.5868	45681.75	44801.55
926.4064	1941.2015	45360.15	44480.05
926.5449	1942.8154	45184.2	44304.35
926.6834	1944.4286	45038	44159.65
926.8219	1946.041	44944.5	44044.95
926.9604	1947.6528	44680.05	43794.9
927.0988	1949.2637	44588.45	43709.9
927.2372	1950.8739	44378.45	43499.7
927.3756	1952.4834	44340.1	43458.1
927.514	1954.0921	44277.35	43395.85
927.6523	1955.7001	44049.8	43164.65
927.7907	1957.3074	43959.9	43080.7
927.929	1958.9139	43687.45	42809.6
928.0673	1960.5197	43671	42789.7
928.2055	1962.1247	43439.25	42559.55
928.3438	1963.729	43270.05	42390.7
928.482	1965.3325	43071.5	42167.1
928.6202	1966.9353	42976.6	42098.9
928.7584	1968.5374	42809.15	41926.8
928.8965	1970.1387	42675.65	41795.6
929.0346	1971.7393	42569.6	41687.7
929.1727	1973.3392	42379	41499.55
929.3108	1974.9383	42234.2	41356.2
929.4489	1976.5366	42031.4	41151.9
929.5869	1978.1342	42011.2	41129.45
929.7249	1979.7311	41920.95	41040.3
929.8629	1981.3273	41780.7	40900.05
930.0009	1982.9227	41610.4	40729.6
930.1388	1984.5173	41480.4	40600.4
930.2767	1986.1112	41247.75	40368.6
930.4146	1987.7044	41231.85	40353.95
930.5525	1989.2968	41020.85	40141.6
930.6904	1990.8885	40981.65	40099.65
930.8282	1992.4795	40857.85	39975.95
930.966	1994.0697	40684.7	39806.4
931.1038	1995.6592	40560.25	39680.9
931.2415	1997.2479	40482.15	39601.05
931.3793	1998.8359	40329.9	39449.45
931.517	2000.4232	40192	39312.15
931.6547	2002.0097	40090.4	39211.4
931.7923	2003.5955	39880.5	39001.8
931.93	2005.1805	39848	38966.55
932.0676	2006.7648	39673.35	38794.8
932.2052	2008.3484	39580.15	38698.35
932.3427	2009.9312	39611.55	38731.4
932.4803	2011.5133	39414.25	38536.85
932.6178	2013.0946	39301.75	38422.7
932.7553	2014.6752	39165.15	38287
932.8928	2016.2551	39088.15	38208
933.0302	2017.8342	38853	37973.8
933.1676	2019.4126	38760.15	37883.45
933.305	2020.9902	38630.8	37753.05
933.4424	2022.5672	38519.25	37638.15
933.5798	2024.1433	38494.85	37610.05
933.7171	2025.7188	38283.6	37407.9
933.8544	2027.2935	38198.7	37318
933.9917	2028.8674	37973.5	37093.75
934.129	2030.4406	37944.15	37066.35
934.2662	2032.0131	37757.3	36879.45
934.4034	2033.5849	37674.6	36789.95
934.5406	2035.1559	37555.8	36679.85
934.6778	2036.7261	37507.15	36628.5
934.8149	2038.2957	37372.9	36493.85
934.952	2039.8645	37336.45	36459.25
935.0891	2041.4325	37327.4	36448.1
935.2262	2042.9998	37083.35	36204.5
935.3632	2044.5664	37006.3	36123.75
935.5002	2046.1323	36898.8	36018.6
935.6372	2047.6974	36813.15	35934.95
935.7742	2049.2617	36692.85	35814.25
935.9111	2050.8254	36656.4	35774.2
936.048	2052.3883	36546.65	35664.6
936.1849	2053.9504	36400.95	35520.5
936.3218	2055.5118	36306.8	35425.85
936.4586	2057.0725	36138.3	35256.25
936.5955	2058.6325	36097.45	35218.95
936.7323	2060.1917	35939.45	35060.85
936.869	2061.7502	35866.65	34985.75
937.0058	2063.3079	35677.7	34800.2
937.1425	2064.8649	35552.85	34669.65
937.2792	2066.4212	35479.45	34600.2
937.4159	2067.9767	35431.65	34552.15
937.5525	2069.5315	35271.9	34392.65
937.6891	2071.0856	35129.3	34249.45
937.8257	2072.6389	34989.35	34108.8
937.9623	2074.1915	34802.85	33924.95
938.0989	2075.7433	34655.8	33774.85
938.2354	2077.2945	34574.05	33694.3
938.3719	2078.8448	34469.05	33591.35
938.5084	2080.3945	34319.25	33439.55
938.6448	2081.9434	34322.6	33442.95
938.7812	2083.4916	34159.25	33281.15
938.9176	2085.039	34004.85	33125.65
939.054	2086.5857	33972.45	33092.1
939.1903	2088.1317	33924.45	33041.75
939.3267	2089.677	33802.35	32923.8
939.463	2091.2215	33697.3	32818.6
939.5992	2092.7652	33636.2	32755.35
939.7355	2094.3083	33560.85	32680.8
939.8717	2095.8506	33462.7	32584.6
940.0079	2097.3921	33467.45	32589.45
940.1441	2098.933	33309.15	32429.95
940.2802	2100.4731	33215	32335.1
940.4163	2102.0124	33184.05	32288.25
940.5524	2103.5511	33116.4	32237.75
940.6885	2105.089	33003.95	32123.05
940.8245	2106.6261	32922.5	32041.7
940.9606	2108.1626	32841.7	31960.35
941.0965	2109.6983	32792.5	31882
941.2325	2111.2332	32697.1	31817.35
941.3684	2112.7675	32542.35	31662.2
941.5044	2114.301	32444.65	31566
941.6403	2115.8337	32430.75	31551
941.7761	2117.3657	32327.85	31450
941.912	2118.897	32250.85	31371.7
942.0478	2120.4276	32140.75	31255.1
942.1835	2121.9575	31970.35	31090.8
942.3193	2123.4866	31988.05	31094.3
942.455	2125.0149	31860.2	30978.3
942.5907	2126.5426	31664.8	30784.4
942.7264	2128.0695	31640.4	30753.2
942.8621	2129.5956	31589.3	30712.7
942.9977	2131.1211	31541.05	30657.85
943.1333	2132.6458	31426	30548.05
943.2689	2134.1698	31369.65	30490.05
943.4044	2135.693	31252.95	30370.15
943.54	2137.2155	31150.45	30268.65
943.6755	2138.7373	31115.4	30237.1
943.8109	2140.2584	30978.3	30098.4
943.9464	2141.7787	30879.55	29992.05
944.0818	2143.2983	30731.65	29853.05
944.2172	2144.8171	30582.35	29703.3
944.3526	2146.3353	30521.4	29641.55
944.4879	2147.8527	30397.4	29519.2
944.6232	2149.3693	30322.05	29442.3
944.7585	2150.8853	30184.9	29306.1
944.8938	2152.4005	30075.3	29197.7
945.029	2153.9149	30045.1	29166.1
945.1642	2155.4287	29956.1	29077.55
945.2994	2156.9417	29942	29060.9
945.4346	2158.454	29824.7	28943.4
945.5697	2159.9655	29716.45	28837
945.7048	2161.4764	29690.75	28812.1
945.8399	2162.9865	29556.6	28676.6
945.9749	2164.4958	29494.75	28614.95
946.1099	2166.0045	29343.85	28462.1
946.2449	2167.5124	29330.9	28453.35
946.3799	2169.0195	29262.4	28383.2
946.5148	2170.526	29208.9	28330.65
946.6498	2172.0317	29064.45	28183.55
946.7846	2173.5367	29024.55	28145.4
946.9195	2175.0409	28901.15	28024.3
947.0543	2176.5445	28889.55	28009.65
947.1891	2178.0473	28757.8	27877.1
947.3239	2179.5494	28617.5	27733.65
947.4587	2181.0507	28588.95	27710.5
947.5934	2182.5513	28453.3	27574.3
947.7281	2184.0512	28402.4	27525.2
947.8628	2185.5504	28322.9	27443.7
947.9974	2187.0488	28133.8	27256.4
948.132	2188.5465	28035.55	27156.1
948.2666	2190.0435	27970	27090.15
948.4012	2191.5397	27885.25	27007.65
948.5357	2193.0353	27779.15	26899.9
948.6702	2194.5301	27608.25	26726.85
948.8047	2196.0241	27553.05	26673.05
948.9392	2197.5175	27444.4	26567
949.0736	2199.0101	27362.85	26482.25
949.208	2200.502	27188.15	26310.95
949.3424	2201.9931	27128.85	26248.9
949.4767	2203.4835	27022.35	26143.45
949.611	2204.9733	27000.1	26114.25
949.7453	2206.4622	26899.8	26022.65
949.8796	2207.9505	26799	25918.3
950.0138	2209.438	26695.15	25818.1
950.148	2210.9248	26623.9	25744.4
950.2822	2212.4109	26498.85	25622.25
950.4164	2213.8962	26399.95	25518.85
950.5505	2215.3809	26332.25	25453.2
950.6846	2216.8648	26299.45	25417.65
950.8186	2218.3479	26208.55	25324.65
950.9527	2219.8304	26117.7	25235.1
951.0867	2221.3121	26016.5	25134.9
951.2207	2222.7931	25941.5	25062.7
951.3546	2224.2733	25816.5	24937.65
951.4886	2225.7529	25723.6	24843.9
951.6225	2227.2317	25634.35	24753.4
951.7563	2228.7098	25559.05	24680.2
951.8902	2230.1872	25445.75	24566.7
952.024	2231.6638	25437.55	24558.7
952.1578	2233.1397	25312.55	24428.95
952.2916	2234.6149	25255.7	24377.05
952.4253	2236.0894	25136.3	24256.9
952.559	2237.5632	25076.65	24195.4
952.6927	2239.0362	24973.2	24092.1
952.8263	2240.5085	24921.85	24041.8
952.9599	2241.9801	24815.65	23936.65
953.0935	2243.4509	24740.25	23860.8
953.2271	2244.921	24677.7	23801
953.3606	2246.3904	24568.15	23686.25
953.4941	2247.8591	24492.25	23611.65
953.6276	2249.3271	24444	23565.8
953.7611	2250.7943	24343.1	23463.45
953.8945	2252.2608	24226.55	23347.35
954.0279	2253.7266	24185	23308.05
954.1612	2255.1917	24108.75	23229.7
954.2946	2256.656	23980.75	23099.35
954.4279	2258.1197	23957.1	23078.8
954.5612	2259.5826	23865.65	22984.3
954.6944	2261.0447	23883.45	23003.45
954.8276	2262.5062	23742	22862.75
954.9608	2263.9669	23704.45	22824.95
955.094	2265.4269	23655.45	22778.05
955.2271	2266.8862	23547.65	22667.65
955.3602	2268.3448	23548.5	22670.2
955.4933	2269.8026	23447	22566.9
955.6264	2271.2598	23355.3	22472.55
955.7594	2272.7162	23240.7	22362.05
955.8924	2274.1719	23225.4	22345.5
956.0253	2275.6268	23135.5	22257.5
956.1583	2277.0811	23078.8	22198.75
956.2912	2278.5346	23047.8	22168.2
956.4241	2279.9874	22946	22067.6
956.5569	2281.4395	22934.25	22055.95
956.6897	2282.8908	22820.55	21937.55
956.8225	2284.3414	22749.35	21869.8
956.9553	2285.7914	22632.05	21754
957.088	2287.2406	22549.7	21668.2
957.2207	2288.689	22546.75	21667
957.3534	2290.1368	22459.1	21579.1
957.486	2291.5838	22410.05	21526.35
957.6186	2293.0302	22348.85	21468.75
957.7512	2294.4758	22240	21358.5
957.8838	2295.9206	22135.35	21254.55
958.0163	2297.3648	22052.85	21173.5
958.1488	2298.8082	22059.25	21178.8
958.2813	2300.251	21979.25	21099.25
958.4137	2301.693	21927.2	21044.7
958.5461	2303.1343	21892.6	21012.4
958.6785	2304.5748	21797.2	20921.95
958.8108	2306.0147	21735.75	20855
958.9432	2307.4538	21659.55	20777.3
959.0754	2308.8922	21584.6	20708.05
959.2077	2310.3299	21525.1	20646.25
959.3399	2311.7669	21433.65	20555.65
959.4721	2313.2031	21345.3	20465.3
959.6043	2314.6387	21306.3	20428.3
959.7365	2316.0735	21202.95	20323.4
959.8686	2317.5076	21195.75	20316
960.0006	2318.941	21106.05	20226.8
960.1327	2320.3737	21077.2	20198.35
960.2647	2321.8056	21015.8	20133.15
960.3967	2323.2369	20916.1	20034.25
960.5287	2324.6674	20869.4	19988.45
960.6606	2326.0972	20756.95	19876.25
960.7925	2327.5263	20706.5	19827.95
960.9244	2328.9547	20665	19784.45
961.0562	2330.3823	20614.5	19734.1
961.1881	2331.8092	20558.55	19676.55
961.3198	2333.2355	20438.65	19559.8
961.4516	2334.661	20445.9	19567.1
961.5833	2336.0858	20384.85	19504.4
961.715	2337.5098	20322.5	19443.9
961.8467	2338.9332	20302.9	19422.1
961.9783	2340.3558	20180.3	19297.9
962.1099	2341.7778	20120.5	19240.9
962.2415	2343.199	20056.75	19176.4
962.373	2344.6195	19985.4	19107.5
962.5045	2346.0393	19943.95	19064.7
962.636	2347.4583	19904.4	19024.5
962.7675	2348.8767	19841.1	18961.2
962.8989	2350.2943	19765	18884.6
963.0303	2351.7113	19699.45	18819.05
963.1617	2353.1275	19633.5	18754.8
963.293	2354.543	19616.15	18728.45
963.4243	2355.9578	19524.55	18645.7
963.5556	2357.3718	19401.9	18522.4
963.6868	2358.7852	19317.2	18434.15
963.818	2360.1978	19244.55	18363.4
963.9492	2361.6098	19221.6	18343.6
964.0803	2363.021	19144.8	18264.4
964.2114	2364.4315	19102	18222.65
964.3425	2365.8413	19041.5	18160.5
964.4736	2367.2504	18975.5	18096.05
964.6046	2368.6587	18869.75	17990.1
964.7356	2370.0664	18803.3	17924.15
964.8666	2371.4733	18756.65	17877.2
964.9975	2372.8795	18699.45	17822.7
965.1284	2374.285	18633	17752.15
965.2593	2375.6899	18518.8	17641.65
965.3901	2377.0939	18437.15	17557.6
965.5209	2378.4973	18384.95	17507.55
965.6517	2379.9	18353.4	17472.75
965.7825	2381.3019	18261	17382.25
965.9132	2382.7032	18218.85	17341.05
966.0439	2384.1037	18185.9	17310.35
966.1745	2385.5035	18139.05	17259.85
966.3051	2386.9027	18038.35	17159.85
966.4357	2388.3011	18018.35	17136.85
966.5663	2389.6987	17976.75	17097.4
966.6968	2391.0957	17897.1	17017.55
966.8273	2392.492	17799.45	16921.85
966.9578	2393.8876	17698.6	16819.3
967.0882	2395.2824	17641.7	16763.45
967.2186	2396.6765	17568.8	16691.3
967.349	2398.07	17480.6	16601.1
967.4793	2399.4627	17487.75	16609.1
967.6097	2400.8547	17414.05	16533.8
967.7399	2402.246	17330.1	16444.9
967.8702	2403.6366	17248.6	16369.65
968.0004	2405.0265	17150.2	16275.05
968.1306	2406.4156	17098.95	16216.8
968.2607	2407.8041	17037.45	16153.15
968.3909	2409.1918	16981.05	16099.05
968.521	2410.5789	16899.6	16020.75
968.651	2411.9652	16822.4	15940.95
968.781	2413.3508	16792.7	15913.75
968.911	2414.7358	16714.45	15835.05
969.041	2416.12	16639.05	15759.7
969.1709	2417.5035	16630.1	15751.6
969.3008	2418.8863	16562.4	15682.6
969.4307	2420.2684	16518.75	15639.85
969.5606	2421.6497	16473.2	15594.15
969.6904	2423.0304	16313.15	15434.65
969.8201	2424.4104	16280.9	15403.05
969.9499	2425.7896	16250.6	15370.45
970.0796	2427.1682	16193.7	15313.8
970.2093	2428.546	16156.65	15277.3
970.3389	2429.9232	16093.55	15214.6
970.4685	2431.2996	16085	15207.8
970.5981	2432.6753	16049.3	15169.65
970.7277	2434.0503	15952.4	15072.55
970.8572	2435.4246	15867.4	14989.35
970.9867	2436.7982	15838.2	14956.55
971.1161	2438.1711	15792.25	14913.45
971.2456	2439.5433	15738.3	14859.15
971.375	2440.9148	15692.35	14812.4
971.5043	2442.2856	15578.1	14700.2
971.6336	2443.6557	15543.7	14663.7
971.7629	2445.025	15504.3	14627.3
971.8922	2446.3937	15474.7	14595
972.0214	2447.7617	15397.2	14517.3
972.1506	2449.1289	15387.4	14508.65
972.2798	2450.4955	15366.9	14482.3
972.4089	2451.8613	15264.1	14386.85
972.538	2453.2265	15239.65	14359.05
972.6671	2454.5909	15222.6	14343.3
972.7961	2455.9546	15171.45	14291.55
972.9251	2457.3177	15095.6	14217
973.0541	2458.68	15038.8	14159.2
973.1831	2460.0416	15022.5	14143.2
973.312	2461.4025	14985.35	14108.15
973.4408	2462.7627	14931.1	14043.1
973.5697	2464.1222	14887.65	14012.15
973.6985	2465.4811	14863.35	13982.45
973.8273	2466.8392	14795.5	13916.6
973.956	2468.1966	14742.85	13861.4
974.0847	2469.5533	14738.3	13856.95
974.2134	2470.9093	14682.15	13802.75
974.3421	2472.2645	14597.3	13716.3
974.4707	2473.6191	14550.9	13672.55
974.5993	2474.973	14505.4	13627.1
974.7278	2476.3262	14449.35	13566.95
974.8563	2477.6787	14414.15	13538.25
974.9848	2479.0305	14344.55	13464.15
975.1132	2480.3816	14286.45	13405.55
975.2417	2481.7319	14260.9	13380.7
975.37	2483.0816	14176	13294.45
975.4984	2484.4306	14112.55	13233.05
975.6267	2485.7789	14090.2	13212.35
975.755	2487.1264	14034.7	13153.15
975.8833	2488.4733	13981.05	13104.75
976.0115	2489.8195	13925.1	13039.15
976.1397	2491.165	13860	12980.3
976.2678	2492.5097	13797	12918.65
976.3959	2493.8538	13758.15	12879.05
976.524	2495.1972	13708.45	12827.95
976.6521	2496.5398	13621.25	12739.6
976.7801	2497.8818	13595.9	12716.5
976.9081	2499.2231	13558.25	12678.4
977.036	2500.5637	13499.65	12619.7
977.164	2501.9035	13467.7	12588.4
977.2918	2503.2427	13421.7	12538.45
977.4197	2504.5812	13362.3	12485.75
977.5475	2505.919	13337.2	12455
977.6753	2507.256	13344.2	12465.15
977.8031	2508.5924	13240.95	12361.05
977.9308	2509.9281	13206.75	12320.55
978.0585	2511.2631	13139.65	12260
978.1861	2512.5974	13118.15	12239.4
978.3137	2513.9309	13081.8	12202
978.4413	2515.2638	13036.55	12130
978.5689	2516.596	13000.4	12122.7
978.6964	2517.9275	12903	12022.45
978.8239	2519.2583	12865.15	11985.4
978.9513	2520.5884	12825	11943.5
979.0788	2521.9178	12775.65	11894.25
979.2062	2523.2465	12734.3	11855.15
979.3335	2524.5745	12661.85	11784.05
979.4608	2525.9018	12628.3	11750.4
979.5881	2527.2284	12632.5	11756.7
979.7154	2528.5543	12563	11684.7
979.8426	2529.8796	12522.5	11644
979.9698	2531.2041	12494	11615.4
980.0969	2532.5279	12484.55	11607.85
980.224	2533.851	12454.25	11572.2
980.3511	2535.1735	12432.1	11554.65
980.4781	2536.4952	12384.2	11504
980.6052	2537.8163	12363.7	11485.15
980.7321	2539.1366	12318.9	11440.35
980.8591	2540.4562	12261.5	11382.55
980.986	2541.7752	12236.1	11359.15
981.1129	2543.0935	12253.6	11373.4
981.2397	2544.411	12193.25	11313.75
981.3665	2545.7279	12152.55	11272.8
981.4933	2547.0441	12149.45	11270.1
981.62	2548.3596	12130.05	11248.95
981.7467	2549.6744	12109.15	11229.7
981.8734	2550.9885	12068.25	11182
982.0001	2552.3019	11989.85	11112.45
982.1267	2553.6146	11964.8	11086.75
982.2532	2554.9266	11925.75	11044.35
982.3798	2556.2379	11897.2	11016.9
982.5063	2557.5485	11866.65	10989.9
982.6327	2558.8585	11845.15	10959.4
982.7592	2560.1677	11821.45	10939.45
982.8856	2561.4762	11794.2	10915.6
983.0119	2562.7841	11779.6	10897.7
983.1383	2564.0913	11719.15	10841.15
983.2646	2565.3977	11728	10850.4
983.3908	2566.7035	11635.45	10755.95
983.517	2568.0086	11650.25	10769.85
983.6432	2569.313	11635.35	10755.8
983.7694	2570.6167	11630.15	10746.25
983.8955	2571.9197	11540.55	10664.65
984.0216	2573.222	11550.6	10668.95
984.1476	2574.5236	11520.55	10641.45
984.2737	2575.8246	11477	10594.75
984.3996	2577.1248	11457.6	10576.15
984.5256	2578.4244	11439.9	10560.95
984.6515	2579.7232	11419.95	10541.65
984.7774	2581.0214	11408.3	10505.25
984.9032	2582.3189	11350.55	10473.45
985.029	2583.6157	11341	10455.95
985.1548	2584.9118	11321.95	10443.9
985.2806	2586.2072	11281.9	10401.95
985.4063	2587.5019	11231.35	10352.55
985.5319	2588.7959	11207.9	10326.55
985.6576	2590.0893	11210.25	10329.9
985.7832	2591.3819	11155.5	10276
985.9087	2592.6739	11082.15	10203
986.0343	2593.9652	11067.4	10186.75
986.1597	2595.2557	11012.1	10133.05
986.2852	2596.5456	10992.2	10112.3
986.4106	2597.8348	10945.15	10066.95
986.536	2599.1234	10894.75	10017.85
986.6614	2600.4112	10828.35	9948.75
986.7867	2601.6983	10830.15	9948.45
986.912	2602.9848	10799	9920.3
987.0372	2604.2705	10722.75	9838.3
987.1624	2605.5556	10715.35	9838.2
987.2876	2606.84	10687.85	9809.6
987.4128	2608.1237	10646.9	9768.2
987.5379	2609.4067	10607.1	9725.95
987.6629	2610.689	10563.7	9675.35
987.788	2611.9707	10529.65	9647.7
987.913	2613.2516	10478.45	9594.4
988.0379	2614.5319	10424.75	9547.15
988.1629	2615.8115	10370.05	9490.3
988.2878	2617.0903	10342.8	9464.1
988.4126	2618.3685	10324.05	9445.75
988.5375	2619.6461	10267.85	9388.4
988.6622	2620.9229	10244.2	9365.15
988.787	2622.199	10211.15	9329.75
988.9117	2623.4745	10176.5	9297.4
989.0364	2624.7493	10170.55	9293.1
989.161	2626.0234	10102.7	9227.15
989.2857	2627.2968	10061.45	9182.5
989.4102	2628.5695	10033.85	9154
989.5348	2629.8415	9979.25	9101.8
989.6593	2631.1128	9949.05	9069.9
989.7837	2632.3835	9896.4	9015.8
989.9082	2633.6535	9838.9	8959.7
990.0326	2634.9228	9834.85	8955.8
990.1569	2636.1914	9804.4	8925.9
990.2812	2637.4593	9789.95	8905.15
990.4055	2638.7265	9736.5	8856.55
990.5298	2639.9931	9703.15	8824.3
990.654	2641.259	9682.7	8803.05
990.7782	2642.5242	9632.95	8753.95
990.9023	2643.7887	9620.7	8741.45
991.0264	2645.0525	9582.3	8703.9
991.1505	2646.3156	9543.95	8664.85
991.2745	2647.5781	9525.6	8645.2
991.3985	2648.8398	9455.85	8578
991.5225	2650.1009	9493.15	8577.55
991.6464	2651.3613	9434.55	8556.15
991.7703	2652.6211	9426.35	8545.6
991.8942	2653.8801	9356.1	8479.85
992.018	2655.1385	9346.3	8464.4
992.1418	2656.3961	9304	8425.55
992.2655	2657.6531	9315.65	8435.4
992.3892	2658.9094	9256.65	8378.9
992.5129	2660.1651	9229.2	8351.15
992.6366	2661.42	9176.55	8298.15
992.7602	2662.6743	9174.85	8295.65
992.8837	2663.9279	9174.45	8296.85
993.0073	2665.1808	9154.85	8273.55
993.1307	2666.433	9127.4	8247.85
993.2542	2667.6846	9103.4	8224.6
993.3776	2668.9354	9077.85	8196.9
993.501	2670.1856	9039.15	8159.35
993.6244	2671.4351	9008.2	8130.3
993.7477	2672.6839	8994.05	8115.15
993.8709	2673.9321	8957.05	8079.25
993.9942	2675.1795	8933.6	8054.45
994.1174	2676.4263	8886.05	8008.2
994.2405	2677.6724	8885.6	8006.65
994.3637	2678.9179	8852.4	7972.65
994.4868	2680.1626	8829.25	7950.3
994.6098	2681.4067	8819.45	7938.75
994.7328	2682.6501	8774.45	7896.45
994.8558	2683.8928	8745.25	7867.4
994.9788	2685.1348	8706.8	7828.75
995.1017	2686.3761	8677.25	7797.6
995.2245	2687.6168	8639.5	7759.65
995.3474	2688.8568	8603.4	7725.05
995.4702	2690.0961	8589.55	7712.5
995.5929	2691.3348	8548.7	7669.45
995.7156	2692.5727	8531.75	7654.15
995.8383	2693.81	8492.85	7614.25
995.961	2695.0466	8483.2	7606.05
996.0836	2696.2826	8451.1	7572.45
996.2062	2697.5178	8427.1	7546.35
996.3287	2698.7524	8387.85	7510.5
996.4512	2699.9863	8400	7519.9
996.5737	2701.2195	8365	7487.35
996.6961	2702.452	8310.55	7432.5
996.8185	2703.6839	8332.2	7452.15
996.9408	2704.9151	8281.55	7403.2
997.0631	2706.1456	8230.85	7351.25
997.1854	2707.3755	8237.05	7358
997.3077	2708.6046	8210.65	7331.85
997.4299	2709.8331	8181.55	7301.65
997.552	2711.0609	8145.65	7266.4
997.6742	2712.2881	8103.9	7224.8
997.7963	2713.5145	8108.65	7229.8
997.9183	2714.7403	8071.55	7195.45
998.0403	2715.9654	8056.55	7176.35
998.1623	2717.1899	8032.25	7151.5
998.2842	2718.4136	8028.65	7150.3
998.4062	2719.6367	7992	7113.75
998.528	2720.8591	7953.95	7070.4
998.6498	2722.0809	7939.75	7062.25
998.7716	2723.3019	7900.65	7018.6
998.8934	2724.5223	7894.55	7013.7
999.0151	2725.7421	7868.5	6988.3
999.1368	2726.9611	7852	6970.85
999.2584	2728.1795	7795.1	6911.85
999.38	2729.3972	7789.65	6909.45
999.5016	2730.6142	7762.5	6877.6
999.6231	2731.8306	7704.35	6824.55
999.7446	2733.0462	7663.15	6782.8
999.8661	2734.2612	7629.9	6746
999.9875	2735.4756	7565.7	6686.45
1000.1089	2736.6892	7538.05	6659.3
1000.2302	2737.9022	7516.4	6640.5
1000.3515	2739.1145	7472.45	6593.4
1000.4728	2740.3262	7440	6553.95
1000.594	2741.5372	7400.8	6521.6
1000.7152	2742.7475	7379.65	6499.15
1000.8363	2743.9571	7365	6484.5
1000.9575	2745.1661	7349.45	6464.9
1001.0785	2746.3744	7317.95	6437.8
1001.1996	2747.582	7287.35	6410.1
1001.3206	2748.7889	7253.25	6374.65
1001.4415	2749.9952	7227.6	6348.9
1001.5625	2751.2008	7187.5	6309.8
1001.6833	2752.4057	7183.4	6303.3
1001.8042	2753.61	7131.5	6252.1
1001.925	2754.8136	7110.7	6231.05
1002.0458	2756.0165	7082.65	6205.7
1002.1665	2757.2188	7054.35	6176.7
1002.2872	2758.4204	7041.3	6163.55
1002.4078	2759.6213	7018.75	6136.45
1002.5285	2760.8215	7003.35	6120.95
1002.649	2762.0211	6969.5	6087.85
1002.7696	2763.22	6941.65	6058.25
1002.8901	2764.4182	6932.65	6053.2
1003.0106	2765.6158	6916.55	6036.9
1003.131	2766.8127	6894.65	6015.35
1003.2514	2768.009	6865.25	5986.8
1003.3717	2769.2045	6823.55	5944.5
1003.492	2770.3994	6835	5956.4
1003.6123	2771.5936	6800.05	5920.4
1003.7325	2772.7872	6761.85	5883.9
1003.8527	2773.9801	6717.9	5838.7
1003.9729	2775.1723	6734.25	5839.4
1004.093	2776.3639	6658.2	5781.1
1004.2131	2777.5548	6667.1	5786.4
1004.3331	2778.745	6645.1	5763.85
1004.4531	2779.9346	6611.5	5734.85
1004.5731	2781.1235	6583.45	5703.9
1004.693	2782.3117	6592.65	5714.9
1004.8129	2783.4992	6569.55	5693.5
1004.9328	2784.6861	6535.5	5657.6
1005.0526	2785.8723	6526.1	5646.9
1005.1723	2787.0579	6503.5	5624.7
1005.2921	2788.2428	6475.2	5597.2
1005.4118	2789.427	6460.85	5583.5
1005.5314	2790.6106	6441.8	5562
1005.651	2791.7935	6411.6	5533.9
1005.7706	2792.9757	6404.55	5526.45
1005.8902	2794.1573	6388.85	5509.75
1006.0097	2795.3382	6372.4	5496.5
1006.1291	2796.5184	6339	5463.2
1006.2485	2797.698	6326.5	5447.15
1006.3679	2798.8769	6312.95	5434.65
1006.4873	2800.0551	6330.35	5453.05
1006.6066	2801.2327	6306.3	5425.55
1006.7258	2802.4096	6275.55	5397.75
1006.8451	2803.5859	6275.25	5398.9
1006.9642	2804.7615	6257.2	5377.3
1007.0834	2805.9364	6259.35	5382.4
1007.2025	2807.1106	6243.25	5363.95
1007.3216	2808.2842	6244.15	5364.15
1007.4406	2809.4572	6243.55	5365.4
1007.5596	2810.6294	6250.2	5369.3
1007.6785	2811.801	6272.25	5395.3
1007.7975	2812.972	6294.8	5417
1007.9163	2814.1423	6296.25	5419.7
1008.0352	2815.3119	6295.85	5419.25
1008.154	2816.4808	6323.8	5446.75
1008.2727	2817.6491	6347.25	5469.6
1008.3914	2818.8167	6364.7	5487.2
1008.5101	2819.9837	6406.2	5523.05
1008.6288	2821.15	6415.45	5537.05
1008.7474	2822.3157	6432.15	5554
1008.8659	2823.4807	6446.2	5568.2
1008.9844	2824.645	6488.2	5608.35
1009.1029	2825.8086	6510.05	5634.35
1009.2214	2826.9716	6532.9	5656.95
1009.3398	2828.134	6567.05	5690.25
1009.4581	2829.2957	6572.95	5692
1009.5764	2830.4567	6604.75	5727.4
1009.6947	2831.617	6600.35	5720.85
1009.813	2832.7767	6589.4	5711.35
1009.9312	2833.9358	6587.05	5710.85
1010.0493	2835.0941	6560.1	5682.5
1010.1675	2836.2519	6533.85	5657.4
1010.2855	2837.4089	6513.8	5635.8
1010.4036	2838.5653	6501.45	5623.85
1010.5216	2839.7211	6478.8	5602.15
1010.6396	2840.8761	6467.4	5586.55
1010.7575	2842.0306	6450.65	5574.15
1010.8754	2843.1843	6480.5	5602.05
1010.9932	2844.3374	6485.1	5606.65
1011.111	2845.4899	6512.05	5633.2
1011.2288	2846.6417	6539.4	5660.05
1011.3465	2847.7928	6547.95	5673.1
1011.4642	2848.9433	6599.95	5720.2
1011.5818	2850.0931	6629.1	5751.75
1011.6995	2851.2422	6677.9	5797.65
1011.817	2852.3907	6702.75	5823.5
1011.9345	2853.5385	6719.85	5841.1
1012.052	2854.6857	6760.6	5871.5
1012.1695	2855.8323	6762.4	5886.05
1012.2869	2856.9781	6785.25	5906.5
1012.4042	2858.1233	6812.2	5934.15
1012.5216	2859.2679	6827.1	5950.95
1012.6389	2860.4118	6856.25	5977.85
1012.7561	2861.555	6882	5999.6
1012.8733	2862.6976	6875.45	5996.95
1012.9905	2863.8395	6890.9	6011.35
1013.1076	2864.9808	6902.2	6025.35
1013.2247	2866.1214	6894.7	6019.1
1013.3417	2867.2614	6883.9	6005.6
1013.4587	2868.4007	6888	6009.15
1013.5757	2869.5393	6883.05	6002.55
1013.6926	2870.6773	6858.95	5977.55
1013.8095	2871.8146	6859.45	5980.2
1013.9263	2872.9513	6857.7	5979.1
1014.0431	2874.0874	6795.9	5918.6
1014.1599	2875.2227	6780.05	5899.95
1014.2766	2876.3574	6758.2	5879.35
1014.3933	2877.4915	6717.85	5837.85
1014.51	2878.6249	6677.4	5800.8
1014.6266	2879.7577	6650.15	5773.5
1014.7431	2880.8898	6629.15	5739.9
1014.8596	2882.0212	6574.05	5696.75
1014.9761	2883.152	6551.95	5672.25
1015.0925	2884.2821	6519.85	5642.3
1015.2089	2885.4116	6523.8	5647.25
1015.3253	2886.5405	6479.75	5601.1
1015.4416	2887.6686	6480.55	5599.35
1015.5579	2888.7962	6457.45	5582.3
1015.6741	2889.923	6436.55	5558.5
1015.7903	2891.0493	6449.5	5573.8
1015.9065	2892.1748	6431.35	5554.95
1016.0226	2893.2997	6399.95	5522.2
1016.1387	2894.424	6398.95	5522.5
1016.2547	2895.5476	6404.3	5526
1016.3707	2896.6706	6412.05	5534.6
1016.4866	2897.7929	6398.5	5518.65
1016.6025	2898.9145	6411.85	5533.15
1016.7184	2900.0355	6401.8	5521
1016.8342	2901.1559	6397.35	5518.9
1016.95	2902.2756	6429.75	5552.05
1017.0658	2903.3946	6422.85	5543.8
1017.1815	2904.513	6448.5	5567.8
1017.2971	2905.6308	6437.65	5559.95
1017.4127	2906.7479	6431.35	5552.2
1017.5283	2907.8643	6442.8	5564.95
1017.6439	2908.9801	6434.7	5555.2
1017.7594	2910.0953	6428.95	5552
1017.8748	2911.2098	6414.75	5533.1
1017.9902	2912.3236	6378.8	5492.15
1018.1056	2913.4368	6366.6	5485.7
1018.2209	2914.5494	6328.85	5451.25
1018.3362	2915.6613	6288.75	5403.8
1018.4515	2916.7725	6248.5	5367.8
1018.5667	2917.8831	6239.15	5359.55
1018.6819	2918.9931	6192.5	5310.95
1018.797	2920.1024	6162.55	5282.3
1018.9121	2921.211	6150.6	5273.1
1019.0271	2922.319	6089.5	5211.25
1019.1421	2923.4264	6070.1	5195.15
1019.2571	2924.5331	6046.8	5168.8
1019.372	2925.6391	6029.8	5151.3
1019.4869	2926.7445	6025.05	5148.75
1019.6017	2927.8493	5989.9	5112.65
1019.7165	2928.9534	5995.5	5114.95
1019.8313	2930.0569	5977.8	5096.6
1019.946	2931.1597	5980.6	5100.85
1020.0606	2932.2619	5964.3	5085.2
1020.1753	2933.3634	5938.15	5060.45
1020.2899	2934.4643	5962.7	5077.25
1020.4044	2935.5645	5912.4	5028.95
1020.5189	2936.6641	5894.05	5013.6
1020.6334	2937.763	5850.5	4972.7
1020.7478	2938.8613	5818.6	4939.6
1020.8622	2939.959	5766.55	4883.7
1020.9765	2941.056	5696.8	4818.1
1021.0908	2942.1523	5625.2	4745.2
1021.2051	2943.248	5546.55	4667.9
1021.3193	2944.3431	5475.3	4598.4
1021.4334	2945.4375	5371.45	4493.15
1021.5476	2946.5313	5272.7	4395.9
1021.6617	2947.6244	5209.7	4331.25
1021.7757	2948.7169	5107.5	4227.7
1021.8897	2949.8087	5031.05	4154.9
1022.0037	2950.8999	4936.85	4058.45
1022.1176	2951.9904	4872.55	3992.95
1022.2315	2953.0803	4811.1	3931.2
1022.3453	2954.1696	4741.5	3864.25
1022.4591	2955.2582	4703.9	3828.2
1022.5728	2956.3462	4645.2	3767.35
1022.6865	2957.4335	4608.3	3729.7
1022.8002	2958.5202	4556.6	3677.15
1022.9138	2959.6062	4496.3	3619.2
1023.0274	2960.6916	4487.55	3609.65
1023.141	2961.7764	4458.15	3578.85
1023.2545	2962.8605	4431.6	3552.3
1023.3679	2963.9439	4405.95	3528.9
1023.4813	2965.0267	4384.35	3506.95
1023.5947	2966.1089	4377.4	3476.8
1023.708	2967.1905	4348.25	3471.2
1023.8213	2968.2714	4332.85	3454.25
1023.9346	2969.3516	4329.1	3450.9
1024.0478	2970.4312	4327.15	3440.25
1024.1609	2971.5102	4308.5	3431.35
1024.274	2972.5885	4288.25	3409.2
1024.3871	2973.6662	4282.85	3399.7
1024.5002	2974.7432	4268.95	3393.5
1024.6132	2975.8196	4245.05	3366.3
1024.7261	2976.8954	4246.75	3370.5
1024.839	2977.9705	4210.45	3332.6
1024.9519	2979.045	4194.75	3315.95
1025.0647	2980.1188	4170.45	3293.05
1025.1775	2981.192	4151.05	3272.85
1025.2902	2982.2645	4124.8	3246.55
1025.4029	2983.3364	4092.9	3213.75
1025.5156	2984.4077	4061.25	3184.5
1025.6282	2985.4783	4026.4	3141.85
1025.7407	2986.5483	4006.25	3130.3
1025.8532	2987.6177	3967.95	3089.75
1025.9657	2988.6864	3930.55	3051.9
1026.0782	2989.7545	3896.25	3016.3
1026.1906	2990.8219	3853.45	2977.7
1026.3029	2991.8887	3833.75	2952.55
1026.4152	2992.9548	3790.9	2912.85
1026.5275	2994.0204	3770.15	2891.7
1026.6397	2995.0852	3711.55	2834.2
1026.7519	2996.1495	3692.3	2813.85
1026.864	2997.2131	3671.2	2793.5
1026.9761	2998.276	3646.8	2768.3
1027.0882	2999.3383	3628	2749.25
1027.2002	3000.4	3586.5	2707.65
1027.3122	3001.4611	3559.4	2680.7
1027.4241	3002.5215	3536.3	2657.6
1027.536	3003.5812	3509.95	2632.65
1027.6478	3004.6404	3487.6	2610.1
1027.7596	3005.6989	3497.1	2617.5
1027.8714	3006.7567	3460.95	2584.05
1027.9831	3007.8139	3485.8	2575.05
1028.0947	3008.8705	3439.3	2562.9
1028.2064	3009.9264	3426.1	2545.05
1028.3179	3010.9818	3425.25	2545.85
1028.4295	3012.0364	3407.8	2528.95
1028.541	3013.0905	3387.55	2509.5
1028.6524	3014.1439	3356.9	2478.15
1028.7638	3015.1966	3351.9	2474.3
1028.8752	3016.2487	3343.6	2465.1
1028.9865	3017.3002	3337.45	2455.9
1029.0978	3018.3511	3313.9	2438.45
1029.209	3019.4013	3310.75	2432
1029.3202	3020.4509	3312.4	2434.8
1029.4314	3021.4998	3286.9	2408.55
1029.5425	3022.5481	3290.35	2413.15
1029.6535	3023.5958	3281.2	2405.25
1029.7645	3024.6428	3262	2383
1029.8755	3025.6892	3256.9	2378.4
1029.9864	3026.735	3259.85	2383.35
1030.0973	3027.7802	3242.9	2364.7
1030.2082	3028.8247	3233.9	2356.35
1030.319	3029.8685	3210.6	2331.95
1030.4297	3030.9118	3209.9	2329.6
1030.5404	3031.9544	3188.75	2311.4
1030.6511	3032.9963	3192.5	2315.1
1030.7617	3034.0376	3180.55	2301.6
1030.8723	3035.0783	3173.2	2292.25
1030.9829	3036.1184	3164.25	2284.95
1031.0934	3037.1578	3166.65	2289.95
1031.2038	3038.1966	3148.95	2270.8
1031.3142	3039.2348	3148.95	2272.1
1031.4246	3040.2723	3142.3	2256.15
1031.5349	3041.3092	3124.25	2248.7
1031.6452	3042.3455	3120.55	2241.05
1031.7554	3043.3811	3113.35	2234
1031.8656	3044.4161	3092.5	2212.95
1031.9758	3045.4505	3094.95	2217.1
1032.0859	3046.4842	3079.5	2200.45
1032.1959	3047.5173	3065.1	2189.85
1032.3059	3048.5498	3060.7	2183.1
1032.4159	3049.5816	3038.65	2159.85
1032.5258	3050.6128	3043.3	2164.95
1032.6357	3051.6434	3036.7	2157.7
1032.7455	3052.6734	3021.25	2143.7
1032.8553	3053.7027	3009.5	2131.9
1032.9651	3054.7314	3010.35	2133.9
1033.0748	3055.7594	2990.95	2113.85
1033.1845	3056.7868	2989.2	2112.3
1033.2941	3057.8136	2968.2	2090.55
1033.4037	3058.8398	2954.2	2075.9
1033.5132	3059.8653	2939.8	2061.8
1033.6227	3060.8902	2929.3	2050.15
1033.7321	3061.9145	2923.65	2046
1033.8415	3062.9381	2909.7	2032.8
1033.9509	3063.9612	2915.9	2023.65
1034.0602	3064.9835	2894.1	2016.95
1034.1694	3066.0053	2876.15	1995.15
1034.2787	3067.0264	2879.9	2001.75
1034.3878	3068.0469	2877.1	1996.9
1034.497	3069.0668	2860.3	1980.8
1034.6061	3070.086	2841.25	1965.5
1034.7151	3071.1046	2821.7	1943.5
1034.8241	3072.1226	2820.4	1943.1
1034.9331	3073.1399	2813.5	1936.45
1035.042	3074.1567	2793.5	1914.4
1035.1508	3075.1727	2780	1899.5
1035.2597	3076.1882	2778.7	1901.75
1035.3684	3077.203	2762.45	1885.5
1035.4772	3078.2173	2741.9	1861.9
1035.5859	3079.2308	2737.9	1857.7
1035.6945	3080.2438	2719.75	1840.6
1035.8031	3081.2561	2714.75	1837.05
1035.9117	3082.2678	2687.95	1809
1036.0202	3083.2789	2686.2	1809.75
1036.1286	3084.2893	2673.75	1795.1
1036.2371	3085.2991	2656.85	1778.45
1036.3454	3086.3083	2656.25	1774.6
1036.4538	3087.3169	2638.45	1760.75
1036.562	3088.3248	2627.15	1748.3
1036.6703	3089.3321	2624.15	1743.3
1036.7785	3090.3388	2617.5	1740.15
1036.8866	3091.3449	2608.1	1730.25
1036.9948	3092.3503	2584.75	1705.7
1037.1028	3093.3551	2591.6	1716.5
1037.2108	3094.3593	2578.2	1702.8
1037.3188	3095.3629	2554.85	1679.5
1037.4267	3096.3658	2558.4	1679
1037.5346	3097.3681	2542.9	1664.35
1037.6425	3098.3698	2533.35	1655.05
1037.7503	3099.3708	2529.75	1645.65
1037.858	3100.3713	2516.5	1638.9
1037.9657	3101.3711	2499.5	1621.7
1038.0734	3102.3702	2608.35	1596.15
1038.181	3103.3688	2506.6	1627.7
1038.2886	3104.3667	2470.85	1593.15
1038.3961	3105.364	2466.05	1588.95
1038.5036	3106.3607	2458.35	1577.3
1038.611	3107.3568	2443.85	1563.3
1038.7184	3108.3522	2437.5	1561.8
1038.8257	3109.347	2437.7	1561.05
1038.933	3110.3412	2429.35	1547.55
1039.0403	3111.3348	2405.4	1529.3
1039.1475	3112.3277	2392.2	1514.75
1039.2547	3113.32	2388.9	1512.85
1039.3618	3114.3117	2387.65	1507.75
1039.4689	3115.3028	2375.3	1496.6
1039.5759	3116.2932	2363.05	1484
1039.6829	3117.2831	2362.45	1481.45
1039.7898	3118.2723	2335.6	1457.55
1039.8967	3119.2608	2339.2	1462.2
1040.0035	3120.2488	2338.3	1460.45
1040.1103	3121.2361	2319.8	1443.15
1040.2171	3122.2229	2314.1	1437.6
1040.3238	3123.209	2307.35	1429.7
1040.4305	3124.1944	2292.8	1415.9
1040.5371	3125.1793	2293.35	1414.55
1040.6437	3126.1635	2279.95	1403.3
1040.7502	3127.1471	2269.85	1392.65
1040.8567	3128.1301	2266.05	1390.05
1040.9631	3129.1125	2264.95	1388.45
1041.0695	3130.0942	2258.75	1381.1
1041.1759	3131.0753	2258.55	1372.7
1041.2822	3132.0558	2241.4	1358.5
1041.3884	3133.0357	2248.05	1368
1041.4946	3134.015	2231.65	1354.1
1041.6008	3134.9936	2223.9	1344.35
1041.7069	3135.9716	2246.25	1348.75
1041.813	3136.949	2209.5	1332.1
1041.919	3137.9258	2216.7	1335.1
1042.025	3138.902	2201.7	1320.2
1042.1309	3139.8775	2197.2	1319.6
1042.2368	3140.8524	2191.8	1315
1042.3427	3141.8267	2181.2	1301.8
1042.4485	3142.8004	2184.75	1308.25
1042.5542	3143.7735	2186.45	1302
1042.6599	3144.7459	2177	1297.55
1042.7656	3145.7178	2158.6	1281.1
1042.8712	3146.689	2151.05	1274.4
1042.9768	3147.6596	2144.2	1265.8
1043.0823	3148.6295	2138.85	1261.95
1043.1878	3149.5989	2140.65	1262.35
1043.2932	3150.5676	2126.85	1249.45
1043.3986	3151.5357	2120.55	1244.45
1043.5039	3152.5032	2104.05	1226.85
1043.6092	3153.4701	2104.7	1225.8
1043.7145	3154.4364	2099	1219.95
1043.8197	3155.402	2088	1211.05
1043.9248	3156.367	2088.6	1209.85
1044.03	3157.3315	2110.9	1192.95
1044.135	3158.2952	2068.2	1190.1
1044.24	3159.2584	2069.4	1192.25
1044.345	3160.221	2056.05	1178.05
1044.4499	3161.1829	2055.4	1177.25
1044.5548	3162.1442	2044.3	1165.45
1044.6596	3163.105	2042.8	1166.85
1044.7644	3164.065	2033.05	1155.55
1044.8692	3165.0245	2031.05	1151.05
1044.9739	3165.9834	2024.65	1147.85
1045.0785	3166.9416	2012.95	1135.25
1045.1831	3167.8993	2005.3	1125.45
1045.2877	3168.8563	1999.5	1121.8
1045.3922	3169.8127	1992.15	1114.95
1045.4966	3170.7684	1990.2	1112.9
1045.6011	3171.7236	1973.05	1093.05
1045.7054	3172.6782	1983.65	1106.6
1045.8098	3173.6321	1969.3	1090.4
1045.914	3174.5854	1966.5	1085.3
1046.0183	3175.5381	1956.6	1079.15
1046.1224	3176.4902	1948.95	1071.85
1046.2266	3177.4417	1948.9	1072.15
1046.3307	3178.3926	1949.45	1073.2
1046.4347	3179.3428	1928.05	1050.95
1046.5387	3180.2924	1929.1	1052.9
1046.6427	3181.2415	1927.3	1048.75
1046.7466	3182.1899	1913	1035
1046.8504	3183.1377	1910.5	1033.1
1046.9542	3184.0848	1909.4	1028.7
1047.058	3185.0314	1898.35	1021.65
1047.1617	3185.9773	1891	1012.5
1047.2654	3186.9227	1883.85	1006.4
1047.369	3187.8674	1887.7	1009.95
1047.4726	3188.8115	1869.65	986.7
1047.5761	3189.755	1876.35	1000.3
1047.6796	3190.6979	1866.75	987.6
1047.783	3191.6402	1866.45	992.05
1047.8864	3192.5818	1859.35	980.85
1047.9898	3193.5229	1865.6	971.3
1048.0931	3194.4633	1844.9	967.55
1048.1963	3195.4031	1842.35	964.55
1048.2995	3196.3423	1831	953.95
1048.4027	3197.2809	1836.15	956.75
1048.5058	3198.2189	1830.15	951.95
1048.6089	3199.1563	1835	942.5
1048.7119	3200.0931	1816.75	940.6
1048.8148	3201.0292	1809.9	933
1048.9178	3201.9648	1802.55	924.95
1049.0206	3202.8997	1806.2	924.65
1049.1235	3203.834	1798.6	922.25
1049.2262	3204.7677	1800.05	923.6
1049.329	3205.7008	1778	898.95
1049.4317	3206.6333	1790	913.25
1049.5343	3207.5652	1787.55	907.4
1049.6369	3208.4964	1773.9	899.7
1049.7394	3209.4271	1772.6	895
1049.8419	3210.3571	1769	891.85
1049.9444	3211.2865	1759.7	878.6
1050.0468	3212.2154	1759.9	881.65
1050.1491	3213.1436	1762.1	882.35
1050.2514	3214.0712	1758.55	873.95
1050.3537	3214.9982	1741.9	864.65
1050.4559	3215.9246	1739.6	861.05
1050.5581	3216.8503	1738.65	864.05
1050.6602	3217.7755	1724.1	847.85
1050.7623	3218.7001	1732.1	854.9
1050.8643	3219.624	1723.7	845.95
1050.9663	3220.5473	1716.95	839.15
1051.0682	3221.4701	1712.5	834.35
1051.1701	3222.3922	1710.45	829.45
1051.2719	3223.3137	1705.9	828.35
1051.3737	3224.2346	1703.4	824.9
1051.4754	3225.1549	1699.4	821.75
1051.5771	3226.0746	1693.75	815.2
1051.6788	3226.9937	1677.65	799.55
1051.7804	3227.9121	1689.4	814.9
1051.8819	3228.83	1679.9	804.45
1051.9834	3229.7473	1679.9	802.5
1052.0849	3230.6639	1669.05	789.85
1052.1863	3231.5799	1664.65	786.65
1052.2876	3232.4954	1658.1	778.55
1052.3889	3233.4102	1664.8	786.35
1052.4902	3234.3244	1658.65	779.1
1052.5914	3235.238	1644.95	769.7
1052.6926	3236.151	1669.5	767.35
1052.7937	3237.0634	1634.15	760
1052.8948	3237.9752	1635.65	756.55
1052.9958	3238.8864	1628.55	752
1053.0968	3239.797	1627.2	750.15
1053.1977	3240.7069	1618.1	740.3
1053.2986	3241.6163	1608.55	728.9
1053.3994	3242.5251	1609.8	732.9
1053.5002	3243.4332	1606.4	730.3
1053.6009	3244.3408	1604.15	726.7
1053.7016	3245.2477	1596.1	717.15
1053.8022	3246.154	1591.55	712.6
1053.9028	3247.0598	1588.3	709.85
1054.0034	3247.9649	1585.85	708.5
1054.1039	3248.8694	1578.1	700.3
1054.2043	3249.7733	1577.65	698.9
1054.3047	3250.6766	1574.95	697.25
1054.4051	3251.5793	1568.4	688.95
1054.5054	3252.4814	1561.75	683.15
1054.6056	3253.3829	1557.8	682.65
1054.7058	3254.2838	1554.05	675.6
1054.806	3255.1841	1553.05	676.6
1054.9061	3256.0838	1548.8	669.6
1055.0061	3256.9829	1536.1	661.6
1055.1062	3257.8814	1540.6	662.1
1055.2061	3258.7792	1528.7	649.95
1055.306	3259.6765	1525.65	645.8
1055.4059	3260.5731	1517.15	639.05
1055.5057	3261.4692	1498.45	619.55
1055.6055	3262.3647	1498.25	621.35
1055.7052	3263.2595	1486.65	609.55
1055.8049	3264.1538	1485.05	608.1
1055.9045	3265.0474	1475.2	597.1
1056.0041	3265.9404	1455.6	579.45
1056.1036	3266.8329	1454.55	577.75
1056.2031	3267.7247	1450.05	562.5
1056.3025	3268.616	1431.7	556.6
1056.4019	3269.5066	1415.1	536.7
1056.5013	3270.3966	1401.05	521.95
1056.6005	3271.286	1390.2	512.7
