Software Version:	3.9.2.0
Unit SN:	10000200
Spectrometer SN:	6960
Date:	3/6/2024 10:43:11 AM
Data Line Index:	25
Spectral Points:	2048
Integration time (ms):	125
Averages:	20
Delay (ms):	30
Sequence Number:	1
Processing:	dark subtract
Laser Power (mW):	305
Laser Current (mA):	821
Laser Diode Temp (C):	25.1
Laser Case Temp (C):	27.1
System Temp (C):	26.9
Spectrometer Temp (C):	24.4
CCD Temp (C):	0.005
Secondary Temp (C):	20.008
Heatsink Temp (C):	22.789
CCDPCB Temp (C):	36.474
SecondaryPCB Temp (C):	33.895

Wavelength	RamanShift	Raw Counts	Dark Subtracted
787.061	30.1047	1124.75	710.65
787.2016	32.3739	1155.7	741.75
787.3422	34.6426	1198.1	785.6
787.4828	36.9109	1253.5	840.1
787.6235	39.1787	1302.9	883.7
787.7642	41.4461	1368.65	946.45
787.9049	43.7131	1431.7	1005.25
788.0456	45.9796	1496.65	1067.2
788.1863	48.2456	1557.4	1124.4
788.3271	50.5112	1630.2	1193.15
788.4679	52.7764	1705.2	1264.8
788.6087	55.0411	1780.75	1337.6
788.7496	57.3054	1852.1	1403.1
788.8904	59.5692	1956.55	1504.1
789.0313	61.8326	2057.6	1602.25
789.1722	64.0955	2169.25	1709.85
789.3132	66.3579	2298.85	1835.9
789.4541	68.6199	2446.1	1981.85
789.5951	70.8815	2683.9	2215.3
789.7361	73.1426	3210.6	2736.2
789.8771	75.4032	4520.6	4039.85
790.0181	77.6634	7870.65	7387.65
790.1592	79.9231	16637.75	16150.25
790.3003	82.1824	54395.8	53898.2
790.4414	84.4412	65535	65016.2
790.5825	86.6995	65535	64990.25
790.7237	88.9574	65535	64968.45
790.8648	91.2148	65535	64947.45
791.006	93.4717	65535	64933.5
791.1472	95.7282	65535	64928.55
791.2885	97.9842	65535	64925.45
791.4297	100.2398	65535	64927.2
791.571	102.4949	65535	64919.45
791.7123	104.7495	65535	64915.5
791.8536	107.0036	65535	64916.05
791.9949	109.2573	65535	64917.85
792.1363	111.5105	65535	64911.2
792.2777	113.7632	65535	64913.9
792.4191	116.0154	65535	64903.15
792.5605	118.2672	65535	64911.7
792.7019	120.5185	65535	64908.2
792.8434	122.7693	65535	64907.7
792.9849	125.0197	65535	64901.85
793.1264	127.2696	65535	64898.95
793.2679	129.519	65535	64893.95
793.4094	131.7679	65535	64890
793.551	134.0163	65535	64889.75
793.6926	136.2642	65535	64888.1
793.8342	138.5117	65535	64874.95
793.9758	140.7587	65535	64881.35
794.1175	143.0052	65535	64882.2
794.2591	145.2512	65535	64878.75
794.4008	147.4967	65535	64879.85
794.5425	149.7417	65535	64876
794.6842	151.9863	65535	64870.75
794.826	154.2304	65535	64870.55
794.9677	156.4739	65535	64863.2
795.1095	158.717	65535	64866.5
795.2513	160.9596	65535	64858.6
795.3931	163.2017	65535	64858.4
795.535	165.4433	65535	64857.05
795.6768	167.6844	65535	64853.15
795.8187	169.925	65535	64849.8
795.9606	172.1651	65535	64845.15
796.1025	174.4047	65535	64846.2
796.2445	176.6439	65535	64838.15
796.3864	178.8825	65535	64843.25
796.5284	181.1206	65535	64836.2
796.6704	183.3582	65535	64833.45
796.8124	185.5954	65535	64829.55
796.9544	187.832	65535	64827.8
797.0965	190.0681	65535	64820.55
797.2386	192.3037	65535	64821.55
797.3806	194.5388	65535	64817.4
797.5228	196.7734	65535	64818
797.6649	199.0075	65535	64815.7
797.807	201.2411	65535	64812.35
797.9492	203.4742	65535	64812.25
798.0914	205.7068	65535	64808.45
798.2336	207.9389	65535	64803.8
798.3758	210.1704	65535	64803.25
798.518	212.4015	65535	64810.2
798.6603	214.632	65535	64815.3
798.8025	216.862	65535	64823.6
798.9448	219.0915	65535	64825.6
799.0871	221.3205	65535	64821.85
799.2294	223.549	65535	64827.9
799.3718	225.777	65535	64824.9
799.5141	228.0044	65535	64822.2
799.6565	230.2314	65535	64823.65
799.7989	232.4578	65535	64821.85
799.9413	234.6837	65535	64811
800.0837	236.909	65535	64808.45
800.2262	239.1339	65535	64787.95
800.3687	241.3582	65535	64799.6
800.5111	243.582	65535	64770.55
800.6536	245.8053	65535	64780.75
800.7961	248.0281	65535	64787.45
800.9387	250.2503	65535	64783.2
801.0812	252.472	65535	64777.4
801.2238	254.6932	65535	64778.2
801.3664	256.9139	65535	64774.15
801.509	259.134	65535	64774.6
801.6516	261.3536	65535	64774.95
801.7942	263.5727	65535	64769.15
801.9369	265.7912	65535	64777
802.0795	268.0092	65535	64770.05
802.2222	270.2267	65535	64772.65
802.3649	272.4436	65535	64773.95
802.5076	274.6601	65535	64763.3
802.6504	276.8759	65535	64765.15
802.7931	279.0913	65535	64763.8
802.9359	281.3061	65535	64763.2
803.0787	283.5204	65535	64763.8
803.2215	285.7341	65535	64756.8
803.3643	287.9473	65535	64749.35
803.5071	290.16	65535	64752.45
803.6499	292.3721	65535	64761.65
803.7928	294.5837	65535	64758.55
803.9357	296.7947	65535	64758.7
804.0786	299.0052	65535	64757.45
804.2215	301.2152	65535	64753.3
804.3644	303.4246	65535	64757.8
804.5074	305.6334	65535	64759.9
804.6503	307.8418	65535	64755.75
804.7933	310.0495	65535	64752.95
804.9363	312.2568	65535	64751.75
805.0793	314.4635	65535	64751.9
805.2223	316.6696	65535	64747.9
805.3653	318.8752	65535	64741.25
805.5084	321.0802	65535	64743.85
805.6514	323.2847	65535	64744.6
805.7945	325.4887	65535	64744.95
805.9376	327.692	65535	64743.55
806.0807	329.8949	65535	64743.3
806.2238	332.0972	65535	64742.8
806.367	334.2989	65535	64735.7
806.5101	336.5001	65535	64736.85
806.6533	338.7007	65535	64736.95
806.7965	340.9008	65535	64735.65
806.9397	343.1003	65535	64730.6
807.0829	345.2992	65535	64730.25
807.2261	347.4976	65535	64730.45
807.3693	349.6955	65535	64731.9
807.5126	351.8927	65535	64729.35
807.6559	354.0895	65535	64715.5
807.7991	356.2856	65535	64726.95
807.9424	358.4812	65535	64726.15
808.0857	360.6763	65535	64727.6
808.2291	362.8707	65535	64722.5
808.3724	365.0646	65535	64721.6
808.5158	367.258	65535	64719.3
808.6591	369.4508	65535	64713.3
808.8025	371.643	65535	64715
808.9459	373.8346	65535	64713.3
809.0893	376.0257	65535	64710.15
809.2327	378.2162	65535	64710.75
809.3762	380.4062	65535	64707.65
809.5196	382.5956	65535	64710.3
809.6631	384.7844	65535	64715.75
809.8066	386.9726	65535	64713.45
809.9501	389.1603	65535	64715.65
810.0936	391.3474	65535	64676.05
810.2371	393.5339	65535	64713.35
810.3806	395.7199	65535	64719.45
810.5241	397.9052	65535	64720.45
810.6677	400.09	65535	64719.4
810.8113	402.2743	65535	64715.95
810.9548	404.4579	65535	64716.25
811.0984	406.641	65535	64719
811.2421	408.8235	65535	64715.1
811.3857	411.0054	65535	64713.15
811.5293	413.1868	65535	64711.3
811.673	415.3675	65535	64705.3
811.8166	417.5477	65535	64706.1
811.9603	419.7273	65535	64705.25
812.104	421.9064	65535	64695.7
812.2477	424.0848	65535	64703.25
812.3914	426.2627	65535	64698.25
812.5351	428.4399	65535	64696.4
812.6788	430.6166	65535	64696.6
812.8226	432.7928	65535	64692
812.9663	434.9683	65535	64694
813.1101	437.1432	65535	64693.6
813.2539	439.3176	65535	64695.4
813.3977	441.4914	65535	64696.1
813.5415	443.6645	65535	64694.7
813.6853	445.8371	65535	64690.1
813.8291	448.0091	65535	64692.65
813.973	450.1806	65535	64692.25
814.1168	452.3514	65535	64690.35
814.2607	454.5216	65535	64683.25
814.4046	456.6913	65535	64690.85
814.5485	458.8603	65535	64692.1
814.6924	461.0288	65535	64691.45
814.8363	463.1967	65535	64691.1
814.9802	465.3639	65535	64690.3
815.1241	467.5306	65535	64687.05
815.2681	469.6967	65535	64688
815.412	471.8622	65535	64687.95
815.556	474.0271	65535	64687.5
815.7	476.1914	65535	64685.15
815.844	478.3551	65535	64688.6
815.988	480.5182	65535	64684.75
816.132	482.6807	65535	64686.35
816.276	484.8426	65535	64689.6
816.4201	487.0039	65535	64684.1
816.5641	489.1647	65535	64684.5
816.7082	491.3248	65535	64685.35
816.8522	493.4843	65535	64687.75
816.9963	495.6432	65535	64684.95
817.1404	497.8015	65535	64685.05
817.2845	499.9592	65535	64684.3
817.4286	502.1163	65535	64680.85
817.5727	504.2728	65535	64679.75
817.7168	506.4287	65535	64679.65
817.861	508.5839	65535	64679.05
818.0051	510.7386	65535	64680.6
818.1493	512.8927	65535	64677.2
818.2935	515.0461	65535	64679.65
818.4377	517.199	65535	64676
818.5818	519.3512	65535	64678.15
818.726	521.5029	65535	64672.4
818.8703	523.6539	65535	64675.1
819.0145	525.8043	65535	64674.1
819.1587	527.9541	65535	64673.2
819.303	530.1033	65535	64672.8
819.4472	532.2519	65535	64673
819.5915	534.3999	65535	64672.35
819.7357	536.5472	65535	64672
819.88	538.694	65535	64669.45
820.0243	540.8401	65535	64670.95
820.1686	542.9856	65535	64670.75
820.3129	545.1305	65535	64669.7
820.4572	547.2748	65535	64670
820.6016	549.4185	65535	64664.85
820.7459	551.5615	65535	64668.95
820.8902	553.704	65535	64669.4
821.0346	555.8458	65535	64670.2
821.1789	557.987	65535	64670.15
821.3233	560.1276	65535	64669.8
821.4677	562.2675	65535	64670.65
821.6121	564.4069	65535	64666.9
821.7565	566.5456	65535	64669.65
821.9009	568.6837	65535	64669.9
822.0453	570.8212	65535	64665.9
822.1897	572.958	65535	64668.25
822.3342	575.0942	65535	64670.7
822.4786	577.2299	65535	64668.5
822.6231	579.3648	65535	64667.3
822.7675	581.4992	65535	64671.5
822.912	583.6329	65535	64668.8
823.0565	585.766	65535	64666.95
823.201	587.8985	65535	64669.45
823.3454	590.0304	65535	64643.7
823.4899	592.1616	65535	64664.05
823.6345	594.2922	65535	64662.4
823.779	596.4222	65535	64664.3
823.9235	598.5515	65535	64661.25
824.068	600.6802	65535	64663.1
824.2126	602.8083	65535	64663.05
824.3571	604.9358	65535	64659.75
824.5017	607.0626	65535	64663.2
824.6462	609.1888	65535	64657.65
824.7908	611.3144	65535	64661.4
824.9354	613.4393	65535	64661.5
825.08	615.5636	65535	64661.2
825.2246	617.6873	65535	64662.75
825.3692	619.8103	65535	64660.45
825.5138	621.9327	65535	64655.65
825.6584	624.0544	65535	64660.15
825.803	626.1756	65535	64659.7
825.9477	628.2961	65535	64657.05
826.0923	630.4159	65535	64657.65
826.237	632.5351	65535	64658.75
826.3816	634.6537	65535	64659.95
826.5263	636.7716	65535	64654.15
826.6709	638.8889	65535	64657.3
826.8156	641.0056	65535	64656.2
826.9603	643.1216	65535	64656.8
827.105	645.237	65535	64655.1
827.2497	647.3518	65535	64656
827.3944	649.4659	65535	64657.9
827.5391	651.5793	65535	64657.15
827.6838	653.6922	65535	64656.9
827.8285	655.8043	65535	64656.9
827.9733	657.9159	65535	64654.6
828.118	660.0268	65535	64653.95
828.2627	662.137	65535	64653.65
828.4075	664.2466	65535	64651
828.5522	666.3556	65535	64656.5
828.697	668.4639	65535	64651.9
828.8418	670.5716	65535	64654.85
828.9865	672.6786	65535	64652.4
829.1313	674.785	65535	64652.55
829.2761	676.8907	65535	64652.5
829.4209	678.9958	65535	64655.35
829.5657	681.1002	65535	64653.85
829.7105	683.204	65535	64646.95
829.8553	685.3072	65535	64650.55
830.0001	687.4097	65535	64652.6
830.1449	689.5115	65535	64650.1
830.2898	691.6127	65535	64651.95
830.4346	693.7132	65535	64653.5
830.5794	695.8131	65535	64640.4
830.7243	697.9123	65535	64647.85
830.8691	700.0109	65535	64650.15
831.014	702.1089	65535	64646.8
831.1588	704.2061	65535	64652.3
831.3037	706.3028	65535	64647.1
831.4486	708.3987	65535	64648.2
831.5935	710.4941	65535	64649.1
831.7383	712.5887	65535	64644.7
831.8832	714.6827	65535	64644.45
832.0281	716.7761	65535	64646.4
832.173	718.8688	65535	64645
832.3179	720.9608	65535	64644.45
832.4628	723.0522	65535	64641.4
832.6077	725.1429	65535	64647.55
832.7527	727.233	65535	64644.35
832.8976	729.3224	65535	64647.15
833.0425	731.4112	65535	64643.65
833.1874	733.4993	65535	64644.5
833.3324	735.5867	65535	64643.55
833.4773	737.6735	65535	64645.2
833.6222	739.7596	65535	64642.7
833.7672	741.845	65535	64644.7
833.9122	743.9298	65535	64643.65
834.0571	746.014	65535	64645.2
834.2021	748.0974	65535	64639.7
834.347	750.1802	65535	64643.4
834.492	752.2624	65535	64644.65
834.637	754.3439	65535	64640.6
834.782	756.4247	65535	64635.05
834.9269	758.5048	65535	64640.55
835.0719	760.5843	65535	64643.75
835.2169	762.6631	65535	64642.5
835.3619	764.7413	65535	64641.45
835.5069	766.8188	65535	64641.7
835.6519	768.8956	65535	64638.85
835.7969	770.9718	65535	64643.2
835.9419	773.0473	65535	64643.05
836.0869	775.1221	65535	64641.85
836.232	777.1962	65535	64643.05
836.377	779.2697	65535	64641.1
836.522	781.3426	65535	64623.6
836.667	783.4147	65535	64640.05
836.8121	785.4862	65535	64644.55
836.9571	787.557	65535	64640.4
837.1021	789.6271	65535	64643.9
837.2472	791.6966	65535	64640.2
837.3922	793.7654	65535	64642
837.5373	795.8335	65535	64641.4
837.6823	797.901	65535	64639.75
837.8274	799.9678	65535	64638.55
837.9724	802.0339	65535	64641.85
838.1175	804.0993	65535	64632.8
838.2626	806.1641	65535	64636.65
838.4076	808.2282	65535	64642.2
838.5527	810.2916	65535	64638.5
838.6978	812.3544	65535	64642.1
838.8428	814.4164	65535	64641.4
838.9879	816.4778	65535	64638.8
839.133	818.5385	65535	64639.85
839.2781	820.5986	65535	64639.8
839.4232	822.658	65535	64636.25
839.5682	824.7166	65535	64643.5
839.7133	826.7747	65535	64639.5
839.8584	828.832	65535	64640.2
840.0035	830.8886	65535	64640.2
840.1486	832.9446	65535	64636.55
840.2937	834.9999	65535	64640.1
840.4388	837.0545	65535	64635.85
840.5839	839.1085	65535	64639.1
840.729	841.1618	65535	64635.85
840.8741	843.2143	65535	64640.1
841.0192	845.2662	65535	64639.85
841.1643	847.3175	65535	64639.85
841.3095	849.368	65535	64639
841.4546	851.4179	65535	64641.05
841.5997	853.467	65535	64636.8
841.7448	855.5155	65535	64638.45
841.8899	857.5633	65535	64637.2
842.0351	859.6105	65535	64637.55
842.1802	861.6569	65535	64639.15
842.3253	863.7027	65535	64637.35
842.4704	865.7478	65535	64635.5
842.6156	867.7922	65535	64638.6
842.7607	869.8359	65535	64636.85
842.9058	871.8789	65535	64636.05
843.0509	873.9212	65535	64603.15
843.1961	875.9629	65535	64636.95
843.3412	878.0039	65535	64638.75
843.4863	880.0441	65535	64639.3
843.6315	882.0837	65535	64636.8
843.7766	884.1226	65535	64637.8
843.9218	886.1609	65535	64637.95
844.0669	888.1984	65535	64636.45
844.212	890.2352	65535	64635.65
844.3572	892.2714	65535	64630.75
844.5023	894.3069	65535	64634
844.6475	896.3416	65535	64634.5
844.7926	898.3757	65535	64636.1
844.9377	900.4091	65535	64634.25
845.0829	902.4418	65535	64632
845.228	904.4739	65535	64633.6
845.3732	906.5052	65535	64634.15
845.5183	908.5358	65535	64634.65
845.6635	910.5658	65535	64634.95
845.8086	912.595	65535	64636.9
845.9538	914.6236	65535	64635.05
846.0989	916.6515	65535	64638.05
846.2441	918.6786	65535	64633.15
846.3892	920.7051	65535	64633.9
846.5344	922.7309	65535	64637.4
846.6795	924.756	65535	64633.6
846.8246	926.7804	65535	64633.1
846.9698	928.8041	65535	64635.1
847.1149	930.8272	65535	64634.8
847.2601	932.8495	65535	64631.9
847.4052	934.8711	65535	64632.9
847.5504	936.892	65535	64634.2
847.6955	938.9123	65535	64632.15
847.8407	940.9318	65535	64636.15
847.9858	942.9506	65535	64631.45
848.131	944.9688	65535	64633.9
848.2761	946.9862	65535	64636.35
848.4213	949.003	65535	64635.3
848.5664	951.019	65535	64632.65
848.7115	953.0344	65535	64633.55
848.8567	955.0491	65535	64632.4
849.0018	957.063	65535	64633.55
849.147	959.0763	65535	64635.4
849.2921	961.0888	65535	64631.2
849.4373	963.1007	65535	64634.4
849.5824	965.1119	65535	64636.75
849.7275	967.1223	65535	64635.9
849.8727	969.1321	65535	64637.7
850.0178	971.1412	65535	64635.95
850.1629	973.1495	65535	64634.4
850.3081	975.1572	65535	64584.05
850.4532	977.1641	65535	64634.65
850.5983	979.1704	65535	64632.95
850.7435	981.1759	65535	64633.05
850.8886	983.1808	65535	64634.5
851.0337	985.1849	65535	64624.7
851.1788	987.1884	65535	64629.5
851.324	989.1911	65535	64630
851.4691	991.1932	65535	64631.65
851.6142	993.1945	65535	64634.6
851.7593	995.1951	65535	64634.3
851.9045	997.1951	65535	64628.7
852.0496	999.1943	65535	64634.8
852.1947	1001.1928	65535	64630.75
852.3398	1003.1906	65535	64631.4
852.4849	1005.1877	65535	64630.45
852.63	1007.1841	65535	64634.05
852.7751	1009.1798	65535	64636.25
852.9202	1011.1748	65535	64634.25
853.0653	1013.1691	65535	64632.05
853.2104	1015.1627	65535	64634.6
853.3555	1017.1556	65535	64633.4
853.5006	1019.1477	65535	64632.05
853.6457	1021.1392	65535	64635.85
853.7908	1023.1299	65535	64635.5
853.9359	1025.12	65535	64633.05
854.081	1027.1093	65535	64639
854.2261	1029.0979	65535	64637.4
854.3712	1031.0859	65535	64636.4
854.5163	1033.0731	65535	64633.75
854.6613	1035.0596	65535	64635.5
854.8064	1037.0454	65535	64633.5
854.9515	1039.0304	65535	64635.75
855.0965	1041.0148	65535	64634.75
855.2416	1042.9985	65535	64630.4
855.3867	1044.9814	65535	64633
855.5317	1046.9636	65535	64631.15
855.6768	1048.9452	65535	64635.65
855.8219	1050.926	65535	64635.15
855.9669	1052.9061	65535	64636.95
856.112	1054.8855	65535	64630.75
856.257	1056.8642	65535	64632
856.4021	1058.8421	65535	64627.75
856.5471	1060.8194	65535	64632.75
856.6921	1062.7959	65535	64634.2
856.8372	1064.7717	65535	64632.2
856.9822	1066.7469	65535	64632.3
857.1272	1068.7213	65535	64632.1
857.2723	1070.695	65535	64634.85
857.4173	1072.6679	65535	64633.25
857.5623	1074.6402	65535	64633.85
857.7073	1076.6117	65535	64627.65
857.8523	1078.5826	65535	64633.5
857.9973	1080.5527	65535	64631
858.1423	1082.5221	65535	64632.6
858.2873	1084.4908	65535	64633.15
858.4323	1086.4587	65535	64634.15
858.5773	1088.426	65535	64633.3
858.7223	1090.3925	65535	64628.2
858.8673	1092.3584	65535	64634.15
859.0123	1094.3235	65535	64633.85
859.1573	1096.2879	65535	64631.3
859.3022	1098.2515	65535	64633.75
859.4472	1100.2145	65535	64634.25
859.5922	1102.1767	65535	64629.75
859.7371	1104.1382	65535	64631.2
859.8821	1106.099	65535	64632.05
860.027	1108.0591	65535	64632.65
860.172	1110.0185	65535	64633.55
860.3169	1111.9771	65535	64634.8
860.4619	1113.9351	65535	64635.5
860.6068	1115.8923	65535	64632.8
860.7517	1117.8488	65535	64631.4
860.8967	1119.8045	65535	64631.9
861.0416	1121.7596	65535	64633.1
861.1865	1123.7139	65535	64633.25
861.3314	1125.6675	65535	64634.1
861.4763	1127.6204	65535	64634.9
861.6212	1129.5726	65535	64632.95
861.7661	1131.524	65535	64636.35
861.911	1133.4748	65535	64631.2
862.0559	1135.4248	65535	64632
862.2008	1137.3741	65535	64634.85
862.3457	1139.3226	65535	64632.4
862.4905	1141.2705	65535	64631.9
862.6354	1143.2176	65535	64628.15
862.7803	1145.164	65535	64631.9
862.9251	1147.1097	65535	64633.2
863.07	1149.0546	65535	64633.2
863.2148	1150.9989	65535	64633.9
863.3597	1152.9424	65535	64632.65
863.5045	1154.8852	65535	64630.45
863.6493	1156.8272	65535	64633.55
863.7942	1158.7686	65535	64627.35
863.939	1160.7092	65535	64631.55
864.0838	1162.6491	65535	64629.25
864.2286	1164.5883	65535	64634.9
864.3734	1166.5267	65535	64630
864.5182	1168.4644	65535	64633.5
864.663	1170.4014	65535	64629.45
864.8078	1172.3377	65535	64633.9
864.9526	1174.2732	65535	64634.7
865.0974	1176.2081	65535	64631.9
865.2421	1178.1421	65535	64631.2
865.3869	1180.0755	65535	64633.95
865.5317	1182.0082	65535	64634.95
865.6764	1183.9401	65535	64631.45
865.8212	1185.8713	65535	64635.2
865.9659	1187.8017	65535	64635.6
866.1106	1189.7315	65535	64637.45
866.2554	1191.6605	65535	64607.25
866.4001	1193.5888	65535	64633.55
866.5448	1195.5163	65535	64633.35
866.6895	1197.4432	65535	64632.95
866.8342	1199.3693	65535	64634.85
866.9789	1201.2947	65535	64631.35
867.1236	1203.2193	65535	64633.8
867.2683	1205.1432	65535	64633.3
867.413	1207.0664	65535	64633.45
867.5576	1208.9889	65535	64629.8
867.7023	1210.9106	65535	64633.75
867.847	1212.8316	65535	64634.3
867.9916	1214.7519	65535	64623.75
868.1363	1216.6715	65535	64635.55
868.2809	1218.5903	65535	64635.35
868.4255	1220.5084	65535	64635.55
868.5701	1222.4257	65535	64634.55
868.7148	1224.3424	65535	64635.6
868.8594	1226.2583	65535	64630.55
869.004	1228.1735	65535	64633.2
869.1486	1230.0879	65535	64631.85
869.2932	1232.0016	65535	64633.25
869.4377	1233.9146	65535	64632.85
869.5823	1235.8269	65535	64634.4
869.7269	1237.7384	65535	64634.65
869.8715	1239.6492	65535	64635.15
870.016	1241.5592	65535	64631.85
870.1606	1243.4686	65535	64632.05
870.3051	1245.3772	65535	64634.2
870.4496	1247.285	65535	64635.4
870.5941	1249.1922	65535	64634.85
870.7387	1251.0986	65535	64636.6
870.8832	1253.0042	65535	64633.45
871.0277	1254.9092	65535	64632
871.1722	1256.8134	65535	64635.25
871.3167	1258.7169	65535	64632.8
871.4611	1260.6196	65535	64635.7
871.6056	1262.5216	65535	64633.15
871.7501	1264.4229	65535	64634.3
871.8945	1266.3234	65535	64635.35
872.039	1268.2232	65535	64632
872.1834	1270.1223	65535	64633.35
872.3278	1272.0207	65535	64632.7
872.4723	1273.9183	65535	64627.35
872.6167	1275.8151	65535	64634.75
872.7611	1277.7113	65535	64633.6
872.9055	1279.6067	65535	64634.4
873.0499	1281.5014	65535	64631.6
873.1943	1283.3953	65535	64632.85
873.3386	1285.2885	65535	64634.15
873.483	1287.181	65535	64630.7
873.6274	1289.0727	65535	64634.3
873.7717	1290.9637	65535	64634.35
873.9161	1292.854	65535	64634.6
874.0604	1294.7435	65535	64634.65
874.2047	1296.6323	65535	64632
874.349	1298.5204	65535	64628.6
874.4933	1300.4077	65535	64631.45
874.6376	1302.2943	65535	64632
874.7819	1304.1802	65535	64634.4
874.9262	1306.0653	65535	64632.1
875.0705	1307.9497	65535	64632.65
875.2147	1309.8333	65535	64634.8
875.359	1311.7162	65535	64634
875.5032	1313.5984	65535	64633.2
875.6475	1315.4798	65535	64624.55
875.7917	1317.3605	65535	64617.35
875.9359	1319.2405	65535	64632.55
876.0801	1321.1197	65535	64631.2
876.2243	1322.9982	65535	64631.1
876.3685	1324.876	65535	64634.45
876.5127	1326.753	65535	64633.95
876.6569	1328.6293	65535	64632.05
876.801	1330.5048	65535	64631.25
876.9452	1332.3796	65535	64634.25
877.0893	1334.2537	65535	64609.3
877.2335	1336.127	65535	64632.95
877.3776	1337.9996	65535	64636.7
877.5217	1339.8714	65535	64631.6
877.6658	1341.7426	65535	64589.7
877.8099	1343.6129	65535	64633.6
877.954	1345.4826	65535	64633.95
878.0981	1347.3515	65535	64631.5
878.2422	1349.2196	65535	64634.2
878.3862	1351.087	65535	64637.25
878.5303	1352.9537	65535	64635.1
878.6743	1354.8197	65535	64634.05
878.8184	1356.6849	65535	64631.9
878.9624	1358.5493	65535	64631.75
879.1064	1360.4131	65535	64633.75
879.2504	1362.276	65535	64634.55
879.3944	1364.1383	65535	64634.9
879.5384	1365.9998	65535	64627.6
879.6823	1367.8606	65535	64633.45
879.8263	1369.7206	65535	64632.05
879.9702	1371.5799	65535	64631.6
880.1142	1373.4384	65535	64633.25
880.2581	1375.2962	65535	64633.25
880.402	1377.1533	65535	64635.55
880.5459	1379.0096	65535	64632.5
880.6898	1380.8652	65535	64636.75
880.8337	1382.7201	65535	64635.1
880.9776	1384.5742	65535	64631.2
881.1215	1386.4275	65535	64629.9
881.2653	1388.2802	65535	64633.25
881.4092	1390.132	65535	64634.55
881.553	1391.9832	65535	64633.15
881.6968	1393.8336	65535	64635.8
881.8406	1395.6832	65535	64633.35
881.9844	1397.5322	65535	64634.6
882.1282	1399.3803	65535	64630.3
882.272	1401.2278	65535	64636.15
882.4158	1403.0745	65535	64633.75
882.5595	1404.9204	65535	64636.15
882.7033	1406.7656	65535	64634.3
882.847	1408.6101	65535	64634.75
882.9908	1410.4538	65535	64634.6
883.1345	1412.2968	65535	64635.75
883.2782	1414.139	65535	64633.9
883.4219	1415.9805	65535	64635.25
883.5656	1417.8213	65535	64628.3
883.7092	1419.6613	65535	64634.9
883.8529	1421.5006	65535	64633.4
883.9965	1423.3391	65535	64633.65
884.1402	1425.1769	65535	64633.5
884.2838	1427.0139	65535	64633.45
884.4274	1428.8502	65535	64635.2
884.571	1430.6858	65535	64634.05
884.7146	1432.5206	65535	64632.5
884.8582	1434.3547	65535	64634.9
885.0018	1436.188	65535	64634.55
885.1453	1438.0206	65535	64633.65
885.2889	1439.8524	65535	64632.45
885.4324	1441.6835	65535	64633.65
885.5759	1443.5139	65535	64631.6
885.7194	1445.3435	65535	64635.2
885.8629	1447.1724	65535	64631.95
886.0064	1449.0005	65535	64634.85
886.1499	1450.8279	65535	64632.3
886.2933	1452.6545	65535	64634.8
886.4368	1454.4804	65535	64635.05
886.5802	1456.3056	65535	64630.5
886.7237	1458.13	65535	64636.8
886.8671	1459.9536	65535	64635.05
887.0105	1461.7766	65535	64635.85
887.1539	1463.5987	65535	64634.2
887.2972	1465.4202	65535	64634.35
887.4406	1467.2409	65535	64632.9
887.584	1469.0608	65535	64634.95
887.7273	1470.88	65535	64634.9
887.8706	1472.6984	65535	64636.15
888.0139	1474.5161	65535	64631.95
888.1572	1476.3331	65535	64633.95
888.3005	1478.1493	65535	64634.9
888.4438	1479.9648	65535	64634.8
888.5871	1481.7795	65535	64634.75
888.7303	1483.5935	65535	64637.7
888.8736	1485.4067	65535	64634.3
889.0168	1487.2192	65535	64634.7
889.16	1489.031	65535	64633.55
889.3032	1490.842	65535	64634.9
889.4464	1492.6522	65535	64633.2
889.5896	1494.4618	65535	64635.4
889.7327	1496.2705	65535	64636.85
889.8759	1498.0785	65535	64634.5
890.019	1499.8858	65535	64635.5
890.1622	1501.6924	65535	64636.25
890.3053	1503.4981	65535	64636.45
890.4484	1505.3032	65535	64632.65
890.5914	1507.1075	65535	64635.8
890.7345	1508.911	65535	64634.15
890.8776	1510.7138	65535	64632.4
891.0206	1512.5159	65535	64633.85
891.1637	1514.3172	65535	64634.5
891.3067	1516.1178	65535	64634.55
891.4497	1517.9176	65535	64634.9
891.5927	1519.7166	65535	64635.05
891.7357	1521.515	65535	64627.9
891.8786	1523.3126	65535	64636.6
892.0216	1525.1094	65535	64634.25
892.1645	1526.9055	65535	64636.6
892.3074	1528.7008	65535	64636.1
892.4503	1530.4954	65535	64629.95
892.5932	1532.2893	65535	64637.2
892.7361	1534.0824	65535	64630.45
892.879	1535.8747	65535	64636.4
893.0218	1537.6663	65535	64637.65
893.1647	1539.4572	65535	64635.8
893.3075	1541.2473	65535	64633.2
893.4503	1543.0367	65535	64637.75
893.5931	1544.8253	65535	64630.15
893.7359	1546.6132	65535	64632.9
893.8787	1548.4003	65535	64626
894.0214	1550.1867	65535	64625.9
894.1642	1551.9723	65535	64631.85
894.3069	1553.7572	65535	64635.75
894.4496	1555.5414	65535	64638.25
894.5923	1557.3247	65494.2	64593.4
894.735	1559.1074	65535	64639.5
894.8777	1560.8893	65525.7	64629
895.0204	1562.6705	65531.6	64631.2
895.163	1564.4509	65509.7	64612.55
895.3056	1566.2305	65523.65	64626.9
895.4482	1568.0094	65532.7	64635.95
895.5908	1569.7876	65521.9	64624.05
895.7334	1571.565	65500.55	64601.25
895.876	1573.3417	65517.75	64620.6
896.0186	1575.1176	65517.35	64618.4
896.1611	1576.8928	65496.35	64598.65
896.3036	1578.6672	65435.1	64541.45
896.4461	1580.4409	65482.5	64585.3
896.5886	1582.2138	65409.7	64512.15
896.7311	1583.986	65442.15	64544.8
896.8736	1585.7575	65352.85	64456.1
897.0161	1587.5282	65380.55	64485.2
897.1585	1589.2981	65388.5	64491.45
897.3009	1591.0673	65260.7	64365
897.4433	1592.8358	65191.65	64295.6
897.5857	1594.6035	65287.45	64387.45
897.7281	1596.3704	65279.2	64381
897.8705	1598.1366	65086.1	64190.2
898.0128	1599.9021	64921.7	64025.2
898.1551	1601.6668	65170.45	64270.7
898.2975	1603.4308	65058.2	64158.95
898.4398	1605.194	65076.05	64175.35
898.5821	1606.9564	64654.1	63758.15
898.7243	1608.7182	64902.25	64001.95
898.8666	1610.4791	64671	63778.05
899.0088	1612.2394	64933	64040.4
899.1511	1613.9988	64597.65	63702.7
899.2933	1615.7576	64956.55	64060.05
899.4355	1617.5156	64941.6	64041.5
899.5776	1619.2728	65177.15	64283
899.7198	1621.0293	64732.7	63835.75
899.862	1622.785	64748.1	63847.25
900.0041	1624.54	64913.85	64014.55
900.1462	1626.2942	64605.05	63709.4
900.2883	1628.0477	64052.85	63156.45
900.4304	1629.8005	63411.75	62512.45
900.5725	1631.5525	64087.75	63190.8
900.7145	1633.3037	63154.4	62258.35
900.8566	1635.0542	62946.85	62052.9
900.9986	1636.804	63406.6	62510.35
901.1406	1638.553	62344.2	61366.8
901.2826	1640.3013	62697.85	61800.9
901.4245	1642.0488	62027.4	61130.6
901.5665	1643.7955	62528.1	61632.65
901.7085	1645.5416	62042.25	61148.85
901.8504	1647.2868	61541.5	60648.75
901.9923	1649.0313	62328.85	61434.2
902.1342	1650.7751	61898.9	61000.5
902.2761	1652.5181	61562.95	60668.65
902.4179	1654.2604	61634.75	60738.7
902.5598	1656.0019	62000.25	61105.65
902.7016	1657.7427	61822.85	60926.95
902.8434	1659.4828	62372.7	61476.85
902.9852	1661.222	61861.6	60966.1
903.127	1662.9606	62473.8	61579.2
903.2687	1664.6984	61623.85	60727.85
903.4105	1666.4354	61880.3	60983.75
903.5522	1668.1717	60804.25	59909.6
903.6939	1669.9072	59950.8	59055.1
903.8356	1671.642	59724.05	58826.9
903.9773	1673.3761	59428.45	58534.45
904.119	1675.1094	59174.7	58279.25
904.2606	1676.8419	58490.9	57594.4
904.4022	1678.5737	58469	57573.3
904.5439	1680.3048	58122.05	57224.9
904.6855	1682.0351	57795.95	56899.35
904.827	1683.7646	57479.3	56579.4
904.9686	1685.4934	57604.85	56709.6
905.1101	1687.2215	56433.9	55539
905.2517	1688.9488	57168.4	56274.5
905.3932	1690.6754	55586.15	54693.15
905.5347	1692.4012	56232.1	55338.45
905.6761	1694.1263	56183.8	55290.35
905.8176	1695.8506	55730.35	54836.55
905.9591	1697.5742	55546.55	54652.7
906.1005	1699.297	55351.8	54456.7
906.2419	1701.0191	55289.85	54395.2
906.3833	1702.7404	54678.4	53785.05
906.5246	1704.461	54403.1	53508.15
906.666	1706.1808	54480.3	53583.15
906.8073	1707.8999	54323.4	53428
906.9487	1709.6182	54033.9	53140.6
907.09	1711.3358	53877.2	52982.05
907.2313	1713.0527	53706.9	52813.55
907.3725	1714.7688	53625.95	52725.15
907.5138	1716.4841	52968.25	52071.85
907.655	1718.1987	53200.5	52301.85
907.7962	1719.9126	52848.45	51957.45
907.9374	1721.6257	52711.9	51815.15
908.0786	1723.338	52796.3	51900.75
908.2198	1725.0496	52048.4	51151.8
908.3609	1726.7605	52049.55	51154.3
908.502	1728.4706	51811.9	50917.1
908.6431	1730.18	51707.25	50811
908.7842	1731.8886	51458.35	50564.35
908.9253	1733.5964	51279.3	50365.7
909.0664	1735.3036	51327.1	50432.25
909.2074	1737.0099	51118.25	50223.35
909.3484	1738.7156	50836.15	49945.2
909.4894	1740.4204	50646.85	49750.3
909.6304	1742.1246	50586.15	49691.15
909.7714	1743.8279	50524.05	49629.6
909.9123	1745.5306	50485.4	49589.75
910.0532	1747.2325	50050.1	49156.3
910.1941	1748.9336	49904.8	49012.05
910.335	1750.634	49679.6	48782.4
910.4759	1752.3336	49699.85	48807.1
910.6168	1754.0325	49433.95	48541.8
910.7576	1755.7307	49473.4	48580.45
910.8984	1757.4281	49192.5	48300.15
911.0392	1759.1247	49278.1	48376.05
911.18	1760.8206	48953.5	48054.65
911.3208	1762.5158	48979.35	48081.9
911.4615	1764.2102	48730.3	47838.75
911.6022	1765.9039	48518.1	47624.75
911.7429	1767.5968	48424.9	47530.85
911.8836	1769.289	48259.45	47367.25
912.0243	1770.9804	48114.5	47218.9
912.1649	1772.6711	48076.9	47184
912.3056	1774.361	47952.3	47057.3
912.4462	1776.0502	47790.5	46898.5
912.5868	1777.7386	47621.4	46725.45
912.7274	1779.4263	47423.7	46527.9
912.8679	1781.1132	47381.25	46487.9
913.0084	1782.7994	47209.25	46314.65
913.149	1784.4849	47119.15	46226.9
913.2895	1786.1696	46872.1	45973.2
913.4299	1787.8535	46822.5	45929.4
913.5704	1789.5367	46657.1	45763.75
913.7108	1791.2192	46574.7	45681.5
913.8513	1792.9009	46370.25	45448.2
913.9917	1794.5818	46300.05	45406.25
914.132	1796.2621	46077.1	45183.8
914.2724	1797.9415	46015	45120.95
914.4128	1799.6202	45871.9	44978.75
914.5531	1801.2982	45768.25	44874.95
914.6934	1802.9755	45609.3	44714.6
914.8337	1804.6519	45501.2	44606.75
914.9739	1806.3277	45319	44426.95
915.1142	1808.0027	45092.95	44201.2
915.2544	1809.6769	45089.45	44195.25
915.3946	1811.3504	44917.1	44023.75
915.5348	1813.0231	44817.5	43922.65
915.675	1814.6951	44722.25	43828.2
915.8151	1816.3664	44646.8	43752
915.9553	1818.0369	44513.75	43621.45
916.0954	1819.7067	44348	43457.55
916.2355	1821.3757	44324.05	43427.05
916.3755	1823.044	44135.2	43242.15
916.5156	1824.7115	44010.6	43117.45
916.6556	1826.3783	43856.25	42964.2
916.7956	1828.0443	43632.85	42743.9
916.9356	1829.7096	43534.55	42639.35
917.0756	1831.3741	43537.1	42640.05
917.2155	1833.0379	43383.75	42490.75
917.3555	1834.701	43176.8	42280.85
917.4954	1836.3633	43131	42237
917.6353	1838.0248	42996.6	42101.6
917.7751	1839.6856	42902.25	42009.8
917.915	1841.3457	42792.35	41900.75
918.0548	1843.005	42690.45	41797.55
918.1946	1844.6636	42665.9	41775
918.3344	1846.3214	42442.65	41550.25
918.4742	1847.9785	42394.75	41502.95
918.6139	1849.6349	42241.95	41347.6
918.7537	1851.2904	42140.6	41236.05
918.8934	1852.9453	41970.7	41078.05
919.0331	1854.5994	41858.15	40963.4
919.1727	1856.2528	41924.85	41029.15
919.3124	1857.9054	41794.85	40902.9
919.452	1859.5572	41686.65	40793.6
919.5916	1861.2083	41564	40670.55
919.7312	1862.8587	41546.45	40653.1
919.8708	1864.5084	41351.6	40457.5
920.0103	1866.1572	41198.65	40305
920.1498	1867.8054	41054.45	40159.65
920.2893	1869.4528	40992.55	40098.5
920.4288	1871.0994	40799.85	39907.65
920.5683	1872.7453	40813.4	39921.45
920.7077	1874.3905	40637.3	39737.05
920.8471	1876.0349	40494.3	39600.15
920.9865	1877.6786	40451.1	39558.25
921.1259	1879.3215	40374.5	39480.3
921.2653	1880.9637	40288.25	39394.5
921.4046	1882.6051	40187.65	39294.55
921.5439	1884.2458	40081.9	39186.15
921.6832	1885.8858	39866.85	38972.15
921.8225	1887.525	39843.1	38951.05
921.9617	1889.1634	39595.25	38702.6
922.101	1890.8011	39426.2	38532
922.2402	1892.4381	39313.85	38420.85
922.3794	1894.0743	39305.55	38413.85
922.5185	1895.7098	39205.85	38315.55
922.6577	1897.3446	39091.7	38198.4
922.7968	1898.9786	38966.25	38071.35
922.9359	1900.6118	38893.25	38000
923.075	1902.2443	38644.3	37750.75
923.214	1903.8761	38615.5	37722.8
923.3531	1905.5071	38340.35	37445.55
923.4921	1907.1374	38210.75	37318.65
923.6311	1908.7669	38179.05	37284.4
923.77	1910.3957	38113.05	37222.15
923.909	1912.0237	37861.45	36969.35
924.0479	1913.651	37777.25	36882
924.1868	1915.2776	37647.95	36757.3
924.3257	1916.9034	37489.4	36598.5
924.4646	1918.5285	37308.45	36417.5
924.6034	1920.1528	37132.6	36239.75
924.7422	1921.7764	37061.25	36170.05
924.881	1923.3992	36883.25	35990.25
925.0198	1925.0213	36652.6	35759.7
925.1586	1926.6427	36472.05	35580.6
925.2973	1928.2633	36498.85	35489.3
925.436	1929.8832	36282.9	35388.3
925.5747	1931.5023	36082.45	35190.85
925.7134	1933.1207	36068.35	35176.75
925.852	1934.7383	36012.2	35118.15
925.9906	1936.3552	35844.85	34954.05
926.1292	1937.9714	35689.35	34796.45
926.2678	1939.5868	35571.7	34678
926.4064	1941.2015	35352.4	34457.4
926.5449	1942.8154	35189.9	34300.5
926.6834	1944.4286	35079.85	34187.05
926.8219	1946.041	34947.6	34035.15
926.9604	1947.6528	34761.15	33864.5
927.0988	1949.2637	34654.05	33762.45
927.2372	1950.8739	34556.3	33662.5
927.3756	1952.4834	34500	33607.7
927.514	1954.0921	34419.25	33525.25
927.6523	1955.7001	34243.9	33346.45
927.7907	1957.3074	34097.05	33206
927.929	1958.9139	33927.55	33036.3
928.0673	1960.5197	33867.6	32972.05
928.2055	1962.1247	33683.05	32789.85
928.3438	1963.729	33534.6	32642.15
928.482	1965.3325	33411.6	32495.6
928.6202	1966.9353	33330.45	32436.85
928.7584	1968.5374	33192.15	32300.35
928.8965	1970.1387	33035.85	32144.25
929.0346	1971.7393	32886	31994.1
929.1727	1973.3392	32829.25	31936.7
929.3108	1974.9383	32652.8	31760.95
929.4489	1976.5366	32484.4	31594.8
929.5869	1978.1342	32491.35	31598.2
929.7249	1979.7311	32403.35	31511.95
929.8629	1981.3273	32269.95	31377.9
930.0009	1982.9227	32141.25	31247.65
930.1388	1984.5173	32050.35	31160.1
930.2767	1986.1112	31897.25	31004.9
930.4146	1987.7044	31871.4	30981.95
930.5525	1989.2968	31686.1	30794.45
930.6904	1990.8885	31640.35	30744.95
930.8282	1992.4795	31559.7	30666.9
930.966	1994.0697	31373.35	30481.7
931.1038	1995.6592	31279.05	30388.7
931.2415	1997.2479	31158.05	30264.95
931.3793	1998.8359	31046.05	30152.3
931.517	2000.4232	30946.95	30056.8
931.6547	2002.0097	30805.8	29915.3
931.7923	2003.5955	30661.55	29769.3
931.93	2005.1805	30649.25	29756.6
932.0676	2006.7648	30514.9	29620.85
932.2052	2008.3484	30403.9	29510.7
932.3427	2009.9312	30394.25	29498.85
932.4803	2011.5133	30240.15	29348.95
932.6178	2013.0946	30164.5	29274.35
932.7553	2014.6752	30079.85	29189.15
932.8928	2016.2551	29989.95	29098.4
933.0302	2017.8342	29879.2	28988.15
933.1676	2019.4126	29764.45	28872.7
933.305	2020.9902	29618.65	28728.4
933.4424	2022.5672	29567.6	28673.55
933.5798	2024.1433	29498.05	28602.15
933.7171	2025.7188	29355.6	28465.95
933.8544	2027.2935	29249.65	28357.15
933.9917	2028.8674	29171.45	28281.65
934.129	2030.4406	29042.85	28152.3
934.2662	2032.0131	28894.85	28004.45
934.4034	2033.5849	28844.95	27944.75
934.5406	2035.1559	28741.35	27850.4
934.6778	2036.7261	28673.4	27782.9
934.8149	2038.2957	28599.55	27708.3
934.952	2039.8645	28516.4	27625.6
935.0891	2041.4325	28546.25	27651.75
935.2262	2042.9998	28351.6	27461.25
935.3632	2044.5664	28271.7	27378.35
935.5002	2046.1323	28197.5	27307.1
935.6372	2047.6974	28081.3	27190.1
935.7742	2049.2617	27956.55	27065.85
935.9111	2050.8254	27960.5	27046.75
936.048	2052.3883	27911.95	27018.25
936.1849	2053.9504	27762	26870.5
936.3218	2055.5118	27689.45	26796.8
936.4586	2057.0725	27562.1	26665.25
936.5955	2058.6325	27503.15	26609.75
936.7323	2060.1917	27384.5	26494.2
936.869	2061.7502	27339.15	26445.6
937.0058	2063.3079	27205.1	26316.3
937.1425	2064.8649	27134.1	26240.75
937.2792	2066.4212	27086.45	26195.3
937.4159	2067.9767	27010.55	26120.9
937.5525	2069.5315	26884.3	25993.55
937.6891	2071.0856	26704.2	25812.85
937.8257	2072.6389	26606.4	25715.7
937.9623	2074.1915	26487.4	25597.15
938.0989	2075.7433	26333.55	25439.15
938.2354	2077.2945	26261.8	25372.25
938.3719	2078.8448	26208.55	25316.35
938.5084	2080.3945	26068.25	25175.85
938.6448	2081.9434	26016.15	25126
938.7812	2083.4916	25954.15	25061.9
938.9176	2085.039	25849.85	24956.15
939.054	2086.5857	25814.7	24922.55
939.1903	2088.1317	25782.2	24889.45
939.3267	2089.677	25664.6	24771.95
939.463	2091.2215	25522.7	24633.9
939.5992	2092.7652	25487.85	24593.25
939.7355	2094.3083	25439.95	24547.25
939.8717	2095.8506	25392.15	24503.05
940.0079	2097.3921	25343.95	24452.55
940.1441	2098.933	25247.35	24355.5
940.2802	2100.4731	25134.3	24241.75
940.4163	2102.0124	25108	24208.6
940.5524	2103.5511	25028.55	24138.4
940.6885	2105.089	24955.3	24060.9
940.8245	2106.6261	24894.05	24000.55
940.9606	2108.1626	24826.3	23934.8
941.0965	2109.6983	24751.1	23830.15
941.2325	2111.2332	24664	23772
941.3684	2112.7675	24607.95	23713.7
941.5044	2114.301	24535.1	23642.4
941.6403	2115.8337	24482.6	23590.45
941.7761	2117.3657	24441.7	23549.5
941.912	2118.897	24344.95	23453.05
942.0478	2120.4276	24261.5	23364.35
942.1835	2121.9575	24122.8	23229.95
942.3193	2123.4866	24115.3	23209.35
942.455	2125.0149	24021.2	23125.15
942.5907	2126.5426	23838.4	22947.25
942.7264	2128.0695	23782.6	22887.75
942.8621	2129.5956	23750.6	22859.6
942.9977	2131.1211	23698.2	22803.75
943.1333	2132.6458	23622.85	22731
943.2689	2134.1698	23587.4	22697.2
943.4044	2135.693	23513	22620.4
943.54	2137.2155	23383.85	22487.95
943.6755	2138.7373	23349.8	22456.15
943.8109	2140.2584	23266	22373.8
943.9464	2141.7787	23206.5	22311.35
944.0818	2143.2983	23128.95	22240.1
944.2172	2144.8171	22984.8	22095.1
944.3526	2146.3353	22939.45	22045.6
944.4879	2147.8527	22794.95	21903.05
944.6232	2149.3693	22839.85	21948.25
944.7585	2150.8853	22685.5	21792.6
944.8938	2152.4005	22585.3	21693.85
945.029	2153.9149	22538.6	21647.6
945.1642	2155.4287	22499.35	21607.3
945.2994	2156.9417	22469	21575.35
945.4346	2158.454	22338.5	21444.9
945.5697	2159.9655	22287.7	21396.9
945.7048	2161.4764	22261.6	21372.15
945.8399	2162.9865	22171.6	21279.4
945.9749	2164.4958	22097.4	21204.75
946.1099	2166.0045	22041.1	21146.8
946.2449	2167.5124	22004.2	21111.2
946.3799	2169.0195	21925.05	21036.55
946.5148	2170.526	21858.95	20965.15
946.6498	2172.0317	21770.2	20879.95
946.7846	2173.5367	21718.3	20827.5
946.9195	2175.0409	21637.85	20744.7
947.0543	2176.5445	21631.65	20741.55
947.1891	2178.0473	21506.2	20615.2
947.3239	2179.5494	21430.1	20535.15
947.4587	2181.0507	21339.5	20447.95
947.5934	2182.5513	21251.25	20358.85
947.7281	2184.0512	21283.6	20392.3
947.8628	2185.5504	21168.4	20275.6
947.9974	2187.0488	21045.15	20154.05
948.132	2188.5465	21003.65	20113.6
948.2666	2190.0435	20908.1	20014.05
948.4012	2191.5397	20833.55	19944
948.5357	2193.0353	20751.4	19860
948.6702	2194.5301	20674	19780.2
948.8047	2196.0241	20605.9	19714.65
948.9392	2197.5175	20532.7	19640.1
949.0736	2199.0101	20462.05	19565.75
949.208	2200.502	20343.55	19452.35
949.3424	2201.9931	20265.4	19372.95
949.4767	2203.4835	20173.8	19281.3
949.611	2204.9733	20153.95	19255.8
949.7453	2206.4622	20075.65	19184.15
949.8796	2207.9505	19975.75	19083.25
950.0138	2209.438	19891.35	19001.45
950.148	2210.9248	19836.15	18943.85
950.2822	2212.4109	19744.2	18852.8
950.4164	2213.8962	19697.5	18801.8
950.5505	2215.3809	19655.4	18761.65
950.6846	2216.8648	19583.7	18690.45
950.8186	2218.3479	19529.15	18633.65
950.9527	2219.8304	19474	18580.05
951.0867	2221.3121	19347.1	18453.55
951.2207	2222.7931	19263.1	18371.25
951.3546	2224.2733	19203.5	18311.2
951.4886	2225.7529	19136.2	18243.3
951.6225	2227.2317	19081.75	18186.55
951.7563	2228.7098	19042.55	18150.05
951.8902	2230.1872	18942.3	18049.2
952.024	2231.6638	18919.65	18026.75
952.1578	2233.1397	18845.95	17946.85
952.2916	2234.6149	18803.35	17911.65
952.4253	2236.0894	18718.2	17826.4
952.559	2237.5632	18693	17791.15
952.6927	2239.0362	18612.85	17720.6
952.8263	2240.5085	18519.35	17628.2
952.9599	2241.9801	18420.4	17527.9
953.0935	2243.4509	18383.05	17491.25
953.2271	2244.921	18306.2	17412.6
953.3606	2246.3904	18233.95	17339.85
953.4941	2247.8591	18167.45	17275.4
953.6276	2249.3271	18119.1	17228.05
953.7611	2250.7943	18052.05	17159.7
953.8945	2252.2608	17974.7	17084.4
954.0279	2253.7266	17927.1	17036.6
954.1612	2255.1917	17894.75	17001.85
954.2946	2256.656	17798.1	16904.55
954.4279	2258.1197	17730.1	16837.05
954.5612	2259.5826	17707.2	16815.3
954.6944	2261.0447	17687.2	16794.2
954.8276	2262.5062	17591.6	16698.15
954.9608	2263.9669	17566.6	16672.45
955.094	2265.4269	17501.4	16608.75
955.2271	2266.8862	17433.55	16540.95
955.3602	2268.3448	17394.4	16501.45
955.4933	2269.8026	17337.35	16445.75
955.6264	2271.2598	17313.35	16422.15
955.7594	2272.7162	17215.3	16323.85
955.8924	2274.1719	17179.55	16287.6
956.0253	2275.6268	17122.2	16229.75
956.1583	2277.0811	17108.5	16216.1
956.2912	2278.5346	17012.95	16122.3
956.4241	2279.9874	16981.4	16090.3
956.5569	2281.4395	16961.2	16070.9
956.6897	2282.8908	16833.45	15937.5
956.8225	2284.3414	16829.9	15933.95
956.9553	2285.7914	16754.2	15863.6
957.088	2287.2406	16707	15810.85
957.2207	2288.689	16650.55	15760.05
957.3534	2290.1368	16605.3	15711.15
957.486	2291.5838	16542.95	15649.35
957.6186	2293.0302	16481.85	15587.05
957.7512	2294.4758	16395.45	15503.1
957.8838	2295.9206	16331.3	15436.6
958.0163	2297.3648	16298.45	15405.5
958.1488	2298.8082	16267.4	15374.95
958.2813	2300.251	16250.15	15360.55
958.4137	2301.693	16175.4	15281
958.5461	2303.1343	16147.4	15254.45
958.6785	2304.5748	16076.55	15185.4
958.8108	2306.0147	16005.9	15111.1
958.9432	2307.4538	15962.75	15069.3
959.0754	2308.8922	15911.4	15020.7
959.2077	2310.3299	15854.4	14963.45
959.3399	2311.7669	15796.9	14905.65
959.4721	2313.2031	15752.2	14860
959.6043	2314.6387	15708.15	14815.15
959.7365	2316.0735	15632.65	14740.6
959.8686	2317.5076	15585.35	14693.6
960.0006	2318.941	15539.4	14649.5
960.1327	2320.3737	15471.65	14579.25
960.2647	2321.8056	15421.4	14527.9
960.3967	2323.2369	15374.7	14482.7
960.5287	2324.6674	15309.1	14411.1
960.6606	2326.0972	15257.6	14364.75
960.7925	2327.5263	15214	14324
960.9244	2328.9547	15145.15	14253.45
961.0562	2330.3823	15124	14230.6
961.1881	2331.8092	15105.2	14208.8
961.3198	2333.2355	15020	14128.3
961.4516	2334.661	15009.1	14116.35
961.5833	2336.0858	14986.05	14091.8
961.715	2337.5098	14932.05	14038.85
961.8467	2338.9332	14875.9	13983
961.9783	2340.3558	14793.65	13899.3
962.1099	2341.7778	14758.9	13865.65
962.2415	2343.199	14705.7	13812.95
962.373	2344.6195	14684.85	13794.2
962.5045	2346.0393	14654.5	13763.75
962.636	2347.4583	14592.4	13699.15
962.7675	2348.8767	14493.3	13599.1
962.8989	2350.2943	14482.7	13588.05
963.0303	2351.7113	14467.8	13576.4
963.1617	2353.1275	14409.05	13516.3
963.293	2354.543	14351.65	13451
963.4243	2355.9578	14296.85	13404.55
963.5556	2357.3718	14193.85	13302.75
963.6868	2358.7852	14138.05	13243.35
963.818	2360.1978	14086.75	13195.2
963.9492	2361.6098	14102	13209.5
964.0803	2363.021	14002.35	13107.5
964.2114	2364.4315	13971.6	13079.15
964.3425	2365.8413	13929.7	13036.45
964.4736	2367.2504	13886.2	12994.1
964.6046	2368.6587	13803.35	12910.5
964.7356	2370.0664	13739.25	12848.1
964.8666	2371.4733	13697.9	12806.4
964.9975	2372.8795	13654.55	12764.15
965.1284	2374.285	13620.6	12729.3
965.2593	2375.6899	13528.8	12638.3
965.3901	2377.0939	13451.1	12559.5
965.5209	2378.4973	13430.75	12539.45
965.6517	2379.9	13385.35	12492.65
965.7825	2381.3019	13292.85	12401.55
965.9132	2382.7032	13265.15	12372.3
966.0439	2384.1037	13241.05	12352.7
966.1745	2385.5035	13175.25	12283
966.3051	2386.9027	13125.65	12235.15
966.4357	2388.3011	13116.1	12220.55
966.5663	2389.6987	13096.9	12206
966.6968	2391.0957	13002.45	12112.75
966.8273	2392.492	12955.45	12064.25
966.9578	2393.8876	12881.45	11990.65
967.0882	2395.2824	12841.25	11950.3
967.2186	2396.6765	12780.1	11891.5
967.349	2398.07	12710.6	11820.9
967.4793	2399.4627	12706.65	11815.05
967.6097	2400.8547	12647.1	11755.45
967.7399	2402.246	12572.15	11674.8
967.8702	2403.6366	12493	11602.2
968.0004	2405.0265	12457.35	11566
968.1306	2406.4156	12428.95	11534.6
968.2607	2407.8041	12348.05	11452.95
968.3909	2409.1918	12310.7	11417.9
968.521	2410.5789	12294.4	11404.1
968.651	2411.9652	12208.7	11312.4
968.781	2413.3508	12167.7	11276.5
968.911	2414.7358	12123.15	11231.9
969.041	2416.12	12087.75	11197.25
969.1709	2417.5035	12062.9	11170.8
969.3008	2418.8863	12007.15	11113.95
969.4307	2420.2684	12002.75	11112.55
969.5606	2421.6497	11923.6	11032.5
969.6904	2423.0304	11848.75	10957.9
969.8201	2424.4104	11831.35	10941.2
969.9499	2425.7896	11792.1	10898.05
970.0796	2427.1682	11763.85	10873.95
970.2093	2428.546	11702.15	10809.35
970.3389	2429.9232	11661.9	10768.2
970.4685	2431.2996	11651.3	10760.05
970.5981	2432.6753	11623.2	10732.7
970.7277	2434.0503	11573.15	10682.25
970.8572	2435.4246	11516	10626.5
970.9867	2436.7982	11488.55	10595.35
971.1161	2438.1711	11454.6	10563.7
971.2456	2439.5433	11411.3	10520
971.375	2440.9148	11354.6	10461.9
971.5043	2442.2856	11304.7	10414.1
971.6336	2443.6557	11259	10366
971.7629	2445.025	11232.6	10340
971.8922	2446.3937	11202.9	10310.25
972.0214	2447.7617	11171.35	10279.7
972.1506	2449.1289	11175.55	10285.45
972.2798	2450.4955	11114.5	10220.5
972.4089	2451.8613	11080.15	10187.7
972.538	2453.2265	11044.5	10152.3
972.6671	2454.5909	11001.55	10108
972.7961	2455.9546	10972.8	10081.05
972.9251	2457.3177	10944.15	10054
973.0541	2458.68	10887.4	9994.3
973.1831	2460.0416	10879.3	9989.8
973.312	2461.4025	10879.85	9987.8
973.4408	2462.7627	10802.15	9900.55
973.5697	2464.1222	10790.2	9898.65
973.6985	2465.4811	10767.65	9876.2
973.8273	2466.8392	10737.45	9846.1
973.956	2468.1966	10693.95	9801.9
974.0847	2469.5533	10669.45	9776.05
974.2134	2470.9093	10660.35	9765.95
974.3421	2472.2645	10595.05	9702.55
974.4707	2473.6191	10548.7	9658.2
974.5993	2474.973	10526.6	9634.85
974.7278	2476.3262	10497.7	9604.65
974.8563	2477.6787	10459.85	9570.65
974.9848	2479.0305	10367.65	9476.4
975.1132	2480.3816	10338.6	9445.05
975.2417	2481.7319	10320.9	9429.7
975.37	2483.0816	10256.75	9361.95
975.4984	2484.4306	10262.05	9369.4
975.6267	2485.7789	10217.3	9326.6
975.755	2487.1264	10155.5	9263.65
975.8833	2488.4733	10098.45	9208.2
976.0115	2489.8195	10091.2	9183.35
976.1397	2491.165	10041.1	9147.3
976.2678	2492.5097	10008.6	9114.9
976.3959	2493.8538	9961.3	9072.7
976.524	2495.1972	9920.95	9029.3
976.6521	2496.5398	9857.9	8964.4
976.7801	2497.8818	9848.25	8954.15
976.9081	2499.2231	9814.45	8921.9
977.036	2500.5637	9774.15	8880.75
977.164	2501.9035	9728.65	8837.8
977.2918	2503.2427	9718.45	8824.25
977.4197	2504.5812	9715.3	8823.15
977.5475	2505.919	9675.3	8779.8
977.6753	2507.256	9626.9	8736.3
977.8031	2508.5924	9591.8	8699.6
977.9308	2509.9281	9558.35	8662.25
978.0585	2511.2631	9530	8637.8
978.1861	2512.5974	9484.6	8593.95
978.3137	2513.9309	9480.15	8589.65
978.4413	2515.2638	9440.35	8522.25
978.5689	2516.596	9395.7	8505.3
978.6964	2517.9275	9337.9	8446.2
978.8239	2519.2583	9311.2	8417
978.9513	2520.5884	9274.85	8382
979.0788	2521.9178	9260.3	8365.95
979.2062	2523.2465	9209.85	8318.85
979.3335	2524.5745	9165.2	8275
979.4608	2525.9018	9154.15	8262.4
979.5881	2527.2284	9107.15	8218.45
979.7154	2528.5543	9097.2	8206.55
979.8426	2529.8796	9056.7	8164.55
979.9698	2531.2041	9040	8147.8
980.0969	2532.5279	9040.9	8149.15
980.224	2533.851	9008.95	8117.6
980.3511	2535.1735	8975.55	8084.85
980.4781	2536.4952	8936.4	8043.55
980.6052	2537.8163	8913.15	8021.5
980.7321	2539.1366	8879.1	7987
980.8591	2540.4562	8857.8	7965.65
980.986	2541.7752	8864.85	7973.9
981.1129	2543.0935	8830.3	7938.1
981.2397	2544.411	8802.55	7910.05
981.3665	2545.7279	8779.45	7888.8
981.4933	2547.0441	8776.85	7886.15
981.62	2548.3596	8756.85	7861.65
981.7467	2549.6744	8723.9	7831.05
981.8734	2550.9885	8701.5	7807.2
982.0001	2552.3019	8657.1	7765.45
982.1267	2553.6146	8627.1	7736.2
982.2532	2554.9266	8626.9	7735.35
982.3798	2556.2379	8582.45	7689.7
982.5063	2557.5485	8546.55	7656.65
982.6327	2558.8585	8548.9	7649.45
982.7592	2560.1677	8529.4	7633.5
982.8856	2561.4762	8483.9	7590.85
983.0119	2562.7841	8474.55	7580.15
983.1383	2564.0913	8453.5	7565.05
983.2646	2565.3977	8431.65	7541.25
983.3908	2566.7035	8415.7	7524.2
983.517	2568.0086	8403.8	7511.6
983.6432	2569.313	8394	7503.3
983.7694	2570.6167	8362.8	7467.5
983.8955	2571.9197	8326.75	7434.4
984.0216	2573.222	8336.4	7439.45
984.1476	2574.5236	8327.65	7436
984.2737	2575.8246	8281.5	7387.6
984.3996	2577.1248	8246.35	7351.7
984.5256	2578.4244	8238.8	7347
984.6515	2579.7232	8241.15	7349.3
984.7774	2581.0214	8246.65	7332.05
984.9032	2582.3189	8192.55	7301.85
985.029	2583.6157	8154.7	7257.75
985.1548	2584.9118	8147.35	7255.1
985.2806	2586.2072	8143.6	7252.15
985.4063	2587.5019	8104.4	7214.65
985.5319	2588.7959	8101.65	7210.15
985.6576	2590.0893	8088	7194.25
985.7832	2591.3819	8040.5	7149.1
985.9087	2592.6739	7980.8	7089
986.0343	2593.9652	7972.1	7080.7
986.1597	2595.2557	7966.3	7075.25
986.2852	2596.5456	7942.05	7048.45
986.4106	2597.8348	7899.95	7008.7
986.536	2599.1234	7888.45	6998.45
986.6614	2600.4112	7859.25	6967.6
986.7867	2601.6983	7835.45	6939.1
986.912	2602.9848	7804.75	6913.5
987.0372	2604.2705	7770.9	6871.75
987.1624	2605.5556	7752.6	6860.7
987.2876	2606.84	7726.65	6836.05
987.4128	2608.1237	7693.65	6800.1
987.5379	2609.4067	7653.6	6761.4
987.6629	2610.689	7643.65	6742.3
987.788	2611.9707	7624.3	6730.45
987.913	2613.2516	7587.55	6691.3
988.0379	2614.5319	7544.15	6652.8
988.1629	2615.8115	7513.6	6620.95
988.2878	2617.0903	7462.15	6570.85
988.4126	2618.3685	7462.25	6568.85
988.5375	2619.6461	7436.95	6545.25
988.6622	2620.9229	7393.25	6501.15
988.787	2622.199	7389.4	6496.65
988.9117	2623.4745	7365.95	6472.95
989.0364	2624.7493	7351.75	6459.75
989.161	2626.0234	7320.75	6428.55
989.2857	2627.2968	7311.6	6419.9
989.4102	2628.5695	7275.9	6382.95
989.5348	2629.8415	7223.75	6333.05
989.6593	2631.1128	7186.55	6292.55
989.7837	2632.3835	7174.8	6283.3
989.9082	2633.6535	7143	6251.95
990.0326	2634.9228	7144.5	6252.75
990.1569	2636.1914	7107.7	6218.4
990.2812	2637.4593	7085.15	6187.45
990.4055	2638.7265	7051.15	6159.8
990.5298	2639.9931	7015.6	6124.1
990.654	2641.259	7017.05	6123.55
990.7782	2642.5242	6991.95	6102
990.9023	2643.7887	6960.65	6069.35
991.0264	2645.0525	6951.5	6059
991.1505	2646.3156	6922.7	6030.55
991.2745	2647.5781	6901.3	6009.45
991.3985	2648.8398	6873.95	5982.5
991.5225	2650.1009	6858.65	5958.3
991.6464	2651.3613	6836.8	5945
991.7703	2652.6211	6809.85	5918.25
991.8942	2653.8801	6768.95	5877.25
992.018	2655.1385	6776.7	5881.7
992.1418	2656.3961	6755.6	5864
992.2655	2657.6531	6740.8	5849.15
992.3892	2658.9094	6717	5826.45
992.5129	2660.1651	6697.15	5806.7
992.6366	2661.42	6676.8	5785.95
992.7602	2662.6743	6668.25	5776.9
992.8837	2663.9279	6665.1	5773.15
993.0073	2665.1808	6629.8	5737.7
993.1307	2666.433	6606.2	5713.3
993.2542	2667.6846	6594.65	5704.3
993.3776	2668.9354	6582.9	5686.9
993.501	2670.1856	6567.85	5675.5
993.6244	2671.4351	6557.25	5667.1
993.7477	2672.6839	6547.25	5654.25
993.8709	2673.9321	6505.8	5613.85
993.9942	2675.1795	6500.15	5607.85
994.1174	2676.4263	6464.75	5573.25
994.2405	2677.6724	6448.3	5558.4
994.3637	2678.9179	6438.9	5545.35
994.4868	2680.1626	6423.95	5532.75
994.6098	2681.4067	6415.3	5522.3
994.7328	2682.6501	6382.4	5492.7
994.8558	2683.8928	6364.4	5472.4
994.9788	2685.1348	6330.55	5439.5
995.1017	2686.3761	6311.8	5419.65
995.2245	2687.6168	6287.95	5396.15
995.3474	2688.8568	6265.7	5373.9
995.4702	2690.0961	6247.8	5355.6
995.5929	2691.3348	6222.55	5330.65
995.7156	2692.5727	6219.3	5327.3
995.8383	2693.81	6199.15	5305.4
995.961	2695.0466	6177.05	5286.95
996.0836	2696.2826	6162.9	5270.4
996.2062	2697.5178	6148.2	5253.45
996.3287	2698.7524	6124.4	5231.35
996.4512	2699.9863	6103.7	5211.25
996.5737	2701.2195	6084.75	5194.5
996.6961	2702.452	6082.85	5189.45
996.8185	2703.6839	6067.45	5174.4
996.9408	2704.9151	6057.65	5166.85
997.0631	2706.1456	6025.15	5132.45
997.1854	2707.3755	6000	5106.45
997.3077	2708.6046	6005.4	5113.55
997.4299	2709.8331	5981.6	5088.9
997.552	2711.0609	5974.85	5082.75
997.6742	2712.2881	5955.1	5065.3
997.7963	2713.5145	5943.45	5050.15
997.9183	2714.7403	5929.45	5038.15
998.0403	2715.9654	5898.95	5006.45
998.1623	2717.1899	5932.55	5025.7
998.2842	2718.4136	5907.2	5015.95
998.4062	2719.6367	5880.75	4989.9
998.528	2720.8591	5878.65	4980.5
998.6498	2722.0809	5840	4949.35
998.7716	2723.3019	5841.55	4946.95
998.8934	2724.5223	5835.9	4940.4
999.0151	2725.7421	5828.2	4936.45
999.1368	2726.9611	5832.35	4937.6
999.2584	2728.1795	5791.15	4896.3
999.38	2729.3972	5775.15	4883.2
999.5016	2730.6142	5737.35	4831.55
999.6231	2731.8306	5700.8	4808.9
999.7446	2733.0462	5653.35	4760.9
999.8661	2734.2612	5640.55	4742.35
999.9875	2735.4756	5599.1	4705.5
1000.1089	2736.6892	5570.95	4679.55
1000.2302	2737.9022	5529.05	4637.15
1000.3515	2739.1145	5503.6	4612.25
1000.4728	2740.3262	5459.75	4558.25
1000.594	2741.5372	5434.9	4545.6
1000.7152	2742.7475	5413.8	4522.4
1000.8363	2743.9571	5397.5	4504.3
1000.9575	2745.1661	5379.75	4483.15
1001.0785	2746.3744	5350.3	4455.65
1001.1996	2747.582	5318.3	4426.95
1001.3206	2748.7889	5300.25	4406.25
1001.4415	2749.9952	5279.1	4387.75
1001.5625	2751.2008	5267.65	4375.6
1001.6833	2752.4057	5241.8	4347.75
1001.8042	2753.61	5213.25	4321.3
1001.925	2754.8136	5220.95	4326.85
1002.0458	2756.0165	5190.45	4299.55
1002.1665	2757.2188	5170.45	4279.7
1002.2872	2758.4204	5142.1	4250.75
1002.4078	2759.6213	5141.5	4249.25
1002.5285	2760.8215	5130.9	4234.3
1002.649	2762.0211	5120.6	4226.65
1002.7696	2763.22	5088.45	4194.25
1002.8901	2764.4182	5064.7	4169.9
1003.0106	2765.6158	5055.45	4162.65
1003.131	2766.8127	5044.85	4153.1
1003.2514	2768.009	5017.95	4126.95
1003.3717	2769.2045	5007.3	4118.95
1003.492	2770.3994	4989.6	4094.6
1003.6123	2771.5936	4980.65	4088.5
1003.7325	2772.7872	4973.75	4081.95
1003.8527	2773.9801	4921.8	4027.15
1003.9729	2775.1723	4922.75	4015
1004.093	2776.3639	4902.5	4011.85
1004.2131	2777.5548	4890.1	3998.15
1004.3331	2778.745	4879.15	3986.15
1004.4531	2779.9346	4878.85	3987.9
1004.5731	2781.1235	4865.55	3972.85
1004.693	2782.3117	4838.75	3948
1004.8129	2783.4992	4828.35	3939.3
1004.9328	2784.6861	4800.8	3910.9
1005.0526	2785.8723	4818.75	3926.5
1005.1723	2787.0579	4803.7	3912.5
1005.2921	2788.2428	4803.85	3911.8
1005.4118	2789.427	4785.7	3895.5
1005.5314	2790.6106	4770.3	3881.2
1005.651	2791.7935	4771.7	3881.05
1005.7706	2792.9757	4759.65	3870.5
1005.8902	2794.1573	4773	3877.95
1006.0097	2795.3382	4757.55	3867.4
1006.1291	2796.5184	4751.15	3862.05
1006.2485	2797.698	4762.65	3870
1006.3679	2798.8769	4761.8	3870.1
1006.4873	2800.0551	4755.05	3864.35
1006.6066	2801.2327	4765.35	3872.95
1006.7258	2802.4096	4763.45	3874.45
1006.8451	2803.5859	4759.25	3865.2
1006.9642	2804.7615	4765.95	3873.85
1007.0834	2805.9364	4769.7	3879.2
1007.2025	2807.1106	4798.1	3906.55
1007.3216	2808.2842	4821.05	3930.85
1007.4406	2809.4572	4831.4	3938.75
1007.5596	2810.6294	4846.6	3954.75
1007.6785	2811.801	4892	4001.4
1007.7975	2812.972	4917.4	4025.55
1007.9163	2814.1423	4957.65	4065.95
1008.0352	2815.3119	4978.95	4086.55
1008.154	2816.4808	5026.55	4137.2
1008.2727	2817.6491	5054.95	4164.55
1008.3914	2818.8167	5088.15	4198.55
1008.5101	2819.9837	5131.2	4236.55
1008.6288	2821.15	5177.35	4286.15
1008.7474	2822.3157	5193.85	4304.25
1008.8659	2823.4807	5238.7	4347.55
1008.9844	2824.645	5269.65	4375.85
1009.1029	2825.8086	5287.25	4396.95
1009.2214	2826.9716	5328.6	4437.1
1009.3398	2828.134	5365.85	4474.35
1009.4581	2829.2957	5397.15	4505.15
1009.5764	2830.4567	5396.05	4506.7
1009.6947	2831.617	5408.2	4518.45
1009.813	2832.7767	5422.7	4533.65
1009.9312	2833.9358	5395.9	4505.05
1010.0493	2835.0941	5397.75	4503.35
1010.1675	2836.2519	5387.05	4495.2
1010.2855	2837.4089	5333.6	4441.3
1010.4036	2838.5653	5347.45	4457.25
1010.5216	2839.7211	5326.2	4436.5
1010.6396	2840.8761	5315.25	4421.6
1010.7575	2842.0306	5366.5	4475.85
1010.8754	2843.1843	5376.3	4485.35
1010.9932	2844.3374	5417.55	4527.65
1011.111	2845.4899	5462.1	4569.8
1011.2288	2846.6417	5509.95	4618.9
1011.3465	2847.7928	5580.25	4689.95
1011.4642	2848.9433	5641.7	4752.45
1011.5818	2850.0931	5733.95	4843.9
1011.6995	2851.2422	5784.15	4890.1
1011.817	2852.3907	5867.25	4975.4
1011.9345	2853.5385	5911.1	5018.7
1012.052	2854.6857	5988.85	5067.5
1012.1695	2855.8323	6014.25	5123.95
1012.2869	2856.9781	6055.4	5165.5
1012.4042	2858.1233	6084.15	5194.15
1012.5216	2859.2679	6111.8	5220.25
1012.6389	2860.4118	6141.95	5251.2
1012.7561	2861.555	6174.75	5277.2
1012.8733	2862.6976	6190.45	5296.75
1012.9905	2863.8395	6218.65	5328.5
1013.1076	2864.9808	6229.65	5337.65
1013.2247	2866.1214	6246.9	5356.6
1013.3417	2867.2614	6240.25	5349.45
1013.4587	2868.4007	6240.35	5348.45
1013.5757	2869.5393	6231.85	5340.75
1013.6926	2870.6773	6241.05	5347.4
1013.8095	2871.8146	6243.95	5351.15
1013.9263	2872.9513	6215.9	5323.5
1014.0431	2874.0874	6208.55	5318.35
1014.1599	2875.2227	6193.55	5302.1
1014.2766	2876.3574	6180.8	5290
1014.3933	2877.4915	6150.75	5259.4
1014.51	2878.6249	6086.55	5194.15
1014.6266	2879.7577	6049.3	5156
1014.7431	2880.8898	6027.65	5127.5
1014.8596	2882.0212	5991.45	5101.7
1014.9761	2883.152	5959.6	5067.4
1015.0925	2884.2821	5950.9	5058.95
1015.2089	2885.4116	5931.65	5040.1
1015.3253	2886.5405	5904.45	5014.7
1015.4416	2887.6686	5896.5	5002.1
1015.5579	2888.7962	5892.9	5003
1015.6741	2889.923	5906.45	5016.35
1015.7903	2891.0493	5888.8	4998
1015.9065	2892.1748	5890.9	5000.4
1016.0226	2893.2997	5892.2	5000.25
1016.1387	2894.424	5896	5005.3
1016.2547	2895.5476	5908.55	5016.75
1016.3707	2896.6706	5918	5029
1016.4866	2897.7929	5953.5	5062.15
1016.6025	2898.9145	5952.3	5062.55
1016.7184	2900.0355	5965.6	5072.2
1016.8342	2901.1559	6011.75	5120.05
1016.95	2902.2756	6015.2	5124.4
1017.0658	2903.3946	6044.75	5154.3
1017.1815	2904.513	6063.55	5169.35
1017.2971	2905.6308	6081.6	5189.9
1017.4127	2906.7479	6100	5208.8
1017.5283	2907.8643	6089.4	5197.9
1017.6439	2908.9801	6102.15	5211.95
1017.7594	2910.0953	6081.3	5189.95
1017.8748	2911.2098	6080.05	5186.9
1017.9902	2912.3236	6075.3	5176.25
1018.1056	2913.4368	6069.8	5174.55
1018.2209	2914.5494	6022.1	5131.4
1018.3362	2915.6613	5995.15	5097.95
1018.4515	2916.7725	5948.5	5054.5
1018.5667	2917.8831	5935.3	5044.5
1018.6819	2918.9931	5893.5	4998.75
1018.797	2920.1024	5822.25	4928.8
1018.9121	2921.211	5819.55	4928.25
1019.0271	2922.319	5774.75	4882.7
1019.1421	2923.4264	5754.1	4864.65
1019.2571	2924.5331	5749.05	4858.5
1019.372	2925.6391	5714.25	4824
1019.4869	2926.7445	5691.9	4801.35
1019.6017	2927.8493	5669.75	4778.65
1019.7165	2928.9534	5673.45	4782.3
1019.8313	2930.0569	5651.1	4757.1
1019.946	2931.1597	5625.7	4732.6
1020.0606	2932.2619	5602.3	4713.25
1020.1753	2933.3634	5607	4717.05
1020.2899	2934.4643	5588.2	4691.5
1020.4044	2935.5645	5556.6	4658.8
1020.5189	2936.6641	5511.95	4616.7
1020.6334	2937.763	5467.65	4576.3
1020.7478	2938.8613	5408.8	4517.15
1020.8622	2939.959	5344.7	4449.2
1020.9765	2941.056	5252	4362.5
1021.0908	2942.1523	5169.05	4277.2
1021.2051	2943.248	5057.65	4165.15
1021.3193	2944.3431	4963.25	4072.25
1021.4334	2945.4375	4857.4	3964.9
1021.5476	2946.5313	4743.95	3852.45
1021.6617	2947.6244	4633.85	3743.6
1021.7757	2948.7169	4522.25	3629.75
1021.8897	2949.8087	4411.25	3520.4
1022.0037	2950.8999	4316.9	3426.7
1022.1176	2951.9904	4225.1	3334.35
1022.2315	2953.0803	4148.65	3258.45
1022.3453	2954.1696	4080.4	3189.7
1022.4591	2955.2582	4001.45	3111.6
1022.5728	2956.3462	3949.45	3057.35
1022.6865	2957.4335	3907.7	3017.2
1022.8002	2958.5202	3861.8	2968.05
1022.9138	2959.6062	3820.8	2930
1023.0274	2960.6916	3812.25	2920.65
1023.141	2961.7764	3780.1	2889.4
1023.2545	2962.8605	3740	2848.5
1023.3679	2963.9439	3725.3	2833.9
1023.4813	2965.0267	3710.95	2820.55
1023.5947	2966.1089	3711.15	2794.9
1023.708	2967.1905	3669.7	2777.45
1023.8213	2968.2714	3657.75	2767.65
1023.9346	2969.3516	3657.25	2766.4
1024.0478	2970.4312	3655.9	2758
1024.1609	2971.5102	3647.5	2757.6
1024.274	2972.5885	3631.05	2740.3
1024.3871	2973.6662	3634.9	2740.7
1024.5002	2974.7432	3620.8	2729.7
1024.6132	2975.8196	3600.55	2710.15
1024.7261	2976.8954	3585.7	2695.55
1024.839	2977.9705	3563.7	2672.85
1024.9519	2979.045	3546.1	2657.1
1025.0647	2980.1188	3516.85	2626.75
1025.1775	2981.192	3493.85	2605.3
1025.2902	2982.2645	3468.9	2579.4
1025.4029	2983.3364	3423.6	2530.75
1025.5156	2984.4077	3389.2	2499.75
1025.6282	2985.4783	3378.85	2482.5
1025.7407	2986.5483	3312	2424.05
1025.8532	2987.6177	3282.5	2392.1
1025.9657	2988.6864	3240.85	2350.9
1026.0782	2989.7545	3204.2	2312.15
1026.1906	2990.8219	3168.75	2279.05
1026.3029	2991.8887	3126.5	2233.35
1026.4152	2992.9548	3085.9	2192.5
1026.5275	2994.0204	3060.95	2171.9
1026.6397	2995.0852	3021.8	2132.45
1026.7519	2996.1495	2977	2086.6
1026.864	2997.2131	2955.55	2066.2
1026.9761	2998.276	2926.45	2036
1027.0882	2999.3383	2908.75	2015.4
1027.2002	3000.4	2884	1993.5
1027.3122	3001.4611	2850.9	1960.2
1027.4241	3002.5215	2834.05	1941.8
1027.536	3003.5812	2820.55	1928.1
1027.6478	3004.6404	2800.7	1909.5
1027.7596	3005.6989	2800.4	1908.2
1027.8714	3006.7567	2763.5	1874.85
1027.9831	3007.8139	2771.3	1860.2
1028.0947	3008.8705	2755.35	1864.05
1028.2064	3009.9264	2743.6	1849.4
1028.3179	3010.9818	2733.35	1842.9
1028.4295	3012.0364	2719.15	1829.25
1028.541	3013.0905	2702	1811.9
1028.6524	3014.1439	2690.2	1797.25
1028.7638	3015.1966	2696.55	1806.9
1028.8752	3016.2487	2684.35	1794.55
1028.9865	3017.3002	2675.85	1780.3
1029.0978	3018.3511	2683.85	1794.4
1029.209	3019.4013	2673.8	1782.05
1029.3202	3020.4509	2658.95	1768.7
1029.4314	3021.4998	2672.45	1779.6
1029.5425	3022.5481	2664.95	1774.05
1029.6535	3023.5958	2648.3	1758.25
1029.7645	3024.6428	2649.9	1759.05
1029.8755	3025.6892	2654.7	1764.25
1029.9864	3026.735	2642.25	1752.95
1030.0973	3027.7802	2636.1	1744
1030.2082	3028.8247	2626.25	1736.4
1030.319	3029.8685	2626.35	1732.95
1030.4297	3030.9118	2620.1	1726.95
1030.5404	3031.9544	2615.85	1727.6
1030.6511	3032.9963	2628.25	1738
1030.7617	3034.0376	2621.6	1731.8
1030.8723	3035.0783	2616.8	1724
1030.9829	3036.1184	2617.1	1723.95
1031.0934	3037.1578	2612.55	1723.9
1031.2038	3038.1966	2620.55	1728.75
1031.3142	3039.2348	2604.6	1716.35
1031.4246	3040.2723	2614.1	1717.15
1031.5349	3041.3092	2590.65	1698.95
1031.6452	3042.3455	2585.2	1694.95
1031.7554	3043.3811	2583	1693.25
1031.8656	3044.4161	2568.45	1677.85
1031.9758	3045.4505	2559.45	1671.2
1032.0859	3046.4842	2552.6	1662.65
1032.1959	3047.5173	2539.95	1650.3
1032.3059	3048.5498	2530.05	1639.45
1032.4159	3049.5816	2518.45	1627.5
1032.5258	3050.6128	2498.15	1607.3
1032.6357	3051.6434	2491.9	1599.55
1032.7455	3052.6734	2487.15	1596.05
1032.8553	3053.7027	2475.3	1583.75
1032.9651	3054.7314	2456.7	1566.75
1033.0748	3055.7594	2445.35	1557
1033.1845	3056.7868	2434.8	1543.15
1033.2941	3057.8136	2428.8	1538.45
1033.4037	3058.8398	2420.4	1530.4
1033.5132	3059.8653	2414.45	1523.45
1033.6227	3060.8902	2394.15	1505.55
1033.7321	3061.9145	2384.55	1494.15
1033.8415	3062.9381	2379.75	1488.8
1033.9509	3063.9612	2375.1	1469.8
1034.0602	3064.9835	2367.85	1476.3
1034.1694	3066.0053	2346.55	1456.15
1034.2787	3067.0264	2337.5	1447.9
1034.3878	3068.0469	2324.15	1434.15
1034.497	3069.0668	2312.85	1418.95
1034.6061	3070.086	2301.6	1410.2
1034.7151	3071.1046	2280.8	1389.95
1034.8241	3072.1226	2281.55	1387.15
1034.9331	3073.1399	2260.75	1370.55
1035.042	3074.1567	2251.55	1361.15
1035.1508	3075.1727	2238.65	1345.4
1035.2597	3076.1882	2230.95	1341.7
1035.3684	3077.203	2203	1314.15
1035.4772	3078.2173	2191.05	1300.15
1035.5859	3079.2308	2184.1	1292.75
1035.6945	3080.2438	2171.05	1279
1035.8031	3081.2561	2159.9	1271.35
1035.9117	3082.2678	2149.75	1258.85
1036.0202	3083.2789	2142.45	1251.6
1036.1286	3084.2893	2138.8	1248.3
1036.2371	3085.2991	2117.75	1226.25
1036.3454	3086.3083	2110.15	1213.25
1036.4538	3087.3169	2087.35	1195.95
1036.562	3088.3248	2086.15	1195.25
1036.6703	3089.3321	2084.9	1193.6
1036.7785	3090.3388	2068.75	1179.3
1036.8866	3091.3449	2063.15	1174.5
1036.9948	3092.3503	2057.4	1164.95
1037.1028	3093.3551	2044.1	1154.35
1037.2108	3094.3593	2034	1144.4
1037.3188	3095.3629	2034.45	1144.85
1037.4267	3096.3658	2020.9	1129.8
1037.5346	3097.3681	2018.4	1127.5
1037.6425	3098.3698	2012.7	1119.4
1037.7503	3099.3708	2009.4	1112.4
1037.858	3100.3713	1983	1092.25
1037.9657	3101.3711	1984.8	1095.35
1038.0734	3102.3702	2095.5	1073.25
1038.181	3103.3688	1996.15	1103.25
1038.2886	3104.3667	1973.25	1084.3
1038.3961	3105.364	1967.1	1077.9
1038.5036	3106.3607	1957.35	1065.9
1038.611	3107.3568	1947.8	1055.7
1038.7184	3108.3522	1932.15	1042.15
1038.8257	3109.347	1934	1043.9
1038.933	3110.3412	1939.6	1045.4
1039.0403	3111.3348	1917.75	1027.4
1039.1475	3112.3277	1906.95	1019.05
1039.2547	3113.32	1912.6	1022.75
1039.3618	3114.3117	1903	1012.35
1039.4689	3115.3028	1899.5	1008.8
1039.5759	3116.2932	1898.3	1006.85
1039.6829	3117.2831	1887.7	992.15
1039.7898	3118.2723	1876.75	984.75
1039.8967	3119.2608	1867.9	979.45
1040.0035	3120.2488	1872.35	983.25
1040.1103	3121.2361	1865.15	973.3
1040.2171	3122.2229	1860.4	970.95
1040.3238	3123.209	1845.5	954.65
1040.4305	3124.1944	1848.35	960.1
1040.5371	3125.1793	1840.35	947.75
1040.6437	3126.1635	1842	951.9
1040.7502	3127.1471	1833.95	945.75
1040.8567	3128.1301	1821.3	931.25
1040.9631	3129.1125	1824.15	935.05
1041.0695	3130.0942	1818.75	929.1
1041.1759	3131.0753	1823.3	923.65
1041.2822	3132.0558	1806.6	914.6
1041.3884	3133.0357	1799.9	909
1041.4946	3134.015	1792.5	901.15
1041.6008	3134.9936	1792.4	902.2
1041.7069	3135.9716	1810.2	899.35
1041.813	3136.949	1792.95	902.95
1041.919	3137.9258	1791.85	895.65
1042.025	3138.902	1791.25	896.45
1042.1309	3139.8775	1778.95	888.35
1042.2368	3140.8524	1775.2	885.65
1042.3427	3141.8267	1767.4	876.1
1042.4485	3142.8004	1753.9	862.35
1042.5542	3143.7735	1756.5	860.2
1042.6599	3144.7459	1753.55	861.5
1042.7656	3145.7178	1749.1	857.6
1042.8712	3146.689	1738	849.65
1042.9768	3147.6596	1745.75	855.15
1043.0823	3148.6295	1736.1	845.5
1043.1878	3149.5989	1729	837
1043.2932	3150.5676	1721.55	833.15
1043.3986	3151.5357	1713.75	826.6
1043.5039	3152.5032	1715.1	824.4
1043.6092	3153.4701	1709.3	818.6
1043.7145	3154.4364	1705	814.9
1043.8197	3155.402	1701.7	813.05
1043.9248	3156.367	1694.1	802.6
1044.03	3157.3315	1730.7	798.55
1044.135	3158.2952	1685.35	795.3
1044.24	3159.2584	1678.25	789.65
1044.345	3160.221	1679.65	788.15
1044.4499	3161.1829	1666.25	776.35
1044.5548	3162.1442	1663.1	772.9
1044.6596	3163.105	1664.5	774.15
1044.7644	3164.065	1665.85	775.95
1044.8692	3165.0245	1664.75	772.15
1044.9739	3165.9834	1650.95	762.45
1045.0785	3166.9416	1654.8	765.85
1045.1831	3167.8993	1640.9	749.5
1045.2877	3168.8563	1644.25	753.55
1045.3922	3169.8127	1631.65	741.4
1045.4966	3170.7684	1624	733.4
1045.6011	3171.7236	1632.05	741.85
1045.7054	3172.6782	1626.6	737.85
1045.8098	3173.6321	1616.05	724.8
1045.914	3174.5854	1615.8	720.7
1046.0183	3175.5381	1613.3	723.9
1046.1224	3176.4902	1598.45	708.15
1046.2266	3177.4417	1599.55	709.95
1046.3307	3178.3926	1595.85	706.75
1046.4347	3179.3428	1593.35	705.6
1046.5387	3180.2924	1596.1	708.7
1046.6427	3181.2415	1581.65	691.35
1046.7466	3182.1899	1579.75	691.85
1046.8504	3183.1377	1575.6	686.95
1046.9542	3184.0848	1574.2	681.65
1047.058	3185.0314	1572.1	681.1
1047.1617	3185.9773	1566.75	676.6
1047.2654	3186.9227	1560.8	669
1047.369	3187.8674	1561.35	672.5
1047.4726	3188.8115	1558.05	665.55
1047.5761	3189.755	1550.75	660.95
1047.6796	3190.6979	1554.6	666.6
1047.783	3191.6402	1539.25	650.45
1047.8864	3192.5818	1549.35	660.05
1047.9898	3193.5229	1541	636.6
1048.0931	3194.4633	1539.6	649.6
1048.1963	3195.4031	1526.1	635.05
1048.2995	3196.3423	1526.7	636.7
1048.4027	3197.2809	1531.45	642.05
1048.5058	3198.2189	1520.25	630.6
1048.6089	3199.1563	1528.55	632.1
1048.7119	3200.0931	1520.85	632.15
1048.8148	3201.0292	1507.8	618.3
1048.9178	3201.9648	1506.05	615.3
1049.0206	3202.8997	1503.8	611
1049.1235	3203.834	1505.3	616.7
1049.2262	3204.7677	1500.65	611.5
1049.329	3205.7008	1497.85	604.3
1049.4317	3206.6333	1493.8	606.6
1049.5343	3207.5652	1487.15	595.7
1049.6369	3208.4964	1478.8	589.1
1049.7394	3209.4271	1485.8	597.55
1049.8419	3210.3571	1480	589.7
1049.9444	3211.2865	1477.5	587.2
1050.0468	3212.2154	1478.5	589.5
1050.1491	3213.1436	1471.2	580.15
1050.2514	3214.0712	1476.05	579.75
1050.3537	3214.9982	1469.05	579
1050.4559	3215.9246	1463.15	572.9
1050.5581	3216.8503	1464.35	575.55
1050.6602	3217.7755	1454.4	564.15
1050.7623	3218.7001	1454.05	563.9
1050.8643	3219.624	1454.05	565.7
1050.9663	3220.5473	1446.3	555.9
1051.0682	3221.4701	1448.5	558.05
1051.1701	3222.3922	1443.2	550.7
1051.2719	3223.3137	1442.5	550.3
1051.3737	3224.2346	1441.5	549.4
1051.4754	3225.1549	1429.7	541
1051.5771	3226.0746	1426.5	539
1051.6788	3226.9937	1432.05	542.15
1051.7804	3227.9121	1417.85	529.8
1051.8819	3228.83	1425.4	537.05
1051.9834	3229.7473	1419.8	530
1052.0849	3230.6639	1419.85	529.15
1052.1863	3231.5799	1412.45	522.95
1052.2876	3232.4954	1409.95	518.1
1052.3889	3233.4102	1407	517.05
1052.4902	3234.3244	1406.45	517.8
1052.5914	3235.238	1401.95	512.75
1052.6926	3236.151	1418.85	507
1052.7937	3237.0634	1398.2	510.3
1052.8948	3237.9752	1389.85	499.85
1052.9958	3238.8864	1387.15	497.15
1053.0968	3239.797	1393	504.15
1053.1977	3240.7069	1385.3	494.55
1053.2986	3241.6163	1387.6	494.85
1053.3994	3242.5251	1381.75	490.35
1053.5002	3243.4332	1368.65	480.25
1053.6009	3244.3408	1370.55	480.15
1053.7016	3245.2477	1369.4	481.3
1053.8022	3246.154	1366.45	474.2
1053.9028	3247.0598	1370.75	479.4
1054.0034	3247.9649	1358.25	469.85
1054.1039	3248.8694	1358.1	467.85
1054.2043	3249.7733	1355.85	465.65
1054.3047	3250.6766	1359.2	470.35
1054.4051	3251.5793	1357.35	467.8
1054.5054	3252.4814	1346.7	457.8
1054.6056	3253.3829	1342.1	454.3
1054.7058	3254.2838	1336.7	447.75
1054.806	3255.1841	1338.45	450.65
1054.9061	3256.0838	1335.5	446.3
1055.0061	3256.9829	1325.35	436.45
1055.1062	3257.8814	1326.2	435.2
1055.2061	3258.7792	1325.6	434.3
1055.306	3259.6765	1321.95	432.45
1055.4059	3260.5731	1309.05	419.55
1055.5057	3261.4692	1311.7	422.35
1055.6055	3262.3647	1309	418.7
1055.7052	3263.2595	1295.05	407.2
1055.8049	3264.1538	1293.7	403.15
1055.9045	3265.0474	1287.65	398.1
1056.0041	3265.9404	1277.25	389.15
1056.1036	3266.8329	1277.3	389.2
1056.2031	3267.7247	1274.85	375.7
1056.3025	3268.616	1258.8	369.4
1056.4019	3269.5066	1248.65	358.15
1056.5013	3270.3966	1243	351.95
1056.6005	3271.286	1230.4	344.55
