Software Version:	3.9.2.0
Unit SN:	10000200
Spectrometer SN:	6960
Date:	3/6/2024 10:17:13 AM
Data Line Index:	25
Spectral Points:	2048
Integration time (ms):	125
Averages:	20
Delay (ms):	30
Sequence Number:	1
Processing:	dark subtract
Laser Power (mW):	300
Laser Current (mA):	826
Laser Diode Temp (C):	25.1
Laser Case Temp (C):	25.1
System Temp (C):	24.9
Spectrometer Temp (C):	22.4
CCD Temp (C):	0
Secondary Temp (C):	20.007
Heatsink Temp (C):	19.994
CCDPCB Temp (C):	32.283
SecondaryPCB Temp (C):	25.914

Wavelength	RamanShift	Raw Counts	Dark Subtracted
787.061	30.1047	1059	650.65
787.2016	32.3739	1086.5	679.9
787.3422	34.6426	1124.9	716.95
787.4828	36.9109	1163.8	753.2
787.6235	39.1787	1216	802.4
787.7642	41.4461	1269.15	850.95
787.9049	43.7131	1326.35	904.4
788.0456	45.9796	1382.55	958.9
788.1863	48.2456	1444.4	1015.35
788.3271	50.5112	1508.5	1075.8
788.4679	52.7764	1575.85	1140.8
788.6087	55.0411	1635.3	1197.35
788.7496	57.3054	1709.8	1265.1
788.8904	59.5692	1779.5	1332.6
789.0313	61.8326	1860.85	1410.75
789.1722	64.0955	1968.45	1515.7
789.3132	66.3579	2079.75	1622.1
789.4541	68.6199	2224.85	1764.65
789.5951	70.8815	2453.45	1988.1
789.7361	73.1426	2965.45	2494.85
789.8771	75.4032	4285.05	3812.7
790.0181	77.6634	7612.7	7133.85
790.1592	79.9231	16395	15911
790.3003	82.1824	51351.4	50856.85
790.4414	84.4412	65535	65019.8
790.5825	86.6995	65535	64991.15
790.7237	88.9574	65535	64966.95
790.8648	91.2148	65535	64954.2
791.006	93.4717	65535	64947.35
791.1472	95.7282	65535	64941.95
791.2885	97.9842	65535	64937.8
791.4297	100.2398	65535	64931.7
791.571	102.4949	65535	64934.7
791.7123	104.7495	65535	64930.55
791.8536	107.0036	65535	64927.1
791.9949	109.2573	65535	64929.55
792.1363	111.5105	65535	64925.6
792.2777	113.7632	65535	64922.8
792.4191	116.0154	65535	64915
792.5605	118.2672	65535	64920.85
792.7019	120.5185	65535	64918.35
792.8434	122.7693	65535	64916.05
792.9849	125.0197	65535	64911.65
793.1264	127.2696	65535	64905.8
793.2679	129.519	65535	64902
793.4094	131.7679	65535	64902.05
793.551	134.0163	65535	64895.25
793.6926	136.2642	65535	64894.35
793.8342	138.5117	65535	64889
793.9758	140.7587	65535	64890.1
794.1175	143.0052	65535	64887
794.2591	145.2512	65535	64886.55
794.4008	147.4967	65535	64889.15
794.5425	149.7417	65535	64882.5
794.6842	151.9863	65535	64878.3
794.826	154.2304	65535	64876.35
794.9677	156.4739	65535	64871.45
795.1095	158.717	65535	64870.85
795.2513	160.9596	65535	64866.95
795.3931	163.2017	65535	64866.85
795.535	165.4433	65535	64862.65
795.6768	167.6844	65535	64860.45
795.8187	169.925	65535	64857.9
795.9606	172.1651	65535	64856.55
796.1025	174.4047	65535	64850.75
796.2445	176.6439	65535	64850.55
796.3864	178.8825	65535	64848.6
796.5284	181.1206	65535	64842.9
796.6704	183.3582	65535	64840.35
796.8124	185.5954	65535	64838.2
796.9544	187.832	65535	64832.15
797.0965	190.0681	65535	64833.1
797.2386	192.3037	65535	64825.95
797.3806	194.5388	65535	64824.7
797.5228	196.7734	65535	64824.85
797.6649	199.0075	65535	64821.55
797.807	201.2411	65535	64820.5
797.9492	203.4742	65535	64820.65
798.0914	205.7068	65535	64815.1
798.2336	207.9389	65535	64811.6
798.3758	210.1704	65535	64817
798.518	212.4015	65535	64828.4
798.6603	214.632	65535	64832.85
798.8025	216.862	65535	64839.1
798.9448	219.0915	65535	64833.8
799.0871	221.3205	65535	64831
799.2294	223.549	65535	64836.75
799.3718	225.777	65535	64836.4
799.5141	228.0044	65535	64830.5
799.6565	230.2314	65535	64827.35
799.7989	232.4578	65535	64822.35
799.9413	234.6837	65535	64813.8
800.0837	236.909	65535	64813.3
800.2262	239.1339	65535	64787.55
800.3687	241.3582	65535	64802.95
800.5111	243.582	65535	64774.75
800.6536	245.8053	65535	64785.8
800.7961	248.0281	65535	64790.95
800.9387	250.2503	65535	64788.65
801.0812	252.472	65535	64782.75
801.2238	254.6932	65535	64784.2
801.3664	256.9139	65535	64785.2
801.509	259.134	65535	64782.65
801.6516	261.3536	65535	64783.15
801.7942	263.5727	65535	64782.7
801.9369	265.7912	65535	64781.7
802.0795	268.0092	65535	64779.95
802.2222	270.2267	65535	64783.55
802.3649	272.4436	65535	64778.9
802.5076	274.6601	65535	64764.8
802.6504	276.8759	65535	64774.25
802.7931	279.0913	65535	64771.85
802.9359	281.3061	65535	64769.6
803.0787	283.5204	65535	64766.15
803.2215	285.7341	65535	64764.95
803.3643	287.9473	65535	64756.45
803.5071	290.16	65535	64760.4
803.6499	292.3721	65535	64767.7
803.7928	294.5837	65535	64766.2
803.9357	296.7947	65535	64765.95
804.0786	299.0052	65535	64767
804.2215	301.2152	65535	64763.35
804.3644	303.4246	65535	64761.45
804.5074	305.6334	65535	64762.05
804.6503	307.8418	65535	64759.7
804.7933	310.0495	65535	64759.5
804.9363	312.2568	65535	64759.75
805.0793	314.4635	65535	64758.85
805.2223	316.6696	65535	64756.5
805.3653	318.8752	65535	64748.9
805.5084	321.0802	65535	64751.3
805.6514	323.2847	65535	64751.35
805.7945	325.4887	65535	64749.4
805.9376	327.692	65535	64750.55
806.0807	329.8949	65535	64748.7
806.2238	332.0972	65535	64748.65
806.367	334.2989	65535	64744.8
806.5101	336.5001	65535	64743.05
806.6533	338.7007	65535	64743.35
806.7965	340.9008	65535	64740.7
806.9397	343.1003	65535	64743.1
807.0829	345.2992	65535	64739.95
807.2261	347.4976	65535	64736
807.3693	349.6955	65535	64735.1
807.5126	351.8927	65535	64733.3
807.6559	354.0895	65535	64722.25
807.7991	356.2856	65535	64732.45
807.9424	358.4812	65535	64731.2
808.0857	360.6763	65535	64732.45
808.2291	362.8707	65535	64727.85
808.3724	365.0646	65535	64723.1
808.5158	367.258	65535	64724.45
808.6591	369.4508	65535	64721.9
808.8025	371.643	65535	64720.1
808.9459	373.8346	65535	64721.1
809.0893	376.0257	65535	64713.4
809.2327	378.2162	65535	64716.95
809.3762	380.4062	65535	64716.9
809.5196	382.5956	65535	64719
809.6631	384.7844	65535	64722.5
809.8066	386.9726	65535	64723.25
809.9501	389.1603	65535	64724.45
810.0936	391.3474	65535	64684.55
810.2371	393.5339	65535	64724.65
810.3806	395.7199	65535	64723.05
810.5241	397.9052	65535	64719.85
810.6677	400.09	65535	64723.5
810.8113	402.2743	65535	64720.55
810.9548	404.4579	65535	64721.05
811.0984	406.641	65535	64721.45
811.2421	408.8235	65535	64718.7
811.3857	411.0054	65535	64715.35
811.5293	413.1868	65535	64712.1
811.673	415.3675	65535	64707.6
811.8166	417.5477	65535	64704.95
811.9603	419.7273	65535	64704.7
812.104	421.9064	65535	64700.7
812.2477	424.0848	65535	64704.7
812.3914	426.2627	65535	64707.25
812.5351	428.4399	65535	64704.3
812.6788	430.6166	65535	64701.4
812.8226	432.7928	65535	64698.15
812.9663	434.9683	65535	64699.95
813.1101	437.1432	65535	64696.2
813.2539	439.3176	65535	64700.95
813.3977	441.4914	65535	64701.85
813.5415	443.6645	65535	64699.45
813.6853	445.8371	65535	64702.8
813.8291	448.0091	65535	64697.7
813.973	450.1806	65535	64700.75
814.1168	452.3514	65535	64694.5
814.2607	454.5216	65535	64687
814.4046	456.6913	65535	64695.4
814.5485	458.8603	65535	64697.15
814.6924	461.0288	65535	64697.1
814.8363	463.1967	65535	64695.6
814.9802	465.3639	65535	64695.8
815.1241	467.5306	65535	64694.9
815.2681	469.6967	65535	64697.05
815.412	471.8622	65535	64694.3
815.556	474.0271	65535	64693.95
815.7	476.1914	65535	64691
815.844	478.3551	65535	64691.5
815.988	480.5182	65535	64691.9
816.132	482.6807	65535	64693.65
816.276	484.8426	65535	64690.7
816.4201	487.0039	65535	64691.85
816.5641	489.1647	65535	64688.95
816.7082	491.3248	65535	64689.5
816.8522	493.4843	65535	64688.6
816.9963	495.6432	65535	64691.1
817.1404	497.8015	65535	64686.7
817.2845	499.9592	65535	64686
817.4286	502.1163	65535	64684
817.5727	504.2728	65535	64682.95
817.7168	506.4287	65535	64687.25
817.861	508.5839	65535	64686.15
818.0051	510.7386	65535	64684.65
818.1493	512.8927	65535	64678.9
818.2935	515.0461	65535	64682.15
818.4377	517.199	65535	64682.1
818.5818	519.3512	65535	64681.3
818.726	521.5029	65535	64675.9
818.8703	523.6539	65535	64680.65
819.0145	525.8043	65535	64676.85
819.1587	527.9541	65535	64679.55
819.303	530.1033	65535	64678.6
819.4472	532.2519	65535	64679.75
819.5915	534.3999	65535	64677.2
819.7357	536.5472	65535	64675.15
819.88	538.694	65535	64675.6
820.0243	540.8401	65535	64674.55
820.1686	542.9856	65535	64672.7
820.3129	545.1305	65535	64673.85
820.4572	547.2748	65535	64671.35
820.6016	549.4185	65535	64673.8
820.7459	551.5615	65535	64671.8
820.8902	553.704	65535	64673
821.0346	555.8458	65535	64677.1
821.1789	557.987	65535	64674.9
821.3233	560.1276	65535	64674.2
821.4677	562.2675	65535	64671.7
821.6121	564.4069	65535	64673
821.7565	566.5456	65535	64672.15
821.9009	568.6837	65535	64670.6
822.0453	570.8212	65535	64675.1
822.1897	572.958	65535	64669.8
822.3342	575.0942	65535	64675.95
822.4786	577.2299	65535	64669.5
822.6231	579.3648	65535	64673.85
822.7675	581.4992	65535	64676.4
822.912	583.6329	65535	64672.1
823.0565	585.766	65535	64672.05
823.201	587.8985	65535	64673.9
823.3454	590.0304	65535	64648.3
823.4899	592.1616	65535	64667.05
823.6345	594.2922	65535	64668.9
823.779	596.4222	65535	64665.25
823.9235	598.5515	65535	64665
824.068	600.6802	65535	64666.9
824.2126	602.8083	65535	64668.2
824.3571	604.9358	65535	64662.75
824.5017	607.0626	65535	64668.55
824.6462	609.1888	65535	64664.4
824.7908	611.3144	65535	64664.1
824.9354	613.4393	65535	64665.3
825.08	615.5636	65535	64665.45
825.2246	617.6873	65535	64667.05
825.3692	619.8103	65535	64663.25
825.5138	621.9327	65535	64660.3
825.6584	624.0544	65535	64664.4
825.803	626.1756	65535	64662.4
825.9477	628.2961	65535	64663.6
826.0923	630.4159	65535	64662.1
826.237	632.5351	65535	64661.7
826.3816	634.6537	65535	64660.45
826.5263	636.7716	65535	64661
826.6709	638.8889	65535	64658.1
826.8156	641.0056	65535	64659.8
826.9603	643.1216	65535	64657.7
827.105	645.237	65535	64655.4
827.2497	647.3518	65535	64658.8
827.3944	649.4659	65535	64658.6
827.5391	651.5793	65535	64659.5
827.6838	653.6922	65535	64661.5
827.8285	655.8043	65535	64657.8
827.9733	657.9159	65535	64655.95
828.118	660.0268	65535	64658.95
828.2627	662.137	65535	64658.65
828.4075	664.2466	65535	64658.45
828.5522	666.3556	65535	64658.3
828.697	668.4639	65535	64652.85
828.8418	670.5716	65535	64657.25
828.9865	672.6786	65535	64654.9
829.1313	674.785	65535	64652.85
829.2761	676.8907	65535	64653.9
829.4209	678.9958	65535	64657.25
829.5657	681.1002	65535	64654.45
829.7105	683.204	65535	64650.7
829.8553	685.3072	65535	64649.55
830.0001	687.4097	65535	64652.75
830.1449	689.5115	65535	64649.25
830.2898	691.6127	65535	64654.05
830.4346	693.7132	65535	64652.1
830.5794	695.8131	65535	64630.95
830.7243	697.9123	65535	64649.5
830.8691	700.0109	65535	64650.6
831.014	702.1089	65535	64652.65
831.1588	704.2061	65535	64650.2
831.3037	706.3028	65535	64650
831.4486	708.3987	65535	64651.95
831.5935	710.4941	65535	64650.2
831.7383	712.5887	65535	64647.8
831.8832	714.6827	65535	64647.5
832.0281	716.7761	65535	64651.25
832.173	718.8688	65535	64649.8
832.3179	720.9608	65535	64648.25
832.4628	723.0522	65535	64643.2
832.6077	725.1429	65535	64648.35
832.7527	727.233	65535	64649.25
832.8976	729.3224	65535	64648.1
833.0425	731.4112	65535	64648.85
833.1874	733.4993	65535	64647.05
833.3324	735.5867	65535	64648.2
833.4773	737.6735	65535	64646.2
833.6222	739.7596	65535	64648.45
833.7672	741.845	65535	64646.4
833.9122	743.9298	65535	64647
834.0571	746.014	65535	64648.4
834.2021	748.0974	65535	64646.1
834.347	750.1802	65535	64645.5
834.492	752.2624	65535	64647.55
834.637	754.3439	65535	64645.55
834.782	756.4247	65535	64636
834.9269	758.5048	65535	64645.75
835.0719	760.5843	65535	64645.2
835.2169	762.6631	65535	64645
835.3619	764.7413	65535	64648.95
835.5069	766.8188	65535	64641.9
835.6519	768.8956	65535	64643.4
835.7969	770.9718	65535	64648.55
835.9419	773.0473	65535	64645.2
836.0869	775.1221	65535	64647.55
836.232	777.1962	65535	64642.1
836.377	779.2697	65535	64643.35
836.522	781.3426	65535	64625.6
836.667	783.4147	65535	64645.4
836.8121	785.4862	65535	64646.35
836.9571	787.557	65535	64642.65
837.1021	789.6271	65535	64645.4
837.2472	791.6966	65535	64645.35
837.3922	793.7654	65535	64639.7
837.5373	795.8335	65535	64643.2
837.6823	797.901	65535	64643.4
837.8274	799.9678	65535	64640.75
837.9724	802.0339	65535	64645.1
838.1175	804.0993	65535	64634.65
838.2626	806.1641	65535	64643.4
838.4076	808.2282	65535	64645.35
838.5527	810.2916	65535	64641.4
838.6978	812.3544	65535	64645
838.8428	814.4164	65535	64644.25
838.9879	816.4778	65535	64642.55
839.133	818.5385	65535	64643.75
839.2781	820.5986	65535	64644.5
839.4232	822.658	65535	64640.15
839.5682	824.7166	65535	64646.05
839.7133	826.7747	65535	64643.1
839.8584	828.832	65535	64640.35
840.0035	830.8886	65535	64641.15
840.1486	832.9446	65535	64640.05
840.2937	834.9999	65535	64641.95
840.4388	837.0545	65535	64636.45
840.5839	839.1085	65535	64643.05
840.729	841.1618	65535	64634.85
840.8741	843.2143	65535	64642.85
841.0192	845.2662	65535	64643.2
841.1643	847.3175	65535	64642.75
841.3095	849.368	65535	64641.05
841.4546	851.4179	65535	64640.9
841.5997	853.467	65535	64639.2
841.7448	855.5155	65535	64640.2
841.8899	857.5633	65535	64643.95
842.0351	859.6105	65535	64641.05
842.1802	861.6569	65535	64639.65
842.3253	863.7027	65535	64637.2
842.4704	865.7478	65535	64636.75
842.6156	867.7922	65535	64637.35
842.7607	869.8359	65535	64637.5
842.9058	871.8789	65535	64639.05
843.0509	873.9212	65535	64609.25
843.1961	875.9629	65535	64639.5
843.3412	878.0039	65535	64639.2
843.4863	880.0441	65535	64637.9
843.6315	882.0837	65535	64640.2
843.7766	884.1226	65535	64640.2
843.9218	886.1609	65535	64640.45
844.0669	888.1984	65535	64640.3
844.212	890.2352	65535	64641
844.3572	892.2714	65535	64633.9
844.5023	894.3069	65535	64637.55
844.6475	896.3416	65535	64639
844.7926	898.3757	65535	64638.7
844.9377	900.4091	65535	64636.95
845.0829	902.4418	65535	64633.2
845.228	904.4739	65535	64635.85
845.3732	906.5052	65535	64636.45
845.5183	908.5358	65535	64639.75
845.6635	910.5658	65535	64635.75
845.8086	912.595	65535	64638
845.9538	914.6236	65535	64636.1
846.0989	916.6515	65535	64637.3
846.2441	918.6786	65535	64634.95
846.3892	920.7051	65535	64637.15
846.5344	922.7309	65535	64639.1
846.6795	924.756	65535	64638
846.8246	926.7804	65535	64636.2
846.9698	928.8041	65535	64630.25
847.1149	930.8272	65535	64637.9
847.2601	932.8495	65535	64634.65
847.4052	934.8711	65535	64635.75
847.5504	936.892	65535	64637.3
847.6955	938.9123	65535	64635.95
847.8407	940.9318	65535	64637.7
847.9858	942.9506	65535	64635.5
848.131	944.9688	65535	64636.8
848.2761	946.9862	65535	64637.95
848.4213	949.003	65535	64634.45
848.5664	951.019	65535	64636
848.7115	953.0344	65535	64634
848.8567	955.0491	65535	64636.75
849.0018	957.063	65535	64638.1
849.147	959.0763	65535	64639.9
849.2921	961.0888	65535	64634.2
849.4373	963.1007	65535	64638.15
849.5824	965.1119	65535	64636.95
849.7275	967.1223	65535	64636.65
849.8727	969.1321	65535	64640.35
850.0178	971.1412	65535	64638.45
850.1629	973.1495	65535	64636.25
850.3081	975.1572	65535	64605.8
850.4532	977.1641	65535	64635.5
850.5983	979.1704	65535	64635.1
850.7435	981.1759	65535	64632.85
850.8886	983.1808	65535	64635
851.0337	985.1849	65535	64625.9
851.1788	987.1884	65535	64634.05
851.324	989.1911	65535	64636.25
851.4691	991.1932	65535	64634.8
851.6142	993.1945	65535	64635.05
851.7593	995.1951	65535	64636.95
851.9045	997.1951	65535	64631.45
852.0496	999.1943	65535	64637.45
852.1947	1001.1928	65535	64636.3
852.3398	1003.1906	65535	64637.7
852.4849	1005.1877	65535	64635.5
852.63	1007.1841	65535	64639.95
852.7751	1009.1798	65535	64637.6
852.9202	1011.1748	65535	64637.45
853.0653	1013.1691	65535	64635.55
853.2104	1015.1627	65535	64634.65
853.3555	1017.1556	65535	64635.1
853.5006	1019.1477	65535	64634.9
853.6457	1021.1392	65535	64639.35
853.7908	1023.1299	65535	64639.25
853.9359	1025.12	65535	64635.8
854.081	1027.1093	65535	64641.8
854.2261	1029.0979	65535	64641.7
854.3712	1031.0859	65535	64640.2
854.5163	1033.0731	65535	64635.4
854.6613	1035.0596	65535	64639.1
854.8064	1037.0454	65535	64635.55
854.9515	1039.0304	65535	64637.7
855.0965	1041.0148	65535	64636.8
855.2416	1042.9985	65535	64635.5
855.3867	1044.9814	65535	64636.05
855.5317	1046.9636	65535	64635.95
855.6768	1048.9452	65535	64638.65
855.8219	1050.926	65535	64639.35
855.9669	1052.9061	65535	64639.2
856.112	1054.8855	65535	64635.15
856.257	1056.8642	65535	64636
856.4021	1058.8421	65535	64634.65
856.5471	1060.8194	65535	64635.3
856.6921	1062.7959	65535	64637.1
856.8372	1064.7717	65535	64636.1
856.9822	1066.7469	65535	64634.6
857.1272	1068.7213	65535	64635.7
857.2723	1070.695	65535	64636.55
857.4173	1072.6679	65535	64636.25
857.5623	1074.6402	65535	64637.6
857.7073	1076.6117	65535	64633.45
857.8523	1078.5826	65535	64633.05
857.9973	1080.5527	65535	64636.35
858.1423	1082.5221	65535	64635.15
858.2873	1084.4908	65535	64637.7
858.4323	1086.4587	65535	64635.75
858.5773	1088.426	65535	64637.45
858.7223	1090.3925	65535	64632.25
858.8673	1092.3584	65535	64636.6
859.0123	1094.3235	65535	64639.25
859.1573	1096.2879	65535	64634
859.3022	1098.2515	65535	64637.85
859.4472	1100.2145	65535	64635.7
859.5922	1102.1767	65535	64633.9
859.7371	1104.1382	65535	64636.65
859.8821	1106.099	65535	64634.9
860.027	1108.0591	65535	64637.1
860.172	1110.0185	65535	64632.8
860.3169	1111.9771	65535	64635.7
860.4619	1113.9351	65535	64635.8
860.6068	1115.8923	65535	64636.9
860.7517	1117.8488	65535	64634.25
860.8967	1119.8045	65535	64635.05
861.0416	1121.7596	65535	64633.85
861.1865	1123.7139	65535	64641.1
861.3314	1125.6675	65535	64636.2
861.4763	1127.6204	65535	64639.25
861.6212	1129.5726	65535	64636.05
861.7661	1131.524	65535	64638.35
861.911	1133.4748	65535	64637
862.0559	1135.4248	65535	64633.7
862.2008	1137.3741	65535	64639.05
862.3457	1139.3226	65535	64636.15
862.4905	1141.2705	65535	64640.55
862.6354	1143.2176	65535	64632.15
862.7803	1145.164	65535	64634.25
862.9251	1147.1097	65535	64635.2
863.07	1149.0546	65535	64635.4
863.2148	1150.9989	65535	64636.25
863.3597	1152.9424	65535	64635.45
863.5045	1154.8852	65535	64637.1
863.6493	1156.8272	65535	64639.3
863.7942	1158.7686	65535	64631.05
863.939	1160.7092	65535	64636.25
864.0838	1162.6491	65535	64634.6
864.2286	1164.5883	65535	64637.25
864.3734	1166.5267	65535	64634.75
864.5182	1168.4644	65535	64636.1
864.663	1170.4014	65535	64630.45
864.8078	1172.3377	65535	64637.2
864.9526	1174.2732	65535	64635.1
865.0974	1176.2081	65535	64638.15
865.2421	1178.1421	65535	64635.8
865.3869	1180.0755	65535	64636.2
865.5317	1182.0082	65535	64636.55
865.6764	1183.9401	65535	64636.85
865.8212	1185.8713	65535	64640.05
865.9659	1187.8017	65535	64639
866.1106	1189.7315	65535	64640.45
866.2554	1191.6605	65535	64612
866.4001	1193.5888	65535	64637.75
866.5448	1195.5163	65535	64639.15
866.6895	1197.4432	65535	64636.75
866.8342	1199.3693	65535	64636.8
866.9789	1201.2947	65535	64633.25
867.1236	1203.2193	65535	64639.4
867.2683	1205.1432	65535	64636.05
867.413	1207.0664	65535	64636.65
867.5576	1208.9889	65535	64634.95
867.7023	1210.9106	65535	64637.05
867.847	1212.8316	65535	64637.85
867.9916	1214.7519	65535	64629.6
868.1363	1216.6715	65535	64638.15
868.2809	1218.5903	65535	64637.35
868.4255	1220.5084	65535	64640.8
868.5701	1222.4257	65535	64637.15
868.7148	1224.3424	65535	64638.05
868.8594	1226.2583	65535	64631.3
869.004	1228.1735	65535	64633.55
869.1486	1230.0879	65535	64635.95
869.2932	1232.0016	65535	64637.4
869.4377	1233.9146	65535	64636.55
869.5823	1235.8269	65535	64638.65
869.7269	1237.7384	65535	64637.6
869.8715	1239.6492	65535	64640.15
870.016	1241.5592	65535	64635.65
870.1606	1243.4686	65535	64636.65
870.3051	1245.3772	65535	64637.5
870.4496	1247.285	65535	64638.4
870.5941	1249.1922	65535	64636.8
870.7387	1251.0986	65535	64640.55
870.8832	1253.0042	65535	64639.7
871.0277	1254.9092	65535	64635.45
871.1722	1256.8134	65535	64639.25
871.3167	1258.7169	65535	64637.35
871.4611	1260.6196	65535	64638.45
871.6056	1262.5216	65535	64635.05
871.7501	1264.4229	65535	64638.3
871.8945	1266.3234	65535	64637.25
872.039	1268.2232	65535	64636.45
872.1834	1270.1223	65535	64636.55
872.3278	1272.0207	65535	64636.6
872.4723	1273.9183	65535	64631.1
872.6167	1275.8151	65535	64638.45
872.7611	1277.7113	65535	64637.4
872.9055	1279.6067	65535	64638.15
873.0499	1281.5014	65535	64636.6
873.1943	1283.3953	65535	64637.55
873.3386	1285.2885	65535	64637.9
873.483	1287.181	65535	64635.65
873.6274	1289.0727	65535	64638.4
873.7717	1290.9637	65535	64638.6
873.9161	1292.854	65535	64640.3
874.0604	1294.7435	65535	64637.75
874.2047	1296.6323	65535	64638.85
874.349	1298.5204	65535	64634.25
874.4933	1300.4077	65535	64638.15
874.6376	1302.2943	65535	64636.7
874.7819	1304.1802	65535	64638.2
874.9262	1306.0653	65535	64636.45
875.0705	1307.9497	65535	64637.4
875.2147	1309.8333	65535	64639.2
875.359	1311.7162	65535	64636.55
875.5032	1313.5984	65535	64635.85
875.6475	1315.4798	65535	64625.05
875.7917	1317.3605	65535	64622.95
875.9359	1319.2405	65535	64632.65
876.0801	1321.1197	65535	64636.05
876.2243	1322.9982	65535	64630.5
876.3685	1324.876	65535	64638.3
876.5127	1326.753	65535	64638.45
876.6569	1328.6293	65535	64634.6
876.801	1330.5048	65535	64636.35
876.9452	1332.3796	65535	64639.35
877.0893	1334.2537	65535	64611.1
877.2335	1336.127	65535	64638.4
877.3776	1337.9996	65535	64637.15
877.5217	1339.8714	65535	64638.3
877.6658	1341.7426	65535	64592.65
877.8099	1343.6129	65535	64635.6
877.954	1345.4826	65535	64637.4
878.0981	1347.3515	65535	64634.25
878.2422	1349.2196	65535	64637.25
878.3862	1351.087	65535	64639.6
878.5303	1352.9537	65535	64638
878.6743	1354.8197	65535	64636.5
878.8184	1356.6849	65535	64637.65
878.9624	1358.5493	65535	64639.05
879.1064	1360.4131	65535	64638.8
879.2504	1362.276	65535	64640.6
879.3944	1364.1383	65535	64638.85
879.5384	1365.9998	65535	64630.4
879.6823	1367.8606	65535	64638.6
879.8263	1369.7206	65535	64637.35
879.9702	1371.5799	65535	64633.4
880.1142	1373.4384	65535	64639.4
880.2581	1375.2962	65535	64636.95
880.402	1377.1533	65535	64639.45
880.5459	1379.0096	65535	64638.25
880.6898	1380.8652	65535	64638.5
880.8337	1382.7201	65535	64637.9
880.9776	1384.5742	65535	64638.7
881.1215	1386.4275	65535	64638.25
881.2653	1388.2802	65535	64640.1
881.4092	1390.132	65535	64636.2
881.553	1391.9832	65535	64636.65
881.6968	1393.8336	65535	64636.7
881.8406	1395.6832	65535	64637.1
881.9844	1397.5322	65535	64639.55
882.1282	1399.3803	65535	64632.05
882.272	1401.2278	65535	64637.7
882.4158	1403.0745	65535	64639.7
882.5595	1404.9204	65535	64639.5
882.7033	1406.7656	65535	64637.75
882.847	1408.6101	65535	64636.85
882.9908	1410.4538	65535	64638.55
883.1345	1412.2968	65535	64637.1
883.2782	1414.139	65535	64637.45
883.4219	1415.9805	65535	64637.3
883.5656	1417.8213	65535	64631.5
883.7092	1419.6613	65535	64638.65
883.8529	1421.5006	65535	64636.45
883.9965	1423.3391	65535	64638.9
884.1402	1425.1769	65535	64637.75
884.2838	1427.0139	65535	64637.85
884.4274	1428.8502	65535	64635.95
884.571	1430.6858	65535	64637.7
884.7146	1432.5206	65535	64638.75
884.8582	1434.3547	65535	64637.65
885.0018	1436.188	65535	64636.95
885.1453	1438.0206	65535	64636.75
885.2889	1439.8524	65535	64637.65
885.4324	1441.6835	65535	64639.1
885.5759	1443.5139	65535	64636.65
885.7194	1445.3435	65535	64637.3
885.8629	1447.1724	65535	64639.1
886.0064	1449.0005	65535	64636.7
886.1499	1450.8279	65535	64636.7
886.2933	1452.6545	65535	64638.5
886.4368	1454.4804	65535	64639.05
886.5802	1456.3056	65535	64633.3
886.7237	1458.13	65535	64638.25
886.8671	1459.9536	65535	64638.2
887.0105	1461.7766	65535	64641.4
887.1539	1463.5987	65535	64637.7
887.2972	1465.4202	65535	64639.15
887.4406	1467.2409	65535	64640.15
887.584	1469.0608	65535	64640.8
887.7273	1470.88	65535	64638.6
887.8706	1472.6984	65535	64636.5
888.0139	1474.5161	65535	64637.5
888.1572	1476.3331	65535	64640.2
888.3005	1478.1493	65535	64638.2
888.4438	1479.9648	65535	64642.9
888.5871	1481.7795	65535	64637
888.7303	1483.5935	65535	64637.3
888.8736	1485.4067	65535	64640.3
889.0168	1487.2192	65535	64639.1
889.16	1489.031	65535	64637.5
889.3032	1490.842	65535	64640.45
889.4464	1492.6522	65535	64638.35
889.5896	1494.4618	65535	64637.95
889.7327	1496.2705	65535	64638.8
889.8759	1498.0785	65535	64638.35
890.019	1499.8858	65535	64640.95
890.1622	1501.6924	65535	64640.95
890.3053	1503.4981	65535	64641.6
890.4484	1505.3032	65535	64637.9
890.5914	1507.1075	65535	64637.7
890.7345	1508.911	65535	64638.75
890.8776	1510.7138	65535	64638.4
891.0206	1512.5159	65535	64639.9
891.1637	1514.3172	65535	64640.05
891.3067	1516.1178	65535	64642.55
891.4497	1517.9176	65535	64638.25
891.5927	1519.7166	65535	64641.8
891.7357	1521.515	65535	64634.8
891.8786	1523.3126	65535	64638.75
892.0216	1525.1094	65535	64639.3
892.1645	1526.9055	65535	64641.75
892.3074	1528.7008	65535	64640.95
892.4503	1530.4954	65535	64640.9
892.5932	1532.2893	65535	64642.25
892.7361	1534.0824	65535	64636.3
892.879	1535.8747	65535	64639.2
893.0218	1537.6663	65535	64638.9
893.1647	1539.4572	65535	64639.5
893.3075	1541.2473	65535	64641.4
893.4503	1543.0367	65535	64641.35
893.5931	1544.8253	65535	64637.75
893.7359	1546.6132	65535	64637.55
893.8787	1548.4003	65535	64633.1
894.0214	1550.1867	65535	64630
894.1642	1551.9723	65535	64636.6
894.3069	1553.7572	65535	64640.15
894.4496	1555.5414	65535	64640.9
894.5923	1557.3247	65535	64642.15
894.735	1559.1074	65535	64641.3
894.8777	1560.8893	65535	64640.3
895.0204	1562.6705	65535	64643.1
895.163	1564.4509	65535	64640.8
895.3056	1566.2305	65535	64643.6
895.4482	1568.0094	65535	64643.8
895.5908	1569.7876	65535	64642.65
895.7334	1571.565	65535	64639.1
895.876	1573.3417	65535	64642.7
896.0186	1575.1176	65535	64641
896.1611	1576.8928	65535	64641.95
896.3036	1578.6672	65535	64644.85
896.4461	1580.4409	65535	64646.9
896.5886	1582.2138	65535	64642.95
896.7311	1583.986	65535	64642.2
896.8736	1585.7575	65535	64645
897.0161	1587.5282	65535	64642.65
897.1585	1589.2981	65535	64644.65
897.3009	1591.0673	65535	64642.75
897.4433	1592.8358	65535	64643.3
897.5857	1594.6035	65535	64640.9
897.7281	1596.3704	65535	64642.2
897.8705	1598.1366	65535	64643.95
898.0128	1599.9021	65535	64643.5
898.1551	1601.6668	65535	64641
898.2975	1603.4308	65535	64639.8
898.4398	1605.194	65535	64637.35
898.5821	1606.9564	65535	64644.2
898.7243	1608.7182	65535	64639.5
898.8666	1610.4791	65535	64644.6
899.0088	1612.2394	65535	64644.5
899.1511	1613.9988	65535	64644.2
899.2933	1615.7576	65535	64643.4
899.4355	1617.5156	65535	64639
899.5776	1619.2728	65535	64642.8
899.7198	1621.0293	65535	64643.65
899.862	1622.785	65535	64638.75
900.0041	1624.54	65535	64641.6
900.1462	1626.2942	65535	64644.1
900.2883	1628.0477	65535	64643.3
900.4304	1629.8005	65535	64641.1
900.5725	1631.5525	65535	64642.95
900.7145	1633.3037	65535	64644.4
900.8566	1635.0542	65535	64644.8
900.9986	1636.804	65535	64642.45
901.1406	1638.553	65535	64561.25
901.2826	1640.3013	65535	64643.45
901.4245	1642.0488	65532.95	64642
901.5665	1643.7955	65535	64645.7
901.7085	1645.5416	65535	64644.7
901.8504	1647.2868	65519.6	64630
901.9923	1649.0313	65535	64644.15
902.1342	1650.7751	65533.8	64639.7
902.2761	1652.5181	65519.05	64629.2
902.4179	1654.2604	65522.6	64630.85
902.5598	1656.0019	65522.75	64631.45
902.7016	1657.7427	65511	64622.5
902.8434	1659.4828	65535	64645.35
902.9852	1661.222	65492.9	64599.25
903.127	1662.9606	65534.45	64644.45
903.2687	1664.6984	65487	64597.2
903.4105	1666.4354	65519.2	64629.45
903.5522	1668.1717	65474.9	64586.05
903.6939	1669.9072	65293.35	64405
903.8356	1671.642	65308.25	64416.4
903.9773	1673.3761	65283.7	64394.8
904.119	1675.1094	65257.3	64368.15
904.2606	1676.8419	65083.2	64194.25
904.4022	1678.5737	65164.5	64274.7
904.5439	1680.3048	65102	64211.2
904.6855	1682.0351	65006.3	64116.05
904.827	1683.7646	64957.4	64063.6
904.9686	1685.4934	65052.9	64164.05
905.1101	1687.2215	64758.6	63868.7
905.2517	1688.9488	65014.9	64124.45
905.3932	1690.6754	64516.95	63628.55
905.5347	1692.4012	64786.15	63895.9
905.6761	1694.1263	64833.2	63944.3
905.8176	1695.8506	64578.75	63686.55
905.9591	1697.5742	64645.4	63755.55
906.1005	1699.297	64577.45	63688.6
906.2419	1701.0191	64633.35	63745.3
906.3833	1702.7404	64315.85	63429.05
906.5246	1704.461	64198.7	63308.65
906.666	1706.1808	64422.4	63531.05
906.8073	1707.8999	64276.9	63388.15
906.9487	1709.6182	64185.15	63297.05
907.09	1711.3358	64185.55	63295.8
907.2313	1713.0527	64156.1	63267.75
907.3725	1714.7688	64197.65	63303.1
907.5138	1716.4841	63674.4	62785.2
907.655	1718.1987	63845.4	62951.6
907.7962	1719.9126	63726	62838.25
907.9374	1721.6257	63898.15	63007.4
908.0786	1723.338	63882.05	62991.85
908.2198	1725.0496	63232.3	62341.05
908.3609	1726.7605	63337.7	62447.05
908.502	1728.4706	63107.05	62215.55
908.6431	1730.18	63431.8	62541.7
908.7842	1731.8886	63080.8	62191.4
908.9253	1733.5964	62901	62005.9
909.0664	1735.3036	63248.95	62356.5
909.2074	1737.0099	62971.35	62083.5
909.3484	1738.7156	62723.55	61834.65
909.4894	1740.4204	62658.7	61767.6
909.6304	1742.1246	62781.35	61889.4
909.7714	1743.8279	62830.65	61941.1
909.9123	1745.5306	62828.8	61938.2
910.0532	1747.2325	62042.7	61155.15
910.1941	1748.9336	62084.15	61195.7
910.335	1750.634	62258.4	61368.55
910.4759	1752.3336	62486.45	61597
910.6168	1754.0325	61916.55	61028.75
910.7576	1755.7307	62398	61511.9
910.8984	1757.4281	61723.95	60835.5
911.0392	1759.1247	62195.3	61296.1
911.18	1760.8206	61506.2	60612.55
911.3208	1762.5158	61601.75	60708.25
911.4615	1764.2102	61724	60834.35
911.6022	1765.9039	61548.2	60659.4
911.7429	1767.5968	61387.45	60499.35
911.8836	1769.289	61273.2	60383.15
912.0243	1770.9804	61440.25	60551.7
912.1649	1772.6711	61307.8	60419.5
912.3056	1774.361	61139.6	60249.15
912.4462	1776.0502	61123.7	60235.1
912.5868	1777.7386	60609.95	59718.7
912.7274	1779.4263	60892.95	60004.1
912.8679	1781.1132	60890.45	60002.4
913.0084	1782.7994	60717.65	59827.4
913.149	1784.4849	60748.55	59861.95
913.2895	1786.1696	60058.6	59163.9
913.4299	1787.8535	60420.4	59532.8
913.5704	1789.5367	60533.05	59645.6
913.7108	1791.2192	60129.45	59241.05
913.8513	1792.9009	59897	58980.7
913.9917	1794.5818	60111.3	59221.65
914.132	1796.2621	59763.35	58877.75
914.2724	1797.9415	59785.9	58897.45
914.4128	1799.6202	59740.95	58853.15
914.5531	1801.2982	59756.55	58867.1
914.6934	1802.9755	59341.5	58451.75
914.8337	1804.6519	59201.65	58311.7
914.9739	1806.3277	59720.8	58833.7
915.1142	1808.0027	58726.05	57837.85
915.2544	1809.6769	59113.15	58225.6
915.3946	1811.3504	59224.4	58334.25
915.5348	1813.0231	58385.25	57496.75
915.675	1814.6951	58881	57991.3
915.8151	1816.3664	58564.75	57676.45
915.9553	1818.0369	58606.7	57717.15
916.0954	1819.7067	58313.9	57427.65
916.2355	1821.3757	58758.7	57869.25
916.3755	1823.044	58070.55	57181.65
916.5156	1824.7115	57702.6	56814.1
916.6556	1826.3783	57929.65	57041
916.7956	1828.0443	57947.7	57059.15
916.9356	1829.7096	57680.8	56791.2
917.0756	1831.3741	57128.65	56236.95
917.2155	1833.0379	57399	56510.95
917.3555	1834.701	57385.25	56495.5
917.4954	1836.3633	56959.5	56072.95
917.6353	1838.0248	57175.45	56285.95
917.7751	1839.6856	56976.1	56086.3
917.915	1841.3457	56579.9	55692.55
918.0548	1843.005	57015.25	56127.45
918.1946	1844.6636	56714.35	55827.5
918.3344	1846.3214	56077.1	55188.65
918.4742	1847.9785	56209.15	55323.7
918.6139	1849.6349	56130.85	55242.4
918.7537	1851.2904	56542.3	55646
918.8934	1852.9453	55790.75	54902.9
919.0331	1854.5994	55990.5	55100.35
919.1727	1856.2528	56026.9	55132.7
919.3124	1857.9054	55614.35	54724.25
919.452	1859.5572	55417.7	54531.15
919.5916	1861.2083	55591.6	54704
919.7312	1862.8587	56019.05	55130.2
919.8708	1864.5084	54832.65	53944.75
920.0103	1866.1572	55276.95	54391.35
920.1498	1867.8054	54690.55	53801.75
920.2893	1869.4528	54987.3	54098.65
920.4288	1871.0994	54495.9	53607.9
920.5683	1872.7453	54465.7	53576.75
920.7077	1874.3905	54641.25	53746.1
920.8471	1876.0349	54152.4	53262.9
920.9865	1877.6786	54432.7	53542.75
921.1259	1879.3215	54078.65	53191.8
921.2653	1880.9637	54419.6	53529.15
921.4046	1882.6051	53973.1	53086.2
921.5439	1884.2458	53736	52845.2
921.6832	1885.8858	53464.75	52577.05
921.8225	1887.525	53702.15	52813.75
921.9617	1889.1634	53511.7	52622.75
922.101	1890.8011	53244.4	52355.55
922.2402	1892.4381	52801.95	51914.6
922.3794	1894.0743	53268.75	52381.85
922.5185	1895.7098	52930.65	52044.15
922.6577	1897.3446	52646.45	51759.5
922.7968	1898.9786	52738.75	51847.3
922.9359	1900.6118	52460.4	51571.25
923.075	1902.2443	52229.4	51341.15
923.214	1903.8761	52341.1	51454.2
923.3531	1905.5071	52030.3	51140.65
923.4921	1907.1374	51501.05	50611.8
923.6311	1908.7669	51673.8	50786.7
923.77	1910.3957	51757.15	50869.9
923.909	1912.0237	51253.1	50365.65
924.0479	1913.651	51133.9	50244.25
924.1868	1915.2776	50972.95	50088.05
924.3257	1916.9034	50889.05	50002.85
924.4646	1918.5285	50658.25	49772.95
924.6034	1920.1528	50491.85	49602.25
924.7422	1921.7764	50365.95	49477.95
924.881	1923.3992	50220.05	49332.85
925.0198	1925.0213	49956.25	49067.55
925.1586	1926.6427	49609.65	48721.65
925.2973	1928.2633	49666.7	48700.95
925.436	1929.8832	49527.45	48640
925.5747	1931.5023	49342.55	48455.75
925.7134	1933.1207	49006.5	48118.05
925.852	1934.7383	49099.9	48210.65
925.9906	1936.3552	48791.5	47905.55
926.1292	1937.9714	48769.75	47880.75
926.2678	1939.5868	48614.7	47726.05
926.4064	1941.2015	48234.85	47347.6
926.5449	1942.8154	48012.3	47125.3
926.6834	1944.4286	47979.65	47093.15
926.8219	1946.041	47901.95	46995.85
926.9604	1947.6528	47555.75	46662.1
927.0988	1949.2637	47431.1	46546.4
927.2372	1950.8739	47237.15	46349.25
927.3756	1952.4834	47195.75	46309.15
927.514	1954.0921	47076.4	46189.5
927.6523	1955.7001	46787.25	45896.2
927.7907	1957.3074	46807.25	45920.1
927.929	1958.9139	46500.55	45612.9
928.0673	1960.5197	46499.1	45610.25
928.2055	1962.1247	46248.8	45362.8
928.3438	1963.729	46001.05	45116.3
928.482	1965.3325	45844.65	44933.35
928.6202	1966.9353	45794.6	44908.45
928.7584	1968.5374	45522.55	44635.35
928.8965	1970.1387	45361.65	44475.6
929.0346	1971.7393	45247.35	44359.85
929.1727	1973.3392	45099.25	44213.85
929.3108	1974.9383	44861.85	43976.6
929.4489	1976.5366	44631.1	43745.95
929.5869	1978.1342	44619.6	43731.35
929.7249	1979.7311	44555.05	43667.15
929.8629	1981.3273	44394.75	43508.45
930.0009	1982.9227	44206.15	43316.75
930.1388	1984.5173	44181.65	43296.35
930.2767	1986.1112	43906.15	43019.35
930.4146	1987.7044	43978.45	43093
930.5525	1989.2968	43656.25	42769.85
930.6904	1990.8885	43598.9	42709.85
930.8282	1992.4795	43473.55	42585.65
930.966	1994.0697	43319.55	42433.6
931.1038	1995.6592	43195.35	42305.9
931.2415	1997.2479	43019.45	42134.8
931.3793	1998.8359	42912.25	42024.45
931.517	2000.4232	42671.5	41786.9
931.6547	2002.0097	42619.05	41733.5
931.7923	2003.5955	42367.15	41478.5
931.93	2005.1805	42387.25	41499.15
932.0676	2006.7648	42258.2	41371.7
932.2052	2008.3484	42110.95	41222.4
932.3427	2009.9312	42101.35	41213.05
932.4803	2011.5133	41935.7	41050.85
932.6178	2013.0946	41791.1	40905.05
932.7553	2014.6752	41679.55	40792.7
932.8928	2016.2551	41551.4	40664.6
933.0302	2017.8342	41354	40467.35
933.1676	2019.4126	41216.6	40330.75
933.305	2020.9902	41061.45	40175.8
933.4424	2022.5672	40982.3	40093.15
933.5798	2024.1433	40867.05	39974.3
933.7171	2025.7188	40703.8	39817.2
933.8544	2027.2935	40638.75	39752.15
933.9917	2028.8674	40460.35	39574.05
934.129	2030.4406	40361.45	39475.95
934.2662	2032.0131	40109.15	39224.65
934.4034	2033.5849	39941.95	39048.4
934.5406	2035.1559	39936.15	39048.8
934.6778	2036.7261	39907.75	39019.5
934.8149	2038.2957	39740.5	38853.6
934.952	2039.8645	39623.4	38737.6
935.0891	2041.4325	39610.75	38721.9
935.2262	2042.9998	39469.35	38584
935.3632	2044.5664	39304.95	38415.1
935.5002	2046.1323	39237.7	38348.4
935.6372	2047.6974	39134.25	38244.85
935.7742	2049.2617	39025.3	38134.6
935.9111	2050.8254	38907.7	38011.55
936.048	2052.3883	38877	37981.45
936.1849	2053.9504	38724.6	37827.55
936.3218	2055.5118	38556.05	37656.7
936.4586	2057.0725	38376	37471.8
936.5955	2058.6325	38280.6	37380.65
936.7323	2060.1917	38177.45	37277.2
936.869	2061.7502	38084.05	37185.05
937.0058	2063.3079	37919.8	37023.2
937.1425	2064.8649	37814.9	36918.85
937.2792	2066.4212	37735.3	36842.3
937.4159	2067.9767	37657.4	36767.1
937.5525	2069.5315	37458.05	36571
937.6891	2071.0856	37268.7	36379.7
937.8257	2072.6389	37146.15	36258.1
937.9623	2074.1915	37004.45	36120.95
938.0989	2075.7433	36808.25	35918.1
938.2354	2077.2945	36772.3	35886.6
938.3719	2078.8448	36632.15	35746
938.5084	2080.3945	36484.15	35597.95
938.6448	2081.9434	36458.1	35572
938.7812	2083.4916	36349.65	35462.5
938.9176	2085.039	36157.85	35267.55
939.054	2086.5857	36120.1	35233.45
939.1903	2088.1317	36044.9	35157.2
939.3267	2089.677	35961.6	35075
939.463	2091.2215	35823.5	34936.8
939.5992	2092.7652	35697	34808.1
939.7355	2094.3083	35591.3	34703.65
939.8717	2095.8506	35588.5	34702.65
940.0079	2097.3921	35543	34659
940.1441	2098.933	35393.2	34505.3
940.2802	2100.4731	35304.15	34417.5
940.4163	2102.0124	35239.6	34335.3
940.5524	2103.5511	35153.75	34266.45
940.6885	2105.089	35063.05	34178.1
940.8245	2106.6261	35016.25	34128.95
940.9606	2108.1626	34854.75	33967.5
941.0965	2109.6983	34829.25	33915.25
941.2325	2111.2332	34679.85	33791.05
941.3684	2112.7675	34575.2	33688.7
941.5044	2114.301	34482.95	33595.25
941.6403	2115.8337	34418.9	33531.85
941.7761	2117.3657	34331.6	33446.55
941.912	2118.897	34252.05	33364.75
942.0478	2120.4276	34131.2	33239.1
942.1835	2121.9575	33969.35	33082.3
942.3193	2123.4866	33987.6	33088.5
942.455	2125.0149	33828.85	32940.9
942.5907	2126.5426	33626.35	32738.9
942.7264	2128.0695	33553.95	32665.1
942.8621	2129.5956	33518.85	32634.1
942.9977	2131.1211	33469.35	32577.2
943.1333	2132.6458	33350	32464.05
943.2689	2134.1698	33227.2	32341.35
943.4044	2135.693	33139.65	32251.5
943.54	2137.2155	33098.5	32206.75
943.6755	2138.7373	33024.75	32138.85
943.8109	2140.2584	32923.25	32039.25
943.9464	2141.7787	32766.7	31876.75
944.0818	2143.2983	32591.6	31706.65
944.2172	2144.8171	32460.55	31575.8
944.3526	2146.3353	32353.4	31465.1
944.4879	2147.8527	32229.95	31344.7
944.6232	2149.3693	32248.2	31362.55
944.7585	2150.8853	32122.45	31237.15
944.8938	2152.4005	31916.6	31031.5
945.029	2153.9149	31924.85	31037.1
945.1642	2155.4287	31808.2	30922.65
945.2994	2156.9417	31755.55	30868.3
945.4346	2158.454	31647.75	30758.8
945.5697	2159.9655	31568.95	30684.6
945.7048	2161.4764	31461.95	30576.15
945.8399	2162.9865	31394	30507.35
945.9749	2164.4958	31289	30400.7
946.1099	2166.0045	31103.3	30213.95
946.2449	2167.5124	31065.65	30179.05
946.3799	2169.0195	30996.1	30110
946.5148	2170.526	30979.4	30092.2
946.6498	2172.0317	30894.6	30005.65
946.7846	2173.5367	30811.9	29926
946.9195	2175.0409	30682.9	29798.45
947.0543	2176.5445	30683.55	29798
947.1891	2178.0473	30546.85	29660.1
947.3239	2179.5494	30406.5	29515.95
947.4587	2181.0507	30252.1	29365.55
947.5934	2182.5513	30193.1	29306.75
947.7281	2184.0512	30165.05	29277.3
947.8628	2185.5504	30011.05	29126.15
947.9974	2187.0488	29847.65	28962.5
948.132	2188.5465	29755.25	28869.25
948.2666	2190.0435	29645.1	28758.55
948.4012	2191.5397	29477.3	28590.55
948.5357	2193.0353	29438.45	28552.45
948.6702	2194.5301	29257.6	28371.8
948.8047	2196.0241	29205.8	28318.25
948.9392	2197.5175	29139.3	28253.1
949.0736	2199.0101	28990.95	28099.05
949.208	2200.502	28857.35	27971.85
949.3424	2201.9931	28771.6	27885.95
949.4767	2203.4835	28717.6	27830.15
949.611	2204.9733	28637.1	27743.45
949.7453	2206.4622	28551.15	27664.2
949.8796	2207.9505	28431.15	27541.35
950.0138	2209.438	28235.85	27352.1
950.148	2210.9248	28210	27324.1
950.2822	2212.4109	28115.75	27227.95
950.4164	2213.8962	28021	27130.3
950.5505	2215.3809	27989.6	27101.6
950.6846	2216.8648	27893.35	27007
950.8186	2218.3479	27828.45	26936.9
950.9527	2219.8304	27677.1	26787.1
951.0867	2221.3121	27527.6	26637.75
951.2207	2222.7931	27484.2	26599.4
951.3546	2224.2733	27373.45	26487
951.4886	2225.7529	27295.95	26411.15
951.6225	2227.2317	27214.75	26325.05
951.7563	2228.7098	27123.3	26238.2
951.8902	2230.1872	26983.75	26096.15
952.024	2231.6638	26959	26074.35
952.1578	2233.1397	26812.05	25919.5
952.2916	2234.6149	26766.2	25879.7
952.4253	2236.0894	26666.15	25779.65
952.559	2237.5632	26630.75	25743.55
952.6927	2239.0362	26506.35	25619.55
952.8263	2240.5085	26418.95	25531.5
952.9599	2241.9801	26290.55	25403.3
953.0935	2243.4509	26212.35	25324.95
953.2271	2244.921	26099.9	25215.7
953.3606	2246.3904	26019.65	25129.95
953.4941	2247.8591	25993.3	25106.55
953.6276	2249.3271	25911.35	25027.1
953.7611	2250.7943	25805.8	24920.9
953.8945	2252.2608	25695.55	24809.3
954.0279	2253.7266	25620.2	24733.2
954.1612	2255.1917	25537	24649
954.2946	2256.656	25447.95	24562.1
954.4279	2258.1197	25397.15	24513.45
954.5612	2259.5826	25299.2	24410.35
954.6944	2261.0447	25287.55	24400.25
954.8276	2262.5062	25128.45	24239.05
954.9608	2263.9669	25135.9	24247.35
955.094	2265.4269	25043.5	24159.1
955.2271	2266.8862	24981	24095.15
955.3602	2268.3448	24885.7	23999.6
955.4933	2269.8026	24873.7	23987
955.6264	2271.2598	24725.9	23838.75
955.7594	2272.7162	24644.7	23760.9
955.8924	2274.1719	24578	23691.7
956.0253	2275.6268	24529.55	23643
956.1583	2277.0811	24475.05	23589.05
956.2912	2278.5346	24375.45	23489.9
956.4241	2279.9874	24349.25	23464.05
956.5569	2281.4395	24319.1	23434.55
956.6897	2282.8908	24111.3	23220.9
956.8225	2284.3414	24135.8	23248.65
956.9553	2285.7914	24025.25	23138.55
957.088	2287.2406	23937.8	23051.25
957.2207	2288.689	23865.8	22978.4
957.3534	2290.1368	23799.7	22912.2
957.486	2291.5838	23721.95	22833.45
957.6186	2293.0302	23635.8	22748.6
957.7512	2294.4758	23539.3	22651.5
957.8838	2295.9206	23420.2	22530.05
958.0163	2297.3648	23382.3	22496.35
958.1488	2298.8082	23355.5	22466.8
958.2813	2300.251	23280.85	22394.25
958.4137	2301.693	23224.85	22335.5
958.5461	2303.1343	23201	22315
958.6785	2304.5748	23128.1	22243.1
958.8108	2306.0147	22987	22097.8
958.9432	2307.4538	22915.95	22027.2
959.0754	2308.8922	22860.75	21974.85
959.2077	2310.3299	22755.35	21870.35
959.3399	2311.7669	22702.6	21817.25
959.4721	2313.2031	22627.35	21741.8
959.6043	2314.6387	22537.4	21651.4
959.7365	2316.0735	22443.3	21556.15
959.8686	2317.5076	22420.65	21534.75
960.0006	2318.941	22348.45	21462.55
960.1327	2320.3737	22284.35	21398.5
960.2647	2321.8056	22232.35	21345
960.3967	2323.2369	22122.9	21235.6
960.5287	2324.6674	22094.45	21205.4
960.6606	2326.0972	21989.2	21102.1
960.7925	2327.5263	21903.4	21016.65
960.9244	2328.9547	21835.2	20948.45
961.0562	2330.3823	21777	20890.6
961.1881	2331.8092	21762.65	20872.2
961.3198	2333.2355	21632.55	20747.55
961.4516	2334.661	21639.35	20753.55
961.5833	2336.0858	21586.6	20699.8
961.715	2337.5098	21517.5	20630.85
961.8467	2338.9332	21454.15	20567
961.9783	2340.3558	21360.6	20470.95
962.1099	2341.7778	21283.95	20398.65
962.2415	2343.199	21217.85	20329.3
962.373	2344.6195	21108.05	20221.2
962.5045	2346.0393	21133.85	20250
962.636	2347.4583	21027.7	20140.95
962.7675	2348.8767	20991.55	20102.65
962.8989	2350.2943	20937.55	20051.75
963.0303	2351.7113	20905.15	20018.7
963.1617	2353.1275	20802.9	19917.1
963.293	2354.543	20737.55	19843.6
963.4243	2355.9578	20704.25	19817.15
963.5556	2357.3718	20529.4	19642.35
963.6868	2358.7852	20459.35	19569.95
963.818	2360.1978	20413.9	19526.85
963.9492	2361.6098	20339.15	19452.15
964.0803	2363.021	20274.55	19382.55
964.2114	2364.4315	20223.65	19338.4
964.3425	2365.8413	20166.05	19279.2
964.4736	2367.2504	20080.55	19197.8
964.6046	2368.6587	19955.85	19069.75
964.7356	2370.0664	19908.35	19021.95
964.8666	2371.4733	19861.75	18974.15
964.9975	2372.8795	19781.2	18895
965.1284	2374.285	19723.9	18838.8
965.2593	2375.6899	19617.6	18732.6
965.3901	2377.0939	19509.95	18625.65
965.5209	2378.4973	19488.45	18604.3
965.6517	2379.9	19395.25	18510.15
965.7825	2381.3019	19304.2	18419.6
965.9132	2382.7032	19269.75	18383.55
966.0439	2384.1037	19269.2	18385.8
966.1745	2385.5035	19172.55	18288.05
966.3051	2386.9027	19106.05	18221.1
966.4357	2388.3011	19062.4	18174.65
966.5663	2389.6987	18999.5	18113.7
966.6968	2391.0957	18917.05	18034.2
966.8273	2392.492	18825.5	17941.75
966.9578	2393.8876	18717.35	17830.45
967.0882	2395.2824	18666.85	17781.45
967.2186	2396.6765	18594.8	17711.8
967.349	2398.07	18541.1	17657.8
967.4793	2399.4627	18492.95	17606.4
967.6097	2400.8547	18426.6	17541.4
967.7399	2402.246	18365.15	17474.05
967.8702	2403.6366	18241.55	17354.85
968.0004	2405.0265	18171.9	17286.9
968.1306	2406.4156	18107.85	17218.65
968.2607	2407.8041	18069.1	17180.85
968.3909	2409.1918	17963.1	17076.3
968.521	2410.5789	17904.7	17018.85
968.651	2411.9652	17838.45	16953.35
968.781	2413.3508	17761.65	16875.45
968.911	2414.7358	17658.85	16771.4
969.041	2416.12	17644.55	16759.75
969.1709	2417.5035	17595.8	16710.95
969.3008	2418.8863	17480.25	16594.3
969.4307	2420.2684	17455.7	16570.1
969.5606	2421.6497	17352.35	16465.75
969.6904	2423.0304	17273.1	16388.4
969.8201	2424.4104	17239.15	16352.3
969.9499	2425.7896	17166.8	16280
970.0796	2427.1682	17154.1	16269.55
970.2093	2428.546	17094.9	16207.05
970.3389	2429.9232	17027.85	16140.95
970.4685	2431.2996	16983.9	16098.35
970.5981	2432.6753	16948.85	16062.5
970.7277	2434.0503	16890.6	16004.95
970.8572	2435.4246	16796.2	15909.95
970.9867	2436.7982	16754.9	15865.7
971.1161	2438.1711	16709	15822.9
971.2456	2439.5433	16672.65	15787.05
971.375	2440.9148	16551.7	15661.6
971.5043	2442.2856	16481.45	15594.55
971.6336	2443.6557	16425.65	15538.6
971.7629	2445.025	16382.1	15495.7
971.8922	2446.3937	16330.9	15444.6
972.0214	2447.7617	16292.9	15407.1
972.1506	2449.1289	16279.35	15394.2
972.2798	2450.4955	16231.05	15340.75
972.4089	2451.8613	16203.95	15320.05
972.538	2453.2265	16143.15	15256.9
972.6671	2454.5909	16069.95	15184.25
972.7961	2455.9546	16041.4	15156.4
972.9251	2457.3177	15955.2	15070.2
973.0541	2458.68	15901.3	15014.65
973.1831	2460.0416	15896.25	15011.9
973.312	2461.4025	15865.5	14979.2
973.4408	2462.7627	15810.85	14912.6
973.5697	2464.1222	15766.9	14881.35
973.6985	2465.4811	15706.05	14819.25
973.8273	2466.8392	15626.95	14740.7
973.956	2468.1966	15581.3	14693.85
974.0847	2469.5533	15573.15	14684.35
974.2134	2470.9093	15494.9	14609.2
974.3421	2472.2645	15485.7	14598.9
974.4707	2473.6191	15433.65	14548.95
974.5993	2474.973	15358	14472.4
974.7278	2476.3262	15290.65	14402.95
974.8563	2477.6787	15249.5	14364.35
974.9848	2479.0305	15135.55	14250.8
975.1132	2480.3816	15133.85	14246.4
975.2417	2481.7319	15084.65	14197.65
975.37	2483.0816	14981.4	14094.15
975.4984	2484.4306	14933.35	14045.7
975.6267	2485.7789	14898	14014.25
975.755	2487.1264	14780.2	13894.8
975.8833	2488.4733	14738.05	13852.85
976.0115	2489.8195	14711.5	13820.05
976.1397	2491.165	14635.6	13746.8
976.2678	2492.5097	14601.8	13715.65
976.3959	2493.8538	14542.9	13654.9
976.524	2495.1972	14452.55	13567.25
976.6521	2496.5398	14384.15	13496.9
976.7801	2497.8818	14391.9	13506.1
976.9081	2499.2231	14327.75	13442.5
977.036	2500.5637	14239.9	13351.15
977.164	2501.9035	14195.2	13309.2
977.2918	2503.2427	14161.25	13272.5
977.4197	2504.5812	14128.65	13243.95
977.5475	2505.919	14108	13220.15
977.6753	2507.256	14069.1	13183.75
977.8031	2508.5924	13977.25	13090.45
977.9308	2509.9281	13940	13048.1
978.0585	2511.2631	13890.6	13003.65
978.1861	2512.5974	13861.3	12974.25
978.3137	2513.9309	13782.8	12896.9
978.4413	2515.2638	13749	12833.15
978.5689	2516.596	13738.8	12853.4
978.6964	2517.9275	13652.4	12764.9
978.8239	2519.2583	13616.55	12731.9
978.9513	2520.5884	13555.6	12671.3
979.0788	2521.9178	13471.95	12588.4
979.2062	2523.2465	13437	12552.75
979.3335	2524.5745	13397.4	12511.7
979.4608	2525.9018	13321	12436.2
979.5881	2527.2284	13298.45	12414.1
979.7154	2528.5543	13285.45	12400.6
979.8426	2529.8796	13246.65	12360.05
979.9698	2531.2041	13214.3	12327.1
980.0969	2532.5279	13173.4	12289.65
980.224	2533.851	13164.05	12278.2
980.3511	2535.1735	13118.1	12233.55
980.4781	2536.4952	13059.9	12177.45
980.6052	2537.8163	13048.45	12161.25
980.7321	2539.1366	12965.35	12079.35
980.8591	2540.4562	12941.85	12054.3
980.986	2541.7752	12932.85	12046.25
981.1129	2543.0935	12921.15	12037.55
981.2397	2544.411	12872.65	11986.85
981.3665	2545.7279	12836.35	11950.85
981.4933	2547.0441	12835.95	11951.25
981.62	2548.3596	12813.9	11926.35
981.7467	2549.6744	12782.15	11896.65
981.8734	2550.9885	12715.8	11821.5
982.0001	2552.3019	12679.8	11794.15
982.1267	2553.6146	12631	11747.6
982.2532	2554.9266	12581.25	11693.65
982.3798	2556.2379	12561.7	11674.4
982.5063	2557.5485	12531.7	11646.4
982.6327	2558.8585	12519.8	11627.3
982.7592	2560.1677	12481.6	11591.25
982.8856	2561.4762	12424.5	11539.45
983.0119	2562.7841	12408.35	11519.4
983.1383	2564.0913	12394.4	11507.8
983.2646	2565.3977	12376	11490.9
983.3908	2566.7035	12326.6	11439.15
983.517	2568.0086	12282.5	11393.35
983.6432	2569.313	12269.65	11381.65
983.7694	2570.6167	12252.75	11362.85
983.8955	2571.9197	12202.6	11317.85
984.0216	2573.222	12220.15	11332.05
984.1476	2574.5236	12168.3	11281.05
984.2737	2575.8246	12133.65	11246.95
984.3996	2577.1248	12084.15	11194.75
984.5256	2578.4244	12056.5	11170.1
984.6515	2579.7232	12066.2	11179.35
984.7774	2581.0214	12059.55	11148.4
984.9032	2582.3189	12011.85	11125.1
985.029	2583.6157	11948.25	11058.4
985.1548	2584.9118	11936.8	11050.45
985.2806	2586.2072	11873.15	10988.85
985.4063	2587.5019	11832.2	10946.85
985.5319	2588.7959	11808.1	10923.45
985.6576	2590.0893	11796.45	10908.65
985.7832	2591.3819	11741.3	10855.45
985.9087	2592.6739	11695.05	10810.8
986.0343	2593.9652	11675.55	10785.55
986.1597	2595.2557	11651.75	10763.2
986.2852	2596.5456	11597.3	10709.1
986.4106	2597.8348	11556.95	10670.25
986.536	2599.1234	11492.75	10607.15
986.6614	2600.4112	11426.55	10539.85
986.7867	2601.6983	11419.55	10531.45
986.912	2602.9848	11369.85	10482.45
987.0372	2604.2705	11303.95	10411.65
987.1624	2605.5556	11306.75	10422.2
987.2876	2606.84	11269.75	10384.65
987.4128	2608.1237	11215.55	10331.4
987.5379	2609.4067	11181.8	10295.3
987.6629	2610.689	11139.65	10245.65
987.788	2611.9707	11105.1	10216.25
987.913	2613.2516	11071.55	10180.5
988.0379	2614.5319	11001.25	10117.15
988.1629	2615.8115	10948.85	10063.05
988.2878	2617.0903	10916.1	10028.1
988.4126	2618.3685	10880.3	9995.9
988.5375	2619.6461	10825.9	9941.2
988.6622	2620.9229	10796.15	9910.2
988.787	2622.199	10767.1	9881.4
988.9117	2623.4745	10755.1	9868.6
989.0364	2624.7493	10708.15	9822.1
989.161	2626.0234	10666.15	9781.55
989.2857	2627.2968	10626.75	9741.2
989.4102	2628.5695	10571.4	9684.15
989.5348	2629.8415	10507.5	9621.55
989.6593	2631.1128	10500.4	9613.25
989.7837	2632.3835	10421.9	9536.1
989.9082	2633.6535	10379.1	9492.9
990.0326	2634.9228	10332.05	9447.35
990.1569	2636.1914	10336.3	9451.4
990.2812	2637.4593	10306.2	9415.45
990.4055	2638.7265	10248.15	9362.5
990.5298	2639.9931	10214.3	9331.2
990.654	2641.259	10192.85	9306.35
990.7782	2642.5242	10162.55	9275.3
990.9023	2643.7887	10120.15	9234.75
991.0264	2645.0525	10099.2	9215.5
991.1505	2646.3156	10068.35	9182.45
991.2745	2647.5781	10019.55	9135.15
991.3985	2648.8398	9993.8	9109.25
991.5225	2650.1009	9986.95	9064.1
991.6464	2651.3613	9930.75	9045.45
991.7703	2652.6211	9914.15	9027.9
991.8942	2653.8801	9881.5	8996.6
992.018	2655.1385	9840.95	8955.4
992.1418	2656.3961	9815.9	8930.9
992.2655	2657.6531	9816.35	8931.5
992.3892	2658.9094	9756.15	8868.8
992.5129	2660.1651	9735.2	8851
992.6366	2661.42	9733.7	8847.15
992.7602	2662.6743	9702.5	8814.75
992.8837	2663.9279	9671.9	8785.55
993.0073	2665.1808	9641.8	8755.25
993.1307	2666.433	9590.15	8703.8
993.2542	2667.6846	9564.6	8677.95
993.3776	2668.9354	9541.65	8652.45
993.501	2670.1856	9526.55	8642
993.6244	2671.4351	9489.8	8605.5
993.7477	2672.6839	9491	8604.15
993.8709	2673.9321	9454.75	8568.25
993.9942	2675.1795	9382.5	8498.7
994.1174	2676.4263	9370.4	8484.05
994.2405	2677.6724	9335.95	8450.3
994.3637	2678.9179	9340.25	8455.25
994.4868	2680.1626	9294.2	8408.6
994.6098	2681.4067	9279.1	8393.2
994.7328	2682.6501	9230.65	8345.75
994.8558	2683.8928	9226.9	8339.25
994.9788	2685.1348	9167.1	8283.3
995.1017	2686.3761	9127.75	8243.5
995.2245	2687.6168	9096.2	8211.2
995.3474	2688.8568	9061.7	8177.9
995.4702	2690.0961	9020.35	8136.5
995.5929	2691.3348	8999.45	8112.7
995.7156	2692.5727	8986.05	8100.4
995.8383	2693.81	8948.2	8062.25
995.961	2695.0466	8918.45	8032.8
996.0836	2696.2826	8905.4	8018.4
996.2062	2697.5178	8885.85	7999.7
996.3287	2698.7524	8862.35	7977.4
996.4512	2699.9863	8859.8	7971.6
996.5737	2701.2195	8797.2	7912.55
996.6961	2702.452	8783.3	7895.7
996.8185	2703.6839	8740.15	7853.65
996.9408	2704.9151	8707.9	7823.8
997.0631	2706.1456	8682.25	7796.85
997.1854	2707.3755	8662.75	7777.85
997.3077	2708.6046	8652	7764.6
997.4299	2709.8331	8602.2	7714.7
997.552	2711.0609	8558.7	7671.4
997.6742	2712.2881	8538	7652.6
997.7963	2713.5145	8509.2	7622.05
997.9183	2714.7403	8492.95	7608.35
998.0403	2715.9654	8468.3	7581.2
998.1623	2717.1899	8442.8	7554.15
998.2842	2718.4136	8435.75	7549.35
998.4062	2719.6367	8388.05	7504.6
998.528	2720.8591	8356.1	7464.05
998.6498	2722.0809	8323.35	7436.8
998.7716	2723.3019	8320.05	7431.45
998.8934	2724.5223	8287.3	7400.4
999.0151	2725.7421	8268.15	7382.55
999.1368	2726.9611	8232.55	7344.9
999.2584	2728.1795	8233.15	7344.75
999.38	2729.3972	8179.05	7293.8
999.5016	2730.6142	8148.2	7254.85
999.6231	2731.8306	8098.05	7211.25
999.7446	2733.0462	8065.2	7178.7
999.8661	2734.2612	8009.55	7119.45
999.9875	2735.4756	7964.05	7077.05
1000.1089	2736.6892	7921.85	7035.6
1000.2302	2737.9022	7893.6	7009.6
1000.3515	2739.1145	7860.1	6975.75
1000.4728	2740.3262	7830.85	6938.8
1000.594	2741.5372	7796.15	6912.7
1000.7152	2742.7475	7759.05	6873.5
1000.8363	2743.9571	7743.65	6856.2
1000.9575	2745.1661	7689.05	6798.7
1001.0785	2746.3744	7673.5	6786.7
1001.1996	2747.582	7640	6754.35
1001.3206	2748.7889	7602.15	6714.7
1001.4415	2749.9952	7585.6	6701.3
1001.5625	2751.2008	7554.25	6670.2
1001.6833	2752.4057	7550.9	6664.15
1001.8042	2753.61	7501	6615.9
1001.925	2754.8136	7476.7	6588.95
1002.0458	2756.0165	7436.6	6551.7
1002.1665	2757.2188	7423.2	6539.8
1002.2872	2758.4204	7411.05	6523.05
1002.4078	2759.6213	7373.9	6487.3
1002.5285	2760.8215	7353.25	6463.95
1002.649	2762.0211	7315.5	6429
1002.7696	2763.22	7296.55	6409
1002.8901	2764.4182	7279.9	6392.45
1003.0106	2765.6158	7261.7	6377.7
1003.131	2766.8127	7231.85	6344.2
1003.2514	2768.009	7198.25	6313.95
1003.3717	2769.2045	7171.05	6283.5
1003.492	2770.3994	7177.3	6290.05
1003.6123	2771.5936	7122.35	6236.25
1003.7325	2772.7872	7084.55	6198.05
1003.8527	2773.9801	7057.35	6168.35
1003.9729	2775.1723	7051.75	6151.15
1004.093	2776.3639	7003.1	6116.8
1004.2131	2777.5548	6986.75	6100.5
1004.3331	2778.745	6972.35	6084.55
1004.4531	2779.9346	6952.35	6069.5
1004.5731	2781.1235	6944	6059.65
1004.693	2782.3117	6902.55	6018.15
1004.8129	2783.4992	6894.6	6010.15
1004.9328	2784.6861	6854.05	5968.5
1005.0526	2785.8723	6861.35	5975.55
1005.1723	2787.0579	6828.55	5943.45
1005.2921	2788.2428	6803	5917.25
1005.4118	2789.427	6777.25	5893.65
1005.5314	2790.6106	6757.6	5873.35
1005.651	2791.7935	6736.4	5849.85
1005.7706	2792.9757	6712.45	5830.05
1005.8902	2794.1573	6703.25	5816.05
1006.0097	2795.3382	6659.65	5775.5
1006.1291	2796.5184	6661.8	5777.75
1006.2485	2797.698	6646.25	5758.55
1006.3679	2798.8769	6626.9	5745.75
1006.4873	2800.0551	6598.85	5713.1
1006.6066	2801.2327	6592.65	5705.25
1006.7258	2802.4096	6582.25	5697.35
1006.8451	2803.5859	6585.65	5701.3
1006.9642	2804.7615	6554.95	5668.8
1007.0834	2805.9364	6550.45	5667.05
1007.2025	2807.1106	6542.7	5659
1007.3216	2808.2842	6541.65	5656.3
1007.4406	2809.4572	6539.65	5652.15
1007.5596	2810.6294	6547.4	5660.05
1007.6785	2811.801	6549.25	5664.75
1007.7975	2812.972	6585.55	5701.25
1007.9163	2814.1423	6584.3	5700.3
1008.0352	2815.3119	6591.5	5707.1
1008.154	2816.4808	6608.85	5723.5
1008.2727	2817.6491	6629.7	5743.8
1008.3914	2818.8167	6651.7	5768.4
1008.5101	2819.9837	6678.25	5789.65
1008.6288	2821.15	6678.1	5794
1008.7474	2822.3157	6712.35	5827.9
1008.8659	2823.4807	6742.35	5858.2
1008.9844	2824.645	6780.35	5894.75
1009.1029	2825.8086	6779.6	5895.15
1009.2214	2826.9716	6827.85	5943.5
1009.3398	2828.134	6836.2	5952.55
1009.4581	2829.2957	6870	5984.9
1009.5764	2830.4567	6894.55	6012.75
1009.6947	2831.617	6865.9	5981.5
1009.813	2832.7767	6881.2	5997.25
1009.9312	2833.9358	6863.7	5980.35
1010.0493	2835.0941	6852.25	5965.75
1010.1675	2836.2519	6811.35	5926.6
1010.2855	2837.4089	6785.25	5900.7
1010.4036	2838.5653	6768.2	5884.05
1010.5216	2839.7211	6751.6	5867.45
1010.6396	2840.8761	6731.6	5845.3
1010.7575	2842.0306	6719.6	5834.45
1010.8754	2843.1843	6731.5	5847.45
1010.9932	2844.3374	6767.1	5882.35
1011.111	2845.4899	6768.85	5882.6
1011.2288	2846.6417	6786.35	5902.9
1011.3465	2847.7928	6815.3	5931.75
1011.4642	2848.9433	6858.15	5973.3
1011.5818	2850.0931	6883.25	5997.65
1011.6995	2851.2422	6935.9	6049.55
1011.817	2852.3907	6961.15	6076.45
1011.9345	2853.5385	6990.25	6103.8
1012.052	2854.6857	7015.1	6121.85
1012.1695	2855.8323	7029.3	6143.95
1012.2869	2856.9781	7034.05	6149.6
1012.4042	2858.1233	7055.2	6173.05
1012.5216	2859.2679	7081.95	6198.1
1012.6389	2860.4118	7105	6221.2
1012.7561	2861.555	7114.25	6226.35
1012.8733	2862.6976	7145.9	6259.45
1012.9905	2863.8395	7138.55	6252.95
1013.1076	2864.9808	7168.15	6284.75
1013.2247	2866.1214	7141.45	6257.2
1013.3417	2867.2614	7150.5	6265.7
1013.4587	2868.4007	7146.4	6259.5
1013.5757	2869.5393	7107.8	6222.2
1013.6926	2870.6773	7102.7	6213.95
1013.8095	2871.8146	7100.15	6212.2
1013.9263	2872.9513	7090.45	6202.25
1014.0431	2874.0874	7032.95	6146.55
1014.1599	2875.2227	7024.5	6138.8
1014.2766	2876.3574	6992.4	6106.95
1014.3933	2877.4915	6947.05	6062.85
1014.51	2878.6249	6915.85	6032.75
1014.6266	2879.7577	6879.3	5992.4
1014.7431	2880.8898	6864.05	5968.4
1014.8596	2882.0212	6804.95	5921.65
1014.9761	2883.152	6789.95	5904.45
1015.0925	2884.2821	6753.2	5868.6
1015.2089	2885.4116	6721.5	5837.65
1015.3253	2886.5405	6714.2	5829.1
1015.4416	2887.6686	6706.9	5820.1
1015.5579	2888.7962	6705.35	5821.1
1015.6741	2889.923	6677.55	5793.4
1015.7903	2891.0493	6662.5	5778.95
1015.9065	2892.1748	6632.45	5747.6
1016.0226	2893.2997	6621.25	5736.05
1016.1387	2894.424	6615.75	5733.95
1016.2547	2895.5476	6607.35	5723.75
1016.3707	2896.6706	6631.05	5748
1016.4866	2897.7929	6632.6	5747.9
1016.6025	2898.9145	6647.75	5764.6
1016.7184	2900.0355	6628.25	5744.6
1016.8342	2901.1559	6614.25	5730.4
1016.95	2902.2756	6613.3	5727.8
1017.0658	2903.3946	6624.6	5739.85
1017.1815	2904.513	6635.5	5747.55
1017.2971	2905.6308	6639.6	5755.55
1017.4127	2906.7479	6637.55	5755.3
1017.5283	2907.8643	6645.45	5758.9
1017.6439	2908.9801	6633.5	5747.75
1017.7594	2910.0953	6632.6	5748.6
1017.8748	2911.2098	6591.9	5703.45
1017.9902	2912.3236	6567.15	5673.6
1018.1056	2913.4368	6564.8	5675.9
1018.2209	2914.5494	6536.35	5651.85
1018.3362	2915.6613	6497.5	5607.5
1018.4515	2916.7725	6438.65	5550.75
1018.5667	2917.8831	6410.15	5523.45
1018.6819	2918.9931	6388.45	5501.25
1018.797	2920.1024	6361.7	5475.95
1018.9121	2921.211	6317.95	5434.4
1019.0271	2922.319	6291.45	5406.2
1019.1421	2923.4264	6275.6	5390.9
1019.2571	2924.5331	6247.3	5362.25
1019.372	2925.6391	6220.25	5335.05
1019.4869	2926.7445	6210.5	5327.6
1019.6017	2927.8493	6192.15	5305
1019.7165	2928.9534	6191.1	5307.5
1019.8313	2930.0569	6160.45	5273.35
1019.946	2931.1597	6164.95	5279.6
1020.0606	2932.2619	6143.85	5258.35
1020.1753	2933.3634	6137	5252.65
1020.2899	2934.4643	6129.55	5237.2
1020.4044	2935.5645	6096.75	5206.9
1020.5189	2936.6641	6076.9	5187.75
1020.6334	2937.763	6048.4	5162.9
1020.7478	2938.8613	5986.25	5098.75
1020.8622	2939.959	5941.2	5050.75
1020.9765	2941.056	5883.75	5000.05
1021.0908	2942.1523	5793.2	4906.85
1021.2051	2943.248	5727.1	4841.45
1021.3193	2944.3431	5631.15	4748.35
1021.4334	2945.4375	5542.85	4658.95
1021.5476	2946.5313	5467.05	4584.5
1021.6617	2947.6244	5382.35	4498.45
1021.7757	2948.7169	5295.9	4408.35
1021.8897	2949.8087	5201.05	4316.7
1022.0037	2950.8999	5117.15	4233.2
1022.1176	2951.9904	5043.65	4160.9
1022.2315	2953.0803	4978.25	4093.25
1022.3453	2954.1696	4917.2	4031.45
1022.4591	2955.2582	4853.75	3970.2
1022.5728	2956.3462	4817.6	3933.65
1022.6865	2957.4335	4777	3890.75
1022.8002	2958.5202	4730	3843.4
1022.9138	2959.6062	4685.4	3801.7
1023.0274	2960.6916	4658.15	3774.1
1023.141	2961.7764	4624.25	3739
1023.2545	2962.8605	4612.6	3727.15
1023.3679	2963.9439	4580.65	3697.9
1023.4813	2965.0267	4547.1	3661.75
1023.5947	2966.1089	4543.85	3636.1
1023.708	2967.1905	4513.4	3627.55
1023.8213	2968.2714	4502.85	3619.6
1023.9346	2969.3516	4481.8	3598.25
1024.0478	2970.4312	4479.05	3588.1
1024.1609	2971.5102	4453.85	3569.2
1024.274	2972.5885	4451.35	3567
1024.3871	2973.6662	4452	3563.8
1024.5002	2974.7432	4432.4	3549.75
1024.6132	2975.8196	4419.85	3537.1
1024.7261	2976.8954	4386.65	3502.6
1024.839	2977.9705	4380.7	3497.95
1024.9519	2979.045	4362.4	3480
1025.0647	2980.1188	4330.95	3446.15
1025.1775	2981.192	4313.35	3430.6
1025.2902	2982.2645	4275.35	3389.05
1025.4029	2983.3364	4245	3361.15
1025.5156	2984.4077	4236.45	3350.75
1025.6282	2985.4783	4197.85	3308.95
1025.7407	2986.5483	4156.3	3272.65
1025.8532	2987.6177	4112.7	3226.1
1025.9657	2988.6864	4075.7	3190.45
1026.0782	2989.7545	4037.85	3151.4
1026.1906	2990.8219	4008.45	3123.75
1026.3029	2991.8887	3991.1	3106.6
1026.4152	2992.9548	3935.5	3049.5
1026.5275	2994.0204	3900.35	3017.9
1026.6397	2995.0852	3880.35	2997.25
1026.7519	2996.1495	3840	2954.35
1026.864	2997.2131	3821.85	2939.6
1026.9761	2998.276	3800.25	2916.55
1027.0882	2999.3383	3763.4	2878.05
1027.2002	3000.4	3735.45	2849.25
1027.3122	3001.4611	3717.15	2834.9
1027.4241	3002.5215	3695.2	2809.6
1027.536	3003.5812	3653.9	2771.15
1027.6478	3004.6404	3652.1	2765.55
1027.7596	3005.6989	3626.35	2737.9
1027.8714	3006.7567	3615	2731.95
1027.9831	3007.8139	3617.9	2706.2
1028.0947	3008.8705	3575.85	2691.65
1028.2064	3009.9264	3569.05	2679.6
1028.3179	3010.9818	3551.65	2668.4
1028.4295	3012.0364	3538.9	2653.4
1028.541	3013.0905	3511.6	2628.15
1028.6524	3014.1439	3497.7	2612.45
1028.7638	3015.1966	3485.75	2603.2
1028.8752	3016.2487	3467.5	2582.95
1028.9865	3017.3002	3455.6	2567.85
1029.0978	3018.3511	3462.3	2579.6
1029.209	3019.4013	3450.15	2566.6
1029.3202	3020.4509	3420.7	2535.2
1029.4314	3021.4998	3430.25	2548.05
1029.5425	3022.5481	3422.95	2537.65
1029.6535	3023.5958	3416.15	2533
1029.7645	3024.6428	3408.9	2523
1029.8755	3025.6892	3380.45	2498.05
1029.9864	3026.735	3372.25	2487.6
1030.0973	3027.7802	3366.65	2482.25
1030.2082	3028.8247	3336.4	2449.8
1030.319	3029.8685	3332.75	2448.15
1030.4297	3030.9118	3333.45	2448.45
1030.5404	3031.9544	3311.65	2426.25
1030.6511	3032.9963	3317.95	2434.75
1030.7617	3034.0376	3303.4	2419.65
1030.8723	3035.0783	3287.9	2402.15
1030.9829	3036.1184	3296.05	2411.6
1031.0934	3037.1578	3292.2	2408.75
1031.2038	3038.1966	3281.35	2398.5
1031.3142	3039.2348	3270.55	2387.45
1031.4246	3040.2723	3262.35	2367
1031.5349	3041.3092	3254.65	2372.05
1031.6452	3042.3455	3261.75	2375.95
1031.7554	3043.3811	3227.7	2341.75
1031.8656	3044.4161	3223.15	2337.9
1031.9758	3045.4505	3204.8	2321
1032.0859	3046.4842	3194.65	2310.45
1032.1959	3047.5173	3169.1	2286.65
1032.3059	3048.5498	3181.85	2297.9
1032.4159	3049.5816	3156.45	2270.9
1032.5258	3050.6128	3163.15	2277.9
1032.6357	3051.6434	3150	2264.25
1032.7455	3052.6734	3131.45	2246.5
1032.8553	3053.7027	3130	2246.95
1032.9651	3054.7314	3112.6	2227.15
1033.0748	3055.7594	3113.05	2229.85
1033.1845	3056.7868	3090.05	2203.7
1033.2941	3057.8136	3072.8	2188.8
1033.4037	3058.8398	3061.9	2178.25
1033.5132	3059.8653	3054.5	2171.45
1033.6227	3060.8902	3037.5	2153.7
1033.7321	3061.9145	3027	2140.8
1033.8415	3062.9381	3027.35	2143.1
1033.9509	3063.9612	3037.25	2139.45
1034.0602	3064.9835	3011.75	2125.45
1034.1694	3066.0053	2991.2	2104.85
1034.2787	3067.0264	2974.85	2091.65
1034.3878	3068.0469	2975.7	2090.7
1034.497	3069.0668	2980.45	2095.1
1034.6061	3070.086	2943.2	2059.15
1034.7151	3071.1046	2938.85	2055.65
1034.8241	3072.1226	2928.05	2043.6
1034.9331	3073.1399	2922.25	2038.35
1035.042	3074.1567	2899.1	2014.45
1035.1508	3075.1727	2898.6	2013.25
1035.2597	3076.1882	2870.9	1986
1035.3684	3077.203	2858.7	1971.6
1035.4772	3078.2173	2848.85	1962.2
1035.5859	3079.2308	2853	1968.35
1035.6945	3080.2438	2842.4	1956.4
1035.8031	3081.2561	2813.5	1930.15
1035.9117	3082.2678	2805.1	1919.4
1036.0202	3083.2789	2794.95	1910.4
1036.1286	3084.2893	2783.7	1899.85
1036.2371	3085.2991	2765.95	1878.35
1036.3454	3086.3083	2776.25	1887.1
1036.4538	3087.3169	2754.2	1868.65
1036.562	3088.3248	2738.2	1854.65
1036.6703	3089.3321	2731.9	1846.1
1036.7785	3090.3388	2710.6	1826.5
1036.8866	3091.3449	2705.45	1821.1
1036.9948	3092.3503	2697.2	1810.95
1037.1028	3093.3551	2690.6	1808.75
1037.2108	3094.3593	2675.3	1792.1
1037.3188	3095.3629	2652.95	1770.2
1037.4267	3096.3658	2650.1	1764.05
1037.5346	3097.3681	2648.2	1764.95
1037.6425	3098.3698	2643.8	1757.2
1037.7503	3099.3708	2628.85	1737.8
1037.858	3100.3713	2604.2	1720.4
1037.9657	3101.3711	2593.4	1710.1
1038.0734	3102.3702	2707.35	1684
1038.181	3103.3688	2586.65	1698.75
1038.2886	3104.3667	2564.25	1680.75
1038.3961	3105.364	2562.6	1679.55
1038.5036	3106.3607	2548.8	1662.55
1038.611	3107.3568	2531.15	1646.4
1038.7184	3108.3522	2527.35	1644.2
1038.8257	3109.347	2534.2	1649
1038.933	3110.3412	2522.25	1634.65
1039.0403	3111.3348	2491.2	1607.2
1039.1475	3112.3277	2484.85	1602.25
1039.2547	3113.32	2469.75	1586.6
1039.3618	3114.3117	2480.05	1595.8
1039.4689	3115.3028	2459.5	1575.75
1039.5759	3116.2932	2455	1569.25
1039.6829	3117.2831	2452.7	1563.45
1039.7898	3118.2723	2439.55	1556.35
1039.8967	3119.2608	2417.85	1533.8
1040.0035	3120.2488	2421.8	1537.15
1040.1103	3121.2361	2415	1529.15
1040.2171	3122.2229	2406.05	1522.75
1040.3238	3123.209	2386.35	1500.1
1040.4305	3124.1944	2372.9	1489.8
1040.5371	3125.1793	2388.85	1504.65
1040.6437	3126.1635	2372.7	1490.35
1040.7502	3127.1471	2362.9	1479.55
1040.8567	3128.1301	2340.7	1455.6
1040.9631	3129.1125	2346.15	1462.2
1041.0695	3130.0942	2329.9	1445.7
1041.1759	3131.0753	2342.95	1450.1
1041.2822	3132.0558	2323.05	1438.05
1041.3884	3133.0357	2320.75	1435.6
1041.4946	3134.015	2309.2	1425.35
1041.6008	3134.9936	2311.9	1427.85
1041.7069	3135.9716	2323.5	1418.1
1041.813	3136.949	2296.9	1410.95
1041.919	3137.9258	2298.35	1408.15
1042.025	3138.902	2286.95	1398.8
1042.1309	3139.8775	2282.15	1399.75
1042.2368	3140.8524	2267.8	1383.55
1042.3427	3141.8267	2266.4	1381.5
1042.4485	3142.8004	2262.85	1380.1
1042.5542	3143.7735	2264.55	1374.6
1042.6599	3144.7459	2260.35	1374.05
1042.7656	3145.7178	2233.4	1348.9
1042.8712	3146.689	2230.05	1346.65
1042.9768	3147.6596	2227.7	1339.85
1043.0823	3148.6295	2217.7	1333.9
1043.1878	3149.5989	2207.25	1323.55
1043.2932	3150.5676	2202.05	1319.1
1043.3986	3151.5357	2199.6	1317.5
1043.5039	3152.5032	2179.45	1294.8
1043.6092	3153.4701	2173.4	1289.65
1043.7145	3154.4364	2176.95	1291.9
1043.8197	3155.402	2162.9	1279.35
1043.9248	3156.367	2164.3	1277.65
1044.03	3157.3315	2181.55	1260.25
1044.135	3158.2952	2141.5	1256.45
1044.24	3159.2584	2148.75	1266.65
1044.345	3160.221	2132.5	1247.8
1044.4499	3161.1829	2124.45	1240.85
1044.5548	3162.1442	2127.45	1243.65
1044.6596	3163.105	2112.75	1229.45
1044.7644	3164.065	2099.85	1214.15
1044.8692	3165.0245	2097.75	1212.6
1044.9739	3165.9834	2085.65	1203.2
1045.0785	3166.9416	2081	1197.8
1045.1831	3167.8993	2072.95	1186.45
1045.2877	3168.8563	2077.6	1192.15
1045.3922	3169.8127	2070.25	1186.4
1045.4966	3170.7684	2042	1157.65
1045.6011	3171.7236	2054	1168.6
1045.7054	3172.6782	2053.75	1167.65
1045.8098	3173.6321	2051.2	1168.15
1045.914	3174.5854	2043.35	1155.75
1046.0183	3175.5381	2025.25	1141.4
1046.1224	3176.4902	2016.6	1132.75
1046.2266	3177.4417	2020.8	1134.15
1046.3307	3178.3926	2009.7	1126
1046.4347	3179.3428	2007.45	1125.25
1046.5387	3180.2924	1988.95	1104.55
1046.6427	3181.2415	1985.8	1100.65
1046.7466	3182.1899	1982.6	1096.2
1046.8504	3183.1377	1979.35	1098.7
1046.9542	3184.0848	1976.2	1086.8
1047.058	3185.0314	1957.4	1074.15
1047.1617	3185.9773	1953.55	1068.8
1047.2654	3186.9227	1955.8	1071.8
1047.369	3187.8674	1937.1	1054
1047.4726	3188.8115	1947.65	1059.4
1047.5761	3189.755	1936.65	1054.1
1047.6796	3190.6979	1931.3	1046.6
1047.783	3191.6402	1917.15	1034.45
1047.8864	3192.5818	1909.3	1026.05
1047.9898	3193.5229	1929.9	1030.2
1048.0931	3194.4633	1918.8	1034.75
1048.1963	3195.4031	1901.1	1015.95
1048.2995	3196.3423	1886.55	1004.05
1048.4027	3197.2809	1884.7	1001.7
1048.5058	3198.2189	1877.85	993.85
1048.6089	3199.1563	1899.05	999.05
1048.7119	3200.0931	1874.95	992.3
1048.8148	3201.0292	1875.2	992.3
1048.9178	3201.9648	1864.1	979.85
1049.0206	3202.8997	1865.3	981.35
1049.1235	3203.834	1845.6	960.95
1049.2262	3204.7677	1850.15	967.3
1049.329	3205.7008	1848.15	962.55
1049.4317	3206.6333	1839.4	956.05
1049.5343	3207.5652	1834.35	948.05
1049.6369	3208.4964	1833.4	949.25
1049.7394	3209.4271	1821.75	939.05
1049.8419	3210.3571	1819.15	935.65
1049.9444	3211.2865	1812.9	928.35
1050.0468	3212.2154	1809.8	926.5
1050.1491	3213.1436	1810.15	922
1050.2514	3214.0712	1811.7	922.8
1050.3537	3214.9982	1800	917.8
1050.4559	3215.9246	1785.2	900.4
1050.5581	3216.8503	1795.75	913.25
1050.6602	3217.7755	1785.05	901.85
1050.7623	3218.7001	1789.25	905.55
1050.8643	3219.624	1772.95	889.55
1050.9663	3220.5473	1771.05	886.35
1051.0682	3221.4701	1776.05	890.85
1051.1701	3222.3922	1768	882.2
1051.2719	3223.3137	1768.7	884.9
1051.3737	3224.2346	1756.7	872.1
1051.4754	3225.1549	1750.5	864.95
1051.5771	3226.0746	1742.25	861.45
1051.6788	3226.9937	1733.35	849.05
1051.7804	3227.9121	1733.45	851.15
1051.8819	3228.83	1727.55	843.1
1051.9834	3229.7473	1723.35	840.15
1052.0849	3230.6639	1723.55	839.4
1052.1863	3231.5799	1720.65	835.85
1052.2876	3232.4954	1711.25	825.95
1052.3889	3233.4102	1699.3	816.7
1052.4902	3234.3244	1702.1	819.7
1052.5914	3235.238	1696.7	814.1
1052.6926	3236.151	1712.6	804.8
1052.7937	3237.0634	1682	799.95
1052.8948	3237.9752	1675.15	792.15
1052.9958	3238.8864	1679.9	796.15
1053.0968	3239.797	1669.6	787.75
1053.1977	3240.7069	1667.8	783.45
1053.2986	3241.6163	1659.15	771.9
1053.3994	3242.5251	1651.65	770.05
1053.5002	3243.4332	1645.55	761.45
1053.6009	3244.3408	1649.4	766.1
1053.7016	3245.2477	1644.55	762.25
1053.8022	3246.154	1627.75	741.75
1053.9028	3247.0598	1636.95	753
1054.0034	3247.9649	1631.5	746.2
1054.1039	3248.8694	1619	734.75
1054.2043	3249.7733	1617	732.1
1054.3047	3250.6766	1617.65	733.1
1054.4051	3251.5793	1605.9	720.6
1054.5054	3252.4814	1601.95	719.7
1054.6056	3253.3829	1604.25	722.4
1054.7058	3254.2838	1600.9	715.8
1054.806	3255.1841	1592.45	711.25
1054.9061	3256.0838	1593.3	709.75
1055.0061	3256.9829	1579.2	697.05
1055.1062	3257.8814	1574.9	687.7
1055.2061	3258.7792	1575.95	690.7
1055.306	3259.6765	1564.2	678.8
1055.4059	3260.5731	1558.25	673.15
1055.5057	3261.4692	1543.5	657.7
1055.6055	3262.3647	1543.95	660.45
1055.7052	3263.2595	1531.4	648.05
1055.8049	3264.1538	1520.3	636.8
1055.9045	3265.0474	1507.2	625.35
1056.0041	3265.9404	1504.15	619.5
1056.1036	3266.8329	1497.95	616.05
1056.2031	3267.7247	1494.35	600.4
1056.3025	3268.616	1465.05	582.7
1056.4019	3269.5066	1454.5	570.8
1056.5013	3270.3966	1436.1	550.7
1056.6005	3271.286	1415.55	532.75
