Software Version:	3.9.2.0
Unit SN:	10000200
Spectrometer SN:	6960
Date:	3/6/2024 10:39:40 AM
Data Line Index:	25
Spectral Points:	2048
Integration time (ms):	125
Averages:	20
Delay (ms):	30
Sequence Number:	1
Processing:	dark subtract
Laser Power (mW):	305
Laser Current (mA):	823
Laser Diode Temp (C):	25.1
Laser Case Temp (C):	26.9
System Temp (C):	26.7
Spectrometer Temp (C):	24.1
CCD Temp (C):	0.007
Secondary Temp (C):	20.029
Heatsink Temp (C):	22.316
CCDPCB Temp (C):	36.107
SecondaryPCB Temp (C):	32.961

Wavelength	RamanShift	Raw Counts	Dark Subtracted
787.061	30.1047	1140.4	728.4
787.2016	32.3739	1174.35	763.85
787.3422	34.6426	1209.1	798.15
787.4828	36.9109	1259.55	844.5
787.6235	39.1787	1322.6	905.2
787.7642	41.4461	1383.4	960.55
787.9049	43.7131	1453.9	1027.8
788.0456	45.9796	1515.95	1089.3
788.1863	48.2456	1587.75	1155.8
788.3271	50.5112	1654.35	1216.35
788.4679	52.7764	1724.95	1284.65
788.6087	55.0411	1809.8	1366
788.7496	57.3054	1890.05	1441.7
788.8904	59.5692	1974	1523.3
789.0313	61.8326	2092.1	1637.45
789.1722	64.0955	2185.5	1726.85
789.3132	66.3579	2328	1864.75
789.4541	68.6199	2482.9	2016.75
789.5951	70.8815	2722.5	2251.1
789.7361	73.1426	3265.75	2792.4
789.8771	75.4032	4623.25	4144.6
790.0181	77.6634	8057.6	7574.4
790.1592	79.9231	17150.5	16661.65
790.3003	82.1824	56037.3	55534.6
790.4414	84.4412	65535	65013.05
790.5825	86.6995	65535	64986.25
790.7237	88.9574	65535	64957
790.8648	91.2148	65535	64939.4
791.006	93.4717	65535	64927.35
791.1472	95.7282	65535	64923.75
791.2885	97.9842	65535	64918.25
791.4297	100.2398	65535	64917.05
791.571	102.4949	65535	64911.75
791.7123	104.7495	65535	64905.6
791.8536	107.0036	65535	64906.95
791.9949	109.2573	65535	64906.95
792.1363	111.5105	65535	64907.55
792.2777	113.7632	65535	64904.5
792.4191	116.0154	65535	64895.5
792.5605	118.2672	65535	64900.4
792.7019	120.5185	65535	64902.15
792.8434	122.7693	65535	64895.25
792.9849	125.0197	65535	64892.45
793.1264	127.2696	65535	64888.95
793.2679	129.519	65535	64886.95
793.4094	131.7679	65535	64882.9
793.551	134.0163	65535	64875.15
793.6926	136.2642	65535	64875.35
793.8342	138.5117	65535	64866
793.9758	140.7587	65535	64876.9
794.1175	143.0052	65535	64867.6
794.2591	145.2512	65535	64867.2
794.4008	147.4967	65535	64866.9
794.5425	149.7417	65535	64867
794.6842	151.9863	65535	64865.15
794.826	154.2304	65535	64858.5
794.9677	156.4739	65535	64854.45
795.1095	158.717	65535	64857.15
795.2513	160.9596	65535	64846.3
795.3931	163.2017	65535	64848.7
795.535	165.4433	65535	64845.6
795.6768	167.6844	65535	64845.15
795.8187	169.925	65535	64840.35
795.9606	172.1651	65535	64835.05
796.1025	174.4047	65535	64833.95
796.2445	176.6439	65535	64834.25
796.3864	178.8825	65535	64830.4
796.5284	181.1206	65535	64828.45
796.6704	183.3582	65535	64819.5
796.8124	185.5954	65535	64819.45
796.9544	187.832	65535	64817.1
797.0965	190.0681	65535	64814.55
797.2386	192.3037	65535	64810
797.3806	194.5388	65535	64809.6
797.5228	196.7734	65535	64805.3
797.6649	199.0075	65535	64800.2
797.807	201.2411	65535	64800.35
797.9492	203.4742	65535	64801.8
798.0914	205.7068	65535	64801.6
798.2336	207.9389	65535	64797.75
798.3758	210.1704	65535	64795.15
798.518	212.4015	65535	64795.1
798.6603	214.632	65535	64806.15
798.8025	216.862	65535	64815.1
798.9448	219.0915	65535	64815.6
799.0871	221.3205	65535	64813.5
799.2294	223.549	65535	64817.9
799.3718	225.777	65535	64817.2
799.5141	228.0044	65535	64812.8
799.6565	230.2314	65535	64812.95
799.7989	232.4578	65535	64811.7
799.9413	234.6837	65535	64802.05
800.0837	236.909	65535	64798
800.2262	239.1339	65535	64779.7
800.3687	241.3582	65535	64790
800.5111	243.582	65535	64765.2
800.6536	245.8053	65535	64773.95
800.7961	248.0281	65535	64781.3
800.9387	250.2503	65535	64775
801.0812	252.472	65535	64771.55
801.2238	254.6932	65535	64766.25
801.3664	256.9139	65535	64765.95
801.509	259.134	65535	64764.15
801.6516	261.3536	65535	64761.85
801.7942	263.5727	65535	64764.4
801.9369	265.7912	65535	64765.95
802.0795	268.0092	65535	64762.95
802.2222	270.2267	65535	64761.8
802.3649	272.4436	65535	64764.1
802.5076	274.6601	65535	64753.55
802.6504	276.8759	65535	64760.2
802.7931	279.0913	65535	64755.4
802.9359	281.3061	65535	64754.5
803.0787	283.5204	65535	64750.8
803.2215	285.7341	65535	64748.6
803.3643	287.9473	65535	64736.75
803.5071	290.16	65535	64741.05
803.6499	292.3721	65535	64754.55
803.7928	294.5837	65535	64750.15
803.9357	296.7947	65535	64750.95
804.0786	299.0052	65535	64751.55
804.2215	301.2152	65535	64744.5
804.3644	303.4246	65535	64745.4
804.5074	305.6334	65535	64748.55
804.6503	307.8418	65535	64744.15
804.7933	310.0495	65535	64746.8
804.9363	312.2568	65535	64746.25
805.0793	314.4635	65535	64742.6
805.2223	316.6696	65535	64741.75
805.3653	318.8752	65535	64731.95
805.5084	321.0802	65535	64742.35
805.6514	323.2847	65535	64737.95
805.7945	325.4887	65535	64737
805.9376	327.692	65535	64736.55
806.0807	329.8949	65535	64735.85
806.2238	332.0972	65535	64737.1
806.367	334.2989	65535	64727.5
806.5101	336.5001	65535	64727.85
806.6533	338.7007	65535	64728.45
806.7965	340.9008	65535	64725.75
806.9397	343.1003	65535	64726.55
807.0829	345.2992	65535	64721.95
807.2261	347.4976	65535	64722.05
807.3693	349.6955	65535	64717.15
807.5126	351.8927	65535	64717.7
807.6559	354.0895	65535	64707.95
807.7991	356.2856	65535	64717.05
807.9424	358.4812	65535	64716.15
808.0857	360.6763	65535	64716.5
808.2291	362.8707	65535	64713.2
808.3724	365.0646	65535	64713.6
808.5158	367.258	65535	64710.3
808.6591	369.4508	65535	64708.95
808.8025	371.643	65535	64707.55
808.9459	373.8346	65535	64709.05
809.0893	376.0257	65535	64702.1
809.2327	378.2162	65535	64699.45
809.3762	380.4062	65535	64698.55
809.5196	382.5956	65535	64698.35
809.6631	384.7844	65535	64700.2
809.8066	386.9726	65535	64704.8
809.9501	389.1603	65535	64708.75
810.0936	391.3474	65535	64667.65
810.2371	393.5339	65535	64709.7
810.3806	395.7199	65535	64714.75
810.5241	397.9052	65535	64709.3
810.6677	400.09	65535	64708.1
810.8113	402.2743	65535	64711.9
810.9548	404.4579	65535	64707.4
811.0984	406.641	65535	64705.55
811.2421	408.8235	65535	64711.25
811.3857	411.0054	65535	64704.45
811.5293	413.1868	65535	64702
811.673	415.3675	65535	64697.55
811.8166	417.5477	65535	64698.5
811.9603	419.7273	65535	64696.05
812.104	421.9064	65535	64687.3
812.2477	424.0848	65535	64692.85
812.3914	426.2627	65535	64690.9
812.5351	428.4399	65535	64691.1
812.6788	430.6166	65535	64692.45
812.8226	432.7928	65535	64687.3
812.9663	434.9683	65535	64687
813.1101	437.1432	65535	64680.55
813.2539	439.3176	65535	64684.05
813.3977	441.4914	65535	64686.9
813.5415	443.6645	65535	64688
813.6853	445.8371	65535	64686.4
813.8291	448.0091	65535	64689.2
813.973	450.1806	65535	64689.3
814.1168	452.3514	65535	64683.9
814.2607	454.5216	65535	64678.5
814.4046	456.6913	65535	64685.55
814.5485	458.8603	65535	64682.25
814.6924	461.0288	65535	64684.35
814.8363	463.1967	65535	64684.5
814.9802	465.3639	65535	64681.95
815.1241	467.5306	65535	64682.15
815.2681	469.6967	65535	64681.6
815.412	471.8622	65535	64681.75
815.556	474.0271	65535	64682.35
815.7	476.1914	65535	64680.85
815.844	478.3551	65535	64680.3
815.988	480.5182	65535	64683.35
816.132	482.6807	65535	64680.2
816.276	484.8426	65535	64685.7
816.4201	487.0039	65535	64681
816.5641	489.1647	65535	64680.95
816.7082	491.3248	65535	64679.45
816.8522	493.4843	65535	64677.8
816.9963	495.6432	65535	64678.05
817.1404	497.8015	65535	64673.5
817.2845	499.9592	65535	64674.8
817.4286	502.1163	65535	64676.05
817.5727	504.2728	65535	64674.25
817.7168	506.4287	65535	64678.4
817.861	508.5839	65535	64674.95
818.0051	510.7386	65535	64674.95
818.1493	512.8927	65535	64667.7
818.2935	515.0461	65535	64671.1
818.4377	517.199	65535	64670.5
818.5818	519.3512	65535	64674.5
818.726	521.5029	65535	64664.35
818.8703	523.6539	65535	64667.45
819.0145	525.8043	65535	64668.6
819.1587	527.9541	65535	64665.05
819.303	530.1033	65535	64667.85
819.4472	532.2519	65535	64666.75
819.5915	534.3999	65535	64665.05
819.7357	536.5472	65535	64665.85
819.88	538.694	65535	64669.85
820.0243	540.8401	65535	64664.55
820.1686	542.9856	65535	64659.8
820.3129	545.1305	65535	64663.85
820.4572	547.2748	65535	64663.3
820.6016	549.4185	65535	64663.05
820.7459	551.5615	65535	64659.85
820.8902	553.704	65535	64661.25
821.0346	555.8458	65535	64662.7
821.1789	557.987	65535	64660.1
821.3233	560.1276	65535	64660.5
821.4677	562.2675	65535	64662.55
821.6121	564.4069	65535	64661.35
821.7565	566.5456	65535	64660.4
821.9009	568.6837	65535	64662.3
822.0453	570.8212	65535	64658.5
822.1897	572.958	65535	64657.25
822.3342	575.0942	65535	64664.05
822.4786	577.2299	65535	64663.3
822.6231	579.3648	65535	64662.9
822.7675	581.4992	65535	64663.65
822.912	583.6329	65535	64664.7
823.0565	585.766	65535	64663.15
823.201	587.8985	65535	64665.1
823.3454	590.0304	65535	64637.4
823.4899	592.1616	65535	64658.7
823.6345	594.2922	65535	64657.9
823.779	596.4222	65535	64656.5
823.9235	598.5515	65535	64655.6
824.068	600.6802	65535	64657.4
824.2126	602.8083	65535	64658.1
824.3571	604.9358	65535	64657.65
824.5017	607.0626	65535	64656.8
824.6462	609.1888	65535	64654.45
824.7908	611.3144	65535	64653.9
824.9354	613.4393	65535	64654.95
825.08	615.5636	65535	64654.7
825.2246	617.6873	65535	64656.15
825.3692	619.8103	65535	64653.6
825.5138	621.9327	65535	64651.4
825.6584	624.0544	65535	64655.6
825.803	626.1756	65535	64652.1
825.9477	628.2961	65535	64651.65
826.0923	630.4159	65535	64653.05
826.237	632.5351	65535	64653.8
826.3816	634.6537	65535	64652.4
826.5263	636.7716	65535	64647.45
826.6709	638.8889	65535	64650.5
826.8156	641.0056	65535	64647.1
826.9603	643.1216	65535	64646.9
827.105	645.237	65535	64648.25
827.2497	647.3518	65535	64654.65
827.3944	649.4659	65535	64651.95
827.5391	651.5793	65535	64649.45
827.6838	653.6922	65535	64652.35
827.8285	655.8043	65535	64650.35
827.9733	657.9159	65535	64648.45
828.118	660.0268	65535	64647.7
828.2627	662.137	65535	64645.15
828.4075	664.2466	65535	64645.5
828.5522	666.3556	65535	64646.15
828.697	668.4639	65535	64644.6
828.8418	670.5716	65535	64646.85
828.9865	672.6786	65535	64644.9
829.1313	674.785	65535	64643.8
829.2761	676.8907	65535	64645.9
829.4209	678.9958	65535	64645.95
829.5657	681.1002	65535	64644.85
829.7105	683.204	65535	64640.25
829.8553	685.3072	65535	64641.85
830.0001	687.4097	65535	64641.6
830.1449	689.5115	65535	64642.2
830.2898	691.6127	65535	64646.8
830.4346	693.7132	65535	64643.65
830.5794	695.8131	65535	64635.25
830.7243	697.9123	65535	64640.5
830.8691	700.0109	65535	64639.7
831.014	702.1089	65535	64643.7
831.1588	704.2061	65535	64643
831.3037	706.3028	65535	64642.5
831.4486	708.3987	65535	64642.2
831.5935	710.4941	65535	64642.45
831.7383	712.5887	65535	64642.3
831.8832	714.6827	65535	64639.75
832.0281	716.7761	65535	64643.75
832.173	718.8688	65535	64640.9
832.3179	720.9608	65535	64635.35
832.4628	723.0522	65535	64635.8
832.6077	725.1429	65535	64640.85
832.7527	727.233	65535	64637.9
832.8976	729.3224	65535	64638.85
833.0425	731.4112	65535	64638.4
833.1874	733.4993	65535	64635.95
833.3324	735.5867	65535	64641.15
833.4773	737.6735	65535	64637.25
833.6222	739.7596	65535	64637.7
833.7672	741.845	65535	64638.8
833.9122	743.9298	65535	64637.55
834.0571	746.014	65535	64637.75
834.2021	748.0974	65535	64638.4
834.347	750.1802	65535	64635.65
834.492	752.2624	65535	64636.95
834.637	754.3439	65535	64635.9
834.782	756.4247	65535	64630.2
834.9269	758.5048	65535	64637.85
835.0719	760.5843	65535	64637.45
835.2169	762.6631	65535	64635.3
835.3619	764.7413	65535	64638.05
835.5069	766.8188	65535	64634.8
835.6519	768.8956	65535	64631.45
835.7969	770.9718	65535	64634.75
835.9419	773.0473	65535	64636.95
836.0869	775.1221	65535	64639.15
836.232	777.1962	65535	64636.35
836.377	779.2697	65535	64635.05
836.522	781.3426	65535	64618.8
836.667	783.4147	65535	64635.85
836.8121	785.4862	65535	64638.65
836.9571	787.557	65535	64635.25
837.1021	789.6271	65535	64637.85
837.2472	791.6966	65535	64637.75
837.3922	793.7654	65535	64633.2
837.5373	795.8335	65535	64635.8
837.6823	797.901	65535	64634.55
837.8274	799.9678	65535	64632.05
837.9724	802.0339	65535	64638.15
838.1175	804.0993	65535	64625.75
838.2626	806.1641	65535	64634.25
838.4076	808.2282	65535	64637.55
838.5527	810.2916	65535	64631.55
838.6978	812.3544	65535	64637.6
838.8428	814.4164	65535	64634.95
838.9879	816.4778	65535	64632.9
839.133	818.5385	65535	64636
839.2781	820.5986	65535	64631.9
839.4232	822.658	65535	64633.15
839.5682	824.7166	65535	64636.3
839.7133	826.7747	65535	64637.1
839.8584	828.832	65535	64634.85
840.0035	830.8886	65535	64634.35
840.1486	832.9446	65535	64629.55
840.2937	834.9999	65535	64635.7
840.4388	837.0545	65535	64628.6
840.5839	839.1085	65535	64631.8
840.729	841.1618	65535	64630.9
840.8741	843.2143	65535	64632.75
841.0192	845.2662	65535	64631.6
841.1643	847.3175	65535	64635.05
841.3095	849.368	65535	64632.8
841.4546	851.4179	65535	64636.1
841.5997	853.467	65535	64632.65
841.7448	855.5155	65535	64630.65
841.8899	857.5633	65535	64633.5
842.0351	859.6105	65535	64631.35
842.1802	861.6569	65535	64631.6
842.3253	863.7027	65535	64628.45
842.4704	865.7478	65535	64632.6
842.6156	867.7922	65535	64632
842.7607	869.8359	65535	64631.6
842.9058	871.8789	65535	64633.55
843.0509	873.9212	65535	64599.1
843.1961	875.9629	65535	64631.9
843.3412	878.0039	65535	64631.05
843.4863	880.0441	65535	64631.25
843.6315	882.0837	65535	64631.35
843.7766	884.1226	65535	64632.6
843.9218	886.1609	65535	64629.95
844.0669	888.1984	65535	64632.3
844.212	890.2352	65535	64631.15
844.3572	892.2714	65535	64627.6
844.5023	894.3069	65535	64630.45
844.6475	896.3416	65535	64629.5
844.7926	898.3757	65535	64631.1
844.9377	900.4091	65535	64628.5
845.0829	902.4418	65535	64625.65
845.228	904.4739	65535	64628.35
845.3732	906.5052	65535	64631.65
845.5183	908.5358	65535	64630
845.6635	910.5658	65535	64627.55
845.8086	912.595	65535	64630.3
845.9538	914.6236	65535	64629.5
846.0989	916.6515	65535	64629.6
846.2441	918.6786	65535	64628.05
846.3892	920.7051	65535	64628.8
846.5344	922.7309	65535	64628.45
846.6795	924.756	65535	64631.15
846.8246	926.7804	65535	64626.85
846.9698	928.8041	65535	64623.2
847.1149	930.8272	65535	64630
847.2601	932.8495	65535	64627.5
847.4052	934.8711	65535	64628.85
847.5504	936.892	65535	64628.3
847.6955	938.9123	65535	64626.55
847.8407	940.9318	65535	64628.9
847.9858	942.9506	65535	64628
848.131	944.9688	65535	64628.25
848.2761	946.9862	65535	64631.05
848.4213	949.003	65535	64628.05
848.5664	951.019	65535	64630.2
848.7115	953.0344	65535	64629.75
848.8567	955.0491	65535	64627.75
849.0018	957.063	65535	64630.7
849.147	959.0763	65535	64632.85
849.2921	961.0888	65535	64626.4
849.4373	963.1007	65535	64626.45
849.5824	965.1119	65535	64629.9
849.7275	967.1223	65535	64631.6
849.8727	969.1321	65535	64631.75
850.0178	971.1412	65535	64631.25
850.1629	973.1495	65535	64630.3
850.3081	975.1572	65535	64580.6
850.4532	977.1641	65535	64629.2
850.5983	979.1704	65535	64628.35
850.7435	981.1759	65535	64627.8
850.8886	983.1808	65535	64628.55
851.0337	985.1849	65535	64621.8
851.1788	987.1884	65535	64626.95
851.324	989.1911	65535	64626.35
851.4691	991.1932	65535	64629.9
851.6142	993.1945	65535	64629.2
851.7593	995.1951	65535	64628.6
851.9045	997.1951	65535	64624.6
852.0496	999.1943	65535	64626.5
852.1947	1001.1928	65535	64626.95
852.3398	1003.1906	65535	64629.65
852.4849	1005.1877	65535	64626.7
852.63	1007.1841	65535	64628.65
852.7751	1009.1798	65535	64628.85
852.9202	1011.1748	65535	64630.35
853.0653	1013.1691	65535	64630.1
853.2104	1015.1627	65535	64628.85
853.3555	1017.1556	65535	64627.45
853.5006	1019.1477	65535	64627.6
853.6457	1021.1392	65535	64632.05
853.7908	1023.1299	65535	64632.65
853.9359	1025.12	65535	64629.75
854.081	1027.1093	65535	64634.15
854.2261	1029.0979	65535	64634.15
854.3712	1031.0859	65535	64632.3
854.5163	1033.0731	65535	64630
854.6613	1035.0596	65535	64630.85
854.8064	1037.0454	65535	64631.2
854.9515	1039.0304	65535	64628.5
855.0965	1041.0148	65535	64630.95
855.2416	1042.9985	65535	64630.4
855.3867	1044.9814	65535	64632.9
855.5317	1046.9636	65535	64629.05
855.6768	1048.9452	65535	64630.95
855.8219	1050.926	65535	64629.5
855.9669	1052.9061	65535	64630.95
856.112	1054.8855	65535	64630.25
856.257	1056.8642	65535	64629.65
856.4021	1058.8421	65535	64623.5
856.5471	1060.8194	65535	64629.35
856.6921	1062.7959	65535	64629.9
856.8372	1064.7717	65535	64632.9
856.9822	1066.7469	65535	64628.55
857.1272	1068.7213	65535	64626.55
857.2723	1070.695	65535	64627.85
857.4173	1072.6679	65535	64629.15
857.5623	1074.6402	65535	64628.1
857.7073	1076.6117	65535	64624.4
857.8523	1078.5826	65535	64629.9
857.9973	1080.5527	65535	64628.25
858.1423	1082.5221	65535	64628.1
858.2873	1084.4908	65535	64629.9
858.4323	1086.4587	65535	64629.5
858.5773	1088.426	65535	64630.15
858.7223	1090.3925	65535	64623.6
858.8673	1092.3584	65535	64630.5
859.0123	1094.3235	65535	64630.8
859.1573	1096.2879	65535	64626.9
859.3022	1098.2515	65535	64628.9
859.4472	1100.2145	65535	64631.6
859.5922	1102.1767	65535	64628.95
859.7371	1104.1382	65535	64630.05
859.8821	1106.099	65535	64626.2
860.027	1108.0591	65535	64629.5
860.172	1110.0185	65535	64627.6
860.3169	1111.9771	65535	64629.7
860.4619	1113.9351	65535	64629.05
860.6068	1115.8923	65535	64628.95
860.7517	1117.8488	65535	64626.8
860.8967	1119.8045	65535	64630.6
861.0416	1121.7596	65535	64625.85
861.1865	1123.7139	65535	64630.85
861.3314	1125.6675	65535	64630.25
861.4763	1127.6204	65535	64626.85
861.6212	1129.5726	65535	64625.95
861.7661	1131.524	65535	64630.55
861.911	1133.4748	65535	64630.7
862.0559	1135.4248	65535	64628.15
862.2008	1137.3741	65535	64628.7
862.3457	1139.3226	65535	64626.65
862.4905	1141.2705	65535	64629.25
862.6354	1143.2176	65535	64624
862.7803	1145.164	65535	64626.6
862.9251	1147.1097	65535	64627.75
863.07	1149.0546	65535	64629.05
863.2148	1150.9989	65535	64630.35
863.3597	1152.9424	65535	64628.55
863.5045	1154.8852	65535	64630.4
863.6493	1156.8272	65535	64630.85
863.7942	1158.7686	65535	64624.15
863.939	1160.7092	65535	64627.25
864.0838	1162.6491	65535	64628.65
864.2286	1164.5883	65535	64631.6
864.3734	1166.5267	65535	64626.65
864.5182	1168.4644	65535	64628.4
864.663	1170.4014	65535	64622.45
864.8078	1172.3377	65535	64631.25
864.9526	1174.2732	65535	64629.45
865.0974	1176.2081	65535	64630.6
865.2421	1178.1421	65535	64625.5
865.3869	1180.0755	65535	64630
865.5317	1182.0082	65535	64632.35
865.6764	1183.9401	65535	64628.9
865.8212	1185.8713	65535	64631.95
865.9659	1187.8017	65535	64630.75
866.1106	1189.7315	65535	64633.25
866.2554	1191.6605	65535	64605.5
866.4001	1193.5888	65535	64629.65
866.5448	1195.5163	65535	64631.75
866.6895	1197.4432	65535	64630.5
866.8342	1199.3693	65535	64632.3
866.9789	1201.2947	65535	64627.35
867.1236	1203.2193	65535	64632.4
867.2683	1205.1432	65535	64628.55
867.413	1207.0664	65535	64629.3
867.5576	1208.9889	65535	64626.75
867.7023	1210.9106	65535	64631.6
867.847	1212.8316	65535	64631.95
867.9916	1214.7519	65535	64620.5
868.1363	1216.6715	65535	64630.5
868.2809	1218.5903	65535	64629.6
868.4255	1220.5084	65535	64630.65
868.5701	1222.4257	65535	64630.65
868.7148	1224.3424	65535	64633.1
868.8594	1226.2583	65535	64626.9
869.004	1228.1735	65535	64629.4
869.1486	1230.0879	65535	64630.05
869.2932	1232.0016	65535	64631
869.4377	1233.9146	65535	64627.2
869.5823	1235.8269	65535	64631
869.7269	1237.7384	65535	64630.35
869.8715	1239.6492	65535	64631.95
870.016	1241.5592	65535	64632.55
870.1606	1243.4686	65535	64630.55
870.3051	1245.3772	65535	64629.95
870.4496	1247.285	65535	64630.35
870.5941	1249.1922	65535	64630.45
870.7387	1251.0986	65535	64631.55
870.8832	1253.0042	65535	64631.05
871.0277	1254.9092	65535	64632.75
871.1722	1256.8134	65535	64632.65
871.3167	1258.7169	65535	64627.75
871.4611	1260.6196	65535	64631.8
871.6056	1262.5216	65535	64629.05
871.7501	1264.4229	65535	64629.6
871.8945	1266.3234	65535	64632.9
872.039	1268.2232	65535	64632.15
872.1834	1270.1223	65535	64631.3
872.3278	1272.0207	65535	64631.05
872.4723	1273.9183	65535	64623.3
872.6167	1275.8151	65535	64631.7
872.7611	1277.7113	65535	64631.7
872.9055	1279.6067	65535	64630
873.0499	1281.5014	65535	64628.85
873.1943	1283.3953	65535	64630
873.3386	1285.2885	65535	64632.55
873.483	1287.181	65535	64631.25
873.6274	1289.0727	65535	64634.1
873.7717	1290.9637	65535	64633.4
873.9161	1292.854	65535	64630.85
874.0604	1294.7435	65535	64630.1
874.2047	1296.6323	65535	64631.95
874.349	1298.5204	65535	64629.2
874.4933	1300.4077	65535	64629.85
874.6376	1302.2943	65535	64633.8
874.7819	1304.1802	65535	64630.6
874.9262	1306.0653	65535	64630.8
875.0705	1307.9497	65535	64630.95
875.2147	1309.8333	65535	64632.05
875.359	1311.7162	65535	64630.95
875.5032	1313.5984	65535	64627.45
875.6475	1315.4798	65535	64618.5
875.7917	1317.3605	65535	64617.35
875.9359	1319.2405	65535	64631
876.0801	1321.1197	65535	64629.85
876.2243	1322.9982	65535	64628.3
876.3685	1324.876	65535	64632.85
876.5127	1326.753	65535	64631.55
876.6569	1328.6293	65535	64629.3
876.801	1330.5048	65535	64628.35
876.9452	1332.3796	65535	64632.9
877.0893	1334.2537	65535	64607.65
877.2335	1336.127	65535	64631.65
877.3776	1337.9996	65535	64629.6
877.5217	1339.8714	65535	64628.1
877.6658	1341.7426	65535	64588.15
877.8099	1343.6129	65535	64631.2
877.954	1345.4826	65535	64632.45
878.0981	1347.3515	65535	64626.2
878.2422	1349.2196	65535	64630.4
878.3862	1351.087	65535	64632.1
878.5303	1352.9537	65535	64628.45
878.6743	1354.8197	65535	64631.6
878.8184	1356.6849	65535	64632
878.9624	1358.5493	65535	64631.6
879.1064	1360.4131	65535	64629.65
879.2504	1362.276	65535	64630.15
879.3944	1364.1383	65535	64629.8
879.5384	1365.9998	65535	64626.15
879.6823	1367.8606	65535	64630.6
879.8263	1369.7206	65535	64630.85
879.9702	1371.5799	65535	64628.8
880.1142	1373.4384	65535	64631.55
880.2581	1375.2962	65535	64629.4
880.402	1377.1533	65535	64632.5
880.5459	1379.0096	65535	64632.2
880.6898	1380.8652	65535	64632.45
880.8337	1382.7201	65535	64631.4
880.9776	1384.5742	65535	64630.55
881.1215	1386.4275	65535	64632
881.2653	1388.2802	65535	64632.9
881.4092	1390.132	65535	64631.25
881.553	1391.9832	65535	64629.8
881.6968	1393.8336	65535	64632.55
881.8406	1395.6832	65535	64629.4
881.9844	1397.5322	65535	64633.2
882.1282	1399.3803	65535	64625.6
882.272	1401.2278	65535	64630.2
882.4158	1403.0745	65535	64630.25
882.5595	1404.9204	65535	64633.05
882.7033	1406.7656	65535	64629.9
882.847	1408.6101	65535	64630.2
882.9908	1410.4538	65535	64631.25
883.1345	1412.2968	65535	64632.75
883.2782	1414.139	65535	64630.25
883.4219	1415.9805	65535	64631.35
883.5656	1417.8213	65535	64625.25
883.7092	1419.6613	65535	64632.9
883.8529	1421.5006	65535	64631.6
883.9965	1423.3391	65535	64631.1
884.1402	1425.1769	65535	64633.3
884.2838	1427.0139	65535	64630.8
884.4274	1428.8502	65535	64630.15
884.571	1430.6858	65535	64630.75
884.7146	1432.5206	65535	64628.95
884.8582	1434.3547	65535	64631.9
885.0018	1436.188	65535	64631.55
885.1453	1438.0206	65535	64630.35
885.2889	1439.8524	65535	64630.05
885.4324	1441.6835	65535	64631.2
885.5759	1443.5139	65535	64628
885.7194	1445.3435	65535	64633.3
885.8629	1447.1724	65535	64633.95
886.0064	1449.0005	65535	64634.7
886.1499	1450.8279	65535	64630.95
886.2933	1452.6545	65535	64633.35
886.4368	1454.4804	65535	64633.5
886.5802	1456.3056	65535	64625.75
886.7237	1458.13	65535	64634.95
886.8671	1459.9536	65535	64633.25
887.0105	1461.7766	65535	64633.45
887.1539	1463.5987	65535	64632.1
887.2972	1465.4202	65535	64631.5
887.4406	1467.2409	65535	64632.3
887.584	1469.0608	65535	64632.5
887.7273	1470.88	65535	64630.55
887.8706	1472.6984	65535	64631.5
888.0139	1474.5161	65535	64630.8
888.1572	1476.3331	65535	64635.7
888.3005	1478.1493	65535	64634.1
888.4438	1479.9648	65535	64635.35
888.5871	1481.7795	65535	64632.6
888.7303	1483.5935	65535	64632.3
888.8736	1485.4067	65535	64630.35
889.0168	1487.2192	65535	64629
889.16	1489.031	65535	64630.05
889.3032	1490.842	65535	64633.85
889.4464	1492.6522	65535	64635.55
889.5896	1494.4618	65535	64633.3
889.7327	1496.2705	65535	64632.65
889.8759	1498.0785	65535	64630.65
890.019	1499.8858	65535	64630.25
890.1622	1501.6924	65535	64633
890.3053	1503.4981	65535	64632.7
890.4484	1505.3032	65535	64633.55
890.5914	1507.1075	65535	64633.7
890.7345	1508.911	65535	64631.05
890.8776	1510.7138	65535	64631.95
891.0206	1512.5159	65535	64632.2
891.1637	1514.3172	65535	64631.35
891.3067	1516.1178	65535	64633.65
891.4497	1517.9176	65535	64631.55
891.5927	1519.7166	65535	64632.75
891.7357	1521.515	65535	64628.25
891.8786	1523.3126	65535	64632.3
892.0216	1525.1094	65535	64630.15
892.1645	1526.9055	65535	64634.4
892.3074	1528.7008	65535	64634.25
892.4503	1530.4954	65535	64626
892.5932	1532.2893	65535	64635.1
892.7361	1534.0824	65535	64627.6
892.879	1535.8747	65535	64635.3
893.0218	1537.6663	65535	64634.3
893.1647	1539.4572	65535	64633.15
893.3075	1541.2473	65535	64633.8
893.4503	1543.0367	65535	64635.85
893.5931	1544.8253	65535	64632.05
893.7359	1546.6132	65535	64630.4
893.8787	1548.4003	65535	64624.55
894.0214	1550.1867	65535	64626.5
894.1642	1551.9723	65535	64629.15
894.3069	1553.7572	65535	64633.15
894.4496	1555.5414	65535	64633.4
894.5923	1557.3247	65535	64635.4
894.735	1559.1074	65535	64637.55
894.8777	1560.8893	65535	64636.45
895.0204	1562.6705	65535	64635.2
895.163	1564.4509	65535	64637.75
895.3056	1566.2305	65535	64636.85
895.4482	1568.0094	65535	64637.55
895.5908	1569.7876	65535	64636.85
895.7334	1571.565	65535	64634.35
895.876	1573.3417	65535	64636.45
896.0186	1575.1176	65535	64635.25
896.1611	1576.8928	65535	64636.25
896.3036	1578.6672	65535	64634.25
896.4461	1580.4409	65535	64639.15
896.5886	1582.2138	65535	64634.35
896.7311	1583.986	65535	64634.65
896.8736	1585.7575	65535	64638.85
897.0161	1587.5282	65535	64639.25
897.1585	1589.2981	65535	64639.5
897.3009	1591.0673	65535	64637.05
897.4433	1592.8358	65535	64636.6
897.5857	1594.6035	65535	64635.05
897.7281	1596.3704	65535	64635.65
897.8705	1598.1366	65535	64637.45
898.0128	1599.9021	65535	64638.35
898.1551	1601.6668	65535	64635.75
898.2975	1603.4308	65535	64635.55
898.4398	1605.194	65535	64634.35
898.5821	1606.9564	65535	64639.65
898.7243	1608.7182	65535	64635.95
898.8666	1610.4791	65535	64640
899.0088	1612.2394	65535	64639.9
899.1511	1613.9988	65532.7	64637.55
899.2933	1615.7576	65535	64638.55
899.4355	1617.5156	65535	64630.65
899.5776	1619.2728	65535	64636.95
899.7198	1621.0293	65534.75	64640.6
899.862	1622.785	65535	64635.4
900.0041	1624.54	65535	64633
900.1462	1626.2942	65529.3	64629.2
900.2883	1628.0477	65515.9	64616.75
900.4304	1629.8005	65458.4	64559.2
900.5725	1631.5525	65521.3	64624.55
900.7145	1633.3037	65437.85	64540.1
900.8566	1635.0542	65428.2	64531.05
900.9986	1636.804	65480.75	64584.6
901.1406	1638.553	65318.35	64341.15
901.2826	1640.3013	65385.95	64489.7
901.4245	1642.0488	65274.7	64377.5
901.5665	1643.7955	65384.85	64490.4
901.7085	1645.5416	65295.1	64398.45
901.8504	1647.2868	65175.05	64278.5
901.9923	1649.0313	65344.55	64448.4
902.1342	1650.7751	65237.15	64337.95
902.2761	1652.5181	65154.85	64259.7
902.4179	1654.2604	65199.65	64301.8
902.5598	1656.0019	65247.75	64353.65
902.7016	1657.7427	65210.45	64313.85
902.8434	1659.4828	65347.2	64452.55
902.9852	1661.222	65187.75	64290.1
903.127	1662.9606	65359.05	64463.3
903.2687	1664.6984	65128.65	64232.7
903.4105	1666.4354	65221.35	64325.1
903.5522	1668.1717	64951.85	64055.85
903.6939	1669.9072	64418.05	63521.75
903.8356	1671.642	64431.8	63533.4
903.9773	1673.3761	64227.3	63333.25
904.119	1675.1094	64112.15	63217.2
904.2606	1676.8419	63314.9	62419.7
904.4022	1678.5737	63708.25	62812.8
904.5439	1680.3048	63312.25	62416.7
904.6855	1682.0351	62998.75	62102.35
904.827	1683.7646	62681.65	61781.6
904.9686	1685.4934	63033.4	62137.8
905.1101	1687.2215	61436.35	60540.6
905.2517	1688.9488	62637.1	61741.45
905.3932	1690.6754	60402.5	59509
905.5347	1692.4012	61440.45	60545.6
905.6761	1694.1263	61576.75	60680.1
905.8176	1695.8506	60649.9	59753.9
905.9591	1697.5742	60777	59881.35
906.1005	1699.297	60537.3	59640.3
906.2419	1701.0191	60665.2	59770.65
906.3833	1702.7404	59629.4	58734.85
906.5246	1704.461	59265.95	58368.55
906.666	1706.1808	59737.35	58840.75
906.8073	1707.8999	59461.2	58565.35
906.9487	1709.6182	59102.8	58208.6
907.09	1711.3358	59020.9	58125.15
907.2313	1713.0527	58860.85	57969.4
907.3725	1714.7688	58883.8	57984
907.5138	1716.4841	57797.45	56900.3
907.655	1718.1987	58228.1	57327.4
907.7962	1719.9126	57895.3	57001.95
907.9374	1721.6257	57991.45	57095.5
908.0786	1723.338	58017.55	57124.15
908.2198	1725.0496	56926	56032.45
908.3609	1726.7605	56920.4	56024.1
908.502	1728.4706	56656.15	55759.35
908.6431	1730.18	56866.55	55971.1
908.7842	1731.8886	56504.4	55611.7
908.9253	1733.5964	56116	55200.6
909.0664	1735.3036	56534.45	55638.6
909.2074	1737.0099	56156.05	55261.25
909.3484	1738.7156	55693.1	54800.85
909.4894	1740.4204	55516.15	54623.2
909.6304	1742.1246	55626.6	54731.1
909.7714	1743.8279	55534.1	54639.6
909.9123	1745.5306	55505.55	54611.95
910.0532	1747.2325	54584.45	53689.65
910.1941	1748.9336	54577.85	53683.25
910.335	1750.634	54512.9	53614.75
910.4759	1752.3336	54729.9	53837.5
910.6168	1754.0325	54141.85	53249.6
910.7576	1755.7307	54497.85	53603.85
910.8984	1757.4281	53913.75	53018.85
911.0392	1759.1247	54252.8	53348.45
911.18	1760.8206	53644.5	52744.95
911.3208	1762.5158	53625.35	52727.35
911.4615	1764.2102	53525.85	52632.4
911.6022	1765.9039	53366.25	52472
911.7429	1767.5968	53245	52351.4
911.8836	1769.289	53068.75	52175.35
912.0243	1770.9804	53002.25	52106.6
912.1649	1772.6711	52855.55	51961.75
912.3056	1774.361	52644.4	51748.4
912.4462	1776.0502	52528.15	51633.9
912.5868	1777.7386	52213.75	51316.6
912.7274	1779.4263	52181.15	51287.25
912.8679	1781.1132	52166.5	51272.35
913.0084	1782.7994	51917.55	51024
913.149	1784.4849	51945.2	51051.35
913.2895	1786.1696	51447.55	50547.65
913.4299	1787.8535	51423.1	50530.55
913.5704	1789.5367	51407.05	50514.45
913.7108	1791.2192	51157.05	50264.7
913.8513	1792.9009	50986.7	50064.05
913.9917	1794.5818	50942.5	50046.75
914.132	1796.2621	50746.85	49853.95
914.2724	1797.9415	50660.75	49766.05
914.4128	1799.6202	50479.75	49588.85
914.5531	1801.2982	50413.75	49519.9
914.6934	1802.9755	50190.5	49295.3
914.8337	1804.6519	50187.55	49292.1
914.9739	1806.3277	50032	49140.2
915.1142	1808.0027	49525.75	48633.55
915.2544	1809.6769	49637.55	48745.65
915.3946	1811.3504	49536.95	48644.25
915.5348	1813.0231	49239.95	48347.2
915.675	1814.6951	49243.15	48349.65
915.8151	1816.3664	49214.05	48318.8
915.9553	1818.0369	49040.35	48147.1
916.0954	1819.7067	48875.8	47981.8
916.2355	1821.3757	48875.95	47981.55
916.3755	1823.044	48601.8	47707.55
916.5156	1824.7115	48426.4	47534.1
916.6556	1826.3783	48322.75	47429.4
916.7956	1828.0443	48159.25	47268.25
916.9356	1829.7096	48009.05	47111.7
917.0756	1831.3741	47906.4	47008.15
917.2155	1833.0379	47787.45	46895.6
917.3555	1834.701	47643.15	46749.25
917.4954	1836.3633	47508.25	46613.9
917.6353	1838.0248	47468.45	46572.75
917.7751	1839.6856	47307.4	46413.7
917.915	1841.3457	47173.6	46283.1
918.0548	1843.005	47096.1	46202.4
918.1946	1844.6636	46932.75	46039.3
918.3344	1846.3214	46844.55	45952.25
918.4742	1847.9785	46784.3	45890.95
918.6139	1849.6349	46668.25	45773.25
918.7537	1851.2904	46558	45655.05
918.8934	1852.9453	46397.35	45502.45
919.0331	1854.5994	46225.4	45330.85
919.1727	1856.2528	46241.9	45345.2
919.3124	1857.9054	46078.35	45184.75
919.452	1859.5572	45984.05	45091.75
919.5916	1861.2083	45885.75	44992.45
919.7312	1862.8587	45923.8	45030.25
919.8708	1864.5084	45640.75	44746.55
920.0103	1866.1572	45513.4	44622.65
920.1498	1867.8054	45236.1	44342
920.2893	1869.4528	45227.7	44331.85
920.4288	1871.0994	45092.25	44199.75
920.5683	1872.7453	44994.45	44099.5
920.7077	1874.3905	44874	43974.6
920.8471	1876.0349	44709.2	43815.2
920.9865	1877.6786	44681.25	43787.2
921.1259	1879.3215	44606.25	43714.05
921.2653	1880.9637	44531.2	43638.65
921.4046	1882.6051	44448.3	43554.75
921.5439	1884.2458	44313.9	43418
921.6832	1885.8858	44085.25	43191.55
921.8225	1887.525	44008.6	43115.85
921.9617	1889.1634	43825.45	42933.3
922.101	1890.8011	43623.95	42727.85
922.2402	1892.4381	43516.3	42623.7
922.3794	1894.0743	43468.65	42574.55
922.5185	1895.7098	43313.2	42421.15
922.6577	1897.3446	43221.85	42328.8
922.7968	1898.9786	43084.75	42186.65
922.9359	1900.6118	42959.75	42067.6
923.075	1902.2443	42702.9	41808.4
923.214	1903.8761	42642.45	41750
923.3531	1905.5071	42352.75	41460.85
923.4921	1907.1374	42268.2	41374.3
923.6311	1908.7669	42185.4	41293.65
923.77	1910.3957	42134.85	41242.2
923.909	1912.0237	41828.7	40933.35
924.0479	1913.651	41758.85	40865.25
924.1868	1915.2776	41682	40791
924.3257	1916.9034	41433.5	40542.1
924.4646	1918.5285	41250.25	40357.2
924.6034	1920.1528	41068.9	40176.85
924.7422	1921.7764	41047.6	40155.05
924.881	1923.3992	40882	39992.1
925.0198	1925.0213	40575.9	39683.25
925.1586	1926.6427	40428.65	39537.35
925.2973	1928.2633	40449.6	39440.75
925.436	1929.8832	40164.95	39269.55
925.5747	1931.5023	39992.9	39102.15
925.7134	1933.1207	39927.85	39033.4
925.852	1934.7383	39886	38993.1
925.9906	1936.3552	39700.95	38808.75
926.1292	1937.9714	39582.55	38689.05
926.2678	1939.5868	39324	38428.75
926.4064	1941.2015	39113.45	38220.3
926.5449	1942.8154	39015.5	38122.9
926.6834	1944.4286	38859.1	37967.35
926.8219	1946.041	38715.45	37804.25
926.9604	1947.6528	38490.75	37593.4
927.0988	1949.2637	38429.1	37536.7
927.2372	1950.8739	38261.55	37369.5
927.3756	1952.4834	38163.45	37270.9
927.514	1954.0921	38116	37222.95
927.6523	1955.7001	37945.65	37050.3
927.7907	1957.3074	37801.35	36909.5
927.929	1958.9139	37622.95	36732
928.0673	1960.5197	37509.45	36615.8
928.2055	1962.1247	37368.65	36476.9
928.3438	1963.729	37204.4	36314.3
928.482	1965.3325	37048.3	36135
928.6202	1966.9353	36947.45	36055.85
928.7584	1968.5374	36792.15	35900.4
928.8965	1970.1387	36676.55	35784.6
929.0346	1971.7393	36482.25	35590.05
929.1727	1973.3392	36388.35	35496.75
929.3108	1974.9383	36277.9	35386.6
929.4489	1976.5366	36076.15	35183
929.5869	1978.1342	36052.65	35162
929.7249	1979.7311	35925.6	35032
929.8629	1981.3273	35825.9	34934
930.0009	1982.9227	35676.25	34783
930.1388	1984.5173	35515.95	34625.5
930.2767	1986.1112	35348.1	34457.35
930.4146	1987.7044	35359.3	34468.8
930.5525	1989.2968	35200.3	34307.35
930.6904	1990.8885	35141.7	34245.1
930.8282	1992.4795	35030.9	34136.6
930.966	1994.0697	34871.9	33979.2
931.1038	1995.6592	34742.65	33853.1
931.2415	1997.2479	34586.3	33694.6
931.3793	1998.8359	34481.6	33591.05
931.517	2000.4232	34328.85	33438.7
931.6547	2002.0097	34295	33404.05
931.7923	2003.5955	34076.55	33184.3
931.93	2005.1805	34026.4	33131.45
932.0676	2006.7648	33911.25	33020.95
932.2052	2008.3484	33787.2	32893.25
932.3427	2009.9312	33832.95	32941.85
932.4803	2011.5133	33649.6	32760.25
932.6178	2013.0946	33524.75	32633.8
932.7553	2014.6752	33410.35	32520.95
932.8928	2016.2551	33320.1	32428.05
933.0302	2017.8342	33157.75	32267.3
933.1676	2019.4126	32991.3	32100.75
933.305	2020.9902	32888.85	31999.15
933.4424	2022.5672	32807	31914.8
933.5798	2024.1433	32799.55	31904.1
933.7171	2025.7188	32629	31740.5
933.8544	2027.2935	32508.95	31618.85
933.9917	2028.8674	32375.3	31484.2
934.129	2030.4406	32324.05	31434.25
934.2662	2032.0131	32121.45	31234.2
934.4034	2033.5849	31964.55	31064.2
934.5406	2035.1559	31940.9	31051.55
934.6778	2036.7261	31865.05	30973.45
934.8149	2038.2957	31741.6	30850.9
934.952	2039.8645	31695.15	30804.65
935.0891	2041.4325	31692.85	30800.65
935.2262	2042.9998	31579.5	30688.05
935.3632	2044.5664	31457.85	30565.35
935.5002	2046.1323	31344.2	30453.1
935.6372	2047.6974	31244	30353.3
935.7742	2049.2617	31113.25	30225.3
935.9111	2050.8254	31109.15	30196.25
936.048	2052.3883	31069.9	30177.35
936.1849	2053.9504	30928.35	30035.9
936.3218	2055.5118	30823	29929.7
936.4586	2057.0725	30637.95	29744.05
936.5955	2058.6325	30552.05	29661.75
936.7323	2060.1917	30468.6	29579.05
936.869	2061.7502	30383.6	29490.7
937.0058	2063.3079	30278.05	29388
937.1425	2064.8649	30177.4	29281.75
937.2792	2066.4212	30086.85	29195.05
937.4159	2067.9767	29982.35	29092.15
937.5525	2069.5315	29858.6	28969.45
937.6891	2071.0856	29703.3	28812.65
937.8257	2072.6389	29612.45	28719.95
937.9623	2074.1915	29496.2	28605.8
938.0989	2075.7433	29318.85	28425.55
938.2354	2077.2945	29272.75	28385.3
938.3719	2078.8448	29130.05	28239.5
938.5084	2080.3945	29029.4	28139.25
938.6448	2081.9434	29039.5	28149.55
938.7812	2083.4916	28929.85	28038.8
938.9176	2085.039	28809.25	27914.45
939.054	2086.5857	28705.6	27812.9
939.1903	2088.1317	28639.6	27748.55
939.3267	2089.677	28531.65	27639.55
939.463	2091.2215	28475.6	27586.8
939.5992	2092.7652	28443.4	27551.25
939.7355	2094.3083	28320.45	27427.35
939.8717	2095.8506	28300.6	27411.4
940.0079	2097.3921	28200.45	27309.1
940.1441	2098.933	28079.65	27190.95
940.2802	2100.4731	28041.75	27149
940.4163	2102.0124	27982.3	27082.9
940.5524	2103.5511	27911.45	27020
940.6885	2105.089	27839.85	26946.95
940.8245	2106.6261	27738	26847.9
940.9606	2108.1626	27665.15	26772.8
941.0965	2109.6983	27611.7	26692.3
941.2325	2111.2332	27476.4	26585.3
941.3684	2112.7675	27386.05	26493.25
941.5044	2114.301	27293	26400.45
941.6403	2115.8337	27324.3	26431.35
941.7761	2117.3657	27186.6	26295.5
941.912	2118.897	27115.9	26224.7
942.0478	2120.4276	27001.6	26103.95
942.1835	2121.9575	26876.75	25985.85
942.3193	2123.4866	26893.15	25987
942.455	2125.0149	26807.2	25913.4
942.5907	2126.5426	26619.25	25729.8
942.7264	2128.0695	26556.3	25661.05
942.8621	2129.5956	26522.2	25633
942.9977	2131.1211	26434.75	25540.15
943.1333	2132.6458	26406.65	25516.7
943.2689	2134.1698	26277.45	25386
943.4044	2135.693	26216.6	25321.45
943.54	2137.2155	26103.05	25208.6
943.6755	2138.7373	26075.8	25182.1
943.8109	2140.2584	25940.95	25049.7
943.9464	2141.7787	25854.55	24959.1
944.0818	2143.2983	25748.9	24857.85
944.2172	2144.8171	25618.45	24729.35
944.3526	2146.3353	25585.7	24693.85
944.4879	2147.8527	25485.45	24594.65
944.6232	2149.3693	25421.9	24529.95
944.7585	2150.8853	25312.4	24418.9
944.8938	2152.4005	25188.9	24297.7
945.029	2153.9149	25151.1	24259.9
945.1642	2155.4287	25056.7	24164.95
945.2994	2156.9417	25017.45	24125.55
945.4346	2158.454	24937.3	24044.2
945.5697	2159.9655	24858.2	23965.7
945.7048	2161.4764	24846.85	23955.4
945.8399	2162.9865	24748.35	23858
945.9749	2164.4958	24679.15	23787.65
946.1099	2166.0045	24519.6	23625
946.2449	2167.5124	24534.1	23643.85
946.3799	2169.0195	24478.45	23587.6
946.5148	2170.526	24444.1	23552.95
946.6498	2172.0317	24284.8	23392.65
946.7846	2173.5367	24272.5	23381.3
946.9195	2175.0409	24178.75	23287.9
947.0543	2176.5445	24159.8	23270.15
947.1891	2178.0473	24049.05	23156.2
947.3239	2179.5494	23922.05	23025.6
947.4587	2181.0507	23850.65	22957.1
947.5934	2182.5513	23800.95	22908.5
947.7281	2184.0512	23695	22802.4
947.8628	2185.5504	23646.6	22755.85
947.9974	2187.0488	23524.45	22632.1
948.132	2188.5465	23449.8	22558.75
948.2666	2190.0435	23353.6	22461.65
948.4012	2191.5397	23246.9	22354.6
948.5357	2193.0353	23191.2	22300.9
948.6702	2194.5301	23022.15	22128.4
948.8047	2196.0241	22987.55	22095.8
948.9392	2197.5175	22914.45	22022.9
949.0736	2199.0101	22836.6	21942.95
949.208	2200.502	22695.5	21805.6
949.3424	2201.9931	22643.8	21752.65
949.4767	2203.4835	22545.2	21650.1
949.611	2204.9733	22494.85	21594.65
949.7453	2206.4622	22443.2	21553
949.8796	2207.9505	22319.1	21427.15
950.0138	2209.438	22243.95	21354.75
950.148	2210.9248	22162	21268.8
950.2822	2212.4109	22070.35	21179.35
950.4164	2213.8962	22018.65	21125.2
950.5505	2215.3809	21989.15	21095.95
950.6846	2216.8648	21889.85	20997.4
950.8186	2218.3479	21818.65	20923.1
950.9527	2219.8304	21675.8	20779.2
951.0867	2221.3121	21629.65	20737.6
951.2207	2222.7931	21571.75	20681.1
951.3546	2224.2733	21463	20571.7
951.4886	2225.7529	21369	20476.55
951.6225	2227.2317	21298.7	20405.4
951.7563	2228.7098	21300.45	20410.6
951.8902	2230.1872	21169.55	20277
952.024	2231.6638	21135.95	20245.55
952.1578	2233.1397	21050.75	20155.95
952.2916	2234.6149	21005.95	20114.95
952.4253	2236.0894	20907.15	20016.1
952.559	2237.5632	20865.05	19962.65
952.6927	2239.0362	20742.4	19851.55
952.8263	2240.5085	20690.35	19798.6
952.9599	2241.9801	20590.05	19697.95
953.0935	2243.4509	20552.45	19662.95
953.2271	2244.921	20489.55	19596.85
953.3606	2246.3904	20393.45	19499.65
953.4941	2247.8591	20344.7	19452.35
953.6276	2249.3271	20297.95	19405.25
953.7611	2250.7943	20230.9	19336.1
953.8945	2252.2608	20109.65	19218.9
954.0279	2253.7266	20047.5	19156.35
954.1612	2255.1917	20011.2	19120.55
954.2946	2256.656	19871.9	18978.6
954.4279	2258.1197	19855.6	18963.35
954.5612	2259.5826	19802.15	18908.85
954.6944	2261.0447	19767	18874.8
954.8276	2262.5062	19621.65	18728.3
954.9608	2263.9669	19606.85	18714
955.094	2265.4269	19582.3	18691.85
955.2271	2266.8862	19510.4	18619.6
955.3602	2268.3448	19435.7	18545.4
955.4933	2269.8026	19385.75	18494.25
955.6264	2271.2598	19330.9	18438.75
955.7594	2272.7162	19246.55	18356.15
955.8924	2274.1719	19176.2	18285.1
956.0253	2275.6268	19157.75	18266.2
956.1583	2277.0811	19116.55	18224.75
956.2912	2278.5346	19034.85	18146.4
956.4241	2279.9874	19027.95	18136.95
956.5569	2281.4395	18975.9	18086.9
956.6897	2282.8908	18876.35	17980.55
956.8225	2284.3414	18817	17924.95
956.9553	2285.7914	18744.5	17853.7
957.088	2287.2406	18665.3	17772.9
957.2207	2288.689	18624	17731.95
957.3534	2290.1368	18561.15	17670.15
957.486	2291.5838	18534.9	17638.75
957.6186	2293.0302	18437.45	17544.8
957.7512	2294.4758	18299.05	17408.3
957.8838	2295.9206	18242.45	17347.85
958.0163	2297.3648	18208.95	17318.15
958.1488	2298.8082	18205.65	17315.9
958.2813	2300.251	18153.25	17263.6
958.4137	2301.693	18080.3	17187.05
958.5461	2303.1343	18069	17176.85
958.6785	2304.5748	17955.95	17064.75
958.8108	2306.0147	17943.8	17052.15
958.9432	2307.4538	17881.05	16988
959.0754	2308.8922	17838.85	16948.2
959.2077	2310.3299	17775	16883.2
959.3399	2311.7669	17661.6	16770.55
959.4721	2313.2031	17607.3	16716.45
959.6043	2314.6387	17561.45	16670.45
959.7365	2316.0735	17524.85	16631.3
959.8686	2317.5076	17452.2	16561.75
960.0006	2318.941	17438.9	16547.55
960.1327	2320.3737	17351.45	16457.85
960.2647	2321.8056	17303.9	16411.1
960.3967	2323.2369	17243.3	16349.9
960.5287	2324.6674	17188.4	16296
960.6606	2326.0972	17115	16222
960.7925	2327.5263	17048.85	16156.85
960.9244	2328.9547	16991.95	16101.1
961.0562	2330.3823	16933.75	16039.9
961.1881	2331.8092	16920.3	16025
961.3198	2333.2355	16852.8	15959.6
961.4516	2334.661	16804.55	15913.25
961.5833	2336.0858	16756.45	15861.95
961.715	2337.5098	16693.1	15801.85
961.8467	2338.9332	16697.95	15806.05
961.9783	2340.3558	16587.45	15693.4
962.1099	2341.7778	16542.95	15651.9
962.2415	2343.199	16446.5	15553.4
962.373	2344.6195	16410.15	15517.95
962.5045	2346.0393	16379.65	15487.8
962.636	2347.4583	16320.65	15428.05
962.7675	2348.8767	16276.05	15383.3
962.8989	2350.2943	16201.15	15307.9
963.0303	2351.7113	16186.65	15293.85
963.1617	2353.1275	16135.25	15244.7
963.293	2354.543	16094.8	15195.7
963.4243	2355.9578	16014.7	15123.05
963.5556	2357.3718	15924.9	15033.45
963.6868	2358.7852	15873.45	14979.75
963.818	2360.1978	15794.1	14903.65
963.9492	2361.6098	15752.5	14863
964.0803	2363.021	15687.65	14792.05
964.2114	2364.4315	15666.5	14773.85
964.3425	2365.8413	15630.25	14738.3
964.4736	2367.2504	15526.6	14635.55
964.6046	2368.6587	15461.85	14570.5
964.7356	2370.0664	15391.55	14500.7
964.8666	2371.4733	15352.3	14462.3
964.9975	2372.8795	15343.85	14454
965.1284	2374.285	15268.8	14378.4
965.2593	2375.6899	15165.5	14274.45
965.3901	2377.0939	15095	14204.15
965.5209	2378.4973	15031.5	14141.4
965.6517	2379.9	14967.15	14075.95
965.7825	2381.3019	14925.15	14034.7
965.9132	2382.7032	14861.65	13971.2
966.0439	2384.1037	14848.35	13959.6
966.1745	2385.5035	14815.4	13927.35
966.3051	2386.9027	14743.05	13852.3
966.4357	2388.3011	14713.85	13820.15
966.5663	2389.6987	14652.05	13761.1
966.6968	2391.0957	14593.5	13702.55
966.8273	2392.492	14532	13643.55
966.9578	2393.8876	14447.15	13557.8
967.0882	2395.2824	14348	13457.65
967.2186	2396.6765	14313.15	13424.9
967.349	2398.07	14242.7	13351.8
967.4793	2399.4627	14210.7	13319.3
967.6097	2400.8547	14165	13275.2
967.7399	2402.246	14107	13212.55
967.8702	2403.6366	14024	13134.85
968.0004	2405.0265	14002.05	13112.85
968.1306	2406.4156	13915.7	13024
968.2607	2407.8041	13853.45	12959.4
968.3909	2409.1918	13803.2	12911.7
968.521	2410.5789	13728.3	12838.65
968.651	2411.9652	13712.3	12820.45
968.781	2413.3508	13653.4	12762.65
968.911	2414.7358	13579.45	12688.7
969.041	2416.12	13546.75	12656.95
969.1709	2417.5035	13533.85	12644.95
969.3008	2418.8863	13453.25	12562.15
969.4307	2420.2684	13419.1	12529.05
969.5606	2421.6497	13372.9	12481.4
969.6904	2423.0304	13277.75	12389.75
969.8201	2424.4104	13257.7	12365.65
969.9499	2425.7896	13209.7	12318.25
970.0796	2427.1682	13183.8	12293.7
970.2093	2428.546	13146.75	12255.15
970.3389	2429.9232	13109.9	12217.5
970.4685	2431.2996	13064.8	12174.4
970.5981	2432.6753	13044.55	12153.25
970.7277	2434.0503	12995.05	12105.4
970.8572	2435.4246	12935.7	12045.5
970.9867	2436.7982	12887.1	11992.25
971.1161	2438.1711	12835.25	11945.8
971.2456	2439.5433	12796.7	11903.5
971.375	2440.9148	12737.45	11841.15
971.5043	2442.2856	12677.2	11787.55
971.6336	2443.6557	12673.65	11781.15
971.7629	2445.025	12596.6	11705.9
971.8922	2446.3937	12593	11701.1
972.0214	2447.7617	12536.5	11646.45
972.1506	2449.1289	12517.9	11625.9
972.2798	2450.4955	12469.1	11574
972.4089	2451.8613	12431.7	11542.5
972.538	2453.2265	12381.7	11491.45
972.6671	2454.5909	12375.55	11485.25
972.7961	2455.9546	12314.7	11422.85
972.9251	2457.3177	12273.95	11383.8
973.0541	2458.68	12227.65	11335.7
973.1831	2460.0416	12191.6	11299.85
973.312	2461.4025	12167.25	11274.45
973.4408	2462.7627	12155.1	11251.4
973.5697	2464.1222	12085.2	11195.45
973.6985	2465.4811	12067.45	11176.05
973.8273	2466.8392	12017.7	11127.35
973.956	2468.1966	11979.3	11085.8
974.0847	2469.5533	11965.5	11072.3
974.2134	2470.9093	11949.55	11058
974.3421	2472.2645	11916.85	11024.7
974.4707	2473.6191	11856.9	10968.4
974.5993	2474.973	11794.95	10903.3
974.7278	2476.3262	11755.8	10863.6
974.8563	2477.6787	11715.05	10824.2
974.9848	2479.0305	11634.6	10744.95
975.1132	2480.3816	11619.2	10727.35
975.2417	2481.7319	11569.05	10679.45
975.37	2483.0816	11518.75	10627.4
975.4984	2484.4306	11503.65	10610.9
975.6267	2485.7789	11446.65	10557.95
975.755	2487.1264	11392.5	10499.55
975.8833	2488.4733	11321.95	10430.25
976.0115	2489.8195	11294.3	10386.7
976.1397	2491.165	11261.9	10367.4
976.2678	2492.5097	11222.05	10329.7
976.3959	2493.8538	11142.95	10252.1
976.524	2495.1972	11100.65	10210.75
976.6521	2496.5398	11037.85	10145.9
976.7801	2497.8818	11060.95	10169.1
976.9081	2499.2231	11017.1	10126.85
977.036	2500.5637	10968.55	10073.95
977.164	2501.9035	10927.55	10035.25
977.2918	2503.2427	10879.5	9985.7
977.4197	2504.5812	10828.05	9937.75
977.5475	2505.919	10826.9	9936
977.6753	2507.256	10810.1	9922.4
977.8031	2508.5924	10762.3	9870.7
977.9308	2509.9281	10693.6	9795.95
978.0585	2511.2631	10662.7	9770.65
978.1861	2512.5974	10667.3	9777.2
978.3137	2513.9309	10597.45	9707.85
978.4413	2515.2638	10601.85	9684.5
978.5689	2516.596	10547.7	9656.1
978.6964	2517.9275	10474.45	9581.45
978.8239	2519.2583	10447.45	9554.8
978.9513	2520.5884	10398.3	9505.15
979.0788	2521.9178	10346.8	9455
979.2062	2523.2465	10324.55	9435
979.3335	2524.5745	10267.05	9377.3
979.4608	2525.9018	10251.6	9359.5
979.5881	2527.2284	10222.7	9333.4
979.7154	2528.5543	10184.1	9294.9
979.8426	2529.8796	10163.6	9274.05
979.9698	2531.2041	10144.2	9253.7
980.0969	2532.5279	10107.7	9216.85
980.224	2533.851	10128.8	9236.5
980.3511	2535.1735	10070.7	9179.6
980.4781	2536.4952	10054.8	9163.8
980.6052	2537.8163	10045.4	9154.55
980.7321	2539.1366	9951.7	9062.35
980.8591	2540.4562	9933.3	9043.85
980.986	2541.7752	9946.1	9054.6
981.1129	2543.0935	9909.35	9018.25
981.2397	2544.411	9869.65	8976
981.3665	2545.7279	9838.35	8946.2
981.4933	2547.0441	9838.45	8946.95
981.62	2548.3596	9838.6	8944.05
981.7467	2549.6744	9782.85	8891.15
981.8734	2550.9885	9729.95	8838.25
982.0001	2552.3019	9708.95	8818.65
982.1267	2553.6146	9670.25	8779.65
982.2532	2554.9266	9659.15	8767.25
982.3798	2556.2379	9630.3	8738.95
982.5063	2557.5485	9610.9	8720.95
982.6327	2558.8585	9597.45	8697.95
982.7592	2560.1677	9571.4	8676.35
982.8856	2561.4762	9555.9	8664.5
983.0119	2562.7841	9514.5	8620.1
983.1383	2564.0913	9473.05	8583.55
983.2646	2565.3977	9459.8	8569.4
983.3908	2566.7035	9425.75	8535.5
983.517	2568.0086	9402.55	8508.9
983.6432	2569.313	9406.65	8513.35
983.7694	2570.6167	9364.15	8470.35
983.8955	2571.9197	9332.9	8442.95
984.0216	2573.222	9327.6	8434.1
984.1476	2574.5236	9316.65	8424.55
984.2737	2575.8246	9272.7	8378.45
984.3996	2577.1248	9261.15	8367.4
984.5256	2578.4244	9245.55	8356.1
984.6515	2579.7232	9237.15	8347.15
984.7774	2581.0214	9220.6	8306
984.9032	2582.3189	9175.25	8284.4
985.029	2583.6157	9160.85	8267.1
985.1548	2584.9118	9144.25	8251.7
985.2806	2586.2072	9115.75	8226.05
985.4063	2587.5019	9075.45	8185.25
985.5319	2588.7959	9052.95	8159.75
985.6576	2590.0893	9046.9	8154.6
985.7832	2591.3819	9045.5	8154.95
985.9087	2592.6739	8981.15	8089.95
986.0343	2593.9652	8965.25	8073.5
986.1597	2595.2557	8944.7	8054.35
986.2852	2596.5456	8867.7	7974.4
986.4106	2597.8348	8837.2	7945.45
986.536	2599.1234	8820.2	7931.8
986.6614	2600.4112	8800.9	7910.8
986.7867	2601.6983	8773.9	7880.3
986.912	2602.9848	8729.3	7837.4
987.0372	2604.2705	8716.15	7819
987.1624	2605.5556	8704.15	7813.9
987.2876	2606.84	8640.25	7750.2
987.4128	2608.1237	8629.2	7737
987.5379	2609.4067	8585.1	7692.9
987.6629	2610.689	8553.85	7654.9
987.788	2611.9707	8521.85	7628.15
987.913	2613.2516	8500.2	7605.45
988.0379	2614.5319	8449.65	7557.65
988.1629	2615.8115	8406.75	7515.8
988.2878	2617.0903	8403.95	7512.15
988.4126	2618.3685	8359.6	7467.15
988.5375	2619.6461	8304.1	7414.4
988.6622	2620.9229	8304.05	7414.4
988.787	2622.199	8271.65	7381.3
988.9117	2623.4745	8249.05	7357.25
989.0364	2624.7493	8189.55	7299.3
989.161	2626.0234	8182.6	7291.45
989.2857	2627.2968	8167.7	7274.05
989.4102	2628.5695	8119	7225.25
989.5348	2629.8415	8087.75	7198.5
989.6593	2631.1128	8052.45	7159.85
989.7837	2632.3835	8029.75	7138.85
989.9082	2633.6535	7986.2	7094.6
990.0326	2634.9228	7966.05	7076.25
990.1569	2636.1914	7944.4	7054.6
990.2812	2637.4593	7920.25	7027.75
990.4055	2638.7265	7888.35	6996.95
990.5298	2639.9931	7851.95	6960.35
990.654	2641.259	7844.7	6951.8
990.7782	2642.5242	7820.85	6929.95
990.9023	2643.7887	7780.8	6889.9
991.0264	2645.0525	7781.15	6888.4
991.1505	2646.3156	7763.35	6871.5
991.2745	2647.5781	7718.6	6828.9
991.3985	2648.8398	7694.8	6804.85
991.5225	2650.1009	7674.7	6775.05
991.6464	2651.3613	7657.3	6767.05
991.7703	2652.6211	7635.3	6742.7
991.8942	2653.8801	7584.7	6693.7
992.018	2655.1385	7580.35	6687.7
992.1418	2656.3961	7559.2	6666.2
992.2655	2657.6531	7554.8	6663.15
992.3892	2658.9094	7538.6	6647.4
992.5129	2660.1651	7506.8	6616.55
992.6366	2661.42	7475.3	6583.95
992.7602	2662.6743	7473.45	6583.85
992.8837	2663.9279	7455.05	6565.2
993.0073	2665.1808	7410.8	6519.05
993.1307	2666.433	7394	6501.45
993.2542	2667.6846	7377	6487.85
993.3776	2668.9354	7385.6	6491.05
993.501	2670.1856	7338.85	6447.1
993.6244	2671.4351	7325.2	6435.65
993.7477	2672.6839	7302.6	6409.8
993.8709	2673.9321	7286.5	6397.7
993.9942	2675.1795	7267.7	6375.9
994.1174	2676.4263	7249.7	6360.2
994.2405	2677.6724	7220.55	6330.55
994.3637	2678.9179	7201.55	6308.65
994.4868	2680.1626	7170.6	6280.3
994.6098	2681.4067	7170.95	6279.15
994.7328	2682.6501	7131.6	6240.25
994.8558	2683.8928	7109.7	6220.05
994.9788	2685.1348	7071.7	6182.45
995.1017	2686.3761	7043.15	6152.7
995.2245	2687.6168	7019.2	6127.65
995.3474	2688.8568	6986.95	6097.7
995.4702	2690.0961	6986.65	6097.45
995.5929	2691.3348	6962.05	6070.75
995.7156	2692.5727	6930	6037.5
995.8383	2693.81	6918.45	6026.5
995.961	2695.0466	6891.7	6001.95
996.0836	2696.2826	6878.15	5983.95
996.2062	2697.5178	6870.4	5976.4
996.3287	2698.7524	6830.05	5938.75
996.4512	2699.9863	6824.05	5932.3
996.5737	2701.2195	6769.6	5880.15
996.6961	2702.452	6773.75	5880
996.8185	2703.6839	6752.85	5859.3
996.9408	2704.9151	6720.3	5830.4
997.0631	2706.1456	6725.65	5834.9
997.1854	2707.3755	6690.2	5799.5
997.3077	2708.6046	6685.85	5792.7
997.4299	2709.8331	6678.1	5786.45
997.552	2711.0609	6632.75	5742.45
997.6742	2712.2881	6641.4	5751.05
997.7963	2713.5145	6630.5	5738.65
997.9183	2714.7403	6605.3	5715.55
998.0403	2715.9654	6599.05	5709.15
998.1623	2717.1899	6584.55	5680.85
998.2842	2718.4136	6570.1	5680.2
998.4062	2719.6367	6568.45	5676.2
998.528	2720.8591	6551	5654.8
998.6498	2722.0809	6515.75	5621.6
998.7716	2723.3019	6521.05	5629.2
998.8934	2724.5223	6492.35	5599.85
999.0151	2725.7421	6475.3	5584.4
999.1368	2726.9611	6457.55	5564.9
999.2584	2728.1795	6427.5	5531.8
999.38	2729.3972	6403.5	5513.5
999.5016	2730.6142	6387.25	5485.2
999.6231	2731.8306	6330.45	5437.95
999.7446	2733.0462	6305.8	5413.5
999.8661	2734.2612	6273.3	5377.9
999.9875	2735.4756	6229.65	5336.9
1000.1089	2736.6892	6197.55	5309
1000.2302	2737.9022	6141.15	5249.2
1000.3515	2739.1145	6118.5	5227.6
1000.4728	2740.3262	6103.25	5204.85
1000.594	2741.5372	6052.6	5162.1
1000.7152	2742.7475	6022.55	5130.4
1000.8363	2743.9571	6009.85	5116.7
1000.9575	2745.1661	5978.95	5083.3
1001.0785	2746.3744	5956.05	5067.5
1001.1996	2747.582	5925.85	5034.35
1001.3206	2748.7889	5922.6	5031.3
1001.4415	2749.9952	5908.05	5016.5
1001.5625	2751.2008	5860.45	4970.6
1001.6833	2752.4057	5853	4959.35
1001.8042	2753.61	5824.8	4934.9
1001.925	2754.8136	5794.45	4902.4
1002.0458	2756.0165	5783	4891.55
1002.1665	2757.2188	5762.75	4872.7
1002.2872	2758.4204	5754.35	4865.8
1002.4078	2759.6213	5736.1	4841.5
1002.5285	2760.8215	5719.1	4827.25
1002.649	2762.0211	5709.4	4815.3
1002.7696	2763.22	5677.05	4783.35
1002.8901	2764.4182	5644.45	4751
1003.0106	2765.6158	5637.9	4746.7
1003.131	2766.8127	5609.5	4718.05
1003.2514	2768.009	5600.85	4710.35
1003.3717	2769.2045	5591.8	4700.75
1003.492	2770.3994	5549.25	4656.5
1003.6123	2771.5936	5544.85	4653.55
1003.7325	2772.7872	5532.55	4642.35
1003.8527	2773.9801	5488.15	4594.95
1003.9729	2775.1723	5496.3	4590.1
1004.093	2776.3639	5453.55	4563.1
1004.2131	2777.5548	5435.9	4543.8
1004.3331	2778.745	5416.25	4524.35
1004.4531	2779.9346	5410.75	4519.4
1004.5731	2781.1235	5393.3	4502.3
1004.693	2782.3117	5379.95	4490.5
1004.8129	2783.4992	5367.6	4477.4
1004.9328	2784.6861	5334.4	4444.15
1005.0526	2785.8723	5338.7	4444.75
1005.1723	2787.0579	5324.85	4432.8
1005.2921	2788.2428	5320.95	4430.05
1005.4118	2789.427	5303	4412.95
1005.5314	2790.6106	5293	4405.3
1005.651	2791.7935	5273.65	4382
1005.7706	2792.9757	5274.65	4388.65
1005.8902	2794.1573	5261.6	4368.45
1006.0097	2795.3382	5263.5	4371.45
1006.1291	2796.5184	5257.85	4368.1
1006.2485	2797.698	5267.85	4375.9
1006.3679	2798.8769	5260.2	4369.25
1006.4873	2800.0551	5276.1	4385.5
1006.6066	2801.2327	5266	4372.85
1006.7258	2802.4096	5259.95	4370.05
1006.8451	2803.5859	5260.6	4367.75
1006.9642	2804.7615	5260.65	4368.05
1007.0834	2805.9364	5268.05	4377.35
1007.2025	2807.1106	5286.35	4395.75
1007.3216	2808.2842	5285.45	4394.5
1007.4406	2809.4572	5310.5	4419.25
1007.5596	2810.6294	5327.2	4436.1
1007.6785	2811.801	5364.65	4474.9
1007.7975	2812.972	5388.35	4497.85
1007.9163	2814.1423	5415.05	4525.75
1008.0352	2815.3119	5463.75	4574.1
1008.154	2816.4808	5481.8	4593.15
1008.2727	2817.6491	5511.95	4620.8
1008.3914	2818.8167	5555.45	4665.55
1008.5101	2819.9837	5597.75	4702.8
1008.6288	2821.15	5612.25	4720.1
1008.7474	2822.3157	5645.5	4755
1008.8659	2823.4807	5662.5	4771.7
1008.9844	2824.645	5720.1	4830.6
1009.1029	2825.8086	5751.85	4862
1009.2214	2826.9716	5755.75	4866.95
1009.3398	2828.134	5795.8	4906.55
1009.4581	2829.2957	5803	4913.5
1009.5764	2830.4567	5836	4945.95
1009.6947	2831.617	5848.45	4956.5
1009.813	2832.7767	5820.7	4929.8
1009.9312	2833.9358	5832.2	4944.1
1010.0493	2835.0941	5826.5	4933.55
1010.1675	2836.2519	5824.25	4933.35
1010.2855	2837.4089	5773.15	4882.1
1010.4036	2838.5653	5759.85	4872.05
1010.5216	2839.7211	5762.4	4874.55
1010.6396	2840.8761	5746	4853.6
1010.7575	2842.0306	5759.75	4872.25
1010.8754	2843.1843	5778.6	4889.8
1010.9932	2844.3374	5825.35	4936.55
1011.111	2845.4899	5870.1	4978.15
1011.2288	2846.6417	5944.3	5055.4
1011.3465	2847.7928	6003.35	5114.45
1011.4642	2848.9433	6060.55	5171
1011.5818	2850.0931	6121.2	5233.25
1011.6995	2851.2422	6208	5316.25
1011.817	2852.3907	6265.95	5374.6
1011.9345	2853.5385	6313.8	5421.35
1012.052	2854.6857	6355.55	5439.35
1012.1695	2855.8323	6388.75	5500.4
1012.2869	2856.9781	6421.65	5533.35
1012.4042	2858.1233	6456.1	5567.1
1012.5216	2859.2679	6503.5	5613.7
1012.6389	2860.4118	6525.25	5633.75
1012.7561	2861.555	6539.75	5645.5
1012.8733	2862.6976	6593.7	5699.8
1012.9905	2863.8395	6580	5689.15
1013.1076	2864.9808	6586.65	5697
1013.2247	2866.1214	6586.35	5697.75
1013.3417	2867.2614	6607.3	5717.5
1013.4587	2868.4007	6597.3	5705.1
1013.5757	2869.5393	6583.15	5692.45
1013.6926	2870.6773	6598.5	5703.8
1013.8095	2871.8146	6587.75	5694.9
1013.9263	2872.9513	6591.6	5699.95
1014.0431	2874.0874	6541.8	5652.8
1014.1599	2875.2227	6535.2	5645.4
1014.2766	2876.3574	6523.05	5633.25
1014.3933	2877.4915	6468.95	5577.9
1014.51	2878.6249	6422.65	5533.3
1014.6266	2879.7577	6387.4	5497.25
1014.7431	2880.8898	6369.85	5470.7
1014.8596	2882.0212	6322.35	5432.85
1014.9761	2883.152	6301.15	5411.75
1015.0925	2884.2821	6284.15	5394.55
1015.2089	2885.4116	6254.05	5363.15
1015.3253	2886.5405	6243.9	5351.55
1015.4416	2887.6686	6247	5354.8
1015.5579	2888.7962	6260.4	5370.65
1015.6741	2889.923	6220.7	5331.95
1015.7903	2891.0493	6229.15	5340.75
1015.9065	2892.1748	6227.15	5336.8
1016.0226	2893.2997	6213.05	5321
1016.1387	2894.424	6218.3	5329.15
1016.2547	2895.5476	6228.2	5339.5
1016.3707	2896.6706	6219.2	5327.85
1016.4866	2897.7929	6254.7	5363.55
1016.6025	2898.9145	6259.8	5370.85
1016.7184	2900.0355	6297.1	5408.05
1016.8342	2901.1559	6309.6	5420.25
1016.95	2902.2756	6325.6	5434.9
1017.0658	2903.3946	6341.65	5451.6
1017.1815	2904.513	6358.55	5464.7
1017.2971	2905.6308	6380.9	5489.95
1017.4127	2906.7479	6366.8	5477.1
1017.5283	2907.8643	6377.1	5487
1017.6439	2908.9801	6395.05	5503.8
1017.7594	2910.0953	6398.15	5508.25
1017.8748	2911.2098	6394.35	5500.15
1017.9902	2912.3236	6330.45	5433.15
1018.1056	2913.4368	6324.4	5432.55
1018.2209	2914.5494	6301.85	5410.3
1018.3362	2915.6613	6268.35	5372.95
1018.4515	2916.7725	6248.25	5354.8
1018.5667	2917.8831	6191.5	5301.5
1018.6819	2918.9931	6177.15	5285.75
1018.797	2920.1024	6120.15	5228.15
1018.9121	2921.211	6087.7	5199.1
1019.0271	2922.319	6052.8	5163.1
1019.1421	2923.4264	6028.45	5137.6
1019.2571	2924.5331	6000.45	5112.05
1019.372	2925.6391	5967.5	5077.6
1019.4869	2926.7445	5949	5059.4
1019.6017	2927.8493	5940.8	5049.35
1019.7165	2928.9534	5927.15	5036.05
1019.8313	2930.0569	5910.1	5016.4
1019.946	2931.1597	5898.1	5007.25
1020.0606	2932.2619	5865.25	4974.7
1020.1753	2933.3634	5874.15	4984.2
1020.2899	2934.4643	5871.8	4974.95
1020.4044	2935.5645	5831.9	4937.5
1020.5189	2936.6641	5759.6	4864.85
1020.6334	2937.763	5714.35	4826.85
1020.7478	2938.8613	5659.35	4768.45
1020.8622	2939.959	5596	4702.35
1020.9765	2941.056	5527.65	4639.1
1021.0908	2942.1523	5434.7	4544.8
1021.2051	2943.248	5337.55	4446.15
1021.3193	2944.3431	5228.95	4338.95
1021.4334	2945.4375	5119.45	4227.65
1021.5476	2946.5313	5017.7	4128.3
1021.6617	2947.6244	4895.9	4006.4
1021.7757	2948.7169	4793.6	3901.2
1021.8897	2949.8087	4658.95	3769.15
1022.0037	2950.8999	4574.35	3682.7
1022.1176	2951.9904	4495.75	3608.65
1022.2315	2953.0803	4403	3515.65
1022.3453	2954.1696	4330.5	3441.45
1022.4591	2955.2582	4267.1	3379.1
1022.5728	2956.3462	4215.4	3325.85
1022.6865	2957.4335	4151.5	3261.7
1022.8002	2958.5202	4112.25	3218.8
1022.9138	2959.6062	4089	3198.8
1023.0274	2960.6916	4063.65	3174.85
1023.141	2961.7764	4037.7	3146.8
1023.2545	2962.8605	4017.9	3126.15
1023.3679	2963.9439	4002.05	3113.2
1023.4813	2965.0267	3977.85	3086.75
1023.5947	2966.1089	3971.85	3060.05
1023.708	2967.1905	3909.65	3020.5
1023.8213	2968.2714	3914.35	3026.1
1023.9346	2969.3516	3914.4	3025.65
1024.0478	2970.4312	3907.15	3009.7
1024.1609	2971.5102	3894.85	3005.65
1024.274	2972.5885	3877.65	2988.45
1024.3871	2973.6662	3884.7	2988.65
1024.5002	2974.7432	3861.55	2971.8
1024.6132	2975.8196	3840.35	2951.85
1024.7261	2976.8954	3816.4	2927.35
1024.839	2977.9705	3794.2	2902.25
1024.9519	2979.045	3795.3	2905.3
1025.0647	2980.1188	3747.35	2858.75
1025.1775	2981.192	3735.4	2848.1
1025.2902	2982.2645	3713.9	2824.6
1025.4029	2983.3364	3670.25	2780.7
1025.5156	2984.4077	3633.9	2743.85
1025.6282	2985.4783	3592.45	2697.6
1025.7407	2986.5483	3556.35	2666.9
1025.8532	2987.6177	3528.3	2640.3
1025.9657	2988.6864	3493.7	2604.7
1026.0782	2989.7545	3441.35	2548.9
1026.1906	2990.8219	3415.8	2527.05
1026.3029	2991.8887	3363.15	2471.55
1026.4152	2992.9548	3342.65	2452.15
1026.5275	2994.0204	3283.4	2393.25
1026.6397	2995.0852	3253.6	2365.95
1026.7519	2996.1495	3221.35	2332.75
1026.864	2997.2131	3192.8	2302.3
1026.9761	2998.276	3157.65	2268.25
1027.0882	2999.3383	3136.35	2246.1
1027.2002	3000.4	3111.45	2223.7
1027.3122	3001.4611	3104.8	2215.6
1027.4241	3002.5215	3063.1	2173.05
1027.536	3003.5812	3048.35	2159.25
1027.6478	3004.6404	3041.35	2152
1027.7596	3005.6989	3028.05	2138
1027.8714	3006.7567	3010.95	2121.15
1027.9831	3007.8139	3020.15	2106.4
1028.0947	3008.8705	2978.85	2089.05
1028.2064	3009.9264	2978.6	2087.35
1028.3179	3010.9818	2958.15	2068.35
1028.4295	3012.0364	2946.15	2055.95
1028.541	3013.0905	2936.75	2046.35
1028.6524	3014.1439	2928.8	2039.3
1028.7638	3015.1966	2910.5	2021.35
1028.8752	3016.2487	2909.9	2019
1028.9865	3017.3002	2894.05	2000.5
1029.0978	3018.3511	2892.9	2006.3
1029.209	3019.4013	2891.45	2003.4
1029.3202	3020.4509	2880.5	1992.6
1029.4314	3021.4998	2878.9	1990.7
1029.5425	3022.5481	2866.85	1977.85
1029.6535	3023.5958	2863.45	1974.05
1029.7645	3024.6428	2857.65	1966.55
1029.8755	3025.6892	2843.35	1954
1029.9864	3026.735	2840.85	1949.25
1030.0973	3027.7802	2835.35	1943.55
1030.2082	3028.8247	2844.95	1953.85
1030.319	3029.8685	2834	1944.15
1030.4297	3030.9118	2834.4	1945.85
1030.5404	3031.9544	2834.25	1945.85
1030.6511	3032.9963	2825.1	1935.9
1030.7617	3034.0376	2809.35	1921.15
1030.8723	3035.0783	2822.15	1929.55
1030.9829	3036.1184	2816.05	1923
1031.0934	3037.1578	2810.9	1921.9
1031.2038	3038.1966	2807.5	1915.95
1031.3142	3039.2348	2803.85	1914.9
1031.4246	3040.2723	2801.75	1902.85
1031.5349	3041.3092	2793.75	1907.45
1031.6452	3042.3455	2772.6	1884.05
1031.7554	3043.3811	2767.6	1878.6
1031.8656	3044.4161	2759.7	1869.3
1031.9758	3045.4505	2747.7	1861.6
1032.0859	3046.4842	2724.75	1835.4
1032.1959	3047.5173	2721.1	1832.4
1032.3059	3048.5498	2716.9	1827
1032.4159	3049.5816	2712.75	1825.25
1032.5258	3050.6128	2695.3	1805.85
1032.6357	3051.6434	2675.25	1783.85
1032.7455	3052.6734	2660.5	1769
1032.8553	3053.7027	2667.8	1778.45
1032.9651	3054.7314	2647.4	1758.15
1033.0748	3055.7594	2630.85	1740.05
1033.1845	3056.7868	2623.65	1731.85
1033.2941	3057.8136	2613.7	1723.15
1033.4037	3058.8398	2604.2	1716.65
1033.5132	3059.8653	2597.35	1708.75
1033.6227	3060.8902	2569.85	1679.8
1033.7321	3061.9145	2558.1	1666.9
1033.8415	3062.9381	2534.1	1646.7
1033.9509	3063.9612	2560.75	1656.25
1034.0602	3064.9835	2542.75	1653.15
1034.1694	3066.0053	2514.6	1622.2
1034.2787	3067.0264	2507.3	1618.2
1034.3878	3068.0469	2500.75	1612.1
1034.497	3069.0668	2485.25	1594.25
1034.6061	3070.086	2471.25	1582.4
1034.7151	3071.1046	2463.75	1575.85
1034.8241	3072.1226	2438	1548.35
1034.9331	3073.1399	2431.6	1541.85
1035.042	3074.1567	2413.1	1521.75
1035.1508	3075.1727	2414.1	1522.4
1035.2597	3076.1882	2392.9	1503.25
1035.3684	3077.203	2387.35	1498.25
1035.4772	3078.2173	2367.75	1477.9
1035.5859	3079.2308	2353.4	1463.15
1035.6945	3080.2438	2344.8	1452.15
1035.8031	3081.2561	2325.45	1435.35
1035.9117	3082.2678	2316.75	1428.95
1036.0202	3083.2789	2301.7	1411.7
1036.1286	3084.2893	2287.2	1398.55
1036.2371	3085.2991	2289.6	1400.7
1036.3454	3086.3083	2276.75	1382.7
1036.4538	3087.3169	2264.75	1373.1
1036.562	3088.3248	2255.65	1364.65
1036.6703	3089.3321	2245.2	1353.25
1036.7785	3090.3388	2239.2	1352.85
1036.8866	3091.3449	2228.25	1337.85
1036.9948	3092.3503	2217.8	1326.05
1037.1028	3093.3551	2206.2	1318.8
1037.2108	3094.3593	2206.85	1319.25
1037.3188	3095.3629	2191.25	1302.65
1037.4267	3096.3658	2179.05	1288.9
1037.5346	3097.3681	2173.8	1283.8
1037.6425	3098.3698	2173.25	1280.2
1037.7503	3099.3708	2163.25	1268.25
1037.858	3100.3713	2154.6	1265.9
1037.9657	3101.3711	2140.05	1250.05
1038.0734	3102.3702	2255.75	1227.55
1038.181	3103.3688	2143.8	1254.15
1038.2886	3104.3667	2125.65	1239.3
1038.3961	3105.364	2111.05	1222.9
1038.5036	3106.3607	2106.5	1216.4
1038.611	3107.3568	2096.2	1207.8
1038.7184	3108.3522	2096.4	1208.6
1038.8257	3109.347	2078.1	1187.9
1038.933	3110.3412	2083.3	1193.85
1039.0403	3111.3348	2070	1181.2
1039.1475	3112.3277	2057.85	1170.6
1039.2547	3113.32	2047	1158.55
1039.3618	3114.3117	2055.45	1165.2
1039.4689	3115.3028	2050.05	1161.5
1039.5759	3116.2932	2041.2	1149.9
1039.6829	3117.2831	2030.6	1134.8
1039.7898	3118.2723	2022.35	1132.95
1039.8967	3119.2608	2022.4	1133.15
1040.0035	3120.2488	2007.55	1117.85
1040.1103	3121.2361	1999.7	1111.25
1040.2171	3122.2229	1996.45	1106.95
1040.3238	3123.209	1985.15	1095.8
1040.4305	3124.1944	1985.3	1097.4
1040.5371	3125.1793	1973	1083.3
1040.6437	3126.1635	1979.65	1091.7
1040.7502	3127.1471	1967.4	1078.6
1040.8567	3128.1301	1955.6	1068.55
1040.9631	3129.1125	1946.95	1058.1
1041.0695	3130.0942	1943.85	1054.45
1041.1759	3131.0753	1949.75	1052.9
1041.2822	3132.0558	1943.5	1049.85
1041.3884	3133.0357	1938	1048.9
1041.4946	3134.015	1921.75	1031.7
1041.6008	3134.9936	1931.6	1040.95
1041.7069	3135.9716	1937.8	1029.1
1041.813	3136.949	1913.7	1024.5
1041.919	3137.9258	1901.35	1008.65
1042.025	3138.902	1908.2	1013.85
1042.1309	3139.8775	1901.35	1013.45
1042.2368	3140.8524	1883.15	993.8
1042.3427	3141.8267	1890.85	1000.3
1042.4485	3142.8004	1886.1	995.55
1042.5542	3143.7735	1886.55	990.8
1042.6599	3144.7459	1879.25	987.95
1042.7656	3145.7178	1876.85	986.85
1042.8712	3146.689	1870.65	982
1042.9768	3147.6596	1859.8	968.85
1043.0823	3148.6295	1849.05	960.45
1043.1878	3149.5989	1854.95	965.95
1043.2932	3150.5676	1851	966.35
1043.3986	3151.5357	1851.4	963.9
1043.5039	3152.5032	1833.95	945.8
1043.6092	3153.4701	1835.25	947.85
1043.7145	3154.4364	1819	924.45
1043.8197	3155.402	1820.5	930.15
1043.9248	3156.367	1813.95	923.35
1044.03	3157.3315	1845.6	913.35
1044.135	3158.2952	1806.3	915.55
1044.24	3159.2584	1795.85	909.35
1044.345	3160.221	1789.25	900.7
1044.4499	3161.1829	1786.5	896.6
1044.5548	3162.1442	1778.1	889.2
1044.6596	3163.105	1775.8	887.15
1044.7644	3164.065	1769.35	880.5
1044.8692	3165.0245	1763.75	873.15
1044.9739	3165.9834	1754.85	867.7
1045.0785	3166.9416	1757.65	868.55
1045.1831	3167.8993	1746.7	857.4
1045.2877	3168.8563	1748.55	859.55
1045.3922	3169.8127	1741.6	852.65
1045.4966	3170.7684	1737.55	847.85
1045.6011	3171.7236	1741.65	853.85
1045.7054	3172.6782	1725.7	836.9
1045.8098	3173.6321	1725.4	836.15
1045.914	3174.5854	1718.5	822.65
1046.0183	3175.5381	1713.55	824.8
1046.1224	3176.4902	1707.35	818.25
1046.2266	3177.4417	1706.45	818.05
1046.3307	3178.3926	1696.55	806.7
1046.4347	3179.3428	1704.4	817.55
1046.5387	3180.2924	1691.8	801.85
1046.6427	3181.2415	1685.35	796.15
1046.7466	3182.1899	1683.4	794.05
1046.8504	3183.1377	1677.15	787.55
1046.9542	3184.0848	1680.55	789.05
1047.058	3185.0314	1665.8	778.1
1047.1617	3185.9773	1660.55	770.95
1047.2654	3186.9227	1667.25	777
1047.369	3187.8674	1658.2	770.3
1047.4726	3188.8115	1652.85	759.9
1047.5761	3189.755	1650.95	761.5
1047.6796	3190.6979	1648.3	759.2
1047.783	3191.6402	1641.2	755.35
1047.8864	3192.5818	1646.6	758.6
1047.9898	3193.5229	1644.95	742.3
1048.0931	3194.4633	1633.65	746.55
1048.1963	3195.4031	1626.3	736.05
1048.2995	3196.3423	1621.25	731.7
1048.4027	3197.2809	1617.75	730.15
1048.5058	3198.2189	1616.7	728.5
1048.6089	3199.1563	1620.8	726.9
1048.7119	3200.0931	1607.35	720.15
1048.8148	3201.0292	1602.1	712.05
1048.9178	3201.9648	1604.35	715.1
1049.0206	3202.8997	1597.1	703.35
1049.1235	3203.834	1590.8	701.75
1049.2262	3204.7677	1593.15	705.1
1049.329	3205.7008	1580.65	690.5
1049.4317	3206.6333	1581.1	694.3
1049.5343	3207.5652	1583.2	689.95
1049.6369	3208.4964	1573.1	685.8
1049.7394	3209.4271	1572.1	683.85
1049.8419	3210.3571	1564.4	675.5
1049.9444	3211.2865	1564.8	674.65
1050.0468	3212.2154	1560.85	670.7
1050.1491	3213.1436	1560.45	669.95
1050.2514	3214.0712	1562.85	667.75
1050.3537	3214.9982	1550.7	662.55
1050.4559	3215.9246	1551.95	663.65
1050.5581	3216.8503	1554.95	667.35
1050.6602	3217.7755	1549.55	660.65
1050.7623	3218.7001	1538.1	650.95
1050.8643	3219.624	1539.9	652.2
1050.9663	3220.5473	1534.7	646.05
1051.0682	3221.4701	1524.15	632.85
1051.1701	3222.3922	1526.95	638.1
1051.2719	3223.3137	1523.1	633.5
1051.3737	3224.2346	1514.05	626.15
1051.4754	3225.1549	1512.1	624.45
1051.5771	3226.0746	1518.25	630.6
1051.6788	3226.9937	1504.5	615.35
1051.7804	3227.9121	1503.3	616.05
1051.8819	3228.83	1506.7	618.7
1051.9834	3229.7473	1501.35	613.1
1052.0849	3230.6639	1496.05	608.55
1052.1863	3231.5799	1491.65	601.5
1052.2876	3232.4954	1489.5	599.55
1052.3889	3233.4102	1482.6	595.55
1052.4902	3234.3244	1475.6	587.2
1052.5914	3235.238	1487.55	598.25
1052.6926	3236.151	1496.4	585.15
1052.7937	3237.0634	1471.65	584.55
1052.8948	3237.9752	1465.85	578.65
1052.9958	3238.8864	1468.35	580.15
1053.0968	3239.797	1463.4	574.85
1053.1977	3240.7069	1455.75	565.35
1053.2986	3241.6163	1454.8	564.35
1053.3994	3242.5251	1452.05	564.7
1053.5002	3243.4332	1442.55	556.2
1053.6009	3244.3408	1440.4	551.05
1053.7016	3245.2477	1441.35	554.3
1053.8022	3246.154	1429.95	540.4
1053.9028	3247.0598	1433.95	543.9
1054.0034	3247.9649	1423	535.4
1054.1039	3248.8694	1421.35	533.3
1054.2043	3249.7733	1423.95	534.8
1054.3047	3250.6766	1421	532.3
1054.4051	3251.5793	1415.9	527.5
1054.5054	3252.4814	1416.6	530.55
1054.6056	3253.3829	1414.75	526.7
1054.7058	3254.2838	1406.5	518.45
1054.806	3255.1841	1404.95	518.55
1054.9061	3256.0838	1392.95	504.75
1055.0061	3256.9829	1394.5	507.35
1055.1062	3257.8814	1391.35	499.65
1055.2061	3258.7792	1386.85	496.75
1055.306	3259.6765	1383.65	492.95
1055.4059	3260.5731	1367.25	477.4
1055.5057	3261.4692	1369.85	479.55
1055.6055	3262.3647	1359.75	469.5
1055.7052	3263.2595	1353.3	464.2
1055.8049	3264.1538	1351.9	464.75
1055.9045	3265.0474	1345.5	455.8
1056.0041	3265.9404	1338.6	451.15
1056.1036	3266.8329	1326.35	439.2
1056.2031	3267.7247	1335.75	438.45
1056.3025	3268.616	1309.5	420
1056.4019	3269.5066	1301.9	414.7
1056.5013	3270.3966	1289.4	398.95
1056.6005	3271.286	1279.75	391.15
