Software Version:	3.9.2.0
Unit SN:	10000200
Spectrometer SN:	6960
Date:	3/6/2024 10:10:11 AM
Data Line Index:	25
Spectral Points:	2048
Integration time (ms):	125
Averages:	20
Delay (ms):	30
Sequence Number:	1
Processing:	dark subtract
Laser Power (mW):	305
Laser Current (mA):	825
Laser Diode Temp (C):	25
Laser Case Temp (C):	24.9
System Temp (C):	24.7
Spectrometer Temp (C):	22.2
CCD Temp (C):	0.004
Secondary Temp (C):	20.004
Heatsink Temp (C):	18.646
CCDPCB Temp (C):	31.605
SecondaryPCB Temp (C):	25.825

Wavelength	RamanShift	Raw Counts	Dark Subtracted
787.061	30.1047	883.95	475.3
787.2016	32.3739	906.55	499.15
787.3422	34.6426	944.65	537.6
787.4828	36.9109	977.15	568.55
787.6235	39.1787	1013.45	599.3
787.7642	41.4461	1055.6	637.6
787.9049	43.7131	1100.2	678.9
788.0456	45.9796	1139.05	713.95
788.1863	48.2456	1187.6	760.05
788.3271	50.5112	1236.05	803.2
788.4679	52.7764	1286.1	850.7
788.6087	55.0411	1334.9	896.3
788.7496	57.3054	1400.75	957.15
788.8904	59.5692	1459.3	1013.35
789.0313	61.8326	1523.55	1074.65
789.1722	64.0955	1593.85	1142.15
789.3132	66.3579	1675.85	1219.75
789.4541	68.6199	1783.75	1323.95
789.5951	70.8815	1969.3	1504.45
789.7361	73.1426	2368.85	1900.75
789.8771	75.4032	3389.3	2915.05
790.0181	77.6634	6010.75	5534.05
790.1592	79.9231	12629.65	12146.1
790.3003	82.1824	35361	34865.9
790.4414	84.4412	61616.35	61099.65
790.5825	86.6995	65509.7	64966.7
790.7237	88.9574	65535	64971.3
790.8648	91.2148	65535	64952.9
791.006	93.4717	65535	64943.35
791.1472	95.7282	65535	64939.6
791.2885	97.9842	65535	64935.65
791.4297	100.2398	65535	64932.85
791.571	102.4949	65535	64927.85
791.7123	104.7495	65535	64925.25
791.8536	107.0036	65535	64925.6
791.9949	109.2573	65535	64925.8
792.1363	111.5105	65535	64919.85
792.2777	113.7632	65535	64916.35
792.4191	116.0154	65535	64907.9
792.5605	118.2672	65535	64913.3
792.7019	120.5185	65535	64910.95
792.8434	122.7693	65535	64910.95
792.9849	125.0197	65535	64905.4
793.1264	127.2696	65535	64901.7
793.2679	129.519	65535	64896.05
793.4094	131.7679	65535	64895.6
793.551	134.0163	65535	64892.2
793.6926	136.2642	65535	64890.55
793.8342	138.5117	65535	64886.4
793.9758	140.7587	65535	64888.6
794.1175	143.0052	65535	64880.15
794.2591	145.2512	65535	64881.5
794.4008	147.4967	65535	64879.75
794.5425	149.7417	65535	64879.9
794.6842	151.9863	65535	64875.45
794.826	154.2304	65535	64872
794.9677	156.4739	65535	64867
795.1095	158.717	65535	64864.4
795.2513	160.9596	65535	64861.25
795.3931	163.2017	65535	64854.7
795.535	165.4433	65535	64855.1
795.6768	167.6844	65535	64852.65
795.8187	169.925	65535	64852.35
795.9606	172.1651	65535	64849.4
796.1025	174.4047	65535	64844.4
796.2445	176.6439	65535	64845
796.3864	178.8825	65535	64840.65
796.5284	181.1206	65535	64834.3
796.6704	183.3582	65535	64831.35
796.8124	185.5954	65535	64831.35
796.9544	187.832	65535	64825.45
797.0965	190.0681	65535	64821.2
797.2386	192.3037	65535	64821.9
797.3806	194.5388	65535	64815.5
797.5228	196.7734	65535	64815.95
797.6649	199.0075	65535	64815.3
797.807	201.2411	65535	64812.25
797.9492	203.4742	65535	64811.6
798.0914	205.7068	65535	64803.05
798.2336	207.9389	65535	64804.75
798.3758	210.1704	65535	64812.1
798.518	212.4015	65535	64820.45
798.6603	214.632	65535	64828.45
798.8025	216.862	65535	64830.6
798.9448	219.0915	65535	64825.95
799.0871	221.3205	65535	64824.45
799.2294	223.549	65535	64827.3
799.3718	225.777	65535	64828.8
799.5141	228.0044	65535	64817.8
799.6565	230.2314	65535	64821.3
799.7989	232.4578	65535	64814.95
799.9413	234.6837	65535	64806.3
800.0837	236.909	65535	64806.35
800.2262	239.1339	65535	64779.25
800.3687	241.3582	65535	64796.4
800.5111	243.582	65535	64762.75
800.6536	245.8053	65535	64778.65
800.7961	248.0281	65535	64784.1
800.9387	250.2503	65535	64778.7
801.0812	252.472	65535	64776.65
801.2238	254.6932	65535	64778.95
801.3664	256.9139	65535	64777.6
801.509	259.134	65535	64772.5
801.6516	261.3536	65535	64773.5
801.7942	263.5727	65535	64767.5
801.9369	265.7912	65535	64771.3
802.0795	268.0092	65535	64774.1
802.2222	270.2267	65535	64771.65
802.3649	272.4436	65535	64769.75
802.5076	274.6601	65535	64761.4
802.6504	276.8759	65535	64763.25
802.7931	279.0913	65535	64760.05
802.9359	281.3061	65535	64763.85
803.0787	283.5204	65535	64759.15
803.2215	285.7341	65535	64754
803.3643	287.9473	65535	64743.5
803.5071	290.16	65535	64753.5
803.6499	292.3721	65535	64757.55
803.7928	294.5837	65535	64755.1
803.9357	296.7947	65535	64758.05
804.0786	299.0052	65535	64755
804.2215	301.2152	65535	64754.4
804.3644	303.4246	65535	64755.45
804.5074	305.6334	65535	64756.35
804.6503	307.8418	65535	64751.9
804.7933	310.0495	65535	64751.05
804.9363	312.2568	65535	64747.1
805.0793	314.4635	65535	64749.1
805.2223	316.6696	65535	64744.25
805.3653	318.8752	65535	64735.1
805.5084	321.0802	65535	64743.2
805.6514	323.2847	65535	64743.7
805.7945	325.4887	65535	64738.65
805.9376	327.692	65535	64739.45
806.0807	329.8949	65535	64737.55
806.2238	332.0972	65535	64735.7
806.367	334.2989	65535	64732.05
806.5101	336.5001	65535	64733.3
806.6533	338.7007	65535	64733.5
806.7965	340.9008	65535	64733.95
806.9397	343.1003	65535	64730.3
807.0829	345.2992	65535	64730.8
807.2261	347.4976	65535	64730.35
807.3693	349.6955	65535	64723.6
807.5126	351.8927	65535	64723.5
807.6559	354.0895	65535	64706.2
807.7991	356.2856	65535	64718.25
807.9424	358.4812	65535	64721.8
808.0857	360.6763	65535	64719.15
808.2291	362.8707	65535	64716.9
808.3724	365.0646	65535	64712.7
808.5158	367.258	65535	64713.95
808.6591	369.4508	65535	64710.95
808.8025	371.643	65535	64711.7
808.9459	373.8346	65535	64708.05
809.0893	376.0257	65535	64702.2
809.2327	378.2162	65535	64709.5
809.3762	380.4062	65535	64704.3
809.5196	382.5956	65535	64706.25
809.6631	384.7844	65535	64709.05
809.8066	386.9726	65535	64714.45
809.9501	389.1603	65535	64709.95
810.0936	391.3474	65535	64674.65
810.2371	393.5339	65535	64710.8
810.3806	395.7199	65535	64713.7
810.5241	397.9052	65535	64711.55
810.6677	400.09	65535	64710.95
810.8113	402.2743	65535	64713.45
810.9548	404.4579	65535	64712
811.0984	406.641	65535	64710.9
811.2421	408.8235	65535	64710.15
811.3857	411.0054	65535	64706.3
811.5293	413.1868	65535	64702.75
811.673	415.3675	65535	64697.9
811.8166	417.5477	65535	64700.2
811.9603	419.7273	65535	64693.8
812.104	421.9064	65535	64689.75
812.2477	424.0848	65535	64694.75
812.3914	426.2627	65535	64691.75
812.5351	428.4399	65535	64695.55
812.6788	430.6166	65535	64690.7
812.8226	432.7928	65535	64686.2
812.9663	434.9683	65535	64692.25
813.1101	437.1432	65535	64691.35
813.2539	439.3176	65535	64690.9
813.3977	441.4914	65535	64694.05
813.5415	443.6645	65535	64692.8
813.6853	445.8371	65535	64691.65
813.8291	448.0091	65535	64689.55
813.973	450.1806	65535	64691.6
814.1168	452.3514	65535	64688.15
814.2607	454.5216	65535	64682.75
814.4046	456.6913	65535	64688.9
814.5485	458.8603	65535	64687.2
814.6924	461.0288	65535	64687.85
814.8363	463.1967	65535	64692.15
814.9802	465.3639	65535	64686.7
815.1241	467.5306	65535	64688
815.2681	469.6967	65535	64690.6
815.412	471.8622	65535	64691.45
815.556	474.0271	65535	64688.3
815.7	476.1914	65535	64680.9
815.844	478.3551	65535	64684.2
815.988	480.5182	65535	64686.9
816.132	482.6807	65535	64685.35
816.276	484.8426	65535	64689.9
816.4201	487.0039	65535	64687.95
816.5641	489.1647	65535	64685.35
816.7082	491.3248	65535	64684.95
816.8522	493.4843	65535	64690.15
816.9963	495.6432	65535	64685.2
817.1404	497.8015	65535	64676.75
817.2845	499.9592	65535	64673.3
817.4286	502.1163	65535	64674.7
817.5727	504.2728	65535	64678.1
817.7168	506.4287	65535	64685.85
817.861	508.5839	65535	64682.7
818.0051	510.7386	65535	64680.3
818.1493	512.8927	65535	64674.75
818.2935	515.0461	65535	64671.5
818.4377	517.199	65535	64675.05
818.5818	519.3512	65535	64673.7
818.726	521.5029	65535	64671.9
818.8703	523.6539	65535	64674.15
819.0145	525.8043	65535	64672.95
819.1587	527.9541	65535	64668.2
819.303	530.1033	65535	64669.1
819.4472	532.2519	65535	64670.2
819.5915	534.3999	65535	64667.1
819.7357	536.5472	65535	64668.05
819.88	538.694	65535	64670.25
820.0243	540.8401	65535	64665.05
820.1686	542.9856	65535	64661.7
820.3129	545.1305	65535	64657.15
820.4572	547.2748	65535	64658.35
820.6016	549.4185	65535	64657.45
820.7459	551.5615	65535	64656.35
820.8902	553.704	65535	64656.65
821.0346	555.8458	65535	64660.5
821.1789	557.987	65535	64664.4
821.3233	560.1276	65535	64663.05
821.4677	562.2675	65535	64660.75
821.6121	564.4069	65535	64662.6
821.7565	566.5456	65535	64661.75
821.9009	568.6837	65535	64662.9
822.0453	570.8212	65535	64664.85
822.1897	572.958	65535	64659.35
822.3342	575.0942	65535	64664.8
822.4786	577.2299	65535	64663.7
822.6231	579.3648	65535	64674.75
822.7675	581.4992	65535	64678.1
822.912	583.6329	65535	64675.85
823.0565	585.766	65535	64675.65
823.201	587.8985	65535	64670.75
823.3454	590.0304	65535	64644.5
823.4899	592.1616	65535	64660.9
823.6345	594.2922	65535	64658.7
823.779	596.4222	65535	64657.15
823.9235	598.5515	65535	64654.85
824.068	600.6802	65535	64654.3
824.2126	602.8083	65535	64655.9
824.3571	604.9358	65535	64655.6
824.5017	607.0626	65535	64654
824.6462	609.1888	65535	64651.55
824.7908	611.3144	65535	64652.35
824.9354	613.4393	65535	64652.4
825.08	615.5636	65535	64652.2
825.2246	617.6873	65535	64651.7
825.3692	619.8103	65535	64651.25
825.5138	621.9327	65535	64648.1
825.6584	624.0544	65535	64653.2
825.803	626.1756	65535	64655.6
825.9477	628.2961	65535	64650.4
826.0923	630.4159	65535	64648.6
826.237	632.5351	65535	64649.2
826.3816	634.6537	65535	64648.5
826.5263	636.7716	65535	64644.25
826.6709	638.8889	65535	64646.45
826.8156	641.0056	65535	64641.5
826.9603	643.1216	65535	64642.1
827.105	645.237	65535	64645.15
827.2497	647.3518	65535	64645.6
827.3944	649.4659	65535	64652.8
827.5391	651.5793	65535	64654.9
827.6838	653.6922	65535	64651.1
827.8285	655.8043	65535	64652.85
827.9733	657.9159	65535	64646.4
828.118	660.0268	65535	64648.7
828.2627	662.137	65535	64648.25
828.4075	664.2466	65535	64643.55
828.5522	666.3556	65535	64646.35
828.697	668.4639	65535	64643.15
828.8418	670.5716	65535	64649.4
828.9865	672.6786	65535	64645.65
829.1313	674.785	65535	64642.9
829.2761	676.8907	65535	64644.85
829.4209	678.9958	65535	64647.8
829.5657	681.1002	65535	64643.5
829.7105	683.204	65535	64637.45
829.8553	685.3072	65535	64638.35
830.0001	687.4097	65535	64642.4
830.1449	689.5115	65535	64641.8
830.2898	691.6127	65535	64643.75
830.4346	693.7132	65535	64642.15
830.5794	695.8131	65535	64625.3
830.7243	697.9123	65535	64636.45
830.8691	700.0109	65535	64639.95
831.014	702.1089	65535	64641.65
831.1588	704.2061	65535	64640.9
831.3037	706.3028	65535	64637.1
831.4486	708.3987	65535	64638.5
831.5935	710.4941	65535	64638.8
831.7383	712.5887	65535	64635.4
831.8832	714.6827	65535	64637.05
832.0281	716.7761	65535	64641.8
832.173	718.8688	65535	64639.8
832.3179	720.9608	65535	64630.3
832.4628	723.0522	65535	64631
832.6077	725.1429	65535	64635
832.7527	727.233	65535	64635.2
832.8976	729.3224	65535	64635.55
833.0425	731.4112	65535	64635.35
833.1874	733.4993	65535	64627.4
833.3324	735.5867	65535	64636.85
833.4773	737.6735	65535	64635.35
833.6222	739.7596	65535	64630.4
833.7672	741.845	65535	64634.7
833.9122	743.9298	65535	64631.1
834.0571	746.014	65535	64634.7
834.2021	748.0974	65535	64631
834.347	750.1802	65535	64630.1
834.492	752.2624	65535	64633.1
834.637	754.3439	65535	64630
834.782	756.4247	65535	64625.35
834.9269	758.5048	65535	64633
835.0719	760.5843	65535	64629.7
835.2169	762.6631	65535	64630.65
835.3619	764.7413	65535	64632.1
835.5069	766.8188	65535	64628.05
835.6519	768.8956	65535	64627.95
835.7969	770.9718	65535	64630.75
835.9419	773.0473	65535	64631
836.0869	775.1221	65535	64628.35
836.232	777.1962	65535	64628.8
836.377	779.2697	65535	64628.65
836.522	781.3426	65535	64606.85
836.667	783.4147	65535	64626.15
836.8121	785.4862	65535	64630.4
836.9571	787.557	65535	64627.05
837.1021	789.6271	65535	64628.6
837.2472	791.6966	65535	64626.8
837.3922	793.7654	65535	64628.95
837.5373	795.8335	65535	64630.35
837.6823	797.901	65535	64628.8
837.8274	799.9678	65535	64623.65
837.9724	802.0339	65535	64627.25
838.1175	804.0993	65535	64615.2
838.2626	806.1641	65535	64627.9
838.4076	808.2282	65535	64627.4
838.5527	810.2916	65535	64626.7
838.6978	812.3544	65535	64628
838.8428	814.4164	65535	64630.9
838.9879	816.4778	65535	64624.25
839.133	818.5385	65535	64626.85
839.2781	820.5986	65535	64622.55
839.4232	822.658	65535	64623.8
839.5682	824.7166	65535	64625.6
839.7133	826.7747	65535	64625.7
839.8584	828.832	65535	64625.85
840.0035	830.8886	65535	64623.55
840.1486	832.9446	65535	64623.4
840.2937	834.9999	65535	64625.5
840.4388	837.0545	65535	64623.35
840.5839	839.1085	65535	64625.2
840.729	841.1618	65535	64620.65
840.8741	843.2143	65535	64623.75
841.0192	845.2662	65535	64624.7
841.1643	847.3175	65535	64621.85
841.3095	849.368	65535	64622.5
841.4546	851.4179	65535	64624.25
841.5997	853.467	65535	64624.8
841.7448	855.5155	65535	64623.05
841.8899	857.5633	65535	64627.15
842.0351	859.6105	65535	64619.3
842.1802	861.6569	65535	64621.55
842.3253	863.7027	65535	64619.55
842.4704	865.7478	65535	64620.05
842.6156	867.7922	65535	64622.05
842.7607	869.8359	65535	64621.45
842.9058	871.8789	65535	64622.95
843.0509	873.9212	65535	64589.1
843.1961	875.9629	65535	64619.15
843.3412	878.0039	65535	64619.65
843.4863	880.0441	65535	64626.25
843.6315	882.0837	65535	64624.3
843.7766	884.1226	65535	64621.45
843.9218	886.1609	65535	64622.15
844.0669	888.1984	65535	64623
844.212	890.2352	65535	64623.5
844.3572	892.2714	65535	64619.95
844.5023	894.3069	65535	64620.35
844.6475	896.3416	65535	64620.65
844.7926	898.3757	65535	64620.85
844.9377	900.4091	65535	64619.05
845.0829	902.4418	65535	64614
845.228	904.4739	65535	64618.3
845.3732	906.5052	65535	64621.85
845.5183	908.5358	65535	64621.25
845.6635	910.5658	65535	64618.4
845.8086	912.595	65535	64614.4
845.9538	914.6236	65535	64616.65
846.0989	916.6515	65535	64616.7
846.2441	918.6786	65535	64616.15
846.3892	920.7051	65535	64617.5
846.5344	922.7309	65535	64620.8
846.6795	924.756	65535	64615.55
846.8246	926.7804	65535	64617.1
846.9698	928.8041	65535	64618.5
847.1149	930.8272	65535	64617.55
847.2601	932.8495	65535	64617.75
847.4052	934.8711	65535	64616.35
847.5504	936.892	65535	64616.3
847.6955	938.9123	65535	64616.15
847.8407	940.9318	65535	64617.3
847.9858	942.9506	65535	64616.85
848.131	944.9688	65535	64621.35
848.2761	946.9862	65535	64616.9
848.4213	949.003	65535	64614.15
848.5664	951.019	65535	64618.3
848.7115	953.0344	65535	64620.4
848.8567	955.0491	65535	64615.85
849.0018	957.063	65535	64620
849.147	959.0763	65535	64618.55
849.2921	961.0888	65535	64612.9
849.4373	963.1007	65535	64617.05
849.5824	965.1119	65535	64623.75
849.7275	967.1223	65535	64623.45
849.8727	969.1321	65535	64627.65
850.0178	971.1412	65535	64622.95
850.1629	973.1495	65535	64618.7
850.3081	975.1572	65535	64578.2
850.4532	977.1641	65535	64615.35
850.5983	979.1704	65535	64617.2
850.7435	981.1759	65535	64615.95
850.8886	983.1808	65535	64614.1
851.0337	985.1849	65535	64603.2
851.1788	987.1884	65535	64613.4
851.324	989.1911	65535	64617.85
851.4691	991.1932	65535	64617.55
851.6142	993.1945	65535	64616.4
851.7593	995.1951	65535	64614.7
851.9045	997.1951	65535	64610.35
852.0496	999.1943	65535	64617.05
852.1947	1001.1928	65535	64617.15
852.3398	1003.1906	65535	64618.8
852.4849	1005.1877	65535	64618.35
852.63	1007.1841	65535	64614.7
852.7751	1009.1798	65535	64617.35
852.9202	1011.1748	65535	64619.2
853.0653	1013.1691	65535	64614.7
853.2104	1015.1627	65535	64620.35
853.3555	1017.1556	65535	64618.05
853.5006	1019.1477	65535	64619.6
853.6457	1021.1392	65535	64623.1
853.7908	1023.1299	65535	64622.8
853.9359	1025.12	65535	64623.25
854.081	1027.1093	65535	64631.95
854.2261	1029.0979	65535	64634.25
854.3712	1031.0859	65535	64626.85
854.5163	1033.0731	65535	64625.55
854.6613	1035.0596	65535	64622.85
854.8064	1037.0454	65535	64621.6
854.9515	1039.0304	65535	64620.7
855.0965	1041.0148	65535	64620.25
855.2416	1042.9985	65535	64616.05
855.3867	1044.9814	65535	64621.05
855.5317	1046.9636	65535	64615.85
855.6768	1048.9452	65535	64620.75
855.8219	1050.926	65535	64620.25
855.9669	1052.9061	65535	64620
856.112	1054.8855	65535	64617.7
856.257	1056.8642	65535	64618.25
856.4021	1058.8421	65535	64615.75
856.5471	1060.8194	65535	64617.2
856.6921	1062.7959	65535	64620.2
856.8372	1064.7717	65535	64619.75
856.9822	1066.7469	65535	64615.95
857.1272	1068.7213	65535	64613.55
857.2723	1070.695	65535	64617.25
857.4173	1072.6679	65535	64617.95
857.5623	1074.6402	65535	64619.2
857.7073	1076.6117	65535	64612.85
857.8523	1078.5826	65535	64615.95
857.9973	1080.5527	65535	64617.35
858.1423	1082.5221	65535	64616.45
858.2873	1084.4908	65535	64618.3
858.4323	1086.4587	65535	64616.85
858.5773	1088.426	65534.1	64616.3
858.7223	1090.3925	65535	64611.95
858.8673	1092.3584	65534.55	64615.7
859.0123	1094.3235	65526.1	64610.2
859.1573	1096.2879	65525.2	64606.6
859.3022	1098.2515	65535	64615.7
859.4472	1100.2145	65522.9	64605.95
859.5922	1102.1767	65519.85	64603.05
859.7371	1104.1382	65528.05	64613.6
859.8821	1106.099	65520.65	64603.8
860.027	1108.0591	65517.45	64601.45
860.172	1110.0185	65450.15	64534.7
860.3169	1111.9771	65525.85	64611.15
860.4619	1113.9351	65514.95	64597.9
860.6068	1115.8923	65471.3	64554.45
860.7517	1117.8488	65447.4	64527.25
860.8967	1119.8045	65436.45	64518.3
861.0416	1121.7596	65461.75	64544.3
861.1865	1123.7139	65428.3	64512.7
861.3314	1125.6675	65433.35	64517.75
861.4763	1127.6204	65421	64506.1
861.6212	1129.5726	65384.1	64466.7
861.7661	1131.524	65414.5	64499
861.911	1133.4748	65432.8	64513.4
862.0559	1135.4248	65379.05	64460.3
862.2008	1137.3741	65389.3	64476.15
862.3457	1139.3226	65380.1	64461.8
862.4905	1141.2705	65365.75	64450.95
862.6354	1143.2176	65379.5	64454.65
862.7803	1145.164	65300.65	64379
862.9251	1147.1097	65347.3	64432.2
863.07	1149.0546	65354.45	64436.75
863.2148	1150.9989	65361.5	64442.45
863.3597	1152.9424	65292.9	64371.95
863.5045	1154.8852	65354.15	64436.05
863.6493	1156.8272	65295.9	64380.4
863.7942	1158.7686	65364.6	64440.8
863.939	1160.7092	65287.15	64368.1
864.0838	1162.6491	65294.3	64375.5
864.2286	1164.5883	65313.15	64397.45
864.3734	1166.5267	65276.6	64358.7
864.5182	1168.4644	65291.8	64374.75
864.663	1170.4014	65275.6	64355
864.8078	1172.3377	65284.4	64373.2
864.9526	1174.2732	65317.2	64403.6
865.0974	1176.2081	65280.6	64364.5
865.2421	1178.1421	65255.9	64335.15
865.3869	1180.0755	65298.45	64383.9
865.5317	1182.0082	65278.45	64363.7
865.6764	1183.9401	65274.4	64360.75
865.8212	1185.8713	65227	64312.55
865.9659	1187.8017	65234.05	64325.65
866.1106	1189.7315	65240.65	64334.2
866.2554	1191.6605	65228.45	64295.6
866.4001	1193.5888	65209.05	64300.45
866.5448	1195.5163	65165.9	64253.95
866.6895	1197.4432	65174.8	64258.9
866.8342	1199.3693	65174.7	64261.65
866.9789	1201.2947	65144.75	64228
867.1236	1203.2193	65171.85	64257.9
867.2683	1205.1432	65138.95	64223.2
867.413	1207.0664	65123.45	64208.25
867.5576	1208.9889	65117.7	64197.75
867.7023	1210.9106	65120.85	64206.7
867.847	1212.8316	65096.6	64180.6
867.9916	1214.7519	65094.3	64169.9
868.1363	1216.6715	65076.35	64161
868.2809	1218.5903	65063.65	64150.3
868.4255	1220.5084	65054.55	64139.1
868.5701	1222.4257	65053.45	64136.9
868.7148	1224.3424	65045.6	64134
868.8594	1226.2583	64990.7	64072.85
869.004	1228.1735	65029.65	64115.3
869.1486	1230.0879	64932.5	64016.25
869.2932	1232.0016	65010.3	64094.9
869.4377	1233.9146	64925.55	64008.15
869.5823	1235.8269	64958.5	64043.8
869.7269	1237.7384	64940	64025.5
869.8715	1239.6492	64917.35	64004.65
870.016	1241.5592	64839.45	63925.5
870.1606	1243.4686	64913.1	63999.3
870.3051	1245.3772	64813.7	63898.65
870.4496	1247.285	64882.7	63967.2
870.5941	1249.1922	64760.8	63846.15
870.7387	1251.0986	64840.85	63928.75
870.8832	1253.0042	64759.4	63845.8
871.0277	1254.9092	64810.65	63896.1
871.1722	1256.8134	64659	63747.35
871.3167	1258.7169	64806.95	63891.3
871.4611	1260.6196	64672.8	63759.4
871.6056	1262.5216	64665.55	63749.25
871.7501	1264.4229	64714.35	63801.9
871.8945	1266.3234	64760.65	63847.2
872.039	1268.2232	64723.4	63807.2
872.1834	1270.1223	64654.1	63740.5
872.3278	1272.0207	64641.2	63725.85
872.4723	1273.9183	64633.2	63714.7
872.6167	1275.8151	64629.55	63718.9
872.7611	1277.7113	64627.05	63713.05
872.9055	1279.6067	64551.35	63637.95
873.0499	1281.5014	64537	63621.65
873.1943	1283.3953	64658.15	63739.05
873.3386	1285.2885	64577.5	63666.05
873.483	1287.181	64586	63674.1
873.6274	1289.0727	64572.6	63660.3
873.7717	1290.9637	64440.4	63527.2
873.9161	1292.854	64593.7	63679.8
874.0604	1294.7435	64529.5	63618.35
874.2047	1296.6323	64544.05	63629.8
874.349	1298.5204	64489.25	63575.6
874.4933	1300.4077	64566.7	63651.55
874.6376	1302.2943	64452.8	63537.85
874.7819	1304.1802	64419.2	63504.9
874.9262	1306.0653	64377.4	63462.8
875.0705	1307.9497	64359	63445.8
875.2147	1309.8333	64374.25	63463.3
875.359	1311.7162	64319.4	63406.7
875.5032	1313.5984	64362.45	63445.2
875.6475	1315.4798	64296.4	63372
875.7917	1317.3605	64273.35	63345.95
875.9359	1319.2405	64282.4	63369.1
876.0801	1321.1197	64166.55	63251.05
876.2243	1322.9982	64190.9	63274.5
876.3685	1324.876	64163.85	63250.05
876.5127	1326.753	64092.35	63179.2
876.6569	1328.6293	64224.2	63309.25
876.801	1330.5048	64129.1	63212.3
876.9452	1332.3796	64071.3	63160.45
877.0893	1334.2537	64060.95	63125.85
877.2335	1336.127	64101.05	63187.4
877.3776	1337.9996	64040.95	63130.25
877.5217	1339.8714	64076.05	63159.35
877.6658	1341.7426	63936.6	62980.65
877.8099	1343.6129	64012.5	63097.7
877.954	1345.4826	64011.4	63094.9
878.0981	1347.3515	63929.3	63012.6
878.2422	1349.2196	63983.05	63069.85
878.3862	1351.087	63961.1	63047.7
878.5303	1352.9537	63945.8	63032.95
878.6743	1354.8197	63938.35	63022
878.8184	1356.6849	63945.35	63033.4
878.9624	1358.5493	63925.55	63011.95
879.1064	1360.4131	63868.55	62955.15
879.2504	1362.276	63938.5	63027.85
879.3944	1364.1383	63862.55	62949.1
879.5384	1365.9998	63807.55	62887.45
879.6823	1367.8606	63812.5	62898.45
879.8263	1369.7206	63759.75	62845.5
879.9702	1371.5799	63749.55	62834.25
880.1142	1373.4384	63669.8	62756
880.2581	1375.2962	63713.55	62799.85
880.402	1377.1533	63547.1	62634.7
880.5459	1379.0096	63512.65	62600.8
880.6898	1380.8652	63505.95	62597.75
880.8337	1382.7201	63398.55	62487.95
880.9776	1384.5742	63421.6	62510.3
881.1215	1386.4275	63250.4	62335
881.2653	1388.2802	63316.6	62403.05
881.4092	1390.132	63335.7	62422.2
881.553	1391.9832	63166.75	62252.9
881.6968	1393.8336	63104.15	62189.8
881.8406	1395.6832	63094.6	62178.7
881.9844	1397.5322	63120.15	62206.8
882.1282	1399.3803	63004.65	62085.45
882.272	1401.2278	62993.2	62080.25
882.4158	1403.0745	62979.65	62065.35
882.5595	1404.9204	62949.15	62037.55
882.7033	1406.7656	62914	62002.25
882.847	1408.6101	62828.55	61915.35
882.9908	1410.4538	62821.25	61909.4
883.1345	1412.2968	62826.4	61915.3
883.2782	1414.139	62715.8	61805.15
883.4219	1415.9805	62756.45	61846.9
883.5656	1417.8213	62682.2	61762.7
883.7092	1419.6613	62709.85	61799.75
883.8529	1421.5006	62661.8	61750.25
883.9965	1423.3391	62648.95	61737.5
884.1402	1425.1769	62628.75	61715.7
884.2838	1427.0139	62690.55	61775.2
884.4274	1428.8502	62672.45	61757.25
884.571	1430.6858	62695.3	61784.45
884.7146	1432.5206	62781.65	61869.25
884.8582	1434.3547	62691.95	61782.45
885.0018	1436.188	62627.5	61717.55
885.1453	1438.0206	62653.8	61741.75
885.2889	1439.8524	62618.7	61705.45
885.4324	1441.6835	62588.8	61674.65
885.5759	1443.5139	62612.65	61698.05
885.7194	1445.3435	62540.35	61627.95
885.8629	1447.1724	62562.15	61649.95
886.0064	1449.0005	62477.45	61567.7
886.1499	1450.8279	62503.7	61591.45
886.2933	1452.6545	62467	61557.9
886.4368	1454.4804	62449.95	61541.35
886.5802	1456.3056	62431.55	61515.1
886.7237	1458.13	62436.95	61527.7
886.8671	1459.9536	62426.3	61519.15
887.0105	1461.7766	62355.5	61447.4
887.1539	1463.5987	62283.15	61371.7
887.2972	1465.4202	62273.6	61363.3
887.4406	1467.2409	62210.7	61299.1
887.584	1469.0608	62153.35	61241.55
887.7273	1470.88	62166.2	61255.15
887.8706	1472.6984	62144.75	61235.9
888.0139	1474.5161	62055.25	61145.55
888.1572	1476.3331	62062.8	61150.75
888.3005	1478.1493	61987.65	61076.3
888.4438	1479.9648	61983.6	61074.95
888.5871	1481.7795	62001.2	61090.8
888.7303	1483.5935	61972.85	61061.9
888.8736	1485.4067	61910.35	61000.5
889.0168	1487.2192	61942.15	61034.05
889.16	1489.031	61873.05	60960.05
889.3032	1490.842	61858.95	60950.3
889.4464	1492.6522	61875.35	60964.8
889.5896	1494.4618	61801.95	60892.9
889.7327	1496.2705	61824.6	60914.5
889.8759	1498.0785	61636.6	60725.75
890.019	1499.8858	61716.05	60806.1
890.1622	1501.6924	61771.4	60862
890.3053	1503.4981	61648.05	60739.75
890.4484	1505.3032	61693.1	60783.8
890.5914	1507.1075	61563.25	60654.75
890.7345	1508.911	61589.45	60680.6
890.8776	1510.7138	61571.95	60663.1
891.0206	1512.5159	61567.75	60660.15
891.1637	1514.3172	61218.7	60312.15
891.3067	1516.1178	61322.4	60415.55
891.4497	1517.9176	61443.95	60534.35
891.5927	1519.7166	61281.65	60374.75
891.7357	1521.515	61226.5	60311.25
891.8786	1523.3126	61003	60095.4
892.0216	1525.1094	61168.8	60261.6
892.1645	1526.9055	61019.6	60112.3
892.3074	1528.7008	61029.8	60123.1
892.4503	1530.4954	60793.35	59883.1
892.5932	1532.2893	60952.15	60044.95
892.7361	1534.0824	60757.6	59848.1
892.879	1535.8747	60661.1	59755.25
893.0218	1537.6663	60949.85	60044.95
893.1647	1539.4572	60369.75	59463
893.3075	1541.2473	60588	59680
893.4503	1543.0367	60500	59596.15
893.5931	1544.8253	60408.4	59498.3
893.7359	1546.6132	60478.4	59570.75
893.8787	1548.4003	60319.15	59402.55
894.0214	1550.1867	60278	59364.75
894.1642	1551.9723	60224.05	59314.7
894.3069	1553.7572	60226.9	59323.2
894.4496	1555.5414	60338.9	59434.4
894.5923	1557.3247	59858.8	58957
894.735	1559.1074	60226.6	59327.95
894.8777	1560.8893	60079.25	59176.35
895.0204	1562.6705	60111.7	59210.15
895.163	1564.4509	59819.2	58920.3
895.3056	1566.2305	59953.95	59056.7
895.4482	1568.0094	60141.75	59244.95
895.5908	1569.7876	59984.55	59084.4
895.7334	1571.565	59791.65	58888.85
895.876	1573.3417	59888.25	58987.9
896.0186	1575.1176	59786.45	58884.9
896.1611	1576.8928	59710.05	58812.2
896.3036	1578.6672	59495.85	58600.75
896.4461	1580.4409	59635.95	58741.05
896.5886	1582.2138	59371.65	58471.65
896.7311	1583.986	59476.75	58576.95
896.8736	1585.7575	59284.3	58383.1
897.0161	1587.5282	59314.5	58417.85
897.1585	1589.2981	59378.1	58481.2
897.3009	1591.0673	59178.95	58283.15
897.4433	1592.8358	59064.95	58167.8
897.5857	1594.6035	59218.75	58316.2
897.7281	1596.3704	59217.6	58318.65
897.8705	1598.1366	58937.8	58039.3
898.0128	1599.9021	58790.65	57892.7
898.1551	1601.6668	58985.45	58086.55
898.2975	1603.4308	58865.35	57965.2
898.4398	1605.194	58948.7	58044.65
898.5821	1606.9564	58644.05	57747.8
898.7243	1608.7182	58818.15	57923.7
898.8666	1610.4791	58640	57751.6
899.0088	1612.2394	58801.75	57912.85
899.1511	1613.9988	58631.55	57738.55
899.2933	1615.7576	58865.35	57973.1
899.4355	1617.5156	58816.25	57912.4
899.5776	1619.2728	58971.55	58072.95
899.7198	1621.0293	58572.65	57675.8
899.862	1622.785	58529.75	57630.8
900.0041	1624.54	58574.7	57676.9
900.1462	1626.2942	58366.65	57471.65
900.2883	1628.0477	58043.75	57145.2
900.4304	1629.8005	57824.3	56924.7
900.5725	1631.5525	57985.9	57095.55
900.7145	1633.3037	57660.8	56766.1
900.8566	1635.0542	57619.4	56726.25
900.9986	1636.804	57685.75	56792.3
901.1406	1638.553	57409.5	56470.5
901.2826	1640.3013	57466.95	56573
901.4245	1642.0488	57217.95	56321.85
901.5665	1643.7955	57314.4	56423.6
901.7085	1645.5416	57195.2	56301.55
901.8504	1647.2868	57102.75	56208.5
901.9923	1649.0313	57297.35	56404.1
902.1342	1650.7751	57180.85	56285.1
902.2761	1652.5181	57050.7	56157.9
902.4179	1654.2604	56991.3	56099.25
902.5598	1656.0019	57102.05	56208.85
902.7016	1657.7427	56980.6	56086.95
902.8434	1659.4828	57172.05	56277.8
902.9852	1661.222	57024.75	56129.4
903.127	1662.9606	57074.15	56181.1
903.2687	1664.6984	56851.95	55957.25
903.4105	1666.4354	56867.15	55968.95
903.5522	1668.1717	56478.8	55584.6
903.6939	1669.9072	56171.2	55274.2
903.8356	1671.642	56056.15	55157
903.9773	1673.3761	55929.05	55033
904.119	1675.1094	55758.15	54863.3
904.2606	1676.8419	55477.45	54584.6
904.4022	1678.5737	55405.15	54509.75
904.5439	1680.3048	55267.9	54371.35
904.6855	1682.0351	55104.25	54210.4
904.827	1683.7646	54959.1	54059.75
904.9686	1685.4934	54964.75	54072.1
905.1101	1687.2215	54511.8	53619
905.2517	1688.9488	54715.2	53822.75
905.3932	1690.6754	54012.8	53118.95
905.5347	1692.4012	54331	53435.55
905.6761	1694.1263	54303.25	53408.2
905.8176	1695.8506	54044.4	53150.4
905.9591	1697.5742	54012.65	53119
906.1005	1699.297	53823.4	52931.9
906.2419	1701.0191	53815.85	52923.9
906.3833	1702.7404	53461.7	52571.85
906.5246	1704.461	53222.55	52326.45
906.666	1706.1808	53426	52531.4
906.8073	1707.8999	53226.8	52333.65
906.9487	1709.6182	53091	52200
907.09	1711.3358	53030	52140.6
907.2313	1713.0527	52851	51962.3
907.3725	1714.7688	52817.5	51922.9
907.5138	1716.4841	52386.7	51494.4
907.655	1718.1987	52533.4	51636.6
907.7962	1719.9126	52377.6	51487.5
907.9374	1721.6257	52357.45	51466.95
908.0786	1723.338	52329.8	51438.55
908.2198	1725.0496	51809.05	50916.5
908.3609	1726.7605	51788.55	50895.15
908.502	1728.4706	51676.8	50784.95
908.6431	1730.18	51706.5	50814.7
908.7842	1731.8886	51433.8	50544.35
908.9253	1733.5964	51290.5	50396.6
909.0664	1735.3036	51467.45	50576.05
909.2074	1737.0099	51247.85	50359.25
909.3484	1738.7156	50996.7	50108.3
909.4894	1740.4204	50855	49962.25
909.6304	1742.1246	50935.05	50042.15
909.7714	1743.8279	50920.2	50030.6
909.9123	1745.5306	50855.65	49965.75
910.0532	1747.2325	50195.85	49306.45
910.1941	1748.9336	50182.35	49291.95
910.335	1750.634	50230.85	49337.05
910.4759	1752.3336	50351.65	49464.35
910.6168	1754.0325	49886.95	48999.95
910.7576	1755.7307	50254.95	49365.9
910.8984	1757.4281	49687.1	48796.05
911.0392	1759.1247	50051.45	49152.4
911.18	1760.8206	49372.8	48475.5
911.3208	1762.5158	49458.6	48561.1
911.4615	1764.2102	49518.45	48629.9
911.6022	1765.9039	49338.45	48448.1
911.7429	1767.5968	49180.8	48291.65
911.8836	1769.289	48955.7	48065.8
912.0243	1770.9804	49066.5	48177.2
912.1649	1772.6711	48876.3	47986.7
912.3056	1774.361	48698.65	47805.4
912.4462	1776.0502	48745.85	47854.1
912.5868	1777.7386	48269.1	47375.8
912.7274	1779.4263	48437	47545.9
912.8679	1781.1132	48397.3	47509.65
913.0084	1782.7994	48209.6	47318.7
913.149	1784.4849	48222.05	47337.4
913.2895	1786.1696	47616.95	46721.8
913.4299	1787.8535	47869.1	46983.7
913.5704	1789.5367	47863.5	46977.9
913.7108	1791.2192	47519.05	46630.1
913.8513	1792.9009	47279.7	46360.45
913.9917	1794.5818	47441.6	46548.6
914.132	1796.2621	47194.65	46302.8
914.2724	1797.9415	47112.35	46223.85
914.4128	1799.6202	46992.6	46102.65
914.5531	1801.2982	46996.75	46106.75
914.6934	1802.9755	46619.6	45729.6
914.8337	1804.6519	46568.5	45678.4
914.9739	1806.3277	46805.45	45916.2
915.1142	1808.0027	46127.8	45243.2
915.2544	1809.6769	46348.55	45463.8
915.3946	1811.3504	46343.8	45455.55
915.5348	1813.0231	45833.8	44945.85
915.675	1814.6951	46097.65	45210.6
915.8151	1816.3664	45934.55	45041.45
915.9553	1818.0369	45866.05	44977.4
916.0954	1819.7067	45647.5	44759.7
916.2355	1821.3757	45834.8	44944.8
916.3755	1823.044	45457.55	44568.8
916.5156	1824.7115	45267.5	44375.3
916.6556	1826.3783	45226.1	44337.1
916.7956	1828.0443	45169.45	44280.3
916.9356	1829.7096	45041.4	44152.65
917.0756	1831.3741	44820.3	43930.6
917.2155	1833.0379	44853.6	43966.35
917.3555	1834.701	44762.35	43872.35
917.4954	1836.3633	44552.65	43663.85
917.6353	1838.0248	44610.15	43720.85
917.7751	1839.6856	44439.1	43552.1
917.915	1841.3457	44252.35	43365.9
918.0548	1843.005	44414	43522.25
918.1946	1844.6636	44230.75	43342.4
918.3344	1846.3214	43935.2	43045.15
918.4742	1847.9785	43981.4	43094.2
918.6139	1849.6349	43842.35	42953
918.7537	1851.2904	43975.65	43075.35
918.8934	1852.9453	43645.55	42753.25
919.0331	1854.5994	43615.05	42723.6
919.1727	1856.2528	43648.05	42754.35
919.3124	1857.9054	43372.7	42484.75
919.452	1859.5572	43318.15	42430.55
919.5916	1861.2083	43347.6	42458.2
919.7312	1862.8587	43509.25	42617.8
919.8708	1864.5084	42981.75	42090.3
920.0103	1866.1572	43046.55	42156.45
920.1498	1867.8054	42708.2	41818.2
920.2893	1869.4528	42869.05	41977.45
920.4288	1871.0994	42595.55	41704.95
920.5683	1872.7453	42558.7	41666.55
920.7077	1874.3905	42537.3	41641.6
920.8471	1876.0349	42318.65	41428.25
920.9865	1877.6786	42423.3	41534.25
921.1259	1879.3215	42297.6	41407.8
921.2653	1880.9637	42267.5	41377.5
921.4046	1882.6051	42129.9	41241
921.5439	1884.2458	41946.3	41055.8
921.6832	1885.8858	41728.8	40840.15
921.8225	1887.525	41779.75	40888.75
921.9617	1889.1634	41583.9	40694.7
922.101	1890.8011	41479.6	40590.55
922.2402	1892.4381	41233	40345.85
922.3794	1894.0743	41394.4	40505.6
922.5185	1895.7098	41224.7	40335.45
922.6577	1897.3446	41080.2	40190.75
922.7968	1898.9786	41053.85	40159.75
922.9359	1900.6118	40905	40018
923.075	1902.2443	40727.6	39835.85
923.214	1903.8761	40736.55	39846.55
923.3531	1905.5071	40481.1	39591.7
923.4921	1907.1374	40283.5	39393.85
923.6311	1908.7669	40203.85	39315.6
923.77	1910.3957	40253.15	39364.4
923.909	1912.0237	39899.9	39011.55
924.0479	1913.651	39841.8	38952.7
924.1868	1915.2776	39825.6	38938.35
924.3257	1916.9034	39615.45	38726.95
924.4646	1918.5285	39426.2	38538.4
924.6034	1920.1528	39299.8	38411.5
924.7422	1921.7764	39244.9	38356.65
924.881	1923.3992	39121.05	38233.65
925.0198	1925.0213	38861.9	37973.35
925.1586	1926.6427	38731.85	37846.15
925.2973	1928.2633	38804.6	37705.8
925.436	1929.8832	38583.3	37691.5
925.5747	1931.5023	38333.05	37444.55
925.7134	1933.1207	38281.2	37393.5
925.852	1934.7383	38226.25	37337.15
925.9906	1936.3552	38035.85	37148.35
926.1292	1937.9714	37989.5	37103.4
926.2678	1939.5868	37823.6	36932.95
926.4064	1941.2015	37620	36727.9
926.5449	1942.8154	37467.45	36577.45
926.6834	1944.4286	37355.5	36466.5
926.8219	1946.041	37250.75	36338.3
926.9604	1947.6528	37038.8	36143.4
927.0988	1949.2637	36958.2	36068.4
927.2372	1950.8739	36857.35	35969.25
927.3756	1952.4834	36830.9	35942.45
927.514	1954.0921	36739.1	35850.65
927.6523	1955.7001	36603.75	35711.3
927.7907	1957.3074	36473.9	35588.2
927.929	1958.9139	36313.55	35429.55
928.0673	1960.5197	36217.1	35327.95
928.2055	1962.1247	36044	35158.55
928.3438	1963.729	35864.2	34979.25
928.482	1965.3325	35764.3	34855.55
928.6202	1966.9353	35658.9	34773.1
928.7584	1968.5374	35542	34655.9
928.8965	1970.1387	35402.45	34517.4
929.0346	1971.7393	35255.6	34367.95
929.1727	1973.3392	35168.8	34282.65
929.3108	1974.9383	35041.5	34156.85
929.4489	1976.5366	34903.25	34018.1
929.5869	1978.1342	34882.8	33996.85
929.7249	1979.7311	34780.05	33892.2
929.8629	1981.3273	34645.25	33758.95
930.0009	1982.9227	34571.75	33684.95
930.1388	1984.5173	34404.1	33520.6
930.2767	1986.1112	34268.8	33385.05
930.4146	1987.7044	34241.85	33359.25
930.5525	1989.2968	34101.8	33215.9
930.6904	1990.8885	34041.1	33154.85
930.8282	1992.4795	33963.25	33076.7
930.966	1994.0697	33813.65	32929.9
931.1038	1995.6592	33719.5	32834.35
931.2415	1997.2479	33594.1	32709.25
931.3793	1998.8359	33509.2	32623.4
931.517	2000.4232	33320.2	32439.55
931.6547	2002.0097	33290.55	32410.95
931.7923	2003.5955	33105.1	32223.15
931.93	2005.1805	33092.3	32207.65
932.0676	2006.7648	33028.6	32145.8
932.2052	2008.3484	32868.1	31983.4
932.3427	2009.9312	32917.6	32035.3
932.4803	2011.5133	32741.1	31859.65
932.6178	2013.0946	32638.95	31756.05
932.7553	2014.6752	32555.6	31671.6
932.8928	2016.2551	32484.25	31600.4
933.0302	2017.8342	32294.55	31411.05
933.1676	2019.4126	32207.9	31326.1
933.305	2020.9902	32052.85	31171.05
933.4424	2022.5672	32011.95	31130.2
933.5798	2024.1433	31982	31093.8
933.7171	2025.7188	31848.75	30967.7
933.8544	2027.2935	31772.3	30887.6
933.9917	2028.8674	31634.65	30754
934.129	2030.4406	31522.8	30644.45
934.2662	2032.0131	31385.75	30505.55
934.4034	2033.5849	31249.6	30362.4
934.5406	2035.1559	31236.1	30354.8
934.6778	2036.7261	31202.35	30318.3
934.8149	2038.2957	31093.15	30210.75
934.952	2039.8645	31049.1	30165.25
935.0891	2041.4325	31012.75	30126.6
935.2262	2042.9998	30885.75	30005.6
935.3632	2044.5664	30815.35	29932.05
935.5002	2046.1323	30732.95	29851.95
935.6372	2047.6974	30550.45	29670.85
935.7742	2049.2617	30511.95	29631.05
935.9111	2050.8254	30500.25	29613.3
936.048	2052.3883	30434.45	29552.05
936.1849	2053.9504	30315.8	29431.2
936.3218	2055.5118	30256.05	29372.45
936.4586	2057.0725	30098.15	29210.35
936.5955	2058.6325	30051.85	29171.1
936.7323	2060.1917	29975.1	29094.3
936.869	2061.7502	29860.75	28976.75
937.0058	2063.3079	29742.2	28863.2
937.1425	2064.8649	29627	28741.8
937.2792	2066.4212	29552.1	28670.05
937.4159	2067.9767	29483.35	28601.7
937.5525	2069.5315	29366.8	28485.05
937.6891	2071.0856	29252.1	28371
937.8257	2072.6389	29136.65	28253.6
937.9623	2074.1915	29013.8	28132
938.0989	2075.7433	28850.55	27965.6
938.2354	2077.2945	28848.15	27966.35
938.3719	2078.8448	28738.95	27855.6
938.5084	2080.3945	28644.3	27761.7
938.6448	2081.9434	28590.95	27709
938.7812	2083.4916	28513.7	27630.45
938.9176	2085.039	28400.15	27512.1
939.054	2086.5857	28343.55	27457.05
939.1903	2088.1317	28284.05	27397.95
939.3267	2089.677	28174.25	27286.25
939.463	2091.2215	28113.2	27226.15
939.5992	2092.7652	27999.35	27110.25
939.7355	2094.3083	27938.2	27051.95
939.8717	2095.8506	27884.7	27000.75
940.0079	2097.3921	27871.55	26986.5
940.1441	2098.933	27781.7	26898.65
940.2802	2100.4731	27723	26837.85
940.4163	2102.0124	27690.7	26787
940.5524	2103.5511	27595.65	26709.85
940.6885	2105.089	27545.7	26659.9
940.8245	2106.6261	27499.55	26617.15
940.9606	2108.1626	27403.35	26518.65
941.0965	2109.6983	27357.45	26444.15
941.2325	2111.2332	27290.6	26404.9
941.3684	2112.7675	27159.8	26275
941.5044	2114.301	27046	26158.4
941.6403	2115.8337	27039.6	26152.3
941.7761	2117.3657	26953.5	26068.3
941.912	2118.897	26932.75	26049
942.0478	2120.4276	26838.7	25947.8
942.1835	2121.9575	26688.9	25804.65
942.3193	2123.4866	26739.95	25840.2
942.455	2125.0149	26600.45	25713.95
942.5907	2126.5426	26471.45	25588.7
942.7264	2128.0695	26405.4	25517.4
942.8621	2129.5956	26350.05	25469.8
942.9977	2131.1211	26304.55	25417.05
943.1333	2132.6458	26202.3	25318.45
943.2689	2134.1698	26138.4	25251.65
943.4044	2135.693	26075.75	25189.05
943.54	2137.2155	25980.9	25093.4
943.6755	2138.7373	25982.65	25097.95
943.8109	2140.2584	25890.3	25007.9
943.9464	2141.7787	25763.45	24876.55
944.0818	2143.2983	25643.35	24763.4
944.2172	2144.8171	25510.05	24631.15
944.3526	2146.3353	25478.8	24594.2
944.4879	2147.8527	25397	24514.1
944.6232	2149.3693	25379.9	24495.1
944.7585	2150.8853	25269.85	24382.85
944.8938	2152.4005	25155.35	24267.2
945.029	2153.9149	25129.65	24245.35
945.1642	2155.4287	25070.1	24184.6
945.2994	2156.9417	24990.55	24104.35
945.4346	2158.454	24941.4	24058
945.5697	2159.9655	24829.7	23944.6
945.7048	2161.4764	24835.3	23952.55
945.8399	2162.9865	24717.2	23832.65
945.9749	2164.4958	24664.2	23781.25
946.1099	2166.0045	24543	23655.5
946.2449	2167.5124	24514.65	23631.5
946.3799	2169.0195	24439.15	23554.8
946.5148	2170.526	24406.1	23520
946.6498	2172.0317	24304.3	23420.35
946.7846	2173.5367	24209.8	23324.6
946.9195	2175.0409	24150.6	23267.6
947.0543	2176.5445	24164	23279.65
947.1891	2178.0473	24073.85	23187.8
947.3239	2179.5494	23976.35	23089.05
947.4587	2181.0507	23880.55	22996.3
947.5934	2182.5513	23793.2	22911.5
947.7281	2184.0512	23732.65	22848.75
947.8628	2185.5504	23648.5	22763.05
947.9974	2187.0488	23542.85	22660.5
948.132	2188.5465	23493.65	22609.5
948.2666	2190.0435	23389.8	22506.15
948.4012	2191.5397	23300.85	22415.65
948.5357	2193.0353	23268.7	22385.8
948.6702	2194.5301	23145.2	22256.8
948.8047	2196.0241	23079.2	22192
948.9392	2197.5175	23030.2	22143.1
949.0736	2199.0101	22902.6	22010.2
949.208	2200.502	22800	21914.65
949.3424	2201.9931	22702.2	21816.7
949.4767	2203.4835	22594.8	21710.4
949.611	2204.9733	22593.8	21704.2
949.7453	2206.4622	22567.8	21686.35
949.8796	2207.9505	22423.8	21538.7
950.0138	2209.438	22329.65	21447.65
950.148	2210.9248	22299.85	21415.9
950.2822	2212.4109	22221.8	21337.3
950.4164	2213.8962	22124	21237.45
950.5505	2215.3809	22097.65	21210.5
950.6846	2216.8648	21993.35	21106.1
950.8186	2218.3479	21955.1	21062.75
950.9527	2219.8304	21854.65	20963.05
951.0867	2221.3121	21772.15	20881.2
951.2207	2222.7931	21744.35	20857.55
951.3546	2224.2733	21671.15	20785.9
951.4886	2225.7529	21584.45	20699.4
951.6225	2227.2317	21509.25	20620.95
951.7563	2228.7098	21463.05	20581.35
951.8902	2230.1872	21369.65	20487.55
952.024	2231.6638	21321.9	20440
952.1578	2233.1397	21212.95	20322.95
952.2916	2234.6149	21181	20300.1
952.4253	2236.0894	21094.2	20211.05
952.559	2237.5632	21051.25	20166.15
952.6927	2239.0362	20955.2	20071.6
952.8263	2240.5085	20909.3	20023.95
952.9599	2241.9801	20831.6	19946
953.0935	2243.4509	20748.25	19862.7
953.2271	2244.921	20682.7	19796.2
953.3606	2246.3904	20592.2	19704.3
953.4941	2247.8591	20549.8	19664.45
953.6276	2249.3271	20497.8	19612.6
953.7611	2250.7943	20411.85	19523.5
953.8945	2252.2608	20334.7	19447.8
954.0279	2253.7266	20309.05	19424.05
954.1612	2255.1917	20225.2	19338.2
954.2946	2256.656	20125.25	19241.2
954.4279	2258.1197	20062.85	19179.85
954.5612	2259.5826	20002.9	19116.8
954.6944	2261.0447	19982.25	19097.2
954.8276	2262.5062	19902.7	19014.7
954.9608	2263.9669	19870.35	18980
955.094	2265.4269	19831.25	18946.3
955.2271	2266.8862	19761.9	18879.7
955.3602	2268.3448	19735.55	18849.5
955.4933	2269.8026	19694.75	18808.85
955.6264	2271.2598	19580.8	18696.9
955.7594	2272.7162	19519.85	18638.95
955.8924	2274.1719	19491.55	18605.65
956.0253	2275.6268	19413.35	18526.2
956.1583	2277.0811	19391.4	18505.8
956.2912	2278.5346	19337.95	18453.75
956.4241	2279.9874	19272.05	18388.7
956.5569	2281.4395	19245.5	18362.8
956.6897	2282.8908	19150.6	18260.65
956.8225	2284.3414	19118.9	18231.35
956.9553	2285.7914	19055	18168.2
957.088	2287.2406	19012.1	18125.75
957.2207	2288.689	18975.7	18089
957.3534	2290.1368	18853.7	17966.8
957.486	2291.5838	18827.85	17938.2
957.6186	2293.0302	18802.15	17912.2
957.7512	2294.4758	18681.85	17793.35
957.8838	2295.9206	18621.25	17732.75
958.0163	2297.3648	18565.95	17682.65
958.1488	2298.8082	18531.9	17645.65
958.2813	2300.251	18489.7	17605.55
958.4137	2301.693	18410.3	17520.65
958.5461	2303.1343	18397.55	17511.3
958.6785	2304.5748	18295.65	17410.45
958.8108	2306.0147	18256.4	17370
958.9432	2307.4538	18219	17333
959.0754	2308.8922	18124.85	17243.5
959.2077	2310.3299	18108.1	17224.45
959.3399	2311.7669	18036.6	17155.15
959.4721	2313.2031	17953.05	17069.6
959.6043	2314.6387	17907.3	17021.8
959.7365	2316.0735	17847.1	16959.5
959.8686	2317.5076	17818.95	16934.45
960.0006	2318.941	17798	16913.35
960.1327	2320.3737	17714.2	16826.05
960.2647	2321.8056	17700.8	16812.8
960.3967	2323.2369	17596.35	16708.6
960.5287	2324.6674	17541.2	16653.8
960.6606	2326.0972	17435.25	16547.3
960.7925	2327.5263	17385.7	16500.65
960.9244	2328.9547	17336.35	16449.15
961.0562	2330.3823	17326.95	16439.55
961.1881	2331.8092	17342.25	16451.35
961.3198	2333.2355	17225.75	16339.55
961.4516	2334.661	17204.95	16316.8
961.5833	2336.0858	17152.65	16261.5
961.715	2337.5098	17119.55	16234.15
961.8467	2338.9332	17081	16194.6
961.9783	2340.3558	16972.7	16084.95
962.1099	2341.7778	16941.75	16055.45
962.2415	2343.199	16843.05	15955.65
962.373	2344.6195	16848.4	15966.3
962.5045	2346.0393	16812.45	15927.05
962.636	2347.4583	16758.9	15872.45
962.7675	2348.8767	16698.9	15811.9
962.8989	2350.2943	16679.1	15790.35
963.0303	2351.7113	16625.55	15735.9
963.1617	2353.1275	16556.75	15668.75
963.293	2354.543	16526.6	15631.45
963.4243	2355.9578	16458.3	15571.5
963.5556	2357.3718	16374.45	15489.35
963.6868	2358.7852	16320.3	15432.95
963.818	2360.1978	16259.1	15373.85
963.9492	2361.6098	16225.3	15341.3
964.0803	2363.021	16149.45	15260.6
964.2114	2364.4315	16107.75	15220.8
964.3425	2365.8413	16076.3	15184.7
964.4736	2367.2504	16014.55	15128.65
964.6046	2368.6587	15933.2	15046.95
964.7356	2370.0664	15871.45	14986.8
964.8666	2371.4733	15824.85	14937.75
964.9975	2372.8795	15763.8	14878.8
965.1284	2374.285	15696.85	14810.45
965.2593	2375.6899	15623.65	14739.7
965.3901	2377.0939	15540.7	14654.8
965.5209	2378.4973	15503.4	14619.95
965.6517	2379.9	15461.45	14575.05
965.7825	2381.3019	15402.15	14515.3
965.9132	2382.7032	15365.7	14481.15
966.0439	2384.1037	15340.55	14458.6
966.1745	2385.5035	15311.8	14426.85
966.3051	2386.9027	15206.45	14323.9
966.4357	2388.3011	15214.55	14327.35
966.5663	2389.6987	15156.55	14274.6
966.6968	2391.0957	15127.65	14242.25
966.8273	2392.492	15037.15	14156.25
966.9578	2393.8876	14927	14042.35
967.0882	2395.2824	14876.5	13991.8
967.2186	2396.6765	14861.45	13976.6
967.349	2398.07	14751.65	13864
967.4793	2399.4627	14757	13869.9
967.6097	2400.8547	14707.4	13822.4
967.7399	2402.246	14659.75	13767.5
967.8702	2403.6366	14545.95	13659.65
968.0004	2405.0265	14492.8	13608.8
968.1306	2406.4156	14485	13595.15
968.2607	2407.8041	14426.6	13538.45
968.3909	2409.1918	14324.75	13435.35
968.521	2410.5789	14257.5	13370.6
968.651	2411.9652	14244.05	13357.3
968.781	2413.3508	14191.65	13307.95
968.911	2414.7358	14140.45	13254.6
969.041	2416.12	14080.05	13196.3
969.1709	2417.5035	14076.5	13191.8
969.3008	2418.8863	13995	13109.95
969.4307	2420.2684	13950.4	13065.5
969.5606	2421.6497	13911.9	13027.55
969.6904	2423.0304	13804.15	12919.25
969.8201	2424.4104	13786.4	12899.5
969.9499	2425.7896	13701.35	12814.95
970.0796	2427.1682	13691.95	12807.85
970.2093	2428.546	13680.6	12792.25
970.3389	2429.9232	13631.45	12743.75
970.4685	2431.2996	13607.5	12719.95
970.5981	2432.6753	13566.5	12682
970.7277	2434.0503	13540.6	12653.85
970.8572	2435.4246	13446.75	12560.55
970.9867	2436.7982	13401.7	12513.7
971.1161	2438.1711	13387.2	12502.15
971.2456	2439.5433	13322.8	12436.45
971.375	2440.9148	13256.75	12370.2
971.5043	2442.2856	13193.6	12310.3
971.6336	2443.6557	13183.4	12296.3
971.7629	2445.025	13161.45	12274.3
971.8922	2446.3937	13100.05	12213.25
972.0214	2447.7617	13039	12152.6
972.1506	2449.1289	13039.1	12151.5
972.2798	2450.4955	13003.15	12115
972.4089	2451.8613	12961.75	12078.8
972.538	2453.2265	12933.9	12047.8
972.6671	2454.5909	12901.2	12014.95
972.7961	2455.9546	12834.75	11951.55
972.9251	2457.3177	12767.8	11882.95
973.0541	2458.68	12761.15	11875.4
973.1831	2460.0416	12728.65	11843.55
973.312	2461.4025	12720.45	11833.7
973.4408	2462.7627	12676.45	11780.05
973.5697	2464.1222	12631.8	11749.6
973.6985	2465.4811	12603.7	11715.8
973.8273	2466.8392	12537.7	11653.3
973.956	2468.1966	12524.95	11639.05
974.0847	2469.5533	12497.3	11609.85
974.2134	2470.9093	12445.6	11559.1
974.3421	2472.2645	12395.9	11508.3
974.4707	2473.6191	12354.45	11468.45
974.5993	2474.973	12274.8	11388.95
974.7278	2476.3262	12275.55	11388.15
974.8563	2477.6787	12219.85	11334.9
974.9848	2479.0305	12161.3	11276.95
975.1132	2480.3816	12119.4	11232.25
975.2417	2481.7319	12090.05	11207.75
975.37	2483.0816	12033.2	11145.95
975.4984	2484.4306	11979.15	11095.35
975.6267	2485.7789	11963.15	11079.2
975.755	2487.1264	11917.3	11031.3
975.8833	2488.4733	11866	10982.1
976.0115	2489.8195	11810.8	10918.45
976.1397	2491.165	11755.45	10867.35
976.2678	2492.5097	11718.15	10831.55
976.3959	2493.8538	11674.8	10792.3
976.524	2495.1972	11636.55	10749.2
976.6521	2496.5398	11580.25	10694.3
976.7801	2497.8818	11558.15	10669.9
976.9081	2499.2231	11501.9	10615.9
977.036	2500.5637	11492.45	10605.15
977.164	2501.9035	11465.2	10580.5
977.2918	2503.2427	11419.65	10531
977.4197	2504.5812	11391.85	10506.1
977.5475	2505.919	11348.35	10460.7
977.6753	2507.256	11322.4	10436.7
977.8031	2508.5924	11264.65	10378.95
977.9308	2509.9281	11224.55	10333.8
978.0585	2511.2631	11188.1	10303.3
978.1861	2512.5974	11161.35	10276.95
978.3137	2513.9309	11132.55	10246.4
978.4413	2515.2638	11087.85	10171.5
978.5689	2516.596	11044.75	10159.95
978.6964	2517.9275	10995	10108.95
978.8239	2519.2583	10946.35	10061.1
978.9513	2520.5884	10900.25	10013.7
979.0788	2521.9178	10871.1	9986.2
979.2062	2523.2465	10794.7	9910.55
979.3335	2524.5745	10801.15	9914.9
979.4608	2525.9018	10738.75	9850.65
979.5881	2527.2284	10710.3	9824.85
979.7154	2528.5543	10687.2	9803.15
979.8426	2529.8796	10638.15	9751.25
979.9698	2531.2041	10648.55	9762.95
980.0969	2532.5279	10629.65	9744.65
980.224	2533.851	10597.5	9711.25
980.3511	2535.1735	10579.95	9696.2
980.4781	2536.4952	10523	9636.95
980.6052	2537.8163	10502.4	9617.05
980.7321	2539.1366	10464.65	9578.7
980.8591	2540.4562	10428.15	9541.65
980.986	2541.7752	10408.8	9523.75
981.1129	2543.0935	10406.05	9520.6
981.2397	2544.411	10395.1	9507.6
981.3665	2545.7279	10352.65	9470.15
981.4933	2547.0441	10330.2	9443.65
981.62	2548.3596	10320.85	9434
981.7467	2549.6744	10285.45	9399.4
981.8734	2550.9885	10241.95	9348.75
982.0001	2552.3019	10218.4	9333.1
982.1267	2553.6146	10208.25	9322.8
982.2532	2554.9266	10156.6	9270.3
982.3798	2556.2379	10136.7	9250.75
982.5063	2557.5485	10109.45	9224
982.6327	2558.8585	10100.05	9208.2
982.7592	2560.1677	10062.6	9172.05
982.8856	2561.4762	10057.85	9171.05
983.0119	2562.7841	10035.65	9145.7
983.1383	2564.0913	10008.55	9123.4
983.2646	2565.3977	9970.45	9085.55
983.3908	2566.7035	9934.4	9047.4
983.517	2568.0086	9944.35	9056.65
983.6432	2569.313	9943.75	9058
983.7694	2570.6167	9909.75	9020.5
983.8955	2571.9197	9868.05	8984
984.0216	2573.222	9822.3	8933.4
984.1476	2574.5236	9802.4	8916.7
984.2737	2575.8246	9796.05	8906.7
984.3996	2577.1248	9779.7	8891.75
984.5256	2578.4244	9753.5	8866.3
984.6515	2579.7232	9750.6	8865.25
984.7774	2581.0214	9731.25	8819.65
984.9032	2582.3189	9686.1	8800.3
985.029	2583.6157	9688.65	8798.4
985.1548	2584.9118	9669.2	8785.15
985.2806	2586.2072	9624.35	8739.85
985.4063	2587.5019	9590.95	8707
985.5319	2588.7959	9553.75	8666.4
985.6576	2590.0893	9544.95	8656.6
985.7832	2591.3819	9528.85	8643.3
985.9087	2592.6739	9462.4	8576.6
986.0343	2593.9652	9452.2	8566.3
986.1597	2595.2557	9419.1	8534.5
986.2852	2596.5456	9356.35	8468.05
986.4106	2597.8348	9344.65	8460.5
986.536	2599.1234	9309.75	8423.4
986.6614	2600.4112	9275.4	8389.85
986.7867	2601.6983	9239.5	8350.75
986.912	2602.9848	9201.85	8316.05
987.0372	2604.2705	9198	8305.4
987.1624	2605.5556	9174.1	8287.95
987.2876	2606.84	9126.2	8242.6
987.4128	2608.1237	9093.4	8208
987.5379	2609.4067	9048.45	8160.7
987.6629	2610.689	9030.75	8138.8
987.788	2611.9707	8992.5	8104.05
987.913	2613.2516	8946.55	8056.75
988.0379	2614.5319	8899.95	8014.65
988.1629	2615.8115	8869.45	7982.45
988.2878	2617.0903	8827.55	7942.95
988.4126	2618.3685	8816.4	7930.9
988.5375	2619.6461	8784.35	7901.15
988.6622	2620.9229	8731.6	7845.85
988.787	2622.199	8719.85	7834.05
988.9117	2623.4745	8713.4	7826.65
989.0364	2624.7493	8700.8	7815
989.161	2626.0234	8671.9	7787
989.2857	2627.2968	8610.5	7724.2
989.4102	2628.5695	8571.9	7686.25
989.5348	2629.8415	8540.3	7656.55
989.6593	2631.1128	8510.6	7624.75
989.7837	2632.3835	8477.4	7595.2
989.9082	2633.6535	8437.5	7552.65
990.0326	2634.9228	8427.35	7543.2
990.1569	2636.1914	8390.6	7506.3
990.2812	2637.4593	8388.45	7497.45
990.4055	2638.7265	8342.35	7456.05
990.5298	2639.9931	8322.5	7438.5
990.654	2641.259	8290.35	7404.2
990.7782	2642.5242	8265	7381.6
990.9023	2643.7887	8232.6	7346.6
991.0264	2645.0525	8229.4	7343.1
991.1505	2646.3156	8185.35	7299.95
991.2745	2647.5781	8167.6	7282.55
991.3985	2648.8398	8123.1	7240.35
991.5225	2650.1009	8124.3	7231.55
991.6464	2651.3613	8075.15	7191.45
991.7703	2652.6211	8071.45	7186.3
991.8942	2653.8801	8040.15	7155.8
992.018	2655.1385	8008.3	7120.45
992.1418	2656.3961	7990.45	7104.2
992.2655	2657.6531	7989.95	7102.1
992.3892	2658.9094	7937.7	7052.1
992.5129	2660.1651	7933.3	7048.65
992.6366	2661.42	7906.65	7021.45
992.7602	2662.6743	7880.2	6995.35
992.8837	2663.9279	7883.3	6997.95
993.0073	2665.1808	7854.95	6972.3
993.1307	2666.433	7829.85	6941.8
993.2542	2667.6846	7800.1	6915.75
993.3776	2668.9354	7779.9	6891.45
993.501	2670.1856	7746.4	6859.4
993.6244	2671.4351	7728.35	6845.05
993.7477	2672.6839	7709.45	6823.8
993.8709	2673.9321	7712.3	6829.3
993.9942	2675.1795	7657.65	6774.1
994.1174	2676.4263	7628.1	6744.15
994.2405	2677.6724	7636.25	6752.8
994.3637	2678.9179	7604.8	6719.4
994.4868	2680.1626	7596.35	6711.35
994.6098	2681.4067	7569.55	6685.4
994.7328	2682.6501	7532	6647.2
994.8558	2683.8928	7520.9	6635.95
994.9788	2685.1348	7464.8	6579.55
995.1017	2686.3761	7452.2	6568.05
995.2245	2687.6168	7426.1	6543.7
995.3474	2688.8568	7411.45	6526.55
995.4702	2690.0961	7382.6	6501.25
995.5929	2691.3348	7356.35	6470.65
995.7156	2692.5727	7352.35	6467.35
995.8383	2693.81	7317.2	6433.6
995.961	2695.0466	7312.85	6429.7
996.0836	2696.2826	7274.1	6387.85
996.2062	2697.5178	7243.15	6357.1
996.3287	2698.7524	7225.05	6336.8
996.4512	2699.9863	7222.2	6335.8
996.5737	2701.2195	7178.5	6296.65
996.6961	2702.452	7150.2	6264.1
996.8185	2703.6839	7129.25	6243.75
996.9408	2704.9151	7127.05	6243.6
997.0631	2706.1456	7100.65	6216.6
997.1854	2707.3755	7062.25	6176.35
997.3077	2708.6046	7057.95	6171
997.4299	2709.8331	7037.7	6152
997.552	2711.0609	7006.45	6121.25
997.6742	2712.2881	7002.45	6117.85
997.7963	2713.5145	6990.75	6102.9
997.9183	2714.7403	6972.5	6091.9
998.0403	2715.9654	6918.35	6032.55
998.1623	2717.1899	6928.05	6041.35
998.2842	2718.4136	6894.4	6009.6
998.4062	2719.6367	6879.45	5995.2
998.528	2720.8591	6862.85	5974.85
998.6498	2722.0809	6840.6	5956.5
998.7716	2723.3019	6823.85	5935.05
998.8934	2724.5223	6807.9	5922.6
999.0151	2725.7421	6765.5	5879
999.1368	2726.9611	6760.2	5874.15
999.2584	2728.1795	6751.65	5862.75
999.38	2729.3972	6724.7	5841.6
999.5016	2730.6142	6692.9	5804.7
999.6231	2731.8306	6659.2	5775.15
999.7446	2733.0462	6630.4	5744.35
999.8661	2734.2612	6612.65	5722.35
999.9875	2735.4756	6572.7	5688.15
1000.1089	2736.6892	6519.05	5634.9
1000.2302	2737.9022	6485	5602.55
1000.3515	2739.1145	6456.1	5570.75
1000.4728	2740.3262	6424.5	5532.5
1000.594	2741.5372	6385.7	5503.5
1000.7152	2742.7475	6361.8	5478.4
1000.8363	2743.9571	6371.6	5489.25
1000.9575	2745.1661	6326.8	5436.85
1001.0785	2746.3744	6303.9	5418.35
1001.1996	2747.582	6280.85	5396.3
1001.3206	2748.7889	6250.8	5364.7
1001.4415	2749.9952	6218.5	5338.2
1001.5625	2751.2008	6211.8	5325.85
1001.6833	2752.4057	6195.2	5308.15
1001.8042	2753.61	6158.4	5274.6
1001.925	2754.8136	6165.5	5278.45
1002.0458	2756.0165	6132.25	5249.9
1002.1665	2757.2188	6100.5	5216.35
1002.2872	2758.4204	6075.75	5192.1
1002.4078	2759.6213	6055.25	5169
1002.5285	2760.8215	6060.75	5172.9
1002.649	2762.0211	6012.7	5129.55
1002.7696	2763.22	5993.95	5106.7
1002.8901	2764.4182	5998.85	5113.85
1003.0106	2765.6158	5978.35	5094.05
1003.131	2766.8127	5949.65	5065.1
1003.2514	2768.009	5932.5	5050
1003.3717	2769.2045	5903.45	5017.85
1003.492	2770.3994	5910.95	5028.1
1003.6123	2771.5936	5886.8	5003.1
1003.7325	2772.7872	5859.65	4975.6
1003.8527	2773.9801	5813.95	4929.5
1003.9729	2775.1723	5806.6	4907
1004.093	2776.3639	5782.6	4899.65
1004.2131	2777.5548	5774.5	4890.6
1004.3331	2778.745	5756	4869.5
1004.4531	2779.9346	5755.15	4870.8
1004.5731	2781.1235	5727.05	4843.2
1004.693	2782.3117	5714.9	4833.6
1004.8129	2783.4992	5681.4	4799.6
1004.9328	2784.6861	5660.95	4775.3
1005.0526	2785.8723	5659.45	4774.3
1005.1723	2787.0579	5659.1	4775.65
1005.2921	2788.2428	5628.25	4745.55
1005.4118	2789.427	5619.9	4737.8
1005.5314	2790.6106	5595.05	4711.1
1005.651	2791.7935	5577.9	4695.95
1005.7706	2792.9757	5542.7	4659.95
1005.8902	2794.1573	5530.95	4647.65
1006.0097	2795.3382	5526.4	4643.4
1006.1291	2796.5184	5521.5	4640.1
1006.2485	2797.698	5509.7	4626
1006.3679	2798.8769	5475.45	4592.7
1006.4873	2800.0551	5463	4578.4
1006.6066	2801.2327	5475.2	4591.65
1006.7258	2802.4096	5458.4	4576.55
1006.8451	2803.5859	5464.6	4580.65
1006.9642	2804.7615	5431.45	4548.75
1007.0834	2805.9364	5440.3	4559
1007.2025	2807.1106	5440.15	4558.8
1007.3216	2808.2842	5426.65	4541.55
1007.4406	2809.4572	5443	4560.2
1007.5596	2810.6294	5441.95	4558.65
1007.6785	2811.801	5454.95	4572.3
1007.7975	2812.972	5463.85	4583.8
1007.9163	2814.1423	5461.6	4577.8
1008.0352	2815.3119	5487.8	4604.55
1008.154	2816.4808	5510.35	4628.9
1008.2727	2817.6491	5515.95	4631.05
1008.3914	2818.8167	5539.9	4660
1008.5101	2819.9837	5566.75	4680
1008.6288	2821.15	5583.8	4703.05
1008.7474	2822.3157	5624.05	4742.1
1008.8659	2823.4807	5635.95	4754.95
1008.9844	2824.645	5673.05	4788.15
1009.1029	2825.8086	5691.7	4809.65
1009.2214	2826.9716	5721.05	4837.2
1009.3398	2828.134	5734.7	4853.55
1009.4581	2829.2957	5754.6	4872.15
1009.5764	2830.4567	5763.85	4882.65
1009.6947	2831.617	5787.65	4903.95
1009.813	2832.7767	5773.95	4893.4
1009.9312	2833.9358	5754.4	4874.15
1010.0493	2835.0941	5737.45	4854.35
1010.1675	2836.2519	5722.45	4841.55
1010.2855	2837.4089	5686.7	4802.65
1010.4036	2838.5653	5682.1	4801.45
1010.5216	2839.7211	5674.2	4791.5
1010.6396	2840.8761	5641.2	4757.85
1010.7575	2842.0306	5629.85	4748
1010.8754	2843.1843	5643.95	4762
1010.9932	2844.3374	5659.8	4777.9
1011.111	2845.4899	5669.15	4786.35
1011.2288	2846.6417	5712.35	4830.6
1011.3465	2847.7928	5743.7	4862.65
1011.4642	2848.9433	5762.75	4883.65
1011.5818	2850.0931	5778.7	4897.5
1011.6995	2851.2422	5819.85	4935.1
1011.817	2852.3907	5867.65	4982.7
1011.9345	2853.5385	5893.7	5009.9
1012.052	2854.6857	5910.85	5016.25
1012.1695	2855.8323	5915.35	5033.45
1012.2869	2856.9781	5946.8	5063.6
1012.4042	2858.1233	5975.9	5093.75
1012.5216	2859.2679	5981.55	5100.75
1012.6389	2860.4118	6002.45	5120.75
1012.7561	2861.555	6035.6	5149.15
1012.8733	2862.6976	6025.7	5142.15
1012.9905	2863.8395	6064.1	5183.7
1013.1076	2864.9808	6054.95	5173.45
1013.2247	2866.1214	6043.4	5162.95
1013.3417	2867.2614	6049.3	5166.65
1013.4587	2868.4007	6064.35	5181.25
1013.5757	2869.5393	6035.85	5152.8
1013.6926	2870.6773	6026.1	5140.15
1013.8095	2871.8146	6043.9	5160.35
1013.9263	2872.9513	6021.65	5136.15
1014.0431	2874.0874	5994.8	5113.4
1014.1599	2875.2227	5979.25	5096.35
1014.2766	2876.3574	5933.15	5049.8
1014.3933	2877.4915	5895.4	5015.55
1014.51	2878.6249	5876.35	4993.95
1014.6266	2879.7577	5840.8	4955.75
1014.7431	2880.8898	5823.1	4929.9
1014.8596	2882.0212	5781.55	4901.5
1014.9761	2883.152	5764.9	4882.45
1015.0925	2884.2821	5743.2	4862.85
1015.2089	2885.4116	5735.35	4854.75
1015.3253	2886.5405	5712.4	4831.4
1015.4416	2887.6686	5696.5	4810.7
1015.5579	2888.7962	5679.35	4799.2
1015.6741	2889.923	5681.1	4799.25
1015.7903	2891.0493	5691.25	4811.85
1015.9065	2892.1748	5666.05	4784.55
1016.0226	2893.2997	5652.3	4769.5
1016.1387	2894.424	5647.35	4766.65
1016.2547	2895.5476	5649.05	4768.1
1016.3707	2896.6706	5633.55	4753.35
1016.4866	2897.7929	5641.65	4761.1
1016.6025	2898.9145	5627.1	4744.9
1016.7184	2900.0355	5631.95	4750.35
1016.8342	2901.1559	5646.2	4762.55
1016.95	2902.2756	5643.05	4761.45
1017.0658	2903.3946	5665.35	4782.85
1017.1815	2904.513	5678.7	4792.9
1017.2971	2905.6308	5680.7	4799.75
1017.4127	2906.7479	5673.85	4788.6
1017.5283	2907.8643	5684.05	4801.2
1017.6439	2908.9801	5663.35	4780.45
1017.7594	2910.0953	5666.1	4785.45
1017.8748	2911.2098	5657.75	4771.25
1017.9902	2912.3236	5636.65	4749
1018.1056	2913.4368	5607.25	4723.05
1018.2209	2914.5494	5592.6	4710.25
1018.3362	2915.6613	5540.85	4654.45
1018.4515	2916.7725	5547.5	4663.5
1018.5667	2917.8831	5490.9	4606.9
1018.6819	2918.9931	5453.95	4572.25
1018.797	2920.1024	5416.15	4534.15
1018.9121	2921.211	5402.55	4520.9
1019.0271	2922.319	5386.55	4506.4
1019.1421	2923.4264	5375.9	4495
1019.2571	2924.5331	5346.65	4469
1019.372	2925.6391	5334.5	4453.7
1019.4869	2926.7445	5317.05	4438.15
1019.6017	2927.8493	5319.9	4438.45
1019.7165	2928.9534	5306.2	4425.45
1019.8313	2930.0569	5294.7	4409.45
1019.946	2931.1597	5272.55	4388.85
1020.0606	2932.2619	5286.55	4403.05
1020.1753	2933.3634	5264.4	4384.3
1020.2899	2934.4643	5257.85	4368.15
1020.4044	2935.5645	5266	4380
1020.5189	2936.6641	5223.2	4338.5
1020.6334	2937.763	5180.95	4299.6
1020.7478	2938.8613	5139.7	4258
1020.8622	2939.959	5097.9	4211.15
1020.9765	2941.056	5044	4164.5
1021.0908	2942.1523	4987.6	4108.1
1021.2051	2943.248	4922.1	4038.8
1021.3193	2944.3431	4840.35	3960.75
1021.4334	2945.4375	4759.7	3878.8
1021.5476	2946.5313	4691.85	3812.5
1021.6617	2947.6244	4612	3730.9
1021.7757	2948.7169	4524.3	3641.8
1021.8897	2949.8087	4450.6	3570.05
1022.0037	2950.8999	4375.1	3491.25
1022.1176	2951.9904	4315.85	3434.05
1022.2315	2953.0803	4252.35	3370.85
1022.3453	2954.1696	4170.1	3288.4
1022.4591	2955.2582	4164.15	3285.15
1022.5728	2956.3462	4103.95	3222.55
1022.6865	2957.4335	4068.95	3186.05
1022.8002	2958.5202	4040.8	3158.85
1022.9138	2959.6062	4000.1	3118.2
1023.0274	2960.6916	3978.2	3097.2
1023.141	2961.7764	3946.45	3066.3
1023.2545	2962.8605	3928.05	3047.85
1023.3679	2963.9439	3909.8	3030.65
1023.4813	2965.0267	3881.2	2998.35
1023.5947	2966.1089	3875.4	2972.25
1023.708	2967.1905	3849.85	2969.7
1023.8213	2968.2714	3838.6	2957.7
1023.9346	2969.3516	3828.45	2948
1024.0478	2970.4312	3827.65	2940.55
1024.1609	2971.5102	3809.4	2928.1
1024.274	2972.5885	3805.55	2924
1024.3871	2973.6662	3813.1	2927.4
1024.5002	2974.7432	3786.65	2907.15
1024.6132	2975.8196	3776.95	2897.35
1024.7261	2976.8954	3766.65	2887.15
1024.839	2977.9705	3747.15	2866.6
1024.9519	2979.045	3723	2841.05
1025.0647	2980.1188	3697.2	2816.8
1025.1775	2981.192	3683.45	2803.7
1025.2902	2982.2645	3674.05	2792.1
1025.4029	2983.3364	3647.9	2768.15
1025.5156	2984.4077	3602	2721.85
1025.6282	2985.4783	3590.85	2705.35
1025.7407	2986.5483	3547.95	2666.15
1025.8532	2987.6177	3528.15	2647.75
1025.9657	2988.6864	3493.3	2610.95
1026.0782	2989.7545	3470.95	2587.9
1026.1906	2990.8219	3429.2	2550.5
1026.3029	2991.8887	3386.75	2505.95
1026.4152	2992.9548	3362.25	2480.05
1026.5275	2994.0204	3344.05	2464
1026.6397	2995.0852	3314.6	2434.65
1026.7519	2996.1495	3290.75	2410.6
1026.864	2997.2131	3263.1	2382.35
1026.9761	2998.276	3246.5	2364.85
1027.0882	2999.3383	3210.1	2329.6
1027.2002	3000.4	3198.05	2317
1027.3122	3001.4611	3178.65	2297.2
1027.4241	3002.5215	3160.75	2281.15
1027.536	3003.5812	3133	2251.2
1027.6478	3004.6404	3117.5	2235.95
1027.7596	3005.6989	3100.35	2219.45
1027.8714	3006.7567	3088.75	2210.7
1027.9831	3007.8139	3095.15	2182.8
1028.0947	3008.8705	3063.3	2182.95
1028.2064	3009.9264	3044.95	2162.15
1028.3179	3010.9818	3044.55	2165.1
1028.4295	3012.0364	3031.75	2149.55
1028.541	3013.0905	3019.6	2138.6
1028.6524	3014.1439	2998.9	2118.15
1028.7638	3015.1966	2985.9	2105.35
1028.8752	3016.2487	2981.15	2101.8
1028.9865	3017.3002	2974.1	2088.65
1029.0978	3018.3511	2966.1	2088.3
1029.209	3019.4013	2959.15	2078.55
1029.3202	3020.4509	2937.5	2058.75
1029.4314	3021.4998	2946.05	2065.2
1029.5425	3022.5481	2936.8	2056
1029.6535	3023.5958	2933	2054.3
1029.7645	3024.6428	2915.35	2034.05
1029.8755	3025.6892	2904.95	2025.8
1029.9864	3026.735	2890.75	2009.4
1030.0973	3027.7802	2884.55	2004.05
1030.2082	3028.8247	2878.55	1998.85
1030.319	3029.8685	2864.85	1983.9
1030.4297	3030.9118	2863.7	1980.8
1030.5404	3031.9544	2857.95	1979.15
1030.6511	3032.9963	2854.1	1973.15
1030.7617	3034.0376	2844.9	1966.6
1030.8723	3035.0783	2838.7	1953.7
1030.9829	3036.1184	2831.4	1951.25
1031.0934	3037.1578	2833.75	1954.45
1031.2038	3038.1966	2824.5	1940.3
1031.3142	3039.2348	2821.8	1945.2
1031.4246	3040.2723	2807	1917.65
1031.5349	3041.3092	2806.8	1928.2
1031.6452	3042.3455	2786.05	1906.3
1031.7554	3043.3811	2775.5	1895.05
1031.8656	3044.4161	2774.55	1893.45
1031.9758	3045.4505	2770.45	1890.55
1032.0859	3046.4842	2754.95	1873.6
1032.1959	3047.5173	2739.35	1859.55
1032.3059	3048.5498	2728.4	1848.55
1032.4159	3049.5816	2729.25	1849.15
1032.5258	3050.6128	2720.05	1838.6
1032.6357	3051.6434	2712.05	1830.6
1032.7455	3052.6734	2698.95	1819
1032.8553	3053.7027	2697.1	1817.65
1032.9651	3054.7314	2693.25	1814.25
1033.0748	3055.7594	2668.8	1789.45
1033.1845	3056.7868	2671.3	1789.6
1033.2941	3057.8136	2655.75	1775.05
1033.4037	3058.8398	2658.8	1778.5
1033.5132	3059.8653	2644.25	1764.7
1033.6227	3060.8902	2633.3	1752.8
1033.7321	3061.9145	2630.05	1750.6
1033.8415	3062.9381	2614.9	1735.3
1033.9509	3063.9612	2623.55	1726.8
1034.0602	3064.9835	2597.65	1717.65
1034.1694	3066.0053	2587.3	1705.8
1034.2787	3067.0264	2580.45	1702
1034.3878	3068.0469	2577.35	1696.2
1034.497	3069.0668	2571.25	1688
1034.6061	3070.086	2550.65	1671.65
1034.7151	3071.1046	2541.9	1661.4
1034.8241	3072.1226	2539.4	1657.8
1034.9331	3073.1399	2533.3	1655.3
1035.042	3074.1567	2512	1631.2
1035.1508	3075.1727	2500.35	1621.25
1035.2597	3076.1882	2505.25	1624.1
1035.3684	3077.203	2492.35	1613.15
1035.4772	3078.2173	2482.45	1601.05
1035.5859	3079.2308	2465.15	1582
1035.6945	3080.2438	2445.1	1563.75
1035.8031	3081.2561	2440.5	1561.15
1035.9117	3082.2678	2428.6	1549.3
1036.0202	3083.2789	2416.5	1536.7
1036.1286	3084.2893	2402.4	1524.45
1036.2371	3085.2991	2386.65	1505.3
1036.3454	3086.3083	2392.05	1507.2
1036.4538	3087.3169	2379.25	1495.85
1036.562	3088.3248	2379.75	1499.05
1036.6703	3089.3321	2371.8	1490.75
1036.7785	3090.3388	2366.85	1485.95
1036.8866	3091.3449	2341.55	1461.3
1036.9948	3092.3503	2336.05	1453.55
1037.1028	3093.3551	2317.75	1440.1
1037.2108	3094.3593	2318.35	1440.7
1037.3188	3095.3629	2320.15	1439.75
1037.4267	3096.3658	2310.5	1430.65
1037.5346	3097.3681	2292.3	1411.9
1037.6425	3098.3698	2289.6	1407.95
1037.7503	3099.3708	2285.4	1399.6
1037.858	3100.3713	2274	1396.95
1037.9657	3101.3711	2266.95	1386.75
1038.0734	3102.3702	2379.3	1363.3
1038.181	3103.3688	2264.6	1383.75
1038.2886	3104.3667	2233.9	1355.3
1038.3961	3105.364	2233.15	1352.15
1038.5036	3106.3607	2226.55	1344.95
1038.611	3107.3568	2215.45	1333.5
1038.7184	3108.3522	2204.35	1325.85
1038.8257	3109.347	2199.2	1320.05
1038.933	3110.3412	2203.85	1319.25
1039.0403	3111.3348	2182.3	1303.75
1039.1475	3112.3277	2173.7	1294.55
1039.2547	3113.32	2155.45	1276.95
1039.3618	3114.3117	2161.4	1281.95
1039.4689	3115.3028	2159.5	1279.35
1039.5759	3116.2932	2143.85	1263.2
1039.6829	3117.2831	2137.5	1252.5
1039.7898	3118.2723	2124.3	1244.85
1039.8967	3119.2608	2120.75	1240.15
1040.0035	3120.2488	2113.25	1230.65
1040.1103	3121.2361	2105	1225.3
1040.2171	3122.2229	2101.6	1222.55
1040.3238	3123.209	2098.1	1216.85
1040.4305	3124.1944	2086	1209.5
1040.5371	3125.1793	2077.75	1196.1
1040.6437	3126.1635	2080.6	1200.15
1040.7502	3127.1471	2062.8	1183.7
1040.8567	3128.1301	2053.9	1171.3
1040.9631	3129.1125	2050.05	1171.45
1041.0695	3130.0942	2051.95	1170.1
1041.1759	3131.0753	2051.25	1161.3
1041.2822	3132.0558	2047.55	1164.7
1041.3884	3133.0357	2036.8	1155.2
1041.4946	3134.015	2032.4	1153.95
1041.6008	3134.9936	2022.8	1142.25
1041.7069	3135.9716	2029.75	1128.95
1041.813	3136.949	2017.05	1137.95
1041.919	3137.9258	2011.75	1124.55
1042.025	3138.902	2009.6	1124.45
1042.1309	3139.8775	1993.65	1114.25
1042.2368	3140.8524	1983.15	1103
1042.3427	3141.8267	1989.7	1108.5
1042.4485	3142.8004	1990	1109.4
1042.5542	3143.7735	1991.9	1104.4
1042.6599	3144.7459	1983.75	1104.15
1042.7656	3145.7178	1974.85	1096
1042.8712	3146.689	1959.1	1081.5
1042.9768	3147.6596	1957.45	1074.65
1043.0823	3148.6295	1960.15	1081.6
1043.1878	3149.5989	1944.35	1065.25
1043.2932	3150.5676	1935.95	1056.65
1043.3986	3151.5357	1933.05	1056.25
1043.5039	3152.5032	1927.45	1048.7
1043.6092	3153.4701	1912.35	1033.1
1043.7145	3154.4364	1925.8	1045.2
1043.8197	3155.402	1910.8	1032.05
1043.9248	3156.367	1895.6	1015.6
1044.03	3157.3315	1939.9	1019.6
1044.135	3158.2952	1899.8	1021.35
1044.24	3159.2584	1894.6	1016.25
1044.345	3160.221	1881.55	1001.2
1044.4499	3161.1829	1874.15	993.85
1044.5548	3162.1442	1870.1	990.4
1044.6596	3163.105	1865.5	985.9
1044.7644	3164.065	1862.55	981.95
1044.8692	3165.0245	1853.7	971.5
1044.9739	3165.9834	1853.8	975.05
1045.0785	3166.9416	1842.2	963.1
1045.1831	3167.8993	1837.25	956.6
1045.2877	3168.8563	1833.35	953.5
1045.3922	3169.8127	1818.45	939.25
1045.4966	3170.7684	1821.2	941.7
1045.6011	3171.7236	1820.5	941.6
1045.7054	3172.6782	1814.2	934.4
1045.8098	3173.6321	1813.45	936.25
1045.914	3174.5854	1809.6	925.5
1046.0183	3175.5381	1797.15	917.1
1046.1224	3176.4902	1792.6	914
1046.2266	3177.4417	1787.9	910.35
1046.3307	3178.3926	1785.65	907.15
1046.4347	3179.3428	1779.9	902.65
1046.5387	3180.2924	1771.3	892.95
1046.6427	3181.2415	1762.7	883.3
1046.7466	3182.1899	1758.85	878.9
1046.8504	3183.1377	1750.4	871.55
1046.9542	3184.0848	1753.2	870
1047.058	3185.0314	1743.25	864.8
1047.1617	3185.9773	1740.5	860.6
1047.2654	3186.9227	1743.85	865.15
1047.369	3187.8674	1736.4	857.1
1047.4726	3188.8115	1728.15	842.95
1047.5761	3189.755	1721.5	842.05
1047.6796	3190.6979	1721.85	842.25
1047.783	3191.6402	1723.15	846.2
1047.8864	3192.5818	1709.45	830
1047.9898	3193.5229	1724.35	827.5
1048.0931	3194.4633	1706.9	827.5
1048.1963	3195.4031	1701.6	822.05
1048.2995	3196.3423	1698	818.85
1048.4027	3197.2809	1696	815.85
1048.5058	3198.2189	1685.05	805.6
1048.6089	3199.1563	1697.1	800
1048.7119	3200.0931	1682.1	804.05
1048.8148	3201.0292	1668.45	789.4
1048.9178	3201.9648	1667.3	787.85
1049.0206	3202.8997	1666.1	784.05
1049.1235	3203.834	1666.95	787.15
1049.2262	3204.7677	1651.75	773.6
1049.329	3205.7008	1659.1	777.75
1049.4317	3206.6333	1647.9	768
1049.5343	3207.5652	1646.1	764.85
1049.6369	3208.4964	1642.35	764.3
1049.7394	3209.4271	1636.75	759.1
1049.8419	3210.3571	1625.45	748.3
1049.9444	3211.2865	1627.9	747.05
1050.0468	3212.2154	1622.6	739.75
1050.1491	3213.1436	1627.25	744
1050.2514	3214.0712	1626.4	742.5
1050.3537	3214.9982	1616.4	736.55
1050.4559	3215.9246	1611.75	731.1
1050.5581	3216.8503	1605.4	727.55
1050.6602	3217.7755	1612.4	733
1050.7623	3218.7001	1604.2	724.35
1050.8643	3219.624	1595.3	718.1
1050.9663	3220.5473	1594.75	715.3
1051.0682	3221.4701	1595.45	716.05
1051.1701	3222.3922	1591.8	710.15
1051.2719	3223.3137	1579.25	699.95
1051.3737	3224.2346	1581.2	702.85
1051.4754	3225.1549	1577	699.75
1051.5771	3226.0746	1574.75	694.65
1051.6788	3226.9937	1569.9	689
1051.7804	3227.9121	1562.6	684.15
1051.8819	3228.83	1558.6	679.85
1051.9834	3229.7473	1556.9	679.2
1052.0849	3230.6639	1548.6	671.3
1052.1863	3231.5799	1546.3	667.55
1052.2876	3232.4954	1547.15	667.9
1052.3889	3233.4102	1540.05	662.05
1052.4902	3234.3244	1535.45	656.55
1052.5914	3235.238	1530.75	652.4
1052.6926	3236.151	1547.45	644.55
1052.7937	3237.0634	1523.7	646
1052.8948	3237.9752	1524.6	645.7
1052.9958	3238.8864	1520.7	641.75
1053.0968	3239.797	1511.75	631.25
1053.1977	3240.7069	1517.3	636.35
1053.2986	3241.6163	1506.15	624.85
1053.3994	3242.5251	1499.5	619.25
1053.5002	3243.4332	1496.2	617.8
1053.6009	3244.3408	1503.3	623.95
1053.7016	3245.2477	1493.05	614.45
1053.8022	3246.154	1492.85	614.25
1053.9028	3247.0598	1486.4	605.95
1054.0034	3247.9649	1473.85	596.5
1054.1039	3248.8694	1476.85	596.85
1054.2043	3249.7733	1469.6	589.85
1054.3047	3250.6766	1470.45	592.55
1054.4051	3251.5793	1463.7	585.45
1054.5054	3252.4814	1457.5	578
1054.6056	3253.3829	1456.55	577.35
1054.7058	3254.2838	1451.85	573
1054.806	3255.1841	1453.2	575.05
1054.9061	3256.0838	1445.25	565.7
1055.0061	3256.9829	1435.55	557.4
1055.1062	3257.8814	1437.3	557.95
1055.2061	3258.7792	1429.85	547.6
1055.306	3259.6765	1423.05	545.45
1055.4059	3260.5731	1417.95	539.6
1055.5057	3261.4692	1409.25	527.9
1055.6055	3262.3647	1406.1	525.75
1055.7052	3263.2595	1392.35	512.25
1055.8049	3264.1538	1392.2	514.25
1055.9045	3265.0474	1387.1	507.45
1056.0041	3265.9404	1380.9	500.85
1056.1036	3266.8329	1365.95	486.95
1056.2031	3267.7247	1365.1	476.35
1056.3025	3268.616	1354.65	478.1
1056.4019	3269.5066	1336.05	457.8
1056.5013	3270.3966	1328	447
1056.6005	3271.286	1312.1	432.35
