Software Version:	3.9.2.0
Unit SN:	10000200
Spectrometer SN:	6960
Date:	3/6/2024 11:01:36 AM
Data Line Index:	25
Spectral Points:	2048
Integration time (ms):	125
Averages:	20
Delay (ms):	30
Sequence Number:	1
Processing:	dark subtract
Laser Power (mW):	300
Laser Current (mA):	822
Laser Diode Temp (C):	25
Laser Case Temp (C):	28.2
System Temp (C):	28.1
Spectrometer Temp (C):	25.6
CCD Temp (C):	0.004
Secondary Temp (C):	20.004
Heatsink Temp (C):	23.945
CCDPCB Temp (C):	37.274
SecondaryPCB Temp (C):	34.806

Wavelength	RamanShift	Raw Counts	Dark Subtracted
787.061	30.1047	1073.95	660.55
787.2016	32.3739	1097.2	685.3
787.3422	34.6426	1144.3	730.8
787.4828	36.9109	1183.4	767.1
787.6235	39.1787	1235.5	817.1
787.7642	41.4461	1303.15	879.95
787.9049	43.7131	1360.85	931.45
788.0456	45.9796	1417.4	987
788.1863	48.2456	1484.75	1049.35
788.3271	50.5112	1552.45	1114.75
788.4679	52.7764	1610.75	1171.4
788.6087	55.0411	1686.2	1239.95
788.7496	57.3054	1767.5	1316.65
788.8904	59.5692	1855.45	1403.45
789.0313	61.8326	1947.35	1489.85
789.1722	64.0955	2047	1587.9
789.3132	66.3579	2171.2	1705.55
789.4541	68.6199	2299.3	1831.05
789.5951	70.8815	2543.3	2071.25
789.7361	73.1426	3005.1	2529.35
789.8771	75.4032	4192.9	3711.4
790.0181	77.6634	7207.3	6722.6
790.1592	79.9231	14943.55	14452.65
790.3003	82.1824	47985.3	47485.95
790.4414	84.4412	65535	65017.45
790.5825	86.6995	65535	64996.75
790.7237	88.9574	65535	64973.35
790.8648	91.2148	65535	64957.9
791.006	93.4717	65535	64949
791.1472	95.7282	65535	64941.9
791.2885	97.9842	65535	64937.2
791.4297	100.2398	65535	64932.6
791.571	102.4949	65535	64931.8
791.7123	104.7495	65535	64927.55
791.8536	107.0036	65535	64927.75
791.9949	109.2573	65535	64928.2
792.1363	111.5105	65535	64928.6
792.2777	113.7632	65535	64926.2
792.4191	116.0154	65535	64913.7
792.5605	118.2672	65535	64920.9
792.7019	120.5185	65535	64920.95
792.8434	122.7693	65535	64917.8
792.9849	125.0197	65535	64913.2
793.1264	127.2696	65535	64914.1
793.2679	129.519	65535	64907.4
793.4094	131.7679	65535	64903.95
793.551	134.0163	65535	64901.5
793.6926	136.2642	65535	64892.5
793.8342	138.5117	65535	64889.95
793.9758	140.7587	65535	64889.95
794.1175	143.0052	65535	64890.7
794.2591	145.2512	65535	64891.75
794.4008	147.4967	65535	64889.85
794.5425	149.7417	65535	64889.95
794.6842	151.9863	65535	64887.7
794.826	154.2304	65535	64880.8
794.9677	156.4739	65535	64872.25
795.1095	158.717	65535	64877.55
795.2513	160.9596	65535	64872.85
795.3931	163.2017	65535	64870.55
795.535	165.4433	65535	64866.05
795.6768	167.6844	65535	64866
795.8187	169.925	65535	64859.2
795.9606	172.1651	65535	64860.45
796.1025	174.4047	65535	64854.4
796.2445	176.6439	65535	64850.5
796.3864	178.8825	65535	64847.55
796.5284	181.1206	65535	64848.9
796.6704	183.3582	65535	64843.9
796.8124	185.5954	65535	64844.35
796.9544	187.832	65535	64837.05
797.0965	190.0681	65535	64837.75
797.2386	192.3037	65535	64831.75
797.3806	194.5388	65535	64829.8
797.5228	196.7734	65535	64827.7
797.6649	199.0075	65535	64825.25
797.807	201.2411	65535	64819.95
797.9492	203.4742	65535	64823.8
798.0914	205.7068	65535	64820
798.2336	207.9389	65535	64820.6
798.3758	210.1704	65535	64817.2
798.518	212.4015	65535	64815.95
798.6603	214.632	65535	64820.65
798.8025	216.862	65535	64828.4
798.9448	219.0915	65535	64832.95
799.0871	221.3205	65535	64829.7
799.2294	223.549	65535	64843.1
799.3718	225.777	65535	64837.8
799.5141	228.0044	65535	64830.65
799.6565	230.2314	65535	64834.85
799.7989	232.4578	65535	64832
799.9413	234.6837	65535	64825
800.0837	236.909	65535	64820.45
800.2262	239.1339	65535	64798.05
800.3687	241.3582	65535	64813.1
800.5111	243.582	65535	64780.7
800.6536	245.8053	65535	64794.2
800.7961	248.0281	65535	64798.6
800.9387	250.2503	65535	64798.25
801.0812	252.472	65535	64788.6
801.2238	254.6932	65535	64787.8
801.3664	256.9139	65535	64787.2
801.509	259.134	65535	64783.25
801.6516	261.3536	65535	64787.2
801.7942	263.5727	65535	64781.8
801.9369	265.7912	65535	64786.3
802.0795	268.0092	65535	64786.6
802.2222	270.2267	65535	64779.7
802.3649	272.4436	65535	64779.5
802.5076	274.6601	65535	64774.8
802.6504	276.8759	65535	64779.05
802.7931	279.0913	65535	64775.6
802.9359	281.3061	65535	64778.65
803.0787	283.5204	65535	64775.75
803.2215	285.7341	65535	64769.7
803.3643	287.9473	65535	64755.1
803.5071	290.16	65535	64761.35
803.6499	292.3721	65535	64767.05
803.7928	294.5837	65535	64768.4
803.9357	296.7947	65535	64773.55
804.0786	299.0052	65535	64766.75
804.2215	301.2152	65535	64764.25
804.3644	303.4246	65535	64766.5
804.5074	305.6334	65535	64768.7
804.6503	307.8418	65535	64764.45
804.7933	310.0495	65535	64763.75
804.9363	312.2568	65535	64764.75
805.0793	314.4635	65535	64764.65
805.2223	316.6696	65535	64757.8
805.3653	318.8752	65535	64750.25
805.5084	321.0802	65535	64759.25
805.6514	323.2847	65535	64757.95
805.7945	325.4887	65535	64758
805.9376	327.692	65535	64754.15
806.0807	329.8949	65535	64756.6
806.2238	332.0972	65535	64751.75
806.367	334.2989	65535	64747.8
806.5101	336.5001	65535	64748
806.6533	338.7007	65535	64745.1
806.7965	340.9008	65535	64747.1
806.9397	343.1003	65535	64742.7
807.0829	345.2992	65535	64746
807.2261	347.4976	65535	64743.45
807.3693	349.6955	65535	64740.45
807.5126	351.8927	65535	64737.7
807.6559	354.0895	65535	64728.55
807.7991	356.2856	65535	64733.7
807.9424	358.4812	65535	64738.35
808.0857	360.6763	65535	64737.45
808.2291	362.8707	65535	64733
808.3724	365.0646	65535	64726.65
808.5158	367.258	65535	64726.8
808.6591	369.4508	65535	64725.9
808.8025	371.643	65535	64725.75
808.9459	373.8346	65535	64725
809.0893	376.0257	65535	64723
809.2327	378.2162	65535	64721.8
809.3762	380.4062	65535	64717.1
809.5196	382.5956	65535	64716.5
809.6631	384.7844	65535	64719.2
809.8066	386.9726	65535	64720.1
809.9501	389.1603	65535	64718.6
810.0936	391.3474	65535	64677.55
810.2371	393.5339	65535	64724.4
810.3806	395.7199	65535	64728.8
810.5241	397.9052	65535	64731.15
810.6677	400.09	65535	64730.9
810.8113	402.2743	65535	64729.85
810.9548	404.4579	65535	64727.7
811.0984	406.641	65535	64723.95
811.2421	408.8235	65535	64726.85
811.3857	411.0054	65535	64723.2
811.5293	413.1868	65535	64724.3
811.673	415.3675	65535	64718.65
811.8166	417.5477	65535	64716.7
811.9603	419.7273	65535	64714.95
812.104	421.9064	65535	64705.85
812.2477	424.0848	65535	64709.25
812.3914	426.2627	65535	64708.05
812.5351	428.4399	65535	64710.2
812.6788	430.6166	65535	64702.35
812.8226	432.7928	65535	64704.65
812.9663	434.9683	65535	64702.65
813.1101	437.1432	65535	64702.25
813.2539	439.3176	65535	64702.95
813.3977	441.4914	65535	64704.8
813.5415	443.6645	65535	64702.2
813.6853	445.8371	65535	64701.8
813.8291	448.0091	65535	64700.85
813.973	450.1806	65535	64699.65
814.1168	452.3514	65535	64698.5
814.2607	454.5216	65535	64691.2
814.4046	456.6913	65535	64695.75
814.5485	458.8603	65535	64698.7
814.6924	461.0288	65535	64700.05
814.8363	463.1967	65535	64701.9
814.9802	465.3639	65535	64696.1
815.1241	467.5306	65535	64696.8
815.2681	469.6967	65535	64696.9
815.412	471.8622	65535	64695.05
815.556	474.0271	65535	64698.15
815.7	476.1914	65535	64694.1
815.844	478.3551	65535	64697.2
815.988	480.5182	65535	64691.45
816.132	482.6807	65535	64696
816.276	484.8426	65535	64695.65
816.4201	487.0039	65535	64694.9
816.5641	489.1647	65535	64694.35
816.7082	491.3248	65535	64694.6
816.8522	493.4843	65535	64695.2
816.9963	495.6432	65535	64693.95
817.1404	497.8015	65535	64688.95
817.2845	499.9592	65535	64691.8
817.4286	502.1163	65535	64689.2
817.5727	504.2728	65535	64686.3
817.7168	506.4287	65535	64690.15
817.861	508.5839	65535	64691.7
818.0051	510.7386	65535	64689.8
818.1493	512.8927	65535	64682.05
818.2935	515.0461	65535	64684.6
818.4377	517.199	65535	64685.25
818.5818	519.3512	65535	64685.65
818.726	521.5029	65535	64680.15
818.8703	523.6539	65535	64684.2
819.0145	525.8043	65535	64683.7
819.1587	527.9541	65535	64685.05
819.303	530.1033	65535	64678
819.4472	532.2519	65535	64681.8
819.5915	534.3999	65535	64679.9
819.7357	536.5472	65535	64683.4
819.88	538.694	65535	64681.05
820.0243	540.8401	65535	64677.8
820.1686	542.9856	65535	64675
820.3129	545.1305	65535	64676
820.4572	547.2748	65535	64676.3
820.6016	549.4185	65535	64677.7
820.7459	551.5615	65535	64674.15
820.8902	553.704	65535	64672.75
821.0346	555.8458	65535	64678
821.1789	557.987	65535	64678
821.3233	560.1276	65535	64677.25
821.4677	562.2675	65535	64678.5
821.6121	564.4069	65535	64676.05
821.7565	566.5456	65535	64680.2
821.9009	568.6837	65535	64675.45
822.0453	570.8212	65535	64677.9
822.1897	572.958	65535	64672.5
822.3342	575.0942	65535	64677.4
822.4786	577.2299	65535	64674
822.6231	579.3648	65535	64675.3
822.7675	581.4992	65535	64674.75
822.912	583.6329	65535	64679.85
823.0565	585.766	65535	64677.2
823.201	587.8985	65535	64674.4
823.3454	590.0304	65535	64663.75
823.4899	592.1616	65535	64670.55
823.6345	594.2922	65535	64673.95
823.779	596.4222	65535	64670.8
823.9235	598.5515	65535	64671.45
824.068	600.6802	65535	64671.25
824.2126	602.8083	65535	64669.95
824.3571	604.9358	65535	64668.35
824.5017	607.0626	65535	64668.35
824.6462	609.1888	65535	64668.65
824.7908	611.3144	65535	64668.35
824.9354	613.4393	65535	64668.75
825.08	615.5636	65535	64666.4
825.2246	617.6873	65535	64666.25
825.3692	619.8103	65535	64666.45
825.5138	621.9327	65535	64663.45
825.6584	624.0544	65535	64669.9
825.803	626.1756	65535	64668
825.9477	628.2961	65535	64664.45
826.0923	630.4159	65535	64666.85
826.237	632.5351	65535	64662.3
826.3816	634.6537	65535	64664.55
826.5263	636.7716	65535	64663
826.6709	638.8889	65535	64663.75
826.8156	641.0056	65535	64661.2
826.9603	643.1216	65535	64663.75
827.105	645.237	65535	64662.45
827.2497	647.3518	65535	64659.6
827.3944	649.4659	65535	64664.3
827.5391	651.5793	65535	64659.85
827.6838	653.6922	65535	64664.85
827.8285	655.8043	65535	64664.3
827.9733	657.9159	65535	64661.25
828.118	660.0268	65535	64661.75
828.2627	662.137	65535	64661.3
828.4075	664.2466	65535	64657.35
828.5522	666.3556	65535	64661.8
828.697	668.4639	65535	64657.95
828.8418	670.5716	65535	64661.6
828.9865	672.6786	65535	64659.05
829.1313	674.785	65535	64656.5
829.2761	676.8907	65535	64660.05
829.4209	678.9958	65535	64661.65
829.5657	681.1002	65535	64658.1
829.7105	683.204	65535	64654.25
829.8553	685.3072	65535	64656.35
830.0001	687.4097	65535	64658.1
830.1449	689.5115	65535	64655.6
830.2898	691.6127	65535	64654.65
830.4346	693.7132	65535	64654.4
830.5794	695.8131	65535	64648.1
830.7243	697.9123	65535	64655.85
830.8691	700.0109	65535	64656.15
831.014	702.1089	65535	64652.75
831.1588	704.2061	65535	64656.5
831.3037	706.3028	65535	64655.6
831.4486	708.3987	65535	64653.2
831.5935	710.4941	65535	64656.25
831.7383	712.5887	65535	64652.85
831.8832	714.6827	65535	64650.55
832.0281	716.7761	65535	64654.35
832.173	718.8688	65535	64649.4
832.3179	720.9608	65535	64646.65
832.4628	723.0522	65535	64649.15
832.6077	725.1429	65535	64652
832.7527	727.233	65535	64652.25
832.8976	729.3224	65535	64651.9
833.0425	731.4112	65535	64650.55
833.1874	733.4993	65535	64648.5
833.3324	735.5867	65535	64649.7
833.4773	737.6735	65535	64652.9
833.6222	739.7596	65535	64650.55
833.7672	741.845	65535	64650.45
833.9122	743.9298	65535	64649.3
834.0571	746.014	65535	64650.3
834.2021	748.0974	65535	64646.25
834.347	750.1802	65535	64648.6
834.492	752.2624	65535	64650.6
834.637	754.3439	65535	64649.5
834.782	756.4247	65535	64638.4
834.9269	758.5048	65535	64651.1
835.0719	760.5843	65535	64646.95
835.2169	762.6631	65535	64648.4
835.3619	764.7413	65535	64650
835.5069	766.8188	65535	64645.9
835.6519	768.8956	65535	64645.25
835.7969	770.9718	65535	64647.45
835.9419	773.0473	65535	64648.15
836.0869	775.1221	65535	64646.35
836.232	777.1962	65535	64647
836.377	779.2697	65535	64645.7
836.522	781.3426	65535	64628.55
836.667	783.4147	65535	64649.3
836.8121	785.4862	65535	64648.25
836.9571	787.557	65535	64645.4
837.1021	789.6271	65535	64647.3
837.2472	791.6966	65535	64650.75
837.3922	793.7654	65535	64646.05
837.5373	795.8335	65535	64647.45
837.6823	797.901	65535	64646.8
837.8274	799.9678	65535	64648.05
837.9724	802.0339	65535	64646.95
838.1175	804.0993	65535	64635.85
838.2626	806.1641	65535	64643.25
838.4076	808.2282	65535	64647.35
838.5527	810.2916	65535	64645.05
838.6978	812.3544	65535	64647.7
838.8428	814.4164	65535	64649.35
838.9879	816.4778	65535	64644.2
839.133	818.5385	65535	64646.2
839.2781	820.5986	65535	64645.5
839.4232	822.658	65535	64644.1
839.5682	824.7166	65535	64644.45
839.7133	826.7747	65535	64650
839.8584	828.832	65535	64645.85
840.0035	830.8886	65535	64642.75
840.1486	832.9446	65535	64643.85
840.2937	834.9999	65535	64645.55
840.4388	837.0545	65535	64643.55
840.5839	839.1085	65535	64643.65
840.729	841.1618	65535	64639.3
840.8741	843.2143	65535	64644.7
841.0192	845.2662	65535	64646.75
841.1643	847.3175	65535	64648.35
841.3095	849.368	65535	64643.9
841.4546	851.4179	65535	64641.95
841.5997	853.467	65535	64642.75
841.7448	855.5155	65535	64642.5
841.8899	857.5633	65535	64641.95
842.0351	859.6105	65535	64642.75
842.1802	861.6569	65535	64645.4
842.3253	863.7027	65535	64645.05
842.4704	865.7478	65535	64641.95
842.6156	867.7922	65535	64643.1
842.7607	869.8359	65535	64641.35
842.9058	871.8789	65535	64642.05
843.0509	873.9212	65535	64609.7
843.1961	875.9629	65535	64641.6
843.3412	878.0039	65535	64640.95
843.4863	880.0441	65535	64642.85
843.6315	882.0837	65535	64641.45
843.7766	884.1226	65535	64640.4
843.9218	886.1609	65535	64643.15
844.0669	888.1984	65535	64642
844.212	890.2352	65535	64641.95
844.3572	892.2714	65535	64637.55
844.5023	894.3069	65535	64639.8
844.6475	896.3416	65535	64640.45
844.7926	898.3757	65535	64643
844.9377	900.4091	65535	64640.2
845.0829	902.4418	65535	64637.8
845.228	904.4739	65535	64639.65
845.3732	906.5052	65535	64640.45
845.5183	908.5358	65535	64641.3
845.6635	910.5658	65535	64637
845.8086	912.595	65535	64639.95
845.9538	914.6236	65535	64638.25
846.0989	916.6515	65535	64640.95
846.2441	918.6786	65535	64638.8
846.3892	920.7051	65535	64639.2
846.5344	922.7309	65535	64643.5
846.6795	924.756	65535	64641.2
846.8246	926.7804	65535	64637.85
846.9698	928.8041	65535	64632.95
847.1149	930.8272	65535	64640.15
847.2601	932.8495	65535	64637.8
847.4052	934.8711	65535	64640.2
847.5504	936.892	65535	64639.8
847.6955	938.9123	65535	64638.2
847.8407	940.9318	65535	64636.9
847.9858	942.9506	65535	64640.8
848.131	944.9688	65535	64638.2
848.2761	946.9862	65535	64638.65
848.4213	949.003	65535	64641.7
848.5664	951.019	65535	64638.5
848.7115	953.0344	65535	64638.8
848.8567	955.0491	65535	64637.2
849.0018	957.063	65535	64637.05
849.147	959.0763	65535	64640.4
849.2921	961.0888	65535	64638.4
849.4373	963.1007	65535	64639.95
849.5824	965.1119	65535	64638
849.7275	967.1223	65535	64639.25
849.8727	969.1321	65535	64641.45
850.0178	971.1412	65535	64639.1
850.1629	973.1495	65535	64641.3
850.3081	975.1572	65535	64603.9
850.4532	977.1641	65535	64638.95
850.5983	979.1704	65535	64637.8
850.7435	981.1759	65535	64634.8
850.8886	983.1808	65535	64638.7
851.0337	985.1849	65535	64629.75
851.1788	987.1884	65535	64638.65
851.324	989.1911	65535	64635
851.4691	991.1932	65535	64635.2
851.6142	993.1945	65535	64636.6
851.7593	995.1951	65535	64639.9
851.9045	997.1951	65535	64633.45
852.0496	999.1943	65535	64639.4
852.1947	1001.1928	65535	64636.55
852.3398	1003.1906	65535	64637.3
852.4849	1005.1877	65535	64638.45
852.63	1007.1841	65535	64639.6
852.7751	1009.1798	65535	64637.45
852.9202	1011.1748	65535	64640.15
853.0653	1013.1691	65535	64636.85
853.2104	1015.1627	65535	64637.65
853.3555	1017.1556	65535	64637.05
853.5006	1019.1477	65535	64640.15
853.6457	1021.1392	65535	64642.35
853.7908	1023.1299	65535	64638.6
853.9359	1025.12	65535	64638.25
854.081	1027.1093	65535	64640.3
854.2261	1029.0979	65535	64642.4
854.3712	1031.0859	65535	64638.9
854.5163	1033.0731	65535	64640.5
854.6613	1035.0596	65535	64637.85
854.8064	1037.0454	65535	64638.65
854.9515	1039.0304	65535	64639.25
855.0965	1041.0148	65535	64638.25
855.2416	1042.9985	65535	64635.65
855.3867	1044.9814	65535	64639.7
855.5317	1046.9636	65535	64635.1
855.6768	1048.9452	65535	64639.75
855.8219	1050.926	65535	64637.8
855.9669	1052.9061	65535	64637.8
856.112	1054.8855	65535	64635.35
856.257	1056.8642	65535	64635.3
856.4021	1058.8421	65535	64632
856.5471	1060.8194	65535	64634.4
856.6921	1062.7959	65535	64639.5
856.8372	1064.7717	65535	64635.8
856.9822	1066.7469	65535	64638.25
857.1272	1068.7213	65535	64636.6
857.2723	1070.695	65535	64639.1
857.4173	1072.6679	65535	64636.95
857.5623	1074.6402	65535	64635.85
857.7073	1076.6117	65535	64632.05
857.8523	1078.5826	65535	64635.3
857.9973	1080.5527	65535	64635.15
858.1423	1082.5221	65535	64637.2
858.2873	1084.4908	65535	64636.5
858.4323	1086.4587	65535	64637.65
858.5773	1088.426	65535	64634.8
858.7223	1090.3925	65535	64632.2
858.8673	1092.3584	65535	64636.95
859.0123	1094.3235	65535	64638.1
859.1573	1096.2879	65535	64637.8
859.3022	1098.2515	65535	64638.05
859.4472	1100.2145	65535	64637.85
859.5922	1102.1767	65535	64635.25
859.7371	1104.1382	65535	64638.05
859.8821	1106.099	65535	64635.2
860.027	1108.0591	65535	64636.5
860.172	1110.0185	65535	64635.35
860.3169	1111.9771	65535	64637.95
860.4619	1113.9351	65535	64638.05
860.6068	1115.8923	65535	64635.35
860.7517	1117.8488	65535	64636.45
860.8967	1119.8045	65535	64635.4
861.0416	1121.7596	65535	64637.2
861.1865	1123.7139	65535	64636.1
861.3314	1125.6675	65535	64636.7
861.4763	1127.6204	65535	64635.35
861.6212	1129.5726	65535	64635.2
861.7661	1131.524	65535	64637.45
861.911	1133.4748	65535	64638.1
862.0559	1135.4248	65535	64634.4
862.2008	1137.3741	65535	64636.7
862.3457	1139.3226	65535	64635.4
862.4905	1141.2705	65535	64637
862.6354	1143.2176	65535	64630.8
862.7803	1145.164	65535	64637.3
862.9251	1147.1097	65535	64637.2
863.07	1149.0546	65535	64635.8
863.2148	1150.9989	65535	64635.85
863.3597	1152.9424	65535	64634.45
863.5045	1154.8852	65535	64637.25
863.6493	1156.8272	65535	64639.8
863.7942	1158.7686	65535	64629.7
863.939	1160.7092	65535	64634.35
864.0838	1162.6491	65535	64632.85
864.2286	1164.5883	65535	64635.8
864.3734	1166.5267	65535	64634.5
864.5182	1168.4644	65535	64635.1
864.663	1170.4014	65535	64633.75
864.8078	1172.3377	65535	64636.6
864.9526	1174.2732	65535	64638.3
865.0974	1176.2081	65535	64637.85
865.2421	1178.1421	65535	64634.25
865.3869	1180.0755	65535	64638.85
865.5317	1182.0082	65535	64635.3
865.6764	1183.9401	65535	64636.3
865.8212	1185.8713	65535	64637.8
865.9659	1187.8017	65535	64638.85
866.1106	1189.7315	65535	64638.3
866.2554	1191.6605	65535	64609.65
866.4001	1193.5888	65535	64636.75
866.5448	1195.5163	65535	64637.85
866.6895	1197.4432	65535	64634.95
866.8342	1199.3693	65535	64635.7
866.9789	1201.2947	65535	64634.6
867.1236	1203.2193	65535	64634.15
867.2683	1205.1432	65535	64637.35
867.413	1207.0664	65535	64635.4
867.5576	1208.9889	65535	64632.25
867.7023	1210.9106	65535	64633.55
867.847	1212.8316	65535	64636.2
867.9916	1214.7519	65535	64626
868.1363	1216.6715	65535	64638.3
868.2809	1218.5903	65535	64636.4
868.4255	1220.5084	65535	64636.7
868.5701	1222.4257	65535	64636
868.7148	1224.3424	65535	64636.05
868.8594	1226.2583	65535	64633.5
869.004	1228.1735	65535	64635.45
869.1486	1230.0879	65535	64635.05
869.2932	1232.0016	65535	64639.45
869.4377	1233.9146	65535	64636.9
869.5823	1235.8269	65535	64637.15
869.7269	1237.7384	65535	64636.4
869.8715	1239.6492	65535	64636.95
870.016	1241.5592	65535	64636.35
870.1606	1243.4686	65535	64635.3
870.3051	1245.3772	65535	64638.55
870.4496	1247.285	65535	64634.8
870.5941	1249.1922	65535	64637.55
870.7387	1251.0986	65535	64637.15
870.8832	1253.0042	65535	64636.5
871.0277	1254.9092	65535	64634.4
871.1722	1256.8134	65535	64638.35
871.3167	1258.7169	65535	64634.7
871.4611	1260.6196	65535	64637.05
871.6056	1262.5216	65535	64635.05
871.7501	1264.4229	65535	64639.05
871.8945	1266.3234	65535	64638.75
872.039	1268.2232	65535	64637.2
872.1834	1270.1223	65535	64634.3
872.3278	1272.0207	65535	64635.35
872.4723	1273.9183	65535	64629.7
872.6167	1275.8151	65535	64637.35
872.7611	1277.7113	65535	64634.55
872.9055	1279.6067	65535	64638.15
873.0499	1281.5014	65535	64637.05
873.1943	1283.3953	65535	64633.5
873.3386	1285.2885	65535	64637.35
873.483	1287.181	65535	64636.05
873.6274	1289.0727	65535	64636.7
873.7717	1290.9637	65535	64635.05
873.9161	1292.854	65535	64637.15
874.0604	1294.7435	65535	64635.55
874.2047	1296.6323	65535	64635.9
874.349	1298.5204	65535	64632.3
874.4933	1300.4077	65535	64635
874.6376	1302.2943	65535	64635.95
874.7819	1304.1802	65535	64637.65
874.9262	1306.0653	65535	64631.9
875.0705	1307.9497	65535	64636.75
875.2147	1309.8333	65535	64635.7
875.359	1311.7162	65535	64635.7
875.5032	1313.5984	65535	64636.7
875.6475	1315.4798	65535	64623.45
875.7917	1317.3605	65535	64617.2
875.9359	1319.2405	65535	64633.95
876.0801	1321.1197	65535	64635.45
876.2243	1322.9982	65535	64631.8
876.3685	1324.876	65535	64636.75
876.5127	1326.753	65535	64637.05
876.6569	1328.6293	65535	64636.8
876.801	1330.5048	65535	64634.15
876.9452	1332.3796	65535	64638.4
877.0893	1334.2537	65535	64610.45
877.2335	1336.127	65535	64637.25
877.3776	1337.9996	65535	64637.1
877.5217	1339.8714	65535	64636.65
877.6658	1341.7426	65535	64593.4
877.8099	1343.6129	65535	64636.8
877.954	1345.4826	65535	64634.6
878.0981	1347.3515	65535	64633.1
878.2422	1349.2196	65535	64636.2
878.3862	1351.087	65535	64635.35
878.5303	1352.9537	65535	64636.05
878.6743	1354.8197	65535	64636.55
878.8184	1356.6849	65535	64638.3
878.9624	1358.5493	65535	64633.7
879.1064	1360.4131	65535	64637.25
879.2504	1362.276	65535	64636.2
879.3944	1364.1383	65535	64636.55
879.5384	1365.9998	65535	64631.2
879.6823	1367.8606	65535	64636.35
879.8263	1369.7206	65535	64635.35
879.9702	1371.5799	65535	64634.95
880.1142	1373.4384	65535	64636.35
880.2581	1375.2962	65535	64635.75
880.402	1377.1533	65535	64637.7
880.5459	1379.0096	65535	64636.35
880.6898	1380.8652	65535	64636.85
880.8337	1382.7201	65535	64637.3
880.9776	1384.5742	65535	64638.4
881.1215	1386.4275	65535	64635.15
881.2653	1388.2802	65535	64636.2
881.4092	1390.132	65535	64635.4
881.553	1391.9832	65535	64636.05
881.6968	1393.8336	65535	64635.35
881.8406	1395.6832	65535	64633.3
881.9844	1397.5322	65535	64636
882.1282	1399.3803	65535	64631.85
882.272	1401.2278	65535	64638.9
882.4158	1403.0745	65535	64634.9
882.5595	1404.9204	65535	64638.45
882.7033	1406.7656	65535	64637.9
882.847	1408.6101	65535	64636.05
882.9908	1410.4538	65535	64635.65
883.1345	1412.2968	65535	64635.95
883.2782	1414.139	65535	64636.45
883.4219	1415.9805	65535	64636.6
883.5656	1417.8213	65535	64630.55
883.7092	1419.6613	65535	64638.65
883.8529	1421.5006	65535	64634.7
883.9965	1423.3391	65535	64636.7
884.1402	1425.1769	65535	64637.1
884.2838	1427.0139	65535	64635.05
884.4274	1428.8502	65535	64634.6
884.571	1430.6858	65535	64636.8
884.7146	1432.5206	65535	64636.55
884.8582	1434.3547	65535	64635.5
885.0018	1436.188	65535	64636.35
885.1453	1438.0206	65535	64634.05
885.2889	1439.8524	65535	64636.05
885.4324	1441.6835	65535	64634.65
885.5759	1443.5139	65535	64633.05
885.7194	1445.3435	65535	64636.6
885.8629	1447.1724	65535	64637.65
886.0064	1449.0005	65535	64637.35
886.1499	1450.8279	65535	64633.35
886.2933	1452.6545	65535	64635.7
886.4368	1454.4804	65535	64637.9
886.5802	1456.3056	65535	64630.1
886.7237	1458.13	65535	64636.6
886.8671	1459.9536	65535	64635.55
887.0105	1461.7766	65535	64637.55
887.1539	1463.5987	65535	64637.35
887.2972	1465.4202	65535	64637.6
887.4406	1467.2409	65535	64636.35
887.584	1469.0608	65535	64637.4
887.7273	1470.88	65535	64636.4
887.8706	1472.6984	65535	64637.2
888.0139	1474.5161	65535	64633.55
888.1572	1476.3331	65535	64639.45
888.3005	1478.1493	65535	64637.4
888.4438	1479.9648	65535	64636.75
888.5871	1481.7795	65535	64635.6
888.7303	1483.5935	65535	64636.9
888.8736	1485.4067	65535	64635.95
889.0168	1487.2192	65535	64636.3
889.16	1489.031	65535	64632.95
889.3032	1490.842	65535	64638.45
889.4464	1492.6522	65535	64637.1
889.5896	1494.4618	65535	64635.55
889.7327	1496.2705	65535	64636.8
889.8759	1498.0785	65535	64637.75
890.019	1499.8858	65535	64636.4
890.1622	1501.6924	65535	64639
890.3053	1503.4981	65535	64636.35
890.4484	1505.3032	65535	64636.3
890.5914	1507.1075	65535	64634.7
890.7345	1508.911	65535	64635.35
890.8776	1510.7138	65535	64635.45
891.0206	1512.5159	65535	64637.05
891.1637	1514.3172	65532.8	64634.05
891.3067	1516.1178	65535	64637.75
891.4497	1517.9176	65535	64635.25
891.5927	1519.7166	65533.8	64635.55
891.7357	1521.515	65531.1	64628.45
891.8786	1523.3126	65486.25	64588.05
892.0216	1525.1094	65535	64634
892.1645	1526.9055	65512.8	64616.65
892.3074	1528.7008	65519.25	64620.55
892.4503	1530.4954	65432.45	64530.25
892.5932	1532.2893	65517.45	64621.9
892.7361	1534.0824	65396.45	64495.15
892.879	1535.8747	65223.55	64324.3
893.0218	1537.6663	65513.75	64615.05
893.1647	1539.4572	64729.45	63830.2
893.3075	1541.2473	65172.8	64274.35
893.4503	1543.0367	65086.55	64191.55
893.5931	1544.8253	64985.85	64083.95
893.7359	1546.6132	65082.8	64181.45
893.8787	1548.4003	64745.45	63840.6
894.0214	1550.1867	64616.7	63710.6
894.1642	1551.9723	64446	63545.25
894.3069	1553.7572	64515.6	63617.8
894.4496	1555.5414	64828.1	63932.95
894.5923	1557.3247	63196.6	62300.15
894.735	1559.1074	64492.5	63596.9
894.8777	1560.8893	63947.85	63053.4
895.0204	1562.6705	64267.25	63372.7
895.163	1564.4509	63236.8	62339.5
895.3056	1566.2305	63727.85	62834.95
895.4482	1568.0094	64285.4	63390.95
895.5908	1569.7876	63728.45	62832.55
895.7334	1571.565	63058.75	62162.55
895.876	1573.3417	63457.65	62562.15
896.0186	1575.1176	63275.45	62379.85
896.1611	1576.8928	62977.75	62080.15
896.3036	1578.6672	62364.25	61469.9
896.4461	1580.4409	62681.1	61788
896.5886	1582.2138	61791.4	60894.1
896.7311	1583.986	62021.25	61125.45
896.8736	1585.7575	61197.7	60301.55
897.0161	1587.5282	61285.55	60390.2
897.1585	1589.2981	61374.05	60479
897.3009	1591.0673	60643.9	59749.95
897.4433	1592.8358	60208.55	59313.65
897.5857	1594.6035	60683.35	59786.3
897.7281	1596.3704	60758.45	59860.55
897.8705	1598.1366	59842.5	58947.7
898.0128	1599.9021	59304.4	58408.1
898.1551	1601.6668	59918.75	59021.3
898.2975	1603.4308	59580.55	58683.1
898.4398	1605.194	59870.05	58970.7
898.5821	1606.9564	58704.05	57810.1
898.7243	1608.7182	59239.45	58341.2
898.8666	1610.4791	58674.75	57780.7
899.0088	1612.2394	59130.5	58236.05
899.1511	1613.9988	58707.65	57812.8
899.2933	1615.7576	59258.95	58364.95
899.4355	1617.5156	59263.45	58360.75
899.5776	1619.2728	60015.75	59119.5
899.7198	1621.0293	58919.2	58027.1
899.862	1622.785	58877.95	57980.6
900.0041	1624.54	59222.45	58326.35
900.1462	1626.2942	58685.5	57790.6
900.2883	1628.0477	57619.7	56720.55
900.4304	1629.8005	57151.3	56255.1
900.5725	1631.5525	57488.9	56594.05
900.7145	1633.3037	56520.85	55625.1
900.8566	1635.0542	56491.6	55597.05
900.9986	1636.804	56540.05	55645.2
901.1406	1638.553	55873.85	54870.35
901.2826	1640.3013	55890.8	54996.7
901.4245	1642.0488	55349.4	54455.45
901.5665	1643.7955	55619.85	54726.15
901.7085	1645.5416	55218.35	54323.85
901.8504	1647.2868	54990.2	54096.45
901.9923	1649.0313	55280.65	54384.8
902.1342	1650.7751	55080.45	54181
902.2761	1652.5181	54863.4	53969.6
902.4179	1654.2604	54925.9	54032.15
902.5598	1656.0019	55391.65	54498.3
902.7016	1657.7427	55257.35	54361.6
902.8434	1659.4828	55643.5	54748.9
902.9852	1661.222	55544.85	54648.1
903.127	1662.9606	55630.25	54736.6
903.2687	1664.6984	55203.5	54309.25
903.4105	1666.4354	54940.2	54045.75
903.5522	1668.1717	54067.35	53172.85
903.6939	1669.9072	53410.95	52516.65
903.8356	1671.642	53020.9	52123.7
903.9773	1673.3761	52708.4	51814.35
904.119	1675.1094	52307.55	51412.15
904.2606	1676.8419	51929.45	51036.15
904.4022	1678.5737	51562.05	50666.9
904.5439	1680.3048	51320.5	50427.4
904.6855	1682.0351	51044	50149.05
904.827	1683.7646	50780.5	49885.55
904.9686	1685.4934	50626.3	49733.55
905.1101	1687.2215	50149.9	49254.25
905.2517	1688.9488	50161.35	49269.4
905.3932	1690.6754	49535.5	48643.2
905.5347	1692.4012	49661.2	48766.75
905.6761	1694.1263	49393.95	48499.75
905.8176	1695.8506	49295.8	48401.9
905.9591	1697.5742	49078.4	48184.1
906.1005	1699.297	48846.95	47952.65
906.2419	1701.0191	48593.55	47699.75
906.3833	1702.7404	48378.4	47484.75
906.5246	1704.461	48125.2	47230.65
906.666	1706.1808	47929.25	47032.8
906.8073	1707.8999	47817.65	46924.4
906.9487	1709.6182	47612.85	46718.35
907.09	1711.3358	47446.7	46553.45
907.2313	1713.0527	47270.15	46379.05
907.3725	1714.7688	47100.4	46202.2
907.5138	1716.4841	46817.35	45921.05
907.655	1718.1987	46801.6	45903.7
907.7962	1719.9126	46613.85	45722.4
907.9374	1721.6257	46425.8	45529.9
908.0786	1723.338	46350.1	45455.2
908.2198	1725.0496	45991.2	45095.8
908.3609	1726.7605	45908	45015.1
908.502	1728.4706	45743.2	44847
908.6431	1730.18	45496.2	44603.15
908.7842	1731.8886	45334.2	44440.5
908.9253	1733.5964	45223	44309.1
909.0664	1735.3036	45170.15	44273.1
909.2074	1737.0099	44991.15	44096.65
909.3484	1738.7156	44809.25	43916.95
909.4894	1740.4204	44578.3	43682.75
909.6304	1742.1246	44570.05	43677.05
909.7714	1743.8279	44421.7	43529.65
909.9123	1745.5306	44286.65	43393.3
910.0532	1747.2325	44160.9	43267.75
910.1941	1748.9336	43968.1	43075.2
910.335	1750.634	43753.9	42861.5
910.4759	1752.3336	43752.05	42857.9
910.6168	1754.0325	43574.75	42682.6
910.7576	1755.7307	43502.45	42611.15
910.8984	1757.4281	43424.1	42531.2
911.0392	1759.1247	43301.55	42398.7
911.18	1760.8206	43159.6	42260.15
911.3208	1762.5158	43048.55	42152.45
911.4615	1764.2102	42904.25	42010.8
911.6022	1765.9039	42667.45	41772.2
911.7429	1767.5968	42596.35	41704.45
911.8836	1769.289	42439.1	41544.55
912.0243	1770.9804	42315.9	41422.4
912.1649	1772.6711	42329.95	41436.5
912.3056	1774.361	42082.85	41188.2
912.4462	1776.0502	42079.35	41185.9
912.5868	1777.7386	41904.25	41007.8
912.7274	1779.4263	41762.85	40868
912.8679	1781.1132	41673.15	40782.65
913.0084	1782.7994	41523.45	40629.95
913.149	1784.4849	41436.95	40544.9
913.2895	1786.1696	41310.95	40412.55
913.4299	1787.8535	41184.8	40292.1
913.5704	1789.5367	41015.65	40125.1
913.7108	1791.2192	40958.35	40066.4
913.8513	1792.9009	40773.1	39849.7
913.9917	1794.5818	40640.6	39746.45
914.132	1796.2621	40551.6	39659.65
914.2724	1797.9415	40474.25	39583
914.4128	1799.6202	40333.6	39439.25
914.5531	1801.2982	40211.8	39319.45
914.6934	1802.9755	40055.3	39162.8
914.8337	1804.6519	40021.2	39128.7
914.9739	1806.3277	39794	38901.65
915.1142	1808.0027	39592.8	38701.4
915.2544	1809.6769	39578.75	38686.3
915.3946	1811.3504	39472.65	38579.45
915.5348	1813.0231	39358.15	38465.45
915.675	1814.6951	39279.9	38389.15
915.8151	1816.3664	39286.25	38393.1
915.9553	1818.0369	39117.3	38222.55
916.0954	1819.7067	38930.8	38038.75
916.2355	1821.3757	38867.25	37971.35
916.3755	1823.044	38829.3	37937.05
916.5156	1824.7115	38711.95	37819.55
916.6556	1826.3783	38417.6	37526.75
916.7956	1828.0443	38360.35	37470.1
916.9356	1829.7096	38293.55	37399.1
917.0756	1831.3741	38224.25	37327.95
917.2155	1833.0379	38066.3	37174.3
917.3555	1834.701	37931.3	37037.15
917.4954	1836.3633	37861.3	36968.95
917.6353	1838.0248	37759.8	36864.8
917.7751	1839.6856	37672.95	36779.3
917.915	1841.3457	37589	36698.7
918.0548	1843.005	37486.1	36595.25
918.1946	1844.6636	37432.35	36541.2
918.3344	1846.3214	37301.6	36409.95
918.4742	1847.9785	37249	36356.15
918.6139	1849.6349	37115.35	36222.8
918.7537	1851.2904	37041.3	36138.95
918.8934	1852.9453	36895.2	36003.1
919.0331	1854.5994	36802.6	35909.55
919.1727	1856.2528	36787.65	35891.35
919.3124	1857.9054	36650.15	35757.15
919.452	1859.5572	36556.25	35662.6
919.5916	1861.2083	36426.9	35533.65
919.7312	1862.8587	36474.2	35581.35
919.8708	1864.5084	36318.1	35425.2
920.0103	1866.1572	36174.15	35282.85
920.1498	1867.8054	35992	35098.85
920.2893	1869.4528	35952.55	35061.35
920.4288	1871.0994	35844.65	34952.95
920.5683	1872.7453	35781.45	34888.2
920.7077	1874.3905	35643.3	34744
920.8471	1876.0349	35535.6	34642
920.9865	1877.6786	35553	34657.4
921.1259	1879.3215	35472.3	34580.3
921.2653	1880.9637	35281.2	34387.15
921.4046	1882.6051	35252.4	34361.45
921.5439	1884.2458	35200.8	34305.35
921.6832	1885.8858	34991.8	34097.05
921.8225	1887.525	34898.25	34005.15
921.9617	1889.1634	34789.15	33894.2
922.101	1890.8011	34605.4	33713.25
922.2402	1892.4381	34520.25	33628.5
922.3794	1894.0743	34528.95	33637.85
922.5185	1895.7098	34384.9	33492.7
922.6577	1897.3446	34348.35	33456.35
922.7968	1898.9786	34180.85	33284.35
922.9359	1900.6118	34086.9	33195.25
923.075	1902.2443	33946.6	33051.3
923.214	1903.8761	33823.5	32932.25
923.3531	1905.5071	33636.4	32743.05
923.4921	1907.1374	33488.15	32595.35
923.6311	1908.7669	33452.05	32560.6
923.77	1910.3957	33393.35	32502.35
923.909	1912.0237	33194.2	32302.15
924.0479	1913.651	33113.3	32219.75
924.1868	1915.2776	33036.95	32147.05
924.3257	1916.9034	32909.55	32018.95
924.4646	1918.5285	32685.4	31794.1
924.6034	1920.1528	32531.95	31638.55
924.7422	1921.7764	32528.35	31636.15
924.881	1923.3992	32412.95	31519.95
925.0198	1925.0213	32137.6	31245.35
925.1586	1926.6427	32019.55	31128
925.2973	1928.2633	31992.9	30992.65
925.436	1929.8832	31850.5	30954.95
925.5747	1931.5023	31707.05	30815.25
925.7134	1933.1207	31590.5	30698.1
925.852	1934.7383	31541.5	30648.95
925.9906	1936.3552	31340.75	30450.9
926.1292	1937.9714	31321.7	30429.3
926.2678	1939.5868	31164.15	30270.7
926.4064	1941.2015	30942.5	30049.55
926.5449	1942.8154	30898.15	30004.25
926.6834	1944.4286	30695.2	29802.4
926.8219	1946.041	30629.2	29717
926.9604	1947.6528	30439.95	29544.35
927.0988	1949.2637	30363.75	29473.8
927.2372	1950.8739	30231.6	29338.65
927.3756	1952.4834	30171.35	29281.1
927.514	1954.0921	30128.1	29236.25
927.6523	1955.7001	30010.45	29112.55
927.7907	1957.3074	29894.45	29002.3
927.929	1958.9139	29755.15	28864.4
928.0673	1960.5197	29693.3	28799.25
928.2055	1962.1247	29528.5	28635.2
928.3438	1963.729	29354.1	28463.4
928.482	1965.3325	29226.05	28310.4
928.6202	1966.9353	29142.05	28251.6
928.7584	1968.5374	29101.2	28209.05
928.8965	1970.1387	28961	28068.8
929.0346	1971.7393	28842.2	27948.55
929.1727	1973.3392	28761.15	27868.2
929.3108	1974.9383	28627.95	27735.55
929.4489	1976.5366	28502.25	27610.15
929.5869	1978.1342	28457.1	27564.8
929.7249	1979.7311	28376	27484.1
929.8629	1981.3273	28271.45	27378.7
930.0009	1982.9227	28175	27280.5
930.1388	1984.5173	28060.05	27169.2
930.2767	1986.1112	27913.2	27020.6
930.4146	1987.7044	27860.7	26969.8
930.5525	1989.2968	27742.9	26851
930.6904	1990.8885	27669.65	26774.05
930.8282	1992.4795	27651.7	26758.65
930.966	1994.0697	27513.15	26620.5
931.1038	1995.6592	27357.85	26468.25
931.2415	1997.2479	27249.5	26359
931.3793	1998.8359	27201.5	26309.5
931.517	2000.4232	27047.9	26155.85
931.6547	2002.0097	26973.3	26083.25
931.7923	2003.5955	26845.6	25954.3
931.93	2005.1805	26857.85	25964.45
932.0676	2006.7648	26746.75	25856.2
932.2052	2008.3484	26655.75	25765.3
932.3427	2009.9312	26669.75	25777.65
932.4803	2011.5133	26497.2	25605.85
932.6178	2013.0946	26409.4	25518.5
932.7553	2014.6752	26329.25	25440.5
932.8928	2016.2551	26249.1	25357.6
933.0302	2017.8342	26148.9	25257.55
933.1676	2019.4126	26021.9	25129.8
933.305	2020.9902	25943.2	25052.3
933.4424	2022.5672	25869.85	24977.85
933.5798	2024.1433	25776.6	24880.4
933.7171	2025.7188	25666.65	24777.4
933.8544	2027.2935	25595.05	24702.8
933.9917	2028.8674	25491.65	24599.2
934.129	2030.4406	25413.55	24524.3
934.2662	2032.0131	25318.25	24429.55
934.4034	2033.5849	25232.9	24337.05
934.5406	2035.1559	25148.8	24254.45
934.6778	2036.7261	25116	24221.6
934.8149	2038.2957	25054.5	24162.75
934.952	2039.8645	24985.6	24096.25
935.0891	2041.4325	24969.45	24075.65
935.2262	2042.9998	24815.6	23925.95
935.3632	2044.5664	24744.75	23851.75
935.5002	2046.1323	24655.7	23764.35
935.6372	2047.6974	24568.65	23677.9
935.7742	2049.2617	24510.5	23620.45
935.9111	2050.8254	24492.25	23581.25
936.048	2052.3883	24426.35	23533.9
936.1849	2053.9504	24329.9	23437.75
936.3218	2055.5118	24265.3	23371.15
936.4586	2057.0725	24127.75	23233.65
936.5955	2058.6325	24056.9	23164.7
936.7323	2060.1917	23949.9	23058.7
936.869	2061.7502	23907.9	23015.35
937.0058	2063.3079	23812.2	22920.25
937.1425	2064.8649	23704.7	22808.4
937.2792	2066.4212	23654.7	22761.15
937.4159	2067.9767	23601.05	22710.1
937.5525	2069.5315	23493.75	22604.15
937.6891	2071.0856	23358.85	22468.3
937.8257	2072.6389	23289.8	22398.45
937.9623	2074.1915	23203.5	22314.2
938.0989	2075.7433	23083.45	22190.35
938.2354	2077.2945	23018.35	22128.15
938.3719	2078.8448	22945.55	22053.6
938.5084	2080.3945	22824.3	21932.8
938.6448	2081.9434	22806.4	21915.3
938.7812	2083.4916	22728.95	21836.45
938.9176	2085.039	22651.5	21758.35
939.054	2086.5857	22558.55	21665.7
939.1903	2088.1317	22533.25	21642.75
939.3267	2089.677	22457.1	21566
939.463	2091.2215	22362.25	21471.25
939.5992	2092.7652	22312.85	21419.2
939.7355	2094.3083	22246.4	21354.2
939.8717	2095.8506	22221.65	21330.75
940.0079	2097.3921	22185.3	21295.05
940.1441	2098.933	22080.2	21187
940.2802	2100.4731	21986.15	21094.25
940.4163	2102.0124	21967.75	21069.1
940.5524	2103.5511	21879	20987.1
940.6885	2105.089	21866.75	20974.9
940.8245	2106.6261	21785.4	20894.6
940.9606	2108.1626	21729.65	20838.3
941.0965	2109.6983	21672.8	20749.8
941.2325	2111.2332	21590	20697.5
941.3684	2112.7675	21483.3	20590.85
941.5044	2114.301	21463.05	20569.25
941.6403	2115.8337	21386.1	20493.35
941.7761	2117.3657	21322.35	20430.35
941.912	2118.897	21293.8	20402.4
942.0478	2120.4276	21204.5	20307.2
942.1835	2121.9575	21114.35	20221.8
942.3193	2123.4866	21114.2	20209.6
942.455	2125.0149	21012.15	20118
942.5907	2126.5426	20894.95	20004.9
942.7264	2128.0695	20854.3	19956.8
942.8621	2129.5956	20843	19952.75
942.9977	2131.1211	20812.9	19917.55
943.1333	2132.6458	20702.45	19810.25
943.2689	2134.1698	20644.35	19749.55
943.4044	2135.693	20556.6	19661.5
943.54	2137.2155	20544.55	19649.7
943.6755	2138.7373	20469.35	19576.2
943.8109	2140.2584	20355.6	19464
943.9464	2141.7787	20324.75	19426.65
944.0818	2143.2983	20198.85	19307.2
944.2172	2144.8171	20116.95	19226.85
944.3526	2146.3353	20046.65	19152.85
944.4879	2147.8527	19955.9	19065.9
944.6232	2149.3693	19926.55	19033.75
944.7585	2150.8853	19884.3	18991.85
944.8938	2152.4005	19753.85	18861.55
945.029	2153.9149	19753.95	18862.95
945.1642	2155.4287	19672	18780.5
945.2994	2156.9417	19645.15	18752.55
945.4346	2158.454	19555.3	18661.3
945.5697	2159.9655	19501.05	18609.2
945.7048	2161.4764	19464.35	18572.15
945.8399	2162.9865	19415.25	18522.8
945.9749	2164.4958	19365.65	18475.25
946.1099	2166.0045	19245.4	18350.8
946.2449	2167.5124	19251.65	18361.35
946.3799	2169.0195	19179.3	18288.15
946.5148	2170.526	19117.65	18227.1
946.6498	2172.0317	19052.65	18162.2
946.7846	2173.5367	19017.6	18125.4
946.9195	2175.0409	18940.95	18048.35
947.0543	2176.5445	18947.75	18058
947.1891	2178.0473	18825.75	17932.3
947.3239	2179.5494	18729.05	17833.15
947.4587	2181.0507	18692.75	17801.9
947.5934	2182.5513	18597.85	17704.75
947.7281	2184.0512	18591.1	17699.7
947.8628	2185.5504	18561.7	17669.8
947.9974	2187.0488	18421.2	17529.9
948.132	2188.5465	18369.7	17475.55
948.2666	2190.0435	18301	17405.6
948.4012	2191.5397	18214.2	17323.25
948.5357	2193.0353	18172.1	17282.25
948.6702	2194.5301	18076.3	17182.7
948.8047	2196.0241	17989.15	17097.5
948.9392	2197.5175	17962.95	17070.1
949.0736	2199.0101	17895.25	17000.8
949.208	2200.502	17772.4	16879.7
949.3424	2201.9931	17693.5	16801.55
949.4767	2203.4835	17630.4	16738
949.611	2204.9733	17586.65	16689.1
949.7453	2206.4622	17585.45	16697.2
949.8796	2207.9505	17489.45	16595.25
950.0138	2209.438	17395.9	16505.9
950.148	2210.9248	17344.9	16451.75
950.2822	2212.4109	17252.45	16363.05
950.4164	2213.8962	17222.4	16327.45
950.5505	2215.3809	17200.6	16308.05
950.6846	2216.8648	17143.5	16251.3
950.8186	2218.3479	17057.5	16161.8
950.9527	2219.8304	16987.3	16091.2
951.0867	2221.3121	16948.1	16054
951.2207	2222.7931	16879.5	15988.6
951.3546	2224.2733	16841.8	15950.25
951.4886	2225.7529	16768.25	15875.8
951.6225	2227.2317	16685.15	15790.15
951.7563	2228.7098	16652.95	15760.45
951.8902	2230.1872	16600.75	15708.8
952.024	2231.6638	16531.4	15638.95
952.1578	2233.1397	16456.35	15559.65
952.2916	2234.6149	16399.35	15509.7
952.4253	2236.0894	16368.95	15476.35
952.559	2237.5632	16324.2	15422.45
952.6927	2239.0362	16234.95	15342.75
952.8263	2240.5085	16203	15313.55
952.9599	2241.9801	16135.1	15242.55
953.0935	2243.4509	16089	15197.2
953.2271	2244.921	16013.85	15119.95
953.3606	2246.3904	15958	15064.35
953.4941	2247.8591	15877.9	14986.05
953.6276	2249.3271	15854.65	14963.95
953.7611	2250.7943	15805.5	14913.6
953.8945	2252.2608	15746.25	14855.15
954.0279	2253.7266	15664.85	14772.5
954.1612	2255.1917	15643.9	14751.5
954.2946	2256.656	15588.25	14694.6
954.4279	2258.1197	15547.15	14655.15
954.5612	2259.5826	15497.95	14604.2
954.6944	2261.0447	15453.6	14561.05
954.8276	2262.5062	15369.45	14476.95
954.9608	2263.9669	15340.1	14445.95
955.094	2265.4269	15321.55	14428.9
955.2271	2266.8862	15221.15	14330
955.3602	2268.3448	15231.1	14337
955.4933	2269.8026	15166.4	14274.75
955.6264	2271.2598	15127.5	14235.85
955.7594	2272.7162	15059.4	14169.15
955.8924	2274.1719	15001.75	14110.45
956.0253	2275.6268	14953.05	14062.05
956.1583	2277.0811	14922.4	14029.45
956.2912	2278.5346	14874.05	13983.15
956.4241	2279.9874	14847.35	13955.5
956.5569	2281.4395	14814.65	13923.3
956.6897	2282.8908	14757.6	13862
956.8225	2284.3414	14696.2	13802.25
956.9553	2285.7914	14676	13785.1
957.088	2287.2406	14615.05	13719.6
957.2207	2288.689	14541.8	13650.35
957.3534	2290.1368	14499.05	13606.65
957.486	2291.5838	14483.9	13588.55
957.6186	2293.0302	14423.7	13530.05
957.7512	2294.4758	14353.05	13462.7
957.8838	2295.9206	14299.1	13405.25
958.0163	2297.3648	14263	13370.45
958.1488	2298.8082	14229.4	13334.45
958.2813	2300.251	14194	13301.6
958.4137	2301.693	14116.6	13220.9
958.5461	2303.1343	14128.95	13238.15
958.6785	2304.5748	14064.4	13172.8
958.8108	2306.0147	14005.7	13113.55
958.9432	2307.4538	13959.15	13065.45
959.0754	2308.8922	13906.9	13016.6
959.2077	2310.3299	13874.2	12982.65
959.3399	2311.7669	13815.95	12925.2
959.4721	2313.2031	13775.2	12883.35
959.6043	2314.6387	13695.05	12802.95
959.7365	2316.0735	13682.7	12790.15
959.8686	2317.5076	13626.85	12734.75
960.0006	2318.941	13595.05	12704.5
960.1327	2320.3737	13539.3	12647.25
960.2647	2321.8056	13516.55	12620.8
960.3967	2323.2369	13472.2	12581.55
960.5287	2324.6674	13401.6	12510.1
960.6606	2326.0972	13384.95	12492.3
960.7925	2327.5263	13315.3	12422
960.9244	2328.9547	13273.8	12381.1
961.0562	2330.3823	13210.7	12317.25
961.1881	2331.8092	13232.2	12337.35
961.3198	2333.2355	13146.75	12256
961.4516	2334.661	13122.6	12230.1
961.5833	2336.0858	13093.15	12199.8
961.715	2337.5098	13059.65	12167.95
961.8467	2338.9332	13018.3	12125.05
961.9783	2340.3558	12968.2	12072.4
962.1099	2341.7778	12932.65	12040
962.2415	2343.199	12891.85	11998.05
962.373	2344.6195	12809	11917.4
962.5045	2346.0393	12806.4	11915.65
962.636	2347.4583	12777.25	11885.2
962.7675	2348.8767	12728.95	11836.05
962.8989	2350.2943	12684.85	11792.4
963.0303	2351.7113	12666.05	11774
963.1617	2353.1275	12610.85	11719.15
963.293	2354.543	12575.9	11658.9
963.4243	2355.9578	12522.05	11629.6
963.5556	2357.3718	12434.9	11544.05
963.6868	2358.7852	12374.15	11480
963.818	2360.1978	12348.65	11454.45
963.9492	2361.6098	12307.2	11414.85
964.0803	2363.021	12249.4	11353.65
964.2114	2364.4315	12234.35	11343.85
964.3425	2365.8413	12187.05	11294
964.4736	2367.2504	12150.6	11259.3
964.6046	2368.6587	12082.2	11191.2
964.7356	2370.0664	12016.6	11124.3
964.8666	2371.4733	11973.75	11082.7
964.9975	2372.8795	11950.75	11061.5
965.1284	2374.285	11895.9	11005.5
965.2593	2375.6899	11822.4	10931.75
965.3901	2377.0939	11784.05	10891.45
965.5209	2378.4973	11748.5	10858
965.6517	2379.9	11696.85	10803.3
965.7825	2381.3019	11646.1	10754.9
965.9132	2382.7032	11640.1	10748.05
966.0439	2384.1037	11578.05	10687.45
966.1745	2385.5035	11542.2	10652.45
966.3051	2386.9027	11509.65	10616
966.4357	2388.3011	11489.3	10594.4
966.5663	2389.6987	11427.6	10535.25
966.6968	2391.0957	11374.85	10483.3
966.8273	2392.492	11319.65	10431.6
966.9578	2393.8876	11246.45	10355.25
967.0882	2395.2824	11203.9	10313.8
967.2186	2396.6765	11162.35	10270.65
967.349	2398.07	11119.25	10229.55
967.4793	2399.4627	11124.65	10232.15
967.6097	2400.8547	11058.85	10166
967.7399	2402.246	11024.45	10128.95
967.8702	2403.6366	10963.9	10073.95
968.0004	2405.0265	10934.65	10044.9
968.1306	2406.4156	10880.55	9985.55
968.2607	2407.8041	10839.9	9946.15
968.3909	2409.1918	10801.7	9906.8
968.521	2410.5789	10763.05	9872.4
968.651	2411.9652	10727.2	9834.3
968.781	2413.3508	10676.05	9783.8
968.911	2414.7358	10630.2	9738.4
969.041	2416.12	10591.65	9700.9
969.1709	2417.5035	10561.9	9672.3
969.3008	2418.8863	10533	9639.7
969.4307	2420.2684	10496.45	9604.05
969.5606	2421.6497	10458.4	9566.45
969.6904	2423.0304	10371.55	9479.65
969.8201	2424.4104	10364.75	9472.3
969.9499	2425.7896	10323.35	9426.85
970.0796	2427.1682	10292.2	9399.1
970.2093	2428.546	10280.65	9387.85
970.3389	2429.9232	10242.7	9350.85
970.4685	2431.2996	10217	9325.55
970.5981	2432.6753	10172.75	9281.8
970.7277	2434.0503	10159.2	9269.9
970.8572	2435.4246	10088.75	9197.35
970.9867	2436.7982	10059.4	9166.95
971.1161	2438.1711	10024.95	9134.15
971.2456	2439.5433	9991.85	9099.45
971.375	2440.9148	9967.7	9077.35
971.5043	2442.2856	9894.5	9002.9
971.6336	2443.6557	9877.4	8985.25
971.7629	2445.025	9832.85	8942.7
971.8922	2446.3937	9827.15	8935.9
972.0214	2447.7617	9799.95	8907.6
972.1506	2449.1289	9759.55	8867.1
972.2798	2450.4955	9735.45	8841.85
972.4089	2451.8613	9706.65	8815.55
972.538	2453.2265	9660	8766.7
972.6671	2454.5909	9643.65	8751.3
972.7961	2455.9546	9620.4	8729.65
972.9251	2457.3177	9582.95	8691.65
973.0541	2458.68	9572.05	8679.65
973.1831	2460.0416	9534.95	8641.85
973.312	2461.4025	9512.85	8619.45
973.4408	2462.7627	9471.6	8569.45
973.5697	2464.1222	9456.85	8564.35
973.6985	2465.4811	9435.6	8545.1
973.8273	2466.8392	9400.2	8509.2
973.956	2468.1966	9363.5	8467.55
974.0847	2469.5533	9349.55	8455.4
974.2134	2470.9093	9322.25	8429.8
974.3421	2472.2645	9290.95	8398.2
974.4707	2473.6191	9244.95	8353.15
974.5993	2474.973	9208.65	8318.25
974.7278	2476.3262	9201.45	8307.8
974.8563	2477.6787	9148.05	8256.7
974.9848	2479.0305	9110.2	8218.9
975.1132	2480.3816	9116.95	8223.35
975.2417	2481.7319	9040.75	8148.9
975.37	2483.0816	8985.35	8094
975.4984	2484.4306	8975.25	8082.8
975.6267	2485.7789	8954.2	8063.55
975.755	2487.1264	8929	8035.95
975.8833	2488.4733	8883.65	7993.25
976.0115	2489.8195	8841.75	7943.05
976.1397	2491.165	8802.5	7909.3
976.2678	2492.5097	8774.15	7878.8
976.3959	2493.8538	8735.2	7844.2
976.524	2495.1972	8700.7	7807.7
976.6521	2496.5398	8669.35	7777.75
976.7801	2497.8818	8646.15	7754.2
976.9081	2499.2231	8620.65	7729.6
977.036	2500.5637	8579.15	7687.15
977.164	2501.9035	8534.8	7641.95
977.2918	2503.2427	8525.5	7630.45
977.4197	2504.5812	8513.4	7619.8
977.5475	2505.919	8488.5	7594.1
977.6753	2507.256	8465.5	7573.85
977.8031	2508.5924	8413.75	7521.4
977.9308	2509.9281	8403.2	7506.9
978.0585	2511.2631	8339.9	7447.6
978.1861	2512.5974	8323.5	7431.95
978.3137	2513.9309	8288.85	7398.65
978.4413	2515.2638	8297.05	7370.85
978.5689	2516.596	8246.65	7355.1
978.6964	2517.9275	8201.7	7308.2
978.8239	2519.2583	8157.2	7264.55
978.9513	2520.5884	8140.65	7245.55
979.0788	2521.9178	8123.15	7230.45
979.2062	2523.2465	8109.55	7219.55
979.3335	2524.5745	8060.25	7168.35
979.4608	2525.9018	8034.85	7142.65
979.5881	2527.2284	8001.6	7111.75
979.7154	2528.5543	7976.35	7085.85
979.8426	2529.8796	7944.25	7053.8
979.9698	2531.2041	7937.5	7046.5
980.0969	2532.5279	7907.1	7016.75
980.224	2533.851	7901.75	7010.7
980.3511	2535.1735	7880.3	6987.35
980.4781	2536.4952	7866.2	6975.8
980.6052	2537.8163	7825.65	6932.65
980.7321	2539.1366	7808.8	6917.95
980.8591	2540.4562	7782.1	6891.45
980.986	2541.7752	7781.95	6891.1
981.1129	2543.0935	7753.45	6859.75
981.2397	2544.411	7748.4	6857.25
981.3665	2545.7279	7729.6	6840.3
981.4933	2547.0441	7701.55	6810.45
981.62	2548.3596	7688.25	6793.6
981.7467	2549.6744	7666.7	6773.75
981.8734	2550.9885	7633.4	6739.2
982.0001	2552.3019	7598.2	6706.85
982.1267	2553.6146	7583.7	6693.65
982.2532	2554.9266	7578.05	6684.7
982.3798	2556.2379	7540.8	6646.95
982.5063	2557.5485	7524.2	6632.35
982.6327	2558.8585	7510.95	6611.45
982.7592	2560.1677	7474.35	6578.95
982.8856	2561.4762	7465.3	6574.85
983.0119	2562.7841	7456.35	6561.55
983.1383	2564.0913	7431.75	6540.85
983.2646	2565.3977	7430.65	6539.3
983.3908	2566.7035	7403.85	6512.3
983.517	2568.0086	7379.8	6485.95
983.6432	2569.313	7366.4	6473
983.7694	2570.6167	7348	6452.5
983.8955	2571.9197	7337	6445.65
984.0216	2573.222	7336.7	6442.35
984.1476	2574.5236	7281.6	6389.05
984.2737	2575.8246	7271.95	6376.55
984.3996	2577.1248	7263.85	6370.5
984.5256	2578.4244	7256.3	6364.8
984.6515	2579.7232	7225.5	6333.2
984.7774	2581.0214	7232.05	6315.35
984.9032	2582.3189	7220.2	6330.05
985.029	2583.6157	7197.5	6300.8
985.1548	2584.9118	7183.6	6290.35
985.2806	2586.2072	7142.7	6253.05
985.4063	2587.5019	7118.25	6228.6
985.5319	2588.7959	7113.2	6220.85
985.6576	2590.0893	7122.05	6230.35
985.7832	2591.3819	7085.65	6194.75
985.9087	2592.6739	7045.8	6154.5
986.0343	2593.9652	7025.3	6132.4
986.1597	2595.2557	7011.9	6118.2
986.2852	2596.5456	6981.95	6087.8
986.4106	2597.8348	6965.9	6075.55
986.536	2599.1234	6930.95	6040.3
986.6614	2600.4112	6911.85	6018.05
986.7867	2601.6983	6896.05	5999.85
986.912	2602.9848	6867.7	5976.7
987.0372	2604.2705	6848.55	5950.7
987.1624	2605.5556	6835.7	5943.1
987.2876	2606.84	6792.4	5902.85
987.4128	2608.1237	6773.75	5881.5
987.5379	2609.4067	6730.9	5839.95
987.6629	2610.689	6732.7	5832.1
987.788	2611.9707	6697.15	5799
987.913	2613.2516	6665.2	5769.2
988.0379	2614.5319	6653.2	5760.75
988.1629	2615.8115	6626.45	5734.8
988.2878	2617.0903	6588.2	5694.95
988.4126	2618.3685	6568.35	5675.3
988.5375	2619.6461	6541.8	5649.95
988.6622	2620.9229	6528.55	5637.25
988.787	2622.199	6534.55	5641.75
988.9117	2623.4745	6501.8	5609.75
989.0364	2624.7493	6468.85	5578.75
989.161	2626.0234	6464.55	5574.8
989.2857	2627.2968	6431.85	5538.5
989.4102	2628.5695	6395.15	5503.1
989.5348	2629.8415	6363.8	5472
989.6593	2631.1128	6316.35	5423
989.7837	2632.3835	6315.75	5425.55
989.9082	2633.6535	6303.85	5413.25
990.0326	2634.9228	6283.05	5391.65
990.1569	2636.1914	6275.9	5384.4
990.2812	2637.4593	6264.05	5367.6
990.4055	2638.7265	6233.4	5340.7
990.5298	2639.9931	6201.8	5311.2
990.654	2641.259	6188.35	5294.3
990.7782	2642.5242	6176.55	5283.2
990.9023	2643.7887	6175.7	5282.65
991.0264	2645.0525	6131.6	5239.95
991.1505	2646.3156	6108	5215.15
991.2745	2647.5781	6092.2	5201
991.3985	2648.8398	6059.5	5166.45
991.5225	2650.1009	6057.5	5156.85
991.6464	2651.3613	6044.35	5152.8
991.7703	2652.6211	6025.8	5132.35
991.8942	2653.8801	5997.25	5106.7
992.018	2655.1385	5986.95	5092
992.1418	2656.3961	5973.85	5083.55
992.2655	2657.6531	5969.75	5078.45
992.3892	2658.9094	5949.6	5058.05
992.5129	2660.1651	5922.1	5031.4
992.6366	2661.42	5899.6	5007.7
992.7602	2662.6743	5905.6	5012.7
992.8837	2663.9279	5898.95	5005.75
993.0073	2665.1808	5876.2	4981.45
993.1307	2666.433	5856.65	4962.4
993.2542	2667.6846	5830.25	4939.4
993.3776	2668.9354	5826.65	4931.4
993.501	2670.1856	5804.25	4911.15
993.6244	2671.4351	5783.75	4891.95
993.7477	2672.6839	5782.5	4887.85
993.8709	2673.9321	5768.15	4875.75
993.9942	2675.1795	5749.8	4857.55
994.1174	2676.4263	5743.65	4850.4
994.2405	2677.6724	5704.15	4813.55
994.3637	2678.9179	5712	4818.45
994.4868	2680.1626	5710.5	4818.2
994.6098	2681.4067	5671.35	4778.65
994.7328	2682.6501	5662.65	4770
994.8558	2683.8928	5646.2	4754.2
994.9788	2685.1348	5614.8	4724.1
995.1017	2686.3761	5606.35	4714.6
995.2245	2687.6168	5562.15	4671.15
995.3474	2688.8568	5559.65	4668.6
995.4702	2690.0961	5533.65	4643.1
995.5929	2691.3348	5506.3	4614.55
995.7156	2692.5727	5492.05	4600.1
995.8383	2693.81	5490.7	4599.55
995.961	2695.0466	5475.9	4585.75
996.0836	2696.2826	5444.9	4550.75
996.2062	2697.5178	5426.25	4530.3
996.3287	2698.7524	5399.8	4506.65
996.4512	2699.9863	5413.7	4521.05
996.5737	2701.2195	5379.3	4488.4
996.6961	2702.452	5371.05	4477.9
996.8185	2703.6839	5370.3	4478.3
996.9408	2704.9151	5334.75	4444.15
997.0631	2706.1456	5325.05	4430.75
997.1854	2707.3755	5319.3	4427.1
997.3077	2708.6046	5335.6	4443.5
997.4299	2709.8331	5298.9	4406.1
997.552	2711.0609	5283.25	4391.6
997.6742	2712.2881	5282	4387.85
997.7963	2713.5145	5293.5	4398.45
997.9183	2714.7403	5267.15	4376.2
998.0403	2715.9654	5246.75	4354.35
998.1623	2717.1899	5253.55	4346.9
998.2842	2718.4136	5243.35	4350.45
998.4062	2719.6367	5237.25	4344.45
998.528	2720.8591	5225.75	4327.05
998.6498	2722.0809	5218.1	4326.2
998.7716	2723.3019	5223.5	4327.3
998.8934	2724.5223	5210.95	4315.95
999.0151	2725.7421	5192.75	4298.85
999.1368	2726.9611	5191.85	4296.25
999.2584	2728.1795	5167.1	4270
999.38	2729.3972	5139.5	4248.2
999.5016	2730.6142	5120.9	4223.4
999.6231	2731.8306	5090.3	4197.55
999.7446	2733.0462	5037.4	4143.95
999.8661	2734.2612	5022.65	4126.8
999.9875	2735.4756	4977.3	4082.25
1000.1089	2736.6892	4955.05	4061.75
1000.2302	2737.9022	4923.75	4033.85
1000.3515	2739.1145	4891.65	4001.25
1000.4728	2740.3262	4876.55	3976.7
1000.594	2741.5372	4839.25	3946.5
1000.7152	2742.7475	4824.25	3930.85
1000.8363	2743.9571	4798.25	3904.45
1000.9575	2745.1661	4782.6	3885.4
1001.0785	2746.3744	4755.65	3862.65
1001.1996	2747.582	4739.9	3846.95
1001.3206	2748.7889	4717.1	3824.1
1001.4415	2749.9952	4688.35	3798.25
1001.5625	2751.2008	4669.7	3778
1001.6833	2752.4057	4662.55	3766.9
1001.8042	2753.61	4627.35	3734.65
1001.925	2754.8136	4648.5	3751.8
1002.0458	2756.0165	4625.5	3732.75
1002.1665	2757.2188	4605.5	3713.5
1002.2872	2758.4204	4595.2	3702.05
1002.4078	2759.6213	4574.8	3683.25
1002.5285	2760.8215	4585	3688.8
1002.649	2762.0211	4552.15	3658.25
1002.7696	2763.22	4523.75	3627.35
1002.8901	2764.4182	4522.2	3629.5
1003.0106	2765.6158	4509.35	3617.25
1003.131	2766.8127	4487.9	3594.85
1003.2514	2768.009	4485.05	3592.45
1003.3717	2769.2045	4463	3570.6
1003.492	2770.3994	4443.2	3549.2
1003.6123	2771.5936	4446.55	3553.5
1003.7325	2772.7872	4412.1	3519.75
1003.8527	2773.9801	4406.35	3512.75
1003.9729	2775.1723	4403.4	3495.55
1004.093	2776.3639	4365.9	3473.15
1004.2131	2777.5548	4347.65	3453.3
1004.3331	2778.745	4347.35	3454.1
1004.4531	2779.9346	4333.6	3441.45
1004.5731	2781.1235	4320.6	3430.3
1004.693	2782.3117	4316	3424.25
1004.8129	2783.4992	4299.8	3407.5
1004.9328	2784.6861	4293.85	3401.5
1005.0526	2785.8723	4288.45	3394.1
1005.1723	2787.0579	4284.85	3392.55
1005.2921	2788.2428	4278.85	3387.35
1005.4118	2789.427	4281.35	3389.8
1005.5314	2790.6106	4268.8	3378.3
1005.651	2791.7935	4271.8	3377.5
1005.7706	2792.9757	4262.75	3372.55
1005.8902	2794.1573	4252.55	3358.45
1006.0097	2795.3382	4245.3	3352.8
1006.1291	2796.5184	4263.65	3373.3
1006.2485	2797.698	4264.85	3370.95
1006.3679	2798.8769	4268.9	3378
1006.4873	2800.0551	4281.65	3387.85
1006.6066	2801.2327	4264.85	3368.45
1006.7258	2802.4096	4261.55	3371
1006.8451	2803.5859	4290.5	3398.85
1006.9642	2804.7615	4301.35	3409.8
1007.0834	2805.9364	4314.65	3424.45
1007.2025	2807.1106	4317.9	3428.35
1007.3216	2808.2842	4343.1	3450.5
1007.4406	2809.4572	4353.7	3462.2
1007.5596	2810.6294	4393.2	3500.25
1007.6785	2811.801	4430.65	3537.1
1007.7975	2812.972	4458.95	3567.65
1007.9163	2814.1423	4490.75	3599.45
1008.0352	2815.3119	4520.8	3627.3
1008.154	2816.4808	4553.95	3664.1
1008.2727	2817.6491	4601.85	3709.1
1008.3914	2818.8167	4648.1	3758.3
1008.5101	2819.9837	4674	3778.2
1008.6288	2821.15	4709.8	3816.7
1008.7474	2822.3157	4741.85	3850.9
1008.8659	2823.4807	4778.15	3886.1
1008.9844	2824.645	4814.75	3921.3
1009.1029	2825.8086	4846.15	3955.95
1009.2214	2826.9716	4887.95	3998.05
1009.3398	2828.134	4898.6	4004.95
1009.4581	2829.2957	4949.55	4058.1
1009.5764	2830.4567	4955.35	4065.35
1009.6947	2831.617	4961.85	4070
1009.813	2832.7767	4971.2	4080.6
1009.9312	2833.9358	4975.8	4084.45
1010.0493	2835.0941	4968.75	4075.65
1010.1675	2836.2519	4940.9	4047.45
1010.2855	2837.4089	4917.05	4024.7
1010.4036	2838.5653	4916.35	4025.45
1010.5216	2839.7211	4892.9	4001.15
1010.6396	2840.8761	4905.3	4012.45
1010.7575	2842.0306	4908.35	4018.5
1010.8754	2843.1843	4944.05	4052.05
1010.9932	2844.3374	4993.2	4103
1011.111	2845.4899	5028.35	4135.4
1011.2288	2846.6417	5090.5	4199.3
1011.3465	2847.7928	5173.35	4281.7
1011.4642	2848.9433	5236.15	4345.6
1011.5818	2850.0931	5290.4	4398.55
1011.6995	2851.2422	5381.05	4489.75
1011.817	2852.3907	5447.35	4554.25
1011.9345	2853.5385	5506.1	4612.2
1012.052	2854.6857	5567.85	4649
1012.1695	2855.8323	5585.7	4694.2
1012.2869	2856.9781	5642.95	4753.65
1012.4042	2858.1233	5677.9	4787.4
1012.5216	2859.2679	5715.1	4823
1012.6389	2860.4118	5735.8	4843.55
1012.7561	2861.555	5770.55	4874.15
1012.8733	2862.6976	5786.1	4891.75
1012.9905	2863.8395	5802	4911.05
1013.1076	2864.9808	5831.05	4939.3
1013.2247	2866.1214	5836.2	4947.1
1013.3417	2867.2614	5856.35	4963.5
1013.4587	2868.4007	5840.45	4946.9
1013.5757	2869.5393	5839.3	4946
1013.6926	2870.6773	5852	4958.7
1013.8095	2871.8146	5858.45	4963.65
1013.9263	2872.9513	5855.5	4961.2
1014.0431	2874.0874	5821.95	4929.45
1014.1599	2875.2227	5809.05	4918
1014.2766	2876.3574	5787.95	4894.8
1014.3933	2877.4915	5757.1	4866.7
1014.51	2878.6249	5720.75	4830.65
1014.6266	2879.7577	5677.6	4783.75
1014.7431	2880.8898	5661.05	4758.2
1014.8596	2882.0212	5626.65	4733.8
1014.9761	2883.152	5618.6	4725.9
1015.0925	2884.2821	5575.25	4683.7
1015.2089	2885.4116	5565.4	4675.75
1015.3253	2886.5405	5578.35	4686.35
1015.4416	2887.6686	5575.1	4679.3
1015.5579	2888.7962	5561.35	4671.75
1015.6741	2889.923	5561.55	4670.9
1015.7903	2891.0493	5558.95	4667.35
1015.9065	2892.1748	5550.05	4658.4
1016.0226	2893.2997	5556.25	4662.95
1016.1387	2894.424	5536.6	4646.7
1016.2547	2895.5476	5576.35	4686.35
1016.3707	2896.6706	5587.1	4695.25
1016.4866	2897.7929	5599.6	4706.35
1016.6025	2898.9145	5620.8	4727.95
1016.7184	2900.0355	5630.15	4738.35
1016.8342	2901.1559	5650.3	4757.1
1016.95	2902.2756	5687.3	4794.75
1017.0658	2903.3946	5722.15	4832.2
1017.1815	2904.513	5717.1	4822.7
1017.2971	2905.6308	5747.45	4856.7
1017.4127	2906.7479	5773.95	4883.05
1017.5283	2907.8643	5783.3	4891.15
1017.6439	2908.9801	5790.95	4899.65
1017.7594	2910.0953	5793.4	4903.8
1017.8748	2911.2098	5785.15	4890.6
1017.9902	2912.3236	5765.25	4865.95
1018.1056	2913.4368	5752.25	4854.3
1018.2209	2914.5494	5734.9	4842.15
1018.3362	2915.6613	5691.05	4794.9
1018.4515	2916.7725	5652.2	4757.6
1018.5667	2917.8831	5622.7	4731.45
1018.6819	2918.9931	5592.6	4698.8
1018.797	2920.1024	5545.5	4653.1
1018.9121	2921.211	5514.6	4621.7
1019.0271	2922.319	5490.8	4597.3
1019.1421	2923.4264	5457.8	4568.5
1019.2571	2924.5331	5449.95	4559.15
1019.372	2925.6391	5418.55	4526.05
1019.4869	2926.7445	5406.95	4517.5
1019.6017	2927.8493	5413.9	4520.2
1019.7165	2928.9534	5365.6	4473.35
1019.8313	2930.0569	5357.5	4462.6
1019.946	2931.1597	5349.1	4456.95
1020.0606	2932.2619	5338.5	4448.15
1020.1753	2933.3634	5327	4436.85
1020.2899	2934.4643	5331.65	4435.35
1020.4044	2935.5645	5273.95	4374.3
1020.5189	2936.6641	5223.9	4328
1020.6334	2937.763	5180.3	4290.05
1020.7478	2938.8613	5121	4230.8
1020.8622	2939.959	5079.95	4182.1
1020.9765	2941.056	4975.45	4083.9
1021.0908	2942.1523	4879.2	3986.7
1021.2051	2943.248	4797.65	3905.05
1021.3193	2944.3431	4691.45	3800.2
1021.4334	2945.4375	4578.25	3687.05
1021.5476	2946.5313	4456.3	3567.1
1021.6617	2947.6244	4346.35	3454.2
1021.7757	2948.7169	4249.55	3358.95
1021.8897	2949.8087	4157	3264.85
1022.0037	2950.8999	4043.1	3151.85
1022.1176	2951.9904	3955.1	3062.05
1022.2315	2953.0803	3870.4	2979.25
1022.3453	2954.1696	3807.1	2916.65
1022.4591	2955.2582	3739.15	2850
1022.5728	2956.3462	3686.2	2796.95
1022.6865	2957.4335	3632.7	2740.05
1022.8002	2958.5202	3601.05	2705.3
1022.9138	2959.6062	3568.45	2675.95
1023.0274	2960.6916	3520.2	2629
1023.141	2961.7764	3495.05	2602
1023.2545	2962.8605	3485.65	2594.95
1023.3679	2963.9439	3473.5	2581.75
1023.4813	2965.0267	3451.35	2558.7
1023.5947	2966.1089	3463.3	2549.3
1023.708	2967.1905	3434.3	2542.6
1023.8213	2968.2714	3406.35	2517.65
1023.9346	2969.3516	3405.75	2516.15
1024.0478	2970.4312	3396.65	2498.1
1024.1609	2971.5102	3381.2	2489.6
1024.274	2972.5885	3377.6	2485.15
1024.3871	2973.6662	3380.3	2482.5
1024.5002	2974.7432	3368.3	2477.75
1024.6132	2975.8196	3344.1	2453.55
1024.7261	2976.8954	3336.2	2446.8
1024.839	2977.9705	3316.1	2425.2
1024.9519	2979.045	3295.4	2406.7
1025.0647	2980.1188	3275	2384.25
1025.1775	2981.192	3240.4	2349
1025.2902	2982.2645	3230.95	2339.3
1025.4029	2983.3364	3195.2	2303.75
1025.5156	2984.4077	3147.25	2257.8
1025.6282	2985.4783	3131.7	2237.6
1025.7407	2986.5483	3077.9	2188.85
1025.8532	2987.6177	3036.85	2146.25
1025.9657	2988.6864	3006.4	2113.95
1026.0782	2989.7545	2963.15	2070.35
1026.1906	2990.8219	2925.2	2033.95
1026.3029	2991.8887	2899.6	2004.55
1026.4152	2992.9548	2860.2	1968.3
1026.5275	2994.0204	2818.6	1929.3
1026.6397	2995.0852	2786.5	1896.7
1026.7519	2996.1495	2758.5	1866.55
1026.864	2997.2131	2723.35	1832.55
1026.9761	2998.276	2716.75	1825.95
1027.0882	2999.3383	2685.65	1793.45
1027.2002	3000.4	2644.1	1751.45
1027.3122	3001.4611	2629.2	1736.95
1027.4241	3002.5215	2628.75	1736.7
1027.536	3003.5812	2593.75	1702.6
1027.6478	3004.6404	2597.65	1706.6
1027.7596	3005.6989	2575.15	1683.8
1027.8714	3006.7567	2557.8	1666.75
1027.9831	3007.8139	2561.55	1647.3
1028.0947	3008.8705	2532.8	1642.35
1028.2064	3009.9264	2514.15	1619.45
1028.3179	3010.9818	2508.65	1618.2
1028.4295	3012.0364	2511.05	1619
1028.541	3013.0905	2503.65	1610.9
1028.6524	3014.1439	2493.95	1602.4
1028.7638	3015.1966	2485.85	1596.15
1028.8752	3016.2487	2471.95	1581.6
1028.9865	3017.3002	2475.2	1578.45
1029.0978	3018.3511	2465.3	1576.2
1029.209	3019.4013	2470.65	1579.9
1029.3202	3020.4509	2453.4	1562.25
1029.4314	3021.4998	2466.25	1574.85
1029.5425	3022.5481	2451.45	1560.65
1029.6535	3023.5958	2456.95	1567.35
1029.7645	3024.6428	2445.9	1553.5
1029.8755	3025.6892	2445.95	1555.7
1029.9864	3026.735	2439.2	1546.3
1030.0973	3027.7802	2435.6	1545.45
1030.2082	3028.8247	2429.45	1538.4
1030.319	3029.8685	2422.65	1532.35
1030.4297	3030.9118	2432.1	1540
1030.5404	3031.9544	2406.45	1516.4
1030.6511	3032.9963	2424.45	1534.45
1030.7617	3034.0376	2426.45	1536.6
1030.8723	3035.0783	2426.95	1532.75
1030.9829	3036.1184	2419.55	1527.3
1031.0934	3037.1578	2422.6	1533.7
1031.2038	3038.1966	2422.05	1530.7
1031.3142	3039.2348	2408	1519.25
1031.4246	3040.2723	2405.3	1505
1031.5349	3041.3092	2413.35	1520.05
1031.6452	3042.3455	2395.1	1503.05
1031.7554	3043.3811	2390.45	1499.2
1031.8656	3044.4161	2384.25	1492.4
1031.9758	3045.4505	2364.75	1475.3
1032.0859	3046.4842	2369.6	1477.65
1032.1959	3047.5173	2346.6	1456.5
1032.3059	3048.5498	2348.2	1458.2
1032.4159	3049.5816	2342.35	1452.35
1032.5258	3050.6128	2318.1	1427.2
1032.6357	3051.6434	2308.85	1416.5
1032.7455	3052.6734	2292.7	1400.9
1032.8553	3053.7027	2289.6	1396.55
1032.9651	3054.7314	2281.95	1390.3
1033.0748	3055.7594	2266	1376.35
1033.1845	3056.7868	2268.2	1377.8
1033.2941	3057.8136	2246.95	1356.85
1033.4037	3058.8398	2241.3	1350
1033.5132	3059.8653	2224.8	1332.4
1033.6227	3060.8902	2215.95	1325.7
1033.7321	3061.9145	2204.9	1313
1033.8415	3062.9381	2205.8	1312.3
1033.9509	3063.9612	2205.65	1299.55
1034.0602	3064.9835	2173.55	1282.9
1034.1694	3066.0053	2167.8	1275.3
1034.2787	3067.0264	2167.15	1277.45
1034.3878	3068.0469	2156.55	1267.15
1034.497	3069.0668	2142.3	1248.85
1034.6061	3070.086	2130.05	1238.8
1034.7151	3071.1046	2111.95	1220.35
1034.8241	3072.1226	2110.05	1217.8
1034.9331	3073.1399	2091.6	1201.7
1035.042	3074.1567	2077.75	1186.7
1035.1508	3075.1727	2071.35	1175.85
1035.2597	3076.1882	2058.3	1169
1035.3684	3077.203	2034.35	1143.05
1035.4772	3078.2173	2031.05	1138.8
1035.5859	3079.2308	2023.65	1128.7
1035.6945	3080.2438	2003.4	1110.9
1035.8031	3081.2561	1988.9	1097.7
1035.9117	3082.2678	1988.2	1098.55
1036.0202	3083.2789	1973.95	1082.85
1036.1286	3084.2893	1974.3	1083.05
1036.2371	3085.2991	1963	1069.2
1036.3454	3086.3083	1950.3	1057.4
1036.4538	3087.3169	1943.35	1050.7
1036.562	3088.3248	1933.3	1041.2
1036.6703	3089.3321	1922.65	1029.95
1036.7785	3090.3388	1915.75	1026.65
1036.8866	3091.3449	1897.4	1007.6
1036.9948	3092.3503	1902.3	1008.4
1037.1028	3093.3551	1885.3	997.4
1037.2108	3094.3593	1883.95	994.9
1037.3188	3095.3629	1867.5	978.5
1037.4267	3096.3658	1872.6	980.05
1037.5346	3097.3681	1868.8	978.15
1037.6425	3098.3698	1866.45	974
1037.7503	3099.3708	1862.6	962.1
1037.858	3100.3713	1846.85	956.65
1037.9657	3101.3711	1845.35	954.4
1038.0734	3102.3702	1941.55	934.25
1038.181	3103.3688	1836.2	944.6
1038.2886	3104.3667	1822.85	932.3
1038.3961	3105.364	1810.3	918.25
1038.5036	3106.3607	1803.05	911.45
1038.611	3107.3568	1792.6	901.25
1038.7184	3108.3522	1800.6	910.2
1038.8257	3109.347	1790.3	899.75
1038.933	3110.3412	1784.95	891.45
1039.0403	3111.3348	1782.55	893.75
1039.1475	3112.3277	1777.4	886.85
1039.2547	3113.32	1767.95	878.65
1039.3618	3114.3117	1763.7	874.15
1039.4689	3115.3028	1753	860.8
1039.5759	3116.2932	1761.9	870.25
1039.6829	3117.2831	1752.1	856.65
1039.7898	3118.2723	1740.4	849.3
1039.8967	3119.2608	1736.15	846.3
1040.0035	3120.2488	1731.75	842.3
1040.1103	3121.2361	1733.3	843.95
1040.2171	3122.2229	1723.25	833.9
1040.3238	3123.209	1721.05	831.05
1040.4305	3124.1944	1717.9	825.3
1040.5371	3125.1793	1702.4	811.15
1040.6437	3126.1635	1708.85	819.4
1040.7502	3127.1471	1708.4	819.45
1040.8567	3128.1301	1691.3	799.8
1040.9631	3129.1125	1690.85	802.3
1041.0695	3130.0942	1683.2	792.3
1041.1759	3131.0753	1697.6	798
1041.2822	3132.0558	1687.85	793.5
1041.3884	3133.0357	1668.7	776.05
1041.4946	3134.015	1667.6	776.75
1041.6008	3134.9936	1669	775.85
1041.7069	3135.9716	1682.7	773.6
1041.813	3136.949	1656	765.55
1041.919	3137.9258	1659.1	761.05
1042.025	3138.902	1655.3	759.35
1042.1309	3139.8775	1655.1	766.35
1042.2368	3140.8524	1641.25	751.1
1042.3427	3141.8267	1641.4	750.3
1042.4485	3142.8004	1635.7	745
1042.5542	3143.7735	1652.3	757
1042.6599	3144.7459	1632.3	740.85
1042.7656	3145.7178	1631.75	739.65
1042.8712	3146.689	1624.4	735.65
1042.9768	3147.6596	1616	722
1043.0823	3148.6295	1619.05	726.85
1043.1878	3149.5989	1604.4	714.4
1043.2932	3150.5676	1607.6	717.85
1043.3986	3151.5357	1609.25	721.45
1043.5039	3152.5032	1596.4	706.1
1043.6092	3153.4701	1598.65	707.55
1043.7145	3154.4364	1592.2	699.65
1043.8197	3155.402	1594.75	704.05
1043.9248	3156.367	1589.5	698.4
1044.03	3157.3315	1620.95	685.4
1044.135	3158.2952	1573.05	684.85
1044.24	3159.2584	1570.05	679.85
1044.345	3160.221	1567.7	677.15
1044.4499	3161.1829	1558.7	667.9
1044.5548	3162.1442	1551.15	658.75
1044.6596	3163.105	1552.1	661.4
1044.7644	3164.065	1541.7	652.2
1044.8692	3165.0245	1549.55	656.7
1044.9739	3165.9834	1539.75	649.6
1045.0785	3166.9416	1541.7	653.45
1045.1831	3167.8993	1538.1	645.9
1045.2877	3168.8563	1530.55	639.9
1045.3922	3169.8127	1521.5	631.65
1045.4966	3170.7684	1526.25	636.75
1045.6011	3171.7236	1519.05	628.55
1045.7054	3172.6782	1517.15	625.4
1045.8098	3173.6321	1515.6	624.6
1045.914	3174.5854	1514.05	617.1
1046.0183	3175.5381	1508.7	618.95
1046.1224	3176.4902	1502.7	615.3
1046.2266	3177.4417	1498.65	608.2
1046.3307	3178.3926	1494.4	607.7
1046.4347	3179.3428	1483.65	595
1046.5387	3180.2924	1489.05	601.05
1046.6427	3181.2415	1488.6	598.65
1046.7466	3182.1899	1479.85	585.95
1046.8504	3183.1377	1480.3	590.5
1046.9542	3184.0848	1481.55	590.2
1047.058	3185.0314	1471.95	581.4
1047.1617	3185.9773	1472	581.75
1047.2654	3186.9227	1463.35	574.1
1047.369	3187.8674	1459.85	570.7
1047.4726	3188.8115	1460.8	567.95
1047.5761	3189.755	1462.8	574.05
1047.6796	3190.6979	1458.75	568
1047.783	3191.6402	1449.95	560.65
1047.8864	3192.5818	1453.9	564.5
1047.9898	3193.5229	1466.75	552.4
1048.0931	3194.4633	1445.5	552.95
1048.1963	3195.4031	1448.05	557.5
1048.2995	3196.3423	1438.2	549.6
1048.4027	3197.2809	1431.45	542.45
1048.5058	3198.2189	1434.2	545.85
1048.6089	3199.1563	1444	537.9
1048.7119	3200.0931	1428.8	540.45
1048.8148	3201.0292	1419.25	530
1048.9178	3201.9648	1422.4	532.85
1049.0206	3202.8997	1420.35	527.95
1049.1235	3203.834	1413.6	523.35
1049.2262	3204.7677	1410.95	521.85
1049.329	3205.7008	1409.85	517.4
1049.4317	3206.6333	1402.4	513.35
1049.5343	3207.5652	1409.3	518.8
1049.6369	3208.4964	1398	507.85
1049.7394	3209.4271	1399.4	510.55
1049.8419	3210.3571	1397.75	508.45
1049.9444	3211.2865	1392.25	502.75
1050.0468	3212.2154	1398.85	508.4
1050.1491	3213.1436	1391.85	499.85
1050.2514	3214.0712	1390.65	493.2
1050.3537	3214.9982	1391.15	500.35
1050.4559	3215.9246	1379	488.65
1050.5581	3216.8503	1379.3	491.6
1050.6602	3217.7755	1380.45	492.4
1050.7623	3218.7001	1376.5	487.8
1050.8643	3219.624	1369.4	478.5
1050.9663	3220.5473	1374.35	483.05
1051.0682	3221.4701	1367.85	475.25
1051.1701	3222.3922	1365.8	472.35
1051.2719	3223.3137	1364	472.5
1051.3737	3224.2346	1367.25	476.8
1051.4754	3225.1549	1351.1	461.2
1051.5771	3226.0746	1358.5	469.55
1051.6788	3226.9937	1354.25	463.6
1051.7804	3227.9121	1351	461.95
1051.8819	3228.83	1342.15	454.35
1051.9834	3229.7473	1344.3	455.2
1052.0849	3230.6639	1342.95	454.45
1052.1863	3231.5799	1342.3	452.4
1052.2876	3232.4954	1333.25	441.4
1052.3889	3233.4102	1332.9	443.05
1052.4902	3234.3244	1334.55	447.25
1052.5914	3235.238	1329.5	440.25
1052.6926	3236.151	1349.05	437.2
1052.7937	3237.0634	1317.75	427.65
1052.8948	3237.9752	1318.95	429.95
1052.9958	3238.8864	1322.2	431.55
1053.0968	3239.797	1319.55	430.55
1053.1977	3240.7069	1313.85	424.85
1053.2986	3241.6163	1311.05	420.3
1053.3994	3242.5251	1305.35	417.45
1053.5002	3243.4332	1308.5	419.8
1053.6009	3244.3408	1302.5	411.6
1053.7016	3245.2477	1305.1	415.1
1053.8022	3246.154	1300.15	406.05
1053.9028	3247.0598	1304.3	413.5
1054.0034	3247.9649	1289.7	399.9
1054.1039	3248.8694	1297.25	407.15
1054.2043	3249.7733	1293.7	405.3
1054.3047	3250.6766	1284.4	393.8
1054.4051	3251.5793	1289	399.7
1054.5054	3252.4814	1281.4	392.6
1054.6056	3253.3829	1278.9	390
1054.7058	3254.2838	1280.75	391.45
1054.806	3255.1841	1279.95	389.7
1054.9061	3256.0838	1270.1	380
1055.0061	3256.9829	1263.55	374.8
1055.1062	3257.8814	1266.65	375.05
1055.2061	3258.7792	1261.7	370.95
1055.306	3259.6765	1256.45	365.15
1055.4059	3260.5731	1253.05	364.1
1055.5057	3261.4692	1250.15	360
1055.6055	3262.3647	1248.35	357.35
1055.7052	3263.2595	1241.95	352.6
1055.8049	3264.1538	1229.7	339.4
1055.9045	3265.0474	1227.55	337.4
1056.0041	3265.9404	1222	333
1056.1036	3266.8329	1221.55	330.6
1056.2031	3267.7247	1224.4	323.85
1056.3025	3268.616	1204.4	316.1
1056.4019	3269.5066	1198.05	309.35
1056.5013	3270.3966	1189.6	297.9
1056.6005	3271.286	1180.35	292.15
