Software Version:	3.9.2.0
Unit SN:	10000200
Spectrometer SN:	6960
Date:	3/6/2024 10:43:46 AM
Data Line Index:	25
Spectral Points:	2048
Integration time (ms):	125
Averages:	20
Delay (ms):	30
Sequence Number:	1
Processing:	dark subtract
Laser Power (mW):	300
Laser Current (mA):	822
Laser Diode Temp (C):	25.1
Laser Case Temp (C):	27.1
System Temp (C):	27
Spectrometer Temp (C):	24.3
CCD Temp (C):	0.001
Secondary Temp (C):	20.004
Heatsink Temp (C):	22.76
CCDPCB Temp (C):	36.296
SecondaryPCB Temp (C):	33.895

Wavelength	RamanShift	Raw Counts	Dark Subtracted
787.061	30.1047	1114	701.9
787.2016	32.3739	1152.05	739.45
787.3422	34.6426	1196.55	782.55
787.4828	36.9109	1238.45	823.6
787.6235	39.1787	1296.85	878.3
787.7642	41.4461	1352.1	929.75
787.9049	43.7131	1417.4	989.85
788.0456	45.9796	1481.3	1051.65
788.1863	48.2456	1549.75	1116.05
788.3271	50.5112	1621.45	1184.85
788.4679	52.7764	1691.65	1251.25
788.6087	55.0411	1757.4	1315.3
788.7496	57.3054	1853.1	1403.3
788.8904	59.5692	1941.05	1489.85
789.0313	61.8326	2043.8	1587.7
789.1722	64.0955	2147.5	1688.8
789.3132	66.3579	2284.7	1821.2
789.4541	68.6199	2428.15	1963.25
789.5951	70.8815	2661.35	2191.6
789.7361	73.1426	3186.5	2711.7
789.8771	75.4032	4485.55	4005.9
790.0181	77.6634	7785.9	7301.65
790.1592	79.9231	16388.2	15898.15
790.3003	82.1824	53633.05	53133.45
790.4414	84.4412	65535	65013.95
790.5825	86.6995	65535	64990.15
790.7237	88.9574	65535	64965.5
790.8648	91.2148	65535	64950
791.006	93.4717	65535	64933.5
791.1472	95.7282	65535	64928.05
791.2885	97.9842	65535	64929.2
791.4297	100.2398	65535	64925.3
791.571	102.4949	65535	64924.2
791.7123	104.7495	65535	64918.05
791.8536	107.0036	65535	64915.95
791.9949	109.2573	65535	64920.8
792.1363	111.5105	65535	64915.35
792.2777	113.7632	65535	64915.85
792.4191	116.0154	65535	64904.35
792.5605	118.2672	65535	64907.8
792.7019	120.5185	65535	64908.35
792.8434	122.7693	65535	64905
792.9849	125.0197	65535	64903.8
793.1264	127.2696	65535	64898.3
793.2679	129.519	65535	64896.85
793.4094	131.7679	65535	64891.85
793.551	134.0163	65535	64891.65
793.6926	136.2642	65535	64886.4
793.8342	138.5117	65535	64879.4
793.9758	140.7587	65535	64882
794.1175	143.0052	65535	64874.8
794.2591	145.2512	65535	64877.85
794.4008	147.4967	65535	64878.25
794.5425	149.7417	65535	64873.35
794.6842	151.9863	65535	64872.55
794.826	154.2304	65535	64865.6
794.9677	156.4739	65535	64863.35
795.1095	158.717	65535	64862.35
795.2513	160.9596	65535	64858.6
795.3931	163.2017	65535	64860.2
795.535	165.4433	65535	64857.55
795.6768	167.6844	65535	64854.8
795.8187	169.925	65535	64846.95
795.9606	172.1651	65535	64843.7
796.1025	174.4047	65535	64843.75
796.2445	176.6439	65535	64842.65
796.3864	178.8825	65535	64837.85
796.5284	181.1206	65535	64835.5
796.6704	183.3582	65535	64832.85
796.8124	185.5954	65535	64832.4
796.9544	187.832	65535	64829.5
797.0965	190.0681	65535	64825.8
797.2386	192.3037	65535	64820.9
797.3806	194.5388	65535	64819.15
797.5228	196.7734	65535	64816
797.6649	199.0075	65535	64811.45
797.807	201.2411	65535	64812.7
797.9492	203.4742	65535	64815.8
798.0914	205.7068	65535	64810.95
798.2336	207.9389	65535	64804.2
798.3758	210.1704	65535	64804
798.518	212.4015	65535	64809.6
798.6603	214.632	65535	64813.8
798.8025	216.862	65535	64825.4
798.9448	219.0915	65535	64823.75
799.0871	221.3205	65535	64823.3
799.2294	223.549	65535	64825.35
799.3718	225.777	65535	64829.55
799.5141	228.0044	65535	64822.85
799.6565	230.2314	65535	64825.15
799.7989	232.4578	65535	64821.95
799.9413	234.6837	65535	64813.35
800.0837	236.909	65535	64806.45
800.2262	239.1339	65535	64784.8
800.3687	241.3582	65535	64797.6
800.5111	243.582	65535	64769.5
800.6536	245.8053	65535	64781.9
800.7961	248.0281	65535	64786.35
800.9387	250.2503	65535	64781.35
801.0812	252.472	65535	64778
801.2238	254.6932	65535	64778.55
801.3664	256.9139	65535	64780.25
801.509	259.134	65535	64771.85
801.6516	261.3536	65535	64772.7
801.7942	263.5727	65535	64770.15
801.9369	265.7912	65535	64776.55
802.0795	268.0092	65535	64773.2
802.2222	270.2267	65535	64772.8
802.3649	272.4436	65535	64772.25
802.5076	274.6601	65535	64763.85
802.6504	276.8759	65535	64766.7
802.7931	279.0913	65535	64765.8
802.9359	281.3061	65535	64762.45
803.0787	283.5204	65535	64760.8
803.2215	285.7341	65535	64758.2
803.3643	287.9473	65535	64746.15
803.5071	290.16	65535	64754.45
803.6499	292.3721	65535	64757.3
803.7928	294.5837	65535	64759
803.9357	296.7947	65535	64758.6
804.0786	299.0052	65535	64755.95
804.2215	301.2152	65535	64754.8
804.3644	303.4246	65535	64758.65
804.5074	305.6334	65535	64755.75
804.6503	307.8418	65535	64752.45
804.7933	310.0495	65535	64752.8
804.9363	312.2568	65535	64754.05
805.0793	314.4635	65535	64753.1
805.2223	316.6696	65535	64747.15
805.3653	318.8752	65535	64741.1
805.5084	321.0802	65535	64747.9
805.6514	323.2847	65535	64743.4
805.7945	325.4887	65535	64743.35
805.9376	327.692	65535	64744.9
806.0807	329.8949	65535	64743.85
806.2238	332.0972	65535	64742.9
806.367	334.2989	65535	64739.65
806.5101	336.5001	65535	64740.25
806.6533	338.7007	65535	64738.65
806.7965	340.9008	65535	64739.9
806.9397	343.1003	65535	64732.7
807.0829	345.2992	65535	64730.2
807.2261	347.4976	65535	64730.6
807.3693	349.6955	65535	64727.35
807.5126	351.8927	65535	64727.85
807.6559	354.0895	65535	64713.9
807.7991	356.2856	65535	64726.4
807.9424	358.4812	65535	64728.15
808.0857	360.6763	65535	64725.5
808.2291	362.8707	65535	64724.1
808.3724	365.0646	65535	64721.9
808.5158	367.258	65535	64717.55
808.6591	369.4508	65535	64715.15
808.8025	371.643	65535	64716.75
808.9459	373.8346	65535	64713.4
809.0893	376.0257	65535	64707.7
809.2327	378.2162	65535	64711.45
809.3762	380.4062	65535	64710.2
809.5196	382.5956	65535	64708.55
809.6631	384.7844	65535	64713.45
809.8066	386.9726	65535	64713.3
809.9501	389.1603	65535	64712.2
810.0936	391.3474	65535	64675.95
810.2371	393.5339	65535	64718.35
810.3806	395.7199	65535	64720.15
810.5241	397.9052	65535	64718.6
810.6677	400.09	65535	64717.45
810.8113	402.2743	65535	64718.65
810.9548	404.4579	65535	64716.25
811.0984	406.641	65535	64716.2
811.2421	408.8235	65535	64715.2
811.3857	411.0054	65535	64711.95
811.5293	413.1868	65535	64708.2
811.673	415.3675	65535	64707.65
811.8166	417.5477	65535	64706.9
811.9603	419.7273	65535	64704.05
812.104	421.9064	65535	64696.05
812.2477	424.0848	65535	64698.25
812.3914	426.2627	65535	64697.85
812.5351	428.4399	65535	64700.75
812.6788	430.6166	65535	64696.4
812.8226	432.7928	65535	64696.3
812.9663	434.9683	65535	64693.85
813.1101	437.1432	65535	64690.3
813.2539	439.3176	65535	64697.3
813.3977	441.4914	65535	64693
813.5415	443.6645	65535	64691.95
813.6853	445.8371	65535	64691.6
813.8291	448.0091	65535	64695.7
813.973	450.1806	65535	64693.5
814.1168	452.3514	65535	64691.1
814.2607	454.5216	65535	64682.7
814.4046	456.6913	65535	64688.25
814.5485	458.8603	65535	64688.95
814.6924	461.0288	65535	64689.95
814.8363	463.1967	65535	64692.3
814.9802	465.3639	65535	64689.1
815.1241	467.5306	65535	64688.45
815.2681	469.6967	65535	64691.75
815.412	471.8622	65535	64690.4
815.556	474.0271	65535	64690.55
815.7	476.1914	65535	64684.5
815.844	478.3551	65535	64685.05
815.988	480.5182	65535	64686.15
816.132	482.6807	65535	64683.45
816.276	484.8426	65535	64691.15
816.4201	487.0039	65535	64685.25
816.5641	489.1647	65535	64682.15
816.7082	491.3248	65535	64685.65
816.8522	493.4843	65535	64682.15
816.9963	495.6432	65535	64684.5
817.1404	497.8015	65535	64676.55
817.2845	499.9592	65535	64682.35
817.4286	502.1163	65535	64680.5
817.5727	504.2728	65535	64681.3
817.7168	506.4287	65535	64682.15
817.861	508.5839	65535	64679.45
818.0051	510.7386	65535	64679.15
818.1493	512.8927	65535	64674.9
818.2935	515.0461	65535	64675.45
818.4377	517.199	65535	64681.85
818.5818	519.3512	65535	64677.5
818.726	521.5029	65535	64673.2
818.8703	523.6539	65535	64676.8
819.0145	525.8043	65535	64673.5
819.1587	527.9541	65535	64674.55
819.303	530.1033	65535	64671.75
819.4472	532.2519	65535	64672.65
819.5915	534.3999	65535	64671.2
819.7357	536.5472	65535	64671.85
819.88	538.694	65535	64672.9
820.0243	540.8401	65535	64669.65
820.1686	542.9856	65535	64669.55
820.3129	545.1305	65535	64665.85
820.4572	547.2748	65535	64667.55
820.6016	549.4185	65535	64664.1
820.7459	551.5615	65535	64666.2
820.8902	553.704	65535	64667.65
821.0346	555.8458	65535	64667.25
821.1789	557.987	65535	64668
821.3233	560.1276	65535	64663.7
821.4677	562.2675	65535	64668.25
821.6121	564.4069	65535	64668.5
821.7565	566.5456	65535	64667.2
821.9009	568.6837	65535	64669.5
822.0453	570.8212	65535	64668.35
822.1897	572.958	65535	64665.65
822.3342	575.0942	65535	64669.45
822.4786	577.2299	65535	64669.4
822.6231	579.3648	65535	64668.95
822.7675	581.4992	65535	64670.3
822.912	583.6329	65535	64669.2
823.0565	585.766	65535	64670.1
823.201	587.8985	65535	64669.9
823.3454	590.0304	65535	64647.3
823.4899	592.1616	65535	64665.2
823.6345	594.2922	65535	64661.75
823.779	596.4222	65535	64662.65
823.9235	598.5515	65535	64660.25
824.068	600.6802	65535	64664.05
824.2126	602.8083	65535	64662.3
824.3571	604.9358	65535	64659.05
824.5017	607.0626	65535	64661.85
824.6462	609.1888	65535	64658.2
824.7908	611.3144	65535	64659.95
824.9354	613.4393	65535	64657.9
825.08	615.5636	65535	64659.65
825.2246	617.6873	65535	64661.6
825.3692	619.8103	65535	64658.15
825.5138	621.9327	65535	64658.75
825.6584	624.0544	65535	64657
825.803	626.1756	65535	64660.05
825.9477	628.2961	65535	64657.3
826.0923	630.4159	65535	64659.3
826.237	632.5351	65535	64657.75
826.3816	634.6537	65535	64657.7
826.5263	636.7716	65535	64651
826.6709	638.8889	65535	64657
826.8156	641.0056	65535	64653.55
826.9603	643.1216	65535	64654.45
827.105	645.237	65535	64653.85
827.2497	647.3518	65535	64654.9
827.3944	649.4659	65535	64657.95
827.5391	651.5793	65535	64655.05
827.6838	653.6922	65535	64656.75
827.8285	655.8043	65535	64656.65
827.9733	657.9159	65535	64655.9
828.118	660.0268	65535	64652.55
828.2627	662.137	65535	64654.85
828.4075	664.2466	65535	64652.35
828.5522	666.3556	65535	64649.65
828.697	668.4639	65535	64652.55
828.8418	670.5716	65535	64651.5
828.9865	672.6786	65535	64652.4
829.1313	674.785	65535	64649.1
829.2761	676.8907	65535	64650.15
829.4209	678.9958	65535	64654.1
829.5657	681.1002	65535	64649.4
829.7105	683.204	65535	64647
829.8553	685.3072	65535	64644.9
830.0001	687.4097	65535	64652.5
830.1449	689.5115	65535	64650.55
830.2898	691.6127	65535	64650.45
830.4346	693.7132	65535	64647.75
830.5794	695.8131	65535	64641.55
830.7243	697.9123	65535	64648.1
830.8691	700.0109	65535	64646.25
831.014	702.1089	65535	64648.1
831.1588	704.2061	65535	64648.7
831.3037	706.3028	65535	64645.25
831.4486	708.3987	65535	64646.2
831.5935	710.4941	65535	64649.05
831.7383	712.5887	65535	64645.75
831.8832	714.6827	65535	64643.05
832.0281	716.7761	65535	64647.2
832.173	718.8688	65535	64646.75
832.3179	720.9608	65535	64642.1
832.4628	723.0522	65535	64640.05
832.6077	725.1429	65535	64642.6
832.7527	727.233	65535	64644.8
832.8976	729.3224	65535	64645.85
833.0425	731.4112	65535	64643.95
833.1874	733.4993	65535	64641.7
833.3324	735.5867	65535	64642.4
833.4773	737.6735	65535	64644.65
833.6222	739.7596	65535	64641.1
833.7672	741.845	65535	64643.25
833.9122	743.9298	65535	64640.95
834.0571	746.014	65535	64644.35
834.2021	748.0974	65535	64640.8
834.347	750.1802	65535	64644.25
834.492	752.2624	65535	64641.95
834.637	754.3439	65535	64643.25
834.782	756.4247	65535	64635.4
834.9269	758.5048	65535	64642.85
835.0719	760.5843	65535	64641.75
835.2169	762.6631	65535	64644
835.3619	764.7413	65535	64644.35
835.5069	766.8188	65535	64640
835.6519	768.8956	65535	64638.1
835.7969	770.9718	65535	64638.75
835.9419	773.0473	65535	64641.35
836.0869	775.1221	65535	64639.7
836.232	777.1962	65535	64641.15
836.377	779.2697	65535	64639.85
836.522	781.3426	65535	64621.75
836.667	783.4147	65535	64638.3
836.8121	785.4862	65535	64642.35
836.9571	787.557	65535	64641.3
837.1021	789.6271	65535	64638.9
837.2472	791.6966	65535	64639
837.3922	793.7654	65535	64640.5
837.5373	795.8335	65535	64639.45
837.6823	797.901	65535	64640.1
837.8274	799.9678	65535	64640.7
837.9724	802.0339	65535	64641.3
838.1175	804.0993	65535	64629.9
838.2626	806.1641	65535	64636.35
838.4076	808.2282	65535	64641.7
838.5527	810.2916	65535	64638.8
838.6978	812.3544	65535	64643.45
838.8428	814.4164	65535	64642.75
838.9879	816.4778	65535	64636.25
839.133	818.5385	65535	64639.9
839.2781	820.5986	65535	64638.65
839.4232	822.658	65535	64635.25
839.5682	824.7166	65535	64642.35
839.7133	826.7747	65535	64637.9
839.8584	828.832	65535	64640.3
840.0035	830.8886	65535	64636.7
840.1486	832.9446	65535	64635.55
840.2937	834.9999	65535	64640
840.4388	837.0545	65535	64633.85
840.5839	839.1085	65535	64636.85
840.729	841.1618	65535	64636.05
840.8741	843.2143	65535	64637.95
841.0192	845.2662	65535	64640.25
841.1643	847.3175	65535	64638.95
841.3095	849.368	65535	64638.15
841.4546	851.4179	65535	64638.75
841.5997	853.467	65535	64634.35
841.7448	855.5155	65535	64634
841.8899	857.5633	65535	64635.65
842.0351	859.6105	65535	64639.15
842.1802	861.6569	65535	64638.45
842.3253	863.7027	65535	64634.1
842.4704	865.7478	65535	64637.55
842.6156	867.7922	65535	64636.4
842.7607	869.8359	65535	64636.85
842.9058	871.8789	65535	64635.25
843.0509	873.9212	65535	64603
843.1961	875.9629	65535	64632.85
843.3412	878.0039	65535	64635.1
843.4863	880.0441	65535	64635.65
843.6315	882.0837	65535	64638.65
843.7766	884.1226	65535	64636.85
843.9218	886.1609	65535	64636.9
844.0669	888.1984	65535	64637.8
844.212	890.2352	65535	64636.7
844.3572	892.2714	65535	64629.7
844.5023	894.3069	65535	64634.75
844.6475	896.3416	65535	64635.75
844.7926	898.3757	65535	64636.25
844.9377	900.4091	65535	64633.85
845.0829	902.4418	65535	64631.85
845.228	904.4739	65535	64635.85
845.3732	906.5052	65535	64633.05
845.5183	908.5358	65535	64638.2
845.6635	910.5658	65535	64632.4
845.8086	912.595	65535	64635.6
845.9538	914.6236	65535	64636
846.0989	916.6515	65535	64634.4
846.2441	918.6786	65535	64632.6
846.3892	920.7051	65535	64632.85
846.5344	922.7309	65535	64635.75
846.6795	924.756	65535	64631.85
846.8246	926.7804	65535	64629
846.9698	928.8041	65535	64631.45
847.1149	930.8272	65535	64634.3
847.2601	932.8495	65535	64633.5
847.4052	934.8711	65535	64634
847.5504	936.892	65535	64633.3
847.6955	938.9123	65535	64633.15
847.8407	940.9318	65535	64634.35
847.9858	942.9506	65535	64634.7
848.131	944.9688	65535	64633.1
848.2761	946.9862	65535	64630.45
848.4213	949.003	65535	64635.75
848.5664	951.019	65535	64634.5
848.7115	953.0344	65535	64635.5
848.8567	955.0491	65535	64633.15
849.0018	957.063	65535	64632.2
849.147	959.0763	65535	64634.95
849.2921	961.0888	65535	64630.8
849.4373	963.1007	65535	64630.7
849.5824	965.1119	65535	64634.45
849.7275	967.1223	65535	64632.25
849.8727	969.1321	65535	64636.75
850.0178	971.1412	65535	64635.25
850.1629	973.1495	65535	64635.8
850.3081	975.1572	65535	64584.15
850.4532	977.1641	65535	64632.7
850.5983	979.1704	65535	64632.3
850.7435	981.1759	65535	64629.8
850.8886	983.1808	65535	64632.35
851.0337	985.1849	65535	64621.9
851.1788	987.1884	65535	64628.75
851.324	989.1911	65535	64631.35
851.4691	991.1932	65535	64632.55
851.6142	993.1945	65535	64632.55
851.7593	995.1951	65535	64636
851.9045	997.1951	65535	64626.45
852.0496	999.1943	65535	64632.6
852.1947	1001.1928	65535	64632.1
852.3398	1003.1906	65535	64632.65
852.4849	1005.1877	65535	64633
852.63	1007.1841	65535	64632.1
852.7751	1009.1798	65535	64632.5
852.9202	1011.1748	65535	64632.2
853.0653	1013.1691	65535	64631.65
853.2104	1015.1627	65535	64633
853.3555	1017.1556	65535	64633.15
853.5006	1019.1477	65535	64630.6
853.6457	1021.1392	65535	64635.35
853.7908	1023.1299	65535	64634
853.9359	1025.12	65535	64632.8
854.081	1027.1093	65535	64636.35
854.2261	1029.0979	65535	64636.95
854.3712	1031.0859	65535	64639.2
854.5163	1033.0731	65535	64633.9
854.6613	1035.0596	65535	64635.9
854.8064	1037.0454	65535	64633.9
854.9515	1039.0304	65535	64634.5
855.0965	1041.0148	65535	64633.95
855.2416	1042.9985	65535	64632.15
855.3867	1044.9814	65535	64632.75
855.5317	1046.9636	65535	64631.2
855.6768	1048.9452	65535	64632.35
855.8219	1050.926	65535	64634.25
855.9669	1052.9061	65535	64632.8
856.112	1054.8855	65535	64635.7
856.257	1056.8642	65535	64634.75
856.4021	1058.8421	65535	64625.6
856.5471	1060.8194	65535	64634.05
856.6921	1062.7959	65535	64633.85
856.8372	1064.7717	65535	64630.5
856.9822	1066.7469	65535	64632.9
857.1272	1068.7213	65535	64627.8
857.2723	1070.695	65535	64632.15
857.4173	1072.6679	65535	64632.5
857.5623	1074.6402	65535	64635.4
857.7073	1076.6117	65535	64629.35
857.8523	1078.5826	65535	64630.7
857.9973	1080.5527	65535	64629.45
858.1423	1082.5221	65535	64630.4
858.2873	1084.4908	65535	64632.65
858.4323	1086.4587	65535	64631.7
858.5773	1088.426	65535	64633.3
858.7223	1090.3925	65535	64628.45
858.8673	1092.3584	65535	64631.35
859.0123	1094.3235	65535	64631.9
859.1573	1096.2879	65535	64632.1
859.3022	1098.2515	65535	64634.5
859.4472	1100.2145	65535	64633.4
859.5922	1102.1767	65535	64628.7
859.7371	1104.1382	65535	64632.3
859.8821	1106.099	65535	64630.95
860.027	1108.0591	65535	64634.3
860.172	1110.0185	65535	64630.05
860.3169	1111.9771	65535	64634.85
860.4619	1113.9351	65535	64629.45
860.6068	1115.8923	65535	64632.25
860.7517	1117.8488	65535	64632.4
860.8967	1119.8045	65535	64630.8
861.0416	1121.7596	65535	64630.95
861.1865	1123.7139	65535	64633.4
861.3314	1125.6675	65535	64632.9
861.4763	1127.6204	65535	64633.55
861.6212	1129.5726	65535	64630.4
861.7661	1131.524	65535	64633.85
861.911	1133.4748	65535	64632.55
862.0559	1135.4248	65535	64629.9
862.2008	1137.3741	65535	64629.6
862.3457	1139.3226	65535	64631.45
862.4905	1141.2705	65535	64630.9
862.6354	1143.2176	65535	64627.6
862.7803	1145.164	65535	64630.9
862.9251	1147.1097	65535	64633.7
863.07	1149.0546	65535	64631.1
863.2148	1150.9989	65535	64632.85
863.3597	1152.9424	65535	64632.95
863.5045	1154.8852	65535	64632.5
863.6493	1156.8272	65535	64634.95
863.7942	1158.7686	65535	64625.2
863.939	1160.7092	65535	64633.1
864.0838	1162.6491	65535	64631.3
864.2286	1164.5883	65535	64633
864.3734	1166.5267	65535	64632.85
864.5182	1168.4644	65535	64630.2
864.663	1170.4014	65535	64627.8
864.8078	1172.3377	65535	64634.7
864.9526	1174.2732	65535	64634.55
865.0974	1176.2081	65535	64633.65
865.2421	1178.1421	65535	64627.85
865.3869	1180.0755	65535	64634.15
865.5317	1182.0082	65535	64632.55
865.6764	1183.9401	65535	64630.75
865.8212	1185.8713	65535	64634.1
865.9659	1187.8017	65535	64633.45
866.1106	1189.7315	65535	64635.3
866.2554	1191.6605	65535	64606.5
866.4001	1193.5888	65535	64633.85
866.5448	1195.5163	65535	64631.3
866.6895	1197.4432	65535	64632.35
866.8342	1199.3693	65535	64634.2
866.9789	1201.2947	65535	64630.15
867.1236	1203.2193	65535	64630.85
867.2683	1205.1432	65535	64631.7
867.413	1207.0664	65535	64632.75
867.5576	1208.9889	65535	64631.8
867.7023	1210.9106	65535	64632.75
867.847	1212.8316	65535	64634.45
867.9916	1214.7519	65535	64624.2
868.1363	1216.6715	65535	64631.6
868.2809	1218.5903	65535	64633.05
868.4255	1220.5084	65535	64633.8
868.5701	1222.4257	65535	64632.5
868.7148	1224.3424	65535	64635.95
868.8594	1226.2583	65535	64628.75
869.004	1228.1735	65535	64632
869.1486	1230.0879	65535	64633.05
869.2932	1232.0016	65535	64633.15
869.4377	1233.9146	65535	64634.85
869.5823	1235.8269	65535	64632.05
869.7269	1237.7384	65535	64632.85
869.8715	1239.6492	65535	64633.95
870.016	1241.5592	65535	64632.65
870.1606	1243.4686	65535	64633.7
870.3051	1245.3772	65535	64633.15
870.4496	1247.285	65535	64630.35
870.5941	1249.1922	65535	64635.25
870.7387	1251.0986	65535	64632.75
870.8832	1253.0042	65535	64633.2
871.0277	1254.9092	65535	64632.6
871.1722	1256.8134	65535	64633.35
871.3167	1258.7169	65535	64632.7
871.4611	1260.6196	65535	64633.3
871.6056	1262.5216	65535	64631.3
871.7501	1264.4229	65535	64634.6
871.8945	1266.3234	65535	64631.05
872.039	1268.2232	65535	64633.75
872.1834	1270.1223	65535	64632.75
872.3278	1272.0207	65535	64633.3
872.4723	1273.9183	65535	64627.45
872.6167	1275.8151	65535	64633.6
872.7611	1277.7113	65535	64634.35
872.9055	1279.6067	65535	64633.5
873.0499	1281.5014	65535	64630.55
873.1943	1283.3953	65535	64630.55
873.3386	1285.2885	65535	64632.45
873.483	1287.181	65535	64631.2
873.6274	1289.0727	65535	64633.25
873.7717	1290.9637	65535	64633.15
873.9161	1292.854	65535	64633.3
874.0604	1294.7435	65535	64631.95
874.2047	1296.6323	65535	64634.25
874.349	1298.5204	65535	64628.8
874.4933	1300.4077	65535	64632.3
874.6376	1302.2943	65535	64631.25
874.7819	1304.1802	65535	64632.95
874.9262	1306.0653	65535	64628.9
875.0705	1307.9497	65535	64631.7
875.2147	1309.8333	65535	64632.95
875.359	1311.7162	65535	64631.05
875.5032	1313.5984	65535	64631.3
875.6475	1315.4798	65535	64621.65
875.7917	1317.3605	65535	64615.5
875.9359	1319.2405	65535	64631.25
876.0801	1321.1197	65535	64629.65
876.2243	1322.9982	65535	64626.55
876.3685	1324.876	65535	64633.3
876.5127	1326.753	65535	64632.2
876.6569	1328.6293	65535	64633.35
876.801	1330.5048	65535	64632.6
876.9452	1332.3796	65535	64633.7
877.0893	1334.2537	65535	64609.5
877.2335	1336.127	65535	64631.55
877.3776	1337.9996	65535	64633.5
877.5217	1339.8714	65535	64632.05
877.6658	1341.7426	65535	64588.4
877.8099	1343.6129	65535	64634.3
877.954	1345.4826	65535	64633.55
878.0981	1347.3515	65535	64631.55
878.2422	1349.2196	65535	64633.3
878.3862	1351.087	65535	64631.25
878.5303	1352.9537	65535	64630.35
878.6743	1354.8197	65535	64631.35
878.8184	1356.6849	65535	64632.55
878.9624	1358.5493	65535	64632.2
879.1064	1360.4131	65535	64633.25
879.2504	1362.276	65535	64632.95
879.3944	1364.1383	65535	64635.4
879.5384	1365.9998	65535	64628.05
879.6823	1367.8606	65535	64634.25
879.8263	1369.7206	65535	64633.8
879.9702	1371.5799	65535	64629.45
880.1142	1373.4384	65535	64630.85
880.2581	1375.2962	65535	64631.25
880.402	1377.1533	65535	64636.95
880.5459	1379.0096	65535	64633.1
880.6898	1380.8652	65535	64632.6
880.8337	1382.7201	65535	64633
880.9776	1384.5742	65535	64631.15
881.1215	1386.4275	65535	64633.35
881.2653	1388.2802	65535	64634.65
881.4092	1390.132	65535	64635.25
881.553	1391.9832	65535	64630.95
881.6968	1393.8336	65535	64632.45
881.8406	1395.6832	65535	64629.55
881.9844	1397.5322	65535	64633
882.1282	1399.3803	65535	64628.3
882.272	1401.2278	65535	64632.15
882.4158	1403.0745	65535	64633.75
882.5595	1404.9204	65535	64634.45
882.7033	1406.7656	65535	64634.5
882.847	1408.6101	65535	64632.75
882.9908	1410.4538	65535	64632.05
883.1345	1412.2968	65535	64631.95
883.2782	1414.139	65535	64632.55
883.4219	1415.9805	65535	64633
883.5656	1417.8213	65535	64625.45
883.7092	1419.6613	65535	64634.25
883.8529	1421.5006	65535	64634.1
883.9965	1423.3391	65535	64633
884.1402	1425.1769	65535	64632.3
884.2838	1427.0139	65535	64632.55
884.4274	1428.8502	65535	64632.55
884.571	1430.6858	65535	64631.8
884.7146	1432.5206	65535	64635.3
884.8582	1434.3547	65535	64632.25
885.0018	1436.188	65535	64634.05
885.1453	1438.0206	65535	64632.9
885.2889	1439.8524	65535	64634.85
885.4324	1441.6835	65535	64633.95
885.5759	1443.5139	65535	64632.7
885.7194	1445.3435	65535	64633.95
885.8629	1447.1724	65535	64637.1
886.0064	1449.0005	65535	64633.9
886.1499	1450.8279	65535	64630.7
886.2933	1452.6545	65535	64633.25
886.4368	1454.4804	65535	64633.15
886.5802	1456.3056	65535	64625.3
886.7237	1458.13	65535	64634.2
886.8671	1459.9536	65535	64634.1
887.0105	1461.7766	65535	64634.55
887.1539	1463.5987	65535	64633.25
887.2972	1465.4202	65535	64636.15
887.4406	1467.2409	65535	64631.55
887.584	1469.0608	65535	64631.35
887.7273	1470.88	65535	64634.55
887.8706	1472.6984	65535	64635.4
888.0139	1474.5161	65535	64631.45
888.1572	1476.3331	65535	64633.05
888.3005	1478.1493	65535	64634
888.4438	1479.9648	65535	64634.95
888.5871	1481.7795	65535	64635.2
888.7303	1483.5935	65535	64635.15
888.8736	1485.4067	65535	64634.05
889.0168	1487.2192	65535	64634.75
889.16	1489.031	65535	64629.2
889.3032	1490.842	65535	64633.3
889.4464	1492.6522	65535	64634.45
889.5896	1494.4618	65535	64631.65
889.7327	1496.2705	65535	64635.45
889.8759	1498.0785	65535	64634.55
890.019	1499.8858	65535	64635.75
890.1622	1501.6924	65535	64633.5
890.3053	1503.4981	65535	64634.05
890.4484	1505.3032	65535	64633.85
890.5914	1507.1075	65535	64631.75
890.7345	1508.911	65535	64635
890.8776	1510.7138	65535	64634.45
891.0206	1512.5159	65535	64634.15
891.1637	1514.3172	65535	64636.35
891.3067	1516.1178	65535	64636.25
891.4497	1517.9176	65535	64633.05
891.5927	1519.7166	65535	64636.3
891.7357	1521.515	65535	64628.65
891.8786	1523.3126	65535	64636.75
892.0216	1525.1094	65535	64632.9
892.1645	1526.9055	65535	64635.2
892.3074	1528.7008	65535	64635.05
892.4503	1530.4954	65535	64628.65
892.5932	1532.2893	65535	64636.1
892.7361	1534.0824	65535	64630.3
892.879	1535.8747	65535	64634.8
893.0218	1537.6663	65535	64635.05
893.1647	1539.4572	65535	64633.1
893.3075	1541.2473	65535	64635.3
893.4503	1543.0367	65535	64634.5
893.5931	1544.8253	65535	64629.2
893.7359	1546.6132	65535	64633.45
893.8787	1548.4003	65535	64624.2
894.0214	1550.1867	65535	64627
894.1642	1551.9723	65535	64632.3
894.3069	1553.7572	65535	64635.1
894.4496	1555.5414	65535	64638
894.5923	1557.3247	65528.75	64630
894.735	1559.1074	65535	64635.05
894.8777	1560.8893	65535	64637.55
895.0204	1562.6705	65535	64638
895.163	1564.4509	65532.35	64634.55
895.3056	1566.2305	65535	64638.4
895.4482	1568.0094	65535	64638.75
895.5908	1569.7876	65535	64636.2
895.7334	1571.565	65534.7	64635.75
895.876	1573.3417	65535	64636.6
896.0186	1575.1176	65535	64636.6
896.1611	1576.8928	65532.35	64633.85
896.3036	1578.6672	65518.6	64624.5
896.4461	1580.4409	65530.1	64632.05
896.5886	1582.2138	65500.3	64600.75
896.7311	1583.986	65515.15	64618.05
896.8736	1585.7575	65460.55	64564.25
897.0161	1587.5282	65492.95	64598.95
897.1585	1589.2981	65486.05	64590.05
897.3009	1591.0673	65412.85	64515.75
897.4433	1592.8358	65296.4	64400.95
897.5857	1594.6035	65411.85	64513.1
897.7281	1596.3704	65437.1	64539.5
897.8705	1598.1366	65192.8	64296.2
898.0128	1599.9021	64986.35	64088.9
898.1551	1601.6668	65276.1	64377
898.2975	1603.4308	65144.7	64245.3
898.4398	1605.194	65128.95	64226.65
898.5821	1606.9564	64590.55	63694.05
898.7243	1608.7182	64936.05	64035.4
898.8666	1610.4791	64582.7	63688.5
899.0088	1612.2394	64940.8	64045.95
899.1511	1613.9988	64463.5	63568.35
899.2933	1615.7576	64973.15	64076.3
899.4355	1617.5156	64966.55	64063.7
899.5776	1619.2728	65273.05	64375.65
899.7198	1621.0293	64663.9	63766.75
899.862	1622.785	64668.3	63767.25
900.0041	1624.54	64973.5	64074.6
900.1462	1626.2942	64516.95	63619.05
900.2883	1628.0477	63734.65	62837
900.4304	1629.8005	63006.75	62107.85
900.5725	1631.5525	63821.4	62925.1
900.7145	1633.3037	62623.75	61728.4
900.8566	1635.0542	62447.75	61553.6
900.9986	1636.804	62904.85	62009.65
901.1406	1638.553	61715.65	60738.8
901.2826	1640.3013	62189.6	61293.8
901.4245	1642.0488	61439.8	60541.35
901.5665	1643.7955	61934.95	61040.1
901.7085	1645.5416	61368.15	60471.65
901.8504	1647.2868	60851	59956
901.9923	1649.0313	61720.9	60826.3
902.1342	1650.7751	61268.15	60368.45
902.2761	1652.5181	60834.75	59939.65
902.4179	1654.2604	60957.15	60061.8
902.5598	1656.0019	61336.45	60441.45
902.7016	1657.7427	61111.6	60217.5
902.8434	1659.4828	61754.75	60858.95
902.9852	1661.222	61227	60332.9
903.127	1662.9606	61899.9	61007.2
903.2687	1664.6984	60957.05	60059.8
903.4105	1666.4354	61198.9	60303.65
903.5522	1668.1717	60007.9	59112.3
903.6939	1669.9072	59174.15	58279.7
903.8356	1671.642	58943.2	58042.5
903.9773	1673.3761	58627.05	57731.55
904.119	1675.1094	58294.15	57398.85
904.2606	1676.8419	57633.5	56738.85
904.4022	1678.5737	57533.35	56636.65
904.5439	1680.3048	57250.15	56355.3
904.6855	1682.0351	56901.2	56004.85
904.827	1683.7646	56629.6	55731.15
904.9686	1685.4934	56761.2	55865.55
905.1101	1687.2215	55651.1	54757.2
905.2517	1688.9488	56273.2	55378.05
905.3932	1690.6754	54830.4	53936.75
905.5347	1692.4012	55350.45	54456.5
905.6761	1694.1263	55245.95	54350.25
905.8176	1695.8506	54858.8	53962.65
905.9591	1697.5742	54738.8	53845.2
906.1005	1699.297	54474.45	53580.7
906.2419	1701.0191	54392.8	53498.5
906.3833	1702.7404	53869.55	52973.4
906.5246	1704.461	53584.1	52687.8
906.666	1706.1808	53510.05	52614
906.8073	1707.8999	53388.1	52493.4
906.9487	1709.6182	53134.1	52241.25
907.09	1711.3358	53050.5	52156.85
907.2313	1713.0527	52820.05	51928.65
907.3725	1714.7688	52717.35	51816.8
907.5138	1716.4841	52136.1	51239.35
907.655	1718.1987	52266.75	51367.65
907.7962	1719.9126	52027.3	51133.8
907.9374	1721.6257	51884.95	50988.15
908.0786	1723.338	51968.65	51073.6
908.2198	1725.0496	51273.05	50380.15
908.3609	1726.7605	51211.85	50316.9
908.502	1728.4706	51086.4	50192.05
908.6431	1730.18	50812	49916.35
908.7842	1731.8886	50657.7	49763.2
908.9253	1733.5964	50515.75	49600.6
909.0664	1735.3036	50441	49542.8
909.2074	1737.0099	50266.3	49372.2
909.3484	1738.7156	50005.75	49112.15
909.4894	1740.4204	49801.05	48902.95
909.6304	1742.1246	49759.3	48863.25
909.7714	1743.8279	49676.7	48782.2
909.9123	1745.5306	49593.25	48698
910.0532	1747.2325	49191	48300.3
910.1941	1748.9336	49088.85	48195.8
910.335	1750.634	48947.35	48052
910.4759	1752.3336	48851.95	47956.7
910.6168	1754.0325	48689.1	47796.05
910.7576	1755.7307	48585.4	47691.05
910.8984	1757.4281	48490.05	47596.8
911.0392	1759.1247	48416.85	47513.95
911.18	1760.8206	48166.2	47267.85
911.3208	1762.5158	48111.15	47213.55
911.4615	1764.2102	47870.1	46979.55
911.6022	1765.9039	47757.5	46864.95
911.7429	1767.5968	47639.25	46744.75
911.8836	1769.289	47508.9	46616.7
912.0243	1770.9804	47341.95	46447.5
912.1649	1772.6711	47287.5	46393.5
912.3056	1774.361	47107.15	46212.15
912.4462	1776.0502	46994.15	46100.15
912.5868	1777.7386	46855.7	45960.15
912.7274	1779.4263	46725.85	45831.2
912.8679	1781.1132	46711.5	45818.9
913.0084	1782.7994	46452.5	45557.1
913.149	1784.4849	46408.75	45517.45
913.2895	1786.1696	46121.6	45222.15
913.4299	1787.8535	46025.55	45131.25
913.5704	1789.5367	45907.3	45014.75
913.7108	1791.2192	45819.9	44925.1
913.8513	1792.9009	45666.95	44742.4
913.9917	1794.5818	45514.75	44621.9
914.132	1796.2621	45391	44499.05
914.2724	1797.9415	45253.75	44359.4
914.4128	1799.6202	45132.1	44237.95
914.5531	1801.2982	45036.5	44143.75
914.6934	1802.9755	44893.2	43998.5
914.8337	1804.6519	44839.15	43945.1
914.9739	1806.3277	44513.6	43622.15
915.1142	1808.0027	44304	43411.25
915.2544	1809.6769	44346.15	43452.2
915.3946	1811.3504	44146.05	43250.6
915.5348	1813.0231	44035.85	43141.4
915.675	1814.6951	44011.45	43118.55
915.8151	1816.3664	44016.15	43119.8
915.9553	1818.0369	43820.8	42927.45
916.0954	1819.7067	43670.5	42777.45
916.2355	1821.3757	43575.35	42678.55
916.3755	1823.044	43439.8	42545.95
916.5156	1824.7115	43297.45	42403.2
916.6556	1826.3783	43157.1	42262.55
916.7956	1828.0443	42987.05	42095.7
916.9356	1829.7096	42877.75	41984.85
917.0756	1831.3741	42869.8	41973.8
917.2155	1833.0379	42707.75	41817.05
917.3555	1834.701	42502.2	41606.15
917.4954	1836.3633	42446.95	41553.7
917.6353	1838.0248	42222.35	41327.15
917.7751	1839.6856	42136.75	41242.3
917.915	1841.3457	42072.1	41180.45
918.0548	1843.005	41925.65	41031.4
918.1946	1844.6636	41891.1	40998.2
918.3344	1846.3214	41748.15	40854
918.4742	1847.9785	41701.5	40809.15
918.6139	1849.6349	41548.1	40653.05
918.7537	1851.2904	41451.2	40550.8
918.8934	1852.9453	41306.65	40414.95
919.0331	1854.5994	41170.75	40275.55
919.1727	1856.2528	41217.2	40318.8
919.3124	1857.9054	41073.1	40177.7
919.452	1859.5572	41003.65	40110.5
919.5916	1861.2083	40884.5	39990.85
919.7312	1862.8587	40849.8	39957.5
919.8708	1864.5084	40666.7	39771.2
920.0103	1866.1572	40549.7	39658.05
920.1498	1867.8054	40364.1	39468.75
920.2893	1869.4528	40329.25	39436.45
920.4288	1871.0994	40205.7	39311.3
920.5683	1872.7453	40080.7	39187.5
920.7077	1874.3905	39960.05	39059.85
920.8471	1876.0349	39845.35	38951.25
920.9865	1877.6786	39828.55	38934.2
921.1259	1879.3215	39749.85	38856.7
921.2653	1880.9637	39628.75	38734.2
921.4046	1882.6051	39513.25	38620.9
921.5439	1884.2458	39368.3	38472.15
921.6832	1885.8858	39259.55	38366.6
921.8225	1887.525	39180.4	38286.65
921.9617	1889.1634	38925.65	38034.75
922.101	1890.8011	38830.1	37936.3
922.2402	1892.4381	38700.8	37810.3
922.3794	1894.0743	38646.25	37755.3
922.5185	1895.7098	38525.15	37633.3
922.6577	1897.3446	38485.95	37591.75
922.7968	1898.9786	38251.95	37355.3
922.9359	1900.6118	38227.2	37334.65
923.075	1902.2443	38044.95	37148.6
923.214	1903.8761	37924.6	37032.5
923.3531	1905.5071	37696	36800.6
923.4921	1907.1374	37567.65	36673.55
923.6311	1908.7669	37532.5	36639.05
923.77	1910.3957	37410.8	36518.85
923.909	1912.0237	37188.35	36295.7
924.0479	1913.651	37114.05	36220.95
924.1868	1915.2776	37026.45	36135.5
924.3257	1916.9034	36877.35	35985.75
924.4646	1918.5285	36637.5	35744.3
924.6034	1920.1528	36515.8	35621.45
924.7422	1921.7764	36492.5	35600.05
924.881	1923.3992	36278.5	35386.95
925.0198	1925.0213	36022.65	35127.75
925.1586	1926.6427	35901	35009.8
925.2973	1928.2633	35861.9	34855.8
925.436	1929.8832	35710.2	34816.3
925.5747	1931.5023	35522.2	34628.3
925.7134	1933.1207	35453.4	34562.3
925.852	1934.7383	35392.15	34499.95
925.9906	1936.3552	35232.7	34340.9
926.1292	1937.9714	35112.65	34220.3
926.2678	1939.5868	34978.35	34085.6
926.4064	1941.2015	34767.6	33873.6
926.5449	1942.8154	34712.95	33820
926.6834	1944.4286	34504.25	33610.65
926.8219	1946.041	34385.45	33475.2
926.9604	1947.6528	34165.4	33268.05
927.0988	1949.2637	34109.45	33217.6
927.2372	1950.8739	33916.6	33024.9
927.3756	1952.4834	33885.55	32994.95
927.514	1954.0921	33840.55	32946.5
927.6523	1955.7001	33722.25	32827.05
927.7907	1957.3074	33566.3	32676.65
927.929	1958.9139	33397.45	32505.2
928.0673	1960.5197	33347.55	32453.85
928.2055	1962.1247	33162.3	32269.8
928.3438	1963.729	32964.4	32072.8
928.482	1965.3325	32858.1	31942.75
928.6202	1966.9353	32734.95	31844.5
928.7584	1968.5374	32622.15	31728.85
928.8965	1970.1387	32472.6	31581.4
929.0346	1971.7393	32331.65	31440.1
929.1727	1973.3392	32279.95	31388.65
929.3108	1974.9383	32125.95	31232.25
929.4489	1976.5366	31977.65	31085.8
929.5869	1978.1342	31991.25	31098.45
929.7249	1979.7311	31869.7	30977.25
929.8629	1981.3273	31777.8	30884.55
930.0009	1982.9227	31631.6	30738.65
930.1388	1984.5173	31459.65	30566.5
930.2767	1986.1112	31349.1	30458.35
930.4146	1987.7044	31281.15	30389.6
930.5525	1989.2968	31157.85	30263.85
930.6904	1990.8885	31119	30222.6
930.8282	1992.4795	31057.7	30165.55
930.966	1994.0697	30881.4	29992.2
931.1038	1995.6592	30764.6	29875.05
931.2415	1997.2479	30636	29745
931.3793	1998.8359	30565.4	29673.05
931.517	2000.4232	30426.45	29536.3
931.6547	2002.0097	30318.25	29427.05
931.7923	2003.5955	30142.7	29252.25
931.93	2005.1805	30100.1	29208.5
932.0676	2006.7648	30018.95	29128.45
932.2052	2008.3484	29914.2	29021.8
932.3427	2009.9312	29934.75	29041.55
932.4803	2011.5133	29763	28870.45
932.6178	2013.0946	29702.6	28809.95
932.7553	2014.6752	29623.8	28733.3
932.8928	2016.2551	29516.5	28626.4
933.0302	2017.8342	29385.2	28493.9
933.1676	2019.4126	29275.15	28383.05
933.305	2020.9902	29135.75	28245.75
933.4424	2022.5672	29074.15	28182.05
933.5798	2024.1433	29004.95	28108.05
933.7171	2025.7188	28891.2	27999.75
933.8544	2027.2935	28733.15	27840.9
933.9917	2028.8674	28640.75	27748.85
934.129	2030.4406	28596.6	27707.85
934.2662	2032.0131	28430.1	27540.85
934.4034	2033.5849	28333.45	27436.65
934.5406	2035.1559	28232.8	27341.35
934.6778	2036.7261	28195.05	27304.55
934.8149	2038.2957	28107.8	27214.55
934.952	2039.8645	28011.65	27121.1
935.0891	2041.4325	28022.3	27127.55
935.2262	2042.9998	27889.1	26997.55
935.3632	2044.5664	27793	26897.45
935.5002	2046.1323	27697.25	26805.7
935.6372	2047.6974	27613.8	26722.7
935.7742	2049.2617	27532.2	26639.2
935.9111	2050.8254	27519.3	26607.15
936.048	2052.3883	27466.55	26575
936.1849	2053.9504	27313.85	26422.8
936.3218	2055.5118	27238.9	26344.4
936.4586	2057.0725	27122.6	26229.15
936.5955	2058.6325	27065.9	26175.5
936.7323	2060.1917	26952.8	26061.8
936.869	2061.7502	26866.6	25973.15
937.0058	2063.3079	26766.75	25875.55
937.1425	2064.8649	26676.85	25782.1
937.2792	2066.4212	26624.95	25733.5
937.4159	2067.9767	26543.95	25652.2
937.5525	2069.5315	26405.05	25513.85
937.6891	2071.0856	26304.8	25414.45
937.8257	2072.6389	26173.5	25281.9
937.9623	2074.1915	26044	25154.6
938.0989	2075.7433	25930.4	25036.1
938.2354	2077.2945	25860.35	24969.85
938.3719	2078.8448	25801.3	24909.1
938.5084	2080.3945	25637.3	24745.8
938.6448	2081.9434	25565.85	24674.05
938.7812	2083.4916	25568	24676.05
938.9176	2085.039	25440.75	24549.35
939.054	2086.5857	25350.6	24458.85
939.1903	2088.1317	25325.25	24432.95
939.3267	2089.677	25227.8	24333.8
939.463	2091.2215	25137.45	24245.75
939.5992	2092.7652	25080.95	24189.95
939.7355	2094.3083	24950.55	24056.75
939.8717	2095.8506	24960.15	24069.9
940.0079	2097.3921	24917.8	24026.75
940.1441	2098.933	24799.2	23909.6
940.2802	2100.4731	24724.35	23832.7
940.4163	2102.0124	24658.85	23759.5
940.5524	2103.5511	24601.25	23710.3
940.6885	2105.089	24524.85	23631.9
940.8245	2106.6261	24504.1	23612.75
940.9606	2108.1626	24432.85	23539.9
941.0965	2109.6983	24384.85	23463.85
941.2325	2111.2332	24287.55	23393.4
941.3684	2112.7675	24201.45	23309.5
941.5044	2114.301	24128	23233.35
941.6403	2115.8337	24112.25	23219.75
941.7761	2117.3657	23961.55	23070.7
941.912	2118.897	23912.45	23022.2
942.0478	2120.4276	23830.6	22931.75
942.1835	2121.9575	23685.4	22792.35
942.3193	2123.4866	23707.05	22811.7
942.455	2125.0149	23611.3	22717.25
942.5907	2126.5426	23500.3	22610.15
942.7264	2128.0695	23424.35	22529.75
942.8621	2129.5956	23359.35	22467.45
942.9977	2131.1211	23281.05	22384.05
943.1333	2132.6458	23252.85	22362.65
943.2689	2134.1698	23180.9	22288.3
943.4044	2135.693	23132.95	22239.1
943.54	2137.2155	23095.2	22201.45
943.6755	2138.7373	22982.75	22091.65
943.8109	2140.2584	22893.35	22002.6
943.9464	2141.7787	22825.8	21930.75
944.0818	2143.2983	22734.55	21845.05
944.2172	2144.8171	22571.1	21680.65
944.3526	2146.3353	22518.1	21625.1
944.4879	2147.8527	22427.05	21535.35
944.6232	2149.3693	22409.55	21518
944.7585	2150.8853	22327.65	21435.05
944.8938	2152.4005	22253.1	21360.8
945.029	2153.9149	22189.25	21295.45
945.1642	2155.4287	22128.65	21236.5
945.2994	2156.9417	22052.35	21160.15
945.4346	2158.454	21987.6	21095.05
945.5697	2159.9655	21907.4	21014.7
945.7048	2161.4764	21878.2	20986.25
945.8399	2162.9865	21748.9	20857.4
945.9749	2164.4958	21730.95	20839.3
946.1099	2166.0045	21645.5	20749.65
946.2449	2167.5124	21624.75	20734
946.3799	2169.0195	21556.2	20665.7
946.5148	2170.526	21510.55	20617.85
946.6498	2172.0317	21421.2	20530.4
946.7846	2173.5367	21380.1	20487
946.9195	2175.0409	21282.8	20391.5
947.0543	2176.5445	21287.85	20397.35
947.1891	2178.0473	21199.95	20309
947.3239	2179.5494	21101.35	20206.7
947.4587	2181.0507	21020.95	20129.7
947.5934	2182.5513	20974.1	20080.6
947.7281	2184.0512	20875.9	19985
947.8628	2185.5504	20857.05	19964.5
947.9974	2187.0488	20708.5	19815.95
948.132	2188.5465	20640.55	19746.85
948.2666	2190.0435	20565.55	19673.15
948.4012	2191.5397	20507.8	19618.95
948.5357	2193.0353	20438.9	19547.95
948.6702	2194.5301	20316.3	19423.15
948.8047	2196.0241	20220.5	19327.3
948.9392	2197.5175	20186.4	19292.7
949.0736	2199.0101	20090.75	19195.8
949.208	2200.502	20004.3	19112.55
949.3424	2201.9931	19909.45	19017.05
949.4767	2203.4835	19803.15	18909.4
949.611	2204.9733	19818.65	18921.1
949.7453	2206.4622	19732.65	18840.5
949.8796	2207.9505	19660.95	18765.85
950.0138	2209.438	19525.05	18633.45
950.148	2210.9248	19462.9	18570.3
950.2822	2212.4109	19408.45	18516.8
950.4164	2213.8962	19321.3	18427.35
950.5505	2215.3809	19313.95	18421.2
950.6846	2216.8648	19254.65	18359.9
950.8186	2218.3479	19238.95	18343.4
950.9527	2219.8304	19108.1	18213.4
951.0867	2221.3121	19050.65	18157.85
951.2207	2222.7931	18966.85	18074.5
951.3546	2224.2733	18929.25	18038.15
951.4886	2225.7529	18835.45	17943.6
951.6225	2227.2317	18758.55	17863.1
951.7563	2228.7098	18732.7	17840.75
951.8902	2230.1872	18637.05	17745.25
952.024	2231.6638	18599.65	17708.1
952.1578	2233.1397	18499.2	17603.7
952.2916	2234.6149	18488.95	17594.6
952.4253	2236.0894	18413.45	17522.75
952.559	2237.5632	18378	17475.95
952.6927	2239.0362	18244.4	17352.4
952.8263	2240.5085	18205.05	17313.8
952.9599	2241.9801	18120.7	17228.2
953.0935	2243.4509	18093.55	17200.25
953.2271	2244.921	18018.7	17126.65
953.3606	2246.3904	17954	17059.05
953.4941	2247.8591	17891.15	17000.95
953.6276	2249.3271	17800.1	16909.45
953.7611	2250.7943	17766.95	16874.6
953.8945	2252.2608	17687.55	16796.3
954.0279	2253.7266	17639.25	16746.3
954.1612	2255.1917	17592	16699
954.2946	2256.656	17513.65	16620
954.4279	2258.1197	17458.75	16566.85
954.5612	2259.5826	17417.05	16523.85
954.6944	2261.0447	17406.25	16513.45
954.8276	2262.5062	17309.8	16414.6
954.9608	2263.9669	17241.25	16348.85
955.094	2265.4269	17220.05	16330.7
955.2271	2266.8862	17158.6	16267.35
955.3602	2268.3448	17105.4	16212.8
955.4933	2269.8026	17042.55	16148.7
955.6264	2271.2598	16996.3	16104.55
955.7594	2272.7162	16910.5	16018.9
955.8924	2274.1719	16889	15997.8
956.0253	2275.6268	16840.35	15949.3
956.1583	2277.0811	16793.2	15900.8
956.2912	2278.5346	16748.65	15857.4
956.4241	2279.9874	16698.45	15805.65
956.5569	2281.4395	16684.2	15794.7
956.6897	2282.8908	16593.2	15695.2
956.8225	2284.3414	16556.2	15663.45
956.9553	2285.7914	16484.4	15591.9
957.088	2287.2406	16433.75	15539.3
957.2207	2288.689	16410	15519.3
957.3534	2290.1368	16330.45	15437.7
957.486	2291.5838	16238.65	15346.25
957.6186	2293.0302	16207.9	15313.75
957.7512	2294.4758	16126.6	15233.85
957.8838	2295.9206	16081.9	15189.1
958.0163	2297.3648	16034.7	15141.4
958.1488	2298.8082	16000.35	15106.65
958.2813	2300.251	15969.5	15077.3
958.4137	2301.693	15874.05	14979.25
958.5461	2303.1343	15869.6	14978.05
958.6785	2304.5748	15842.2	14950.3
958.8108	2306.0147	15761.25	14869.85
958.9432	2307.4538	15712.35	14818.65
959.0754	2308.8922	15640.4	14750.5
959.2077	2310.3299	15584.5	14693.45
959.3399	2311.7669	15546.35	14655.55
959.4721	2313.2031	15503.95	14611.8
959.6043	2314.6387	15420.65	14526.7
959.7365	2316.0735	15352.8	14460.65
959.8686	2317.5076	15316.05	14423.7
960.0006	2318.941	15299.6	14407.6
960.1327	2320.3737	15262.1	14370.4
960.2647	2321.8056	15204.35	14312.7
960.3967	2323.2369	15114.05	14222.6
960.5287	2324.6674	15089.75	14194.65
960.6606	2326.0972	15027.5	14132.8
960.7925	2327.5263	14984.05	14091.7
960.9244	2328.9547	14933.9	14041.4
961.0562	2330.3823	14891.7	13997.8
961.1881	2331.8092	14878.95	13982.05
961.3198	2333.2355	14774.75	13881.2
961.4516	2334.661	14727.9	13834.45
961.5833	2336.0858	14719.1	13826.2
961.715	2337.5098	14645	13752.7
961.8467	2338.9332	14643.6	13750.35
961.9783	2340.3558	14567.6	13672.8
962.1099	2341.7778	14517.1	13624.15
962.2415	2343.199	14457.75	13562.85
962.373	2344.6195	14413.2	13523.65
962.5045	2346.0393	14390.6	13496.25
962.636	2347.4583	14368.1	13476.2
962.7675	2348.8767	14302.05	13407.8
962.8989	2350.2943	14244.3	13350.8
963.0303	2351.7113	14254.1	13360.2
963.1617	2353.1275	14204.1	13310.8
963.293	2354.543	14122.55	13225
963.4243	2355.9578	14061.25	13168.9
963.5556	2357.3718	13955.9	13065.3
963.6868	2358.7852	13913.85	13020.7
963.818	2360.1978	13885.65	12994.1
963.9492	2361.6098	13851.9	12959.55
964.0803	2363.021	13802.7	12909.05
964.2114	2364.4315	13740.3	12847.75
964.3425	2365.8413	13715.75	12820
964.4736	2367.2504	13662.6	12770.3
964.6046	2368.6587	13587.45	12695.05
964.7356	2370.0664	13499.25	12608.85
964.8666	2371.4733	13468.15	12577.9
964.9975	2372.8795	13442.45	12549.7
965.1284	2374.285	13384.45	12493.1
965.2593	2375.6899	13295.55	12403.2
965.3901	2377.0939	13265.2	12374.95
965.5209	2378.4973	13219.3	12327.55
965.6517	2379.9	13172.75	12278.95
965.7825	2381.3019	13098.35	12208.65
965.9132	2382.7032	13016.1	12123.95
966.0439	2384.1037	13014	12122.4
966.1745	2385.5035	12963.35	12071.35
966.3051	2386.9027	12907.35	12017.25
966.4357	2388.3011	12904	12009.65
966.5663	2389.6987	12867.6	11975.75
966.6968	2391.0957	12784.5	11893.25
966.8273	2392.492	12753.45	11862.55
966.9578	2393.8876	12669.65	11778.2
967.0882	2395.2824	12602.8	11711.45
967.2186	2396.6765	12542.3	11649.95
967.349	2398.07	12528.5	11639
967.4793	2399.4627	12474.1	11582.65
967.6097	2400.8547	12452.6	11563.35
967.7399	2402.246	12363.3	11468.1
967.8702	2403.6366	12308.95	11418.8
968.0004	2405.0265	12240.55	11350.4
968.1306	2406.4156	12211.45	11317.25
968.2607	2407.8041	12154.1	11260.15
968.3909	2409.1918	12116.25	11222.9
968.521	2410.5789	12103	11209.75
968.651	2411.9652	12017.5	11123.6
968.781	2413.3508	11965.75	11073.05
968.911	2414.7358	11925.6	11033.35
969.041	2416.12	11882.85	10992.2
969.1709	2417.5035	11867.55	10976.4
969.3008	2418.8863	11812.75	10919.8
969.4307	2420.2684	11773.35	10883.15
969.5606	2421.6497	11706.85	10815.75
969.6904	2423.0304	11653.5	10764.1
969.8201	2424.4104	11623.85	10732.7
969.9499	2425.7896	11605.7	10713.6
970.0796	2427.1682	11579	10687.1
970.2093	2428.546	11553.5	10661.2
970.3389	2429.9232	11510.3	10617.2
970.4685	2431.2996	11484.05	10593.55
970.5981	2432.6753	11433.35	10542.7
970.7277	2434.0503	11409.85	10517.9
970.8572	2435.4246	11329.7	10438.4
970.9867	2436.7982	11283.85	10390.15
971.1161	2438.1711	11272.5	10381.85
971.2456	2439.5433	11229.1	10336.6
971.375	2440.9148	11176.75	10283.15
971.5043	2442.2856	11099.3	10208.05
971.6336	2443.6557	11089.85	10197.55
971.7629	2445.025	11028.45	10137.15
971.8922	2446.3937	11015.9	10123.3
972.0214	2447.7617	10974.15	10082.55
972.1506	2449.1289	10943.35	10052.85
972.2798	2450.4955	10941.65	10045.35
972.4089	2451.8613	10898.55	10006.3
972.538	2453.2265	10857.95	9967.45
972.6671	2454.5909	10830.55	9938.4
972.7961	2455.9546	10818.2	9928.15
972.9251	2457.3177	10746	9853.9
973.0541	2458.68	10700.35	9807.8
973.1831	2460.0416	10707.4	9816.05
973.312	2461.4025	10681.95	9789.25
973.4408	2462.7627	10623.35	9719.3
973.5697	2464.1222	10582.3	9692.85
973.6985	2465.4811	10560.65	9668.25
973.8273	2466.8392	10547.5	9655.7
973.956	2468.1966	10496.45	9602.15
974.0847	2469.5533	10499.55	9605.2
974.2134	2470.9093	10447.85	9555.7
974.3421	2472.2645	10408.9	9515.95
974.4707	2473.6191	10399.2	9508.7
974.5993	2474.973	10338.3	9446.25
974.7278	2476.3262	10318.95	9428.9
974.8563	2477.6787	10283.3	9392.75
974.9848	2479.0305	10227.65	9337.2
975.1132	2480.3816	10204	9311.45
975.2417	2481.7319	10153.65	9262.7
975.37	2483.0816	10114.55	9219.7
975.4984	2484.4306	10061.05	9170.1
975.6267	2485.7789	10040.55	9148.2
975.755	2487.1264	10008.95	9115.4
975.8833	2488.4733	9937.9	9046.45
976.0115	2489.8195	9939.3	9031
976.1397	2491.165	9861.7	8965.5
976.2678	2492.5097	9847.55	8954.15
976.3959	2493.8538	9780.85	8887.65
976.524	2495.1972	9746.15	8852.6
976.6521	2496.5398	9693.75	8800.75
976.7801	2497.8818	9706.9	8813.35
976.9081	2499.2231	9675	8783.6
977.036	2500.5637	9621.15	8729.75
977.164	2501.9035	9586.2	8693.4
977.2918	2503.2427	9563.9	8668.5
977.4197	2504.5812	9523.55	8632.15
977.5475	2505.919	9517.35	8622.65
977.6753	2507.256	9478.35	8585.6
977.8031	2508.5924	9433.95	8541.35
977.9308	2509.9281	9401	8504.5
978.0585	2511.2631	9387.6	8496.85
978.1861	2512.5974	9335	8442.8
978.3137	2513.9309	9315.95	8425.15
978.4413	2515.2638	9270.2	8350.15
978.5689	2516.596	9262.5	8370
978.6964	2517.9275	9197.5	8304.6
978.8239	2519.2583	9165.5	8272.75
978.9513	2520.5884	9127.95	8235.8
979.0788	2521.9178	9091.9	8199.7
979.2062	2523.2465	9040.55	8149.35
979.3335	2524.5745	9044.45	8151.8
979.4608	2525.9018	8990.65	8099.3
979.5881	2527.2284	8978	8087.75
979.7154	2528.5543	8921.3	8031
979.8426	2529.8796	8918.55	8026.4
979.9698	2531.2041	8891.55	7998.4
980.0969	2532.5279	8874.35	7983.35
980.224	2533.851	8839.75	7948.25
980.3511	2535.1735	8828.65	7936.75
980.4781	2536.4952	8793.35	7901.55
980.6052	2537.8163	8782.45	7890.45
980.7321	2539.1366	8739.1	7848.75
980.8591	2540.4562	8716.25	7824.55
980.986	2541.7752	8714.1	7823.35
981.1129	2543.0935	8680.85	7788.6
981.2397	2544.411	8656.95	7762.35
981.3665	2545.7279	8646.85	7756
981.4933	2547.0441	8622.9	7730.2
981.62	2548.3596	8603.8	7707.9
981.7467	2549.6744	8587.1	7695.6
981.8734	2550.9885	8577.6	7680.25
982.0001	2552.3019	8529.2	7638.2
982.1267	2553.6146	8512.6	7621.4
982.2532	2554.9266	8485.6	7593.1
982.3798	2556.2379	8455.35	7561.45
982.5063	2557.5485	8424.05	7533.65
982.6327	2558.8585	8410.85	7511.25
982.7592	2560.1677	8403.5	7506.5
982.8856	2561.4762	8365.15	7474.35
983.0119	2562.7841	8338	7443.3
983.1383	2564.0913	8328.25	7437.1
983.2646	2565.3977	8300.1	7408.9
983.3908	2566.7035	8285.7	7393.65
983.517	2568.0086	8274	7380.65
983.6432	2569.313	8266.35	7373.05
983.7694	2570.6167	8255.1	7362.4
983.8955	2571.9197	8203.45	7310.4
984.0216	2573.222	8198.3	7304.05
984.1476	2574.5236	8184.25	7291.75
984.2737	2575.8246	8136	7240.1
984.3996	2577.1248	8133.6	7238.45
984.5256	2578.4244	8117.35	7224.9
984.6515	2579.7232	8124.7	7233
984.7774	2581.0214	8120.35	7203.85
984.9032	2582.3189	8069.15	7177.05
985.029	2583.6157	8055.5	7159.55
985.1548	2584.9118	8023.75	7133.15
985.2806	2586.2072	8000	7109
985.4063	2587.5019	7974.5	7080.6
985.5319	2588.7959	7952.1	7060.25
985.6576	2590.0893	7937.55	7044.7
985.7832	2591.3819	7914.45	7024.2
985.9087	2592.6739	7893.4	7002.65
986.0343	2593.9652	7874.45	6981.15
986.1597	2595.2557	7841.05	6949.7
986.2852	2596.5456	7804.35	6909.4
986.4106	2597.8348	7778.5	6887.4
986.536	2599.1234	7777.9	6886.6
986.6614	2600.4112	7738.45	6847.35
986.7867	2601.6983	7692.2	6797.75
986.912	2602.9848	7700.35	6808.6
987.0372	2604.2705	7661.85	6764.9
987.1624	2605.5556	7642	6750.4
987.2876	2606.84	7588.8	6698
987.4128	2608.1237	7573.5	6679.8
987.5379	2609.4067	7551.65	6662.3
987.6629	2610.689	7521.2	6620.85
987.788	2611.9707	7485.2	6589.95
987.913	2613.2516	7445.55	6549.7
988.0379	2614.5319	7400.05	6508.65
988.1629	2615.8115	7407.3	6516.85
988.2878	2617.0903	7367.7	6476.7
988.4126	2618.3685	7355.05	6463.55
988.5375	2619.6461	7342.55	6451.4
988.6622	2620.9229	7301.15	6411.05
988.787	2622.199	7283.3	6390.5
988.9117	2623.4745	7250.4	6358
989.0364	2624.7493	7227.5	6335.7
989.161	2626.0234	7202.6	6310.85
989.2857	2627.2968	7180.5	6286.95
989.4102	2628.5695	7136.25	6242.25
989.5348	2629.8415	7111.55	6219.8
989.6593	2631.1128	7089.85	6197.5
989.7837	2632.3835	7058.8	6167.85
989.9082	2633.6535	7029.45	6141.45
990.0326	2634.9228	7005.3	6113.85
990.1569	2636.1914	6998.1	6105.8
990.2812	2637.4593	6968.25	6070.25
990.4055	2638.7265	6928.6	6037.05
990.5298	2639.9931	6907.5	6014.65
990.654	2641.259	6903.65	6010.1
990.7782	2642.5242	6884.5	5993.85
990.9023	2643.7887	6869.05	5975.1
991.0264	2645.0525	6830.9	5939.35
991.1505	2646.3156	6824.6	5932.8
991.2745	2647.5781	6791.75	5898.15
991.3985	2648.8398	6763.9	5872.8
991.5225	2650.1009	6761.6	5861.35
991.6464	2651.3613	6726.1	5834.15
991.7703	2652.6211	6717.1	5826.75
991.8942	2653.8801	6696.2	5804.7
992.018	2655.1385	6674.2	5778.55
992.1418	2656.3961	6666.3	5773.6
992.2655	2657.6531	6660.5	5769.55
992.3892	2658.9094	6632.85	5740.8
992.5129	2660.1651	6599.25	5707.4
992.6366	2661.42	6577.75	5685.4
992.7602	2662.6743	6577.95	5686.55
992.8837	2663.9279	6549.25	5658.5
993.0073	2665.1808	6548.65	5656.55
993.1307	2666.433	6517.65	5625.05
993.2542	2667.6846	6502.7	5611
993.3776	2668.9354	6507.4	5611.25
993.501	2670.1856	6478.3	5584.45
993.6244	2671.4351	6450.25	5559.45
993.7477	2672.6839	6432.2	5538.7
993.8709	2673.9321	6417.55	5526.4
993.9942	2675.1795	6409.3	5519.15
994.1174	2676.4263	6390.2	5498.45
994.2405	2677.6724	6357.3	5465.8
994.3637	2678.9179	6340.55	5449.3
994.4868	2680.1626	6325.75	5434.5
994.6098	2681.4067	6307.3	5414
994.7328	2682.6501	6289.25	5398.7
994.8558	2683.8928	6260.65	5368.1
994.9788	2685.1348	6256.35	5364.5
995.1017	2686.3761	6226.65	5334.85
995.2245	2687.6168	6203.95	5312.85
995.3474	2688.8568	6196.15	5306.8
995.4702	2690.0961	6169.1	5278.9
995.5929	2691.3348	6141.7	5249.55
995.7156	2692.5727	6105.8	5214.6
995.8383	2693.81	6104.95	5211.5
995.961	2695.0466	6073.85	5184.7
996.0836	2696.2826	6054.95	5162.65
996.2062	2697.5178	6048.85	5153.65
996.3287	2698.7524	6032.5	5140.55
996.4512	2699.9863	6022.85	5129.95
996.5737	2701.2195	5993	5102.2
996.6961	2702.452	5981.8	5091
996.8185	2703.6839	5964.65	5071.1
996.9408	2704.9151	5929.25	5037.8
997.0631	2706.1456	5943.1	5050.3
997.1854	2707.3755	5919.9	5028
997.3077	2708.6046	5905.15	5010.15
997.4299	2709.8331	5886.05	4993.65
997.552	2711.0609	5873.4	4981.85
997.6742	2712.2881	5864.2	4974
997.7963	2713.5145	5858.85	4966
997.9183	2714.7403	5833.15	4941
998.0403	2715.9654	5819.75	4927.15
998.1623	2717.1899	5809.5	4903
998.2842	2718.4136	5798.4	4905.9
998.4062	2719.6367	5805.3	4913.55
998.528	2720.8591	5792.55	4894.65
998.6498	2722.0809	5769.55	4878.35
998.7716	2723.3019	5753.2	4859.7
998.8934	2724.5223	5749.25	4857.55
999.0151	2725.7421	5733.7	4840.6
999.1368	2726.9611	5738.6	4844.05
999.2584	2728.1795	5723.9	4827.7
999.38	2729.3972	5686.05	4793.85
999.5016	2730.6142	5656.15	4751.6
999.6231	2731.8306	5599.8	4708.1
999.7446	2733.0462	5585.8	4692.8
999.8661	2734.2612	5581.95	4686.85
999.9875	2735.4756	5505.9	4613.15
1000.1089	2736.6892	5482.35	4590.9
1000.2302	2737.9022	5457.05	4567.1
1000.3515	2739.1145	5428.35	4536.85
1000.4728	2740.3262	5400.65	4500.65
1000.594	2741.5372	5361.1	4469.25
1000.7152	2742.7475	5329.5	4437.85
1000.8363	2743.9571	5312.25	4419.45
1000.9575	2745.1661	5290.1	4393.5
1001.0785	2746.3744	5266.35	4374.8
1001.1996	2747.582	5244.5	4352.55
1001.3206	2748.7889	5224.95	4331.15
1001.4415	2749.9952	5212.65	4319.65
1001.5625	2751.2008	5199.3	4306.8
1001.6833	2752.4057	5179.05	4285.45
1001.8042	2753.61	5155.05	4262.15
1001.925	2754.8136	5123.8	4229.55
1002.0458	2756.0165	5101.95	4208.9
1002.1665	2757.2188	5109.6	4219.3
1002.2872	2758.4204	5083.6	4192.7
1002.4078	2759.6213	5086.25	4191.9
1002.5285	2760.8215	5073.1	4177.95
1002.649	2762.0211	5034.3	4141
1002.7696	2763.22	5022.95	4127.6
1002.8901	2764.4182	5000.55	4109.35
1003.0106	2765.6158	4974.8	4081.65
1003.131	2766.8127	4963.5	4071.75
1003.2514	2768.009	4952.35	4060.35
1003.3717	2769.2045	4936.35	4045.15
1003.492	2770.3994	4942.35	4047.95
1003.6123	2771.5936	4904.25	4009.8
1003.7325	2772.7872	4865.15	3973.9
1003.8527	2773.9801	4857.2	3962.75
1003.9729	2775.1723	4858.6	3950.1
1004.093	2776.3639	4816.8	3924.45
1004.2131	2777.5548	4804.35	3910.35
1004.3331	2778.745	4801.5	3909.4
1004.4531	2779.9346	4792.45	3902.4
1004.5731	2781.1235	4797	3905.2
1004.693	2782.3117	4784.7	3893.05
1004.8129	2783.4992	4764.75	3872.7
1004.9328	2784.6861	4745.6	3853.5
1005.0526	2785.8723	4742	3849.4
1005.1723	2787.0579	4713.7	3820.4
1005.2921	2788.2428	4737.35	3844.6
1005.4118	2789.427	4721.1	3829.85
1005.5314	2790.6106	4704.25	3813.95
1005.651	2791.7935	4693.7	3801.6
1005.7706	2792.9757	4700.2	3810.1
1005.8902	2794.1573	4691.45	3800
1006.0097	2795.3382	4707.7	3814.55
1006.1291	2796.5184	4681.55	3791.15
1006.2485	2797.698	4696.3	3805.3
1006.3679	2798.8769	4699.95	3809.6
1006.4873	2800.0551	4698.05	3806.2
1006.6066	2801.2327	4689.8	3795.6
1006.7258	2802.4096	4699.1	3809.45
1006.8451	2803.5859	4695.2	3802.9
1006.9642	2804.7615	4693.7	3800.55
1007.0834	2805.9364	4711.6	3821.95
1007.2025	2807.1106	4722.6	3833.2
1007.3216	2808.2842	4741.35	3850.7
1007.4406	2809.4572	4768.25	3875.75
1007.5596	2810.6294	4802	3909.45
1007.6785	2811.801	4811.6	3921.55
1007.7975	2812.972	4843.85	3954.7
1007.9163	2814.1423	4861.35	3970.35
1008.0352	2815.3119	4922.4	4033.6
1008.154	2816.4808	4976.75	4088.5
1008.2727	2817.6491	4999.75	4107.85
1008.3914	2818.8167	5034.3	4144.3
1008.5101	2819.9837	5073.25	4178.4
1008.6288	2821.15	5102.4	4210
1008.7474	2822.3157	5137	4248.6
1008.8659	2823.4807	5160.6	4268.15
1008.9844	2824.645	5201.4	4309.4
1009.1029	2825.8086	5242	4352.2
1009.2214	2826.9716	5257.55	4366.75
1009.3398	2828.134	5313.85	4425.25
1009.4581	2829.2957	5339.2	4446.25
1009.5764	2830.4567	5350.9	4460.1
1009.6947	2831.617	5337.75	4445.5
1009.813	2832.7767	5356.05	4463.05
1009.9312	2833.9358	5335.15	4443.7
1010.0493	2835.0941	5338.35	4445.8
1010.1675	2836.2519	5327.75	4436
1010.2855	2837.4089	5300.85	4409.65
1010.4036	2838.5653	5285.35	4395.55
1010.5216	2839.7211	5276.45	4386.05
1010.6396	2840.8761	5264.45	4372.3
1010.7575	2842.0306	5274.7	4385.2
1010.8754	2843.1843	5319.35	4427.3
1010.9932	2844.3374	5355.05	4463.8
1011.111	2845.4899	5400.55	4509.2
1011.2288	2846.6417	5458.95	4568.1
1011.3465	2847.7928	5526.2	4636.85
1011.4642	2848.9433	5582	4689.05
1011.5818	2850.0931	5648.95	4757.9
1011.6995	2851.2422	5736.4	4842.6
1011.817	2852.3907	5805	4912.3
1011.9345	2853.5385	5844.25	4952.45
1012.052	2854.6857	5935.55	5017.2
1012.1695	2855.8323	5940.7	5049.8
1012.2869	2856.9781	5974.35	5085.15
1012.4042	2858.1233	6035.65	5145.15
1012.5216	2859.2679	6047.35	5156.15
1012.6389	2860.4118	6094.7	5202.35
1012.7561	2861.555	6094.45	5199
1012.8733	2862.6976	6148.65	5254.55
1012.9905	2863.8395	6149.55	5259.6
1013.1076	2864.9808	6171.55	5279.75
1013.2247	2866.1214	6172.7	5283
1013.3417	2867.2614	6168	5277.45
1013.4587	2868.4007	6177.4	5285.25
1013.5757	2869.5393	6174.9	5282.9
1013.6926	2870.6773	6178.7	5284.4
1013.8095	2871.8146	6173.5	5278.5
1013.9263	2872.9513	6170.05	5276.9
1014.0431	2874.0874	6138	5245.3
1014.1599	2875.2227	6137.05	5246.5
1014.2766	2876.3574	6103.95	5214
1014.3933	2877.4915	6071.75	5180.85
1014.51	2878.6249	6005.4	5115.45
1014.6266	2879.7577	5993	5100.1
1014.7431	2880.8898	5974.8	5072.95
1014.8596	2882.0212	5937.65	5048.65
1014.9761	2883.152	5908.05	5015.5
1015.0925	2884.2821	5885.85	4997.65
1015.2089	2885.4116	5867.55	4979.5
1015.3253	2886.5405	5863.5	4972.15
1015.4416	2887.6686	5866.45	4972.85
1015.5579	2888.7962	5828.05	4939.4
1015.6741	2889.923	5850.15	4960.65
1015.7903	2891.0493	5855.1	4965.4
1015.9065	2892.1748	5863.3	4970.9
1016.0226	2893.2997	5861	4969.05
1016.1387	2894.424	5847.25	4956.1
1016.2547	2895.5476	5869.4	4980.2
1016.3707	2896.6706	5867.2	4975
1016.4866	2897.7929	5887.95	4998.1
1016.6025	2898.9145	5891.75	5003
1016.7184	2900.0355	5932.45	5038.6
1016.8342	2901.1559	5958.45	5067.15
1016.95	2902.2756	5994.3	5103.65
1017.0658	2903.3946	5992.85	5100.65
1017.1815	2904.513	6007.9	5114.7
1017.2971	2905.6308	6037.6	5147.3
1017.4127	2906.7479	6033.05	5141.4
1017.5283	2907.8643	6046.2	5155
1017.6439	2908.9801	6050.9	5159.4
1017.7594	2910.0953	6034.15	5143.75
1017.8748	2911.2098	6047.25	5153.4
1017.9902	2912.3236	6025.3	5125.05
1018.1056	2913.4368	5999.8	5103.7
1018.2209	2914.5494	5965.75	5075.05
1018.3362	2915.6613	5933.65	5038.15
1018.4515	2916.7725	5911.15	5017.85
1018.5667	2917.8831	5861.35	4971
1018.6819	2918.9931	5831.45	4940.3
1018.797	2920.1024	5783.1	4891.5
1018.9121	2921.211	5768.85	4878.5
1019.0271	2922.319	5752.95	4862.35
1019.1421	2923.4264	5709.55	4819.25
1019.2571	2924.5331	5679.15	4789.2
1019.372	2925.6391	5674.2	4783.35
1019.4869	2926.7445	5655.8	4765.6
1019.6017	2927.8493	5634.15	4742
1019.7165	2928.9534	5613.65	4721.4
1019.8313	2930.0569	5612.25	4719.4
1019.946	2931.1597	5583.7	4691.75
1020.0606	2932.2619	5562	4673.7
1020.1753	2933.3634	5567.15	4676.85
1020.2899	2934.4643	5559.95	4661.2
1020.4044	2935.5645	5508.55	4612.85
1020.5189	2936.6641	5473.15	4577.35
1020.6334	2937.763	5432.5	4541.3
1020.7478	2938.8613	5377.95	4488.1
1020.8622	2939.959	5312.1	4416.45
1020.9765	2941.056	5203.4	4312.95
1021.0908	2942.1523	5114.95	4224.15
1021.2051	2943.248	5032.3	4141.8
1021.3193	2944.3431	4923.25	4030.9
1021.4334	2945.4375	4818.4	3927.6
1021.5476	2946.5313	4710.7	3819.65
1021.6617	2947.6244	4606.1	3714.95
1021.7757	2948.7169	4493.8	3602.2
1021.8897	2949.8087	4380	3487.85
1022.0037	2950.8999	4276.3	3385.3
1022.1176	2951.9904	4200.8	3309.9
1022.2315	2953.0803	4114.75	3222.5
1022.3453	2954.1696	4032.55	3143.15
1022.4591	2955.2582	3976.25	3085.4
1022.5728	2956.3462	3929.35	3038.4
1022.6865	2957.4335	3874.4	2982.7
1022.8002	2958.5202	3826.8	2934.7
1022.9138	2959.6062	3791.65	2902.45
1023.0274	2960.6916	3759.25	2869.2
1023.141	2961.7764	3735.25	2842.1
1023.2545	2962.8605	3714.2	2823.3
1023.3679	2963.9439	3693.05	2801.05
1023.4813	2965.0267	3674.9	2781.65
1023.5947	2966.1089	3672.45	2759.55
1023.708	2967.1905	3636.55	2746.85
1023.8213	2968.2714	3626.05	2737
1023.9346	2969.3516	3611.5	2720.35
1024.0478	2970.4312	3621.45	2721.7
1024.1609	2971.5102	3597.9	2707.9
1024.274	2972.5885	3594.3	2703.45
1024.3871	2973.6662	3575.55	2680.9
1024.5002	2974.7432	3588.15	2700.15
1024.6132	2975.8196	3573.7	2682.5
1024.7261	2976.8954	3548.05	2658.4
1024.839	2977.9705	3529.85	2639.6
1024.9519	2979.045	3505	2614.8
1025.0647	2980.1188	3470.5	2581.3
1025.1775	2981.192	3442.4	2551.65
1025.2902	2982.2645	3426.25	2534.85
1025.4029	2983.3364	3384.05	2492.1
1025.5156	2984.4077	3359.95	2470.1
1025.6282	2985.4783	3333.8	2437
1025.7407	2986.5483	3307.85	2418.3
1025.8532	2987.6177	3257.8	2368.05
1025.9657	2988.6864	3209.2	2318.85
1026.0782	2989.7545	3177.75	2284.95
1026.1906	2990.8219	3143.6	2251.6
1026.3029	2991.8887	3106.6	2212.35
1026.4152	2992.9548	3059.05	2167.25
1026.5275	2994.0204	3016.15	2128.3
1026.6397	2995.0852	2985.9	2094.45
1026.7519	2996.1495	2964.25	2073.15
1026.864	2997.2131	2927.65	2035.55
1026.9761	2998.276	2905.25	2015.4
1027.0882	2999.3383	2876.9	1984.6
1027.2002	3000.4	2843.9	1953.8
1027.3122	3001.4611	2827.25	1937.1
1027.4241	3002.5215	2806.2	1915.3
1027.536	3003.5812	2787.8	1897.5
1027.6478	3004.6404	2781.9	1889.4
1027.7596	3005.6989	2765.75	1873.4
1027.8714	3006.7567	2738.1	1846.75
1027.9831	3007.8139	2759.4	1846.25
1028.0947	3008.8705	2713.2	1822.85
1028.2064	3009.9264	2728.3	1835.6
1028.3179	3010.9818	2693.35	1802.9
1028.4295	3012.0364	2688.3	1798.2
1028.541	3013.0905	2678.1	1789.4
1028.6524	3014.1439	2672.55	1782.25
1028.7638	3015.1966	2672.95	1783.35
1028.8752	3016.2487	2671	1781.15
1028.9865	3017.3002	2649.45	1753.15
1029.0978	3018.3511	2656.4	1769.1
1029.209	3019.4013	2651.6	1760.4
1029.3202	3020.4509	2649.6	1761.25
1029.4314	3021.4998	2644	1752.25
1029.5425	3022.5481	2631.8	1742.35
1029.6535	3023.5958	2629.1	1738.9
1029.7645	3024.6428	2623.9	1734.3
1029.8755	3025.6892	2615.8	1726.3
1029.9864	3026.735	2623.95	1732.8
1030.0973	3027.7802	2622.1	1730.6
1030.2082	3028.8247	2602.2	1709.75
1030.319	3029.8685	2589.85	1699.7
1030.4297	3030.9118	2609.1	1717.55
1030.5404	3031.9544	2597.6	1708.05
1030.6511	3032.9963	2591.8	1703
1030.7617	3034.0376	2601	1709.75
1030.8723	3035.0783	2586	1693.2
1030.9829	3036.1184	2595.7	1705.7
1031.0934	3037.1578	2594.75	1705.4
1031.2038	3038.1966	2584.95	1692.55
1031.3142	3039.2348	2584.35	1693.2
1031.4246	3040.2723	2584.55	1686.95
1031.5349	3041.3092	2569.65	1680.25
1031.6452	3042.3455	2553.5	1663.25
1031.7554	3043.3811	2553.45	1663.15
1031.8656	3044.4161	2543.85	1653.1
1031.9758	3045.4505	2540.15	1650.2
1032.0859	3046.4842	2528.35	1637.9
1032.1959	3047.5173	2511.35	1622.5
1032.3059	3048.5498	2500.5	1610.8
1032.4159	3049.5816	2491	1599.15
1032.5258	3050.6128	2498.05	1606.5
1032.6357	3051.6434	2470.2	1579.4
1032.7455	3052.6734	2459.7	1567.8
1032.8553	3053.7027	2461.55	1572.55
1032.9651	3054.7314	2440.5	1550.2
1033.0748	3055.7594	2427.15	1537
1033.1845	3056.7868	2428.25	1536.05
1033.2941	3057.8136	2404.9	1514.35
1033.4037	3058.8398	2398.3	1508.8
1033.5132	3059.8653	2389.7	1497.2
1033.6227	3060.8902	2375.95	1485.55
1033.7321	3061.9145	2365.4	1473.6
1033.8415	3062.9381	2365.25	1474.5
1033.9509	3063.9612	2358.6	1452.35
1034.0602	3064.9835	2337.5	1447.6
1034.1694	3066.0053	2329.05	1436.55
1034.2787	3067.0264	2316.75	1427.55
1034.3878	3068.0469	2309.9	1419.45
1034.497	3069.0668	2293.7	1402.85
1034.6061	3070.086	2287.25	1396.85
1034.7151	3071.1046	2259.75	1370.3
1034.8241	3072.1226	2255.25	1363.6
1034.9331	3073.1399	2243.75	1352.95
1035.042	3074.1567	2222.85	1332.5
1035.1508	3075.1727	2217.05	1324.5
1035.2597	3076.1882	2202.3	1309.75
1035.3684	3077.203	2196.9	1306.5
1035.4772	3078.2173	2174.7	1284.2
1035.5859	3079.2308	2160.5	1268.55
1035.6945	3080.2438	2151.7	1257.7
1035.8031	3081.2561	2144.4	1254.75
1035.9117	3082.2678	2129.15	1240.8
1036.0202	3083.2789	2120.5	1231.2
1036.1286	3084.2893	2107.45	1217.45
1036.2371	3085.2991	2093.25	1202.5
1036.3454	3086.3083	2078.85	1183.65
1036.4538	3087.3169	2079.65	1188.05
1036.562	3088.3248	2076.4	1183.4
1036.6703	3089.3321	2063.5	1171.1
1036.7785	3090.3388	2053.05	1166.7
1036.8866	3091.3449	2043.5	1153.15
1036.9948	3092.3503	2042.65	1150.45
1037.1028	3093.3551	2026.95	1138.75
1037.2108	3094.3593	2014.7	1126.8
1037.3188	3095.3629	2006.45	1118.55
1037.4267	3096.3658	2004.85	1115.55
1037.5346	3097.3681	1994.15	1104.25
1037.6425	3098.3698	1995.7	1105.35
1037.7503	3099.3708	1989.85	1092.2
1037.858	3100.3713	1976.7	1085.75
1037.9657	3101.3711	1969.4	1078.05
1038.0734	3102.3702	2084.9	1062
1038.181	3103.3688	1961.55	1067.95
1038.2886	3104.3667	1947.35	1058.6
1038.3961	3105.364	1949.2	1060.35
1038.5036	3106.3607	1929.4	1038.6
1038.611	3107.3568	1916.2	1026.05
1038.7184	3108.3522	1909.4	1018.95
1038.8257	3109.347	1917.25	1025.75
1038.933	3110.3412	1919.5	1026.2
1039.0403	3111.3348	1905.8	1015.55
1039.1475	3112.3277	1891.35	1000.95
1039.2547	3113.32	1889.1	999.5
1039.3618	3114.3117	1887.75	997.15
1039.4689	3115.3028	1889.7	999.7
1039.5759	3116.2932	1871.7	980.7
1039.6829	3117.2831	1869.3	973.9
1039.7898	3118.2723	1862.3	972.2
1039.8967	3119.2608	1845.65	956.25
1040.0035	3120.2488	1849.2	960.7
1040.1103	3121.2361	1845.95	954.1
1040.2171	3122.2229	1840	950.2
1040.3238	3123.209	1827.6	937.25
1040.4305	3124.1944	1825.55	935.55
1040.5371	3125.1793	1820.45	929.5
1040.6437	3126.1635	1827.4	938.75
1040.7502	3127.1471	1815.8	928.45
1040.8567	3128.1301	1809.85	921.55
1040.9631	3129.1125	1806.05	917.6
1041.0695	3130.0942	1810.15	919.6
1041.1759	3131.0753	1811.4	912.95
1041.2822	3132.0558	1795.2	902.2
1041.3884	3133.0357	1782.35	891.35
1041.4946	3134.015	1788.7	900.15
1041.6008	3134.9936	1773.5	882.8
1041.7069	3135.9716	1796.95	887.75
1041.813	3136.949	1773.15	882.95
1041.919	3137.9258	1770.55	873.3
1042.025	3138.902	1765	868.2
1042.1309	3139.8775	1754.35	865.2
1042.2368	3140.8524	1741.3	852.35
1042.3427	3141.8267	1750.8	859.1
1042.4485	3142.8004	1749.95	858.3
1042.5542	3143.7735	1745.6	850.3
1042.6599	3144.7459	1740.95	849.8
1042.7656	3145.7178	1737.45	848.85
1042.8712	3146.689	1733.45	843.5
1042.9768	3147.6596	1724.85	834.75
1043.0823	3148.6295	1724.25	833.6
1043.1878	3149.5989	1720.15	829.7
1043.2932	3150.5676	1707.7	819.35
1043.3986	3151.5357	1698.7	811.9
1043.5039	3152.5032	1700.6	809.4
1043.6092	3153.4701	1692.05	800.1
1043.7145	3154.4364	1692.65	799.35
1043.8197	3155.402	1688.7	799.55
1043.9248	3156.367	1687.45	796.3
1044.03	3157.3315	1718.6	786.75
1044.135	3158.2952	1678.25	787.65
1044.24	3159.2584	1671.65	781.95
1044.345	3160.221	1663.1	772.9
1044.4499	3161.1829	1655.85	764.8
1044.5548	3162.1442	1651.5	761.2
1044.6596	3163.105	1644.45	753.45
1044.7644	3164.065	1645.2	754.15
1044.8692	3165.0245	1644.55	751.9
1044.9739	3165.9834	1633.3	744.35
1045.0785	3166.9416	1633.15	742.75
1045.1831	3167.8993	1630.5	741.35
1045.2877	3168.8563	1632.3	743.3
1045.3922	3169.8127	1606.3	715.5
1045.4966	3170.7684	1612.2	721.1
1045.6011	3171.7236	1608.05	716.7
1045.7054	3172.6782	1614.3	724.25
1045.8098	3173.6321	1605.6	715.45
1045.914	3174.5854	1604.55	710.3
1046.0183	3175.5381	1592.55	702.65
1046.1224	3176.4902	1599.05	711.2
1046.2266	3177.4417	1588.15	698.8
1046.3307	3178.3926	1585.9	695.95
1046.4347	3179.3428	1583.85	698.95
1046.5387	3180.2924	1583.35	693.35
1046.6427	3181.2415	1574.05	683.6
1046.7466	3182.1899	1566.5	676.85
1046.8504	3183.1377	1562.85	673.85
1046.9542	3184.0848	1565.65	671.6
1047.058	3185.0314	1555.85	666.15
1047.1617	3185.9773	1555.15	664.85
1047.2654	3186.9227	1550.3	659.85
1047.369	3187.8674	1547.85	659.5
1047.4726	3188.8115	1549.9	657.85
1047.5761	3189.755	1545.15	655.4
1047.6796	3190.6979	1535.45	646
1047.783	3191.6402	1542.1	652.85
1047.8864	3192.5818	1539.95	650.2
1047.9898	3193.5229	1539.3	635.4
1048.0931	3194.4633	1523.9	634.15
1048.1963	3195.4031	1522.5	631.2
1048.2995	3196.3423	1519.6	630.35
1048.4027	3197.2809	1519.45	631.1
1048.5058	3198.2189	1503.85	614.95
1048.6089	3199.1563	1514.1	617.75
1048.7119	3200.0931	1507.45	618.45
1048.8148	3201.0292	1495.05	606.35
1048.9178	3201.9648	1494.25	604.6
1049.0206	3202.8997	1493.3	600.05
1049.1235	3203.834	1493.8	603
1049.2262	3204.7677	1489.4	598.4
1049.329	3205.7008	1487.5	596.8
1049.4317	3206.6333	1473.25	583.3
1049.5343	3207.5652	1481.6	590.1
1049.6369	3208.4964	1476.75	585.1
1049.7394	3209.4271	1473.4	584.1
1049.8419	3210.3571	1467.9	579.05
1049.9444	3211.2865	1468.6	577.55
1050.0468	3212.2154	1472.1	581.85
1050.1491	3213.1436	1465.95	572.7
1050.2514	3214.0712	1467.85	571.6
1050.3537	3214.9982	1463.65	572.55
1050.4559	3215.9246	1451.7	561.05
1050.5581	3216.8503	1445.5	557.45
1050.6602	3217.7755	1450.4	559.5
1050.7623	3218.7001	1443.65	553.35
1050.8643	3219.624	1445.65	554.25
1050.9663	3220.5473	1438.7	549.7
1051.0682	3221.4701	1442.1	551.05
1051.1701	3222.3922	1437.9	546.85
1051.2719	3223.3137	1435.1	542.85
1051.3737	3224.2346	1429.95	539.65
1051.4754	3225.1549	1431.9	543.75
1051.5771	3226.0746	1420.65	531.65
1051.6788	3226.9937	1422.9	530.95
1051.7804	3227.9121	1415.55	526.35
1051.8819	3228.83	1414.25	526.7
1051.9834	3229.7473	1412.65	523.5
1052.0849	3230.6639	1405.55	515.2
1052.1863	3231.5799	1403.7	515.35
1052.2876	3232.4954	1398.95	509.4
1052.3889	3233.4102	1405.55	516.05
1052.4902	3234.3244	1398.55	508.55
1052.5914	3235.238	1402.7	513.05
1052.6926	3236.151	1415.15	498.35
1052.7937	3237.0634	1386.2	497.55
1052.8948	3237.9752	1385.45	495.65
1052.9958	3238.8864	1380.45	489.95
1053.0968	3239.797	1386.75	497.3
1053.1977	3240.7069	1376.85	484.9
1053.2986	3241.6163	1373.85	479.5
1053.3994	3242.5251	1371.35	482.6
1053.5002	3243.4332	1361.75	472.75
1053.6009	3244.3408	1366.15	475.2
1053.7016	3245.2477	1358.7	468.95
1053.8022	3246.154	1358.8	467.65
1053.9028	3247.0598	1359	470.9
1054.0034	3247.9649	1353.7	465.65
1054.1039	3248.8694	1344.6	455.95
1054.2043	3249.7733	1348.05	458.1
1054.3047	3250.6766	1344.6	452.85
1054.4051	3251.5793	1347	456.2
1054.5054	3252.4814	1336.75	449.85
1054.6056	3253.3829	1337.8	449
1054.7058	3254.2838	1335.25	447
1054.806	3255.1841	1329.85	439.15
1054.9061	3256.0838	1328.45	438.6
1055.0061	3256.9829	1320.75	431.25
1055.1062	3257.8814	1320.2	428.6
1055.2061	3258.7792	1317.8	427.2
1055.306	3259.6765	1310.95	420.4
1055.4059	3260.5731	1310.35	422.3
1055.5057	3261.4692	1292.9	402.6
1055.6055	3262.3647	1297.6	405.3
1055.7052	3263.2595	1285.35	395.35
1055.8049	3264.1538	1286.7	396
1055.9045	3265.0474	1285.8	394.95
1056.0041	3265.9404	1268.6	378.7
1056.1036	3266.8329	1267.5	378.85
1056.2031	3267.7247	1270	371.05
1056.3025	3268.616	1248.7	359.7
1056.4019	3269.5066	1247.25	357.95
1056.5013	3270.3966	1230.15	339.35
1056.6005	3271.286	1225.9	337.95
