Software Version:	3.9.2.0
Unit SN:	10000200
Spectrometer SN:	6960
Date:	3/6/2024 9:58:54 AM
Data Line Index:	25
Spectral Points:	2048
Integration time (ms):	125
Averages:	20
Delay (ms):	30
Sequence Number:	1
Processing:	dark subtract
Laser Power (mW):	300
Laser Current (mA):	826
Laser Diode Temp (C):	25.1
Laser Case Temp (C):	24.6
System Temp (C):	24.4
Spectrometer Temp (C):	22
CCD Temp (C):	-0.003
Secondary Temp (C):	20.023
Heatsink Temp (C):	18.314
CCDPCB Temp (C):	31.094
SecondaryPCB Temp (C):	26.025

Wavelength	RamanShift	Raw Counts	Dark Subtracted
787.061	30.1047	649.2	240
787.2016	32.3739	658.8	252.8
787.3422	34.6426	668.45	261.25
787.4828	36.9109	682.05	271
787.6235	39.1787	710.35	297.55
787.7642	41.4461	733.5	313.3
787.9049	43.7131	755.05	331.55
788.0456	45.9796	779.05	354.5
788.1863	48.2456	798.45	370.65
788.3271	50.5112	833	402
788.4679	52.7764	852.95	417.45
788.6087	55.0411	882.55	444.65
788.7496	57.3054	914.35	469.85
788.8904	59.5692	941.4	495.85
789.0313	61.8326	975.5	527.85
789.1722	64.0955	1014.4	563.4
789.3132	66.3579	1066.5	609.45
789.4541	68.6199	1121.7	662.6
789.5951	70.8815	1218.15	754.85
789.7361	73.1426	1434.2	965.75
789.8771	75.4032	1989.8	1517
790.0181	77.6634	3388.7	2912.85
790.1592	79.9231	6840.3	6360.7
790.3003	82.1824	16237.4	15749
790.4414	84.4412	30936.4	30432.15
790.5825	86.6995	44016.35	43495.05
790.7237	88.9574	52233.55	51694.8
790.8648	91.2148	57239.6	56691.05
791.006	93.4717	58588.7	58031.4
791.1472	95.7282	59180.65	58619.9
791.2885	97.9842	59461.25	58896.25
791.4297	100.2398	59494.4	58926.15
791.571	102.4949	59416.65	58847.55
791.7123	104.7495	59486.65	58908.6
791.8536	107.0036	59306.5	58731.9
791.9949	109.2573	59605.45	59031.45
792.1363	111.5105	59364.65	58789.3
792.2777	113.7632	59509	58932.1
792.4191	116.0154	59589	59000.45
792.5605	118.2672	59805.1	59223.2
792.7019	120.5185	59824.75	59239.05
792.8434	122.7693	59809.2	59220.9
792.9849	125.0197	59541.75	58950.25
793.1264	127.2696	60083.15	59488.05
793.2679	129.519	60015.05	59417.7
793.4094	131.7679	60263	59661.65
793.551	134.0163	59674.5	59069.95
793.6926	136.2642	59932	59322.85
793.8342	138.5117	60311.8	59700.1
793.9758	140.7587	60153.3	59543.6
794.1175	143.0052	60168.2	59553.55
794.2591	145.2512	59884.3	59269.4
794.4008	147.4967	60287.75	59669.5
794.5425	149.7417	60168.4	59547.45
794.6842	151.9863	60167.7	59543.55
794.826	154.2304	59931.25	59303.4
794.9677	156.4739	60155.4	59520.35
795.1095	158.717	60367.1	59729.85
795.2513	160.9596	60209.2	59570.95
795.3931	163.2017	59910.35	59270.3
795.535	165.4433	60250	59606.85
795.6768	167.6844	60033.85	59387.75
795.8187	169.925	60243.8	59595.8
795.9606	172.1651	60094.7	59445
796.1025	174.4047	60141.25	59487.95
796.2445	176.6439	60145.45	59491.1
796.3864	178.8825	60094.7	59436.5
796.5284	181.1206	60354.35	59691.3
796.6704	183.3582	60316.6	59650.45
796.8124	185.5954	60172.75	59504.2
796.9544	187.832	60227.35	59555.85
797.0965	190.0681	60037.55	59362.3
797.2386	192.3037	60415.1	59733.3
797.3806	194.5388	60811.25	60127.95
797.5228	196.7734	59931.1	59247.8
797.6649	199.0075	60731.3	60046.3
797.807	201.2411	60416.7	59731.2
797.9492	203.4742	60895.6	60204.8
798.0914	205.7068	60767.15	60075.7
798.2336	207.9389	60742.15	60051.35
798.3758	210.1704	60730.25	60046.85
798.518	212.4015	61044.2	60366.35
798.6603	214.632	60639.85	59962.4
798.8025	216.862	61063.95	60391
798.9448	219.0915	60892.7	60220
799.0871	221.3205	60840.5	60165.7
799.2294	223.549	61166.15	60492.45
799.3718	225.777	61152.25	60477.45
799.5141	228.0044	61313.85	60635.55
799.6565	230.2314	61174.8	60494.8
799.7989	232.4578	61148.1	60464
799.9413	234.6837	61220.2	60529
800.0837	236.909	61838.55	61144
800.2262	239.1339	61009.2	60289.2
800.3687	241.3582	61353.05	60648.75
800.5111	243.582	61382.2	60648.75
800.6536	245.8053	61387.25	60665.75
800.7961	248.0281	61416.95	60699.1
800.9387	250.2503	61549.9	60827.75
801.0812	252.472	61279	60552.55
801.2238	254.6932	61489.15	60766.7
801.3664	256.9139	61355.7	60629
801.509	259.134	61903.75	61178.1
801.6516	261.3536	61293	60565.8
801.7942	263.5727	61636.6	60909.2
801.9369	265.7912	61454.25	60729.1
802.0795	268.0092	61535.45	60809
802.2222	270.2267	61580.45	60849.5
802.3649	272.4436	61350.95	60620.6
802.5076	274.6601	61643.7	60904.65
802.6504	276.8759	61729.4	60991
802.7931	279.0913	61595.45	60860.55
802.9359	281.3061	61634.8	60898.25
803.0787	283.5204	61667.7	60926.5
803.2215	285.7341	61650.6	60906.2
803.3643	287.9473	61927.6	61169.95
803.5071	290.16	61705.75	60957.15
803.6499	292.3721	61848.1	61103.85
803.7928	294.5837	61585.1	60838.8
803.9357	296.7947	61457.8	60714.55
804.0786	299.0052	61875.75	61130.6
804.2215	301.2152	61679.8	60930.05
804.3644	303.4246	61888.6	61140.8
804.5074	305.6334	61886.95	61140.35
804.6503	307.8418	61579.05	60830.25
804.7933	310.0495	61605	60852.15
804.9363	312.2568	61535.95	60785.4
805.0793	314.4635	61527.75	60773.6
805.2223	316.6696	61688.8	60930.2
805.3653	318.8752	61836.75	61071.5
805.5084	321.0802	61284.1	60526.7
805.6514	323.2847	61523.95	60762.9
805.7945	325.4887	61531.4	60770.1
805.9376	327.692	61408.1	60643.45
806.0807	329.8949	61546.1	60779.85
806.2238	332.0972	61436.85	60669.8
806.367	334.2989	61544.6	60777.45
806.5101	336.5001	61735.15	60966
806.6533	338.7007	61306.05	60535.3
806.7965	340.9008	61555.75	60785.65
806.9397	343.1003	61575.4	60801.4
807.0829	345.2992	61734.1	60960.25
807.2261	347.4976	61486.65	60709.35
807.3693	349.6955	61595.25	60813.85
807.5126	351.8927	61455.8	60676.35
807.6559	354.0895	61630.15	60838.95
807.7991	356.2856	61586.85	60803.75
807.9424	358.4812	61746.15	60965.7
808.0857	360.6763	61410.65	60625.75
808.2291	362.8707	61700.15	60914.6
808.3724	365.0646	61536.9	60747.05
808.5158	367.258	61534.4	60742.8
808.6591	369.4508	61360.15	60564.9
808.8025	371.643	61689.35	60896.7
808.9459	373.8346	61516.05	60720.45
809.0893	376.0257	61513.95	60717.05
809.2327	378.2162	61448.6	60652
809.3762	380.4062	61249.75	60453.75
809.5196	382.5956	61418.95	60619.45
809.6631	384.7844	61397.3	60605.3
809.8066	386.9726	61502.35	60713.2
809.9501	389.1603	61528.55	60741
810.0936	391.3474	61281.35	60458.75
810.2371	393.5339	61525.75	60732.65
810.3806	395.7199	61172.5	60382
810.5241	397.9052	61235	60445.9
810.6677	400.09	61294.95	60501.75
810.8113	402.2743	61475.8	60683.6
810.9548	404.4579	61270.55	60478.75
811.0984	406.641	61254.05	60459.35
811.2421	408.8235	61356.4	60560.45
811.3857	411.0054	61409.45	60610.15
811.5293	413.1868	61439.4	60636.9
811.673	415.3675	61339.35	60531.15
811.8166	417.5477	61334.95	60529.6
811.9603	419.7273	61353.05	60543.1
812.104	421.9064	61262.2	60446.25
812.2477	424.0848	61314.7	60507.1
812.3914	426.2627	61506.45	60695.7
812.5351	428.4399	61183.45	60373.35
812.6788	430.6166	60957.8	60141.85
812.8226	432.7928	61221.7	60405.1
812.9663	434.9683	61006.4	60189.5
813.1101	437.1432	60987.6	60171.7
813.2539	439.3176	61174.9	60359.95
813.3977	441.4914	60807.55	59994.6
813.5415	443.6645	60882.75	60065.85
813.6853	445.8371	60873.25	60056.6
813.8291	448.0091	60739.4	59924.15
813.973	450.1806	60656.45	59840.65
814.1168	452.3514	60672.1	59852.5
814.2607	454.5216	60506.95	59679.85
814.4046	456.6913	60649.55	59830.05
814.5485	458.8603	60703.2	59886.5
814.6924	461.0288	60478.15	59659.85
814.8363	463.1967	60683.85	59866.8
814.9802	465.3639	60677.5	59855.65
815.1241	467.5306	60216.35	59394.7
815.2681	469.6967	60469.8	59651.75
815.412	471.8622	60580.65	59763.25
815.556	474.0271	60410.9	59590
815.7	476.1914	60455.45	59630
815.844	478.3551	60482.95	59658.2
815.988	480.5182	60699.85	59878.85
816.132	482.6807	60394.6	59575.2
816.276	484.8426	60458.35	59639.2
816.4201	487.0039	60728	59908.35
816.5641	489.1647	60695	59868.95
816.7082	491.3248	60390.9	59563.7
816.8522	493.4843	60713.2	59885.5
816.9963	495.6432	60719.55	59895.35
817.1404	497.8015	60328.35	59497.95
817.2845	499.9592	60565.15	59733.7
817.4286	502.1163	60571.55	59737.55
817.5727	504.2728	60525.45	59694.75
817.7168	506.4287	60496.25	59672.45
817.861	508.5839	60270.2	59443.35
818.0051	510.7386	60436.05	59605.4
818.1493	512.8927	60494.25	59658.1
818.2935	515.0461	60431.35	59597.4
818.4377	517.199	60568.4	59732.85
818.5818	519.3512	60419.5	59583.8
818.726	521.5029	60384.5	59544.1
818.8703	523.6539	60465.2	59627.9
819.0145	525.8043	60171.7	59333.75
819.1587	527.9541	60404.5	59565.15
819.303	530.1033	60387.7	59545.95
819.4472	532.2519	60260.45	59420.35
819.5915	534.3999	60386.6	59545
819.7357	536.5472	60492.3	59652.05
819.88	538.694	60124.75	59287.45
820.0243	540.8401	60356.3	59514.4
820.1686	542.9856	60368.4	59520.95
820.3129	545.1305	60450.1	59600.1
820.4572	547.2748	60266.3	59414.85
820.6016	549.4185	60249.35	59401.05
820.7459	551.5615	60415.05	59565.25
820.8902	553.704	60357.25	59508.15
821.0346	555.8458	60169.8	59324.9
821.1789	557.987	60225.8	59379.85
821.3233	560.1276	60291.65	59445.45
821.4677	562.2675	60223.9	59376.15
821.6121	564.4069	60244.2	59395.25
821.7565	566.5456	60361.65	59515.15
821.9009	568.6837	60110.4	59263.3
822.0453	570.8212	60201.8	59357.3
822.1897	572.958	59886.9	59037.85
822.3342	575.0942	60084.55	59238.15
822.4786	577.2299	59893.45	59047
822.6231	579.3648	59873.2	59032.3
822.7675	581.4992	59740.35	58903.7
822.912	583.6329	59693.8	58856.75
823.0565	585.766	59701.7	58860.05
823.201	587.8985	59791.65	58947.7
823.3454	590.0304	59442.75	58583.9
823.4899	592.1616	59629.95	58776.7
823.6345	594.2922	59520.05	58663.25
823.779	596.4222	59413.25	58557.2
823.9235	598.5515	59414.55	58556.7
824.068	600.6802	59456.2	58599.95
824.2126	602.8083	59208.9	58359.55
824.3571	604.9358	59248.9	58395.4
824.5017	607.0626	59364.45	58510.2
824.6462	609.1888	59125.1	58267.15
824.7908	611.3144	59257.6	58398.2
824.9354	613.4393	59109.65	58249.35
825.08	615.5636	59016.55	58155.3
825.2246	617.6873	59136.5	58280.8
825.3692	619.8103	59010.35	58151.7
825.5138	621.9327	59108.75	58245.7
825.6584	624.0544	59171.55	58314.5
825.803	626.1756	59057.85	58201.15
825.9477	628.2961	59034.9	58174.35
826.0923	630.4159	58921.15	58061.3
826.237	632.5351	58911	58050.15
826.3816	634.6537	59150.55	58286.2
826.5263	636.7716	58859.65	57996.55
826.6709	638.8889	58912.45	58048.9
826.8156	641.0056	58874.8	58009.15
826.9603	643.1216	58926.75	58060.15
827.105	645.237	59001.05	58134.95
827.2497	647.3518	58801.9	57939.95
827.3944	649.4659	58878	58019
827.5391	651.5793	58816.85	57956.85
827.6838	653.6922	58819.4	57958.05
827.8285	655.8043	58661.05	57798.2
827.9733	657.9159	58915.25	58051.35
828.118	660.0268	58456.05	57587.5
828.2627	662.137	58619.3	57752.75
828.4075	664.2466	58674.65	57803.85
828.5522	666.3556	58577.3	57709.35
828.697	668.4639	58623.2	57753.15
828.8418	670.5716	58587.75	57722.85
828.9865	672.6786	58608.9	57741.95
829.1313	674.785	58438.5	57568.55
829.2761	676.8907	58405.55	57536.7
829.4209	678.9958	58417.7	57553.85
829.5657	681.1002	58495.35	57628.05
829.7105	683.204	58336.45	57457.5
829.8553	685.3072	58250.3	57379.75
830.0001	687.4097	58249.9	57378.85
830.1449	689.5115	58263.45	57391.75
830.2898	691.6127	58318.55	57449.7
830.4346	693.7132	58183.1	57314.7
830.5794	695.8131	58267.95	57372.6
830.7243	697.9123	58223.25	57350.25
830.8691	700.0109	58248	57374.1
831.014	702.1089	58051.25	57177.7
831.1588	704.2061	58079.8	57207.45
831.3037	706.3028	58100.35	57224.75
831.4486	708.3987	58122.55	57250.05
831.5935	710.4941	58049.1	57177.05
831.7383	712.5887	58110.15	57238.8
831.8832	714.6827	58059.75	57181.4
832.0281	716.7761	58068.65	57194.5
832.173	718.8688	58064.15	57188.55
832.3179	720.9608	57951.5	57073.3
832.4628	723.0522	57985.7	57102.45
832.6077	725.1429	57882.2	57007.2
832.7527	727.233	58066.15	57187.65
832.8976	729.3224	57825.45	56949.1
833.0425	731.4112	57808.95	56927.15
833.1874	733.4993	57784.25	56904.1
833.3324	735.5867	57747.65	56869.7
833.4773	737.6735	57687.5	56806.35
833.6222	739.7596	57631.5	56753.65
833.7672	741.845	57573.35	56695.05
833.9122	743.9298	57606.95	56727.15
834.0571	746.014	57516	56640.15
834.2021	748.0974	57469.8	56587.9
834.347	750.1802	57517.7	56634.55
834.492	752.2624	57308.3	56425.45
834.637	754.3439	57285.05	56400.45
834.782	756.4247	57238.55	56344.95
834.9269	758.5048	57157.65	56276
835.0719	760.5843	57180.3	56301.5
835.2169	762.6631	57173.85	56289.6
835.3619	764.7413	57144.75	56264.05
835.5069	766.8188	57145.15	56263.25
835.6519	768.8956	57098.6	56217.05
835.7969	770.9718	57129.85	56247.1
835.9419	773.0473	57025.85	56145.25
836.0869	775.1221	56950	56068.2
836.232	777.1962	56928.65	56042.75
836.377	779.2697	56779.3	55894.05
836.522	781.3426	56766.1	55861.1
836.667	783.4147	56729.3	55845.4
836.8121	785.4862	56735.6	55851.3
836.9571	787.557	56644.2	55759.45
837.1021	789.6271	56667.65	55778.3
837.2472	791.6966	56565.2	55681
837.3922	793.7654	56388.8	55501.7
837.5373	795.8335	56396.9	55513.65
837.6823	797.901	56345.7	55462.65
837.8274	799.9678	56314.7	55424.55
837.9724	802.0339	56237.7	55351.35
838.1175	804.0993	56240.5	55345.45
838.2626	806.1641	56137.15	55247.45
838.4076	808.2282	56083.45	55197.15
838.5527	810.2916	56079.65	55191.9
838.6978	812.3544	56091.1	55208.7
838.8428	814.4164	55939	55056.15
838.9879	816.4778	55942.2	55053.15
839.133	818.5385	55899.95	55012.8
839.2781	820.5986	55933.95	55044.7
839.4232	822.658	55890.55	55000.8
839.5682	824.7166	55818.65	54930.3
839.7133	826.7747	55780.25	54890.3
839.8584	828.832	55810.1	54919.15
840.0035	830.8886	55823.35	54932.75
840.1486	832.9446	55764.3	54872.2
840.2937	834.9999	55513.1	54624.6
840.4388	837.0545	55589.5	54693.15
840.5839	839.1085	55663.75	54774
840.729	841.1618	55566.1	54672.85
840.8741	843.2143	55331.9	54440.95
841.0192	845.2662	55316.95	54425.85
841.1643	847.3175	55342.6	54450.3
841.3095	849.368	55061.35	54169.9
841.4546	851.4179	55286.15	54396.45
841.5997	853.467	55025.6	54132.5
841.7448	855.5155	55104.35	54212.4
841.8899	857.5633	54911	54020.65
842.0351	859.6105	54784.55	53892.2
842.1802	861.6569	54916.5	54023.75
842.3253	863.7027	54705.9	53810.15
842.4704	865.7478	54774	53880.05
842.6156	867.7922	54685.1	53792.3
842.7607	869.8359	54757.5	53863.9
842.9058	871.8789	54488.3	53594
843.0509	873.9212	54601.3	53675.8
843.1961	875.9629	54513.2	53617.15
843.3412	878.0039	54484.3	53590.6
843.4863	880.0441	54412.45	53518.35
843.6315	882.0837	54386.8	53495.5
843.7766	884.1226	54357.85	53463.85
843.9218	886.1609	54365	53472.75
844.0669	888.1984	54290.5	53396.8
844.212	890.2352	54500.8	53607.95
844.3572	892.2714	54230.9	53335.7
844.5023	894.3069	54347.65	53451.35
844.6475	896.3416	54131.85	53235.85
844.7926	898.3757	54117.75	53221.55
844.9377	900.4091	53840.85	52943.35
845.0829	902.4418	54101.6	53204.1
845.228	904.4739	53853.5	52953.85
845.3732	906.5052	53876.85	52980.55
845.5183	908.5358	53727.95	52830.2
845.6635	910.5658	53654.35	52753.2
845.8086	912.595	53666	52765.95
845.9538	914.6236	53363.4	52468.75
846.0989	916.6515	53666.75	52769.75
846.2441	918.6786	53254.45	52354.9
846.3892	920.7051	53342.85	52444.2
846.5344	922.7309	53271.95	52372.85
846.6795	924.756	53248.5	52352.65
846.8246	926.7804	53152.45	52254.6
846.9698	928.8041	52769.7	51872.8
847.1149	930.8272	52970.25	52074.05
847.2601	932.8495	52842.75	51942.7
847.4052	934.8711	52679.1	51781.6
847.5504	936.892	52525.7	51627.85
847.6955	938.9123	52558.8	51660.05
847.8407	940.9318	52432.15	51533.4
847.9858	942.9506	52340	51441.4
848.131	944.9688	52285.6	51385.6
848.2761	946.9862	52009.3	51111.95
848.4213	949.003	52031.35	51135.55
848.5664	951.019	51777.45	50880.15
848.7115	953.0344	51752.6	50855.2
848.8567	955.0491	51660.5	50760.1
849.0018	957.063	51721.55	50822.4
849.147	959.0763	51773.05	50874.15
849.2921	961.0888	51531.5	50631.7
849.4373	963.1007	51671.55	50774.65
849.5824	965.1119	51632.05	50735.6
849.7275	967.1223	51473.55	50579.85
849.8727	969.1321	51601.4	50710.35
850.0178	971.1412	51394.8	50498.75
850.1629	973.1495	51225	50329.6
850.3081	975.1572	51270.5	50336.35
850.4532	977.1641	51198.5	50299.1
850.5983	979.1704	51087.4	50186.55
850.7435	981.1759	51050.35	50148.85
850.8886	983.1808	50945	50046.35
851.0337	985.1849	50865.55	49955.2
851.1788	987.1884	50857.6	49952.3
851.324	989.1911	50913.8	50012.1
851.4691	991.1932	50631.7	49731.55
851.6142	993.1945	50613.65	49717.05
851.7593	995.1951	50535.2	49634.5
851.9045	997.1951	50424.45	49517.15
852.0496	999.1943	50249.25	49347.45
852.1947	1001.1928	50184.2	49283.6
852.3398	1003.1906	50174.85	49276.4
852.4849	1005.1877	49964.35	49065.95
852.63	1007.1841	49827.85	48929.05
852.7751	1009.1798	49767.35	48868.15
852.9202	1011.1748	49670.5	48771.95
853.0653	1013.1691	49589	48688.15
853.2104	1015.1627	49312.85	48412.65
853.3555	1017.1556	49243.4	48342.1
853.5006	1019.1477	49235.2	48337.3
853.6457	1021.1392	49018.4	48121.75
853.7908	1023.1299	48851.6	47955.45
853.9359	1025.12	48815	47919
854.081	1027.1093	48651.4	47761.2
854.2261	1029.0979	48605.3	47718.45
854.3712	1031.0859	48537.85	47648.45
854.5163	1033.0731	48382.75	47486.3
854.6613	1035.0596	48283.95	47384.95
854.8064	1037.0454	48157.7	47258.7
854.9515	1039.0304	48059.1	47157.5
855.0965	1041.0148	47915.1	47014.75
855.2416	1042.9985	47874.5	46971.75
855.3867	1044.9814	47853.3	46953.55
855.5317	1046.9636	47702	46799.65
855.6768	1048.9452	47586.6	46685.65
855.8219	1050.926	47493.15	46594.1
855.9669	1052.9061	47452.65	46555.9
856.112	1054.8855	47403.7	46503.6
856.257	1056.8642	47313.25	46410.8
856.4021	1058.8421	47328.25	46424.15
856.5471	1060.8194	47233	46332.95
856.6921	1062.7959	47131.55	46234.05
856.8372	1064.7717	47138.25	46236.95
856.9822	1066.7469	47119.6	46216.05
857.1272	1068.7213	47076.55	46173.95
857.2723	1070.695	46988.4	46088.9
857.4173	1072.6679	46817.8	45914.15
857.5623	1074.6402	46791.6	45892.5
857.7073	1076.6117	46736.95	45828.75
857.8523	1078.5826	46722.6	45819.3
857.9973	1080.5527	46629.8	45723.35
858.1423	1082.5221	46522.6	45621.05
858.2873	1084.4908	46515.75	45611.5
858.4323	1086.4587	46402.1	45498.75
858.5773	1088.426	46393.35	45488.75
858.7223	1090.3925	46249.35	45345.8
858.8673	1092.3584	46243.5	45343.15
859.0123	1094.3235	46099.9	45198.5
859.1573	1096.2879	46036.85	45134.55
859.3022	1098.2515	46043.35	45142.3
859.4472	1100.2145	46005.75	45105.4
859.5922	1102.1767	45902.05	44997.1
859.7371	1104.1382	45886.1	44982.85
859.8821	1106.099	45829.65	44925.8
860.027	1108.0591	45811.9	44910.95
860.172	1110.0185	45618.8	44715.1
860.3169	1111.9771	45705.55	44804.95
860.4619	1113.9351	45543.15	44641.1
860.6068	1115.8923	45401.6	44501.75
860.7517	1117.8488	45277.7	44370.7
860.8967	1119.8045	45133.75	44231.2
861.0416	1121.7596	45182.1	44282.45
861.1865	1123.7139	45027.05	44125.55
861.3314	1125.6675	44937.9	44038.2
861.4763	1127.6204	44947.05	44046.45
861.6212	1129.5726	44742.9	43840.6
861.7661	1131.524	44811.4	43909.5
861.911	1133.4748	44736.1	43834.65
862.0559	1135.4248	44544.55	43643.1
862.2008	1137.3741	44519.4	43617.75
862.3457	1139.3226	44439.5	43536.05
862.4905	1141.2705	44396.45	43494.45
862.6354	1143.2176	44294.75	43386.55
862.7803	1145.164	44080.1	43175.25
862.9251	1147.1097	44148.3	43245.8
863.07	1149.0546	44080.45	43178.7
863.2148	1150.9989	44063.45	43160.65
863.3597	1152.9424	43948.5	43041.85
863.5045	1154.8852	44008.95	43106.55
863.6493	1156.8272	43850.1	42949.65
863.7942	1158.7686	43940.95	43031.35
863.939	1160.7092	43672	42766.75
864.0838	1162.6491	43619.8	42715.75
864.2286	1164.5883	43661.4	42759.4
864.3734	1166.5267	43505.85	42603
864.5182	1168.4644	43568.45	42668.5
864.663	1170.4014	43500.25	42594.6
864.8078	1172.3377	43580.7	42681.5
864.9526	1174.2732	43623.6	42723.7
865.0974	1176.2081	43575.4	42673.9
865.2421	1178.1421	43541.55	42637.6
865.3869	1180.0755	43626.3	42726.9
865.5317	1182.0082	43521.5	42619.6
865.6764	1183.9401	43484.5	42582.05
865.8212	1185.8713	43312.35	42414.45
865.9659	1187.8017	43233.9	42336.45
866.1106	1189.7315	43204.35	42310.85
866.2554	1191.6605	43008.85	42115
866.4001	1193.5888	42847.5	41952.6
866.5448	1195.5163	42661.2	41764.4
866.6895	1197.4432	42615.75	41714.35
866.8342	1199.3693	42570.95	41670.2
866.9789	1201.2947	42367.15	41460.55
867.1236	1203.2193	42375.15	41475.75
867.2683	1205.1432	42226.1	41325.4
867.413	1207.0664	42149	41245.25
867.5576	1208.9889	42067.95	41162.35
867.7023	1210.9106	41975.7	41075.7
867.847	1212.8316	41841.35	40941.1
867.9916	1214.7519	41862.5	40951.4
868.1363	1216.6715	41690.15	40790.15
868.2809	1218.5903	41653.5	40751.75
868.4255	1220.5084	41601.4	40699.5
868.5701	1222.4257	41592.5	40691.05
868.7148	1224.3424	41498.35	40598.45
868.8594	1226.2583	41416.75	40508.1
869.004	1228.1735	41400.8	40501.8
869.1486	1230.0879	41232.85	40331.6
869.2932	1232.0016	41254.65	40355.4
869.4377	1233.9146	41185.5	40283.2
869.5823	1235.8269	41096	40194.75
869.7269	1237.7384	41049.8	40148.05
869.8715	1239.6492	40905.3	40002.95
870.016	1241.5592	40889.1	39986.9
870.1606	1243.4686	40779.45	39877.5
870.3051	1245.3772	40761	39857.95
870.4496	1247.285	40747.85	39844.95
870.5941	1249.1922	40613.3	39711.95
870.7387	1251.0986	40653.1	39754.2
870.8832	1253.0042	40491	39589.9
871.0277	1254.9092	40519.6	39619.55
871.1722	1256.8134	40347.35	39449.25
871.3167	1258.7169	40487.3	39585.6
871.4611	1260.6196	40359.05	39457.8
871.6056	1262.5216	40377.3	39473.95
871.7501	1264.4229	40335.05	39436.35
871.8945	1266.3234	40416.75	39516.5
872.039	1268.2232	40311.15	39407.9
872.1834	1270.1223	40258.4	39355.95
872.3278	1272.0207	40236.25	39336.05
872.4723	1273.9183	40147.75	39240.55
872.6167	1275.8151	40109	39208.35
872.7611	1277.7113	40051.45	39149
872.9055	1279.6067	39928.7	39029.05
873.0499	1281.5014	39899.75	38994.4
873.1943	1283.3953	39909.7	39005.3
873.3386	1285.2885	39963.25	39063.45
873.483	1287.181	39978.6	39079.15
873.6274	1289.0727	40080.45	39181.85
873.7717	1290.9637	39960.95	39060.75
873.9161	1292.854	40094.5	39194.6
874.0604	1294.7435	39984.3	39081.8
874.2047	1296.6323	39975.75	39075.25
874.349	1298.5204	39872.05	38968.8
874.4933	1300.4077	39844.45	38941.1
874.6376	1302.2943	39735.2	38833.3
874.7819	1304.1802	39698.25	38799
874.9262	1306.0653	39541.4	38638.65
875.0705	1307.9497	39423.9	38525.1
875.2147	1309.8333	39330.9	38431.45
875.359	1311.7162	39285.25	38384.95
875.5032	1313.5984	39217.05	38312.65
875.6475	1315.4798	39090.55	38183.75
875.7917	1317.3605	39051.25	38132
875.9359	1319.2405	39032.35	38129
876.0801	1321.1197	38936.15	38030.95
876.2243	1322.9982	38839.6	37934.25
876.3685	1324.876	38788.55	37886.4
876.5127	1326.753	38646.9	37746.05
876.6569	1328.6293	38650	37747
876.801	1330.5048	38580.4	37675.75
876.9452	1332.3796	38537.65	37636.45
877.0893	1334.2537	38485.6	37557.35
877.2335	1336.127	38367.8	37466.7
877.3776	1337.9996	38353.45	37455.4
877.5217	1339.8714	38304.35	37400.9
877.6658	1341.7426	38226.35	37281.6
877.8099	1343.6129	38230.6	37327.9
877.954	1345.4826	38156.15	37254.4
878.0981	1347.3515	38130.85	37227.4
878.2422	1349.2196	38063.55	37161.25
878.3862	1351.087	38083.8	37181.45
878.5303	1352.9537	38071.55	37170.3
878.6743	1354.8197	38031.2	37129.6
878.8184	1356.6849	38073.85	37170.4
878.9624	1358.5493	37977.8	37075.05
879.1064	1360.4131	37951.55	37049.25
879.2504	1362.276	37928.2	37027.7
879.3944	1364.1383	37850.75	36950.4
879.5384	1365.9998	37727.2	36822.5
879.6823	1367.8606	37652.3	36751.2
879.8263	1369.7206	37553.75	36651.1
879.9702	1371.5799	37423	36518.2
880.1142	1373.4384	37302	36399.85
880.2581	1375.2962	37277.85	36374.6
880.402	1377.1533	37079	36177.55
880.5459	1379.0096	36920.8	36019.25
880.6898	1380.8652	36808.1	35909.95
880.8337	1382.7201	36729.75	35829.95
880.9776	1384.5742	36571.95	35668.6
881.1215	1386.4275	36459.3	35557
881.2653	1388.2802	36320.2	35418.75
881.4092	1390.132	36255.95	35356.55
881.553	1391.9832	36207	35305.45
881.6968	1393.8336	36081.25	35180.2
881.8406	1395.6832	35998.9	35096.75
881.9844	1397.5322	35925.75	35023.5
882.1282	1399.3803	35833.05	34927.6
882.272	1401.2278	35744.75	34842.15
882.4158	1403.0745	35672.25	34773.4
882.5595	1404.9204	35586.95	34686
882.7033	1406.7656	35541.8	34641.05
882.847	1408.6101	35435.45	34535.05
882.9908	1410.4538	35430.35	34528.85
883.1345	1412.2968	35364.55	34462.8
883.2782	1414.139	35266.75	34366.55
883.4219	1415.9805	35235.5	34336.05
883.5656	1417.8213	35124.15	34218.45
883.7092	1419.6613	35083.9	34181.55
883.8529	1421.5006	35078.85	34177.6
883.9965	1423.3391	35068.35	34166.9
884.1402	1425.1769	35017.7	34116.95
884.2838	1427.0139	35052.2	34151.75
884.4274	1428.8502	35123.85	34222.9
884.571	1430.6858	35184.3	34282.7
884.7146	1432.5206	35123.4	34221.25
884.8582	1434.3547	35136.15	34234.75
885.0018	1436.188	35109.7	34210.6
885.1453	1438.0206	35067.65	34166.65
885.2889	1439.8524	34965.6	34065.65
885.4324	1441.6835	34947.5	34046.25
885.5759	1443.5139	34869.25	33966.4
885.7194	1445.3435	34748.15	33848.3
885.8629	1447.1724	34759.85	33862.25
886.0064	1449.0005	34711	33812.4
886.1499	1450.8279	34674.5	33774.85
886.2933	1452.6545	34626.85	33726.55
886.4368	1454.4804	34655.7	33758.65
886.5802	1456.3056	34567.65	33660.55
886.7237	1458.13	34518.2	33618.3
886.8671	1459.9536	34500.05	33601.35
887.0105	1461.7766	34423.8	33524.2
887.1539	1463.5987	34305.4	33402.75
887.2972	1465.4202	34194.2	33292.65
887.4406	1467.2409	34035.15	33133.2
887.584	1469.0608	34030	33129.8
887.7273	1470.88	33919.4	33019.6
887.8706	1472.6984	33869.65	32971.45
888.0139	1474.5161	33750.35	32847.9
888.1572	1476.3331	33703.7	32802
888.3005	1478.1493	33659.75	32758.65
888.4438	1479.9648	33613.8	32713.5
888.5871	1481.7795	33561.2	32660.7
888.7303	1483.5935	33550	32649.6
888.8736	1485.4067	33439.7	32538
889.0168	1487.2192	33450.35	32550.5
889.16	1489.031	33439.9	32537.3
889.3032	1490.842	33365.55	32467.05
889.4464	1492.6522	33357.45	32457.55
889.5896	1494.4618	33271.15	32370.05
889.7327	1496.2705	33255.65	32356.45
889.8759	1498.0785	33161.1	32262.25
890.019	1499.8858	33147.65	32248.5
890.1622	1501.6924	33105.55	32205.7
890.3053	1503.4981	33062.65	32162.6
890.4484	1505.3032	33005.2	32106.5
890.5914	1507.1075	32956.8	32056.6
890.7345	1508.911	32923.75	32022.9
890.8776	1510.7138	32857.65	31959.1
891.0206	1512.5159	32795.05	31895.15
891.1637	1514.3172	32742.9	31843.4
891.3067	1516.1178	32660.9	31765.35
891.4497	1517.9176	32655.05	31756.15
891.5927	1519.7166	32568.6	31673.25
891.7357	1521.515	32550.45	31645.05
891.8786	1523.3126	32442.25	31543.25
892.0216	1525.1094	32415.2	31515.9
892.1645	1526.9055	32372.85	31478.85
892.3074	1528.7008	32273.1	31373.35
892.4503	1530.4954	32171.4	31272.9
892.5932	1532.2893	32138.55	31243.65
892.7361	1534.0824	32045.3	31145
892.879	1535.8747	32066	31169.8
893.0218	1537.6663	31970.25	31073.8
893.1647	1539.4572	31918.2	31018.8
893.3075	1541.2473	31895.35	30998.65
893.4503	1543.0367	31806.35	30910.7
893.5931	1544.8253	31742.3	30841.85
893.7359	1546.6132	31740.55	30841.25
893.8787	1548.4003	31662	30755.6
894.0214	1550.1867	31644.4	30737.9
894.1642	1551.9723	31530.55	30631.25
894.3069	1553.7572	31539.05	30643.2
894.4496	1555.5414	31530.45	30636.5
894.5923	1557.3247	31466.85	30574
894.735	1559.1074	31462.1	30568.85
894.8777	1560.8893	31438	30544.4
895.0204	1562.6705	31421.4	30527.45
895.163	1564.4509	31382.05	30488.85
895.3056	1566.2305	31318.95	30423.45
895.4482	1568.0094	31340.8	30447.55
895.5908	1569.7876	31311.05	30418.5
895.7334	1571.565	31246.6	30353.25
895.876	1573.3417	31261.25	30367.5
896.0186	1575.1176	31212.55	30319.05
896.1611	1576.8928	31127.2	30233.25
896.3036	1578.6672	31075.7	30183.95
896.4461	1580.4409	31023.3	30136.6
896.5886	1582.2138	30969.5	30076.6
896.7311	1583.986	30920	30029.1
896.8736	1585.7575	30938.05	30047.9
897.0161	1587.5282	30890.15	30001.5
897.1585	1589.2981	30863.45	29974.15
897.3009	1591.0673	30805.3	29916.25
897.4433	1592.8358	30776.95	29890.4
897.5857	1594.6035	30763.8	29872.75
897.7281	1596.3704	30700.55	29807.9
897.8705	1598.1366	30670.8	29781.85
898.0128	1599.9021	30621.6	29732.7
898.1551	1601.6668	30520.7	29628.3
898.2975	1603.4308	30533	29639.2
898.4398	1605.194	30534.35	29641.05
898.5821	1606.9564	30513.95	29623.75
898.7243	1608.7182	30503.1	29612.25
898.8666	1610.4791	30515.35	29630.9
899.0088	1612.2394	30515.9	29633.05
899.1511	1613.9988	30534	29648.3
899.2933	1615.7576	30528.8	29641.8
899.4355	1617.5156	30584.7	29689.5
899.5776	1619.2728	30570.95	29679.65
899.7198	1621.0293	30500.15	29610.05
899.862	1622.785	30443.9	29553.3
900.0041	1624.54	30305.25	29414.2
900.1462	1626.2942	30212.05	29321.55
900.2883	1628.0477	30010.8	29118.9
900.4304	1629.8005	29906.4	29013.05
900.5725	1631.5525	29878.5	28990.35
900.7145	1633.3037	29772	28884.25
900.8566	1635.0542	29658.55	28770.7
900.9986	1636.804	29678.65	28789.85
901.1406	1638.553	29551	28616.05
901.2826	1640.3013	29515.35	28626.2
901.4245	1642.0488	29396.8	28507.2
901.5665	1643.7955	29382.25	28496.65
901.7085	1645.5416	29289.6	28403.05
901.8504	1647.2868	29261.95	28375.35
901.9923	1649.0313	29300.7	28413.85
902.1342	1650.7751	29252.7	28360.55
902.2761	1652.5181	29185.2	28296.65
902.4179	1654.2604	29144.6	28257.15
902.5598	1656.0019	29162.6	28275.4
902.7016	1657.7427	29170.95	28284.3
902.8434	1659.4828	29261.45	28375.55
902.9852	1661.222	29133.3	28245.25
903.127	1662.9606	29191.95	28304.8
903.2687	1664.6984	28962.95	28073.7
903.4105	1666.4354	28982.6	28093.65
903.5522	1668.1717	28663.3	27773.2
903.6939	1669.9072	28392.2	27502.7
903.8356	1671.642	28300.5	27408.4
903.9773	1673.3761	28184.75	27297.3
904.119	1675.1094	28064.8	27177.3
904.2606	1676.8419	27824.9	26936.85
904.4022	1678.5737	27757.5	26868.35
904.5439	1680.3048	27626.8	26739.25
904.6855	1682.0351	27498.65	26609.3
904.827	1683.7646	27327.05	26436.75
904.9686	1685.4934	27341.95	26454.1
905.1101	1687.2215	27051.35	26161.15
905.2517	1688.9488	27129.3	26244.2
905.3932	1690.6754	26731.3	25843.2
905.5347	1692.4012	26901.4	26013.7
905.6761	1694.1263	26847	25957.5
905.8176	1695.8506	26682.75	25792.8
905.9591	1697.5742	26645.85	25760.2
906.1005	1699.297	26542.75	25656.8
906.2419	1701.0191	26501.2	25615
906.3833	1702.7404	26219.45	25333.95
906.5246	1704.461	26090.1	25201.1
906.666	1706.1808	26148.4	25262.2
906.8073	1707.8999	26029.55	25142.05
906.9487	1709.6182	25916.95	25032.3
907.09	1711.3358	25878.95	24995.05
907.2313	1713.0527	25810.85	24928.3
907.3725	1714.7688	25755.7	24862.45
907.5138	1716.4841	25505.8	24616.3
907.655	1718.1987	25549.55	24657.3
907.7962	1719.9126	25437.85	24555.75
907.9374	1721.6257	25407.55	24519.3
908.0786	1723.338	25429.6	24542.7
908.2198	1725.0496	25114.7	24227.2
908.3609	1726.7605	25140.05	24254.15
908.502	1728.4706	25027.65	24139.85
908.6431	1730.18	24975.45	24088.45
908.7842	1731.8886	24872.4	23988.2
908.9253	1733.5964	24771.95	23878.9
909.0664	1735.3036	24883.4	23996.25
909.2074	1737.0099	24789.35	23905.2
909.3484	1738.7156	24680.5	23795.8
909.4894	1740.4204	24557.95	23671.45
909.6304	1742.1246	24598.85	23712.8
909.7714	1743.8279	24553.1	23667.05
909.9123	1745.5306	24542	23654.85
910.0532	1747.2325	24323	23438
910.1941	1748.9336	24283.8	23397.5
910.335	1750.634	24197.05	23309.9
910.4759	1752.3336	24242.2	23357.45
910.6168	1754.0325	24084.65	23200.5
910.7576	1755.7307	24142.3	23256
910.8984	1757.4281	23998.6	23112.3
911.0392	1759.1247	24032	23135.7
911.18	1760.8206	23876	22983.4
911.3208	1762.5158	23923.9	23033.35
911.4615	1764.2102	23870.3	22985.5
911.6022	1765.9039	23730.55	22843.9
911.7429	1767.5968	23697.75	22814.95
911.8836	1769.289	23615.4	22730.15
912.0243	1770.9804	23596.7	22711.6
912.1649	1772.6711	23526.05	22639.4
912.3056	1774.361	23500.05	22615.25
912.4462	1776.0502	23445.1	22559.35
912.5868	1777.7386	23367.65	22478.5
912.7274	1779.4263	23333.4	22447.1
912.8679	1781.1132	23281.05	22395.75
913.0084	1782.7994	23164.7	22280
913.149	1784.4849	23187.5	22303.5
913.2895	1786.1696	23052.55	22149.25
913.4299	1787.8535	23010.85	22128.6
913.5704	1789.5367	23011.95	22127.95
913.7108	1791.2192	22947.25	22062.3
913.8513	1792.9009	22867.25	21952.15
913.9917	1794.5818	22863.5	21977.95
914.132	1796.2621	22749.3	21864.35
914.2724	1797.9415	22714.95	21830.4
914.4128	1799.6202	22615.2	21731.25
914.5531	1801.2982	22612.55	21726.7
914.6934	1802.9755	22554.25	21666.7
914.8337	1804.6519	22531.2	21645.3
914.9739	1806.3277	22483.1	21598.95
915.1142	1808.0027	22298.3	21416.25
915.2544	1809.6769	22341.05	21455.85
915.3946	1811.3504	22326	21439.8
915.5348	1813.0231	22198.85	21315.7
915.675	1814.6951	22225.05	21340.25
915.8151	1816.3664	22193.85	21306.3
915.9553	1818.0369	22113.8	21229.15
916.0954	1819.7067	22057.55	21173.6
916.2355	1821.3757	22071.15	21183.6
916.3755	1823.044	21943.45	21059.5
916.5156	1824.7115	21911.7	21022.35
916.6556	1826.3783	21848.55	20967.15
916.7956	1828.0443	21772.8	20888.9
916.9356	1829.7096	21718.3	20833.85
917.0756	1831.3741	21693.25	20806.1
917.2155	1833.0379	21646.95	20762
917.3555	1834.701	21563.85	20679.05
917.4954	1836.3633	21534.15	20648.6
917.6353	1838.0248	21507.7	20621.55
917.7751	1839.6856	21439.95	20556.05
917.915	1841.3457	21413.45	20530.15
918.0548	1843.005	21381.7	20495.9
918.1946	1844.6636	21346.7	20462.55
918.3344	1846.3214	21289.75	20404.7
918.4742	1847.9785	21251.5	20367.2
918.6139	1849.6349	21217.95	20332.25
918.7537	1851.2904	21169.6	20273.6
918.8934	1852.9453	21112.75	20226.6
919.0331	1854.5994	21009.9	20122.85
919.1727	1856.2528	21062.55	20171.3
919.3124	1857.9054	20948.2	20062.1
919.452	1859.5572	20945.25	20062.25
919.5916	1861.2083	20891.95	20004.55
919.7312	1862.8587	20914.55	20029.25
919.8708	1864.5084	20823.75	19937.25
920.0103	1866.1572	20780.95	19896.25
920.1498	1867.8054	20699.4	19813
920.2893	1869.4528	20687.3	19800.5
920.4288	1871.0994	20594.85	19707.8
920.5683	1872.7453	20605.55	19719.75
920.7077	1874.3905	20542.55	19651.15
920.8471	1876.0349	20473.5	19588.2
920.9865	1877.6786	20504.05	19619.45
921.1259	1879.3215	20438.4	19553.35
921.2653	1880.9637	20411.8	19526.9
921.4046	1882.6051	20343.85	19458.65
921.5439	1884.2458	20308	19422.85
921.6832	1885.8858	20225.3	19339.85
921.8225	1887.525	20213.75	19327.25
921.9617	1889.1634	20079.4	19192.5
922.101	1890.8011	20066.3	19182
922.2402	1892.4381	20002.6	19116.55
922.3794	1894.0743	19998.2	19113.95
922.5185	1895.7098	19920.25	19036
922.6577	1897.3446	19906.9	19020.85
922.7968	1898.9786	19873.25	18984.55
922.9359	1900.6118	19822.6	18939.3
923.075	1902.2443	19675.75	18785.85
923.214	1903.8761	19662.9	18778.9
923.3531	1905.5071	19523.25	18637.3
923.4921	1907.1374	19492.55	18608.25
923.6311	1908.7669	19476.25	18592.6
923.77	1910.3957	19436.8	18552.7
923.909	1912.0237	19363.95	18481.8
924.0479	1913.651	19275.15	18389.05
924.1868	1915.2776	19267.55	18384.9
924.3257	1916.9034	19182	18300.05
924.4646	1918.5285	19112.85	18228.5
924.6034	1920.1528	19019.35	18137.1
924.7422	1921.7764	19013.4	18131.1
924.881	1923.3992	18906.75	18023.8
925.0198	1925.0213	18784.55	17897.85
925.1586	1926.6427	18764.25	17881.55
925.2973	1928.2633	18910.35	17777.85
925.436	1929.8832	18729.85	17840.5
925.5747	1931.5023	18589.85	17705.15
925.7134	1933.1207	18540.9	17656.55
925.852	1934.7383	18508.45	17624.2
925.9906	1936.3552	18456.55	17572
926.1292	1937.9714	18390.5	17506.8
926.2678	1939.5868	18351.75	17465.3
926.4064	1941.2015	18246.7	17361.1
926.5449	1942.8154	18185.85	17301.5
926.6834	1944.4286	18119.8	17234.4
926.8219	1946.041	18060.75	17151.8
926.9604	1947.6528	17983.65	17094.3
927.0988	1949.2637	17932.1	17047.9
927.2372	1950.8739	17860.3	16975.9
927.3756	1952.4834	17838.05	16952.25
927.514	1954.0921	17836.1	16952.75
927.6523	1955.7001	17749.8	16862.1
927.7907	1957.3074	17687.55	16804
927.929	1958.9139	17605.75	16723.55
928.0673	1960.5197	17598.1	16714.35
928.2055	1962.1247	17486.2	16602.3
928.3438	1963.729	17446.1	16564.45
928.482	1965.3325	17383.9	16477.1
928.6202	1966.9353	17309.6	16426.25
928.7584	1968.5374	17299.25	16415.05
928.8965	1970.1387	17212.65	16329.15
929.0346	1971.7393	17191.95	16307.5
929.1727	1973.3392	17098.6	16214.75
929.3108	1974.9383	17065.1	16182.2
929.4489	1976.5366	16959.15	16077.85
929.5869	1978.1342	16945.9	16062.25
929.7249	1979.7311	16890.5	16005.05
929.8629	1981.3273	16868.55	15986.05
930.0009	1982.9227	16800.3	15916.65
930.1388	1984.5173	16754.7	15872.45
930.2767	1986.1112	16713.05	15831.3
930.4146	1987.7044	16649.75	15770.35
930.5525	1989.2968	16609.5	15724.4
930.6904	1990.8885	16612.45	15726.1
930.8282	1992.4795	16562.4	15680
930.966	1994.0697	16472.95	15592.2
931.1038	1995.6592	16393.7	15510.15
931.2415	1997.2479	16373.6	15489.9
931.3793	1998.8359	16309.15	15428.05
931.517	2000.4232	16241.1	15359.55
931.6547	2002.0097	16225	15346.3
931.7923	2003.5955	16135.75	15253.55
931.93	2005.1805	16135.65	15253.1
932.0676	2006.7648	16071.85	15191.9
932.2052	2008.3484	16059.55	15177.9
932.3427	2009.9312	16086.15	15205.15
932.4803	2011.5133	15967.8	15090.4
932.6178	2013.0946	15936.9	15055.8
932.7553	2014.6752	15867.55	14988.05
932.8928	2016.2551	15850.8	14969.9
933.0302	2017.8342	15758.45	14875.25
933.1676	2019.4126	15712.5	14834.65
933.305	2020.9902	15659	14779.5
933.4424	2022.5672	15641.95	14759.1
933.5798	2024.1433	15609.2	14722.55
933.7171	2025.7188	15542	14663.65
933.8544	2027.2935	15486	14605.5
933.9917	2028.8674	15428.9	14548.25
934.129	2030.4406	15414.7	14536.85
934.2662	2032.0131	15316.7	14438.1
934.4034	2033.5849	15268.9	14383.7
934.5406	2035.1559	15264.95	14386.85
934.6778	2036.7261	15243.5	14364
934.8149	2038.2957	15199.55	14319.15
934.952	2039.8645	15168.35	14284.55
935.0891	2041.4325	15173.55	14289.8
935.2262	2042.9998	15094.3	14215.65
935.3632	2044.5664	15042.8	14158.8
935.5002	2046.1323	15019.3	14141.05
935.6372	2047.6974	14981.7	14101
935.7742	2049.2617	14950.6	14072.6
935.9111	2050.8254	14919.05	14035.05
936.048	2052.3883	14881.3	13999.45
936.1849	2053.9504	14841.1	13960.5
936.3218	2055.5118	14768.55	13886.6
936.4586	2057.0725	14711.8	13827.15
936.5955	2058.6325	14685.35	13806.4
936.7323	2060.1917	14642.55	13761.75
936.869	2061.7502	14623.15	13739.9
937.0058	2063.3079	14561	13681.15
937.1425	2064.8649	14525.4	13643.65
937.2792	2066.4212	14484.95	13603.9
937.4159	2067.9767	14434.9	13554.6
937.5525	2069.5315	14395.75	13517.1
937.6891	2071.0856	14335.3	13453.3
937.8257	2072.6389	14264.65	13384.7
937.9623	2074.1915	14215.15	13336.8
938.0989	2075.7433	14168.45	13286.75
938.2354	2077.2945	14144.15	13264.6
938.3719	2078.8448	14082.7	13201.4
938.5084	2080.3945	14053.5	13172.05
938.6448	2081.9434	14034	13151.75
938.7812	2083.4916	13987.1	13106.3
938.9176	2085.039	13926.75	13044.6
939.054	2086.5857	13917.6	13032.1
939.1903	2088.1317	13890.5	13008.65
939.3267	2089.677	13856.2	12970.75
939.463	2091.2215	13821.9	12937.25
939.5992	2092.7652	13757.35	12873.9
939.7355	2094.3083	13720.55	12837.5
939.8717	2095.8506	13707.3	12824.95
940.0079	2097.3921	13705.35	12821.9
940.1441	2098.933	13643.8	12761.35
940.2802	2100.4731	13644.5	12762.2
940.4163	2102.0124	13649.25	12751.75
940.5524	2103.5511	13604.8	12722.9
940.6885	2105.089	13561.95	12679.35
940.8245	2106.6261	13509.15	12625.45
940.9606	2108.1626	13460.8	12576.7
941.0965	2109.6983	13465.8	12557.4
941.2325	2111.2332	13402.65	12519
941.3684	2112.7675	13360.6	12478.9
941.5044	2114.301	13354.5	12469.45
941.6403	2115.8337	13337.9	12456.25
941.7761	2117.3657	13273.25	12391.05
941.912	2118.897	13239.1	12354.35
942.0478	2120.4276	13239.85	12351.45
942.1835	2121.9575	13132	12249.2
942.3193	2123.4866	13159.5	12261.5
942.455	2125.0149	13102.95	12217.95
942.5907	2126.5426	13029.65	12148.1
942.7264	2128.0695	13011.1	12125.95
942.8621	2129.5956	12974.85	12095.55
942.9977	2131.1211	12970.25	12083.8
943.1333	2132.6458	12926.5	12045.65
943.2689	2134.1698	12894.6	12011.45
943.4044	2135.693	12847.7	11961.65
943.54	2137.2155	12838.1	11953.1
943.6755	2138.7373	12791.45	11909.15
943.8109	2140.2584	12780	11898.95
943.9464	2141.7787	12725.3	11838.7
944.0818	2143.2983	12672	11792.75
944.2172	2144.8171	12623.85	11744.3
944.3526	2146.3353	12590.9	11707.3
944.4879	2147.8527	12547.5	11667.8
944.6232	2149.3693	12523.1	11639.4
944.7585	2150.8853	12507.8	11625.55
944.8938	2152.4005	12422.3	11541.4
945.029	2153.9149	12428.75	11545.2
945.1642	2155.4287	12366.75	11482.45
945.2994	2156.9417	12374.8	11491.7
945.4346	2158.454	12310.3	11424.45
945.5697	2159.9655	12294.35	11415
945.7048	2161.4764	12239.25	11356.1
945.8399	2162.9865	12242.65	11361.6
945.9749	2164.4958	12192.95	11310.15
946.1099	2166.0045	12126.2	11242.05
946.2449	2167.5124	12118.1	11235.2
946.3799	2169.0195	12099	11216.4
946.5148	2170.526	12092.2	11209.8
946.6498	2172.0317	12057.05	11173.65
946.7846	2173.5367	12031.65	11149.7
946.9195	2175.0409	11968.45	11088.9
947.0543	2176.5445	11978.2	11095.2
947.1891	2178.0473	11915.1	11031.3
947.3239	2179.5494	11834.65	10949.55
947.4587	2181.0507	11832.7	10949.9
947.5934	2182.5513	11797.55	10916.2
947.7281	2184.0512	11776.4	10894.15
947.8628	2185.5504	11759.35	10877.35
947.9974	2187.0488	11653.85	10770.15
948.132	2188.5465	11648.5	10767.45
948.2666	2190.0435	11605.85	10723.7
948.4012	2191.5397	11560.05	10677.75
948.5357	2193.0353	11544.2	10662.6
948.6702	2194.5301	11504.6	10620.65
948.8047	2196.0241	11443.6	10559.6
948.9392	2197.5175	11424.2	10541.45
949.0736	2199.0101	11377.2	10490.7
949.208	2200.502	11301.3	10418.15
949.3424	2201.9931	11286.8	10403.8
949.4767	2203.4835	11255.45	10374
949.611	2204.9733	11234.6	10348.25
949.7453	2206.4622	11242.9	10363.4
949.8796	2207.9505	11162.8	10278.95
950.0138	2209.438	11108.1	10229.5
950.148	2210.9248	11064.7	10180.85
950.2822	2212.4109	11044.95	10165
950.4164	2213.8962	11019.15	10133.85
950.5505	2215.3809	11010.4	10127.25
950.6846	2216.8648	10970.85	10086.8
950.8186	2218.3479	10954.15	10065.25
950.9527	2219.8304	10898.35	10013.1
951.0867	2221.3121	10883.25	9997.75
951.2207	2222.7931	10830.7	9948.5
951.3546	2224.2733	10778.85	9897.5
951.4886	2225.7529	10759.5	9876.2
951.6225	2227.2317	10733.75	9847.25
951.7563	2228.7098	10718.15	9837.8
951.8902	2230.1872	10649.35	9768.85
952.024	2231.6638	10632.05	9751.05
952.1578	2233.1397	10563.6	9675.25
952.2916	2234.6149	10566.95	9686.8
952.4253	2236.0894	10546.5	9663.9
952.559	2237.5632	10511.75	9619.5
952.6927	2239.0362	10475.9	9593.25
952.8263	2240.5085	10436.5	9555.7
952.9599	2241.9801	10394.15	9510.55
953.0935	2243.4509	10361.25	9479.05
953.2271	2244.921	10333.6	9449.85
953.3606	2246.3904	10301.25	9414.5
953.4941	2247.8591	10276.65	9395.1
953.6276	2249.3271	10245.15	9362.45
953.7611	2250.7943	10203.1	9321.8
953.8945	2252.2608	10165.45	9283.6
954.0279	2253.7266	10128	9246.75
954.1612	2255.1917	10108.5	9226.05
954.2946	2256.656	10086.15	9202.4
954.4279	2258.1197	10041.65	9160.15
954.5612	2259.5826	10007.8	9123.15
954.6944	2261.0447	9998.7	9116.15
954.8276	2262.5062	9955.95	9071.1
954.9608	2263.9669	9952.9	9069.75
955.094	2265.4269	9939.35	9055.15
955.2271	2266.8862	9891.6	9007.95
955.3602	2268.3448	9867.25	8985.1
955.4933	2269.8026	9859.55	8978.25
955.6264	2271.2598	9847.15	8965.45
955.7594	2272.7162	9791.9	8911.05
955.8924	2274.1719	9762.05	8878.4
956.0253	2275.6268	9738.45	8856.65
956.1583	2277.0811	9736.65	8851.65
956.2912	2278.5346	9696.05	8814.45
956.4241	2279.9874	9687.35	8804.5
956.5569	2281.4395	9658.6	8777.85
956.6897	2282.8908	9629.25	8740.85
956.8225	2284.3414	9612.1	8728.75
956.9553	2285.7914	9585.4	8704.15
957.088	2287.2406	9554.1	8668.65
957.2207	2288.689	9497.75	8612.45
957.3534	2290.1368	9468.7	8583
957.486	2291.5838	9453.75	8565.35
957.6186	2293.0302	9444.15	8557.3
957.7512	2294.4758	9395.25	8511.3
957.8838	2295.9206	9350	8463
958.0163	2297.3648	9330.4	8447
958.1488	2298.8082	9313.65	8429.55
958.2813	2300.251	9280.8	8399.4
958.4137	2301.693	9269.95	8383.95
958.5461	2303.1343	9245.25	8360.95
958.6785	2304.5748	9208.65	8326.25
958.8108	2306.0147	9183.95	8301.35
958.9432	2307.4538	9159.9	8276.25
959.0754	2308.8922	9153.2	8272.55
959.2077	2310.3299	9121.65	8240.8
959.3399	2311.7669	9070.4	8188.3
959.4721	2313.2031	9043.3	8160.8
959.6043	2314.6387	9006.85	8125.7
959.7365	2316.0735	9006.85	8124.3
959.8686	2317.5076	8982.8	8101.15
960.0006	2318.941	8965.55	8080.5
960.1327	2320.3737	8960.2	8077.9
960.2647	2321.8056	8921.2	8033
960.3967	2323.2369	8873.55	7990.2
960.5287	2324.6674	8851.65	7966.25
960.6606	2326.0972	8818.3	7936.5
960.7925	2327.5263	8791.9	7909.4
960.9244	2328.9547	8757.95	7876.15
961.0562	2330.3823	8734.65	7848.9
961.1881	2331.8092	8729.9	7841.7
961.3198	2333.2355	8697	7814.75
961.4516	2334.661	8668.4	7782.25
961.5833	2336.0858	8675.15	7788.75
961.715	2337.5098	8619.4	7736.15
961.8467	2338.9332	8597.9	7713.45
961.9783	2340.3558	8590.1	7704.55
962.1099	2341.7778	8553.6	7671.35
962.2415	2343.199	8533.75	7648.85
962.373	2344.6195	8499	7618.05
962.5045	2346.0393	8466.75	7584.95
962.636	2347.4583	8463.15	7578.95
962.7675	2348.8767	8444.85	7561.85
962.8989	2350.2943	8398	7512.55
963.0303	2351.7113	8398.75	7513.1
963.1617	2353.1275	8367.8	7482.85
963.293	2354.543	8329.1	7435.8
963.4243	2355.9578	8327.95	7445.4
963.5556	2357.3718	8274.5	7390.5
963.6868	2358.7852	8241.25	7356.15
963.818	2360.1978	8231.5	7348
963.9492	2361.6098	8207.55	7325.65
964.0803	2363.021	8189.45	7303.85
964.2114	2364.4315	8144.8	7260.55
964.3425	2365.8413	8127.75	7244
964.4736	2367.2504	8107.35	7224.9
964.6046	2368.6587	8080.2	7197.2
964.7356	2370.0664	8039	7155.7
964.8666	2371.4733	8021.6	7137.15
964.9975	2372.8795	7977.5	7094.65
965.1284	2374.285	7960.3	7077.1
965.2593	2375.6899	7925.4	7044.25
965.3901	2377.0939	7878.8	6996.3
965.5209	2378.4973	7856.45	6975.6
965.6517	2379.9	7848.85	6964.45
965.7825	2381.3019	7821.4	6938.6
965.9132	2382.7032	7799.2	6918.05
966.0439	2384.1037	7766.45	6885.65
966.1745	2385.5035	7743.75	6860.7
966.3051	2386.9027	7731.1	6850.45
966.4357	2388.3011	7681.75	6795.9
966.5663	2389.6987	7683.85	6800.9
966.6968	2391.0957	7658.6	6776.95
966.8273	2392.492	7629.9	6748.55
966.9578	2393.8876	7568.75	6684.2
967.0882	2395.2824	7563.55	6682.35
967.2186	2396.6765	7533.2	6651.25
967.349	2398.07	7482.55	6598.55
967.4793	2399.4627	7502.75	6615.65
967.6097	2400.8547	7447.2	6562.35
967.7399	2402.246	7446	6557.95
967.8702	2403.6366	7402.15	6520
968.0004	2405.0265	7369.45	6485.65
968.1306	2406.4156	7354.85	6467.15
968.2607	2407.8041	7317.9	6431.65
968.3909	2409.1918	7298	6412.3
968.521	2410.5789	7275.75	6390.4
968.651	2411.9652	7236.9	6349.9
968.781	2413.3508	7210.8	6327.1
968.911	2414.7358	7205.6	6321.4
969.041	2416.12	7157.75	6276.25
969.1709	2417.5035	7155.05	6274.4
969.3008	2418.8863	7119.5	6236
969.4307	2420.2684	7112.55	6228.55
969.5606	2421.6497	7078.25	6193.25
969.6904	2423.0304	7047.5	6165.1
969.8201	2424.4104	7041.4	6158.65
969.9499	2425.7896	6997.4	6111.5
970.0796	2427.1682	6984.9	6101.35
970.2093	2428.546	6975.5	6088.65
970.3389	2429.9232	6966.45	6082.55
970.4685	2431.2996	6937.85	6054.5
970.5981	2432.6753	6936.95	6053.3
970.7277	2434.0503	6912.25	6028.65
970.8572	2435.4246	6856.3	5973.25
970.9867	2436.7982	6855.5	5968.75
971.1161	2438.1711	6831.1	5950.1
971.2456	2439.5433	6801.5	5917.7
971.375	2440.9148	6788.95	5900.3
971.5043	2442.2856	6760	5877
971.6336	2443.6557	6739.8	5855.2
971.7629	2445.025	6714.55	5832.35
971.8922	2446.3937	6691.35	5806.45
972.0214	2447.7617	6685.4	5800.85
972.1506	2449.1289	6673.05	5787.85
972.2798	2450.4955	6652.6	5766.3
972.4089	2451.8613	6647.75	5762.85
972.538	2453.2265	6630.3	5745.6
972.6671	2454.5909	6618.85	5735.75
972.7961	2455.9546	6605.95	5723.1
972.9251	2457.3177	6554.75	5674.25
973.0541	2458.68	6541.4	5657.35
973.1831	2460.0416	6551.6	5668.65
973.312	2461.4025	6523.85	5638.9
973.4408	2462.7627	6526.25	5631.45
973.5697	2464.1222	6487.95	5608.05
973.6985	2465.4811	6465.65	5582.75
973.8273	2466.8392	6452.15	5569.7
973.956	2468.1966	6444.2	5558.9
974.0847	2469.5533	6425.6	5540.7
974.2134	2470.9093	6390.5	5508.15
974.3421	2472.2645	6374.55	5488.95
974.4707	2473.6191	6368.15	5487.3
974.5993	2474.973	6327.45	5444.95
974.7278	2476.3262	6326.2	5441.2
974.8563	2477.6787	6307.45	5424.05
974.9848	2479.0305	6276.6	5394.1
975.1132	2480.3816	6253.5	5368.1
975.2417	2481.7319	6237.7	5357.05
975.37	2483.0816	6222.65	5339.85
975.4984	2484.4306	6192.7	5308.9
975.6267	2485.7789	6168.2	5286.3
975.755	2487.1264	6126.6	5242.85
975.8833	2488.4733	6111.95	5231.05
976.0115	2489.8195	6101.45	5211.95
976.1397	2491.165	6090.2	5205.5
976.2678	2492.5097	6081.5	5195
976.3959	2493.8538	6044.6	5162.9
976.524	2495.1972	6016.65	5132.55
976.6521	2496.5398	5980.3	5097.2
976.7801	2497.8818	5987.85	5101.55
976.9081	2499.2231	5960.75	5077.35
977.036	2500.5637	5943.15	5057.6
977.164	2501.9035	5934.1	5050.1
977.2918	2503.2427	5907.4	5020.7
977.4197	2504.5812	5906.65	5024
977.5475	2505.919	5877.85	4993.55
977.6753	2507.256	5878.2	4993.8
977.8031	2508.5924	5862.55	4980.8
977.9308	2509.9281	5850.9	4962.7
978.0585	2511.2631	5805.65	4924.85
978.1861	2512.5974	5789.6	4907.3
978.3137	2513.9309	5774.9	4891.4
978.4413	2515.2638	5768.65	4856.35
978.5689	2516.596	5757.2	4873.7
978.6964	2517.9275	5714.25	4829.8
978.8239	2519.2583	5695.1	4811.5
978.9513	2520.5884	5680.55	4796.45
979.0788	2521.9178	5659.65	4779.35
979.2062	2523.2465	5624.35	4743.05
979.3335	2524.5745	5628.2	4745.9
979.4608	2525.9018	5604.95	4721.7
979.5881	2527.2284	5606.15	4723.35
979.7154	2528.5543	5574.25	4692.5
979.8426	2529.8796	5556.65	4672.95
979.9698	2531.2041	5550.8	4667.35
980.0969	2532.5279	5522	4642.5
980.224	2533.851	5519.8	4637.75
980.3511	2535.1735	5521.2	4638.5
980.4781	2536.4952	5496.05	4611.1
980.6052	2537.8163	5488.2	4602.85
980.7321	2539.1366	5463.65	4580.3
980.8591	2540.4562	5471.6	4586.05
980.986	2541.7752	5449.8	4566.25
981.1129	2543.0935	5436.25	4550.75
981.2397	2544.411	5418.95	4533.1
981.3665	2545.7279	5405.05	4522.85
981.4933	2547.0441	5402	4521.15
981.62	2548.3596	5409.8	4523.55
981.7467	2549.6744	5379	4497.05
981.8734	2550.9885	5371.1	4479.5
982.0001	2552.3019	5358.5	4476.3
982.1267	2553.6146	5335.35	4450.55
982.2532	2554.9266	5328.95	4443.45
982.3798	2556.2379	5315.65	4430.1
982.5063	2557.5485	5313.95	4432.05
982.6327	2558.8585	5295.7	4405.4
982.7592	2560.1677	5268.4	4381.5
982.8856	2561.4762	5264.3	4379.65
983.0119	2562.7841	5256.55	4370.75
983.1383	2564.0913	5242.3	4361.4
983.2646	2565.3977	5234	4349.8
983.3908	2566.7035	5233.9	4353.45
983.517	2568.0086	5220.05	4334.6
983.6432	2569.313	5206.6	4322.35
983.7694	2570.6167	5201.4	4314.75
983.8955	2571.9197	5162.85	4279.85
984.0216	2573.222	5162.85	4276.8
984.1476	2574.5236	5162.8	4278.75
984.2737	2575.8246	5155.4	4268.4
984.3996	2577.1248	5140.8	4257.15
984.5256	2578.4244	5141.4	4258.7
984.6515	2579.7232	5105.2	4220.5
984.7774	2581.0214	5121.8	4213.05
984.9032	2582.3189	5099.4	4217.25
985.029	2583.6157	5100.65	4215.05
985.1548	2584.9118	5072.3	4188.35
985.2806	2586.2072	5077	4193.75
985.4063	2587.5019	5045.95	4163.45
985.5319	2588.7959	5029.75	4146.4
985.6576	2590.0893	5021.7	4137.3
985.7832	2591.3819	4999.8	4117.3
985.9087	2592.6739	4992.85	4109.4
986.0343	2593.9652	4993.2	4107.65
986.1597	2595.2557	4977.3	4094.1
986.2852	2596.5456	4951.2	4065.95
986.4106	2597.8348	4938.55	4057.2
986.536	2599.1234	4930.4	4048.5
986.6614	2600.4112	4890.55	4006.15
986.7867	2601.6983	4891.8	4005.35
986.912	2602.9848	4880	3997.1
987.0372	2604.2705	4857.15	3966.9
987.1624	2605.5556	4850.4	3969.6
987.2876	2606.84	4834.25	3950.95
987.4128	2608.1237	4813.65	3930.15
987.5379	2609.4067	4774.5	3889.95
987.6629	2610.689	4765.35	3873.45
987.788	2611.9707	4760.6	3873.55
987.913	2613.2516	4734.35	3845.6
988.0379	2614.5319	4706	3823.35
988.1629	2615.8115	4691.6	3807.6
988.2878	2617.0903	4708.9	3824.6
988.4126	2618.3685	4679.2	3797
988.5375	2619.6461	4661.4	3779.45
988.6622	2620.9229	4639.3	3757.65
988.787	2622.199	4660.45	3776.35
988.9117	2623.4745	4628	3743.2
989.0364	2624.7493	4620.5	3738.7
989.161	2626.0234	4600.7	3719.15
989.2857	2627.2968	4582.3	3700.6
989.4102	2628.5695	4554	3666.95
989.5348	2629.8415	4540.5	3658.35
989.6593	2631.1128	4539.8	3655.75
989.7837	2632.3835	4519.15	3637.15
989.9082	2633.6535	4490.9	3607.75
990.0326	2634.9228	4475.15	3593.05
990.1569	2636.1914	4473.5	3590.65
990.2812	2637.4593	4470.3	3580.9
990.4055	2638.7265	4467.7	3585.55
990.5298	2639.9931	4426.85	3545
990.654	2641.259	4434.2	3549.2
990.7782	2642.5242	4415.1	3530.25
990.9023	2643.7887	4396.8	3513.8
991.0264	2645.0525	4393.2	3510.6
991.1505	2646.3156	4378.3	3495.4
991.2745	2647.5781	4361.45	3479.9
991.3985	2648.8398	4341.5	3460.5
991.5225	2650.1009	4347.4	3455.1
991.6464	2651.3613	4324.7	3442.35
991.7703	2652.6211	4319.75	3435.65
991.8942	2653.8801	4303.8	3422.8
992.018	2655.1385	4294.3	3406.95
992.1418	2656.3961	4296.65	3416.95
992.2655	2657.6531	4275.7	3391.4
992.3892	2658.9094	4257	3375
992.5129	2660.1651	4242.45	3359.55
992.6366	2661.42	4254.35	3371.45
992.7602	2662.6743	4236.25	3351.9
992.8837	2663.9279	4233.25	3352.1
993.0073	2665.1808	4214.75	3329.8
993.1307	2666.433	4202.9	3318.35
993.2542	2667.6846	4187.65	3305.6
993.3776	2668.9354	4179.85	3294.05
993.501	2670.1856	4184.55	3301.85
993.6244	2671.4351	4154.95	3271.95
993.7477	2672.6839	4151.6	3267.75
993.8709	2673.9321	4136.1	3253.2
993.9942	2675.1795	4130.9	3248.35
994.1174	2676.4263	4114.85	3232.2
994.2405	2677.6724	4111.25	3230.05
994.3637	2678.9179	4091.65	3208.8
994.4868	2680.1626	4089.7	3206.85
994.6098	2681.4067	4083.55	3200.6
994.7328	2682.6501	4075.65	3192.45
994.8558	2683.8928	4062.65	3180.9
994.9788	2685.1348	4040.45	3157.7
995.1017	2686.3761	4022.75	3142.5
995.2245	2687.6168	4002.45	3121.05
995.3474	2688.8568	4009.2	3126.6
995.4702	2690.0961	3989.95	3109.25
995.5929	2691.3348	3983.3	3099.15
995.7156	2692.5727	3967	3084.3
995.8383	2693.81	3961.3	3078.2
995.961	2695.0466	3943.95	3065.5
996.0836	2696.2826	3938.5	3055.85
996.2062	2697.5178	3944.9	3044.45
996.3287	2698.7524	3928.6	3046.8
996.4512	2699.9863	3930.4	3046.9
996.5737	2701.2195	3886.45	3005.15
996.6961	2702.452	3876.8	2992.95
996.8185	2703.6839	3891	3007.8
996.9408	2704.9151	3867.7	2986.4
997.0631	2706.1456	3869.5	2988.9
997.1854	2707.3755	3843.05	2962.15
997.3077	2708.6046	3852.55	2968.65
997.4299	2709.8331	3849.1	2968.25
997.552	2711.0609	3822	2939.05
997.6742	2712.2881	3804.05	2921.25
997.7963	2713.5145	3790.55	2907.3
997.9183	2714.7403	3791.4	2909
998.0403	2715.9654	3782.45	2898
998.1623	2717.1899	3797.6	2900.2
998.2842	2718.4136	3760.45	2878.2
998.4062	2719.6367	3754.9	2872.4
998.528	2720.8591	3747.65	2857.4
998.6498	2722.0809	3734.6	2852.5
998.7716	2723.3019	3721.3	2837.35
998.8934	2724.5223	3726.45	2843.2
999.0151	2725.7421	3706.05	2822.05
999.1368	2726.9611	3701.55	2816.4
999.2584	2728.1795	3706.6	2819.05
999.38	2729.3972	3676.9	2795.1
999.5016	2730.6142	3672.35	2775.9
999.6231	2731.8306	3635.8	2752.85
999.7446	2733.0462	3629.35	2744.3
999.8661	2734.2612	3621.5	2735.5
999.9875	2735.4756	3615.2	2730.1
1000.1089	2736.6892	3595.35	2711.85
1000.2302	2737.9022	3567.75	2687.6
1000.3515	2739.1145	3558.6	2676.9
1000.4728	2740.3262	3554.95	2664.85
1000.594	2741.5372	3523.25	2641.55
1000.7152	2742.7475	3507.95	2626.6
1000.8363	2743.9571	3520.15	2637.2
1000.9575	2745.1661	3504.55	2617.35
1001.0785	2746.3744	3474.6	2590.6
1001.1996	2747.582	3477.4	2595.25
1001.3206	2748.7889	3456.05	2571.4
1001.4415	2749.9952	3442.95	2560.9
1001.5625	2751.2008	3436.15	2553.1
1001.6833	2752.4057	3426	2541.2
1001.8042	2753.61	3412.9	2531.7
1001.925	2754.8136	3406.35	2521.45
1002.0458	2756.0165	3384.25	2503.85
1002.1665	2757.2188	3383.55	2503.95
1002.2872	2758.4204	3391.55	2508.45
1002.4078	2759.6213	3360.4	2474.95
1002.5285	2760.8215	3371.7	2485.3
1002.649	2762.0211	3348.7	2465.6
1002.7696	2763.22	3350	2465.6
1002.8901	2764.4182	3347.9	2462.95
1003.0106	2765.6158	3321.55	2438.6
1003.131	2766.8127	3302.25	2420
1003.2514	2768.009	3288.7	2406.75
1003.3717	2769.2045	3290.85	2407.6
1003.492	2770.3994	3290.5	2408
1003.6123	2771.5936	3272.6	2389.65
1003.7325	2772.7872	3262.15	2380.3
1003.8527	2773.9801	3253.95	2369.85
1003.9729	2775.1723	3255.75	2356.95
1004.093	2776.3639	3236.85	2355.3
1004.2131	2777.5548	3225.35	2342
1004.3331	2778.745	3213.65	2331.3
1004.4531	2779.9346	3201.75	2321.35
1004.5731	2781.1235	3203.65	2320.8
1004.693	2782.3117	3193.2	2311
1004.8129	2783.4992	3194.35	2312.3
1004.9328	2784.6861	3172	2291.45
1005.0526	2785.8723	3175.45	2294.15
1005.1723	2787.0579	3165.45	2282.9
1005.2921	2788.2428	3168.7	2287.8
1005.4118	2789.427	3143.8	2264.85
1005.5314	2790.6106	3129.2	2245.15
1005.651	2791.7935	3129.55	2245.6
1005.7706	2792.9757	3121.3	2238.05
1005.8902	2794.1573	3119.55	2235.2
1006.0097	2795.3382	3101.05	2218.4
1006.1291	2796.5184	3090.6	2210.45
1006.2485	2797.698	3094	2210.05
1006.3679	2798.8769	3105	2223.45
1006.4873	2800.0551	3096.7	2215.75
1006.6066	2801.2327	3078.15	2194.9
1006.7258	2802.4096	3076.9	2197.4
1006.8451	2803.5859	3053.35	2172.9
1006.9642	2804.7615	3064.9	2181.75
1007.0834	2805.9364	3063.85	2182.35
1007.2025	2807.1106	3064.15	2182.15
1007.3216	2808.2842	3065	2183.95
1007.4406	2809.4572	3050.1	2166.25
1007.5596	2810.6294	3058.3	2175
1007.6785	2811.801	3059.45	2180.95
1007.7975	2812.972	3082.25	2202
1007.9163	2814.1423	3079.05	2198.3
1008.0352	2815.3119	3092.9	2211.05
1008.154	2816.4808	3094.2	2213.4
1008.2727	2817.6491	3106.45	2225.6
1008.3914	2818.8167	3102.9	2223.75
1008.5101	2819.9837	3124.4	2239.15
1008.6288	2821.15	3131.25	2250
1008.7474	2822.3157	3152.05	2272.15
1008.8659	2823.4807	3158.65	2277.4
1008.9844	2824.645	3175.55	2293.5
1009.1029	2825.8086	3172.35	2292.15
1009.2214	2826.9716	3188.65	2307.4
1009.3398	2828.134	3217	2336.05
1009.4581	2829.2957	3205.65	2323.25
1009.5764	2830.4567	3220.75	2340.6
1009.6947	2831.617	3225.8	2345.35
1009.813	2832.7767	3229.7	2350.2
1009.9312	2833.9358	3220.5	2337.55
1010.0493	2835.0941	3214.65	2333.15
1010.1675	2836.2519	3210.85	2327.3
1010.2855	2837.4089	3201.25	2319.45
1010.4036	2838.5653	3184.95	2303.55
1010.5216	2839.7211	3174.05	2292.8
1010.6396	2840.8761	3157.4	2274.75
1010.7575	2842.0306	3164.5	2285.3
1010.8754	2843.1843	3169	2288
1010.9932	2844.3374	3175.4	2293.5
1011.111	2845.4899	3175.45	2292.25
1011.2288	2846.6417	3187.95	2308.85
1011.3465	2847.7928	3209.4	2330.15
1011.4642	2848.9433	3218.3	2337.8
1011.5818	2850.0931	3248.9	2369.35
1011.6995	2851.2422	3248.85	2366.6
1011.817	2852.3907	3272.2	2389.35
1011.9345	2853.5385	3289.25	2404.6
1012.052	2854.6857	3306.9	2415.5
1012.1695	2855.8323	3302.5	2421.95
1012.2869	2856.9781	3318.15	2437.5
1012.4042	2858.1233	3325.15	2445.75
1012.5216	2859.2679	3330.3	2449.25
1012.6389	2860.4118	3336.6	2456.1
1012.7561	2861.555	3352.3	2466.45
1012.8733	2862.6976	3340.8	2459.15
1012.9905	2863.8395	3353.15	2473.85
1013.1076	2864.9808	3362.7	2483.15
1013.2247	2866.1214	3360.35	2480.35
1013.3417	2867.2614	3362.55	2482.55
1013.4587	2868.4007	3357.9	2474.9
1013.5757	2869.5393	3362.25	2479.7
1013.6926	2870.6773	3349.85	2466.05
1013.8095	2871.8146	3351.9	2469.7
1013.9263	2872.9513	3355.75	2472.3
1014.0431	2874.0874	3331.6	2451.2
1014.1599	2875.2227	3321.8	2440.1
1014.2766	2876.3574	3303.4	2424.05
1014.3933	2877.4915	3294.65	2414.35
1014.51	2878.6249	3265.05	2385.35
1014.6266	2879.7577	3265.75	2384.6
1014.7431	2880.8898	3252.2	2360.05
1014.8596	2882.0212	3228.9	2349.6
1014.9761	2883.152	3222.5	2341.05
1015.0925	2884.2821	3209.3	2330.3
1015.2089	2885.4116	3192	2312.15
1015.3253	2886.5405	3188.9	2307.8
1015.4416	2887.6686	3190.9	2304.85
1015.5579	2888.7962	3173.15	2295.85
1015.6741	2889.923	3180.55	2299.45
1015.7903	2891.0493	3171.75	2294.2
1015.9065	2892.1748	3173.95	2291.95
1016.0226	2893.2997	3162.65	2281.35
1016.1387	2894.424	3165.6	2285.55
1016.2547	2895.5476	3173.6	2294.3
1016.3707	2896.6706	3167.25	2289
1016.4866	2897.7929	3162.35	2281.25
1016.6025	2898.9145	3157.95	2277.4
1016.7184	2900.0355	3165.2	2282.5
1016.8342	2901.1559	3166.85	2285.3
1016.95	2902.2756	3166.15	2284.35
1017.0658	2903.3946	3178.05	2296.55
1017.1815	2904.513	3176.75	2291.55
1017.2971	2905.6308	3170.35	2291.4
1017.4127	2906.7479	3176.25	2295.1
1017.5283	2907.8643	3198.7	2318.95
1017.6439	2908.9801	3182.05	2302.55
1017.7594	2910.0953	3181.8	2300.6
1017.8748	2911.2098	3165	2281.5
1017.9902	2912.3236	3168.4	2279.1
1018.1056	2913.4368	3147.4	2264.8
1018.2209	2914.5494	3146.75	2264.5
1018.3362	2915.6613	3113.65	2227.85
1018.4515	2916.7725	3102.9	2218.45
1018.5667	2917.8831	3094.1	2211.4
1018.6819	2918.9931	3085.55	2200.9
1018.797	2920.1024	3065.9	2182.6
1018.9121	2921.211	3043.5	2161.1
1019.0271	2922.319	3044.7	2163.65
1019.1421	2923.4264	3027.55	2147.8
1019.2571	2924.5331	3022.3	2143.55
1019.372	2925.6391	3018.6	2138.9
1019.4869	2926.7445	3014.25	2134.9
1019.6017	2927.8493	2999.45	2117.35
1019.7165	2928.9534	2992.75	2111.2
1019.8313	2930.0569	2997.9	2115.5
1019.946	2931.1597	2999.45	2118.35
1020.0606	2932.2619	2993.5	2115
1020.1753	2933.3634	2974.85	2093.35
1020.2899	2934.4643	2986.6	2098.75
1020.4044	2935.5645	2978.95	2093.15
1020.5189	2936.6641	2962.1	2076.8
1020.6334	2937.763	2957.9	2079.35
1020.7478	2938.8613	2921.9	2040.4
1020.8622	2939.959	2908.1	2023.1
1020.9765	2941.056	2878.45	1999.1
1021.0908	2942.1523	2838.85	1956.45
1021.2051	2943.248	2813.5	1934.05
1021.3193	2944.3431	2780.85	1901
1021.4334	2945.4375	2740.85	1860.3
1021.5476	2946.5313	2703.95	1825.15
1021.6617	2947.6244	2669.35	1788.9
1021.7757	2948.7169	2618.05	1733.55
1021.8897	2949.8087	2597.95	1715.95
1022.0037	2950.8999	2548.9	1667.15
1022.1176	2951.9904	2524.15	1644.5
1022.2315	2953.0803	2505.1	1623.95
1022.3453	2954.1696	2480	1598.8
1022.4591	2955.2582	2452.75	1573.75
1022.5728	2956.3462	2432.35	1551.55
1022.6865	2957.4335	2414.15	1531.65
1022.8002	2958.5202	2398.55	1514.7
1022.9138	2959.6062	2393.5	1513.4
1023.0274	2960.6916	2378.8	1498.9
1023.141	2961.7764	2354.25	1474.1
1023.2545	2962.8605	2345.15	1465.35
1023.3679	2963.9439	2341.9	1461.25
1023.4813	2965.0267	2324.1	1442.7
1023.5947	2966.1089	2342.75	1439.05
1023.708	2967.1905	2316.75	1437.15
1023.8213	2968.2714	2313.95	1435.7
1023.9346	2969.3516	2300.55	1421.75
1024.0478	2970.4312	2306.4	1418.05
1024.1609	2971.5102	2285.25	1403.95
1024.274	2972.5885	2284	1403.8
1024.3871	2973.6662	2285.05	1400
1024.5002	2974.7432	2276.85	1396.65
1024.6132	2975.8196	2280.6	1400.75
1024.7261	2976.8954	2282.55	1402
1024.839	2977.9705	2272	1392.35
1024.9519	2979.045	2264.05	1383.3
1025.0647	2980.1188	2243.05	1362.3
1025.1775	2981.192	2230.7	1351.1
1025.2902	2982.2645	2224	1343.4
1025.4029	2983.3364	2220.85	1341.5
1025.5156	2984.4077	2197.7	1318.9
1025.6282	2985.4783	2188.9	1303.45
1025.7407	2986.5483	2167.9	1288.65
1025.8532	2987.6177	2159.6	1280.1
1025.9657	2988.6864	2152.4	1272.25
1026.0782	2989.7545	2130.05	1251.05
1026.1906	2990.8219	2105.75	1225.55
1026.3029	2991.8887	2096.95	1214.2
1026.4152	2992.9548	2092.05	1212
1026.5275	2994.0204	2061.8	1181.7
1026.6397	2995.0852	2047.5	1167.75
1026.7519	2996.1495	2057	1178
1026.864	2997.2131	2041.45	1162.8
1026.9761	2998.276	2020.4	1138.7
1027.0882	2999.3383	2005.45	1125.45
1027.2002	3000.4	1989.75	1107.9
1027.3122	3001.4611	1986.9	1107.1
1027.4241	3002.5215	1972.25	1089.45
1027.536	3003.5812	1971	1090.3
1027.6478	3004.6404	1954.95	1076
1027.7596	3005.6989	1959.2	1076.8
1027.8714	3006.7567	1945.55	1065.6
1027.9831	3007.8139	1956.6	1052.5
1028.0947	3008.8705	1924.15	1045.8
1028.2064	3009.9264	1927.45	1041.25
1028.3179	3010.9818	1910.4	1031.75
1028.4295	3012.0364	1908.45	1027.75
1028.541	3013.0905	1907.85	1028.25
1028.6524	3014.1439	1901.8	1022.65
1028.7638	3015.1966	1884.3	1002.1
1028.8752	3016.2487	1882.05	1001.6
1028.9865	3017.3002	1887.45	1004.15
1029.0978	3018.3511	1874.3	997.3
1029.209	3019.4013	1874.4	996.2
1029.3202	3020.4509	1871	990.4
1029.4314	3021.4998	1872.6	992.45
1029.5425	3022.5481	1868.6	987.5
1029.6535	3023.5958	1860.95	980.45
1029.7645	3024.6428	1854.1	972.9
1029.8755	3025.6892	1856.05	975.3
1029.9864	3026.735	1838.55	957.8
1030.0973	3027.7802	1840.7	961.15
1030.2082	3028.8247	1823.85	945.75
1030.319	3029.8685	1835.95	955.3
1030.4297	3030.9118	1824.25	943.45
1030.5404	3031.9544	1819.65	941.5
1030.6511	3032.9963	1827.4	946.75
1030.7617	3034.0376	1823.3	944.9
1030.8723	3035.0783	1813.65	931.3
1030.9829	3036.1184	1818.95	937.95
1031.0934	3037.1578	1815.35	936.75
1031.2038	3038.1966	1812.6	932.45
1031.3142	3039.2348	1801.5	923.2
1031.4246	3040.2723	1817.7	928.35
1031.5349	3041.3092	1800.05	921.7
1031.6452	3042.3455	1797.4	917.35
1031.7554	3043.3811	1797.6	918.75
1031.8656	3044.4161	1781.6	899.15
1031.9758	3045.4505	1788.85	908.85
1032.0859	3046.4842	1772.8	893.7
1032.1959	3047.5173	1768.75	888.55
1032.3059	3048.5498	1774.8	895.4
1032.4159	3049.5816	1772.15	891.4
1032.5258	3050.6128	1769.85	889.45
1032.6357	3051.6434	1765.6	885.3
1032.7455	3052.6734	1758.4	877.4
1032.8553	3053.7027	1755.4	875.35
1032.9651	3054.7314	1747.6	868.5
1033.0748	3055.7594	1743.5	864.1
1033.1845	3056.7868	1742.75	862.75
1033.2941	3057.8136	1727.6	848.2
1033.4037	3058.8398	1724.4	846.1
1033.5132	3059.8653	1724.05	845.7
1033.6227	3060.8902	1716.25	835.95
1033.7321	3061.9145	1707.65	827.05
1033.8415	3062.9381	1711.15	832
1033.9509	3063.9612	1721.7	826.45
1034.0602	3064.9835	1713.95	834.7
1034.1694	3066.0053	1715	833.3
1034.2787	3067.0264	1697.3	818
1034.3878	3068.0469	1700.8	819.85
1034.497	3069.0668	1687.9	807.35
1034.6061	3070.086	1674.55	796.15
1034.7151	3071.1046	1682.75	803.4
1034.8241	3072.1226	1678.35	798.15
1034.9331	3073.1399	1670.25	791.85
1035.042	3074.1567	1666.6	788.15
1035.1508	3075.1727	1664.15	782.15
1035.2597	3076.1882	1658.8	778.9
1035.3684	3077.203	1651.3	771.65
1035.4772	3078.2173	1651.6	773.75
1035.5859	3079.2308	1647.9	763.7
1035.6945	3080.2438	1629.6	749.45
1035.8031	3081.2561	1632.85	753.2
1035.9117	3082.2678	1623.75	743.6
1036.0202	3083.2789	1621.75	742.45
1036.1286	3084.2893	1613.25	733.35
1036.2371	3085.2991	1614.85	733.15
1036.3454	3086.3083	1604.75	722
1036.4538	3087.3169	1610.85	729.05
1036.562	3088.3248	1601.35	720.65
1036.6703	3089.3321	1592.25	710.1
1036.7785	3090.3388	1594.4	716.85
1036.8866	3091.3449	1587.2	705.05
1036.9948	3092.3503	1584	701.8
1037.1028	3093.3551	1585.95	707.85
1037.2108	3094.3593	1572.35	691.6
1037.3188	3095.3629	1569.9	692.2
1037.4267	3096.3658	1568.95	688.35
1037.5346	3097.3681	1568.95	689.6
1037.6425	3098.3698	1559.75	680
1037.7503	3099.3708	1558.9	672.2
1037.858	3100.3713	1559.7	681.65
1037.9657	3101.3711	1548.4	667.6
1038.0734	3102.3702	1667.3	650.15
1038.181	3103.3688	1548.25	667.45
1038.2886	3104.3667	1534.45	655.45
1038.3961	3105.364	1529.85	649.5
1038.5036	3106.3607	1524.65	644.35
1038.611	3107.3568	1523.85	642.85
1038.7184	3108.3522	1515.05	636.95
1038.8257	3109.347	1516.7	636.6
1038.933	3110.3412	1520.15	637.85
1039.0403	3111.3348	1511	631.85
1039.1475	3112.3277	1502	622.15
1039.2547	3113.32	1508.2	627.7
1039.3618	3114.3117	1496.8	615.95
1039.4689	3115.3028	1486.95	607.95
1039.5759	3116.2932	1491.55	611.1
1039.6829	3117.2831	1489.8	606.25
1039.7898	3118.2723	1482.55	606.05
1039.8967	3119.2608	1471.75	590.45
1040.0035	3120.2488	1474.4	594.15
1040.1103	3121.2361	1474.2	595.9
1040.2171	3122.2229	1463.4	583
1040.3238	3123.209	1462.6	582.5
1040.4305	3124.1944	1461.85	582.4
1040.5371	3125.1793	1456.9	576.85
1040.6437	3126.1635	1454	574.25
1040.7502	3127.1471	1443.7	563.95
1040.8567	3128.1301	1441.6	560.95
1040.9631	3129.1125	1446.35	567.75
1041.0695	3130.0942	1442.15	561.4
1041.1759	3131.0753	1450.4	562.6
1041.2822	3132.0558	1442.35	562
1041.3884	3133.0357	1434.75	553.5
1041.4946	3134.015	1431.55	551.25
1041.6008	3134.9936	1430.55	549.05
1041.7069	3135.9716	1447.15	544.45
1041.813	3136.949	1424.4	545.3
1041.919	3137.9258	1430.15	544.85
1042.025	3138.902	1429.75	545.4
1042.1309	3139.8775	1416.7	538
1042.2368	3140.8524	1413.45	533.05
1042.3427	3141.8267	1416.55	534.4
1042.4485	3142.8004	1410.65	531.6
1042.5542	3143.7735	1412.4	526.95
1042.6599	3144.7459	1408.3	526.95
1042.7656	3145.7178	1405.85	526.55
1042.8712	3146.689	1402.8	521.6
1042.9768	3147.6596	1402.6	521.7
1043.0823	3148.6295	1396.25	515.7
1043.1878	3149.5989	1389.9	512.1
1043.2932	3150.5676	1387.7	508.75
1043.3986	3151.5357	1384.5	508.25
1043.5039	3152.5032	1389.4	509.85
1043.6092	3153.4701	1382.45	503.45
1043.7145	3154.4364	1384	503.55
1043.8197	3155.402	1372.9	495.6
1043.9248	3156.367	1373.05	492.1
1044.03	3157.3315	1413.6	496.25
1044.135	3158.2952	1369.15	489.95
1044.24	3159.2584	1362	482.45
1044.345	3160.221	1360	480.9
1044.4499	3161.1829	1359.85	480.85
1044.5548	3162.1442	1358.5	480.6
1044.6596	3163.105	1351.9	472.75
1044.7644	3164.065	1357.1	478.15
1044.8692	3165.0245	1354.35	472.5
1044.9739	3165.9834	1345.45	468.1
1045.0785	3166.9416	1345.75	468.15
1045.1831	3167.8993	1337.35	455.9
1045.2877	3168.8563	1337.3	458.5
1045.3922	3169.8127	1332.3	453.3
1045.4966	3170.7684	1339.95	461
1045.6011	3171.7236	1337.9	455.75
1045.7054	3172.6782	1332.45	454.1
1045.8098	3173.6321	1324.5	445.8
1045.914	3174.5854	1328.55	446.75
1046.0183	3175.5381	1317.1	437.8
1046.1224	3176.4902	1317.8	437.8
1046.2266	3177.4417	1314.45	435.8
1046.3307	3178.3926	1312.05	433.3
1046.4347	3179.3428	1319.7	443.75
1046.5387	3180.2924	1306.55	428.45
1046.6427	3181.2415	1306.95	427.4
1046.7466	3182.1899	1300.9	421.3
1046.8504	3183.1377	1303.45	423.85
1046.9542	3184.0848	1306.4	422.75
1047.058	3185.0314	1294.85	417.9
1047.1617	3185.9773	1298.15	417.2
1047.2654	3186.9227	1296.6	416.7
1047.369	3187.8674	1287.8	408.15
1047.4726	3188.8115	1289.3	405.5
1047.5761	3189.755	1285.15	407.4
1047.6796	3190.6979	1281.9	402.05
1047.783	3191.6402	1284.45	406.7
1047.8864	3192.5818	1275.8	397.45
1047.9898	3193.5229	1294.1	398.25
1048.0931	3194.4633	1276.95	397.8
1048.1963	3195.4031	1274.1	392.95
1048.2995	3196.3423	1269.45	390.15
1048.4027	3197.2809	1266.05	386.45
1048.5058	3198.2189	1266.75	386.2
1048.6089	3199.1563	1279.35	381.95
1048.7119	3200.0931	1262.8	386.7
1048.8148	3201.0292	1256.8	380.45
1048.9178	3201.9648	1257.35	378.25
1049.0206	3202.8997	1265.3	383.3
1049.1235	3203.834	1260.05	379.95
1049.2262	3204.7677	1258	378.25
1049.329	3205.7008	1253	372.8
1049.4317	3206.6333	1246.5	368.25
1049.5343	3207.5652	1250.8	368.5
1049.6369	3208.4964	1249.3	368.6
1049.7394	3209.4271	1242.8	364
1049.8419	3210.3571	1233.1	354.95
1049.9444	3211.2865	1240.3	359.65
1050.0468	3212.2154	1239.9	359.15
1050.1491	3213.1436	1236.7	354
1050.2514	3214.0712	1240.2	355.95
1050.3537	3214.9982	1232.5	352.55
1050.4559	3215.9246	1229.85	351.45
1050.5581	3216.8503	1226.7	346.25
1050.6602	3217.7755	1226.8	347.05
1050.7623	3218.7001	1224	345.9
1050.8643	3219.624	1227.75	348.4
1050.9663	3220.5473	1224.7	346.5
1051.0682	3221.4701	1219.95	339.85
1051.1701	3222.3922	1224.85	345.15
1051.2719	3223.3137	1216.75	339.65
1051.3737	3224.2346	1214.9	336.55
1051.4754	3225.1549	1210.05	332.6
1051.5771	3226.0746	1214.3	335
1051.6788	3226.9937	1209	329.4
1051.7804	3227.9121	1203.5	324.85
1051.8819	3228.83	1203.5	322.65
1051.9834	3229.7473	1197.95	318.35
1052.0849	3230.6639	1202.9	323.7
1052.1863	3231.5799	1200.5	321.6
1052.2876	3232.4954	1201.5	320.55
1052.3889	3233.4102	1190.05	310.75
1052.4902	3234.3244	1196.6	318.6
1052.5914	3235.238	1199	322.3
1052.6926	3236.151	1212.8	312.2
1052.7937	3237.0634	1187.05	310.15
1052.8948	3237.9752	1190.15	310.05
1052.9958	3238.8864	1186.6	308
1053.0968	3239.797	1182.45	303.8
1053.1977	3240.7069	1182.65	303.95
1053.2986	3241.6163	1178.1	298.1
1053.3994	3242.5251	1180.05	301.8
1053.5002	3243.4332	1175.4	298.35
1053.6009	3244.3408	1179.95	302.5
1053.7016	3245.2477	1175.05	296.25
1053.8022	3246.154	1174.05	293.7
1053.9028	3247.0598	1175.85	296.55
1054.0034	3247.9649	1170.35	290.85
1054.1039	3248.8694	1169.7	290.3
1054.2043	3249.7733	1160	281.05
1054.3047	3250.6766	1164.1	285.4
1054.4051	3251.5793	1167	288.35
1054.5054	3252.4814	1159.9	282.9
1054.6056	3253.3829	1153.1	274.95
1054.7058	3254.2838	1156.65	276.45
1054.806	3255.1841	1155.05	276.05
1054.9061	3256.0838	1149.3	269.65
1055.0061	3256.9829	1145.25	267.45
1055.1062	3257.8814	1145.45	263.85
1055.2061	3258.7792	1141.95	260.95
1055.306	3259.6765	1143.85	264.25
1055.4059	3260.5731	1137.8	257.95
1055.5057	3261.4692	1134.7	256.15
1055.6055	3262.3647	1133.3	253.2
1055.7052	3263.2595	1128.4	250.9
1055.8049	3264.1538	1130.25	252.05
1055.9045	3265.0474	1116.25	236.7
1056.0041	3265.9404	1121.5	244.55
1056.1036	3266.8329	1116.05	237.55
1056.2031	3267.7247	1118.5	228.95
1056.3025	3268.616	1104.25	227.7
1056.4019	3269.5066	1100.05	220.75
1056.5013	3270.3966	1092.95	211.85
1056.6005	3271.286	1082.85	206.05
