Software Version:	3.9.2.0
Unit SN:	10000200
Spectrometer SN:	6960
Date:	3/6/2024 9:31:24 AM
Data Line Index:	25
Spectral Points:	2048
Integration time (ms):	125
Averages:	20
Delay (ms):	30
Sequence Number:	1
Processing:	dark subtract
Laser Power (mW):	305
Laser Current (mA):	823
Laser Diode Temp (C):	25.1
Laser Case Temp (C):	23.6
System Temp (C):	23.3
Spectrometer Temp (C):	21
CCD Temp (C):	-0.02
Secondary Temp (C):	20.006
Heatsink Temp (C):	17.742
CCDPCB Temp (C):	30.049
SecondaryPCB Temp (C):	25.18

Wavelength	RamanShift	Raw Counts	Dark Subtracted
787.061	30.1047	520.8	112.7
787.2016	32.3739	521.65	115.45
787.3422	34.6426	530.15	123.25
787.4828	36.9109	540	131.1
787.6235	39.1787	551.1	137.1
787.7642	41.4461	565	149.9
787.9049	43.7131	578.9	159.65
788.0456	45.9796	585.15	165.15
788.1863	48.2456	600.8	176.55
788.3271	50.5112	616.95	186.95
788.4679	52.7764	629.45	195.2
788.6087	55.0411	642.9	204.4
788.7496	57.3054	662.8	221.3
788.8904	59.5692	677.35	233.7
789.0313	61.8326	695.1	248.55
789.1722	64.0955	717.45	268.9
789.3132	66.3579	737.85	284.6
789.4541	68.6199	765.7	309.55
789.5951	70.8815	820.55	358.65
789.7361	73.1426	936.25	469.95
789.8771	75.4032	1226.3	756.3
790.0181	77.6634	1928.5	1454.45
790.1592	79.9231	3642.8	3165.5
790.3003	82.1824	7367.85	6887.85
790.4414	84.4412	13980	13488.85
790.5825	86.6995	22911.65	22415.6
790.7237	88.9574	31502.7	30995.2
790.8648	91.2148	37598.65	37086.85
791.006	93.4717	40763.7	40244.8
791.1472	95.7282	42151.4	41630.45
791.2885	97.9842	42847.5	42325.25
791.4297	100.2398	43237.55	42713.5
791.571	102.4949	43116.55	42588
791.7123	104.7495	43408.65	42878.6
791.8536	107.0036	43198.05	42662.85
791.9949	109.2573	43624.5	43094.4
792.1363	111.5105	43217.1	42682.15
792.2777	113.7632	43617.65	43081.6
792.4191	116.0154	43720.1	43173.15
792.5605	118.2672	44042.9	43503.1
792.7019	120.5185	43967.05	43426.9
792.8434	122.7693	44073.6	43525.7
792.9849	125.0197	44049.75	43498.15
793.1264	127.2696	44392.8	43837.7
793.2679	129.519	44621.25	44061.1
793.4094	131.7679	44990.05	44432.1
793.551	134.0163	44133.2	43571.15
793.6926	136.2642	44612.55	44048.1
793.8342	138.5117	45065.35	44490.75
793.9758	140.7587	44968.65	44401.5
794.1175	143.0052	45111.3	44541.2
794.2591	145.2512	44751.35	44176.9
794.4008	147.4967	45183.75	44608.7
794.5425	149.7417	45017.9	44438.75
794.6842	151.9863	45119.95	44536.45
794.826	154.2304	44677.1	44091.45
794.9677	156.4739	45035.45	44445.9
795.1095	158.717	45234.85	44644.85
795.2513	160.9596	45152.4	44560.05
795.3931	163.2017	44852.1	44253.95
795.535	165.4433	45302.75	44704.2
795.6768	167.6844	45083.45	44481.6
795.8187	169.925	45329.5	44724.5
795.9606	172.1651	45193.65	44586.65
796.1025	174.4047	45125.45	44513.35
796.2445	176.6439	45300.45	44684.9
796.3864	178.8825	45410.9	44795.3
796.5284	181.1206	45575.8	44954.05
796.6704	183.3582	45589.5	44964.8
796.8124	185.5954	45278.35	44650.85
796.9544	187.832	45546.7	44916.9
797.0965	190.0681	45490.25	44858.4
797.2386	192.3037	45875.85	45238.3
797.3806	194.5388	46325.85	45687.85
797.5228	196.7734	45519.95	44880.75
797.6649	199.0075	46160.65	45520.35
797.807	201.2411	46231.15	45588.95
797.9492	203.4742	46522.8	45877.65
798.0914	205.7068	46642.2	45993.05
798.2336	207.9389	46639.2	45988.7
798.3758	210.1704	46595.1	45955.25
798.518	212.4015	46999.1	46365.4
798.6603	214.632	46470.8	45843.7
798.8025	216.862	47005	46379.7
798.9448	219.0915	47096.35	46467
799.0871	221.3205	46896.65	46264
799.2294	223.549	47233.9	46604.7
799.3718	225.777	47288.95	46659.4
799.5141	228.0044	47332.45	46697.15
799.6565	230.2314	47407.25	46768.35
799.7989	232.4578	47402.8	46761.5
799.9413	234.6837	47420.3	46768.35
800.0837	236.909	48074.85	47420.05
800.2262	239.1339	47291.35	46616.9
800.3687	241.3582	47693.85	47031.8
800.5111	243.582	47642.5	46951.1
800.6536	245.8053	47791.1	47112.2
800.7961	248.0281	47783.2	47109
800.9387	250.2503	47954	47276.8
801.0812	252.472	47847.65	47167.45
801.2238	254.6932	47900.3	47222.1
801.3664	256.9139	47814.45	47132.8
801.509	259.134	48418.1	47731.45
801.6516	261.3536	47660.6	46977.35
801.7942	263.5727	48315	47632.7
801.9369	265.7912	48101.8	47416.3
802.0795	268.0092	48208.2	47520.5
802.2222	270.2267	48188.5	47503.55
802.3649	272.4436	48151.6	47465
802.5076	274.6601	48269.75	47570.35
802.6504	276.8759	48325.85	47628.9
802.7931	279.0913	48421.4	47728.55
802.9359	281.3061	48271.9	47577.6
803.0787	283.5204	48476.15	47775.55
803.2215	285.7341	48480.05	47778.1
803.3643	287.9473	48838.8	48124.3
803.5071	290.16	48470.8	47767.15
803.6499	292.3721	49034	48332.8
803.7928	294.5837	48259.3	47561.5
803.9357	296.7947	48153.25	47452.55
804.0786	299.0052	48465.75	47762.9
804.2215	301.2152	48323.05	47617.1
804.3644	303.4246	48668.65	47964.65
804.5074	305.6334	48605.85	47902.05
804.6503	307.8418	48250.05	47541.85
804.7933	310.0495	48530.3	47820
804.9363	312.2568	48320.95	47613.3
805.0793	314.4635	48231.1	47518.95
805.2223	316.6696	48238.45	47524.85
805.3653	318.8752	48437.6	47716.25
805.5084	321.0802	47765.85	47050.6
805.6514	323.2847	48057	47339.9
805.7945	325.4887	48031.45	47313.5
805.9376	327.692	47855.55	47136.8
806.0807	329.8949	48127.85	47407.65
806.2238	332.0972	48062.25	47338.85
806.367	334.2989	48186.5	47460.8
806.5101	336.5001	48410.65	47687
806.6533	338.7007	48057.6	47331.3
806.7965	340.9008	48250.95	47522.8
806.9397	343.1003	48165.45	47434.6
807.0829	345.2992	48359.9	47629.15
807.2261	347.4976	48101.8	47370
807.3693	349.6955	48141.5	47405.6
807.5126	351.8927	48123.25	47387.8
807.6559	354.0895	48129	47379.4
807.7991	356.2856	48129.35	47391.25
807.9424	358.4812	48247.4	47507.9
808.0857	360.6763	48065	47322.35
808.2291	362.8707	48013.25	47268.65
808.3724	365.0646	48062.35	47316.95
808.5158	367.258	48047.45	47298.3
808.6591	369.4508	47909.05	47155.95
808.8025	371.643	48057.65	47303.05
808.9459	373.8346	47909.05	47158.15
809.0893	376.0257	47869.6	47111.7
809.2327	378.2162	47802.4	47049.35
809.3762	380.4062	47752.05	46994.8
809.5196	382.5956	47706.9	46952.2
809.6631	384.7844	47765.2	47016.1
809.8066	386.9726	47690.2	46941.05
809.9501	389.1603	47651.1	46902.95
810.0936	391.3474	47382.1	46587.1
810.2371	393.5339	47635.6	46882.35
810.3806	395.7199	47285.5	46537.95
810.5241	397.9052	47388.05	46637.55
810.6677	400.09	47380.35	46630.5
810.8113	402.2743	47394.15	46641.2
810.9548	404.4579	47395.15	46642.6
811.0984	406.641	47359.15	46602.75
811.2421	408.8235	47498.2	46738.4
811.3857	411.0054	47444.3	46684.15
811.5293	413.1868	47596.15	46834.45
811.673	415.3675	47509.85	46743.45
811.8166	417.5477	47512.25	46744.65
811.9603	419.7273	47471.9	46701.8
812.104	421.9064	47300.6	46524.35
812.2477	424.0848	47164.9	46394.55
812.3914	426.2627	47121.45	46350.2
812.5351	428.4399	46897.95	46125.85
812.6788	430.6166	46832.25	46054.45
812.8226	432.7928	46791.3	46013.8
812.9663	434.9683	46604.7	45829.15
813.1101	437.1432	46498.5	45717.15
813.2539	439.3176	46422.7	45645.55
813.3977	441.4914	46212.8	45433.4
813.5415	443.6645	46297.4	45517.65
813.6853	445.8371	46065.15	45287.3
813.8291	448.0091	45918.6	45141.7
813.973	450.1806	45845.3	45066.55
814.1168	452.3514	45720.85	44935.8
814.2607	454.5216	45805.6	45013.5
814.4046	456.6913	45504.35	44719.25
814.5485	458.8603	45544.8	44759.55
814.6924	461.0288	45562.45	44780.85
814.8363	463.1967	45474.85	44692.55
814.9802	465.3639	45524.2	44739.4
815.1241	467.5306	45391.1	44603.05
815.2681	469.6967	45288.75	44501.5
815.412	471.8622	45172.45	44387.15
815.556	474.0271	45134.3	44349.75
815.7	476.1914	45117.5	44326.5
815.844	478.3551	45138	44348.4
815.988	480.5182	45211.3	44422.35
816.132	482.6807	45163.15	44372.25
816.276	484.8426	45234.8	44448.7
816.4201	487.0039	45316.2	44526.85
816.5641	489.1647	45314.3	44521.3
816.7082	491.3248	45303.9	44514.1
816.8522	493.4843	45310.15	44519.4
816.9963	495.6432	45238.05	44444.85
817.1404	497.8015	45126.4	44328.5
817.2845	499.9592	45211.85	44416.2
817.4286	502.1163	45113.45	44316.7
817.5727	504.2728	44955.5	44157.4
817.7168	506.4287	45071	44275.5
817.861	508.5839	44907.15	44110.7
818.0051	510.7386	44897.75	44102.35
818.1493	512.8927	44843	44038.75
818.2935	515.0461	44881.05	44079
818.4377	517.199	44883.3	44082.25
818.5818	519.3512	44878.45	44076.85
818.726	521.5029	44832	44025
818.8703	523.6539	44844.25	44042.3
819.0145	525.8043	44803.1	43998.65
819.1587	527.9541	44792.2	43987.35
819.303	530.1033	44627.9	43823.25
819.4472	532.2519	44551.5	43745.75
819.5915	534.3999	44516.95	43707.25
819.7357	536.5472	44458	43649.6
819.88	538.694	44439.9	43633.45
820.0243	540.8401	44486.15	43678.5
820.1686	542.9856	44501.15	43689
820.3129	545.1305	44389.85	43579.85
820.4572	547.2748	44462.75	43652.15
820.6016	549.4185	44467.05	43654.15
820.7459	551.5615	44343.35	43528.9
820.8902	553.704	44302.75	43491.9
821.0346	555.8458	44252.95	43443.15
821.1789	557.987	44198.9	43389.5
821.3233	560.1276	44215.4	43404.15
821.4677	562.2675	44240.85	43430.95
821.6121	564.4069	44267.85	43456.95
821.7565	566.5456	44210.7	43400.75
821.9009	568.6837	44143.7	43330.3
822.0453	570.8212	43981.3	43170.95
822.1897	572.958	43874.95	43059.95
822.3342	575.0942	43714.7	42902.9
822.4786	577.2299	43642.55	42828.75
822.6231	579.3648	43455.55	42641.95
822.7675	581.4992	43239.2	42427.15
822.912	583.6329	43137.4	42324.45
823.0565	585.766	43151.7	42337.55
823.201	587.8985	43053.45	42239.15
823.3454	590.0304	42862.4	42034.45
823.4899	592.1616	42883.4	42062.85
823.6345	594.2922	42856.4	42036.5
823.779	596.4222	42700.85	41878.05
823.9235	598.5515	42614.05	41794.35
824.068	600.6802	42512.8	41692.05
824.2126	602.8083	42287.95	41466.45
824.3571	604.9358	42323.8	41501.45
824.5017	607.0626	42173.5	41350.25
824.6462	609.1888	42137.5	41313.95
824.7908	611.3144	42110.6	41285.75
824.9354	613.4393	42016.1	41192.15
825.08	615.5636	41995.75	41171.5
825.2246	617.6873	42041.05	41217.2
825.3692	619.8103	42082.25	41255.6
825.5138	621.9327	41977.15	41146.9
825.6584	624.0544	41906.8	41082.95
825.803	626.1756	41911.45	41087.45
825.9477	628.2961	41787.2	40959.45
826.0923	630.4159	41674.2	40845.85
826.237	632.5351	41666.3	40838.5
826.3816	634.6537	41589.85	40763.25
826.5263	636.7716	41579.65	40749.9
826.6709	638.8889	41560.15	40731.3
826.8156	641.0056	41601.6	40771.95
826.9603	643.1216	41476.4	40642.9
827.105	645.237	41556.15	40723.8
827.2497	647.3518	41437.7	40607.35
827.3944	649.4659	41460.15	40631.65
827.5391	651.5793	41320.4	40490.55
827.6838	653.6922	41245.8	40417.45
827.8285	655.8043	41175.45	40343.95
827.9733	657.9159	41191.95	40359.2
828.118	660.0268	41068.9	40234.2
828.2627	662.137	41009.95	40175.8
828.4075	664.2466	40960.65	40123.4
828.5522	666.3556	40909.1	40075.65
828.697	668.4639	40761.5	39922.6
828.8418	670.5716	40851.75	40015.45
828.9865	672.6786	40810.1	39974.75
829.1313	674.785	40592.8	39755.65
829.2761	676.8907	40485.85	39648.3
829.4209	678.9958	40525.2	39690.8
829.5657	681.1002	40405.05	39568.15
829.7105	683.204	40340	39499.3
829.8553	685.3072	40303.15	39463.7
830.0001	687.4097	40162.85	39324.95
830.1449	689.5115	40168.25	39329.05
830.2898	691.6127	40203.5	39365
830.4346	693.7132	40052.75	39213.25
830.5794	695.8131	40137.15	39276.35
830.7243	697.9123	40174	39331.7
830.8691	700.0109	40015.45	39174.5
831.014	702.1089	40014.2	39173.2
831.1588	704.2061	39879.35	39037.55
831.3037	706.3028	39955.3	39113.05
831.4486	708.3987	39902.65	39059.4
831.5935	710.4941	39770.65	38930.8
831.7383	712.5887	39805.9	38962.25
831.8832	714.6827	39818.95	38971.85
832.0281	716.7761	39717.15	38872.95
832.173	718.8688	39678.45	38833.85
832.3179	720.9608	39553.05	38704.65
832.4628	723.0522	39659	38810.4
832.6077	725.1429	39549.5	38706.3
832.7527	727.233	39515.2	38669.9
832.8976	729.3224	39556.05	38709.45
833.0425	731.4112	39417.45	38571.05
833.1874	733.4993	39369.65	38520.55
833.3324	735.5867	39243.4	38394.85
833.4773	737.6735	39191.6	38344
833.6222	739.7596	39068.3	38219.65
833.7672	741.845	38985.15	38138.6
833.9122	743.9298	38884.65	38035.25
834.0571	746.014	38814.7	37965.85
834.2021	748.0974	38752.7	37904.85
834.347	750.1802	38601.2	37751.15
834.492	752.2624	38496.2	37646
834.637	754.3439	38382.7	37531.7
834.782	756.4247	38291.8	37431.65
834.9269	758.5048	38158.1	37310.75
835.0719	760.5843	38079.15	37230.75
835.2169	762.6631	37975.3	37124.45
835.3619	764.7413	37972.6	37122.9
835.5069	766.8188	37997.65	37144.25
835.6519	768.8956	37875.8	37021.65
835.7969	770.9718	37938.1	37087.5
835.9419	773.0473	37734.4	36884.5
836.0869	775.1221	37698	36846.9
836.232	777.1962	37543.25	36690.6
836.377	779.2697	37511.2	36657.8
836.522	781.3426	37443.15	36572.35
836.667	783.4147	37421.6	36566.35
836.8121	785.4862	37439.6	36589.4
836.9571	787.557	37299.4	36446.45
837.1021	789.6271	37117.8	36264.7
837.2472	791.6966	37030.55	36179.4
837.3922	793.7654	36847.45	35994.25
837.5373	795.8335	36833.3	35979.95
837.6823	797.901	36670.75	35817.6
837.8274	799.9678	36633.35	35776.75
837.9724	802.0339	36572.5	35721.2
838.1175	804.0993	36500.6	35635.85
838.2626	806.1641	36420.3	35564.85
838.4076	808.2282	36362.35	35508.55
838.5527	810.2916	36279.05	35422.45
838.6978	812.3544	36272.95	35416.3
838.8428	814.4164	36224.65	35370.15
838.9879	816.4778	36233.55	35378.9
839.133	818.5385	36069.65	35214.15
839.2781	820.5986	36067.75	35213.5
839.4232	822.658	36099.95	35241.15
839.5682	824.7166	35973.05	35116.8
839.7133	826.7747	36083.05	35227.2
839.8584	828.832	35998.65	35139.9
840.0035	830.8886	35861.1	35001.65
840.1486	832.9446	35903.6	35042.3
840.2937	834.9999	35807.55	34951
840.4388	837.0545	35679.65	34819.35
840.5839	839.1085	35597.8	34738.35
840.729	841.1618	35526.95	34665.3
840.8741	843.2143	35399.5	34540.95
841.0192	845.2662	35280.15	34420.85
841.1643	847.3175	35270.3	34412.7
841.3095	849.368	35141.45	34282.8
841.4546	851.4179	35099.3	34242
841.5997	853.467	34921.25	34063.1
841.7448	855.5155	34899.7	34040.65
841.8899	857.5633	34877	34018.3
842.0351	859.6105	34776.05	33917.15
842.1802	861.6569	34732.35	33872.1
842.3253	863.7027	34640.4	33779.95
842.4704	865.7478	34644.6	33782.6
842.6156	867.7922	34561.85	33701.35
842.7607	869.8359	34468.2	33607.05
842.9058	871.8789	34374.8	33512.5
843.0509	873.9212	34419.3	33527.5
843.1961	875.9629	34206.75	33346.85
843.3412	878.0039	34302.25	33438.3
843.4863	880.0441	34234.65	33371
843.6315	882.0837	34206.8	33341.8
843.7766	884.1226	34198.05	33333.45
843.9218	886.1609	34189.7	33327.7
844.0669	888.1984	34169.95	33310.15
844.212	890.2352	34238.45	33377
844.3572	892.2714	34169.45	33305.5
844.5023	894.3069	34130.4	33268.75
844.6475	896.3416	33928.1	33065.25
844.7926	898.3757	33918.3	33056.3
844.9377	900.4091	33812.55	32948.4
845.0829	902.4418	33773.05	32905.15
845.228	904.4739	33633.25	32767.65
845.3732	906.5052	33622.15	32755.15
845.5183	908.5358	33579.5	32714
845.6635	910.5658	33501.25	32634.55
845.8086	912.595	33393.7	32529.55
845.9538	914.6236	33277.1	32411.75
846.0989	916.6515	33289.45	32422.95
846.2441	918.6786	33155.95	32290.5
846.3892	920.7051	33067.1	32200.75
846.5344	922.7309	33097.75	32230.85
846.6795	924.756	32958.7	32094.1
846.8246	926.7804	32982.1	32113.75
846.9698	928.8041	32700.55	31833.65
847.1149	930.8272	32731.15	31865.6
847.2601	932.8495	32594.8	31727.65
847.4052	934.8711	32612.05	31743.7
847.5504	936.892	32461.85	31595.15
847.6955	938.9123	32357.7	31489
847.8407	940.9318	32311.8	31444.6
847.9858	942.9506	32215.35	31346.65
848.131	944.9688	32124.6	31258.55
848.2761	946.9862	32010.15	31143.7
848.4213	949.003	31791.55	30925.25
848.5664	951.019	31749.7	30881.1
848.7115	953.0344	31645.6	30777.5
848.8567	955.0491	31573.3	30705.35
849.0018	957.063	31556.65	30686.5
849.147	959.0763	31582.8	30714.65
849.2921	961.0888	31469.9	30598.15
849.4373	963.1007	31469.65	30601.2
849.5824	965.1119	31420.2	30554.7
849.7275	967.1223	31353.85	30485.75
849.8727	969.1321	31289.55	30424.15
850.0178	971.1412	31231.05	30363.55
850.1629	973.1495	31104.25	30235.25
850.3081	975.1572	31121.1	30204.45
850.4532	977.1641	31080.15	30212.9
850.5983	979.1704	31009.05	30139.3
850.7435	981.1759	30882.55	30009.6
850.8886	983.1808	30832.95	29963.55
851.0337	985.1849	30749.2	29873.85
851.1788	987.1884	30656.5	29784.45
851.324	989.1911	30615.15	29742.15
851.4691	991.1932	30563.9	29691.9
851.6142	993.1945	30454.45	29584.35
851.7593	995.1951	30289.9	29421.75
851.9045	997.1951	30287.45	29412.8
852.0496	999.1943	30099.2	29228.85
852.1947	1001.1928	30037.25	29166.1
852.3398	1003.1906	29873.1	29003.4
852.4849	1005.1877	29904.75	29032.35
852.63	1007.1841	29766.25	28896.15
852.7751	1009.1798	29673.4	28802.1
852.9202	1011.1748	29572.65	28700.95
853.0653	1013.1691	29463.5	28591.95
853.2104	1015.1627	29337.7	28466.3
853.3555	1017.1556	29122.45	28251.05
853.5006	1019.1477	29025.4	28152.6
853.6457	1021.1392	28895.4	28025.15
853.7908	1023.1299	28780.45	27909.25
853.9359	1025.12	28644.8	27775.75
854.081	1027.1093	28509.4	27641.55
854.2261	1029.0979	28476.3	27606.25
854.3712	1031.0859	28347.85	27476.85
854.5163	1033.0731	28276.85	27404.3
854.6613	1035.0596	28206	27336.1
854.8064	1037.0454	28015.05	27141.9
854.9515	1039.0304	28045.1	27171.95
855.0965	1041.0148	27897.85	27026
855.2416	1042.9985	27833.2	26958.65
855.3867	1044.9814	27762.25	26893
855.5317	1046.9636	27615.45	26740.3
855.6768	1048.9452	27519.95	26648.5
855.8219	1050.926	27505.8	26633.9
855.9669	1052.9061	27419.15	26546.75
856.112	1054.8855	27363.1	26491.8
856.257	1056.8642	27284.75	26411
856.4021	1058.8421	27273.6	26397.6
856.5471	1060.8194	27182.1	26310.8
856.6921	1062.7959	27128.9	26254.8
856.8372	1064.7717	27013.65	26138.6
856.9822	1066.7469	26994.65	26120.4
857.1272	1068.7213	26940.1	26064.25
857.2723	1070.695	26908.6	26035.55
857.4173	1072.6679	26809.1	25933.65
857.5623	1074.6402	26803.75	25930.25
857.7073	1076.6117	26781.85	25902.8
857.8523	1078.5826	26683.25	25807.6
857.9973	1080.5527	26561.7	25684.55
858.1423	1082.5221	26478	25601.45
858.2873	1084.4908	26446.95	25570.3
858.4323	1086.4587	26320.95	25445.35
858.5773	1088.426	26279.9	25405.75
858.7223	1090.3925	26195.25	25315.9
858.8673	1092.3584	26184.4	25311.1
859.0123	1094.3235	26040.3	25167.25
859.1573	1096.2879	25997.95	25122.4
859.3022	1098.2515	25932.3	25058.75
859.4472	1100.2145	25982.3	25107.75
859.5922	1102.1767	25913.85	25036.3
859.7371	1104.1382	25860.85	24984.65
859.8821	1106.099	25855.55	24977.65
860.027	1108.0591	25777	24901.15
860.172	1110.0185	25725.6	24849.35
860.3169	1111.9771	25742.55	24868.05
860.4619	1113.9351	25637.9	24762.5
860.6068	1115.8923	25623.95	24749.25
860.7517	1117.8488	25608.75	24730.25
860.8967	1119.8045	25475.95	24601.45
861.0416	1121.7596	25389.9	24514.7
861.1865	1123.7139	25224.65	24348.5
861.3314	1125.6675	25116.7	24241.05
861.4763	1127.6204	25144.3	24267.95
861.6212	1129.5726	25062.9	24183.6
861.7661	1131.524	25024	24148.4
861.911	1133.4748	24918.8	24043.65
862.0559	1135.4248	24843.55	23966.35
862.2008	1137.3741	24726.65	23851.3
862.3457	1139.3226	24653.8	23774.25
862.4905	1141.2705	24688.65	23812.5
862.6354	1143.2176	24533.6	23648.95
862.7803	1145.164	24533.05	23652.85
862.9251	1147.1097	24475.75	23598
863.07	1149.0546	24457	23578.3
863.2148	1150.9989	24399.45	23522.25
863.3597	1152.9424	24362.2	23484.5
863.5045	1154.8852	24231.85	23355.55
863.6493	1156.8272	24248	23372
863.7942	1158.7686	24278.35	23393.55
863.939	1160.7092	24166.45	23291.5
864.0838	1162.6491	24003.35	23123.55
864.2286	1164.5883	24044	23166.3
864.3734	1166.5267	23999.3	23120.3
864.5182	1168.4644	23989.2	23112.05
864.663	1170.4014	23923.75	23040.3
864.8078	1172.3377	24000	23122.85
864.9526	1174.2732	23971.25	23094.15
865.0974	1176.2081	24012.15	23136.2
865.2421	1178.1421	24010	23128.55
865.3869	1180.0755	24121.9	23247.2
865.5317	1182.0082	24068.7	23190.2
865.6764	1183.9401	23991.2	23112.3
865.8212	1185.8713	23889.25	23013.35
865.9659	1187.8017	23751.5	22873.25
866.1106	1189.7315	23653.5	22779.55
866.2554	1191.6605	23431.7	22556.45
866.4001	1193.5888	23309.75	22432.25
866.5448	1195.5163	23258.75	22382.05
866.6895	1197.4432	23134.05	22256.1
866.8342	1199.3693	23104.05	22226.3
866.9789	1201.2947	22953	22073.65
867.1236	1203.2193	22888.25	22010.3
867.2683	1205.1432	22872.25	21994.3
867.413	1207.0664	22756	21876.65
867.5576	1208.9889	22769.55	21887.8
867.7023	1210.9106	22633.7	21754.85
867.847	1212.8316	22561.3	21681.7
867.9916	1214.7519	22531.75	21643.8
868.1363	1216.6715	22466.8	21588.3
868.2809	1218.5903	22438.75	21560.5
868.4255	1220.5084	22347.2	21468.4
868.5701	1222.4257	22377.95	21500.3
868.7148	1224.3424	22212.85	21337.8
868.8594	1226.2583	22182.6	21300.75
869.004	1228.1735	22199.3	21319.85
869.1486	1230.0879	22120.5	21239.45
869.2932	1232.0016	22077.65	21198.65
869.4377	1233.9146	22043.55	21160.1
869.5823	1235.8269	21957.7	21078.65
869.7269	1237.7384	21972.75	21090.5
869.8715	1239.6492	21895.75	21018.75
870.016	1241.5592	21860.8	20979.6
870.1606	1243.4686	21831.5	20952.25
870.3051	1245.3772	21875.7	20997.6
870.4496	1247.285	21863.75	20984
870.5941	1249.1922	21893.1	21013.6
870.7387	1251.0986	21875	20995.9
870.8832	1253.0042	21840.95	20959.1
871.0277	1254.9092	21889.65	21008.95
871.1722	1256.8134	21928.8	21049.8
871.3167	1258.7169	21978.5	21096.55
871.4611	1260.6196	21915.1	21036.05
871.6056	1262.5216	21952.05	21072.05
871.7501	1264.4229	21910.25	21031.05
871.8945	1266.3234	21878.65	20998.1
872.039	1268.2232	21789.65	20909.05
872.1834	1270.1223	21677.3	20799.8
872.3278	1272.0207	21643.35	20760.65
872.4723	1273.9183	21575.85	20692
872.6167	1275.8151	21563.95	20686.15
872.7611	1277.7113	21523.6	20643.6
872.9055	1279.6067	21542.6	20662.8
873.0499	1281.5014	21592.2	20709
873.1943	1283.3953	21718.75	20836.75
873.3386	1285.2885	21873.8	20994.7
873.483	1287.181	21971.05	21090.15
873.6274	1289.0727	22034.1	21155.45
873.7717	1290.9637	21966.25	21083.35
873.9161	1292.854	21864.45	20984.5
874.0604	1294.7435	21712.85	20830.2
874.2047	1296.6323	21573.95	20693.15
874.349	1298.5204	21451.1	20566.9
874.4933	1300.4077	21354.15	20472.8
874.6376	1302.2943	21264.1	20381.1
874.7819	1304.1802	21256.1	20376.5
874.9262	1306.0653	21154.05	20272.8
875.0705	1307.9497	21081.25	20198.55
875.2147	1309.8333	21059.05	20178.3
875.359	1311.7162	21031.75	20150.35
875.5032	1313.5984	21019.65	20138.2
875.6475	1315.4798	20930.95	20048.5
875.7917	1317.3605	20900.8	20014.6
875.9359	1319.2405	20910.1	20027.25
876.0801	1321.1197	20853.15	19969.25
876.2243	1322.9982	20781.3	19893.9
876.3685	1324.876	20769.25	19888.35
876.5127	1326.753	20631.8	19750.25
876.6569	1328.6293	20567.95	19686.95
876.801	1330.5048	20490.8	19606.45
876.9452	1332.3796	20355.35	19474.65
877.0893	1334.2537	20318.8	19411.35
877.2335	1336.127	20199.95	19318.2
877.3776	1337.9996	20135.3	19253.3
877.5217	1339.8714	20101.4	19217.85
877.6658	1341.7426	20070.65	19148.75
877.8099	1343.6129	20036.25	19154.2
877.954	1345.4826	19953.4	19072.85
878.0981	1347.3515	19954.35	19072.85
878.2422	1349.2196	19892.85	19006.55
878.3862	1351.087	19875.1	18993.05
878.5303	1352.9537	19860.7	18978.25
878.6743	1354.8197	19828.1	18947.75
878.8184	1356.6849	19804.85	18922.7
878.9624	1358.5493	19761.95	18878.2
879.1064	1360.4131	19746	18864.1
879.2504	1362.276	19711.95	18828.7
879.3944	1364.1383	19717.8	18836.75
879.5384	1365.9998	19625.55	18739.25
879.6823	1367.8606	19601.6	18720.6
879.8263	1369.7206	19582.5	18698
879.9702	1371.5799	19541.85	18661.05
880.1142	1373.4384	19463.6	18580.5
880.2581	1375.2962	19403.2	18520.3
880.402	1377.1533	19291.1	18409.8
880.5459	1379.0096	19194.4	18311.8
880.6898	1380.8652	19117.25	18234.8
880.8337	1382.7201	19075.7	18194.7
880.9776	1384.5742	18927.9	18043.6
881.1215	1386.4275	18841.1	17956.1
881.2653	1388.2802	18750.55	17870.65
881.4092	1390.132	18724.65	17841.8
881.553	1391.9832	18701.65	17820
881.6968	1393.8336	18561.65	17677.15
881.8406	1395.6832	18534.3	17651
881.9844	1397.5322	18489.2	17606.25
882.1282	1399.3803	18409.65	17525.35
882.272	1401.2278	18312.95	17429.45
882.4158	1403.0745	18259.6	17375.85
882.5595	1404.9204	18212.25	17331.5
882.7033	1406.7656	18172.15	17287.8
882.847	1408.6101	18040.35	17158.1
882.9908	1410.4538	17962.2	17080.25
883.1345	1412.2968	17964.65	17083.65
883.2782	1414.139	17913.15	17031.75
883.4219	1415.9805	17878.1	16994.8
883.5656	1417.8213	17807.5	16908.7
883.7092	1419.6613	17750.05	16869.4
883.8529	1421.5006	17717.8	16836.05
883.9965	1423.3391	17743.9	16860.95
884.1402	1425.1769	17706.35	16822.35
884.2838	1427.0139	17740.15	16857.8
884.4274	1428.8502	17751.45	16866.5
884.571	1430.6858	17765.75	16882.55
884.7146	1432.5206	17718.05	16836.45
884.8582	1434.3547	17704.35	16821.7
885.0018	1436.188	17653.95	16771.4
885.1453	1438.0206	17662.85	16777
885.2889	1439.8524	17548.15	16665.75
885.4324	1441.6835	17542.25	16658.5
885.5759	1443.5139	17502.15	16616.7
885.7194	1445.3435	17454.9	16572.6
885.8629	1447.1724	17456.55	16572.85
886.0064	1449.0005	17428.55	16544.75
886.1499	1450.8279	17356.55	16473.25
886.2933	1452.6545	17356.35	16474.6
886.4368	1454.4804	17340.3	16458.35
886.5802	1456.3056	17314.35	16425.8
886.7237	1458.13	17257.5	16376
886.8671	1459.9536	17232.55	16347.5
887.0105	1461.7766	17178.75	16297.8
887.1539	1463.5987	17057.85	16174.65
887.2972	1465.4202	17045.15	16162.7
887.4406	1467.2409	16943.05	16060.4
887.584	1469.0608	16923.9	16040.75
887.7273	1470.88	16870	15984.55
887.8706	1472.6984	16812.75	15929.7
888.0139	1474.5161	16735.05	15851.45
888.1572	1476.3331	16672.15	15790.75
888.3005	1478.1493	16624.3	15738.85
888.4438	1479.9648	16636.4	15755.1
888.5871	1481.7795	16576.15	15692.65
888.7303	1483.5935	16563.6	15680.65
888.8736	1485.4067	16533.05	15648.9
889.0168	1487.2192	16534.25	15651.3
889.16	1489.031	16545.3	15661.45
889.3032	1490.842	16488.75	15605.35
889.4464	1492.6522	16450.2	15567.35
889.5896	1494.4618	16372.2	15487.15
889.7327	1496.2705	16377.75	15497.6
889.8759	1498.0785	16341.85	15458.35
890.019	1499.8858	16277.35	15394.8
890.1622	1501.6924	16238	15355.05
890.3053	1503.4981	16190.3	15307.9
890.4484	1505.3032	16145.8	15263.65
890.5914	1507.1075	16117.65	15234.05
890.7345	1508.911	16087.35	15204.55
890.8776	1510.7138	16049.6	15165.25
891.0206	1512.5159	15979.5	15094.45
891.1637	1514.3172	15938.35	15057
891.3067	1516.1178	15904.2	15021.75
891.4497	1517.9176	15857.8	14970.95
891.5927	1519.7166	15782.05	14899.1
891.7357	1521.515	15748.55	14858.2
891.8786	1523.3126	15690.35	14806.75
892.0216	1525.1094	15648.4	14763.7
892.1645	1526.9055	15586.5	14705.25
892.3074	1528.7008	15533.25	14650
892.4503	1530.4954	15394.3	14505.15
892.5932	1532.2893	15433.65	14550.45
892.7361	1534.0824	15302.65	14414.25
892.879	1535.8747	15327.2	14445.1
893.0218	1537.6663	15250.05	14367.75
893.1647	1539.4572	15202.2	14320
893.3075	1541.2473	15168.7	14286.15
893.4503	1543.0367	15125.95	14244
893.5931	1544.8253	15021.1	14132.85
893.7359	1546.6132	15000.6	14114.85
893.8787	1548.4003	14950.3	14057.6
894.0214	1550.1867	14926.85	14035.25
894.1642	1551.9723	14871.55	13986.2
894.3069	1553.7572	14879.55	13993.7
894.4496	1555.5414	14808.65	13925.1
894.5923	1557.3247	14793	13909.75
894.735	1559.1074	14774.1	13892.35
894.8777	1560.8893	14765.25	13883.5
895.0204	1562.6705	14730.2	13845.85
895.163	1564.4509	14726.4	13845.8
895.3056	1566.2305	14656.65	13774.35
895.4482	1568.0094	14697.7	13817.85
895.5908	1569.7876	14660.85	13777.85
895.7334	1571.565	14609.05	13725.85
895.876	1573.3417	14600.25	13719.3
896.0186	1575.1176	14545.85	13662.5
896.1611	1576.8928	14514.85	13631.6
896.3036	1578.6672	14449.75	13568.9
896.4461	1580.4409	14417.65	13536.1
896.5886	1582.2138	14379.45	13495.3
896.7311	1583.986	14364.3	13482.15
896.8736	1585.7575	14359.15	13479.5
897.0161	1587.5282	14371.95	13492.65
897.1585	1589.2981	14388.65	13507.45
897.3009	1591.0673	14308.5	13426.35
897.4433	1592.8358	14312.55	13433
897.5857	1594.6035	14259.9	13374.1
897.7281	1596.3704	14195.55	13311.55
897.8705	1598.1366	14110.5	13228.5
898.0128	1599.9021	14063.65	13183.35
898.1551	1601.6668	13975.25	13089.3
898.2975	1603.4308	13886.15	13003.6
898.4398	1605.194	13870.7	12983
898.5821	1606.9564	13832	12950.85
898.7243	1608.7182	13866.05	12980.85
898.8666	1610.4791	13839.6	12959.95
899.0088	1612.2394	13873.45	12992.7
899.1511	1613.9988	13914.6	13034.1
899.2933	1615.7576	13980.05	13100.05
899.4355	1617.5156	13987.45	13099.35
899.5776	1619.2728	13945.7	13064.95
899.7198	1621.0293	13851.95	12970.7
899.862	1622.785	13723.7	12838.45
900.0041	1624.54	13568.8	12685.65
900.1462	1626.2942	13426.75	12541.55
900.2883	1628.0477	13269.65	12384.85
900.4304	1629.8005	13161.95	12276.95
900.5725	1631.5525	13053.5	12173.3
900.7145	1633.3037	12988.15	12108.6
900.8566	1635.0542	12919.55	12036.65
900.9986	1636.804	12835.35	11954.25
901.1406	1638.553	12886.65	11915.65
901.2826	1640.3013	12745.1	11862.2
901.4245	1642.0488	12639.6	11755.45
901.5665	1643.7955	12624.35	11743.2
901.7085	1645.5416	12558.85	11677.8
901.8504	1647.2868	12518.8	11637
901.9923	1649.0313	12468.4	11588.3
902.1342	1650.7751	12445.75	11560.3
902.2761	1652.5181	12407.95	11528.95
902.4179	1654.2604	12371.3	11489.2
902.5598	1656.0019	12309.7	11428.15
902.7016	1657.7427	12274	11393.6
902.8434	1659.4828	12291.95	11410.6
902.9852	1661.222	12287.1	11403.4
903.127	1662.9606	12225.8	11344.85
903.2687	1664.6984	12250.6	11367.15
903.4105	1666.4354	12252.9	11369.55
903.5522	1668.1717	12172.75	11290.15
903.6939	1669.9072	12114.05	11231.25
903.8356	1671.642	12035.4	11151.35
903.9773	1673.3761	11965.7	11084.95
904.119	1675.1094	11903	11018.65
904.2606	1676.8419	11819.65	10938
904.4022	1678.5737	11767.3	10883.7
904.5439	1680.3048	11719.9	10838.95
904.6855	1682.0351	11633.95	10751
904.827	1683.7646	11589.9	10704.55
904.9686	1685.4934	11546.85	10664.65
905.1101	1687.2215	11501.2	10618.2
905.2517	1688.9488	11453.65	10572.3
905.3932	1690.6754	11381.85	10500.4
905.5347	1692.4012	11368.85	10484.15
905.6761	1694.1263	11303.45	10421.65
905.8176	1695.8506	11308.35	10425.05
905.9591	1697.5742	11226.95	10348.1
906.1005	1699.297	11189.15	10309.35
906.2419	1701.0191	11124.1	10241.45
906.3833	1702.7404	11081.7	10199.4
906.5246	1704.461	11028.15	10145.6
906.666	1706.1808	10993.95	10109.4
906.8073	1707.8999	10974.8	10093.25
906.9487	1709.6182	10911.2	10029.4
907.09	1711.3358	10890.9	10008.85
907.2313	1713.0527	10867.7	9985.7
907.3725	1714.7688	10837.55	9949.5
907.5138	1716.4841	10800.3	9916.75
907.655	1718.1987	10787.2	9898.85
907.7962	1719.9126	10719.7	9837.6
907.9374	1721.6257	10695.35	9811
908.0786	1723.338	10679.15	9796.3
908.2198	1725.0496	10611.75	9726.65
908.3609	1726.7605	10604.25	9721.2
908.502	1728.4706	10590.25	9707.8
908.6431	1730.18	10537.9	9653.55
908.7842	1731.8886	10527.7	9645.1
908.9253	1733.5964	10539.95	9637.2
909.0664	1735.3036	10479.7	9596.3
909.2074	1737.0099	10488.35	9605.75
909.3484	1738.7156	10438.1	9559.6
909.4894	1740.4204	10411.05	9525.5
909.6304	1742.1246	10400.85	9517.3
909.7714	1743.8279	10368.1	9487.55
909.9123	1745.5306	10366.55	9486.05
910.0532	1747.2325	10317.95	9435.7
910.1941	1748.9336	10308.7	9428.55
910.335	1750.634	10232.35	9348.85
910.4759	1752.3336	10267.35	9385.85
910.6168	1754.0325	10252.4	9372.8
910.7576	1755.7307	10216.6	9333.4
910.8984	1757.4281	10220.25	9338.35
911.0392	1759.1247	10209.65	9318.6
911.18	1760.8206	10188.8	9303.85
911.3208	1762.5158	10148.9	9264.9
911.4615	1764.2102	10135.8	9257.05
911.6022	1765.9039	10099.55	9218.5
911.7429	1767.5968	10104.3	9221.85
911.8836	1769.289	10044.05	9162.9
912.0243	1770.9804	10032.8	9150.05
912.1649	1772.6711	10030.9	9149.45
912.3056	1774.361	9978.6	9094.25
912.4462	1776.0502	9973.1	9088.9
912.5868	1777.7386	9961.95	9076.95
912.7274	1779.4263	9937.1	9054.8
912.8679	1781.1132	9916.1	9035.1
913.0084	1782.7994	9864.05	8980.85
913.149	1784.4849	9851	8970.5
913.2895	1786.1696	9826.3	8924.8
913.4299	1787.8535	9811	8930.35
913.5704	1789.5367	9776.3	8894.95
913.7108	1791.2192	9792.2	8910.3
913.8513	1792.9009	9734.2	8838.3
913.9917	1794.5818	9727.7	8845
914.132	1796.2621	9727.6	8847.6
914.2724	1797.9415	9678.85	8795.3
914.4128	1799.6202	9639.4	8755.2
914.5531	1801.2982	9610.6	8728.55
914.6934	1802.9755	9604.45	8721.35
914.8337	1804.6519	9591.15	8710.15
914.9739	1806.3277	9536.85	8653.4
915.1142	1808.0027	9480.8	8600
915.2544	1809.6769	9475.85	8594.05
915.3946	1811.3504	9473.1	8592.6
915.5348	1813.0231	9426.6	8543.65
915.675	1814.6951	9413.7	8532.5
915.8151	1816.3664	9428.75	8544.05
915.9553	1818.0369	9426.95	8545.25
916.0954	1819.7067	9369.35	8487.5
916.2355	1821.3757	9358.75	8474.4
916.3755	1823.044	9320.25	8437.45
916.5156	1824.7115	9306.85	8424.8
916.6556	1826.3783	9286.1	8404.35
916.7956	1828.0443	9258.75	8376.65
916.9356	1829.7096	9249.35	8366.25
917.0756	1831.3741	9202.65	8318.15
917.2155	1833.0379	9215.95	8334.75
917.3555	1834.701	9165.65	8281.55
917.4954	1836.3633	9179.75	8296.3
917.6353	1838.0248	9124.7	8241.15
917.7751	1839.6856	9112.35	8227.95
917.915	1841.3457	9112.8	8232.45
918.0548	1843.005	9079.1	8198.25
918.1946	1844.6636	9068.1	8186.45
918.3344	1846.3214	9043.6	8162.4
918.4742	1847.9785	9034.7	8154.25
918.6139	1849.6349	9016.9	8132.7
918.7537	1851.2904	9000.35	8109.2
918.8934	1852.9453	8970.8	8089.7
919.0331	1854.5994	8920.05	8032.9
919.1727	1856.2528	8917.65	8031.15
919.3124	1857.9054	8870.5	7986.05
919.452	1859.5572	8894.7	8013.75
919.5916	1861.2083	8868.3	7983.3
919.7312	1862.8587	8847.45	7965.65
919.8708	1864.5084	8846.75	7964.55
920.0103	1866.1572	8803.5	7922.75
920.1498	1867.8054	8760.55	7879.4
920.2893	1869.4528	8768.8	7885.4
920.4288	1871.0994	8742.55	7859.05
920.5683	1872.7453	8719	7836.3
920.7077	1874.3905	8690.85	7801.2
920.8471	1876.0349	8659.5	7775.65
920.9865	1877.6786	8678.55	7793.7
921.1259	1879.3215	8656.25	7775.45
921.2653	1880.9637	8639.25	7755.25
921.4046	1882.6051	8618.4	7737.35
921.5439	1884.2458	8622.65	7739.4
921.6832	1885.8858	8570.45	7688.05
921.8225	1887.525	8555.85	7671.65
921.9617	1889.1634	8528.25	7646.8
922.101	1890.8011	8517.1	7633.3
922.2402	1892.4381	8494.65	7613.6
922.3794	1894.0743	8479.7	7596.95
922.5185	1895.7098	8458.05	7576.2
922.6577	1897.3446	8438.55	7555.4
922.7968	1898.9786	8424.35	7537.1
922.9359	1900.6118	8404.95	7523.15
923.075	1902.2443	8368.5	7484.35
923.214	1903.8761	8374.65	7491.6
923.3531	1905.5071	8331.5	7448.45
923.4921	1907.1374	8285.65	7403.65
923.6311	1908.7669	8282.2	7398.3
923.77	1910.3957	8266.65	7383.75
923.909	1912.0237	8220.15	7335.7
924.0479	1913.651	8212.1	7329.95
924.1868	1915.2776	8200.85	7319.8
924.3257	1916.9034	8152.45	7269.95
924.4646	1918.5285	8127.6	7247.9
924.6034	1920.1528	8079.9	7197.15
924.7422	1921.7764	8091.35	7209.95
924.881	1923.3992	8054.4	7174.2
925.0198	1925.0213	8016.25	7135.15
925.1586	1926.6427	7989.25	7108.4
925.2973	1928.2633	8151.55	7058
925.436	1929.8832	7959.65	7074.25
925.5747	1931.5023	7927.5	7043.35
925.7134	1933.1207	7916.8	7032.75
925.852	1934.7383	7914.4	7031.8
925.9906	1936.3552	7859.6	6978.75
926.1292	1937.9714	7850.2	6966.95
926.2678	1939.5868	7813.65	6929.6
926.4064	1941.2015	7793.05	6910.1
926.5449	1942.8154	7747.7	6865.1
926.6834	1944.4286	7721.7	6840.1
926.8219	1946.041	7722.25	6816.35
926.9604	1947.6528	7673.45	6786.45
927.0988	1949.2637	7664.85	6783.3
927.2372	1950.8739	7615.6	6731.65
927.3756	1952.4834	7589.4	6708.4
927.514	1954.0921	7613.05	6729.85
927.6523	1955.7001	7584.7	6700.5
927.7907	1957.3074	7573.3	6692.65
927.929	1958.9139	7549.9	6668.85
928.0673	1960.5197	7528.6	6645.4
928.2055	1962.1247	7488.65	6609
928.3438	1963.729	7459.35	6579
928.482	1965.3325	7454.5	6549.95
928.6202	1966.9353	7409.3	6529.35
928.7584	1968.5374	7414.6	6533.4
928.8965	1970.1387	7394.1	6512.5
929.0346	1971.7393	7354.25	6472
929.1727	1973.3392	7354.75	6474.25
929.3108	1974.9383	7325.2	6445.05
929.4489	1976.5366	7290.3	6408.25
929.5869	1978.1342	7293.65	6410.35
929.7249	1979.7311	7296.55	6412.45
929.8629	1981.3273	7258.65	6376.15
930.0009	1982.9227	7218.4	6334.5
930.1388	1984.5173	7190.45	6309.6
930.2767	1986.1112	7206.25	6326.05
930.4146	1987.7044	7180.65	6301.3
930.5525	1989.2968	7158.85	6277.25
930.6904	1990.8885	7147.3	6260.85
930.8282	1992.4795	7111.55	6228.8
930.966	1994.0697	7101.25	6221.9
931.1038	1995.6592	7076.4	6192.3
931.2415	1997.2479	7074.1	6193.25
931.3793	1998.8359	7042.65	6161.6
931.517	2000.4232	7014.7	6133.9
931.6547	2002.0097	7015.45	6134.95
931.7923	2003.5955	6964.7	6084.55
931.93	2005.1805	6973.2	6089.55
932.0676	2006.7648	6966.75	6086.55
932.2052	2008.3484	6936	6053.55
932.3427	2009.9312	6935.35	6051.65
932.4803	2011.5133	6898.1	6018.2
932.6178	2013.0946	6865.35	5983.85
932.7553	2014.6752	6884.3	6004.55
932.8928	2016.2551	6862.7	5980.55
933.0302	2017.8342	6835.3	5955.6
933.1676	2019.4126	6826.6	5947.65
933.305	2020.9902	6790	5908.75
933.4424	2022.5672	6776.85	5893.85
933.5798	2024.1433	6784.95	5898.6
933.7171	2025.7188	6758.95	5880.85
933.8544	2027.2935	6741.8	5860.7
933.9917	2028.8674	6722.55	5842.15
934.129	2030.4406	6694.55	5816.2
934.2662	2032.0131	6680.25	5802.6
934.4034	2033.5849	6657.65	5774.45
934.5406	2035.1559	6638.6	5758.95
934.6778	2036.7261	6640.6	5761.7
934.8149	2038.2957	6619	5737.7
934.952	2039.8645	6617.1	5735.75
935.0891	2041.4325	6638.6	5753.5
935.2262	2042.9998	6596.6	5716.45
935.3632	2044.5664	6600.5	5717.3
935.5002	2046.1323	6578.9	5698.8
935.6372	2047.6974	6560.7	5679.7
935.7742	2049.2617	6555.8	5675.15
935.9111	2050.8254	6562.05	5659.75
936.048	2052.3883	6569.55	5688.5
936.1849	2053.9504	6503.7	5621.05
936.3218	2055.5118	6476.35	5595.5
936.4586	2057.0725	6455.4	5570.05
936.5955	2058.6325	6469.55	5588.65
936.7323	2060.1917	6453	5571.8
936.869	2061.7502	6449.5	5566.5
937.0058	2063.3079	6435.7	5555.8
937.1425	2064.8649	6431.9	5547.7
937.2792	2066.4212	6407.5	5525.7
937.4159	2067.9767	6398.15	5518.25
937.5525	2069.5315	6377.65	5499.45
937.6891	2071.0856	6341.4	5461.95
937.8257	2072.6389	6317.55	5437.85
937.9623	2074.1915	6291.85	5412.8
938.0989	2075.7433	6268.65	5388.2
938.2354	2077.2945	6270	5390.9
938.3719	2078.8448	6243.8	5363.3
938.5084	2080.3945	6222.2	5343.1
938.6448	2081.9434	6235.15	5355.95
938.7812	2083.4916	6202.2	5320.3
938.9176	2085.039	6180.7	5298.85
939.054	2086.5857	6194.4	5312.45
939.1903	2088.1317	6201.5	5320.55
939.3267	2089.677	6178.7	5298.25
939.463	2091.2215	6161.5	5280.5
939.5992	2092.7652	6150.25	5269.15
939.7355	2094.3083	6133.55	5251.3
939.8717	2095.8506	6128.2	5248.85
940.0079	2097.3921	6132.65	5253.25
940.1441	2098.933	6114.6	5233.85
940.2802	2100.4731	6093.4	5211.6
940.4163	2102.0124	6115.7	5213.75
940.5524	2103.5511	6074.15	5194.55
940.6885	2105.089	6079.15	5200.2
940.8245	2106.6261	6082.75	5201.6
940.9606	2108.1626	6049.3	5168.1
941.0965	2109.6983	6062.65	5154.25
941.2325	2111.2332	6036.2	5155.85
941.3684	2112.7675	6004.85	5123.05
941.5044	2114.301	5981.25	5098.4
941.6403	2115.8337	5983.6	5101.05
941.7761	2117.3657	5973	5093.8
941.912	2118.897	5979.2	5098.1
942.0478	2120.4276	5978.95	5090.4
942.1835	2121.9575	5943.05	5062.05
942.3193	2123.4866	5949.3	5066.7
942.455	2125.0149	5921.95	5039.45
942.5907	2126.5426	5895.05	5015.55
942.7264	2128.0695	5908.45	5023.1
942.8621	2129.5956	5895	5016.55
942.9977	2131.1211	5871.8	4985.5
943.1333	2132.6458	5856.35	4977
943.2689	2134.1698	5829.7	4948.9
943.4044	2135.693	5842.6	4959.2
943.54	2137.2155	5829.4	4945.55
943.6755	2138.7373	5824.25	4943.35
943.8109	2140.2584	5813.1	4932.45
943.9464	2141.7787	5797.2	4910.9
944.0818	2143.2983	5776.5	4896.9
944.2172	2144.8171	5740.6	4861.75
944.3526	2146.3353	5736.15	4854.9
944.4879	2147.8527	5707.1	4827.65
944.6232	2149.3693	5709.15	4828.3
944.7585	2150.8853	5688.85	4806.15
944.8938	2152.4005	5659.75	4778.4
945.029	2153.9149	5671.2	4790.1
945.1642	2155.4287	5632.4	4751.55
945.2994	2156.9417	5632.95	4752.05
945.4346	2158.454	5620.65	4739.45
945.5697	2159.9655	5615.45	4734.1
945.7048	2161.4764	5606.7	4725.3
945.8399	2162.9865	5577.3	4696.35
945.9749	2164.4958	5600.65	4718.9
946.1099	2166.0045	5548.85	4668
946.2449	2167.5124	5572	4692.6
946.3799	2169.0195	5554.3	4673.85
946.5148	2170.526	5541.3	4659.1
946.6498	2172.0317	5514.3	4633.8
946.7846	2173.5367	5513.45	4632.55
946.9195	2175.0409	5491.25	4611.9
947.0543	2176.5445	5492.75	4611
947.1891	2178.0473	5466.55	4585.2
947.3239	2179.5494	5452.65	4568.4
947.4587	2181.0507	5446.55	4566.9
947.5934	2182.5513	5409.8	4529.8
947.7281	2184.0512	5412.55	4530.3
947.8628	2185.5504	5418.6	4538.75
947.9974	2187.0488	5389.35	4509.9
948.132	2188.5465	5361.25	4481.15
948.2666	2190.0435	5345.55	4465.5
948.4012	2191.5397	5335.2	4455.55
948.5357	2193.0353	5340.6	4461.8
948.6702	2194.5301	5298.85	4417.45
948.8047	2196.0241	5287.65	4406.9
948.9392	2197.5175	5268.3	4386.1
949.0736	2199.0101	5255.6	4372.35
949.208	2200.502	5213.7	4334.85
949.3424	2201.9931	5233.35	4353.2
949.4767	2203.4835	5202.6	4321.1
949.611	2204.9733	5210.75	4323.95
949.7453	2206.4622	5197.75	4317.65
949.8796	2207.9505	5163.75	4280.1
950.0138	2209.438	5142.75	4264.25
950.148	2210.9248	5152	4268.9
950.2822	2212.4109	5133.4	4253.5
950.4164	2213.8962	5111.15	4228.6
950.5505	2215.3809	5096.15	4215.15
950.6846	2216.8648	5078.9	4197.05
950.8186	2218.3479	5065.1	4180.6
950.9527	2219.8304	5057.4	4174.7
951.0867	2221.3121	5038.6	4154.15
951.2207	2222.7931	5021.95	4141.3
951.3546	2224.2733	5018	4135.8
951.4886	2225.7529	4986.05	4104.4
951.6225	2227.2317	4989.45	4107.95
951.7563	2228.7098	4982.4	4104.3
951.8902	2230.1872	4967.05	4088.55
952.024	2231.6638	4952.45	4074.45
952.1578	2233.1397	4935	4047.7
952.2916	2234.6149	4917.1	4035.35
952.4253	2236.0894	4915.3	4034.25
952.559	2237.5632	4910.1	4028.95
952.6927	2239.0362	4881.15	3999.35
952.8263	2240.5085	4874.55	3993.6
952.9599	2241.9801	4875.1	3993.65
953.0935	2243.4509	4854.2	3975
953.2271	2244.921	4831.5	3950.6
953.3606	2246.3904	4808.8	3926.7
953.4941	2247.8591	4804.9	3925.7
953.6276	2249.3271	4789.5	3909.5
953.7611	2250.7943	4777	3894
953.8945	2252.2608	4751.65	3869.55
954.0279	2253.7266	4742.7	3861.8
954.1612	2255.1917	4739.25	3859.75
954.2946	2256.656	4718.25	3837.85
954.4279	2258.1197	4709.1	3829.85
954.5612	2259.5826	4684.1	3803.3
954.6944	2261.0447	4695.2	3814.05
954.8276	2262.5062	4670.45	3788.4
954.9608	2263.9669	4671.1	3787.65
955.094	2265.4269	4654.1	3773.4
955.2271	2266.8862	4634.55	3754.75
955.3602	2268.3448	4642.85	3760.6
955.4933	2269.8026	4629.65	3748.75
955.6264	2271.2598	4612.1	3731.5
955.7594	2272.7162	4599.75	3719.05
955.8924	2274.1719	4598.8	3719.2
956.0253	2275.6268	4594.1	3714.2
956.1583	2277.0811	4588.85	3708.4
956.2912	2278.5346	4561.25	3682.3
956.4241	2279.9874	4549.15	3667.35
956.5569	2281.4395	4551.35	3672.2
956.6897	2282.8908	4523.55	3636.2
956.8225	2284.3414	4530.75	3648.75
956.9553	2285.7914	4517.8	3640.35
957.088	2287.2406	4503.5	3620.7
957.2207	2288.689	4489	3608.3
957.3534	2290.1368	4479	3595.9
957.486	2291.5838	4475.05	3590.35
957.6186	2293.0302	4456.25	3573.95
957.7512	2294.4758	4426.35	3545.6
957.8838	2295.9206	4414.3	3531.25
958.0163	2297.3648	4400.1	3520.2
958.1488	2298.8082	4405.15	3522.65
958.2813	2300.251	4391.6	3510.2
958.4137	2301.693	4372.45	3489.35
958.5461	2303.1343	4378.9	3497.9
958.6785	2304.5748	4354	3473.7
958.8108	2306.0147	4349.2	3468.6
958.9432	2307.4538	4350.75	3466.75
959.0754	2308.8922	4325.9	3446.55
959.2077	2310.3299	4312.6	3431.25
959.3399	2311.7669	4294.5	3414.25
959.4721	2313.2031	4295	3413.95
959.6043	2314.6387	4287.15	3405.55
959.7365	2316.0735	4275.9	3395.55
959.8686	2317.5076	4257.75	3374.4
960.0006	2318.941	4254.5	3373.5
960.1327	2320.3737	4230.7	3348.1
960.2647	2321.8056	4234	3353.05
960.3967	2323.2369	4226.85	3346.05
960.5287	2324.6674	4216.2	3332.05
960.6606	2326.0972	4194.6	3313.95
960.7925	2327.5263	4189.65	3308.4
960.9244	2328.9547	4170.3	3288.6
961.0562	2330.3823	4169.9	3287.1
961.1881	2331.8092	4166.75	3282.25
961.3198	2333.2355	4128	3247.45
961.4516	2334.661	4140.9	3259.2
961.5833	2336.0858	4116.15	3233.15
961.715	2337.5098	4112.95	3231.8
961.8467	2338.9332	4110.25	3229.65
961.9783	2340.3558	4114.65	3231
962.1099	2341.7778	4108.15	3228.3
962.2415	2343.199	4082.05	3197.3
962.373	2344.6195	4064.55	3184.05
962.5045	2346.0393	4043.4	3163.05
962.636	2347.4583	4052.8	3172.7
962.7675	2348.8767	4035.6	3154.25
962.8989	2350.2943	4039.7	3157.3
963.0303	2351.7113	4042.4	3160.5
963.1617	2353.1275	4018.6	3137.65
963.293	2354.543	3988.55	3100.2
963.4243	2355.9578	3976.25	3095.7
963.5556	2357.3718	3969.75	3086.9
963.6868	2358.7852	3952.75	3069.3
963.818	2360.1978	3951.45	3068.9
963.9492	2361.6098	3940.3	3060.6
964.0803	2363.021	3921.2	3036.25
964.2114	2364.4315	3922.2	3041.6
964.3425	2365.8413	3928.6	3042.35
964.4736	2367.2504	3901.75	3018.75
964.6046	2368.6587	3873.05	2992.95
964.7356	2370.0664	3861.95	2981.45
964.8666	2371.4733	3866.6	2985.05
964.9975	2372.8795	3851.35	2972.45
965.1284	2374.285	3830.85	2949
965.2593	2375.6899	3811.65	2932.2
965.3901	2377.0939	3797.45	2916.05
965.5209	2378.4973	3796.2	2915.3
965.6517	2379.9	3789.15	2907.95
965.7825	2381.3019	3770.15	2891.15
965.9132	2382.7032	3757.25	2876.6
966.0439	2384.1037	3756.8	2879.25
966.1745	2385.5035	3733.4	2851.15
966.3051	2386.9027	3743.65	2862.55
966.4357	2388.3011	3733.05	2850.4
966.5663	2389.6987	3739.2	2858.7
966.6968	2391.0957	3715.8	2836.15
966.8273	2392.492	3688.7	2807.55
966.9578	2393.8876	3683.45	2803.8
967.0882	2395.2824	3677.65	2796.65
967.2186	2396.6765	3661.1	2781.1
967.349	2398.07	3644.6	2762.85
967.4793	2399.4627	3651	2768.85
967.6097	2400.8547	3631.95	2750.45
967.7399	2402.246	3627.55	2739.9
967.8702	2403.6366	3597.65	2715.25
968.0004	2405.0265	3590.2	2707.95
968.1306	2406.4156	3578.25	2691.1
968.2607	2407.8041	3559.85	2675.05
968.3909	2409.1918	3558.45	2674.5
968.521	2410.5789	3547.8	2667.05
968.651	2411.9652	3522.9	2636.1
968.781	2413.3508	3520.75	2637.9
968.911	2414.7358	3512.9	2630.2
969.041	2416.12	3503.5	2623
969.1709	2417.5035	3500.9	2620.65
969.3008	2418.8863	3471.85	2589.9
969.4307	2420.2684	3461.5	2580.7
969.5606	2421.6497	3456.15	2573.75
969.6904	2423.0304	3435.95	2554.15
969.8201	2424.4104	3425.05	2541.65
969.9499	2425.7896	3416.4	2532.35
970.0796	2427.1682	3397.25	2518
970.2093	2428.546	3407	2522.75
970.3389	2429.9232	3397.9	2514.95
970.4685	2431.2996	3388.95	2507.95
970.5981	2432.6753	3379.65	2498.4
970.7277	2434.0503	3367.3	2485.35
970.8572	2435.4246	3373.2	2492.65
970.9867	2436.7982	3366.5	2480.65
971.1161	2438.1711	3343.7	2464.25
971.2456	2439.5433	3354.5	2470.35
971.375	2440.9148	3337	2449.15
971.5043	2442.2856	3319.05	2439.15
971.6336	2443.6557	3316.25	2432.65
971.7629	2445.025	3305.15	2425.1
971.8922	2446.3937	3298.15	2415.65
972.0214	2447.7617	3279.95	2396.25
972.1506	2449.1289	3297.35	2415.95
972.2798	2450.4955	3284.5	2399.25
972.4089	2451.8613	3272.5	2392.75
972.538	2453.2265	3251.55	2369.15
972.6671	2454.5909	3254.9	2372.05
972.7961	2455.9546	3254.65	2374.1
972.9251	2457.3177	3235.65	2353.3
973.0541	2458.68	3228.7	2344.5
973.1831	2460.0416	3220	2340.7
973.312	2461.4025	3226.3	2342.7
973.4408	2462.7627	3215.05	2322.15
973.5697	2464.1222	3202.65	2323.65
973.6985	2465.4811	3192.65	2310.05
973.8273	2466.8392	3181.75	2300.5
973.956	2468.1966	3183.7	2301.05
974.0847	2469.5533	3168.65	2284.25
974.2134	2470.9093	3175.05	2293.2
974.3421	2472.2645	3164.1	2280.4
974.4707	2473.6191	3154.1	2273.15
974.5993	2474.973	3132.75	2250.9
974.7278	2476.3262	3135.9	2250.5
974.8563	2477.6787	3112.75	2233
974.9848	2479.0305	3091.6	2210.1
975.1132	2480.3816	3103.65	2221.2
975.2417	2481.7319	3093.3	2212.95
975.37	2483.0816	3083.85	2202.05
975.4984	2484.4306	3072.85	2192.6
975.6267	2485.7789	3063.3	2183.75
975.755	2487.1264	3062.4	2179.45
975.8833	2488.4733	3049.55	2169.65
976.0115	2489.8195	3048.2	2158.8
976.1397	2491.165	3031.95	2147.25
976.2678	2492.5097	3026.6	2142.75
976.3959	2493.8538	3009.8	2127.1
976.524	2495.1972	2990.25	2107.85
976.6521	2496.5398	2987.55	2105.7
976.7801	2497.8818	2991.25	2106.45
976.9081	2499.2231	2980.9	2099.75
977.036	2500.5637	2965.65	2081.05
977.164	2501.9035	2962.75	2082.1
977.2918	2503.2427	2955.1	2069.65
977.4197	2504.5812	2940.35	2060.65
977.5475	2505.919	2944.45	2058.3
977.6753	2507.256	2940.85	2059
977.8031	2508.5924	2930.7	2048.7
977.9308	2509.9281	2923.65	2035.65
978.0585	2511.2631	2902.65	2022.5
978.1861	2512.5974	2895	2013.9
978.3137	2513.9309	2884.75	2001.5
978.4413	2515.2638	2897.85	1988.35
978.5689	2516.596	2876.1	1994.9
978.6964	2517.9275	2882.9	2001.2
978.8239	2519.2583	2866.65	1985.95
978.9513	2520.5884	2858.1	1974.85
979.0788	2521.9178	2839.45	1956.3
979.2062	2523.2465	2843.2	1961.45
979.3335	2524.5745	2825.8	1943.05
979.4608	2525.9018	2822.4	1940.15
979.5881	2527.2284	2821.4	1941.3
979.7154	2528.5543	2813.95	1931.25
979.8426	2529.8796	2806.1	1925.6
979.9698	2531.2041	2789.2	1910
980.0969	2532.5279	2790.9	1911.1
980.224	2533.851	2779.25	1898.85
980.3511	2535.1735	2779.7	1898.85
980.4781	2536.4952	2765.45	1883.95
980.6052	2537.8163	2779.3	1896.95
980.7321	2539.1366	2761.35	1879.95
980.8591	2540.4562	2751.65	1872.05
980.986	2541.7752	2740.5	1860.2
981.1129	2543.0935	2738.75	1856.05
981.2397	2544.411	2733.25	1850.15
981.3665	2545.7279	2729.7	1851.15
981.4933	2547.0441	2727.95	1845.8
981.62	2548.3596	2731.15	1847.2
981.7467	2549.6744	2727.4	1845.2
981.8734	2550.9885	2713.9	1824.2
982.0001	2552.3019	2711.6	1830.8
982.1267	2553.6146	2704.95	1823.05
982.2532	2554.9266	2693.75	1812.15
982.3798	2556.2379	2698.35	1813.2
982.5063	2557.5485	2688.8	1810.3
982.6327	2558.8585	2682.75	1793.1
982.7592	2560.1677	2684.45	1798.8
982.8856	2561.4762	2681.4	1800.75
983.0119	2562.7841	2659.45	1776
983.1383	2564.0913	2647.05	1767.5
983.2646	2565.3977	2653	1771.25
983.3908	2566.7035	2653.85	1771.3
983.517	2568.0086	2650.6	1768.55
983.6432	2569.313	2643.35	1761.5
983.7694	2570.6167	2634.25	1750
983.8955	2571.9197	2634.05	1754.85
984.0216	2573.222	2620.6	1737
984.1476	2574.5236	2624.4	1741.85
984.2737	2575.8246	2618.65	1734.3
984.3996	2577.1248	2611.2	1729.1
984.5256	2578.4244	2610.45	1729.5
984.6515	2579.7232	2608.85	1726
984.7774	2581.0214	2623.35	1716.05
984.9032	2582.3189	2595.35	1714.05
985.029	2583.6157	2589.15	1703.4
985.1548	2584.9118	2584	1704.45
985.2806	2586.2072	2577.35	1695.1
985.4063	2587.5019	2571.95	1692.55
985.5319	2588.7959	2567.95	1686.05
985.6576	2590.0893	2562.6	1681
985.7832	2591.3819	2545.2	1665.05
985.9087	2592.6739	2542.6	1660.8
986.0343	2593.9652	2542.85	1661.25
986.1597	2595.2557	2536.05	1653.7
986.2852	2596.5456	2519.75	1636.5
986.4106	2597.8348	2513	1630.9
986.536	2599.1234	2505.8	1625.7
986.6614	2600.4112	2509.05	1628.3
986.7867	2601.6983	2493.05	1608.3
986.912	2602.9848	2487.95	1605.9
987.0372	2604.2705	2483.8	1596.2
987.1624	2605.5556	2476.95	1595.6
987.2876	2606.84	2471	1589.7
987.4128	2608.1237	2469.7	1589.1
987.5379	2609.4067	2452.15	1569.3
987.6629	2610.689	2462.05	1572.9
987.788	2611.9707	2453	1567.8
987.913	2613.2516	2454.65	1567.95
988.0379	2614.5319	2425.85	1545.4
988.1629	2615.8115	2417.6	1535.2
988.2878	2617.0903	2419.15	1537.35
988.4126	2618.3685	2400.85	1518.65
988.5375	2619.6461	2387.95	1506.45
988.6622	2620.9229	2397.2	1517.2
988.787	2622.199	2394.8	1511.8
988.9117	2623.4745	2394.55	1514.95
989.0364	2624.7493	2382.45	1503.15
989.161	2626.0234	2367.7	1488.6
989.2857	2627.2968	2369.65	1488.4
989.4102	2628.5695	2361.55	1477.1
989.5348	2629.8415	2347.95	1466.8
989.6593	2631.1128	2347.6	1463.8
989.7837	2632.3835	2335.25	1453.85
989.9082	2633.6535	2331.35	1450.1
990.0326	2634.9228	2329.75	1447.5
990.1569	2636.1914	2317.15	1437.3
990.2812	2637.4593	2326	1438
990.4055	2638.7265	2312.75	1431.6
990.5298	2639.9931	2307.1	1427.8
990.654	2641.259	2297.25	1415.1
990.7782	2642.5242	2301	1419.5
990.9023	2643.7887	2292	1408.95
991.0264	2645.0525	2286.95	1405.75
991.1505	2646.3156	2285.85	1405.35
991.2745	2647.5781	2272.65	1392.25
991.3985	2648.8398	2260.2	1379.35
991.5225	2650.1009	2253.2	1363.95
991.6464	2651.3613	2248.25	1367.4
991.7703	2652.6211	2246.95	1366.15
991.8942	2653.8801	2247.15	1365.6
992.018	2655.1385	2248	1364.3
992.1418	2656.3961	2228.25	1349.4
992.2655	2657.6531	2231.8	1351.35
992.3892	2658.9094	2224.05	1342
992.5129	2660.1651	2219.95	1338.65
992.6366	2661.42	2226.4	1345.55
992.7602	2662.6743	2218.75	1336.95
992.8837	2663.9279	2204.95	1323.9
993.0073	2665.1808	2205.1	1322.9
993.1307	2666.433	2196.9	1312.7
993.2542	2667.6846	2188.85	1307.4
993.3776	2668.9354	2195.65	1309.3
993.501	2670.1856	2193.35	1310.9
993.6244	2671.4351	2179.5	1299.35
993.7477	2672.6839	2179.95	1296.95
993.8709	2673.9321	2178.4	1298.8
993.9942	2675.1795	2167.95	1286.4
994.1174	2676.4263	2155.35	1274.55
994.2405	2677.6724	2157.2	1276.85
994.3637	2678.9179	2159.5	1276.8
994.4868	2680.1626	2147.6	1267
994.6098	2681.4067	2151.9	1269.35
994.7328	2682.6501	2137	1258.1
994.8558	2683.8928	2130.45	1249.95
994.9788	2685.1348	2127.2	1248.2
995.1017	2686.3761	2117.25	1237.95
995.2245	2687.6168	2109	1229.65
995.3474	2688.8568	2108.35	1227.25
995.4702	2690.0961	2092.95	1213.5
995.5929	2691.3348	2097.5	1216
995.7156	2692.5727	2097.85	1215.35
995.8383	2693.81	2087.95	1207.35
995.961	2695.0466	2087.2	1204.6
996.0836	2696.2826	2087.45	1203.85
996.2062	2697.5178	2080.2	1194.7
996.3287	2698.7524	2083	1201.35
996.4512	2699.9863	2074.35	1191.5
996.5737	2701.2195	2065.1	1184.75
996.6961	2702.452	2066.55	1185.75
996.8185	2703.6839	2068.8	1187.6
996.9408	2704.9151	2054.45	1173.75
997.0631	2706.1456	2043.9	1161.4
997.1854	2707.3755	2046.2	1165.75
997.3077	2708.6046	2048.6	1164.2
997.4299	2709.8331	2038.75	1157.05
997.552	2711.0609	2022.05	1141.55
997.6742	2712.2881	2022.5	1142.5
997.7963	2713.5145	2029.05	1143.95
997.9183	2714.7403	2022.9	1141.95
998.0403	2715.9654	2013.75	1132.65
998.1623	2717.1899	2024.8	1130.55
998.2842	2718.4136	2001.25	1121.5
998.4062	2719.6367	1999.95	1117.8
998.528	2720.8591	2002.85	1114.7
998.6498	2722.0809	1983	1101.8
998.7716	2723.3019	1993.55	1110.3
998.8934	2724.5223	1981.65	1101.1
999.0151	2725.7421	1977.65	1093.65
999.1368	2726.9611	1965.75	1083.05
999.2584	2728.1795	1966.35	1078.1
999.38	2729.3972	1961.15	1079.9
999.5016	2730.6142	1965.85	1070.2
999.6231	2731.8306	1944.85	1064.5
999.7446	2733.0462	1943	1059.6
999.8661	2734.2612	1937.65	1052.45
999.9875	2735.4756	1936.3	1055.1
1000.1089	2736.6892	1926.45	1044.6
1000.2302	2737.9022	1918.55	1039.95
1000.3515	2739.1145	1915.45	1034.2
1000.4728	2740.3262	1918.55	1029.1
1000.594	2741.5372	1902.55	1021.65
1000.7152	2742.7475	1896.1	1013.95
1000.8363	2743.9571	1898.7	1017
1000.9575	2745.1661	1891.7	1005.85
1001.0785	2746.3744	1889.7	1009.05
1001.1996	2747.582	1884.55	1005.95
1001.3206	2748.7889	1879.75	996.9
1001.4415	2749.9952	1877.55	997.1
1001.5625	2751.2008	1873.75	990.5
1001.6833	2752.4057	1870.25	988.2
1001.8042	2753.61	1863.3	980.8
1001.925	2754.8136	1854.95	970.6
1002.0458	2756.0165	1855.4	975.35
1002.1665	2757.2188	1846.8	966.15
1002.2872	2758.4204	1841.4	961.3
1002.4078	2759.6213	1842.95	960.35
1002.5285	2760.8215	1844	960.2
1002.649	2762.0211	1831.6	948.8
1002.7696	2763.22	1836.45	950.85
1002.8901	2764.4182	1834.15	951.55
1003.0106	2765.6158	1831.15	950.85
1003.131	2766.8127	1820.7	936.6
1003.2514	2768.009	1813.65	933.2
1003.3717	2769.2045	1811.55	927.6
1003.492	2770.3994	1813.75	931.2
1003.6123	2771.5936	1808.6	927.4
1003.7325	2772.7872	1800.25	919.2
1003.8527	2773.9801	1794.25	910.4
1003.9729	2775.1723	1810.1	909.3
1004.093	2776.3639	1797.35	918.55
1004.2131	2777.5548	1783.35	900.1
1004.3331	2778.745	1776.7	894.1
1004.4531	2779.9346	1778.45	897.2
1004.5731	2781.1235	1778.65	897.25
1004.693	2782.3117	1774.15	893.95
1004.8129	2783.4992	1767.85	887.7
1004.9328	2784.6861	1762.65	879.55
1005.0526	2785.8723	1757.8	877.25
1005.1723	2787.0579	1753.1	871.55
1005.2921	2788.2428	1754.55	873.95
1005.4118	2789.427	1750.7	871
1005.5314	2790.6106	1748.4	867.55
1005.651	2791.7935	1746.85	866.45
1005.7706	2792.9757	1731.35	853.2
1005.8902	2794.1573	1735.4	851.05
1006.0097	2795.3382	1724.9	843
1006.1291	2796.5184	1717.55	838.1
1006.2485	2797.698	1712.8	829.45
1006.3679	2798.8769	1725.9	843.85
1006.4873	2800.0551	1720.85	839
1006.6066	2801.2327	1704.45	819.3
1006.7258	2802.4096	1705.1	825.15
1006.8451	2803.5859	1698	815.95
1006.9642	2804.7615	1705.65	824.3
1007.0834	2805.9364	1689.75	812.05
1007.2025	2807.1106	1692.1	814.95
1007.3216	2808.2842	1686.55	803.65
1007.4406	2809.4572	1681.45	800.95
1007.5596	2810.6294	1691.05	807.9
1007.6785	2811.801	1682.7	802
1007.7975	2812.972	1681.6	801.75
1007.9163	2814.1423	1681.1	800.2
1008.0352	2815.3119	1674.25	795.25
1008.154	2816.4808	1673.9	795.3
1008.2727	2817.6491	1674.55	791.95
1008.3914	2818.8167	1672.65	794.85
1008.5101	2819.9837	1684.6	799.15
1008.6288	2821.15	1675.9	793.4
1008.7474	2822.3157	1689	809.55
1008.8659	2823.4807	1690.9	808.95
1008.9844	2824.645	1689.35	807.05
1009.1029	2825.8086	1689.7	810.45
1009.2214	2826.9716	1693.75	813.8
1009.3398	2828.134	1711.7	831.45
1009.4581	2829.2957	1713.7	831.7
1009.5764	2830.4567	1716.5	838.95
1009.6947	2831.617	1712.75	831.45
1009.813	2832.7767	1719.8	840.95
1009.9312	2833.9358	1714.9	836.1
1010.0493	2835.0941	1708.15	823.55
1010.1675	2836.2519	1700.4	820.45
1010.2855	2837.4089	1703.8	821.85
1010.4036	2838.5653	1697.8	816.6
1010.5216	2839.7211	1685.25	806.6
1010.6396	2840.8761	1680.8	796.7
1010.7575	2842.0306	1686.45	809.25
1010.8754	2843.1843	1680.55	800.1
1010.9932	2844.3374	1675.65	794.95
1011.111	2845.4899	1675	796.35
1011.2288	2846.6417	1679.05	799.25
1011.3465	2847.7928	1677.95	798.1
1011.4642	2848.9433	1670.45	788.8
1011.5818	2850.0931	1669.65	789.55
1011.6995	2851.2422	1674	792.55
1011.817	2852.3907	1671.55	789.25
1011.9345	2853.5385	1660.4	778.15
1012.052	2854.6857	1676	783.9
1012.1695	2855.8323	1669.7	790.25
1012.2869	2856.9781	1662.5	782.2
1012.4042	2858.1233	1663	783.8
1012.5216	2859.2679	1665.85	784.8
1012.6389	2860.4118	1669.05	788.6
1012.7561	2861.555	1662.95	778.25
1012.8733	2862.6976	1665	782.1
1012.9905	2863.8395	1666.05	787.9
1013.1076	2864.9808	1663.25	784.5
1013.2247	2866.1214	1657.9	778.75
1013.3417	2867.2614	1668.05	787.5
1013.4587	2868.4007	1659.5	779
1013.5757	2869.5393	1657.5	774.9
1013.6926	2870.6773	1657.5	774.2
1013.8095	2871.8146	1655.15	771.9
1013.9263	2872.9513	1655.85	771.65
1014.0431	2874.0874	1654.65	774.95
1014.1599	2875.2227	1650.2	767.45
1014.2766	2876.3574	1653.05	772.3
1014.3933	2877.4915	1649.7	769.05
1014.51	2878.6249	1646.2	767.5
1014.6266	2879.7577	1654.2	773
1014.7431	2880.8898	1653.8	765.1
1014.8596	2882.0212	1644.65	764.9
1014.9761	2883.152	1637.85	757.05
1015.0925	2884.2821	1642.5	762.55
1015.2089	2885.4116	1636.35	756.25
1015.3253	2886.5405	1642.4	761.35
1015.4416	2887.6686	1631.5	751.05
1015.5579	2888.7962	1631.1	752.95
1015.6741	2889.923	1634.55	753.9
1015.7903	2891.0493	1628	747.9
1015.9065	2892.1748	1625.4	745.05
1016.0226	2893.2997	1616.45	734.45
1016.1387	2894.424	1617.1	738.8
1016.2547	2895.5476	1619.75	739.95
1016.3707	2896.6706	1611.25	733.45
1016.4866	2897.7929	1610.2	728.6
1016.6025	2898.9145	1613.2	731.6
1016.7184	2900.0355	1618.55	735.8
1016.8342	2901.1559	1608.25	726.25
1016.95	2902.2756	1598.6	719.35
1017.0658	2903.3946	1592.4	712.55
1017.1815	2904.513	1599.3	716.4
1017.2971	2905.6308	1589.8	710.15
1017.4127	2906.7479	1574.45	693.45
1017.5283	2907.8643	1588.05	707.3
1017.6439	2908.9801	1583.7	704.8
1017.7594	2910.0953	1579.35	698.05
1017.8748	2911.2098	1580.5	697.75
1017.9902	2912.3236	1583.5	695.6
1018.1056	2913.4368	1583.1	700.25
1018.2209	2914.5494	1564.9	684.3
1018.3362	2915.6613	1571.9	685.9
1018.4515	2916.7725	1566.4	683.8
1018.5667	2917.8831	1558.6	676.75
1018.6819	2918.9931	1555.6	673.05
1018.797	2920.1024	1539.25	656.95
1018.9121	2921.211	1548.35	667.1
1019.0271	2922.319	1544.8	663.7
1019.1421	2923.4264	1535.2	652.95
1019.2571	2924.5331	1537.85	659.5
1019.372	2925.6391	1530.15	651.25
1019.4869	2926.7445	1527.95	649.2
1019.6017	2927.8493	1527.5	648.15
1019.7165	2928.9534	1520.65	640.2
1019.8313	2930.0569	1524.2	639.9
1019.946	2931.1597	1522.15	641.6
1020.0606	2932.2619	1522.2	640.5
1020.1753	2933.3634	1517.95	636.15
1020.2899	2934.4643	1527.35	639.7
1020.4044	2935.5645	1526.5	641.85
1020.5189	2936.6641	1526.2	642.1
1020.6334	2937.763	1515	634.5
1020.7478	2938.8613	1521.35	640.6
1020.8622	2939.959	1519.85	634.55
1020.9765	2941.056	1500.95	622.15
1021.0908	2942.1523	1498.15	616.55
1021.2051	2943.248	1496.9	614.65
1021.3193	2944.3431	1477.4	597.2
1021.4334	2945.4375	1470.9	588.95
1021.5476	2946.5313	1462.55	582.35
1021.6617	2947.6244	1463.3	584.4
1021.7757	2948.7169	1444.5	563.45
1021.8897	2949.8087	1433.85	555.45
1022.0037	2950.8999	1425.2	544.2
1022.1176	2951.9904	1421.8	542.55
1022.2315	2953.0803	1418.1	537.75
1022.3453	2954.1696	1410.6	530.45
1022.4591	2955.2582	1404.95	524.1
1022.5728	2956.3462	1402.3	521.6
1022.6865	2957.4335	1392.1	511.3
1022.8002	2958.5202	1392.2	510.2
1022.9138	2959.6062	1394.95	514.7
1023.0274	2960.6916	1379.95	500.55
1023.141	2961.7764	1383.8	503.7
1023.2545	2962.8605	1385	503.7
1023.3679	2963.9439	1381.7	502.7
1023.4813	2965.0267	1378.45	497.5
1023.5947	2966.1089	1397.75	489.95
1023.708	2967.1905	1371.95	492.55
1023.8213	2968.2714	1369.1	489.7
1023.9346	2969.3516	1378.6	500.45
1024.0478	2970.4312	1370.45	484.1
1024.1609	2971.5102	1364.4	485.8
1024.274	2972.5885	1360.45	480.75
1024.3871	2973.6662	1367.9	482.15
1024.5002	2974.7432	1354.9	473.05
1024.6132	2975.8196	1355.85	474.65
1024.7261	2976.8954	1356.8	475.3
1024.839	2977.9705	1351.55	472
1024.9519	2979.045	1353.15	472.15
1025.0647	2980.1188	1346.9	465.55
1025.1775	2981.192	1342.25	464.45
1025.2902	2982.2645	1347.55	466.5
1025.4029	2983.3364	1339.85	460.65
1025.5156	2984.4077	1334.2	454.7
1025.6282	2985.4783	1330.85	445.65
1025.7407	2986.5483	1327.9	448.95
1025.8532	2987.6177	1325.3	446.25
1025.9657	2988.6864	1315.5	432.65
1026.0782	2989.7545	1318.85	439.3
1026.1906	2990.8219	1312.15	433.05
1026.3029	2991.8887	1314.95	433.55
1026.4152	2992.9548	1309.15	428.1
1026.5275	2994.0204	1306.9	427.5
1026.6397	2995.0852	1298	420.25
1026.7519	2996.1495	1294.8	414.3
1026.864	2997.2131	1287.85	408.85
1026.9761	2998.276	1286.85	406.75
1027.0882	2999.3383	1285.9	405.3
1027.2002	3000.4	1277.5	395.5
1027.3122	3001.4611	1276.35	395.2
1027.4241	3002.5215	1275.25	394.5
1027.536	3003.5812	1268.05	387.2
1027.6478	3004.6404	1267.65	387.2
1027.7596	3005.6989	1265.15	383.05
1027.8714	3006.7567	1264.3	382.45
1027.9831	3007.8139	1285.7	380.65
1028.0947	3008.8705	1256.6	377.95
1028.2064	3009.9264	1259.55	377.35
1028.3179	3010.9818	1256.55	375.6
1028.4295	3012.0364	1256.45	374.95
1028.541	3013.0905	1247.4	368.6
1028.6524	3014.1439	1248.05	369.15
1028.7638	3015.1966	1246.05	365.55
1028.8752	3016.2487	1240.7	362.85
1028.9865	3017.3002	1253.5	365.35
1029.0978	3018.3511	1243.15	365
1029.209	3019.4013	1235.4	355.8
1029.3202	3020.4509	1235.8	356.25
1029.4314	3021.4998	1242.8	362.75
1029.5425	3022.5481	1233.3	353.05
1029.6535	3023.5958	1232.4	352.8
1029.7645	3024.6428	1236.1	353.9
1029.8755	3025.6892	1231.75	351.9
1029.9864	3026.735	1227.6	346.3
1030.0973	3027.7802	1224.25	342.3
1030.2082	3028.8247	1214.85	333.9
1030.319	3029.8685	1219.1	336.55
1030.4297	3030.9118	1222.05	341.25
1030.5404	3031.9544	1224.95	346.45
1030.6511	3032.9963	1212.2	333.4
1030.7617	3034.0376	1220.35	340.65
1030.8723	3035.0783	1218.25	334.65
1030.9829	3036.1184	1217.5	335.85
1031.0934	3037.1578	1211.7	332.6
1031.2038	3038.1966	1211.2	329.35
1031.3142	3039.2348	1212.55	334.8
1031.4246	3040.2723	1219.35	330.65
1031.5349	3041.3092	1203.3	323.8
1031.6452	3042.3455	1205.65	326.2
1031.7554	3043.3811	1202.6	321.65
1031.8656	3044.4161	1202.1	320.9
1031.9758	3045.4505	1202.3	323.55
1032.0859	3046.4842	1195.8	315.2
1032.1959	3047.5173	1203.9	323.15
1032.3059	3048.5498	1197.35	319.3
1032.4159	3049.5816	1200.1	319.05
1032.5258	3050.6128	1197.1	315.55
1032.6357	3051.6434	1195.2	312.95
1032.7455	3052.6734	1193.4	313.8
1032.8553	3053.7027	1195.55	316.4
1032.9651	3054.7314	1194.15	315.7
1033.0748	3055.7594	1187.35	306.9
1033.1845	3056.7868	1187.65	305.8
1033.2941	3057.8136	1190.9	310.4
1033.4037	3058.8398	1186.3	307.5
1033.5132	3059.8653	1193.6	313.85
1033.6227	3060.8902	1178.1	298.6
1033.7321	3061.9145	1187.35	307.45
1033.8415	3062.9381	1186.75	306.55
1033.9509	3063.9612	1198.85	302.8
1034.0602	3064.9835	1185.15	306.55
1034.1694	3066.0053	1188.35	307.15
1034.2787	3067.0264	1176.65	296.15
1034.3878	3068.0469	1180	296.85
1034.497	3069.0668	1181.3	297.75
1034.6061	3070.086	1173.55	294.75
1034.7151	3071.1046	1177.1	297.55
1034.8241	3072.1226	1175.6	294.45
1034.9331	3073.1399	1166.9	288.3
1035.042	3074.1567	1167.85	288.8
1035.1508	3075.1727	1166.7	285.85
1035.2597	3076.1882	1163.7	283.45
1035.3684	3077.203	1161.6	282.35
1035.4772	3078.2173	1167.95	286.55
1035.5859	3079.2308	1165.9	280.4
1035.6945	3080.2438	1163.8	278.9
1035.8031	3081.2561	1158.5	278.35
1035.9117	3082.2678	1158.65	279.2
1036.0202	3083.2789	1154.9	275.15
1036.1286	3084.2893	1156.15	275.95
1036.2371	3085.2991	1149.85	270.45
1036.3454	3086.3083	1155.4	270.65
1036.4538	3087.3169	1151.15	270.15
1036.562	3088.3248	1150.55	268.5
1036.6703	3089.3321	1146.1	263.75
1036.7785	3090.3388	1141.05	261.3
1036.8866	3091.3449	1147.55	266.85
1036.9948	3092.3503	1146.8	264.3
1037.1028	3093.3551	1145	266.55
1037.2108	3094.3593	1141.05	262.65
1037.3188	3095.3629	1143.8	266.1
1037.4267	3096.3658	1142.35	261.2
1037.5346	3097.3681	1137.35	258.3
1037.6425	3098.3698	1133.15	253.95
1037.7503	3099.3708	1140.25	254.25
1037.858	3100.3713	1130.65	251.2
1037.9657	3101.3711	1131.45	251.3
1038.0734	3102.3702	1265.55	251.85
1038.181	3103.3688	1130.1	247.85
1038.2886	3104.3667	1123.65	246.6
1038.3961	3105.364	1123.7	242.45
1038.5036	3106.3607	1129.2	247
1038.611	3107.3568	1120.4	238.45
1038.7184	3108.3522	1121.25	241.05
1038.8257	3109.347	1116.6	235.25
1038.933	3110.3412	1123.05	239.65
1039.0403	3111.3348	1118.35	238.95
1039.1475	3112.3277	1114.25	233.85
1039.2547	3113.32	1116.5	237.5
1039.3618	3114.3117	1112.8	233.9
1039.4689	3115.3028	1112.45	233.75
1039.5759	3116.2932	1110.1	228.75
1039.6829	3117.2831	1114.45	229.7
1039.7898	3118.2723	1103.6	225.35
1039.8967	3119.2608	1102.7	222.25
1040.0035	3120.2488	1103.8	223.25
1040.1103	3121.2361	1100.35	220.75
1040.2171	3122.2229	1099.75	220.05
1040.3238	3123.209	1100.7	221.4
1040.4305	3124.1944	1096.65	218.4
1040.5371	3125.1793	1096.9	214.55
1040.6437	3126.1635	1100.1	220.35
1040.7502	3127.1471	1097.3	218.35
1040.8567	3128.1301	1090.8	210.85
1040.9631	3129.1125	1094.85	215.95
1041.0695	3130.0942	1096.4	217.25
1041.1759	3131.0753	1098.1	210.95
1041.2822	3132.0558	1089.65	207.4
1041.3884	3133.0357	1088.7	205.85
1041.4946	3134.015	1085.9	205.95
1041.6008	3134.9936	1091.4	209.2
1041.7069	3135.9716	1106	207.45
1041.813	3136.949	1088.5	208.1
1041.919	3137.9258	1088.5	204.1
1042.025	3138.902	1088.15	203.45
1042.1309	3139.8775	1083.35	204.3
1042.2368	3140.8524	1081.85	201.6
1042.3427	3141.8267	1083.95	202.35
1042.4485	3142.8004	1081.65	200.3
1042.5542	3143.7735	1086.7	201.4
1042.6599	3144.7459	1083.35	200
1042.7656	3145.7178	1081.7	202.9
1042.8712	3146.689	1075.55	196.45
1042.9768	3147.6596	1074.65	192.25
1043.0823	3148.6295	1074.7	193.75
1043.1878	3149.5989	1077.2	198.75
1043.2932	3150.5676	1072.4	193.35
1043.3986	3151.5357	1069.15	191.4
1043.5039	3152.5032	1073.8	194.05
1043.6092	3153.4701	1072.35	191.6
1043.7145	3154.4364	1072.35	191.45
1043.8197	3155.402	1065.75	186.45
1043.9248	3156.367	1067.75	187.3
1044.03	3157.3315	1104.4	187.1
1044.135	3158.2952	1063.7	186.5
1044.24	3159.2584	1061.6	182.65
1044.345	3160.221	1062.45	182.95
1044.4499	3161.1829	1058.5	180.05
1044.5548	3162.1442	1055.85	176.85
1044.6596	3163.105	1057.15	177.5
1044.7644	3164.065	1062.85	184.45
1044.8692	3165.0245	1058.9	177.3
1044.9739	3165.9834	1056.3	176
1045.0785	3166.9416	1050.85	171.8
1045.1831	3167.8993	1053.85	174.75
1045.2877	3168.8563	1054.6	174.15
1045.3922	3169.8127	1051	171.05
1045.4966	3170.7684	1050.3	172.05
1045.6011	3171.7236	1050.9	170.3
1045.7054	3172.6782	1046.75	168.1
1045.8098	3173.6321	1048.35	167.05
1045.914	3174.5854	1049.8	166.95
1046.0183	3175.5381	1045.05	165.65
1046.1224	3176.4902	1048	169.35
1046.2266	3177.4417	1043.65	165.05
1046.3307	3178.3926	1045.65	163.8
1046.4347	3179.3428	1045.9	167.2
1046.5387	3180.2924	1044.9	166.2
1046.6427	3181.2415	1044.7	163.8
1046.7466	3182.1899	1038.65	157.65
1046.8504	3183.1377	1041.4	163.4
1046.9542	3184.0848	1040	158.2
1047.058	3185.0314	1039.55	158.5
1047.1617	3185.9773	1038.8	159
1047.2654	3186.9227	1035.3	154
1047.369	3187.8674	1033.55	155.8
1047.4726	3188.8115	1041.8	156.8
1047.5761	3189.755	1035.45	155.25
1047.6796	3190.6979	1030	150.95
1047.783	3191.6402	1031.7	150.65
1047.8864	3192.5818	1034.35	155.9
1047.9898	3193.5229	1037.45	151.95
1048.0931	3194.4633	1031.05	152.15
1048.1963	3195.4031	1031.35	149.7
1048.2995	3196.3423	1028.55	149.35
1048.4027	3197.2809	1026.6	149.65
1048.5058	3198.2189	1023.85	144.6
1048.6089	3199.1563	1032.95	148.25
1048.7119	3200.0931	1025.6	147.8
1048.8148	3201.0292	1018.4	141.4
1048.9178	3201.9648	1020.8	142.05
1049.0206	3202.8997	1029.25	147.2
1049.1235	3203.834	1021.45	140.7
1049.2262	3204.7677	1021	141.5
1049.329	3205.7008	1023.4	141.3
1049.4317	3206.6333	1014.7	136.1
1049.5343	3207.5652	1022.7	139.25
1049.6369	3208.4964	1020.1	141.3
1049.7394	3209.4271	1018.5	140.6
1049.8419	3210.3571	1016.1	136.65
1049.9444	3211.2865	1015.55	135.1
1050.0468	3212.2154	1015.2	133.45
1050.1491	3213.1436	1014.7	131.25
1050.2514	3214.0712	1022.55	136.2
1050.3537	3214.9982	1008.95	129.45
1050.4559	3215.9246	1011.7	131.85
1050.5581	3216.8503	1010.75	132.1
1050.6602	3217.7755	1010.75	130.7
1050.7623	3218.7001	1014.85	135.05
1050.8643	3219.624	1008.95	130.05
1050.9663	3220.5473	1006.25	126.1
1051.0682	3221.4701	1010.35	130.55
1051.1701	3222.3922	1009.1	126.55
1051.2719	3223.3137	1011.45	131.85
1051.3737	3224.2346	1012.1	132.35
1051.4754	3225.1549	1006.35	127.05
1051.5771	3226.0746	1004.45	126.1
1051.6788	3226.9937	1005.05	126.6
1051.7804	3227.9121	1005.05	124.85
1051.8819	3228.83	1009.5	129.8
1051.9834	3229.7473	1001	119.05
1052.0849	3230.6639	1002.4	121
1052.1863	3231.5799	1000.2	119.25
1052.2876	3232.4954	1000.85	121
1052.3889	3233.4102	998.65	118.15
1052.4902	3234.3244	1000.8	120.85
1052.5914	3235.238	998.6	121.65
1052.6926	3236.151	1021.75	118.35
1052.7937	3237.0634	999.9	121.5
1052.8948	3237.9752	997.8	118.65
1052.9958	3238.8864	996.95	114.6
1053.0968	3239.797	997.65	119.6
1053.1977	3240.7069	996.35	116.55
1053.2986	3241.6163	994.75	114.15
1053.3994	3242.5251	989.2	110.65
1053.5002	3243.4332	990.2	110
1053.6009	3244.3408	993.4	112.95
1053.7016	3245.2477	991.8	113.1
1053.8022	3246.154	993.05	112
1053.9028	3247.0598	990.5	110.3
1054.0034	3247.9649	989.45	107.15
1054.1039	3248.8694	988.1	107.35
1054.2043	3249.7733	988.9	109.9
1054.3047	3250.6766	986.3	106.75
1054.4051	3251.5793	985.2	105.9
1054.5054	3252.4814	988.1	108.6
1054.6056	3253.3829	982.3	105.7
1054.7058	3254.2838	983.4	104.25
1054.806	3255.1841	983.75	105.1
1054.9061	3256.0838	984.25	104.95
1055.0061	3256.9829	981.5	102.75
1055.1062	3257.8814	980.15	99.3
1055.2061	3258.7792	984.4	103
1055.306	3259.6765	981.45	100.75
1055.4059	3260.5731	974.55	95.45
1055.5057	3261.4692	977.9	96.25
1055.6055	3262.3647	975.95	94.2
1055.7052	3263.2595	975.35	95.5
1055.8049	3264.1538	972.25	92.3
1055.9045	3265.0474	970.85	89.4
1056.0041	3265.9404	969.65	91.65
1056.1036	3266.8329	970.45	91.75
1056.2031	3267.7247	974.55	86.4
1056.3025	3268.616	962.5	85
1056.4019	3269.5066	965.85	84.65
1056.5013	3270.3966	962.65	80.2
1056.6005	3271.286	956.8	78.85
