Software Version:	3.9.2.0
Unit SN:	10000200
Spectrometer SN:	6960
Date:	3/6/2024 9:25:51 AM
Data Line Index:	25
Spectral Points:	2048
Integration time (ms):	125
Averages:	20
Delay (ms):	30
Sequence Number:	1
Processing:	dark subtract
Laser Power (mW):	300
Laser Current (mA):	816
Laser Diode Temp (C):	25.1
Laser Case Temp (C):	22.8
System Temp (C):	22.6
Spectrometer Temp (C):	20.6
CCD Temp (C):	-0.029
Secondary Temp (C):	20.007
Heatsink Temp (C):	17.45
CCDPCB Temp (C):	29.293
SecondaryPCB Temp (C):	25.047

Wavelength	RamanShift	Raw Counts	Dark Subtracted
787.061	30.1047	637.15	228.7
787.2016	32.3739	637.05	231.1
787.3422	34.6426	654.35	246.6
787.4828	36.9109	668.45	257.7
787.6235	39.1787	684.45	271.35
787.7642	41.4461	705.1	286.8
787.9049	43.7131	725.7	305.65
788.0456	45.9796	744.9	320.75
788.1863	48.2456	776.35	348.65
788.3271	50.5112	798	365.55
788.4679	52.7764	813.25	378.4
788.6087	55.0411	849.1	411.4
788.7496	57.3054	872.3	430.35
788.8904	59.5692	899.65	456.8
789.0313	61.8326	928.3	482.35
789.1722	64.0955	961.6	511.15
789.3132	66.3579	1015.1	560.65
789.4541	68.6199	1069.15	612.8
789.5951	70.8815	1160.6	697.85
789.7361	73.1426	1365	899.7
789.8771	75.4032	1892.2	1422.25
790.0181	77.6634	3179.7	2706.4
790.1592	79.9231	6375.45	5901.15
790.3003	82.1824	13408	12930.5
790.4414	84.4412	26650.25	26166.55
790.5825	86.6995	48786.1	48296.5
790.7237	88.9574	60736.1	60241.4
790.8648	91.2148	65535	65037.5
791.006	93.4717	65535	65030.9
791.1472	95.7282	65535	65029.6
791.2885	97.9842	65535	65030.1
791.4297	100.2398	65535	65025.65
791.571	102.4949	65535	65023.45
791.7123	104.7495	65535	65019.4
791.8536	107.0036	65535	65018.15
791.9949	109.2573	65535	65020.55
792.1363	111.5105	65535	65016.9
792.2777	113.7632	65535	65016.35
792.4191	116.0154	65535	65006
792.5605	118.2672	65535	65009
792.7019	120.5185	65535	65010.2
792.8434	122.7693	65535	65004.8
792.9849	125.0197	65535	64998.95
793.1264	127.2696	65535	64998
793.2679	129.519	65535	64995
793.4094	131.7679	65535	64993.5
793.551	134.0163	65535	64992.05
793.6926	136.2642	65535	64986.25
793.8342	138.5117	65535	64982.5
793.9758	140.7587	65535	64983.85
794.1175	143.0052	65535	64980.55
794.2591	145.2512	65535	64980.6
794.4008	147.4967	65535	64976.9
794.5425	149.7417	65535	64972.75
794.6842	151.9863	65535	64971.6
794.826	154.2304	65535	64967.25
794.9677	156.4739	65535	64959.95
795.1095	158.717	65535	64962.15
795.2513	160.9596	65535	64955.15
795.3931	163.2017	65535	64954.9
795.535	165.4433	65535	64953.45
795.6768	167.6844	65535	64951.6
795.8187	169.925	65535	64946.2
795.9606	172.1651	65535	64941.95
796.1025	174.4047	65535	64939
796.2445	176.6439	65535	64936.85
796.3864	178.8825	65535	64932.75
796.5284	181.1206	65535	64932.5
796.6704	183.3582	65535	64927.8
796.8124	185.5954	65535	64927.9
796.9544	187.832	65535	64920.05
797.0965	190.0681	65535	64918.7
797.2386	192.3037	65535	64916.05
797.3806	194.5388	65535	64913.15
797.5228	196.7734	65535	64912.35
797.6649	199.0075	65535	64912.05
797.807	201.2411	65535	64910.85
797.9492	203.4742	65535	64905.35
798.0914	205.7068	65535	64901.65
798.2336	207.9389	65535	64904
798.3758	210.1704	65535	64913.2
798.518	212.4015	65535	64920.65
798.6603	214.632	65535	64923.55
798.8025	216.862	65535	64924.4
798.9448	219.0915	65535	64921.3
799.0871	221.3205	65535	64920.75
799.2294	223.549	65535	64924.7
799.3718	225.777	65535	64924.75
799.5141	228.0044	65535	64915.15
799.6565	230.2314	65535	64913.45
799.7989	232.4578	65535	64908.4
799.9413	234.6837	65535	64900.25
800.0837	236.909	65535	64898.1
800.2262	239.1339	65535	64873.75
800.3687	241.3582	65535	64888.8
800.5111	243.582	65535	64860.65
800.6536	245.8053	65535	64871.35
800.7961	248.0281	65535	64876.45
800.9387	250.2503	65535	64872.7
801.0812	252.472	65535	64873.6
801.2238	254.6932	65535	64873.75
801.3664	256.9139	65535	64870.35
801.509	259.134	65535	64867.25
801.6516	261.3536	65535	64867.7
801.7942	263.5727	65535	64867.5
801.9369	265.7912	65535	64866.8
802.0795	268.0092	65535	64866.5
802.2222	270.2267	65535	64866.5
802.3649	272.4436	65535	64864.7
802.5076	274.6601	65535	64852.6
802.6504	276.8759	65535	64856.5
802.7931	279.0913	65535	64856.7
802.9359	281.3061	65535	64854.7
803.0787	283.5204	65535	64853.4
803.2215	285.7341	65535	64850.2
803.3643	287.9473	65535	64839.55
803.5071	290.16	65535	64845.75
803.6499	292.3721	65535	64852.5
803.7928	294.5837	65535	64852
803.9357	296.7947	65535	64850.6
804.0786	299.0052	65535	64849.75
804.2215	301.2152	65535	64847.25
804.3644	303.4246	65535	64847.9
804.5074	305.6334	65535	64847.4
804.6503	307.8418	65535	64840.7
804.7933	310.0495	65535	64841.1
804.9363	312.2568	65535	64845.45
805.0793	314.4635	65535	64840.4
805.2223	316.6696	65535	64837.95
805.3653	318.8752	65535	64830.8
805.5084	321.0802	65535	64836.2
805.6514	323.2847	65535	64833.7
805.7945	325.4887	65535	64834.7
805.9376	327.692	65535	64832.75
806.0807	329.8949	65535	64828.85
806.2238	332.0972	65535	64828.75
806.367	334.2989	65535	64825.25
806.5101	336.5001	65535	64824.25
806.6533	338.7007	65535	64826
806.7965	340.9008	65535	64823.65
806.9397	343.1003	65535	64821.6
807.0829	345.2992	65535	64820.45
807.2261	347.4976	65535	64816.9
807.3693	349.6955	65535	64814.75
807.5126	351.8927	65535	64812.95
807.6559	354.0895	65535	64802.05
807.7991	356.2856	65535	64811.9
807.9424	358.4812	65535	64811.9
808.0857	360.6763	65535	64807.45
808.2291	362.8707	65535	64806.8
808.3724	365.0646	65535	64803.95
808.5158	367.258	65535	64801.7
808.6591	369.4508	65535	64798
808.8025	371.643	65535	64796.55
808.9459	373.8346	65535	64797.7
809.0893	376.0257	65535	64793.5
809.2327	378.2162	65535	64795.8
809.3762	380.4062	65535	64793.35
809.5196	382.5956	65535	64794.55
809.6631	384.7844	65535	64802.45
809.8066	386.9726	65535	64799.4
809.9501	389.1603	65535	64802.55
810.0936	391.3474	65535	64755.2
810.2371	393.5339	65535	64800.75
810.3806	395.7199	65535	64803
810.5241	397.9052	65535	64802.3
810.6677	400.09	65535	64797.45
810.8113	402.2743	65535	64796.45
810.9548	404.4579	65535	64797.45
811.0984	406.641	65535	64794.2
811.2421	408.8235	65535	64792.5
811.3857	411.0054	65535	64789.75
811.5293	413.1868	65535	64788.6
811.673	415.3675	65535	64781.55
811.8166	417.5477	65535	64782.9
811.9603	419.7273	65535	64779.2
812.104	421.9064	65535	64773.3
812.2477	424.0848	65535	64777.85
812.3914	426.2627	65535	64778.5
812.5351	428.4399	65535	64776.6
812.6788	430.6166	65535	64773.5
812.8226	432.7928	65535	64773.2
812.9663	434.9683	65535	64771.45
813.1101	437.1432	65535	64769.1
813.2539	439.3176	65535	64773.25
813.3977	441.4914	65535	64773.4
813.5415	443.6645	65535	64768
813.6853	445.8371	65535	64769.1
813.8291	448.0091	65535	64769.65
813.973	450.1806	65535	64769.8
814.1168	452.3514	65535	64764.65
814.2607	454.5216	65535	64757.5
814.4046	456.6913	65535	64763.7
814.5485	458.8603	65535	64766.55
814.6924	461.0288	65535	64764.35
814.8363	463.1967	65535	64764.45
814.9802	465.3639	65535	64760.3
815.1241	467.5306	65535	64760.15
815.2681	469.6967	65535	64763.1
815.412	471.8622	65535	64762.45
815.556	474.0271	65535	64762.4
815.7	476.1914	65535	64760.2
815.844	478.3551	65535	64758.95
815.988	480.5182	65535	64756.3
816.132	482.6807	65535	64757.6
816.276	484.8426	65535	64759.8
816.4201	487.0039	65535	64758.4
816.5641	489.1647	65535	64753.6
816.7082	491.3248	65535	64755.8
816.8522	493.4843	65535	64755
816.9963	495.6432	65535	64756.5
817.1404	497.8015	65535	64750.8
817.2845	499.9592	65535	64753.05
817.4286	502.1163	65535	64750.15
817.5727	504.2728	65535	64750.8
817.7168	506.4287	65535	64751.4
817.861	508.5839	65535	64748.75
818.0051	510.7386	65535	64750.5
818.1493	512.8927	65535	64740.55
818.2935	515.0461	65535	64748.3
818.4377	517.199	65535	64746.85
818.5818	519.3512	65535	64745.85
818.726	521.5029	65535	64738.9
818.8703	523.6539	65535	64743.4
819.0145	525.8043	65535	64744.35
819.1587	527.9541	65535	64741.95
819.303	530.1033	65535	64742.7
819.4472	532.2519	65535	64740.3
819.5915	534.3999	65535	64739.7
819.7357	536.5472	65535	64738.45
819.88	538.694	65535	64739.6
820.0243	540.8401	65535	64738.9
820.1686	542.9856	65535	64736
820.3129	545.1305	65535	64736.15
820.4572	547.2748	65535	64736.7
820.6016	549.4185	65535	64734
820.7459	551.5615	65535	64736.2
820.8902	553.704	65535	64734.8
821.0346	555.8458	65535	64738.2
821.1789	557.987	65535	64738.75
821.3233	560.1276	65535	64737.65
821.4677	562.2675	65535	64736.95
821.6121	564.4069	65535	64737
821.7565	566.5456	65535	64737.4
821.9009	568.6837	65535	64734.55
822.0453	570.8212	65535	64734.75
822.1897	572.958	65535	64732
822.3342	575.0942	65535	64733.65
822.4786	577.2299	65535	64732.95
822.6231	579.3648	65535	64733.45
822.7675	581.4992	65535	64731.9
822.912	583.6329	65535	64730.5
823.0565	585.766	65535	64730.9
823.201	587.8985	65535	64732.45
823.3454	590.0304	65535	64703.05
823.4899	592.1616	65535	64723.5
823.6345	594.2922	65535	64727.95
823.779	596.4222	65535	64728.05
823.9235	598.5515	65535	64725.75
824.068	600.6802	65535	64725.85
824.2126	602.8083	65535	64724.9
824.3571	604.9358	65535	64724.9
824.5017	607.0626	65535	64726.05
824.6462	609.1888	65535	64722.4
824.7908	611.3144	65535	64722.7
824.9354	613.4393	65535	64721.7
825.08	615.5636	65535	64720.8
825.2246	617.6873	65535	64723.05
825.3692	619.8103	65535	64718.3
825.5138	621.9327	65535	64717.6
825.6584	624.0544	65535	64720.7
825.803	626.1756	65535	64719.15
825.9477	628.2961	65535	64720.8
826.0923	630.4159	65535	64718.85
826.237	632.5351	65535	64720.35
826.3816	634.6537	65535	64720.15
826.5263	636.7716	65535	64714.8
826.6709	638.8889	65535	64716.5
826.8156	641.0056	65535	64716.95
826.9603	643.1216	65535	64715.65
827.105	645.237	65535	64715.65
827.2497	647.3518	65535	64714.4
827.3944	649.4659	65535	64715.4
827.5391	651.5793	65535	64715
827.6838	653.6922	65535	64715.6
827.8285	655.8043	65535	64715.8
827.9733	657.9159	65535	64712.4
828.118	660.0268	65535	64711.65
828.2627	662.137	65535	64713.1
828.4075	664.2466	65535	64709.85
828.5522	666.3556	65535	64712.75
828.697	668.4639	65535	64710.35
828.8418	670.5716	65535	64710.95
828.9865	672.6786	65535	64706.3
829.1313	674.785	65535	64708.4
829.2761	676.8907	65535	64709.1
829.4209	678.9958	65535	64711.3
829.5657	681.1002	65535	64707.95
829.7105	683.204	65535	64703.9
829.8553	685.3072	65535	64705.6
830.0001	687.4097	65535	64705.35
830.1449	689.5115	65535	64704.45
830.2898	691.6127	65535	64707.25
830.4346	693.7132	65535	64707.55
830.5794	695.8131	65535	64686.1
830.7243	697.9123	65535	64704.9
830.8691	700.0109	65535	64704.65
831.014	702.1089	65535	64705.7
831.1588	704.2061	65535	64706.1
831.3037	706.3028	65535	64700.3
831.4486	708.3987	65535	64704.25
831.5935	710.4941	65535	64703.9
831.7383	712.5887	65535	64702
831.8832	714.6827	65535	64699.75
832.0281	716.7761	65535	64701
832.173	718.8688	65535	64702.05
832.3179	720.9608	65535	64697
832.4628	723.0522	65535	64696.9
832.6077	725.1429	65535	64702.1
832.7527	727.233	65535	64699.85
832.8976	729.3224	65535	64698.2
833.0425	731.4112	65535	64698.05
833.1874	733.4993	65535	64695.45
833.3324	735.5867	65535	64697
833.4773	737.6735	65535	64697.15
833.6222	739.7596	65535	64697.65
833.7672	741.845	65535	64698
833.9122	743.9298	65535	64694.75
834.0571	746.014	65535	64696.8
834.2021	748.0974	65535	64694.65
834.347	750.1802	65535	64694.65
834.492	752.2624	65535	64696.75
834.637	754.3439	65535	64693.8
834.782	756.4247	65535	64687.5
834.9269	758.5048	65535	64695.65
835.0719	760.5843	65535	64694.4
835.2169	762.6631	65535	64695.9
835.3619	764.7413	65535	64695.15
835.5069	766.8188	65535	64692.1
835.6519	768.8956	65535	64690.65
835.7969	770.9718	65535	64692.5
835.9419	773.0473	65535	64693.2
836.0869	775.1221	65535	64690.3
836.232	777.1962	65535	64693.65
836.377	779.2697	65535	64692.2
836.522	781.3426	65535	64680.7
836.667	783.4147	65535	64690.2
836.8121	785.4862	65535	64694.25
836.9571	787.557	65535	64690.85
837.1021	789.6271	65535	64690.05
837.2472	791.6966	65535	64690.9
837.3922	793.7654	65535	64690.25
837.5373	795.8335	65535	64687.45
837.6823	797.901	65535	64689.85
837.8274	799.9678	65535	64689.7
837.9724	802.0339	65535	64692.4
838.1175	804.0993	65535	64680.7
838.2626	806.1641	65535	64687.15
838.4076	808.2282	65535	64688.1
838.5527	810.2916	65535	64687.4
838.6978	812.3544	65535	64690.9
838.8428	814.4164	65535	64692.55
838.9879	816.4778	65535	64687.15
839.133	818.5385	65535	64688.25
839.2781	820.5986	65535	64687.1
839.4232	822.658	65535	64685.1
839.5682	824.7166	65535	64688.15
839.7133	826.7747	65535	64686.75
839.8584	828.832	65535	64685.7
840.0035	830.8886	65535	64684.3
840.1486	832.9446	65535	64684.2
840.2937	834.9999	65535	64687.1
840.4388	837.0545	65535	64683.2
840.5839	839.1085	65535	64684.85
840.729	841.1618	65535	64681.85
840.8741	843.2143	65529	64679.15
841.0192	845.2662	65531.8	64682.65
841.1643	847.3175	65535	64685.3
841.3095	849.368	65480.8	64630.65
841.4546	851.4179	65535	64685.45
841.5997	853.467	65524	64672.75
841.7448	855.5155	65535	64682.9
841.8899	857.5633	65515.9	64664.6
842.0351	859.6105	65501.5	64650.05
842.1802	861.6569	65529.4	64678.6
842.3253	863.7027	65427.7	64574.65
842.4704	865.7478	65484.55	64633.55
842.6156	867.7922	65448.55	64596.55
842.7607	869.8359	65508.05	64653.55
842.9058	871.8789	65327.65	64473.25
843.0509	873.9212	65410.1	64525.2
843.1961	875.9629	65464.25	64613.15
843.3412	878.0039	65370.7	64519.15
843.4863	880.0441	65286.55	64432
843.6315	882.0837	65351.2	64496.45
843.7766	884.1226	65332.5	64476.1
843.9218	886.1609	65339.45	64488.4
844.0669	888.1984	65226.4	64372.65
844.212	890.2352	65451.15	64596.4
844.3572	892.2714	65210.4	64350.35
844.5023	894.3069	65402.7	64546.65
844.6475	896.3416	65139.6	64283.95
844.7926	898.3757	65079.4	64225.05
844.9377	900.4091	64126.45	63269.2
845.0829	902.4418	65345.15	64485.4
845.228	904.4739	64930.75	64071.4
845.3732	906.5052	65017.95	64160.5
845.5183	908.5358	64743.7	63887.35
845.6635	910.5658	64601.1	63743.85
845.8086	912.595	64730	63873.5
845.9538	914.6236	63576.65	62719.4
846.0989	916.6515	65122.55	64266.25
846.2441	918.6786	63578.95	62720.05
846.3892	920.7051	64030.05	63170.15
846.5344	922.7309	63713.7	62856.15
846.6795	924.756	63986.3	63128.3
846.8246	926.7804	63495.3	62635.5
846.9698	928.8041	62437.3	61576.1
847.1149	930.8272	63343	62485.8
847.2601	932.8495	63475.15	62615.7
847.4052	934.8711	62745.85	61885
847.5504	936.892	62275.1	61412.45
847.6955	938.9123	62891.4	62031.85
847.8407	940.9318	62447.05	61588.55
847.9858	942.9506	62410.7	61552.1
848.131	944.9688	62579.45	61719.95
848.2761	946.9862	61414.15	60552.65
848.4213	949.003	61964.65	61105.8
848.5664	951.019	60878.55	60019.5
848.7115	953.0344	61069	60207.3
848.8567	955.0491	60946.6	60085.05
849.0018	957.063	61295.65	60434.25
849.147	959.0763	61279.4	60420.25
849.2921	961.0888	60468.15	59604.9
849.4373	963.1007	61094.9	60234.15
849.5824	965.1119	61072.1	60214.95
849.7275	967.1223	60436.85	59574.35
849.8727	969.1321	61166.3	60307.05
850.0178	971.1412	60178	59317.35
850.1629	973.1495	59851.55	58991.1
850.3081	975.1572	60305.25	59394.35
850.4532	977.1641	60025.4	59164.65
850.5983	979.1704	59830.9	58967.75
850.7435	981.1759	59951.35	59087.2
850.8886	983.1808	59404.5	58542.1
851.0337	985.1849	59362.55	58495.6
851.1788	987.1884	59380.6	58516.2
851.324	989.1911	59761.55	58896.1
851.4691	991.1932	58503.7	57639.1
851.6142	993.1945	58799.1	57936.35
851.7593	995.1951	59134.9	58271.9
851.9045	997.1951	58508.25	57639.3
852.0496	999.1943	58202.3	57340
852.1947	1001.1928	58091.8	57227
852.3398	1003.1906	58270.85	57405
852.4849	1005.1877	57551.65	56686.85
852.63	1007.1841	57322.9	56458.1
852.7751	1009.1798	57410	56546.55
852.9202	1011.1748	57488.35	56623.75
853.0653	1013.1691	57379.55	56515.8
853.2104	1015.1627	56175.45	55308.6
853.3555	1017.1556	56483.8	55618.8
853.5006	1019.1477	56843	55978.8
853.6457	1021.1392	56163.6	55299.2
853.7908	1023.1299	55417.8	54552.55
853.9359	1025.12	55781.85	54915.15
854.081	1027.1093	55336.5	54474.25
854.2261	1029.0979	55324.5	54461.15
854.3712	1031.0859	55222	54358
854.5163	1033.0731	54579.2	53715.25
854.6613	1035.0596	54780.3	53915.8
854.8064	1037.0454	54705.85	53840.6
854.9515	1039.0304	54338.95	53470.95
855.0965	1041.0148	53865.2	53000.75
855.2416	1042.9985	53927.2	53059.1
855.3867	1044.9814	54109.25	53243.05
855.5317	1046.9636	53583.05	52714.3
855.6768	1048.9452	53544.85	52680.05
855.8219	1050.926	53424.45	52559.95
855.9669	1052.9061	53396.9	52533.15
856.112	1054.8855	53414.15	52549.15
856.257	1056.8642	53025.7	52159.45
856.4021	1058.8421	52899.4	52027.5
856.5471	1060.8194	52791.1	51922.6
856.6921	1062.7959	52652.35	51787.55
856.8372	1064.7717	52749.15	51881.15
856.9822	1066.7469	52520	51651.85
857.1272	1068.7213	52540.85	51671.45
857.2723	1070.695	52402.45	51534.8
857.4173	1072.6679	52035.95	51169.1
857.5623	1074.6402	52253.3	51385.2
857.7073	1076.6117	52128.5	51256.2
857.8523	1078.5826	52057.1	51187.7
857.9973	1080.5527	51930.65	51058.9
858.1423	1082.5221	51647.65	50777.9
858.2873	1084.4908	51547.15	50677.4
858.4323	1086.4587	51353.45	50483.6
858.5773	1088.426	51273.1	50403.55
858.7223	1090.3925	51088.05	50214.25
858.8673	1092.3584	51041.15	50172.85
859.0123	1094.3235	50771.2	49903.75
859.1573	1096.2879	50663.6	49793.95
859.3022	1098.2515	50696.55	49830.05
859.4472	1100.2145	50672.55	49804.3
859.5922	1102.1767	50501.2	49629.85
859.7371	1104.1382	50498.5	49627.25
859.8821	1106.099	50409.45	49538.7
860.027	1108.0591	50303.85	49436.25
860.172	1110.0185	50185.05	49313.7
860.3169	1111.9771	50297.5	49427.45
860.4619	1113.9351	50127.85	49257.1
860.6068	1115.8923	50111.9	49241.6
860.7517	1117.8488	50051.05	49179.05
860.8967	1119.8045	49779.35	48909.65
861.0416	1121.7596	49654.05	48784.35
861.1865	1123.7139	49297.9	48429.4
861.3314	1125.6675	49146.55	48276.5
861.4763	1127.6204	49129.2	48258.7
861.6212	1129.5726	48924.85	48051.55
861.7661	1131.524	48935.2	48064.95
861.911	1133.4748	48840.65	47971.05
862.0559	1135.4248	48598.45	47727.6
862.2008	1137.3741	48438.25	47568.55
862.3457	1139.3226	48362.55	47491.55
862.4905	1141.2705	48355.15	47484.05
862.6354	1143.2176	48058.75	47182.9
862.7803	1145.164	48050.75	47178.25
862.9251	1147.1097	47977.85	47105.5
863.07	1149.0546	47938.65	47065.75
863.2148	1150.9989	47890.3	47018.3
863.3597	1152.9424	47784.2	46912.95
863.5045	1154.8852	47643.5	46770.8
863.6493	1156.8272	47549.8	46679.6
863.7942	1158.7686	47641.05	46764.35
863.939	1160.7092	47330.85	46458.65
864.0838	1162.6491	47237.75	46364.65
864.2286	1164.5883	47262.3	46391
864.3734	1166.5267	47108.2	46234.05
864.5182	1168.4644	47143.75	46272.3
864.663	1170.4014	47083.5	46204.9
864.8078	1172.3377	47156.35	46286.25
864.9526	1174.2732	47149.1	46276.95
865.0974	1176.2081	47182.7	46308.85
865.2421	1178.1421	47176.55	46300.4
865.3869	1180.0755	47333.8	46463.15
865.5317	1182.0082	47276.05	46406.05
865.6764	1183.9401	47237.9	46364.25
865.8212	1185.8713	46945.1	46072.45
865.9659	1187.8017	46714.05	45840.95
866.1106	1189.7315	46566.05	45693.65
866.2554	1191.6605	46185	45312.65
866.4001	1193.5888	45946.85	45073.75
866.5448	1195.5163	45810.4	44937.15
866.6895	1197.4432	45712.1	44838.15
866.8342	1199.3693	45547.55	44674.65
866.9789	1201.2947	45345.6	44471.45
867.1236	1203.2193	45196.55	44323
867.2683	1205.1432	45113.25	44238.05
867.413	1207.0664	44968.5	44093.4
867.5576	1208.9889	44896.95	44019.95
867.7023	1210.9106	44659.7	43787.45
867.847	1212.8316	44500.65	43628.95
867.9916	1214.7519	44483.5	43600.05
868.1363	1216.6715	44262.2	43391.2
868.2809	1218.5903	44278.4	43403.45
868.4255	1220.5084	44182.55	43308.05
868.5701	1222.4257	44216.55	43342.5
868.7148	1224.3424	44007.65	43134.3
868.8594	1226.2583	43963.75	43085.35
869.004	1228.1735	43884.5	43009.65
869.1486	1230.0879	43787.3	42912.6
869.2932	1232.0016	43712.25	42839.25
869.4377	1233.9146	43686.6	42810.25
869.5823	1235.8269	43551.45	42677.3
869.7269	1237.7384	43611.6	42735.5
869.8715	1239.6492	43342.3	42468.35
870.016	1241.5592	43305.7	42431.6
870.1606	1243.4686	43291.9	42416.25
870.3051	1245.3772	43267.3	42393.95
870.4496	1247.285	43241.2	42367.25
870.5941	1249.1922	43219.25	42343.55
870.7387	1251.0986	43268.3	42393.45
870.8832	1253.0042	43194.75	42317.8
871.0277	1254.9092	43313.15	42435.8
871.1722	1256.8134	43300.25	42426.2
871.3167	1258.7169	43476.9	42599.3
871.4611	1260.6196	43438.8	42563.4
871.6056	1262.5216	43554.5	42675.25
871.7501	1264.4229	43468.1	42594.05
871.8945	1266.3234	43319	42444.75
872.039	1268.2232	43161.9	42285.1
872.1834	1270.1223	43011.5	42134.05
872.3278	1272.0207	42900.4	42023.1
872.4723	1273.9183	42812.1	41929.1
872.6167	1275.8151	42698.25	41823.35
872.7611	1277.7113	42684.2	41809.2
872.9055	1279.6067	42705.5	41830.85
873.0499	1281.5014	42818.9	41942.15
873.1943	1283.3953	43010.5	42134.15
873.3386	1285.2885	43233.85	42359.1
873.483	1287.181	43525.95	42648
873.6274	1289.0727	43677	42802.05
873.7717	1290.9637	43479.9	42603.9
873.9161	1292.854	43314.95	42437.7
874.0604	1294.7435	42944.3	42070.05
874.2047	1296.6323	42693.3	41817
874.349	1298.5204	42527.15	41647.45
874.4933	1300.4077	42336.3	41459.1
874.6376	1302.2943	42177.95	41301.2
874.7819	1304.1802	42148.65	41274.45
874.9262	1306.0653	41983	41105.7
875.0705	1307.9497	41898.75	41022.3
875.2147	1309.8333	41863.85	40987.05
875.359	1311.7162	41784.4	40908.45
875.5032	1313.5984	41701.5	40823.5
875.6475	1315.4798	41543.9	40655.55
875.7917	1317.3605	41454.75	40573.5
875.9359	1319.2405	41476.2	40599.7
876.0801	1321.1197	41419.7	40540.65
876.2243	1322.9982	41295.2	40413.2
876.3685	1324.876	41253.3	40376.8
876.5127	1326.753	40964.85	40088.55
876.6569	1328.6293	40893.2	40016
876.801	1330.5048	40753.6	39875.3
876.9452	1332.3796	40493.05	39618.15
877.0893	1334.2537	40366.45	39464.15
877.2335	1336.127	40165.9	39288.2
877.3776	1337.9996	40031.75	39156.25
877.5217	1339.8714	40005.95	39128.3
877.6658	1341.7426	39895.9	38975
877.8099	1343.6129	39810.25	38931.7
877.954	1345.4826	39657.15	38779.5
878.0981	1347.3515	39661.2	38782.35
878.2422	1349.2196	39582.95	38703.95
878.3862	1351.087	39588.25	38711.75
878.5303	1352.9537	39512.85	38634.2
878.6743	1354.8197	39514.1	38639.15
878.8184	1356.6849	39458.25	38581.4
878.9624	1358.5493	39391.6	38514.15
879.1064	1360.4131	39369.05	38491.8
879.2504	1362.276	39340.15	38463.3
879.3944	1364.1383	39324.75	38448.05
879.5384	1365.9998	39210.05	38327.9
879.6823	1367.8606	39110.9	38232.8
879.8263	1369.7206	39069.75	38192.3
879.9702	1371.5799	39002.3	38124.85
880.1142	1373.4384	38894.65	38017.55
880.2581	1375.2962	38843.3	37967
880.402	1377.1533	38556.65	37680.5
880.5459	1379.0096	38362.95	37484.55
880.6898	1380.8652	38251.5	37374.85
880.8337	1382.7201	38106.55	37229.95
880.9776	1384.5742	37851.15	36972.75
881.1215	1386.4275	37730.35	36850.7
881.2653	1388.2802	37566.2	36689.1
881.4092	1390.132	37432.35	36554.15
881.553	1391.9832	37394.55	36515.6
881.6968	1393.8336	37185.35	36307.85
881.8406	1395.6832	37114.8	36234.7
881.9844	1397.5322	36936.85	36056.8
882.1282	1399.3803	36906.2	36024.95
882.272	1401.2278	36699.55	35820.55
882.4158	1403.0745	36622.3	35743.15
882.5595	1404.9204	36388.25	35511.7
882.7033	1406.7656	36357.45	35480.6
882.847	1408.6101	36234.55	35355.95
882.9908	1410.4538	36105.75	35227.25
883.1345	1412.2968	36007.9	35128.85
883.2782	1414.139	35885.2	35008.05
883.4219	1415.9805	35849.3	34970.15
883.5656	1417.8213	35730.45	34831.6
883.7092	1419.6613	35558.5	34680.15
883.8529	1421.5006	35567.9	34687.6
883.9965	1423.3391	35548.85	34669.75
884.1402	1425.1769	35469.1	34590.6
884.2838	1427.0139	35526.1	34649.15
884.4274	1428.8502	35665.25	34784.9
884.571	1430.6858	35652.1	34774.9
884.7146	1432.5206	35516.4	34637.85
884.8582	1434.3547	35518.8	34639.2
885.0018	1436.188	35446.9	34568.35
885.1453	1438.0206	35415.6	34535.75
885.2889	1439.8524	35232.05	34352.75
885.4324	1441.6835	35218.55	34340.35
885.5759	1443.5139	35125	34242.35
885.7194	1445.3435	35021.5	34143.75
885.8629	1447.1724	35013.05	34133.45
886.0064	1449.0005	34957.9	34081.55
886.1499	1450.8279	34923.55	34043.85
886.2933	1452.6545	34904.65	34026.4
886.4368	1454.4804	34895.9	34018.35
886.5802	1456.3056	34783.25	33895.75
886.7237	1458.13	34695.8	33817.85
886.8671	1459.9536	34714.35	33834.2
887.0105	1461.7766	34608.2	33727.7
887.1539	1463.5987	34453.3	33573.1
887.2972	1465.4202	34332	33452.75
887.4406	1467.2409	34092.4	33212.65
887.584	1469.0608	34126.15	33245.7
887.7273	1470.88	33997.6	33117.3
887.8706	1472.6984	33969.55	33090.7
888.0139	1474.5161	33748.45	32866.7
888.1572	1476.3331	33661.7	32785.3
888.3005	1478.1493	33653.9	32773.2
888.4438	1479.9648	33561.5	32682.45
888.5871	1481.7795	33525.95	32647.25
888.7303	1483.5935	33501.7	32623.4
888.8736	1485.4067	33407.55	32529.3
889.0168	1487.2192	33401.5	32521.75
889.16	1489.031	33356.6	32475.6
889.3032	1490.842	33260.2	32381.3
889.4464	1492.6522	33248.75	32370.7
889.5896	1494.4618	33158.15	32278.05
889.7327	1496.2705	33120	32239.3
889.8759	1498.0785	32979.6	32099.5
890.019	1499.8858	32908.65	32028.55
890.1622	1501.6924	32882.25	32003.8
890.3053	1503.4981	32821.55	31943.35
890.4484	1505.3032	32727.15	31848.25
890.5914	1507.1075	32671.25	31793.4
890.7345	1508.911	32578.4	31698.8
890.8776	1510.7138	32518.75	31637.3
891.0206	1512.5159	32441.5	31560.7
891.1637	1514.3172	32300.6	31421.95
891.3067	1516.1178	32225.35	31346.35
891.4497	1517.9176	32201.7	31319.15
891.5927	1519.7166	32090.55	31212.35
891.7357	1521.515	31976.95	31091.55
891.8786	1523.3126	31940.65	31063.7
892.0216	1525.1094	31829.85	30948.85
892.1645	1526.9055	31741.05	30864.05
892.3074	1528.7008	31633.65	30752.2
892.4503	1530.4954	31467.4	30583
892.5932	1532.2893	31440.25	30562.7
892.7361	1534.0824	31262.45	30378.9
892.879	1535.8747	31266.7	30387.05
893.0218	1537.6663	31109.65	30230.05
893.1647	1539.4572	31028.55	30147.55
893.3075	1541.2473	31017.45	30138.4
893.4503	1543.0367	30916.55	30036.3
893.5931	1544.8253	30746.4	29860.8
893.7359	1546.6132	30741.3	29859.2
893.8787	1548.4003	30606.3	29717
894.0214	1550.1867	30554.55	29666.45
894.1642	1551.9723	30453.45	29568.25
894.3069	1553.7572	30467.3	29586.65
894.4496	1555.5414	30371.95	29491.25
894.5923	1557.3247	30343.05	29462
894.735	1559.1074	30276.95	29397
894.8777	1560.8893	30230.25	29352.45
895.0204	1562.6705	30218.35	29338.2
895.163	1564.4509	30178.95	29300.1
895.3056	1566.2305	30076.1	29198.45
895.4482	1568.0094	30095.65	29215.95
895.5908	1569.7876	30016.4	29137.5
895.7334	1571.565	29982.05	29101.85
895.876	1573.3417	29921	29042.1
896.0186	1575.1176	29869.7	28990.55
896.1611	1576.8928	29813.15	28933.75
896.3036	1578.6672	29712.95	28832.15
896.4461	1580.4409	29688.5	28811.55
896.5886	1582.2138	29623.05	28741.3
896.7311	1583.986	29626.3	28744.95
896.8736	1585.7575	29622.35	28744.15
897.0161	1587.5282	29604.7	28725.4
897.1585	1589.2981	29606	28728.25
897.3009	1591.0673	29550.55	28670.15
897.4433	1592.8358	29475.3	28598.1
897.5857	1594.6035	29416.55	28535.75
897.7281	1596.3704	29291.5	28411.4
897.8705	1598.1366	29161.1	28282
898.0128	1599.9021	29015.05	28134.35
898.1551	1601.6668	28871.25	27992.5
898.2975	1603.4308	28733.4	27851.3
898.4398	1605.194	28640.5	27755.65
898.5821	1606.9564	28575.75	27696.15
898.7243	1608.7182	28619.65	27735.1
898.8666	1610.4791	28647.7	27770.45
899.0088	1612.2394	28710.8	27830.4
899.1511	1613.9988	28796.7	27915.4
899.2933	1615.7576	28898.05	28017.7
899.4355	1617.5156	28968.2	28083.1
899.5776	1619.2728	28856.55	27977.05
899.7198	1621.0293	28754.2	27874.85
899.862	1622.785	28478.5	27593.65
900.0041	1624.54	28151.15	27266.05
900.1462	1626.2942	27934.25	27053.05
900.2883	1628.0477	27639.6	26757.3
900.4304	1629.8005	27427.65	26545.8
900.5725	1631.5525	27273.3	26393.4
900.7145	1633.3037	27089.1	26209.7
900.8566	1635.0542	26983.15	26103.15
900.9986	1636.804	26825.9	25944.2
901.1406	1638.553	26783.75	25813.1
901.2826	1640.3013	26639.95	25761.6
901.4245	1642.0488	26476.2	25594.7
901.5665	1643.7955	26449.1	25571.7
901.7085	1645.5416	26306.2	25424.15
901.8504	1647.2868	26241.35	25361.15
901.9923	1649.0313	26106.3	25225.25
902.1342	1650.7751	26067.35	25182.8
902.2761	1652.5181	26004.75	25126.2
902.4179	1654.2604	25888.8	25007.3
902.5598	1656.0019	25851.1	24969.95
902.7016	1657.7427	25808.15	24927.85
902.8434	1659.4828	25791.85	24911.95
902.9852	1661.222	25732.55	24852.85
903.127	1662.9606	25712.8	24832.8
903.2687	1664.6984	25730	24849.35
903.4105	1666.4354	25720.4	24839.15
903.5522	1668.1717	25648.35	24767.2
903.6939	1669.9072	25483.15	24605.3
903.8356	1671.642	25350.15	24467.6
903.9773	1673.3761	25248.45	24369.3
904.119	1675.1094	25075	24193.55
904.2606	1676.8419	24966.4	24085.35
904.4022	1678.5737	24820	23938.9
904.5439	1680.3048	24752.6	23870.45
904.6855	1682.0351	24600.4	23718.6
904.827	1683.7646	24432.7	23548.85
904.9686	1685.4934	24381.5	23501.35
905.1101	1687.2215	24298.4	23417.2
905.2517	1688.9488	24175.65	23295.85
905.3932	1690.6754	24069.9	23190.4
905.5347	1692.4012	24021.5	23142.65
905.6761	1694.1263	23934.25	23052.7
905.8176	1695.8506	23884.05	23003.95
905.9591	1697.5742	23833.9	22953.95
906.1005	1699.297	23725.65	22845.3
906.2419	1701.0191	23593.15	22713
906.3833	1702.7404	23555.8	22676.55
906.5246	1704.461	23393.2	22510.6
906.666	1706.1808	23309.55	22428.3
906.8073	1707.8999	23221.05	22340.7
906.9487	1709.6182	23157.15	22276.45
907.09	1711.3358	23131.4	22250.6
907.2313	1713.0527	23059.85	22181.8
907.3725	1714.7688	22944.7	22059.65
907.5138	1716.4841	22813.6	21932.2
907.655	1718.1987	22827.35	21941.55
907.7962	1719.9126	22704.85	21826.6
907.9374	1721.6257	22645.6	21760.95
908.0786	1723.338	22595.4	21712.65
908.2198	1725.0496	22478.45	21598.65
908.3609	1726.7605	22454.85	21573.5
908.502	1728.4706	22387.8	21508.3
908.6431	1730.18	22257.45	21374.3
908.7842	1731.8886	22252.9	21374.3
908.9253	1733.5964	22208.1	21305.5
909.0664	1735.3036	22099.45	21217.3
909.2074	1737.0099	22091.7	21212.1
909.3484	1738.7156	22049.1	21168.85
909.4894	1740.4204	21937.5	21054.6
909.6304	1742.1246	21958.15	21074.85
909.7714	1743.8279	21904	21027
909.9123	1745.5306	21855.4	20974.15
910.0532	1747.2325	21789.8	20909.4
910.1941	1748.9336	21747.15	20867.15
910.335	1750.634	21671.1	20788
910.4759	1752.3336	21631.55	20752.4
910.6168	1754.0325	21600.9	20722.65
910.7576	1755.7307	21548.75	20667.05
910.8984	1757.4281	21587.9	20707.35
911.0392	1759.1247	21498	20609.55
911.18	1760.8206	21454.85	20572.1
911.3208	1762.5158	21447.15	20563.6
911.4615	1764.2102	21354.9	20474.75
911.6022	1765.9039	21297.3	20417.35
911.7429	1767.5968	21240.1	20359.1
911.8836	1769.289	21197.35	20316.8
912.0243	1770.9804	21122.45	20240.15
912.1649	1772.6711	21102.8	20221.55
912.3056	1774.361	21019.2	20140.05
912.4462	1776.0502	20988.55	20106.35
912.5868	1777.7386	20945	20061.35
912.7274	1779.4263	20862.75	19982.8
912.8679	1781.1132	20857.25	19975.6
913.0084	1782.7994	20779.45	19898.2
913.149	1784.4849	20765.2	19885.25
913.2895	1786.1696	20685.3	19785.95
913.4299	1787.8535	20627.1	19746.2
913.5704	1789.5367	20559.4	19678.5
913.7108	1791.2192	20579.1	19698.85
913.8513	1792.9009	20464.55	19565.55
913.9917	1794.5818	20431.5	19547.2
914.132	1796.2621	20329.05	19451
914.2724	1797.9415	20309.7	19428.35
914.4128	1799.6202	20224.45	19343.7
914.5531	1801.2982	20219.8	19338.7
914.6934	1802.9755	20183.4	19303.4
914.8337	1804.6519	20134.4	19251.7
914.9739	1806.3277	20030.7	19150.25
915.1142	1808.0027	19943.3	19062.7
915.2544	1809.6769	19952.55	19070.5
915.3946	1811.3504	19877.05	18996.4
915.5348	1813.0231	19825.75	18945.8
915.675	1814.6951	19830.25	18950.7
915.8151	1816.3664	19814.05	18931.4
915.9553	1818.0369	19735.9	18855.6
916.0954	1819.7067	19664.05	18784.35
916.2355	1821.3757	19576.4	18695.55
916.3755	1823.044	19630.1	18748.9
916.5156	1824.7115	19540.15	18656.7
916.6556	1826.3783	19472.05	18594.4
916.7956	1828.0443	19442.3	18561.4
916.9356	1829.7096	19408.75	18526.15
917.0756	1831.3741	19383.9	18500.8
917.2155	1833.0379	19316.25	18438.35
917.3555	1834.701	19277.4	18393.35
917.4954	1836.3633	19227.3	18346.7
917.6353	1838.0248	19166.85	18282.05
917.7751	1839.6856	19147.45	18267.8
917.915	1841.3457	19098.75	18218.45
918.0548	1843.005	19053.8	18172.65
918.1946	1844.6636	19006.6	18125.1
918.3344	1846.3214	18932.85	18054
918.4742	1847.9785	18919.05	18039.2
918.6139	1849.6349	18891.4	18010.4
918.7537	1851.2904	18852.45	17964.25
918.8934	1852.9453	18773.7	17891.1
919.0331	1854.5994	18732.3	17850.75
919.1727	1856.2528	18713.8	17826
919.3124	1857.9054	18652.3	17771.35
919.452	1859.5572	18627.15	17746.25
919.5916	1861.2083	18597.8	17715.5
919.7312	1862.8587	18563.2	17681.85
919.8708	1864.5084	18551.85	17671.5
920.0103	1866.1572	18483	17603.75
920.1498	1867.8054	18423.35	17542.2
920.2893	1869.4528	18378.65	17499.3
920.4288	1871.0994	18313.9	17431.9
920.5683	1872.7453	18301.2	17417.35
920.7077	1874.3905	18220.45	17333.75
920.8471	1876.0349	18146.45	17263.4
920.9865	1877.6786	18173.15	17288.85
921.1259	1879.3215	18129.8	17250.65
921.2653	1880.9637	18071.15	17187.9
921.4046	1882.6051	18098.55	17219.15
921.5439	1884.2458	18030.9	17148.35
921.6832	1885.8858	17927.55	17046.3
921.8225	1887.525	17920.95	17040.2
921.9617	1889.1634	17841.5	16961.05
922.101	1890.8011	17797.75	16916.25
922.2402	1892.4381	17772.5	16889.8
922.3794	1894.0743	17769.15	16888.05
922.5185	1895.7098	17666.4	16786.25
922.6577	1897.3446	17683.75	16800.1
922.7968	1898.9786	17634.8	16749.5
922.9359	1900.6118	17607.35	16728.7
923.075	1902.2443	17475	16590.9
923.214	1903.8761	17494.1	16614.25
923.3531	1905.5071	17345.6	16462.15
923.4921	1907.1374	17313.8	16433.05
923.6311	1908.7669	17311	16429.55
923.77	1910.3957	17280.6	16399.9
923.909	1912.0237	17159.4	16278.6
924.0479	1913.651	17141.3	16257.55
924.1868	1915.2776	17086.25	16207.5
924.3257	1916.9034	17005.75	16125.6
924.4646	1918.5285	16942.05	16062.25
924.6034	1920.1528	16887.6	16006.45
924.7422	1921.7764	16870.55	15992.1
924.881	1923.3992	16789	15908.6
925.0198	1925.0213	16663.6	15781.3
925.1586	1926.6427	16615	15735.75
925.2973	1928.2633	16761	15667.75
925.436	1929.8832	16529.05	15643.2
925.5747	1931.5023	16457.75	15577.95
925.7134	1933.1207	16423.8	15543.05
925.852	1934.7383	16373.05	15490.35
925.9906	1936.3552	16335.3	15456.2
926.1292	1937.9714	16312.65	15429.7
926.2678	1939.5868	16223.75	15342.7
926.4064	1941.2015	16157.1	15275.25
926.5449	1942.8154	16098.3	15217.3
926.6834	1944.4286	16053.5	15171.75
926.8219	1946.041	15969.8	15064.3
926.9604	1947.6528	15893.05	15008.4
927.0988	1949.2637	15855.85	14975.4
927.2372	1950.8739	15790.3	14908.5
927.3756	1952.4834	15790.2	14909.95
927.514	1954.0921	15751.35	14868.85
927.6523	1955.7001	15702.15	14816.8
927.7907	1957.3074	15644.7	14765.65
927.929	1958.9139	15566.05	14686.45
928.0673	1960.5197	15557.8	14674.65
928.2055	1962.1247	15472	14591.05
928.3438	1963.729	15397.85	14516.65
928.482	1965.3325	15361.7	14456.85
928.6202	1966.9353	15294.2	14414.4
928.7584	1968.5374	15253.55	14371.5
928.8965	1970.1387	15216.8	14334.95
929.0346	1971.7393	15154.75	14273.35
929.1727	1973.3392	15123.65	14243.4
929.3108	1974.9383	15041	14160.9
929.4489	1976.5366	14994	14113.9
929.5869	1978.1342	14958.35	14077.85
929.7249	1979.7311	14952.3	14072.3
929.8629	1981.3273	14896.85	14016.15
930.0009	1982.9227	14861.6	13977.8
930.1388	1984.5173	14813.65	13932.95
930.2767	1986.1112	14746.1	13867.6
930.4146	1987.7044	14701.9	13821.2
930.5525	1989.2968	14672.9	13790.35
930.6904	1990.8885	14660.25	13776.5
930.8282	1992.4795	14631.55	13750.95
930.966	1994.0697	14565.8	13685.65
931.1038	1995.6592	14510.7	13629.3
931.2415	1997.2479	14486.05	13605.2
931.3793	1998.8359	14407.3	13526
931.517	2000.4232	14347.45	13469.15
931.6547	2002.0097	14317.05	13437.9
931.7923	2003.5955	14268.55	13387.35
931.93	2005.1805	14259	13377.5
932.0676	2006.7648	14253.8	13374.55
932.2052	2008.3484	14153	13272.4
932.3427	2009.9312	14165.65	13284.1
932.4803	2011.5133	14062.75	13180.65
932.6178	2013.0946	14048.3	13166.95
932.7553	2014.6752	14011.4	13133.8
932.8928	2016.2551	13974.85	13092
933.0302	2017.8342	13931.4	13051.35
933.1676	2019.4126	13852.3	12970.6
933.305	2020.9902	13820.8	12942.65
933.4424	2022.5672	13808.95	12927.35
933.5798	2024.1433	13765.65	12878.8
933.7171	2025.7188	13701.2	12821.7
933.8544	2027.2935	13685.7	12804.4
933.9917	2028.8674	13630.2	12750.4
934.129	2030.4406	13598.85	12719.4
934.2662	2032.0131	13538.75	12658
934.4034	2033.5849	13495.15	12605.75
934.5406	2035.1559	13455.15	12576.7
934.6778	2036.7261	13443.05	12563.95
934.8149	2038.2957	13404.45	12523.5
934.952	2039.8645	13387.4	12507.5
935.0891	2041.4325	13400.95	12518.7
935.2262	2042.9998	13328.4	12448.1
935.3632	2044.5664	13271.9	12388.7
935.5002	2046.1323	13256.7	12376.85
935.6372	2047.6974	13226.15	12346.55
935.7742	2049.2617	13188.9	12307
935.9111	2050.8254	13208.7	12306.5
936.048	2052.3883	13166.35	12285.35
936.1849	2053.9504	13082.5	12203.05
936.3218	2055.5118	13054.25	12171.6
936.4586	2057.0725	12980.55	12095.7
936.5955	2058.6325	12979.75	12098.5
936.7323	2060.1917	12923.3	12043.6
936.869	2061.7502	12892.1	12009.4
937.0058	2063.3079	12860.9	11980.55
937.1425	2064.8649	12830.3	11947.9
937.2792	2066.4212	12787.7	11906.8
937.4159	2067.9767	12764.45	11885.4
937.5525	2069.5315	12730.55	11849.9
937.6891	2071.0856	12671.9	11792
937.8257	2072.6389	12620.9	11740.05
937.9623	2074.1915	12575.35	11697.3
938.0989	2075.7433	12518.4	11635.75
938.2354	2077.2945	12489.95	11611.85
938.3719	2078.8448	12454.85	11576.25
938.5084	2080.3945	12416.7	11535.45
938.6448	2081.9434	12428.5	11547
938.7812	2083.4916	12385.5	11503.7
938.9176	2085.039	12345.35	11463.65
939.054	2086.5857	12298.95	11415.6
939.1903	2088.1317	12288	11409.85
939.3267	2089.677	12272.95	11390.2
939.463	2091.2215	12217.05	11334.9
939.5992	2092.7652	12189.65	11307.55
939.7355	2094.3083	12160.25	11278.7
939.8717	2095.8506	12118.8	11241.3
940.0079	2097.3921	12118.45	11239.55
940.1441	2098.933	12058.75	11176.8
940.2802	2100.4731	12042.4	11162.6
940.4163	2102.0124	12057.1	11160.1
940.5524	2103.5511	12012.8	11133.65
940.6885	2105.089	11990.85	11109.85
940.8245	2106.6261	11960.8	11081.15
940.9606	2108.1626	11934.5	11054.5
941.0965	2109.6983	11920.45	11010.1
941.2325	2111.2332	11852.6	10972.35
941.3684	2112.7675	11842.2	10958.9
941.5044	2114.301	11814.6	10933.25
941.6403	2115.8337	11801.35	10923.15
941.7761	2117.3657	11764.1	10884.25
941.912	2118.897	11734.25	10852.3
942.0478	2120.4276	11698.2	10810.2
942.1835	2121.9575	11656.5	10773.7
942.3193	2123.4866	11648.6	10766.1
942.455	2125.0149	11625.35	10742.4
942.5907	2126.5426	11564.2	10684.5
942.7264	2128.0695	11554.1	10670.85
942.8621	2129.5956	11515.3	10636
942.9977	2131.1211	11478.5	10594.9
943.1333	2132.6458	11466.75	10586.9
943.2689	2134.1698	11419.65	10538.1
943.4044	2135.693	11376.7	10493.55
943.54	2137.2155	11365.25	10481.3
943.6755	2138.7373	11349.75	10470.85
943.8109	2140.2584	11300.45	10418.75
943.9464	2141.7787	11268.8	10382.75
944.0818	2143.2983	11237.65	10357.85
944.2172	2144.8171	11170.65	10291.75
944.3526	2146.3353	11150.65	10266.65
944.4879	2147.8527	11105	10226.3
944.6232	2149.3693	11072.55	10193.15
944.7585	2150.8853	11045.65	10165.3
944.8938	2152.4005	10991.4	10110.35
945.029	2153.9149	10969.45	10087.5
945.1642	2155.4287	10946.95	10068.3
945.2994	2156.9417	10938.1	10056.35
945.4346	2158.454	10911.85	10027.85
945.5697	2159.9655	10870.2	9989.4
945.7048	2161.4764	10875.15	9994.4
945.8399	2162.9865	10817.9	9939
945.9749	2164.4958	10791.15	9907.6
946.1099	2166.0045	10724.45	9842.05
946.2449	2167.5124	10717.65	9837.65
946.3799	2169.0195	10687.8	9808.1
946.5148	2170.526	10676.75	9796.35
946.6498	2172.0317	10639.3	9758.3
946.7846	2173.5367	10635.15	9753.05
946.9195	2175.0409	10579.5	9697.9
947.0543	2176.5445	10574.2	9695.25
947.1891	2178.0473	10539.25	9658.35
947.3239	2179.5494	10489.7	9604.7
947.4587	2181.0507	10468.85	9590.7
947.5934	2182.5513	10443.45	9564.1
947.7281	2184.0512	10408.1	9527.4
947.8628	2185.5504	10363	9483.95
947.9974	2187.0488	10305.25	9424.1
948.132	2188.5465	10277.9	9396.8
948.2666	2190.0435	10259.65	9379.25
948.4012	2191.5397	10203.65	9321.95
948.5357	2193.0353	10204.6	9327.2
948.6702	2194.5301	10138.85	9258.35
948.8047	2196.0241	10119.7	9240.45
948.9392	2197.5175	10099.6	9220.15
949.0736	2199.0101	10048.85	9164
949.208	2200.502	10012.9	9133.75
949.3424	2201.9931	9986.5	9105.7
949.4767	2203.4835	9953.8	9071.1
949.611	2204.9733	9914.4	9030.25
949.7453	2206.4622	9905.85	9026.15
949.8796	2207.9505	9867.4	8984.05
950.0138	2209.438	9806.85	8927.35
950.148	2210.9248	9789.45	8906.85
950.2822	2212.4109	9758.9	8880.4
950.4164	2213.8962	9733.15	8849.6
950.5505	2215.3809	9713.05	8830.2
950.6846	2216.8648	9679.35	8798.75
950.8186	2218.3479	9656.9	8770.95
950.9527	2219.8304	9619.9	8738.4
951.0867	2221.3121	9572.4	8688.65
951.2207	2222.7931	9533.4	8654.8
951.3546	2224.2733	9492.2	8612.6
951.4886	2225.7529	9493.95	8611.5
951.6225	2227.2317	9463.65	8580.45
951.7563	2228.7098	9432.8	8554.05
951.8902	2230.1872	9393.05	8512.1
952.024	2231.6638	9394.95	8514.6
952.1578	2233.1397	9342.05	8454.05
952.2916	2234.6149	9317.35	8436.9
952.4253	2236.0894	9301.8	8419.15
952.559	2237.5632	9267.95	8384.15
952.6927	2239.0362	9230.75	8350.2
952.8263	2240.5085	9178.2	8297.6
952.9599	2241.9801	9166.15	8286
953.0935	2243.4509	9150.15	8270.15
953.2271	2244.921	9118.1	8239.65
953.3606	2246.3904	9090	8206.65
953.4941	2247.8591	9064	8185.45
953.6276	2249.3271	9028.1	8147.8
953.7611	2250.7943	8967.4	8087.55
953.8945	2252.2608	8962.6	8083.4
954.0279	2253.7266	8918.85	8038.75
954.1612	2255.1917	8908.55	8026.95
954.2946	2256.656	8876.9	7994.4
954.4279	2258.1197	8852.8	7973.9
954.5612	2259.5826	8848.3	7964.8
954.6944	2261.0447	8823.45	7940.9
954.8276	2262.5062	8780.1	7897.35
954.9608	2263.9669	8768.75	7887.4
955.094	2265.4269	8747.05	7867
955.2271	2266.8862	8711.2	7830.6
955.3602	2268.3448	8682.45	7803.7
955.4933	2269.8026	8665.35	7782.85
955.6264	2271.2598	8640.25	7759.4
955.7594	2272.7162	8604.95	7726.6
955.8924	2274.1719	8585.9	7705.45
956.0253	2275.6268	8558.3	7678.3
956.1583	2277.0811	8556.3	7675.3
956.2912	2278.5346	8508.9	7629.7
956.4241	2279.9874	8507.75	7626
956.5569	2281.4395	8502.1	7622.75
956.6897	2282.8908	8464.6	7579.3
956.8225	2284.3414	8443.1	7562.75
956.9553	2285.7914	8417.5	7537.1
957.088	2287.2406	8387.95	7503.85
957.2207	2288.689	8356.65	7475.5
957.3534	2290.1368	8339.45	7459.2
957.486	2291.5838	8321.1	7439.15
957.6186	2293.0302	8306.45	7427.15
957.7512	2294.4758	8259.5	7381.4
957.8838	2295.9206	8253.9	7373.3
958.0163	2297.3648	8197.9	7318.9
958.1488	2298.8082	8189.55	7307.45
958.2813	2300.251	8171.95	7290.7
958.4137	2301.693	8132.1	7249
958.5461	2303.1343	8112.5	7233.3
958.6785	2304.5748	8089.5	7209.6
958.8108	2306.0147	8078.45	7197.5
958.9432	2307.4538	8042.65	7156.5
959.0754	2308.8922	8023.85	7143.6
959.2077	2310.3299	7992.3	7112.15
959.3399	2311.7669	7960.5	7080.1
959.4721	2313.2031	7929.75	7047.05
959.6043	2314.6387	7931	7049.7
959.7365	2316.0735	7905.35	7025.1
959.8686	2317.5076	7882.9	7003.3
960.0006	2318.941	7852.45	6971.6
960.1327	2320.3737	7842.6	6962.45
960.2647	2321.8056	7830.4	6946.75
960.3967	2323.2369	7792.1	6912.9
960.5287	2324.6674	7787.25	6904.5
960.6606	2326.0972	7749	6864.75
960.7925	2327.5263	7721.45	6841.25
960.9244	2328.9547	7697.8	6816.85
961.0562	2330.3823	7695.45	6814.65
961.1881	2331.8092	7670.7	6785.9
961.3198	2333.2355	7632.85	6752.3
961.4516	2334.661	7603.65	6722.7
961.5833	2336.0858	7592.4	6709.25
961.715	2337.5098	7548.9	6668.45
961.8467	2338.9332	7566.2	6684.25
961.9783	2340.3558	7537.25	6651.1
962.1099	2341.7778	7491.15	6609.65
962.2415	2343.199	7486.9	6603
962.373	2344.6195	7474.75	6595.45
962.5045	2346.0393	7456.75	6576.25
962.636	2347.4583	7427.8	6547.35
962.7675	2348.8767	7379.4	6496.4
962.8989	2350.2943	7392.5	6511.05
963.0303	2351.7113	7375.9	6493.2
963.1617	2353.1275	7342.9	6462.45
963.293	2354.543	7329.95	6441.85
963.4243	2355.9578	7320.55	6440.95
963.5556	2357.3718	7284.2	6402.75
963.6868	2358.7852	7255.95	6371.55
963.818	2360.1978	7208.6	6325.3
963.9492	2361.6098	7177.35	6296.25
964.0803	2363.021	7187.3	6300.9
964.2114	2364.4315	7157.6	6276.5
964.3425	2365.8413	7156.4	6270.75
964.4736	2367.2504	7124.2	6245.65
964.6046	2368.6587	7093.45	6212.25
964.7356	2370.0664	7045.1	6163.05
964.8666	2371.4733	7069.2	6187.6
964.9975	2372.8795	7036.7	6156.3
965.1284	2374.285	6991.2	6109.1
965.2593	2375.6899	6974.6	6093.4
965.3901	2377.0939	6942.65	6063
965.5209	2378.4973	6909.4	6029.35
965.6517	2379.9	6902.4	6021.9
965.7825	2381.3019	6891.9	6011.25
965.9132	2382.7032	6869.25	5989.3
966.0439	2384.1037	6848.1	5970.35
966.1745	2385.5035	6824.1	5942.5
966.3051	2386.9027	6812.75	5932.75
966.4357	2388.3011	6804.15	5919.35
966.5663	2389.6987	6773.75	5891.8
966.6968	2391.0957	6751.8	5872.2
966.8273	2392.492	6712.4	5831.75
966.9578	2393.8876	6694.3	5812.75
967.0882	2395.2824	6660.05	5777.9
967.2186	2396.6765	6643.85	5764.25
967.349	2398.07	6595.5	5716.05
967.4793	2399.4627	6602.05	5719.4
967.6097	2400.8547	6588.35	5710
967.7399	2402.246	6566.05	5679.6
967.8702	2403.6366	6510.1	5628.45
968.0004	2405.0265	6498.3	5617.85
968.1306	2406.4156	6487.25	5600.95
968.2607	2407.8041	6465	5581.35
968.3909	2409.1918	6413.65	5532
968.521	2410.5789	6417.4	5534.9
968.651	2411.9652	6386.6	5502.3
968.781	2413.3508	6369.15	5489.15
968.911	2414.7358	6347.9	5469.6
969.041	2416.12	6327.2	5448.2
969.1709	2417.5035	6303.05	5422.5
969.3008	2418.8863	6273.75	5390.9
969.4307	2420.2684	6273.8	5393.45
969.5606	2421.6497	6226.3	5345
969.6904	2423.0304	6216.2	5333.8
969.8201	2424.4104	6191.15	5309.95
969.9499	2425.7896	6172.7	5283.95
970.0796	2427.1682	6159.5	5277.5
970.2093	2428.546	6126.55	5243.65
970.3389	2429.9232	6138.55	5256.75
970.4685	2431.2996	6081.6	5200.15
970.5981	2432.6753	6080.6	5199.15
970.7277	2434.0503	6063.8	5182.95
970.8572	2435.4246	6051.9	5172.25
970.9867	2436.7982	6035.95	5151.8
971.1161	2438.1711	6035.15	5157.2
971.2456	2439.5433	6005.3	5124.65
971.375	2440.9148	5980.15	5093.85
971.5043	2442.2856	5960.5	5080.95
971.6336	2443.6557	5919.85	5037.2
971.7629	2445.025	5910.65	5028.65
971.8922	2446.3937	5906	5024.8
972.0214	2447.7617	5867.45	4985.4
972.1506	2449.1289	5871	4990.3
972.2798	2450.4955	5857	4971.75
972.4089	2451.8613	5819.2	4938.2
972.538	2453.2265	5818.85	4937.05
972.6671	2454.5909	5811	4928.35
972.7961	2455.9546	5790.45	4909.1
972.9251	2457.3177	5775.5	4895.1
973.0541	2458.68	5767.4	4884.55
973.1831	2460.0416	5740.15	4859.05
973.312	2461.4025	5733.45	4848.75
973.4408	2462.7627	5731.35	4837.25
973.5697	2464.1222	5709.25	4829.45
973.6985	2465.4811	5673.4	4791.6
973.8273	2466.8392	5672.5	4793.7
973.956	2468.1966	5652.75	4769.25
974.0847	2469.5533	5639.4	4754.5
974.2134	2470.9093	5636.15	4754.9
974.3421	2472.2645	5599.1	4716.8
974.4707	2473.6191	5578.65	4697.5
974.5993	2474.973	5575.15	4694.8
974.7278	2476.3262	5550.15	4666.95
974.8563	2477.6787	5521	4640.8
974.9848	2479.0305	5505.25	4623.3
975.1132	2480.3816	5482.5	4599.2
975.2417	2481.7319	5455.85	4574.35
975.37	2483.0816	5452.45	4570.3
975.4984	2484.4306	5426.2	4544.7
975.6267	2485.7789	5406.5	4525.8
975.755	2487.1264	5380.25	4495.9
975.8833	2488.4733	5384.4	4502.9
976.0115	2489.8195	5362.5	4472.9
976.1397	2491.165	5340.8	4457.25
976.2678	2492.5097	5319.1	4436.6
976.3959	2493.8538	5304.15	4424.75
976.524	2495.1972	5274.4	4394.65
976.6521	2496.5398	5262.5	4379.35
976.7801	2497.8818	5244	4361.25
976.9081	2499.2231	5225.8	4343.85
977.036	2500.5637	5221.8	4340.25
977.164	2501.9035	5191.7	4310.9
977.2918	2503.2427	5193.15	4309.3
977.4197	2504.5812	5170.7	4291
977.5475	2505.919	5144.2	4260.55
977.6753	2507.256	5140.35	4258.2
977.8031	2508.5924	5121.95	4240.25
977.9308	2509.9281	5126.6	4239.7
978.0585	2511.2631	5078.45	4196.9
978.1861	2512.5974	5071	4188.45
978.3137	2513.9309	5069.8	4186.75
978.4413	2515.2638	5068.15	4159.35
978.5689	2516.596	5047.4	4166.8
978.6964	2517.9275	4999.3	4118.45
978.8239	2519.2583	5002.2	4119.95
978.9513	2520.5884	4975.6	4093.1
979.0788	2521.9178	4961.65	4081.05
979.2062	2523.2465	4950.9	4070.45
979.3335	2524.5745	4920.2	4040
979.4608	2525.9018	4908.05	4027.65
979.5881	2527.2284	4895.25	4015.45
979.7154	2528.5543	4875.9	3997.15
979.8426	2529.8796	4861.4	3979.45
979.9698	2531.2041	4873.2	3991.7
980.0969	2532.5279	4852.1	3972.75
980.224	2533.851	4843.2	3961.2
980.3511	2535.1735	4826	3944.2
980.4781	2536.4952	4805.65	3923.3
980.6052	2537.8163	4795.5	3913.3
980.7321	2539.1366	4779.25	3897.45
980.8591	2540.4562	4775.55	3894.05
980.986	2541.7752	4778.55	3898.8
981.1129	2543.0935	4753.8	3874
981.2397	2544.411	4752.45	3868.9
981.3665	2545.7279	4733.15	3853.1
981.4933	2547.0441	4724.5	3843.8
981.62	2548.3596	4728.5	3843.8
981.7467	2549.6744	4714.55	3833.1
981.8734	2550.9885	4699.3	3810.15
982.0001	2552.3019	4683.2	3801.75
982.1267	2553.6146	4682.4	3800.1
982.2532	2554.9266	4662.5	3780.7
982.3798	2556.2379	4639	3757.05
982.5063	2557.5485	4647.7	3767.55
982.6327	2558.8585	4632.65	3746.45
982.7592	2560.1677	4611.4	3727.65
982.8856	2561.4762	4592.8	3710.9
983.0119	2562.7841	4588.35	3702.9
983.1383	2564.0913	4586.35	3705.5
983.2646	2565.3977	4578.15	3697.7
983.3908	2566.7035	4573.1	3692.35
983.517	2568.0086	4563.45	3681.25
983.6432	2569.313	4547.8	3665.45
983.7694	2570.6167	4550	3665.05
983.8955	2571.9197	4536.75	3657.05
984.0216	2573.222	4524.45	3639.6
984.1476	2574.5236	4536	3655.75
984.2737	2575.8246	4496.2	3612.15
984.3996	2577.1248	4488.35	3604.85
984.5256	2578.4244	4483.15	3602.1
984.6515	2579.7232	4477.85	3597.05
984.7774	2581.0214	4482.55	3576.55
984.9032	2582.3189	4461.35	3581.5
985.029	2583.6157	4447.05	3560.55
985.1548	2584.9118	4440.25	3558.15
985.2806	2586.2072	4421.65	3541.9
985.4063	2587.5019	4416.55	3536.85
985.5319	2588.7959	4395.55	3512.2
985.6576	2590.0893	4388.7	3505.95
985.7832	2591.3819	4382.55	3505.05
985.9087	2592.6739	4367.85	3486.9
986.0343	2593.9652	4347.2	3465.3
986.1597	2595.2557	4333.3	3451.9
986.2852	2596.5456	4334.75	3452.1
986.4106	2597.8348	4303.2	3422.7
986.536	2599.1234	4286.7	3406.85
986.6614	2600.4112	4274.5	3392.55
986.7867	2601.6983	4274.1	3390.6
986.912	2602.9848	4249.7	3369.35
987.0372	2604.2705	4248.15	3362.1
987.1624	2605.5556	4225.45	3347.6
987.2876	2606.84	4216.55	3334.5
987.4128	2608.1237	4213.95	3331.6
987.5379	2609.4067	4203.85	3323.25
987.6629	2610.689	4181.35	3290.6
987.788	2611.9707	4155.15	3271.55
987.913	2613.2516	4133.6	3246.1
988.0379	2614.5319	4125.3	3245.15
988.1629	2615.8115	4108.7	3224.75
988.2878	2617.0903	4100.85	3220.35
988.4126	2618.3685	4089.15	3208.55
988.5375	2619.6461	4072.35	3193.05
988.6622	2620.9229	4061.75	3180.95
988.787	2622.199	4049.95	3166.1
988.9117	2623.4745	4039.95	3159.15
989.0364	2624.7493	4018.55	3138.1
989.161	2626.0234	4020.8	3140.45
989.2857	2627.2968	3997.6	3118
989.4102	2628.5695	3973.95	3091.25
989.5348	2629.8415	3967.35	3087.85
989.6593	2631.1128	3955.55	3073.25
989.7837	2632.3835	3941.3	3061.5
989.9082	2633.6535	3917.6	3036.35
990.0326	2634.9228	3905.35	3025.75
990.1569	2636.1914	3906	3024.9
990.2812	2637.4593	3888.35	3002.45
990.4055	2638.7265	3876.85	2995.4
990.5298	2639.9931	3871.75	2991.15
990.654	2641.259	3854.6	2971.1
990.7782	2642.5242	3855.8	2972.4
990.9023	2643.7887	3836.7	2956.55
991.0264	2645.0525	3821.8	2941.05
991.1505	2646.3156	3808.75	2928.75
991.2745	2647.5781	3788.15	2905.5
991.3985	2648.8398	3784.55	2902.85
991.5225	2650.1009	3813.9	2896.9
991.6464	2651.3613	3776.05	2895.15
991.7703	2652.6211	3776.4	2894.95
991.8942	2653.8801	3746.8	2865.55
992.018	2655.1385	3729.35	2844.55
992.1418	2656.3961	3736.85	2855.65
992.2655	2657.6531	3732.2	2851.5
992.3892	2658.9094	3713	2830.6
992.5129	2660.1651	3693.8	2815.75
992.6366	2661.42	3681.2	2799.6
992.7602	2662.6743	3683.3	2802.7
992.8837	2663.9279	3683.25	2803.4
993.0073	2665.1808	3674.45	2792
993.1307	2666.433	3656.25	2775.65
993.2542	2667.6846	3640.05	2759.3
993.3776	2668.9354	3644.1	2760.1
993.501	2670.1856	3627.4	2744.55
993.6244	2671.4351	3633.8	2753.15
993.7477	2672.6839	3614.55	2732.55
993.8709	2673.9321	3590.95	2710.4
993.9942	2675.1795	3593.5	2711.15
994.1174	2676.4263	3592.4	2711.5
994.2405	2677.6724	3571.45	2692.1
994.3637	2678.9179	3565.3	2683.15
994.4868	2680.1626	3536.5	2655.5
994.6098	2681.4067	3553.75	2673.85
994.7328	2682.6501	3537.95	2658.45
994.8558	2683.8928	3522.85	2642.45
994.9788	2685.1348	3505	2624.65
995.1017	2686.3761	3500.35	2620
995.2245	2687.6168	3490.05	2608
995.3474	2688.8568	3479.6	2598.7
995.4702	2690.0961	3473.75	2593.65
995.5929	2691.3348	3457.2	2574.9
995.7156	2692.5727	3457.45	2575.5
995.8383	2693.81	3428.1	2546.45
995.961	2695.0466	3430	2549.05
996.0836	2696.2826	3431.25	2549.7
996.2062	2697.5178	3426.4	2541.6
996.3287	2698.7524	3408.8	2529.8
996.4512	2699.9863	3409.5	2526.8
996.5737	2701.2195	3393.7	2515.15
996.6961	2702.452	3373.25	2489.8
996.8185	2703.6839	3369.5	2487.3
996.9408	2704.9151	3357.65	2476.2
997.0631	2706.1456	3353.55	2472
997.1854	2707.3755	3330.05	2446.55
997.3077	2708.6046	3331.8	2447.7
997.4299	2709.8331	3333.55	2451.95
997.552	2711.0609	3314.45	2436.4
997.6742	2712.2881	3305.4	2424.95
997.7963	2713.5145	3286.15	2402.2
997.9183	2714.7403	3285.2	2404.4
998.0403	2715.9654	3267.45	2384.6
998.1623	2717.1899	3276.85	2383.2
998.2842	2718.4136	3254.85	2373.95
998.4062	2719.6367	3241.1	2358
998.528	2720.8591	3237.35	2350.35
998.6498	2722.0809	3235.25	2354.2
998.7716	2723.3019	3217.4	2332.85
998.8934	2724.5223	3216.7	2334.35
999.0151	2725.7421	3186.95	2303.05
999.1368	2726.9611	3177.95	2293.2
999.2584	2728.1795	3170.35	2284.6
999.38	2729.3972	3156.3	2275.65
999.5016	2730.6142	3151.5	2260.25
999.6231	2731.8306	3132.6	2250.15
999.7446	2733.0462	3125.75	2245.4
999.8661	2734.2612	3106.9	2221.4
999.9875	2735.4756	3101	2219.45
1000.1089	2736.6892	3089.85	2205.75
1000.2302	2737.9022	3087.25	2206.6
1000.3515	2739.1145	3064.7	2183.4
1000.4728	2740.3262	3065.1	2176.3
1000.594	2741.5372	3055.8	2175.45
1000.7152	2742.7475	3042.95	2162.2
1000.8363	2743.9571	3044.65	2163.5
1000.9575	2745.1661	3041.4	2155.6
1001.0785	2746.3744	3014.85	2134.05
1001.1996	2747.582	3007.1	2125.95
1001.3206	2748.7889	3003.15	2119.9
1001.4415	2749.9952	2983.65	2102.55
1001.5625	2751.2008	2981.2	2100
1001.6833	2752.4057	2989.45	2104.3
1001.8042	2753.61	2968.7	2086.95
1001.925	2754.8136	2953.5	2071.9
1002.0458	2756.0165	2956.3	2075.35
1002.1665	2757.2188	2943.05	2063.3
1002.2872	2758.4204	2922.8	2040.9
1002.4078	2759.6213	2936.05	2051.3
1002.5285	2760.8215	2923.85	2039.8
1002.649	2762.0211	2900.15	2017.65
1002.7696	2763.22	2900.05	2014.75
1002.8901	2764.4182	2883.85	2000.25
1003.0106	2765.6158	2892.4	2012.05
1003.131	2766.8127	2886.05	2004.35
1003.2514	2768.009	2860.85	1980.8
1003.3717	2769.2045	2860.3	1977.3
1003.492	2770.3994	2851.5	1967.15
1003.6123	2771.5936	2845.85	1964.9
1003.7325	2772.7872	2831.95	1951.95
1003.8527	2773.9801	2822.7	1939.5
1003.9729	2775.1723	2832.95	1936.45
1004.093	2776.3639	2812.6	1933.55
1004.2131	2777.5548	2813.45	1929.15
1004.3331	2778.745	2793.25	1910.8
1004.4531	2779.9346	2795.5	1914.85
1004.5731	2781.1235	2791.95	1909.75
1004.693	2782.3117	2766.75	1887.3
1004.8129	2783.4992	2762.85	1882.55
1004.9328	2784.6861	2758.35	1877.55
1005.0526	2785.8723	2761.85	1879.5
1005.1723	2787.0579	2744.7	1862.6
1005.2921	2788.2428	2730	1850.4
1005.4118	2789.427	2735.05	1856.2
1005.5314	2790.6106	2714.8	1834.3
1005.651	2791.7935	2706.25	1821.9
1005.7706	2792.9757	2696.75	1816.9
1005.8902	2794.1573	2698.85	1816
1006.0097	2795.3382	2683.9	1802.65
1006.1291	2796.5184	2679.7	1798
1006.2485	2797.698	2672.05	1790
1006.3679	2798.8769	2665.2	1784.75
1006.4873	2800.0551	2665.35	1785.4
1006.6066	2801.2327	2648.9	1764.3
1006.7258	2802.4096	2644.5	1765.75
1006.8451	2803.5859	2639.15	1757.95
1006.9642	2804.7615	2624.6	1743.25
1007.0834	2805.9364	2611.85	1730.1
1007.2025	2807.1106	2611.1	1730.75
1007.3216	2808.2842	2610.9	1730
1007.4406	2809.4572	2589.35	1708.55
1007.5596	2810.6294	2592.6	1711.15
1007.6785	2811.801	2592.85	1713.45
1007.7975	2812.972	2586.05	1705.3
1007.9163	2814.1423	2584.15	1702.3
1008.0352	2815.3119	2583.8	1701.3
1008.154	2816.4808	2571.75	1690.15
1008.2727	2817.6491	2575.7	1693.75
1008.3914	2818.8167	2582.45	1703.25
1008.5101	2819.9837	2589	1702.8
1008.6288	2821.15	2584	1703.65
1008.7474	2822.3157	2591.1	1711.25
1008.8659	2823.4807	2585.45	1705.1
1008.9844	2824.645	2605.25	1722.55
1009.1029	2825.8086	2607.85	1728.8
1009.2214	2826.9716	2611.75	1731.2
1009.3398	2828.134	2622.65	1741.65
1009.4581	2829.2957	2624.5	1744.95
1009.5764	2830.4567	2629.6	1752.2
1009.6947	2831.617	2636	1754.85
1009.813	2832.7767	2641.6	1761.35
1009.9312	2833.9358	2638.1	1757.5
1010.0493	2835.0941	2637.6	1754.45
1010.1675	2836.2519	2622.5	1743.35
1010.2855	2837.4089	2612.5	1730.4
1010.4036	2838.5653	2620.5	1739.1
1010.5216	2839.7211	2596.35	1717
1010.6396	2840.8761	2584.2	1703.1
1010.7575	2842.0306	2586.8	1707.6
1010.8754	2843.1843	2563.7	1682.2
1010.9932	2844.3374	2578.5	1696.8
1011.111	2845.4899	2564.4	1681.7
1011.2288	2846.6417	2558.75	1677.45
1011.3465	2847.7928	2564.5	1683.45
1011.4642	2848.9433	2558.45	1677.4
1011.5818	2850.0931	2562.75	1683.05
1011.6995	2851.2422	2553.35	1672.65
1011.817	2852.3907	2553.4	1671.9
1011.9345	2853.5385	2552.65	1671.85
1012.052	2854.6857	2553.95	1662.3
1012.1695	2855.8323	2539.3	1658.05
1012.2869	2856.9781	2529.65	1649.15
1012.4042	2858.1233	2533.95	1651.75
1012.5216	2859.2679	2540	1659
1012.6389	2860.4118	2537.1	1657.2
1012.7561	2861.555	2542	1656.1
1012.8733	2862.6976	2550.6	1669.2
1012.9905	2863.8395	2538.5	1658.4
1013.1076	2864.9808	2539.65	1658.3
1013.2247	2866.1214	2532.7	1652.8
1013.3417	2867.2614	2530.95	1650
1013.4587	2868.4007	2522.15	1641.05
1013.5757	2869.5393	2527.05	1645.35
1013.6926	2870.6773	2532.4	1650.35
1013.8095	2871.8146	2510.1	1625.95
1013.9263	2872.9513	2522	1638.95
1014.0431	2874.0874	2518.4	1639.05
1014.1599	2875.2227	2505.25	1625.2
1014.2766	2876.3574	2502.6	1621.25
1014.3933	2877.4915	2509.3	1630.25
1014.51	2878.6249	2498.55	1617.25
1014.6266	2879.7577	2487.7	1608.85
1014.7431	2880.8898	2497.4	1604.25
1014.8596	2882.0212	2500	1619.25
1014.9761	2883.152	2496.4	1616.25
1015.0925	2884.2821	2486.85	1606.3
1015.2089	2885.4116	2470.65	1590.3
1015.3253	2886.5405	2484.9	1604.6
1015.4416	2887.6686	2485.85	1602.15
1015.5579	2888.7962	2468.85	1589
1015.6741	2889.923	2458.65	1578.45
1015.7903	2891.0493	2469.9	1590.2
1015.9065	2892.1748	2449.6	1569.65
1016.0226	2893.2997	2432.05	1550.3
1016.1387	2894.424	2435.35	1557.15
1016.2547	2895.5476	2429.15	1549
1016.3707	2896.6706	2431.15	1553.1
1016.4866	2897.7929	2417.35	1535.6
1016.6025	2898.9145	2427.8	1545.3
1016.7184	2900.0355	2408.45	1527.8
1016.8342	2901.1559	2407.9	1526.1
1016.95	2902.2756	2396.85	1518.55
1017.0658	2903.3946	2381.1	1501.55
1017.1815	2904.513	2381.7	1498.15
1017.2971	2905.6308	2373.25	1493.65
1017.4127	2906.7479	2374.2	1493.1
1017.5283	2907.8643	2363.8	1483.05
1017.6439	2908.9801	2359.55	1480.85
1017.7594	2910.0953	2342	1459.65
1017.8748	2911.2098	2345.85	1463.65
1017.9902	2912.3236	2353.4	1464.85
1018.1056	2913.4368	2339.35	1456.25
1018.2209	2914.5494	2326.7	1446.25
1018.3362	2915.6613	2319.25	1432.5
1018.4515	2916.7725	2314.9	1430.5
1018.5667	2917.8831	2298.55	1416.15
1018.6819	2918.9931	2300.75	1417.25
1018.797	2920.1024	2281.5	1400.8
1018.9121	2921.211	2283.35	1402.15
1019.0271	2922.319	2266.1	1385.05
1019.1421	2923.4264	2257.95	1378.5
1019.2571	2924.5331	2246.3	1366.45
1019.372	2925.6391	2257.9	1375.8
1019.4869	2926.7445	2233.15	1353.95
1019.6017	2927.8493	2243.35	1364.9
1019.7165	2928.9534	2243.3	1362
1019.8313	2930.0569	2241.3	1358.45
1019.946	2931.1597	2228.7	1348.85
1020.0606	2932.2619	2226.65	1346.25
1020.1753	2933.3634	2221.3	1339
1020.2899	2934.4643	2233.7	1347.45
1020.4044	2935.5645	2226.75	1341.2
1020.5189	2936.6641	2231.05	1345.2
1020.6334	2937.763	2216.4	1335.5
1020.7478	2938.8613	2210.45	1329.75
1020.8622	2939.959	2210.05	1322.3
1020.9765	2941.056	2197.85	1319.95
1021.0908	2942.1523	2180.1	1296.75
1021.2051	2943.248	2168.6	1286.6
1021.3193	2944.3431	2140.3	1260.6
1021.4334	2945.4375	2129.9	1249.7
1021.5476	2946.5313	2111.15	1229.55
1021.6617	2947.6244	2096.35	1217.2
1021.7757	2948.7169	2081	1199.85
1021.8897	2949.8087	2069.2	1188.45
1022.0037	2950.8999	2046.9	1166.25
1022.1176	2951.9904	2019.95	1138.95
1022.2315	2953.0803	2007.2	1127.05
1022.3453	2954.1696	2005.65	1125
1022.4591	2955.2582	1998.8	1119.4
1022.5728	2956.3462	1984.95	1105.25
1022.6865	2957.4335	1971.5	1090.7
1022.8002	2958.5202	1968.15	1085.9
1022.9138	2959.6062	1959	1078.3
1023.0274	2960.6916	1959.95	1079.9
1023.141	2961.7764	1950	1069.55
1023.2545	2962.8605	1954.3	1071.25
1023.3679	2963.9439	1948	1068.9
1023.4813	2965.0267	1945.35	1062.65
1023.5947	2966.1089	1957	1052.85
1023.708	2967.1905	1925.55	1044.55
1023.8213	2968.2714	1924.65	1043.75
1023.9346	2969.3516	1910.95	1030.25
1024.0478	2970.4312	1914.25	1026.55
1024.1609	2971.5102	1904.25	1023.05
1024.274	2972.5885	1905.15	1024.3
1024.3871	2973.6662	1909.6	1022.75
1024.5002	2974.7432	1893.25	1014.05
1024.6132	2975.8196	1882	1002.35
1024.7261	2976.8954	1883.8	1003.35
1024.839	2977.9705	1883.5	1002.35
1024.9519	2979.045	1881.9	1002.25
1025.0647	2980.1188	1879.05	998.8
1025.1775	2981.192	1861.25	981.25
1025.2902	2982.2645	1864.95	986
1025.4029	2983.3364	1857	976.3
1025.5156	2984.4077	1840.1	958.75
1025.6282	2985.4783	1849.85	962.4
1025.7407	2986.5483	1827.1	947.6
1025.8532	2987.6177	1821.25	940.05
1025.9657	2988.6864	1817.7	937.7
1026.0782	2989.7545	1813.15	930.9
1026.1906	2990.8219	1812	932.5
1026.3029	2991.8887	1790.55	908.55
1026.4152	2992.9548	1786.65	905
1026.5275	2994.0204	1779.15	899.9
1026.6397	2995.0852	1772.6	894.05
1026.7519	2996.1495	1764.45	884.15
1026.864	2997.2131	1755.1	872.35
1026.9761	2998.276	1746.3	865.1
1027.0882	2999.3383	1747.7	865.45
1027.2002	3000.4	1733.45	851.7
1027.3122	3001.4611	1726.55	847.35
1027.4241	3002.5215	1715.65	835.1
1027.536	3003.5812	1720.4	837.95
1027.6478	3004.6404	1710.05	829.95
1027.7596	3005.6989	1712.9	829.5
1027.8714	3006.7567	1699.05	818.1
1027.9831	3007.8139	1718.05	816.4
1028.0947	3008.8705	1689.1	808.75
1028.2064	3009.9264	1693.5	809.15
1028.3179	3010.9818	1680.4	801.35
1028.4295	3012.0364	1678.4	796.55
1028.541	3013.0905	1670.1	790.45
1028.6524	3014.1439	1669.1	787.05
1028.7638	3015.1966	1665.7	786.7
1028.8752	3016.2487	1653.05	772
1028.9865	3017.3002	1665.15	781.05
1029.0978	3018.3511	1661.25	782.65
1029.209	3019.4013	1650.75	771
1029.3202	3020.4509	1643.65	763.65
1029.4314	3021.4998	1654.45	774.6
1029.5425	3022.5481	1644.5	764.8
1029.6535	3023.5958	1635.35	755.55
1029.7645	3024.6428	1634.35	751.3
1029.8755	3025.6892	1635.25	755.6
1029.9864	3026.735	1631.35	752.2
1030.0973	3027.7802	1629	748.95
1030.2082	3028.8247	1616.95	737.25
1030.319	3029.8685	1621.4	741.15
1030.4297	3030.9118	1618.5	738.1
1030.5404	3031.9544	1611.25	731.8
1030.6511	3032.9963	1607.75	726.6
1030.7617	3034.0376	1600.9	720.6
1030.8723	3035.0783	1606.95	722.6
1030.9829	3036.1184	1601.25	719.5
1031.0934	3037.1578	1603.9	725.65
1031.2038	3038.1966	1594.6	712.7
1031.3142	3039.2348	1596.1	715
1031.4246	3040.2723	1592.2	700.7
1031.5349	3041.3092	1585.35	705.15
1031.6452	3042.3455	1587.3	706.8
1031.7554	3043.3811	1583.2	703
1031.8656	3044.4161	1574	692.3
1031.9758	3045.4505	1580.45	702.35
1032.0859	3046.4842	1573.85	691.9
1032.1959	3047.5173	1565.85	686.6
1032.3059	3048.5498	1564.65	683.25
1032.4159	3049.5816	1560.95	679.8
1032.5258	3050.6128	1561.4	678.8
1032.6357	3051.6434	1552.8	669.55
1032.7455	3052.6734	1553.95	672.45
1032.8553	3053.7027	1545.4	665.45
1032.9651	3054.7314	1557.5	676.05
1033.0748	3055.7594	1547.75	666.2
1033.1845	3056.7868	1544.7	662.95
1033.2941	3057.8136	1545.75	665.8
1033.4037	3058.8398	1544	661.95
1033.5132	3059.8653	1544.5	664.95
1033.6227	3060.8902	1535.35	655.6
1033.7321	3061.9145	1541.25	660.55
1033.8415	3062.9381	1537.45	656.7
1033.9509	3063.9612	1542.6	646.85
1034.0602	3064.9835	1532.15	650.3
1034.1694	3066.0053	1524.55	642.9
1034.2787	3067.0264	1527.65	646.35
1034.3878	3068.0469	1522.7	641.3
1034.497	3069.0668	1523.25	640.5
1034.6061	3070.086	1521.45	642.5
1034.7151	3071.1046	1511.8	629.4
1034.8241	3072.1226	1503.75	623.35
1034.9331	3073.1399	1505	625.7
1035.042	3074.1567	1496.2	616.35
1035.1508	3075.1727	1499.95	617.5
1035.2597	3076.1882	1494.5	612.7
1035.3684	3077.203	1499.25	617.15
1035.4772	3078.2173	1494.25	612.4
1035.5859	3079.2308	1493.15	608.9
1035.6945	3080.2438	1485.9	603.75
1035.8031	3081.2561	1477.9	597.9
1035.9117	3082.2678	1472.25	591.7
1036.0202	3083.2789	1472.65	591.75
1036.1286	3084.2893	1466.75	587.35
1036.2371	3085.2991	1471.9	591.25
1036.3454	3086.3083	1465.5	581.25
1036.4538	3087.3169	1459.15	577.45
1036.562	3088.3248	1452.9	571.5
1036.6703	3089.3321	1454.65	571.85
1036.7785	3090.3388	1447.35	566.3
1036.8866	3091.3449	1446.2	565.3
1036.9948	3092.3503	1451.35	568.45
1037.1028	3093.3551	1441.25	564.6
1037.2108	3094.3593	1444.1	564.7
1037.3188	3095.3629	1445.5	566.15
1037.4267	3096.3658	1439.05	558.15
1037.5346	3097.3681	1430.4	551.35
1037.6425	3098.3698	1430.15	548.55
1037.7503	3099.3708	1431.6	544.5
1037.858	3100.3713	1418.35	538.6
1037.9657	3101.3711	1424.95	544
1038.0734	3102.3702	1542.75	527.35
1038.181	3103.3688	1418.15	536.8
1038.2886	3104.3667	1410.25	530.65
1038.3961	3105.364	1405.3	526.5
1038.5036	3106.3607	1402.2	520.75
1038.611	3107.3568	1400.9	518.8
1038.7184	3108.3522	1396.2	516.9
1038.8257	3109.347	1390.65	509.55
1038.933	3110.3412	1394.1	510.15
1039.0403	3111.3348	1388.55	507.65
1039.1475	3112.3277	1386.75	506.15
1039.2547	3113.32	1381.05	500.95
1039.3618	3114.3117	1387.3	506.95
1039.4689	3115.3028	1380.6	500.9
1039.5759	3116.2932	1366.25	483.6
1039.6829	3117.2831	1377.95	494.3
1039.7898	3118.2723	1369.85	489.5
1039.8967	3119.2608	1368	488.75
1040.0035	3120.2488	1362.1	482.65
1040.1103	3121.2361	1360.25	479.9
1040.2171	3122.2229	1356.1	476.05
1040.3238	3123.209	1355.2	473.4
1040.4305	3124.1944	1348.95	469.55
1040.5371	3125.1793	1352.2	471.3
1040.6437	3126.1635	1348.9	467.85
1040.7502	3127.1471	1344.95	464.25
1040.8567	3128.1301	1338.9	457.8
1040.9631	3129.1125	1341.25	461.55
1041.0695	3130.0942	1346.35	467
1041.1759	3131.0753	1336.9	448.4
1041.2822	3132.0558	1337.2	455.7
1041.3884	3133.0357	1330.1	449.35
1041.4946	3134.015	1329	449.1
1041.6008	3134.9936	1323.3	439.7
1041.7069	3135.9716	1344.9	442.95
1041.813	3136.949	1320.2	441.25
1041.919	3137.9258	1331.15	445.35
1042.025	3138.902	1328.9	440.85
1042.1309	3139.8775	1317	439
1042.2368	3140.8524	1321.3	441.9
1042.3427	3141.8267	1311.6	430.2
1042.4485	3142.8004	1311.75	429.35
1042.5542	3143.7735	1316.25	429.05
1042.6599	3144.7459	1313.6	430.65
1042.7656	3145.7178	1303.85	424.2
1042.8712	3146.689	1302.15	421.95
1042.9768	3147.6596	1305.7	422.25
1043.0823	3148.6295	1305.8	424.5
1043.1878	3149.5989	1303.35	422.85
1043.2932	3150.5676	1295.7	416.95
1043.3986	3151.5357	1291.35	411.15
1043.5039	3152.5032	1293.65	415.9
1043.6092	3153.4701	1290.8	411.3
1043.7145	3154.4364	1291.2	407.25
1043.8197	3155.402	1282.55	403.65
1043.9248	3156.367	1284.5	402.1
1044.03	3157.3315	1313.2	395.8
1044.135	3158.2952	1270.85	390.55
1044.24	3159.2584	1268.75	390.8
1044.345	3160.221	1278.35	398.2
1044.4499	3161.1829	1268.6	386.4
1044.5548	3162.1442	1262.95	382.6
1044.6596	3163.105	1260.8	380.65
1044.7644	3164.065	1269	386.55
1044.8692	3165.0245	1263.05	378.3
1044.9739	3165.9834	1256.25	377.35
1045.0785	3166.9416	1257.15	377.1
1045.1831	3167.8993	1253.1	371.9
1045.2877	3168.8563	1251.8	371.9
1045.3922	3169.8127	1254.05	370.65
1045.4966	3170.7684	1247.9	367.5
1045.6011	3171.7236	1249.75	368.6
1045.7054	3172.6782	1243.2	363.2
1045.8098	3173.6321	1241.25	360.45
1045.914	3174.5854	1242.9	359.7
1046.0183	3175.5381	1240.8	361.25
1046.1224	3176.4902	1233.9	355.8
1046.2266	3177.4417	1238.55	360.7
1046.3307	3178.3926	1232.5	351.75
1046.4347	3179.3428	1225.7	346.75
1046.5387	3180.2924	1226.25	348.2
1046.6427	3181.2415	1223.8	344.1
1046.7466	3182.1899	1227.6	346.75
1046.8504	3183.1377	1227.5	348.25
1046.9542	3184.0848	1225.45	340.55
1047.058	3185.0314	1222.9	341.15
1047.1617	3185.9773	1219.95	337.95
1047.2654	3186.9227	1222	342.85
1047.369	3187.8674	1214	333.9
1047.4726	3188.8115	1213	329.45
1047.5761	3189.755	1212.95	333.85
1047.6796	3190.6979	1206.9	324.95
1047.783	3191.6402	1213.05	335
1047.8864	3192.5818	1207.9	328.15
1047.9898	3193.5229	1208.55	322.35
1048.0931	3194.4633	1201.8	322.1
1048.1963	3195.4031	1199.9	316.95
1048.2995	3196.3423	1199.7	319.95
1048.4027	3197.2809	1192.4	311.1
1048.5058	3198.2189	1198.3	318.2
1048.6089	3199.1563	1198.8	312.8
1048.7119	3200.0931	1193.05	314.05
1048.8148	3201.0292	1188.1	311.4
1048.9178	3201.9648	1184.35	303.05
1049.0206	3202.8997	1189.5	305.5
1049.1235	3203.834	1185.6	306.4
1049.2262	3204.7677	1180.4	300.95
1049.329	3205.7008	1183.95	301
1049.4317	3206.6333	1180.7	302.4
1049.5343	3207.5652	1181.3	298.6
1049.6369	3208.4964	1179.85	301.65
1049.7394	3209.4271	1177.1	297.4
1049.8419	3210.3571	1175.85	295.15
1049.9444	3211.2865	1174.9	295.4
1050.0468	3212.2154	1173.1	290.35
1050.1491	3213.1436	1176.2	292.75
1050.2514	3214.0712	1169.35	281.1
1050.3537	3214.9982	1165.5	285.9
1050.4559	3215.9246	1165.8	285.75
1050.5581	3216.8503	1163.2	284.15
1050.6602	3217.7755	1163.35	286.2
1050.7623	3218.7001	1162.5	284.15
1050.8643	3219.624	1160.75	278.15
1050.9663	3220.5473	1158.9	279.35
1051.0682	3221.4701	1157.6	273.6
1051.1701	3222.3922	1162.35	281.2
1051.2719	3223.3137	1150.35	271.55
1051.3737	3224.2346	1156	274.4
1051.4754	3225.1549	1150.5	271.55
1051.5771	3226.0746	1148.3	265.6
1051.6788	3226.9937	1152.35	273.25
1051.7804	3227.9121	1144.6	264.4
1051.8819	3228.83	1149.65	269
1051.9834	3229.7473	1143.3	262.3
1052.0849	3230.6639	1141.2	260.75
1052.1863	3231.5799	1141.15	260.55
1052.2876	3232.4954	1133.1	252.65
1052.3889	3233.4102	1138.1	255.8
1052.4902	3234.3244	1136.05	255.85
1052.5914	3235.238	1131.8	252.65
1052.6926	3236.151	1160	256.6
1052.7937	3237.0634	1126.25	248.3
1052.8948	3237.9752	1128.85	248.25
1052.9958	3238.8864	1129.85	252.65
1053.0968	3239.797	1128.8	248.7
1053.1977	3240.7069	1127	246.5
1053.2986	3241.6163	1129.6	247.55
1053.3994	3242.5251	1125.3	243.75
1053.5002	3243.4332	1119.3	239.45
1053.6009	3244.3408	1125.55	246.35
1053.7016	3245.2477	1115.6	235.2
1053.8022	3246.154	1122	241.15
1053.9028	3247.0598	1117.65	237.7
1054.0034	3247.9649	1114.35	234.75
1054.1039	3248.8694	1109.25	227.75
1054.2043	3249.7733	1110.6	230.5
1054.3047	3250.6766	1112	231.7
1054.4051	3251.5793	1111.5	228.45
1054.5054	3252.4814	1112.8	233.55
1054.6056	3253.3829	1104.2	225.55
1054.7058	3254.2838	1100.3	220.05
1054.806	3255.1841	1102.75	222.5
1054.9061	3256.0838	1094.1	213.95
1055.0061	3256.9829	1093.3	213.05
1055.1062	3257.8814	1100.5	217.55
1055.2061	3258.7792	1099.45	218
1055.306	3259.6765	1089.2	206.4
1055.4059	3260.5731	1094.4	214.1
1055.5057	3261.4692	1088.15	206.25
1055.6055	3262.3647	1084.1	204.35
1055.7052	3263.2595	1080.6	200.7
1055.8049	3264.1538	1081.55	201
1055.9045	3265.0474	1080.45	200.15
1056.0041	3265.9404	1074.2	195.8
1056.1036	3266.8329	1072.3	192
1056.2031	3267.7247	1076.85	184.3
1056.3025	3268.616	1063	185.5
1056.4019	3269.5066	1057.5	175.6
1056.5013	3270.3966	1057.3	177.45
1056.6005	3271.286	1047.4	169
