Software Version:	3.9.2.0
Unit SN:	10000200
Spectrometer SN:	6960
Date:	3/6/2024 10:04:11 AM
Data Line Index:	25
Spectral Points:	2048
Integration time (ms):	125
Averages:	20
Delay (ms):	30
Sequence Number:	1
Processing:	dark subtract
Laser Power (mW):	300
Laser Current (mA):	826
Laser Diode Temp (C):	25.1
Laser Case Temp (C):	24.7
System Temp (C):	24.6
Spectrometer Temp (C):	22.1
CCD Temp (C):	0.001
Secondary Temp (C):	20.008
Heatsink Temp (C):	18.597
CCDPCB Temp (C):	32.038
SecondaryPCB Temp (C):	26.18

Wavelength	RamanShift	Raw Counts	Dark Subtracted
787.061	30.1047	650.5	243
787.2016	32.3739	659.7	255.4
787.3422	34.6426	673.2	266.65
787.4828	36.9109	689.35	281.25
787.6235	39.1787	709.2	296.75
787.7642	41.4461	738.55	320.15
787.9049	43.7131	763.55	342.8
788.0456	45.9796	784.5	360.5
788.1863	48.2456	809.6	383.35
788.3271	50.5112	833.9	402.85
788.4679	52.7764	854.4	421.25
788.6087	55.0411	881.55	442.25
788.7496	57.3054	913.7	469.95
788.8904	59.5692	946.75	501.6
789.0313	61.8326	984.15	536.2
789.1722	64.0955	1017.2	565.3
789.3132	66.3579	1067.3	611
789.4541	68.6199	1123.5	663.3
789.5951	70.8815	1221.6	755.3
789.7361	73.1426	1452.1	984
789.8771	75.4032	1996.8	1524.95
790.0181	77.6634	3369.95	2895.05
790.1592	79.9231	6826.3	6346.9
790.3003	82.1824	14913.25	14422.65
790.4414	84.4412	32673.05	32166.05
790.5825	86.6995	49826.25	49298.95
790.7237	88.9574	56835.5	56289.85
790.8648	91.2148	60843.5	60287.45
791.006	93.4717	61828.1	61264.05
791.1472	95.7282	62294.35	61726.15
791.2885	97.9842	62503.8	61936.05
791.4297	100.2398	62496.05	61920.8
791.571	102.4949	62499.8	61925
791.7123	104.7495	62503	61925.15
791.8536	107.0036	62393.1	61813.1
791.9949	109.2573	62562.45	61982.45
792.1363	111.5105	62465.95	61883.4
792.2777	113.7632	62515.05	61930.45
792.4191	116.0154	62595.45	61999.95
792.5605	118.2672	62687.05	62095.5
792.7019	120.5185	62709.35	62119
792.8434	122.7693	62724.25	62131.55
792.9849	125.0197	62552.9	61954.95
793.1264	127.2696	62824.1	62222.05
793.2679	129.519	62804.7	62199.15
793.4094	131.7679	62897.55	62289.1
793.551	134.0163	62668.3	62057.95
793.6926	136.2642	62754.25	62143.5
793.8342	138.5117	62919.7	62304.45
793.9758	140.7587	62880.8	62266.15
794.1175	143.0052	62878.4	62254.45
794.2591	145.2512	62760.15	62138.5
794.4008	147.4967	62928.6	62304.9
794.5425	149.7417	62874.45	62247.15
794.6842	151.9863	62867.2	62237.3
794.826	154.2304	62785.45	62147.95
794.9677	156.4739	62862.3	62223.1
795.1095	158.717	62960.8	62322.95
795.2513	160.9596	62891.95	62250.35
795.3931	163.2017	62773.4	62129.3
795.535	165.4433	62908.95	62262.1
795.6768	167.6844	62845.3	62198.7
795.8187	169.925	62897.15	62245.05
795.9606	172.1651	62843.95	62188.15
796.1025	174.4047	62873.95	62215.05
796.2445	176.6439	62874.6	62213.5
796.3864	178.8825	62849.3	62183.65
796.5284	181.1206	62966.3	62298.2
796.6704	183.3582	62953.15	62283.35
796.8124	185.5954	62879.3	62204.1
796.9544	187.832	62916.6	62238.95
797.0965	190.0681	62821.55	62140.8
797.2386	192.3037	62987.65	62302.55
797.3806	194.5388	63136.85	62450.15
797.5228	196.7734	62797.6	62109.05
797.6649	199.0075	63113.15	62423.9
797.807	201.2411	63010.8	62318.5
797.9492	203.4742	63206.4	62512.35
798.0914	205.7068	63157.8	62457.4
798.2336	207.9389	63142.25	62439.05
798.3758	210.1704	63129.15	62435.85
798.518	212.4015	63247.35	62566.05
798.6603	214.632	63105.4	62431.05
798.8025	216.862	63278.05	62603.25
798.9448	219.0915	63204.1	62525.7
799.0871	221.3205	63202.35	62523.2
799.2294	223.549	63354.45	62679.15
799.3718	225.777	63350.05	62674.25
799.5141	228.0044	63423.3	62739.3
799.6565	230.2314	63344.4	62663.25
799.7989	232.4578	63368.3	62677.65
799.9413	234.6837	63422.9	62724.7
800.0837	236.909	63676.6	62978.95
800.2262	239.1339	63296.15	62574.8
800.3687	241.3582	63450.9	62740.85
800.5111	243.582	63484.1	62744.65
800.6536	245.8053	63462.7	62737.75
800.7961	248.0281	63492.8	62771.8
800.9387	250.2503	63541.8	62814.65
801.0812	252.472	63410	62676.45
801.2238	254.6932	63520.2	62795.9
801.3664	256.9139	63465.3	62735.1
801.509	259.134	63693.05	62959
801.6516	261.3536	63445.65	62716.3
801.7942	263.5727	63603.55	62869.8
801.9369	265.7912	63522.1	62790
802.0795	268.0092	63562.45	62828.75
802.2222	270.2267	63599.7	62871.4
802.3649	272.4436	63479.7	62746.35
802.5076	274.6601	63612.85	62865.95
802.6504	276.8759	63655.65	62915.05
802.7931	279.0913	63586.6	62843.15
802.9359	281.3061	63617.4	62874.75
803.0787	283.5204	63617.05	62869.4
803.2215	285.7341	63620.7	62871.8
803.3643	287.9473	63722.45	62961.6
803.5071	290.16	63626.9	62874.65
803.6499	292.3721	63659.6	62910.85
803.7928	294.5837	63618.35	62871
803.9357	296.7947	63538.7	62792.25
804.0786	299.0052	63713.85	62962.45
804.2215	301.2152	63648.2	62896.8
804.3644	303.4246	63709.65	62961.2
804.5074	305.6334	63703.85	62953.35
804.6503	307.8418	63594.45	62839.3
804.7933	310.0495	63577.3	62821.9
804.9363	312.2568	63588.75	62833.35
805.0793	314.4635	63588.7	62829.6
805.2223	316.6696	63643.65	62884.1
805.3653	318.8752	63699.45	62930.9
805.5084	321.0802	63461.75	62699.1
805.6514	323.2847	63588.55	62821.65
805.7945	325.4887	63545.95	62778.95
805.9376	327.692	63493.85	62727.05
806.0807	329.8949	63573.5	62806.6
806.2238	332.0972	63520.65	62751.95
806.367	334.2989	63584.75	62812.2
806.5101	336.5001	63645.2	62872.5
806.6533	338.7007	63460.7	62691.35
806.7965	340.9008	63572.1	62791.75
806.9397	343.1003	63595.1	62818.35
807.0829	345.2992	63634.8	62857.2
807.2261	347.4976	63543.95	62767.2
807.3693	349.6955	63598.35	62816.8
807.5126	351.8927	63528.05	62744.55
807.6559	354.0895	63594	62796.7
807.7991	356.2856	63584	62796
807.9424	358.4812	63654.55	62868.95
808.0857	360.6763	63528.25	62739
808.2291	362.8707	63649.25	62855.3
808.3724	365.0646	63567.9	62776.15
808.5158	367.258	63569.4	62776.8
808.6591	369.4508	63491.1	62692.45
808.8025	371.643	63640.2	62839
808.9459	373.8346	63560.35	62761.45
809.0893	376.0257	63565.1	62763.25
809.2327	378.2162	63530.9	62731.7
809.3762	380.4062	63407.2	62604.7
809.5196	382.5956	63527.3	62730.4
809.6631	384.7844	63500.9	62706.7
809.8066	386.9726	63576	62782.6
809.9501	389.1603	63565.85	62777.95
810.0936	391.3474	63464.75	62629.45
810.2371	393.5339	63552.2	62755.25
810.3806	395.7199	63383.35	62590.8
810.5241	397.9052	63408.35	62613.1
810.6677	400.09	63468.4	62674.95
810.8113	402.2743	63548	62751.3
810.9548	404.4579	63426.2	62628.75
811.0984	406.641	63446.7	62647.15
811.2421	408.8235	63495.3	62698.65
811.3857	411.0054	63522.85	62717.35
811.5293	413.1868	63552.9	62745.15
811.673	415.3675	63510.6	62698.8
811.8166	417.5477	63514.7	62702.55
811.9603	419.7273	63496.2	62681.85
812.104	421.9064	63475.4	62657.05
812.2477	424.0848	63476.05	62663.2
812.3914	426.2627	63554.65	62743.5
812.5351	428.4399	63432	62617.55
812.6788	430.6166	63292.45	62473.3
812.8226	432.7928	63445.6	62623.15
812.9663	434.9683	63330.15	62509
813.1101	437.1432	63331.2	62506.4
813.2539	439.3176	63395.35	62579.35
813.3977	441.4914	63205.9	62389.45
813.5415	443.6645	63254.1	62434.9
813.6853	445.8371	63261.15	62442.45
813.8291	448.0091	63202.05	62384.1
813.973	450.1806	63134.25	62311.15
814.1168	452.3514	63164.65	62342.85
814.2607	454.5216	63102.65	62273.3
814.4046	456.6913	63171.95	62346.15
814.5485	458.8603	63188.1	62364.8
814.6924	461.0288	63076.45	62255.25
814.8363	463.1967	63156.3	62334.2
814.9802	465.3639	63147.75	62324.5
815.1241	467.5306	62969.9	62144.2
815.2681	469.6967	63080.65	62257.05
815.412	471.8622	63132.8	62311
815.556	474.0271	63048.85	62225.75
815.7	476.1914	63088.2	62260.85
815.844	478.3551	63076.3	62249.6
815.988	480.5182	63190.95	62366.2
816.132	482.6807	63023.2	62199.15
816.276	484.8426	63031.35	62210.05
816.4201	487.0039	63189.2	62366.95
816.5641	489.1647	63187.35	62356.3
816.7082	491.3248	63032.8	62202.1
816.8522	493.4843	63206.8	62378.6
816.9963	495.6432	63199.6	62371.85
817.1404	497.8015	62986.45	62150.75
817.2845	499.9592	63095.3	62260.05
817.4286	502.1163	63111.5	62276.35
817.5727	504.2728	63099.8	62265.3
817.7168	506.4287	63073.8	62243.75
817.861	508.5839	62985.65	62156.65
818.0051	510.7386	63054.55	62222.7
818.1493	512.8927	63083.2	62245.25
818.2935	515.0461	63041.95	62204.85
818.4377	517.199	63117.1	62275.75
818.5818	519.3512	63033.15	62193.6
818.726	521.5029	63025.25	62178.95
818.8703	523.6539	63044.7	62202.45
819.0145	525.8043	62925.05	62081.6
819.1587	527.9541	63033.1	62190.75
819.303	530.1033	63010.7	62166.3
819.4472	532.2519	62961.15	62123.35
819.5915	534.3999	63044.85	62202
819.7357	536.5472	63083.35	62241.6
819.88	538.694	62926.35	62085.85
820.0243	540.8401	62996.85	62150.4
820.1686	542.9856	63004.05	62156
820.3129	545.1305	63082.1	62230.05
820.4572	547.2748	62979.45	62129.85
820.6016	549.4185	62942.1	62087.8
820.7459	551.5615	63030.85	62178.35
820.8902	553.704	63001.7	62147.3
821.0346	555.8458	62930.4	62082.55
821.1789	557.987	62957.3	62110.1
821.3233	560.1276	63009	62159.25
821.4677	562.2675	62954	62102.65
821.6121	564.4069	62985.7	62134.7
821.7565	566.5456	63014.05	62165.9
821.9009	568.6837	62915.4	62067.5
822.0453	570.8212	62931.95	62084.05
822.1897	572.958	62814.65	61964
822.3342	575.0942	62951.9	62103.05
822.4786	577.2299	62823.4	61975.2
822.6231	579.3648	62794.45	61949.8
822.7675	581.4992	62767.35	61927.6
822.912	583.6329	62732.1	61892.1
823.0565	585.766	62719.6	61876.75
823.201	587.8985	62753.2	61907.75
823.3454	590.0304	62595.85	61722.55
823.4899	592.1616	62698.25	61841.9
823.6345	594.2922	62650.9	61794.75
823.779	596.4222	62562.05	61704.5
823.9235	598.5515	62584.55	61727.05
824.068	600.6802	62610.05	61756.55
824.2126	602.8083	62520.4	61667.6
824.3571	604.9358	62519.4	61659.95
824.5017	607.0626	62579.1	61720.65
824.6462	609.1888	62451.05	61585.7
824.7908	611.3144	62516.45	61655
824.9354	613.4393	62456.05	61595.45
825.08	615.5636	62417.8	61557.15
825.2246	617.6873	62478.65	61620.8
825.3692	619.8103	62416.6	61554.25
825.5138	621.9327	62467.9	61603.35
825.6584	624.0544	62473.05	61611.8
825.803	626.1756	62435.15	61576.65
825.9477	628.2961	62433.6	61571.55
826.0923	630.4159	62358.55	61496.9
826.237	632.5351	62349.4	61485.95
826.3816	634.6537	62468.35	61604.8
826.5263	636.7716	62311.55	61444.7
826.6709	638.8889	62373.4	61505.35
826.8156	641.0056	62348.7	61481.6
826.9603	643.1216	62385.9	61518.7
827.105	645.237	62424.4	61557.85
827.2497	647.3518	62321.75	61457.6
827.3944	649.4659	62366.85	61504.7
827.5391	651.5793	62336.1	61472.9
827.6838	653.6922	62334.15	61472.15
827.8285	655.8043	62243.5	61377.85
827.9733	657.9159	62385.55	61519.55
828.118	660.0268	62086.6	61220.65
828.2627	662.137	62248.55	61380.65
828.4075	664.2466	62280.95	61410.4
828.5522	666.3556	62205.3	61333.75
828.697	668.4639	62251.45	61379.1
828.8418	670.5716	62199	61331.95
828.9865	672.6786	62253.65	61384.2
829.1313	674.785	62147.65	61276.75
829.2761	676.8907	62151.45	61279.65
829.4209	678.9958	62178.6	61311.85
829.5657	681.1002	62181.15	61310
829.7105	683.204	62097.7	61222.1
829.8553	685.3072	62034.2	61160.25
830.0001	687.4097	62057.75	61185.2
830.1449	689.5115	62037.9	61161.8
830.2898	691.6127	62138.95	61267.1
830.4346	693.7132	62020.35	61148.05
830.5794	695.8131	62020.7	61127.15
830.7243	697.9123	62056.7	61181.7
830.8691	700.0109	62060.75	61182.85
831.014	702.1089	61894.1	61022.25
831.1588	704.2061	61966.2	61087.55
831.3037	706.3028	61975.4	61097.9
831.4486	708.3987	61998.9	61120.25
831.5935	710.4941	61904.75	61030.25
831.7383	712.5887	61997.55	61119.1
831.8832	714.6827	61912.55	61031.75
832.0281	716.7761	61978.6	61101.9
832.173	718.8688	61984.7	61110.3
832.3179	720.9608	61909.15	61026.25
832.4628	723.0522	61919.2	61034.3
832.6077	725.1429	61813.55	60933.55
832.7527	727.233	62029.2	61149.55
832.8976	729.3224	61638.1	60755.95
833.0425	731.4112	61789.85	60909.4
833.1874	733.4993	61783.7	60903.3
833.3324	735.5867	61810.3	60927.6
833.4773	737.6735	61705	60824.9
833.6222	739.7596	61564.65	60684.75
833.7672	741.845	61552.5	60674.55
833.9122	743.9298	61727.6	60847.35
834.0571	746.014	61522.45	60643.25
834.2021	748.0974	61361.15	60477.55
834.347	750.1802	61650.1	60766.25
834.492	752.2624	61278.4	60395.95
834.637	754.3439	61295	60409.85
834.782	756.4247	61386.7	60496.05
834.9269	758.5048	61171.15	60286.1
835.0719	760.5843	61258.15	60373.35
835.2169	762.6631	61310.8	60425.5
835.3619	764.7413	61203.2	60320.6
835.5069	766.8188	61166.45	60282.05
835.6519	768.8956	61293.2	60406.3
835.7969	770.9718	61275.55	60389.55
835.9419	773.0473	61166.75	60280.65
836.0869	775.1221	60961.75	60077.3
836.232	777.1962	60951.15	60066.05
836.377	779.2697	60680.3	59793.4
836.522	781.3426	60854.35	59950.7
836.667	783.4147	60909.95	60023.1
836.8121	785.4862	60798.05	59912.9
836.9571	787.557	60563.25	59676.85
837.1021	789.6271	60846.35	59959.3
837.2472	791.6966	60667.8	59778.8
837.3922	793.7654	60369.05	59483.35
837.5373	795.8335	60433.7	59547.35
837.6823	797.901	60516.9	59631.25
837.8274	799.9678	60317.8	59428.1
837.9724	802.0339	60231.75	59344.5
838.1175	804.0993	60260.1	59361.1
838.2626	806.1641	60150.25	59259.1
838.4076	808.2282	60085.8	59197.65
838.5527	810.2916	60039.95	59147.7
838.6978	812.3544	60192.25	59306.45
838.8428	814.4164	59894.7	59009
838.9879	816.4778	59958.05	59065.3
839.133	818.5385	59945.05	59055.55
839.2781	820.5986	59933.6	59043.7
839.4232	822.658	59954.55	59062.55
839.5682	824.7166	59983.8	59091.55
839.7133	826.7747	59739.2	58849.4
839.8584	828.832	59848.5	58958.65
840.0035	830.8886	59980.45	59086.2
840.1486	832.9446	59976	59085.75
840.2937	834.9999	59479.05	58591.15
840.4388	837.0545	59681.2	58783.65
840.5839	839.1085	59763.55	58871.5
840.729	841.1618	59665	58769.1
840.8741	843.2143	59353.5	58460.65
841.0192	845.2662	59354.4	58460.8
841.1643	847.3175	59465.3	58574.95
841.3095	849.368	59097.1	58203.8
841.4546	851.4179	59400.1	58506.85
841.5997	853.467	59141.4	58250.8
841.7448	855.5155	59273.45	58381.1
841.8899	857.5633	59033.85	58140.65
842.0351	859.6105	58901.7	58007.05
842.1802	861.6569	59085.1	58192
842.3253	863.7027	58765.15	57869.75
842.4704	865.7478	58931.45	58036.6
842.6156	867.7922	58801.2	57908.3
842.7607	869.8359	58909.85	58014.3
842.9058	871.8789	58620.65	57725.2
843.0509	873.9212	58809.4	57882.15
843.1961	875.9629	58734.5	57842.25
843.3412	878.0039	58718.55	57823.9
843.4863	880.0441	58617.45	57723.95
843.6315	882.0837	58611.15	57717.05
843.7766	884.1226	58628.5	57733.6
843.9218	886.1609	58640.95	57746.55
844.0669	888.1984	58512.75	57618.45
844.212	890.2352	58719.2	57827.05
844.3572	892.2714	58451.65	57550.5
844.5023	894.3069	58593.8	57697.1
844.6475	896.3416	58419.35	57525.35
844.7926	898.3757	58380	57482.15
844.9377	900.4091	58139.5	57244.05
845.0829	902.4418	58425.7	57524.75
845.228	904.4739	58163.75	57262.15
845.3732	906.5052	58262.7	57362.75
845.5183	908.5358	58174.7	57277.85
845.6635	910.5658	58044.45	57142.95
845.8086	912.595	58017.9	57118.25
845.9538	914.6236	57763.85	56866.3
846.0989	916.6515	58105.5	57206.85
846.2441	918.6786	57682.35	56782.55
846.3892	920.7051	57763.5	56862.7
846.5344	922.7309	57763.85	56866.1
846.6795	924.756	57777.75	56881
846.8246	926.7804	57644.75	56746.5
846.9698	928.8041	57351.55	56452.1
847.1149	930.8272	57526	56627.3
847.2601	932.8495	57463.95	56564.6
847.4052	934.8711	57314.55	56414.55
847.5504	936.892	57218.65	56320.75
847.6955	938.9123	57186.3	56286
847.8407	940.9318	57079.4	56181.75
847.9858	942.9506	57065.55	56167.4
848.131	944.9688	57061.8	56162.1
848.2761	946.9862	56747.25	55848.5
848.4213	949.003	56801.7	55902.85
848.5664	951.019	56547.5	55647.7
848.7115	953.0344	56587.7	55686.6
848.8567	955.0491	56560.4	55661.6
849.0018	957.063	56600.9	55701.55
849.147	959.0763	56604.9	55708.6
849.2921	961.0888	56435.05	55534.6
849.4373	963.1007	56562.7	55661.35
849.5824	965.1119	56492.9	55596.05
849.7275	967.1223	56367.05	55475.5
849.8727	969.1321	56458.75	55564
850.0178	971.1412	56270.6	55371.75
850.1629	973.1495	56187.95	55288
850.3081	975.1572	56192.6	55253
850.4532	977.1641	56204.45	55305.55
850.5983	979.1704	56044.5	55142.25
850.7435	981.1759	56064.9	55163.15
850.8886	983.1808	55961.7	55059.8
851.0337	985.1849	55909.45	54997.4
851.1788	987.1884	55862.65	54959.95
851.324	989.1911	55940.1	55038.3
851.4691	991.1932	55686.4	54785.25
851.6142	993.1945	55679.3	54780.9
851.7593	995.1951	55655.9	54753.7
851.9045	997.1951	55520.65	54613.15
852.0496	999.1943	55409.8	54510.4
852.1947	1001.1928	55307.4	54402.95
852.3398	1003.1906	55252.1	54351.2
852.4849	1005.1877	55167.3	54263.7
852.63	1007.1841	55062.65	54160.7
852.7751	1009.1798	55015.9	54116.75
852.9202	1011.1748	54923.65	54022.9
853.0653	1013.1691	54890.15	53989.3
853.2104	1015.1627	54662.3	53761.75
853.3555	1017.1556	54536.75	53637.15
853.5006	1019.1477	54577.75	53677.45
853.6457	1021.1392	54356.2	53458.1
853.7908	1023.1299	54173.7	53278.05
853.9359	1025.12	54214.55	53318.35
854.081	1027.1093	54053.05	53163.7
854.2261	1029.0979	54022.4	53132.55
854.3712	1031.0859	53904.9	53012.25
854.5163	1033.0731	53767.85	52872.25
854.6613	1035.0596	53764.25	52866.9
854.8064	1037.0454	53655.3	52755.2
854.9515	1039.0304	53558.55	52656.95
855.0965	1041.0148	53368.65	52467.7
855.2416	1042.9985	53345.75	52444.95
855.3867	1044.9814	53411.25	52510.05
855.5317	1046.9636	53164.95	52262.7
855.6768	1048.9452	53147.65	52250.95
855.8219	1050.926	53143.05	52242.5
855.9669	1052.9061	53036.1	52136.7
856.112	1054.8855	53042.4	52142
856.257	1056.8642	52916.1	52014.55
856.4021	1058.8421	52838.45	51934.5
856.5471	1060.8194	52805.3	51902.45
856.6921	1062.7959	52717.6	51815.35
856.8372	1064.7717	52759.9	51857.8
856.9822	1066.7469	52681.8	51779.85
857.1272	1068.7213	52627.1	51721.9
857.2723	1070.695	52600.8	51701.5
857.4173	1072.6679	52494.05	51592.85
857.5623	1074.6402	52490.75	51587.5
857.7073	1076.6117	52409.65	51502.65
857.8523	1078.5826	52366.55	51464.3
857.9973	1080.5527	52325.95	51418.85
858.1423	1082.5221	52188.2	51285.2
858.2873	1084.4908	52188.95	51289.7
858.4323	1086.4587	52071.5	51168.55
858.5773	1088.426	52079.75	51176.7
858.7223	1090.3925	51958.8	51050.55
858.8673	1092.3584	51946.5	51046.8
859.0123	1094.3235	51776.85	50876.25
859.1573	1096.2879	51739.4	50837.85
859.3022	1098.2515	51798.55	50898.55
859.4472	1100.2145	51750.05	50850.65
859.5922	1102.1767	51654.2	50750.05
859.7371	1104.1382	51605.05	50705.45
859.8821	1106.099	51582	50678.65
860.027	1108.0591	51540.25	50639.15
860.172	1110.0185	51416	50513.45
860.3169	1111.9771	51509.7	50606.75
860.4619	1113.9351	51360.4	50459.45
860.6068	1115.8923	51253.25	50349.95
860.7517	1117.8488	51131.15	50229.6
860.8967	1119.8045	50989.1	50087.15
861.0416	1121.7596	50988.75	50089.15
861.1865	1123.7139	50872.9	49972.25
861.3314	1125.6675	50845.8	49945.15
861.4763	1127.6204	50848.6	49948.3
861.6212	1129.5726	50693.35	49790.95
861.7661	1131.524	50712	49810.05
861.911	1133.4748	50700.85	49799.95
862.0559	1135.4248	50518.15	49615
862.2008	1137.3741	50452	49550.85
862.3457	1139.3226	50416.7	49512.6
862.4905	1141.2705	50441.65	49537.9
862.6354	1143.2176	50282.25	49374.05
862.7803	1145.164	50071.35	49167.6
862.9251	1147.1097	50169.4	49266.05
863.07	1149.0546	50113.85	49211
863.2148	1150.9989	50107.75	49203.3
863.3597	1152.9424	49886.35	48985.4
863.5045	1154.8852	50074.4	49173
863.6493	1156.8272	49857.3	48957
863.7942	1158.7686	49996.95	49086.3
863.939	1160.7092	49668.1	48765.2
864.0838	1162.6491	49662.15	48756.8
864.2286	1164.5883	49695.6	48792.6
864.3734	1166.5267	49535.05	48631.6
864.5182	1168.4644	49625.65	48724.95
864.663	1170.4014	49572.7	48666.7
864.8078	1172.3377	49631	48729.5
864.9526	1174.2732	49688.95	48786.9
865.0974	1176.2081	49636.7	48735.15
865.2421	1178.1421	49550.7	48644.55
865.3869	1180.0755	49755.1	48853.95
865.5317	1182.0082	49591.05	48688.5
865.6764	1183.9401	49594.7	48692.35
865.8212	1185.8713	49397.55	48500.35
865.9659	1187.8017	49366.75	48470.95
866.1106	1189.7315	49262	48367.3
866.2554	1191.6605	49139.9	48216.45
866.4001	1193.5888	48933.75	48038.55
866.5448	1195.5163	48707.5	47809.55
866.6895	1197.4432	48651.05	47751.55
866.8342	1199.3693	48577.55	47677.45
866.9789	1201.2947	48435.85	47527.75
867.1236	1203.2193	48467.45	47564
867.2683	1205.1432	48221.65	47320.3
867.413	1207.0664	48181.35	47282.85
867.5576	1208.9889	48088.05	47185.1
867.7023	1210.9106	48028.8	47129.85
867.847	1212.8316	47903.6	47005.6
867.9916	1214.7519	47842.5	46933.3
868.1363	1216.6715	47713.15	46811.55
868.2809	1218.5903	47648.55	46746.55
868.4255	1220.5084	47595.7	46692.9
868.5701	1222.4257	47608.45	46707
868.7148	1224.3424	47425.65	46528.35
868.8594	1226.2583	47311.2	46406.25
869.004	1228.1735	47399.75	46497.55
869.1486	1230.0879	47167.55	46265.15
869.2932	1232.0016	47236.45	46333.15
869.4377	1233.9146	47061.95	46159.3
869.5823	1235.8269	47094.4	46192.05
869.7269	1237.7384	47014.8	46114.15
869.8715	1239.6492	46885.15	45984.55
870.016	1241.5592	46731.2	45827.15
870.1606	1243.4686	46797.9	45895.9
870.3051	1245.3772	46586.7	45684.45
870.4496	1247.285	46673.55	45771.7
870.5941	1249.1922	46461.9	45560.3
870.7387	1251.0986	46608.2	45706.05
870.8832	1253.0042	46392.4	45491.65
871.0277	1254.9092	46486.2	45584.85
871.1722	1256.8134	46182.25	45283.1
871.3167	1258.7169	46424.85	45526.35
871.4611	1260.6196	46204.8	45304
871.6056	1262.5216	46208.2	45305.9
871.7501	1264.4229	46204.5	45303.85
871.8945	1266.3234	46320.5	45419.1
872.039	1268.2232	46223.3	45319.75
872.1834	1270.1223	46075.9	45173.3
872.3278	1272.0207	46023.3	45120.95
872.4723	1273.9183	46021.45	45112.9
872.6167	1275.8151	45966.2	45066.1
872.7611	1277.7113	45887.7	44985.55
872.9055	1279.6067	45754.75	44855.5
873.0499	1281.5014	45702.55	44799.35
873.1943	1283.3953	45836.45	44934.3
873.3386	1285.2885	45799	44898.95
873.483	1287.181	45855.1	44954.75
873.6274	1289.0727	45920.7	45020.85
873.7717	1290.9637	45710.1	44807.65
873.9161	1292.854	46008.8	45110.55
874.0604	1294.7435	45842.7	44940.9
874.2047	1296.6323	45787.2	44884.8
874.349	1298.5204	45694.8	44787.8
874.4933	1300.4077	45742.45	44838.8
874.6376	1302.2943	45567.45	44667.7
874.7819	1304.1802	45456.55	44555.05
874.9262	1306.0653	45304.05	44401.55
875.0705	1307.9497	45146.95	44243.8
875.2147	1309.8333	45083.5	44186
875.359	1311.7162	44998.95	44098.95
875.5032	1313.5984	44963.5	44059.9
875.6475	1315.4798	44787.05	43883.75
875.7917	1317.3605	44676.3	43757.9
875.9359	1319.2405	44715.9	43811.3
876.0801	1321.1197	44496.4	43594.7
876.2243	1322.9982	44415.7	43513.3
876.3685	1324.876	44396.75	43497
876.5127	1326.753	44213.9	43312.75
876.6569	1328.6293	44318.75	43415.55
876.801	1330.5048	44175.65	43272.55
876.9452	1332.3796	43992.2	43089.55
877.0893	1334.2537	43921.35	42994.45
877.2335	1336.127	43941.95	43040.4
877.3776	1337.9996	43740.4	42839.3
877.5217	1339.8714	43856.05	42954.1
877.6658	1341.7426	43541.85	42595.5
877.8099	1343.6129	43689.65	42787.85
877.954	1345.4826	43632.4	42729.05
878.0981	1347.3515	43427.25	42521.85
878.2422	1349.2196	43515.7	42615.05
878.3862	1351.087	43474.85	42574.6
878.5303	1352.9537	43462.2	42561.4
878.6743	1354.8197	43456.25	42553.65
878.8184	1356.6849	43466.65	42564.6
878.9624	1358.5493	43375.6	42474.6
879.1064	1360.4131	43237.55	42335.7
879.2504	1362.276	43448.9	42547.05
879.3944	1364.1383	43152.1	42250.35
879.5384	1365.9998	42970.7	42062.75
879.6823	1367.8606	42967.55	42066.2
879.8263	1369.7206	42773.25	41871.4
879.9702	1371.5799	42544.8	41642.25
880.1142	1373.4384	42362.7	41461.1
880.2581	1375.2962	42397.35	41493.65
880.402	1377.1533	41950.1	41048.9
880.5459	1379.0096	41736.9	40835.4
880.6898	1380.8652	41680.95	40781.7
880.8337	1382.7201	41435.75	40534.35
880.9776	1384.5742	41325.6	40423.55
881.1215	1386.4275	41036.35	40135.9
881.2653	1388.2802	40978.35	40078.95
881.4092	1390.132	40962	40059.8
881.553	1391.9832	40728.95	39825.8
881.6968	1393.8336	40490.45	39588.55
881.8406	1395.6832	40485.8	39582.05
881.9844	1397.5322	40456.85	39558.05
882.1282	1399.3803	40187.1	39281
882.272	1401.2278	40098.2	39195.75
882.4158	1403.0745	39972.35	39073.7
882.5595	1404.9204	39846.05	38946
882.7033	1406.7656	39840.25	38939.2
882.847	1408.6101	39599.55	38698.75
882.9908	1410.4538	39572.65	38671.85
883.1345	1412.2968	39487.65	38585.6
883.2782	1414.139	39281	38381.8
883.4219	1415.9805	39349.15	38450.75
883.5656	1417.8213	39109.3	38202.35
883.7092	1419.6613	39193.65	38295.35
883.8529	1421.5006	39060.45	38158
883.9965	1423.3391	39017.45	38115
884.1402	1425.1769	38982.25	38080.4
884.2838	1427.0139	39159.05	38256.85
884.4274	1428.8502	39196.05	38293.2
884.571	1430.6858	39204.75	38306.7
884.7146	1432.5206	39355.6	38455.35
884.8582	1434.3547	39233.55	38330.95
885.0018	1436.188	39084.85	38183.7
885.1453	1438.0206	39187.5	38286.15
885.2889	1439.8524	38990.35	38088.95
885.4324	1441.6835	38892.05	37990.25
885.5759	1443.5139	38908.45	38007.6
885.7194	1445.3435	38683.7	37785.15
885.8629	1447.1724	38747.9	37849.55
886.0064	1449.0005	38485.7	37587.5
886.1499	1450.8279	38548	37648.75
886.2933	1452.6545	38436.3	37537.05
886.4368	1454.4804	38387.05	37488.5
886.5802	1456.3056	38282.15	37373.55
886.7237	1458.13	38290.3	37390.65
886.8671	1459.9536	38356.75	37458.9
887.0105	1461.7766	38114.2	37215.2
887.1539	1463.5987	37840.85	36938.8
887.2972	1465.4202	37718.15	36819.6
887.4406	1467.2409	37535.95	36635.9
887.584	1469.0608	37364.55	36465.9
887.7273	1470.88	37301.5	36400.85
887.8706	1472.6984	37233.15	36332.65
888.0139	1474.5161	36957.75	36055.3
888.1572	1476.3331	36896.6	35996.65
888.3005	1478.1493	36789.85	35889.6
888.4438	1479.9648	36717.7	35820.15
888.5871	1481.7795	36644.95	35745
888.7303	1483.5935	36639.25	35738.1
888.8736	1485.4067	36493.65	35593.55
889.0168	1487.2192	36506.35	35606.1
889.16	1489.031	36434.05	35533.7
889.3032	1490.842	36340.4	35442.65
889.4464	1492.6522	36360.15	35459.7
889.5896	1494.4618	36191.25	35290.4
889.7327	1496.2705	36211.1	35309.6
889.8759	1498.0785	36043.85	35146.3
890.019	1499.8858	35972.35	35073.8
890.1622	1501.6924	35947.15	35049.6
890.3053	1503.4981	35876.85	34977.25
890.4484	1505.3032	35835.8	34936.1
890.5914	1507.1075	35686.5	34787.6
890.7345	1508.911	35615.75	34718.2
890.8776	1510.7138	35570.7	34672.15
891.0206	1512.5159	35524.85	34627.75
891.1637	1514.3172	35318	34417.1
891.3067	1516.1178	35241.25	34344.35
891.4497	1517.9176	35251.55	34350.1
891.5927	1519.7166	35132.75	34234.75
891.7357	1521.515	35024.55	34120.85
891.8786	1523.3126	34944.75	34044.45
892.0216	1525.1094	34889.45	33989.1
892.1645	1526.9055	34773.85	33875.6
892.3074	1528.7008	34670.8	33773.4
892.4503	1530.4954	34442.9	33543.8
892.5932	1532.2893	34497.25	33601.85
892.7361	1534.0824	34287.8	33388.5
892.879	1535.8747	34264.1	33368.1
893.0218	1537.6663	34241.85	33346.4
893.1647	1539.4572	34023.35	33126.85
893.3075	1541.2473	34034.15	33136.2
893.4503	1543.0367	33915.35	33021.25
893.5931	1544.8253	33809.3	32908.35
893.7359	1546.6132	33798.45	32898.05
893.8787	1548.4003	33642.6	32735.35
894.0214	1550.1867	33613.7	32707.4
894.1642	1551.9723	33532.35	32633.3
894.3069	1553.7572	33518.25	32623.8
894.4496	1555.5414	33532.85	32639.15
894.5923	1557.3247	33414.6	32521.9
894.735	1559.1074	33438.65	32545.1
894.8777	1560.8893	33338.5	32444.6
895.0204	1562.6705	33299.1	32403.4
895.163	1564.4509	33249.9	32357.4
895.3056	1566.2305	33191	32299.55
895.4482	1568.0094	33247	32355.6
895.5908	1569.7876	33193.8	32299.8
895.7334	1571.565	33095.95	32204.7
895.876	1573.3417	33071.3	32177.65
896.0186	1575.1176	32990.5	32098.75
896.1611	1576.8928	32931.7	32038.05
896.3036	1578.6672	32784.3	31896.3
896.4461	1580.4409	32687.35	31797.9
896.5886	1582.2138	32559.5	31666.3
896.7311	1583.986	32547.65	31657.15
896.8736	1585.7575	32512.95	31623.2
897.0161	1587.5282	32488.55	31598.95
897.1585	1589.2981	32467.3	31578.3
897.3009	1591.0673	32316.8	31427
897.4433	1592.8358	32305.5	31415.6
897.5857	1594.6035	32306.25	31413.55
897.7281	1596.3704	32205.8	31313.95
897.8705	1598.1366	32121	31229.2
898.0128	1599.9021	32000.4	31111.5
898.1551	1601.6668	32016.5	31124.05
898.2975	1603.4308	31968.95	31076.1
898.4398	1605.194	31994.1	31098.85
898.5821	1606.9564	31865.75	30977.75
898.7243	1608.7182	31920.8	31029.2
898.8666	1610.4791	31928.2	31042.75
899.0088	1612.2394	31911	31025.05
899.1511	1613.9988	31924.2	31037.05
899.2933	1615.7576	32021.55	31133.75
899.4355	1617.5156	32045.7	31150.55
899.5776	1619.2728	32042.1	31149.4
899.7198	1621.0293	31880.3	30986.8
899.862	1622.785	31778.15	30883.7
900.0041	1624.54	31614.35	30724.75
900.1462	1626.2942	31431.65	30542.7
900.2883	1628.0477	31107.8	30215.35
900.4304	1629.8005	30968.5	30074.85
900.5725	1631.5525	30845.25	29956.25
900.7145	1633.3037	30630.4	29742.6
900.8566	1635.0542	30523.6	29636.35
900.9986	1636.804	30421.6	29533.9
901.1406	1638.553	30300.5	29365.45
901.2826	1640.3013	30160.65	29272.75
901.4245	1642.0488	30050.2	29160.9
901.5665	1643.7955	30059.2	29172.65
901.7085	1645.5416	29974.35	29087.15
901.8504	1647.2868	29943.05	29055.05
901.9923	1649.0313	29901.85	29010.85
902.1342	1650.7751	29862.2	28971.6
902.2761	1652.5181	29824.7	28936.6
902.4179	1654.2604	29784.9	28896.55
902.5598	1656.0019	29832.1	28947.15
902.7016	1657.7427	29837.05	28946.05
902.8434	1659.4828	29923.1	29034.75
902.9852	1661.222	29848.3	28959.05
903.127	1662.9606	29769.2	28883
903.2687	1664.6984	29671.9	28784.4
903.4105	1666.4354	29528.3	28637.6
903.5522	1668.1717	29195.1	28305.3
903.6939	1669.9072	28887.15	27996.55
903.8356	1671.642	28734.15	27842
903.9773	1673.3761	28559.45	27671.85
904.119	1675.1094	28431.7	27541.75
904.2606	1676.8419	28205.45	27316.5
904.4022	1678.5737	28003.35	27114.55
904.5439	1680.3048	27902.9	27015.35
904.6855	1682.0351	27734.5	26845.45
904.827	1683.7646	27593.05	26700.3
904.9686	1685.4934	27550.9	26661.45
905.1101	1687.2215	27409.35	26521.7
905.2517	1688.9488	27265.45	26380
905.3932	1690.6754	27091.05	26202.3
905.5347	1692.4012	27106.85	26219.55
905.6761	1694.1263	26984.65	26094.7
905.8176	1695.8506	26908.3	26018.7
905.9591	1697.5742	26823.05	25934.95
906.1005	1699.297	26681.4	25797.25
906.2419	1701.0191	26580.05	25694.7
906.3833	1702.7404	26514.4	25627.65
906.5246	1704.461	26359.1	25470.95
906.666	1706.1808	26273.3	25385.15
906.8073	1707.8999	26198	25308.3
906.9487	1709.6182	26126.6	25241.45
907.09	1711.3358	26054.55	25169.85
907.2313	1713.0527	25974.4	25089
907.3725	1714.7688	25865.95	24975.6
907.5138	1716.4841	25737.95	24850.15
907.655	1718.1987	25719.85	24827.45
907.7962	1719.9126	25654.9	24770.5
907.9374	1721.6257	25588.8	24700.1
908.0786	1723.338	25541.35	24653.6
908.2198	1725.0496	25394.35	24504.95
908.3609	1726.7605	25352.6	24462.9
908.502	1728.4706	25237.55	24351.8
908.6431	1730.18	25108.1	24221.3
908.7842	1731.8886	25091.6	24206.6
908.9253	1733.5964	25043.65	24153.4
909.0664	1735.3036	24952.3	24063.85
909.2074	1737.0099	24916.55	24032.95
909.3484	1738.7156	24873.5	23988
909.4894	1740.4204	24683.7	23793.95
909.6304	1742.1246	24704.7	23815.5
909.7714	1743.8279	24686.35	23801.15
909.9123	1745.5306	24661.85	23776.6
910.0532	1747.2325	24551.8	23669.3
910.1941	1748.9336	24443.5	23556.75
910.335	1750.634	24326.75	23438.4
910.4759	1752.3336	24315.7	23430.1
910.6168	1754.0325	24283.1	23400.85
910.7576	1755.7307	24261.45	23376.3
910.8984	1757.4281	24234.2	23348.2
911.0392	1759.1247	24192.6	23300.6
911.18	1760.8206	24096.95	23205.35
911.3208	1762.5158	24043.8	23153.5
911.4615	1764.2102	24019.8	23132.65
911.6022	1765.9039	23915.65	23030
911.7429	1767.5968	23839	22954.7
911.8836	1769.289	23812.45	22926.4
912.0243	1770.9804	23722.8	22835.9
912.1649	1772.6711	23671.15	22784.95
912.3056	1774.361	23618.45	22730.25
912.4462	1776.0502	23613.85	22726.2
912.5868	1777.7386	23553.55	22665.9
912.7274	1779.4263	23463.3	22575.9
912.8679	1781.1132	23395.6	22511.8
913.0084	1782.7994	23322.4	22435.9
913.149	1784.4849	23292.5	22408.7
913.2895	1786.1696	23258	22353.95
913.4299	1787.8535	23214.85	22329.45
913.5704	1789.5367	23161.55	22279.45
913.7108	1791.2192	23090.1	22204.3
913.8513	1792.9009	23030	22112.6
913.9917	1794.5818	22988	22101.15
914.132	1796.2621	22905.9	22022.05
914.2724	1797.9415	22857.3	21972.85
914.4128	1799.6202	22778.1	21893.25
914.5531	1801.2982	22758	21871.65
914.6934	1802.9755	22736.9	21847.95
914.8337	1804.6519	22729.45	21843.25
914.9739	1806.3277	22588.35	21706.15
915.1142	1808.0027	22474.65	21590.85
915.2544	1809.6769	22522.3	21638.4
915.3946	1811.3504	22429.65	21546.25
915.5348	1813.0231	22360.55	21475.1
915.675	1814.6951	22330.9	21447.1
915.8151	1816.3664	22345.2	21457.25
915.9553	1818.0369	22263.9	21377.8
916.0954	1819.7067	22212.1	21328.8
916.2355	1821.3757	22167.3	21279.25
916.3755	1823.044	22106.3	21221.15
916.5156	1824.7115	22077.05	21190.35
916.6556	1826.3783	21960.75	21074.65
916.7956	1828.0443	21933.9	21049.7
916.9356	1829.7096	21843.35	20958.25
917.0756	1831.3741	21832	20942.7
917.2155	1833.0379	21809.5	20927.1
917.3555	1834.701	21749.45	20864.55
917.4954	1836.3633	21703.8	20820.1
917.6353	1838.0248	21640.15	20753.55
917.7751	1839.6856	21599.95	20713.3
917.915	1841.3457	21595.7	20710.15
918.0548	1843.005	21526.1	20641.35
918.1946	1844.6636	21506.6	20622.6
918.3344	1846.3214	21422.85	20538.05
918.4742	1847.9785	21419.8	20538
918.6139	1849.6349	21335.5	20448.35
918.7537	1851.2904	21318.9	20423
918.8934	1852.9453	21240.35	20354.8
919.0331	1854.5994	21164.4	20276.85
919.1727	1856.2528	21209.3	20318.05
919.3124	1857.9054	21136.2	20251.05
919.452	1859.5572	21106.8	20221.55
919.5916	1861.2083	21053.9	20166.95
919.7312	1862.8587	21014.85	20128.95
919.8708	1864.5084	21024.35	20138.45
920.0103	1866.1572	20949.85	20064.9
920.1498	1867.8054	20857.05	19968.85
920.2893	1869.4528	20832.65	19947.2
920.4288	1871.0994	20770.15	19884.95
920.5683	1872.7453	20741.65	19854.6
920.7077	1874.3905	20653.5	19762.55
920.8471	1876.0349	20590.5	19701.45
920.9865	1877.6786	20610	19722.6
921.1259	1879.3215	20609.5	19724.3
921.2653	1880.9637	20533.95	19646.1
921.4046	1882.6051	20524.3	19641.8
921.5439	1884.2458	20447.95	19560.5
921.6832	1885.8858	20366.8	19481.05
921.8225	1887.525	20341.9	19453.9
921.9617	1889.1634	20224.95	19337.05
922.101	1890.8011	20193.5	19306.1
922.2402	1892.4381	20156	19270.25
922.3794	1894.0743	20118.3	19234.5
922.5185	1895.7098	20071.85	19186.2
922.6577	1897.3446	20018.05	19133.3
922.7968	1898.9786	19955.35	19065.65
922.9359	1900.6118	19936.65	19053.6
923.075	1902.2443	19828	18940.55
923.214	1903.8761	19785.45	18900.25
923.3531	1905.5071	19703.8	18817.55
923.4921	1907.1374	19656.9	18771.55
923.6311	1908.7669	19638.1	18753.25
923.77	1910.3957	19600.4	18717.05
923.909	1912.0237	19498.35	18613
924.0479	1913.651	19458.35	18572
924.1868	1915.2776	19408.45	18524.45
924.3257	1916.9034	19310.85	18428.15
924.4646	1918.5285	19232.55	18348.5
924.6034	1920.1528	19138.5	18253.9
924.7422	1921.7764	19117.4	18231.15
924.881	1923.3992	19065.4	18181.2
925.0198	1925.0213	18940.15	18055.45
925.1586	1926.6427	18904.05	18022.1
925.2973	1928.2633	19038.45	17909.65
925.436	1929.8832	18821.4	17932
925.5747	1931.5023	18702.25	17818.05
925.7134	1933.1207	18685.15	17798.35
925.852	1934.7383	18637.5	17753.65
925.9906	1936.3552	18578.5	17695.7
926.1292	1937.9714	18527.2	17641.1
926.2678	1939.5868	18465.9	17579.35
926.4064	1941.2015	18370.25	17485.75
926.5449	1942.8154	18304.7	17417.95
926.6834	1944.4286	18220	17335.35
926.8219	1946.041	18156.25	17247.85
926.9604	1947.6528	18088.05	17199.5
927.0988	1949.2637	18058.95	17175.45
927.2372	1950.8739	17972.05	17088.05
927.3756	1952.4834	17974.25	17089.3
927.514	1954.0921	17930.5	17047.85
927.6523	1955.7001	17887.15	16997
927.7907	1957.3074	17816.4	16934.65
927.929	1958.9139	17724.05	16840.9
928.0673	1960.5197	17679.95	16794.5
928.2055	1962.1247	17616.65	16732.4
928.3438	1963.729	17545.5	16664.45
928.482	1965.3325	17481.85	16576.35
928.6202	1966.9353	17433.1	16551.45
928.7584	1968.5374	17389.3	16503.35
928.8965	1970.1387	17332	16449.6
929.0346	1971.7393	17273.1	16389.4
929.1727	1973.3392	17199.2	16318.15
929.3108	1974.9383	17145.55	16261
929.4489	1976.5366	17059.55	16177.7
929.5869	1978.1342	17014.2	16130
929.7249	1979.7311	17023.35	16143.15
929.8629	1981.3273	16934.55	16049.75
930.0009	1982.9227	16927.25	16042.8
930.1388	1984.5173	16811.8	15929.1
930.2767	1986.1112	16739.85	15859.3
930.4146	1987.7044	16738.9	15856.3
930.5525	1989.2968	16696.6	15812.8
930.6904	1990.8885	16667.45	15782
930.8282	1992.4795	16640.8	15758.1
930.966	1994.0697	16552.5	15671.15
931.1038	1995.6592	16507.55	15625
931.2415	1997.2479	16474	15591.2
931.3793	1998.8359	16435.9	15555
931.517	2000.4232	16365.55	15485.6
931.6547	2002.0097	16314.5	15436.1
931.7923	2003.5955	16213.75	15331.6
931.93	2005.1805	16240.15	15358.55
932.0676	2006.7648	16211.9	15331.8
932.2052	2008.3484	16129.05	15247.55
932.3427	2009.9312	16142.2	15259.7
932.4803	2011.5133	16074.05	15195.15
932.6178	2013.0946	16016.75	15135.2
932.7553	2014.6752	15966.85	15086.8
932.8928	2016.2551	15928.45	15047.95
933.0302	2017.8342	15851.15	14969.2
933.1676	2019.4126	15827.2	14945.7
933.305	2020.9902	15706.55	14828.1
933.4424	2022.5672	15736.3	14856
933.5798	2024.1433	15691.1	14805.25
933.7171	2025.7188	15631.6	14753.3
933.8544	2027.2935	15598.75	14716.9
933.9917	2028.8674	15527.95	14650.65
934.129	2030.4406	15490.05	14612.85
934.2662	2032.0131	15424.2	14545.2
934.4034	2033.5849	15369.5	14482.45
934.5406	2035.1559	15358.2	14479.3
934.6778	2036.7261	15289.75	14407.85
934.8149	2038.2957	15272.2	14391.15
934.952	2039.8645	15255.95	14373.3
935.0891	2041.4325	15258.25	14376.05
935.2262	2042.9998	15175.05	14294.25
935.3632	2044.5664	15131.3	14249.35
935.5002	2046.1323	15069.85	14188.65
935.6372	2047.6974	15054	14173.3
935.7742	2049.2617	15003.7	14124.9
935.9111	2050.8254	14965.15	14080.5
936.048	2052.3883	14943.2	14062.55
936.1849	2053.9504	14886.65	14005.55
936.3218	2055.5118	14858.3	13976.65
936.4586	2057.0725	14775.7	13891.65
936.5955	2058.6325	14759.85	13879.45
936.7323	2060.1917	14711.85	13831.85
936.869	2061.7502	14668.65	13784.2
937.0058	2063.3079	14611.45	13731.9
937.1425	2064.8649	14587.35	13702.75
937.2792	2066.4212	14564.9	13683.4
937.4159	2067.9767	14545.05	13664.4
937.5525	2069.5315	14474.8	13595.3
937.6891	2071.0856	14387.6	13507.2
937.8257	2072.6389	14369.4	13488.3
937.9623	2074.1915	14305.45	13425.55
938.0989	2075.7433	14226.2	13344.15
938.2354	2077.2945	14224.35	13344.8
938.3719	2078.8448	14162.45	13279.2
938.5084	2080.3945	14117.25	13236.05
938.6448	2081.9434	14112.3	13231.65
938.7812	2083.4916	14076.4	13194.3
938.9176	2085.039	13990.9	13107.5
939.054	2086.5857	13987.35	13103
939.1903	2088.1317	13967.4	13083.6
939.3267	2089.677	13904.05	13020.95
939.463	2091.2215	13859.6	12976.8
939.5992	2092.7652	13839.75	12954.5
939.7355	2094.3083	13819.95	12934.25
939.8717	2095.8506	13774.9	12893.25
940.0079	2097.3921	13792.1	12909.8
940.1441	2098.933	13732.3	12848.7
940.2802	2100.4731	13696.45	12814.3
940.4163	2102.0124	13703.15	12802.35
940.5524	2103.5511	13632.05	12752.05
940.6885	2105.089	13637.35	12755.9
940.8245	2106.6261	13558.55	12674.9
940.9606	2108.1626	13530.6	12647.75
941.0965	2109.6983	13493.75	12583.5
941.2325	2111.2332	13480.1	12595.45
941.3684	2112.7675	13441.15	12556.35
941.5044	2114.301	13399.4	12515.45
941.6403	2115.8337	13377.2	12493.9
941.7761	2117.3657	13328.65	12445.3
941.912	2118.897	13311.15	12428.3
942.0478	2120.4276	13263.65	12376
942.1835	2121.9575	13200.45	12316.8
942.3193	2123.4866	13207.95	12312.75
942.455	2125.0149	13166.3	12283
942.5907	2126.5426	13077.45	12195.25
942.7264	2128.0695	13062.85	12178.1
942.8621	2129.5956	13042.4	12162.2
942.9977	2131.1211	13025.4	12139.75
943.1333	2132.6458	12996.25	12114.35
943.2689	2134.1698	12944.65	12063.2
943.4044	2135.693	12919.05	12036.6
943.54	2137.2155	12888.5	12003.75
943.6755	2138.7373	12870.05	11990
943.8109	2140.2584	12787.35	11906.7
943.9464	2141.7787	12780.4	11895.6
944.0818	2143.2983	12721.65	11843.95
944.2172	2144.8171	12645.25	11766.3
944.3526	2146.3353	12656.9	11774.75
944.4879	2147.8527	12589.45	11708.55
944.6232	2149.3693	12591.2	11709.4
944.7585	2150.8853	12530.75	11648.6
944.8938	2152.4005	12485.6	11602.8
945.029	2153.9149	12466.45	11584.5
945.1642	2155.4287	12401.65	11518.5
945.2994	2156.9417	12390.4	11508.15
945.4346	2158.454	12363.35	11480.15
945.5697	2159.9655	12303.25	11422.8
945.7048	2161.4764	12297.45	11417.1
945.8399	2162.9865	12270.45	11387.65
945.9749	2164.4958	12248.85	11366.4
946.1099	2166.0045	12196.25	11309.65
946.2449	2167.5124	12183.55	11301
946.3799	2169.0195	12114.85	11233.25
946.5148	2170.526	12107.5	11225.8
946.6498	2172.0317	12091.25	11209.55
946.7846	2173.5367	12041.75	11158.1
946.9195	2175.0409	12031.8	11147.95
947.0543	2176.5445	12012.3	11130.45
947.1891	2178.0473	11978.55	11094.5
947.3239	2179.5494	11890.85	11004
947.4587	2181.0507	11860.15	10977.85
947.5934	2182.5513	11813.45	10931.1
947.7281	2184.0512	11807.2	10924.3
947.8628	2185.5504	11763.9	10882.25
947.9974	2187.0488	11693.5	10810.85
948.132	2188.5465	11683.75	10801.9
948.2666	2190.0435	11609.9	10727.6
948.4012	2191.5397	11594.3	10713.3
948.5357	2193.0353	11564.8	10682.45
948.6702	2194.5301	11524.55	10639.8
948.8047	2196.0241	11463.05	10579.25
948.9392	2197.5175	11460.35	10576.55
949.0736	2199.0101	11419.25	10533.8
949.208	2200.502	11381.4	10501.75
949.3424	2201.9931	11341.05	10458.9
949.4767	2203.4835	11295.85	10414.5
949.611	2204.9733	11271.15	10383.8
949.7453	2206.4622	11226.15	10346.45
949.8796	2207.9505	11189.7	10306.1
950.0138	2209.438	11144.85	10264.65
950.148	2210.9248	11120.3	10237.5
950.2822	2212.4109	11084.95	10203.8
950.4164	2213.8962	11043.95	10157.75
950.5505	2215.3809	11024.55	10138.95
950.6846	2216.8648	11003.5	10119.65
950.8186	2218.3479	10956.1	10067.85
950.9527	2219.8304	10929.85	10043.65
951.0867	2221.3121	10883.7	9997.1
951.2207	2222.7931	10855.6	9971.6
951.3546	2224.2733	10788.5	9902.7
951.4886	2225.7529	10754.2	9871.2
951.6225	2227.2317	10749.4	9863.85
951.7563	2228.7098	10726.55	9845.15
951.8902	2230.1872	10669	9789.3
952.024	2231.6638	10673.75	9792.2
952.1578	2233.1397	10611.15	9725.5
952.2916	2234.6149	10605.6	9724.9
952.4253	2236.0894	10538.45	9657.55
952.559	2237.5632	10532.7	9640.15
952.6927	2239.0362	10481.45	9598.8
952.8263	2240.5085	10455.1	9573.9
952.9599	2241.9801	10425.55	9542.5
953.0935	2243.4509	10391.9	9509.15
953.2271	2244.921	10346.75	9463.45
953.3606	2246.3904	10291.6	9404.05
953.4941	2247.8591	10277	9392.8
953.6276	2249.3271	10269.75	9386.2
953.7611	2250.7943	10221.05	9336.8
953.8945	2252.2608	10197	9313.3
954.0279	2253.7266	10155.35	9273.7
954.1612	2255.1917	10143.65	9261.35
954.2946	2256.656	10111.5	9228.2
954.4279	2258.1197	10050.05	9166.45
954.5612	2259.5826	10043.15	9158.55
954.6944	2261.0447	10026	9143.55
954.8276	2262.5062	10001.15	9115.8
954.9608	2263.9669	9976.45	9090.35
955.094	2265.4269	9944.3	9062.05
955.2271	2266.8862	9888.95	9006.2
955.3602	2268.3448	9898.5	9014.65
955.4933	2269.8026	9878.15	8997
955.6264	2271.2598	9833.3	8951.1
955.7594	2272.7162	9807.35	8924.55
955.8924	2274.1719	9790.45	8907.45
956.0253	2275.6268	9776.05	8894
956.1583	2277.0811	9759.1	8875.55
956.2912	2278.5346	9713.3	8831.05
956.4241	2279.9874	9707.5	8824.9
956.5569	2281.4395	9672.6	8792
956.6897	2282.8908	9635.2	8748.5
956.8225	2284.3414	9626.95	8742.25
956.9553	2285.7914	9599.15	8719.7
957.088	2287.2406	9548.15	8662.35
957.2207	2288.689	9514.95	8630.9
957.3534	2290.1368	9493.3	8608.6
957.486	2291.5838	9468.7	8582.45
957.6186	2293.0302	9461.85	8578
957.7512	2294.4758	9404.35	8520.7
957.8838	2295.9206	9387.3	8500.35
958.0163	2297.3648	9349.65	8467.25
958.1488	2298.8082	9326.6	8441.85
958.2813	2300.251	9305.25	8422.25
958.4137	2301.693	9283.5	8397.05
958.5461	2303.1343	9273.55	8391.3
958.6785	2304.5748	9237.95	8357.75
958.8108	2306.0147	9200.95	8316.7
958.9432	2307.4538	9170.85	8286.25
959.0754	2308.8922	9160.95	8280.45
959.2077	2310.3299	9148.4	8266.7
959.3399	2311.7669	9097.7	8216.1
959.4721	2313.2031	9060.7	8179.55
959.6043	2314.6387	9053.5	8170.85
959.7365	2316.0735	9007.05	8123.5
959.8686	2317.5076	9013.35	8131.4
960.0006	2318.941	8986.75	8102.9
960.1327	2320.3737	8954.15	8069.85
960.2647	2321.8056	8920.05	8033.6
960.3967	2323.2369	8899.5	8015.95
960.5287	2324.6674	8876.8	7990.45
960.6606	2326.0972	8877.65	7993.9
960.7925	2327.5263	8841.05	7956.9
960.9244	2328.9547	8790.9	7907.05
961.0562	2330.3823	8763.1	7878
961.1881	2331.8092	8751.4	7864.25
961.3198	2333.2355	8701.5	7818.8
961.4516	2334.661	8701.65	7816.7
961.5833	2336.0858	8692.6	7808.15
961.715	2337.5098	8647.25	7765
961.8467	2338.9332	8647.35	7762.55
961.9783	2340.3558	8618.1	7732.35
962.1099	2341.7778	8575	7692.9
962.2415	2343.199	8540.2	7655.45
962.373	2344.6195	8526.05	7645.1
962.5045	2346.0393	8513.2	7630.4
962.636	2347.4583	8507.5	7622.95
962.7675	2348.8767	8445.05	7559.55
962.8989	2350.2943	8445.65	7560.9
963.0303	2351.7113	8436.4	7552.65
963.1617	2353.1275	8405.6	7520.75
963.293	2354.543	8398.4	7503.3
963.4243	2355.9578	8357.5	7475.9
963.5556	2357.3718	8302.7	7419.45
963.6868	2358.7852	8267.75	7382.75
963.818	2360.1978	8260.3	7375.25
963.9492	2361.6098	8218.3	7337.45
964.0803	2363.021	8188	7298.75
964.2114	2364.4315	8192.65	7309.35
964.3425	2365.8413	8138.9	7255.2
964.4736	2367.2504	8101.55	7220.25
964.6046	2368.6587	8065.95	7182.65
964.7356	2370.0664	8045.85	7164.1
964.8666	2371.4733	8039.05	7157.05
964.9975	2372.8795	8008.55	7126.3
965.1284	2374.285	7991.5	7106.75
965.2593	2375.6899	7930.05	7048.2
965.3901	2377.0939	7912.35	7027.45
965.5209	2378.4973	7903.1	7021.1
965.6517	2379.9	7854.3	6971.95
965.7825	2381.3019	7827.6	6945.4
965.9132	2382.7032	7834.95	6952.6
966.0439	2384.1037	7802.35	6922
966.1745	2385.5035	7801.2	6918.45
966.3051	2386.9027	7743.85	6862.55
966.4357	2388.3011	7757.1	6872.45
966.5663	2389.6987	7705.1	6822.8
966.6968	2391.0957	7697.3	6814.7
966.8273	2392.492	7642.65	6762.1
966.9578	2393.8876	7600.45	6716.65
967.0882	2395.2824	7586.7	6704.7
967.2186	2396.6765	7556.5	6675
967.349	2398.07	7540.55	6657.45
967.4793	2399.4627	7535.2	6651.05
967.6097	2400.8547	7494.25	6610.85
967.7399	2402.246	7472.95	6582.65
967.8702	2403.6366	7409.2	6526.5
968.0004	2405.0265	7403.8	6521.95
968.1306	2406.4156	7379.7	6491.95
968.2607	2407.8041	7366.85	6482.5
968.3909	2409.1918	7330.35	6444.9
968.521	2410.5789	7296.5	6413.75
968.651	2411.9652	7276.15	6390.15
968.781	2413.3508	7245.3	6360.85
968.911	2414.7358	7231.35	6346.9
969.041	2416.12	7186.95	6304.15
969.1709	2417.5035	7169.15	6284.65
969.3008	2418.8863	7156.45	6272.3
969.4307	2420.2684	7127.5	6244.4
969.5606	2421.6497	7105.5	6221.3
969.6904	2423.0304	7061.7	6178.35
969.8201	2424.4104	7035.05	6152.05
969.9499	2425.7896	7033.05	6149.5
970.0796	2427.1682	7004.55	6123
970.2093	2428.546	7001.95	6117.75
970.3389	2429.9232	6978.7	6094.2
970.4685	2431.2996	6953.95	6069.45
970.5981	2432.6753	6943.85	6060
970.7277	2434.0503	6931.8	6047
970.8572	2435.4246	6918.05	6036.25
970.9867	2436.7982	6867.8	5981.45
971.1161	2438.1711	6870.35	5988.3
971.2456	2439.5433	6852.7	5969.2
971.375	2440.9148	6813.7	5926.5
971.5043	2442.2856	6771.25	5890.15
971.6336	2443.6557	6766.35	5883.3
971.7629	2445.025	6742.9	5859.6
971.8922	2446.3937	6744.1	5857.75
972.0214	2447.7617	6710.95	5826.6
972.1506	2449.1289	6721	5838.2
972.2798	2450.4955	6686.6	5800.95
972.4089	2451.8613	6650.9	5769.5
972.538	2453.2265	6640.5	5759.45
972.6671	2454.5909	6618.9	5735.75
972.7961	2455.9546	6600.1	5719.05
972.9251	2457.3177	6564.2	5681.8
973.0541	2458.68	6580.35	5696.95
973.1831	2460.0416	6549.65	5667
973.312	2461.4025	6521.6	5636.25
973.4408	2462.7627	6531.1	5637.35
973.5697	2464.1222	6498.55	5620.85
973.6985	2465.4811	6488.9	5606.3
973.8273	2466.8392	6453.75	5572.15
973.956	2468.1966	6455.3	5567.1
974.0847	2469.5533	6457.1	5570.35
974.2134	2470.9093	6450.4	5566.6
974.3421	2472.2645	6405	5519.15
974.4707	2473.6191	6375.75	5494.15
974.5993	2474.973	6355.7	5470.7
974.7278	2476.3262	6342.2	5457.2
974.8563	2477.6787	6313.85	5433.1
974.9848	2479.0305	6287.2	5404.05
975.1132	2480.3816	6264.75	5382.75
975.2417	2481.7319	6256.45	5373.45
975.37	2483.0816	6227.4	5342.8
975.4984	2484.4306	6198.45	5315.05
975.6267	2485.7789	6199.65	5319.3
975.755	2487.1264	6164.65	5282.05
975.8833	2488.4733	6130.7	5248.3
976.0115	2489.8195	6123.4	5233.15
976.1397	2491.165	6102.9	5215.25
976.2678	2492.5097	6097.7	5214
976.3959	2493.8538	6067.2	5183.65
976.524	2495.1972	6026.55	5145.3
976.6521	2496.5398	6008	5124.95
976.7801	2497.8818	6006.05	5121.85
976.9081	2499.2231	5983.65	5101.45
977.036	2500.5637	5952.75	5068.05
977.164	2501.9035	5941.05	5057.65
977.2918	2503.2427	5929.4	5042.6
977.4197	2504.5812	5917.4	5034.7
977.5475	2505.919	5915.5	5029.7
977.6753	2507.256	5882.05	4998.65
977.8031	2508.5924	5853.2	4970.45
977.9308	2509.9281	5852.55	4963.75
978.0585	2511.2631	5810.45	4928.1
978.1861	2512.5974	5825.75	4943.55
978.3137	2513.9309	5786.8	4903.05
978.4413	2515.2638	5785.4	4868.55
978.5689	2516.596	5774.5	4891.3
978.6964	2517.9275	5739.1	4853.55
978.8239	2519.2583	5720.25	4837.5
978.9513	2520.5884	5710.85	4825.55
979.0788	2521.9178	5674.3	4791.7
979.2062	2523.2465	5661.35	4779.1
979.3335	2524.5745	5622.45	4741.05
979.4608	2525.9018	5604.5	4722.85
979.5881	2527.2284	5595.55	4713.45
979.7154	2528.5543	5586.65	4705.8
979.8426	2529.8796	5570.25	4686.55
979.9698	2531.2041	5563	4679.95
980.0969	2532.5279	5554	4673.5
980.224	2533.851	5539.7	4655.95
980.3511	2535.1735	5530.85	4648.4
980.4781	2536.4952	5511.75	4629.25
980.6052	2537.8163	5506.7	4623.4
980.7321	2539.1366	5484.15	4600.25
980.8591	2540.4562	5466.5	4580.75
980.986	2541.7752	5462.8	4580.5
981.1129	2543.0935	5435.3	4552.1
981.2397	2544.411	5436.85	4552.7
981.3665	2545.7279	5413.05	4529.65
981.4933	2547.0441	5410.95	4526.05
981.62	2548.3596	5421.15	4535.5
981.7467	2549.6744	5416.15	4531.45
981.8734	2550.9885	5386.4	4492.5
982.0001	2552.3019	5364.15	4482.45
982.1267	2553.6146	5340.8	4456.5
982.2532	2554.9266	5338.15	4454.8
982.3798	2556.2379	5313.3	4425.8
982.5063	2557.5485	5309.7	4428.85
982.6327	2558.8585	5305.75	4415.7
982.7592	2560.1677	5281.4	4393.3
982.8856	2561.4762	5283.9	4400.35
983.0119	2562.7841	5292.1	4404.65
983.1383	2564.0913	5266.15	4385.15
983.2646	2565.3977	5242.1	4359.1
983.3908	2566.7035	5227.75	4344.95
983.517	2568.0086	5206.25	4324.25
983.6432	2569.313	5226.35	4342.15
983.7694	2570.6167	5208.8	4320.4
983.8955	2571.9197	5185.15	4303.2
984.0216	2573.222	5189.15	4302.85
984.1476	2574.5236	5192.65	4306.75
984.2737	2575.8246	5166.75	4279.85
984.3996	2577.1248	5159.7	4275.35
984.5256	2578.4244	5156.65	4275.7
984.6515	2579.7232	5146.95	4266.25
984.7774	2581.0214	5125.35	4217.9
984.9032	2582.3189	5103.35	4222.85
985.029	2583.6157	5103.55	4216.55
985.1548	2584.9118	5081.7	4200.2
985.2806	2586.2072	5083.3	4199.4
985.4063	2587.5019	5075.1	4192.6
985.5319	2588.7959	5063.5	4178.85
985.6576	2590.0893	5065.45	4182.7
985.7832	2591.3819	5040.65	4160.65
985.9087	2592.6739	4997.5	4113.75
986.0343	2593.9652	5006.55	4122.95
986.1597	2595.2557	5000.75	4118.85
986.2852	2596.5456	4966.6	4081.45
986.4106	2597.8348	4939.1	4056.75
986.536	2599.1234	4926	4042.05
986.6614	2600.4112	4911.7	4029.45
986.7867	2601.6983	4899.35	4013.1
986.912	2602.9848	4888.5	4003.7
987.0372	2604.2705	4850.15	3959.8
987.1624	2605.5556	4847.25	3963.2
987.2876	2606.84	4834.4	3950.95
987.4128	2608.1237	4819.75	3936.95
987.5379	2609.4067	4815.45	3933.15
987.6629	2610.689	4791.7	3900.15
987.788	2611.9707	4770.65	3884.8
987.913	2613.2516	4757.3	3871.75
988.0379	2614.5319	4730.45	3847.35
988.1629	2615.8115	4714.1	3830.05
988.2878	2617.0903	4714.3	3829.9
988.4126	2618.3685	4702.45	3820.9
988.5375	2619.6461	4677.25	3792.9
988.6622	2620.9229	4676.5	3792.95
988.787	2622.199	4666.6	3783.75
988.9117	2623.4745	4651.65	3767.4
989.0364	2624.7493	4627.5	3747.6
989.161	2626.0234	4597.05	3715.85
989.2857	2627.2968	4594.3	3711.6
989.4102	2628.5695	4567.45	3683.9
989.5348	2629.8415	4550.8	3667.8
989.6593	2631.1128	4551.25	3668.35
989.7837	2632.3835	4539.55	3656.35
989.9082	2633.6535	4520.1	3639.3
990.0326	2634.9228	4501.25	3619.7
990.1569	2636.1914	4491.85	3611.35
990.2812	2637.4593	4462.45	3573.65
990.4055	2638.7265	4457.25	3574.2
990.5298	2639.9931	4442.05	3560.1
990.654	2641.259	4430.1	3546.35
990.7782	2642.5242	4419.65	3536.9
990.9023	2643.7887	4406.75	3522.85
991.0264	2645.0525	4410.95	3527.85
991.1505	2646.3156	4391.05	3506.5
991.2745	2647.5781	4380.2	3498.75
991.3985	2648.8398	4363.45	3481.3
991.5225	2650.1009	4372.4	3451.75
991.6464	2651.3613	4360.45	3476.85
991.7703	2652.6211	4332.7	3451
991.8942	2653.8801	4325.15	3443.9
992.018	2655.1385	4312.75	3427.55
992.1418	2656.3961	4295.05	3411.7
992.2655	2657.6531	4298	3416.3
992.3892	2658.9094	4288.25	3405.55
992.5129	2660.1651	4275.65	3391.8
992.6366	2661.42	4274.95	3393.1
992.7602	2662.6743	4252.85	3369.75
992.8837	2663.9279	4242.75	3360.25
993.0073	2665.1808	4222.3	3337.35
993.1307	2666.433	4198.85	3315.35
993.2542	2667.6846	4207.45	3325.85
993.3776	2668.9354	4198.35	3313.55
993.501	2670.1856	4188.75	3307.35
993.6244	2671.4351	4179.2	3297.2
993.7477	2672.6839	4168.85	3283.8
993.8709	2673.9321	4158.6	3276.9
993.9942	2675.1795	4142	3260.55
994.1174	2676.4263	4135.5	3253.3
994.2405	2677.6724	4120.3	3240.05
994.3637	2678.9179	4112.1	3227.35
994.4868	2680.1626	4093.2	3210.85
994.6098	2681.4067	4078.35	3194.75
994.7328	2682.6501	4075.3	3192.9
994.8558	2683.8928	4075.35	3192.15
994.9788	2685.1348	4066	3184.9
995.1017	2686.3761	4028.35	3146.1
995.2245	2687.6168	4035.75	3154.25
995.3474	2688.8568	4014.95	3131.25
995.4702	2690.0961	3999.3	3119.2
995.5929	2691.3348	3979.8	3098.85
995.7156	2692.5727	3974.85	3093.6
995.8383	2693.81	3967.85	3084.75
995.961	2695.0466	3949.6	3067.6
996.0836	2696.2826	3954.2	3071.9
996.2062	2697.5178	3946.25	3043.4
996.3287	2698.7524	3926.6	3043.7
996.4512	2699.9863	3917.2	3032.8
996.5737	2701.2195	3897.5	3016.85
996.6961	2702.452	3889.6	3004.25
996.8185	2703.6839	3892.15	3008.75
996.9408	2704.9151	3873.45	2990.1
997.0631	2706.1456	3887.2	3003.75
997.1854	2707.3755	3869.2	2984.6
997.3077	2708.6046	3854.5	2972.25
997.4299	2709.8331	3846.8	2962.7
997.552	2711.0609	3835.5	2953.4
997.6742	2712.2881	3824.6	2941.7
997.7963	2713.5145	3811.1	2927.75
997.9183	2714.7403	3804.35	2923.65
998.0403	2715.9654	3793.45	2910.3
998.1623	2717.1899	3793.8	2909.4
998.2842	2718.4136	3773.95	2891.45
998.4062	2719.6367	3748	2868.1
998.528	2720.8591	3751.7	2862.85
998.6498	2722.0809	3750.1	2867.5
998.7716	2723.3019	3738.1	2852.5
998.8934	2724.5223	3738.35	2855.45
999.0151	2725.7421	3710.65	2826.75
999.1368	2726.9611	3721.8	2836.15
999.2584	2728.1795	3701.45	2814.3
999.38	2729.3972	3695.3	2814.15
999.5016	2730.6142	3681	2791.65
999.6231	2731.8306	3653.2	2770.2
999.7446	2733.0462	3634.15	2750.9
999.8661	2734.2612	3630.95	2742
999.9875	2735.4756	3608.5	2725.45
1000.1089	2736.6892	3579.7	2696.4
1000.2302	2737.9022	3570.65	2689.95
1000.3515	2739.1145	3558.95	2679.25
1000.4728	2740.3262	3556.65	2667.6
1000.594	2741.5372	3538.85	2656.75
1000.7152	2742.7475	3526.2	2643.65
1000.8363	2743.9571	3511	2627.75
1000.9575	2745.1661	3509.2	2623.65
1001.0785	2746.3744	3500.05	2619.6
1001.1996	2747.582	3481.15	2599.05
1001.3206	2748.7889	3470.6	2587.45
1001.4415	2749.9952	3453.3	2571
1001.5625	2751.2008	3435.85	2551.5
1001.6833	2752.4057	3440.8	2555.45
1001.8042	2753.61	3428.95	2546.55
1001.925	2754.8136	3406.95	2524.75
1002.0458	2756.0165	3403.9	2523.05
1002.1665	2757.2188	3402.65	2523
1002.2872	2758.4204	3385.95	2504.25
1002.4078	2759.6213	3384.6	2500.35
1002.5285	2760.8215	3374.35	2490.75
1002.649	2762.0211	3364.7	2482.65
1002.7696	2763.22	3342.8	2457
1002.8901	2764.4182	3329.6	2446.55
1003.0106	2765.6158	3336.7	2455.95
1003.131	2766.8127	3322.3	2439.6
1003.2514	2768.009	3305.2	2422.4
1003.3717	2769.2045	3299.9	2417.15
1003.492	2770.3994	3299.45	2416.4
1003.6123	2771.5936	3281.8	2399.55
1003.7325	2772.7872	3263.65	2383.75
1003.8527	2773.9801	3242.45	2359.5
1003.9729	2775.1723	3252.85	2351
1004.093	2776.3639	3243.3	2362.75
1004.2131	2777.5548	3243.25	2359.1
1004.3331	2778.745	3217.4	2335
1004.4531	2779.9346	3212	2330.15
1004.5731	2781.1235	3213.7	2328
1004.693	2782.3117	3203.9	2323.2
1004.8129	2783.4992	3193.15	2311.2
1004.9328	2784.6861	3196	2312.05
1005.0526	2785.8723	3172.95	2291.95
1005.1723	2787.0579	3163	2281.65
1005.2921	2788.2428	3153.1	2270.05
1005.4118	2789.427	3142.75	2261.05
1005.5314	2790.6106	3134.2	2253.65
1005.651	2791.7935	3135.75	2254.85
1005.7706	2792.9757	3126.1	2245.1
1005.8902	2794.1573	3126.95	2244.1
1006.0097	2795.3382	3109.7	2227.5
1006.1291	2796.5184	3108.6	2230.05
1006.2485	2797.698	3102.75	2218.6
1006.3679	2798.8769	3107.55	2227.05
1006.4873	2800.0551	3093.7	2210.7
1006.6066	2801.2327	3095.3	2209.6
1006.7258	2802.4096	3079.5	2199.2
1006.8451	2803.5859	3082.35	2199.25
1006.9642	2804.7615	3074.9	2190.85
1007.0834	2805.9364	3069.2	2188.65
1007.2025	2807.1106	3070.2	2189.05
1007.3216	2808.2842	3069.05	2186
1007.4406	2809.4572	3072.05	2191.15
1007.5596	2810.6294	3075	2192.25
1007.6785	2811.801	3074.5	2196.95
1007.7975	2812.972	3084.15	2202.85
1007.9163	2814.1423	3089	2206.4
1008.0352	2815.3119	3099.9	2219.6
1008.154	2816.4808	3103.85	2222.3
1008.2727	2817.6491	3105.75	2222.8
1008.3914	2818.8167	3113.25	2234.7
1008.5101	2819.9837	3132.8	2247.8
1008.6288	2821.15	3138.7	2259
1008.7474	2822.3157	3156.9	2276.1
1008.8659	2823.4807	3175.05	2293.35
1008.9844	2824.645	3190.05	2307
1009.1029	2825.8086	3184.3	2303.2
1009.2214	2826.9716	3204.2	2324.3
1009.3398	2828.134	3221.2	2339.6
1009.4581	2829.2957	3224	2343.8
1009.5764	2830.4567	3233.65	2353.8
1009.6947	2831.617	3243.65	2361.55
1009.813	2832.7767	3235.6	2356.8
1009.9312	2833.9358	3230.3	2350
1010.0493	2835.0941	3224.7	2344.25
1010.1675	2836.2519	3215.25	2332.95
1010.2855	2837.4089	3208.35	2328.05
1010.4036	2838.5653	3196	2315
1010.5216	2839.7211	3185.55	2305.9
1010.6396	2840.8761	3182.15	2299.3
1010.7575	2842.0306	3185.65	2305.95
1010.8754	2843.1843	3177.7	2296.15
1010.9932	2844.3374	3181.55	2301.55
1011.111	2845.4899	3197.75	2316.8
1011.2288	2846.6417	3206.95	2326.2
1011.3465	2847.7928	3221.5	2342.8
1011.4642	2848.9433	3237.7	2356.05
1011.5818	2850.0931	3248.7	2368.55
1011.6995	2851.2422	3273.65	2390.2
1011.817	2852.3907	3286.5	2405.55
1011.9345	2853.5385	3295.3	2411.35
1012.052	2854.6857	3320.55	2430.3
1012.1695	2855.8323	3329.25	2449
1012.2869	2856.9781	3331.55	2451.8
1012.4042	2858.1233	3339.3	2459.25
1012.5216	2859.2679	3345.75	2465.1
1012.6389	2860.4118	3355.7	2474.5
1012.7561	2861.555	3355.45	2470.65
1012.8733	2862.6976	3375.7	2493.65
1012.9905	2863.8395	3374.35	2495
1013.1076	2864.9808	3376.5	2498.1
1013.2247	2866.1214	3386	2505.7
1013.3417	2867.2614	3377.6	2496.35
1013.4587	2868.4007	3381.85	2500.85
1013.5757	2869.5393	3376.45	2492.5
1013.6926	2870.6773	3373.65	2490.65
1013.8095	2871.8146	3370.7	2488.3
1013.9263	2872.9513	3361.2	2477.9
1014.0431	2874.0874	3348.7	2466.8
1014.1599	2875.2227	3330.05	2448.45
1014.2766	2876.3574	3328.25	2449.5
1014.3933	2877.4915	3295.2	2415
1014.51	2878.6249	3295.4	2415.55
1014.6266	2879.7577	3271.25	2390.65
1014.7431	2880.8898	3273.5	2381.55
1014.8596	2882.0212	3245.1	2366.6
1014.9761	2883.152	3245.55	2365.05
1015.0925	2884.2821	3227.75	2348.05
1015.2089	2885.4116	3208.2	2326.5
1015.3253	2886.5405	3217.05	2337.4
1015.4416	2887.6686	3212.7	2328.15
1015.5579	2888.7962	3211.45	2332.85
1015.6741	2889.923	3194.15	2314.1
1015.7903	2891.0493	3189.85	2310.75
1015.9065	2892.1748	3194.65	2313.6
1016.0226	2893.2997	3191.2	2312.6
1016.1387	2894.424	3191.4	2312.05
1016.2547	2895.5476	3185.6	2303.65
1016.3707	2896.6706	3188.55	2309.1
1016.4866	2897.7929	3189.65	2309
1016.6025	2898.9145	3193.25	2311.45
1016.7184	2900.0355	3181.7	2299.95
1016.8342	2901.1559	3178.4	2297.35
1016.95	2902.2756	3196.75	2317.15
1017.0658	2903.3946	3202.85	2322.15
1017.1815	2904.513	3219.7	2337.3
1017.2971	2905.6308	3205.1	2325.1
1017.4127	2906.7479	3200.45	2318.05
1017.5283	2907.8643	3207.4	2327.3
1017.6439	2908.9801	3210.45	2329.45
1017.7594	2910.0953	3199.85	2321.25
1017.8748	2911.2098	3195.6	2310.6
1017.9902	2912.3236	3187.9	2299.4
1018.1056	2913.4368	3179.05	2295.85
1018.2209	2914.5494	3160.55	2280.3
1018.3362	2915.6613	3150.05	2263.4
1018.4515	2916.7725	3143.05	2258.7
1018.5667	2917.8831	3117.25	2235.8
1018.6819	2918.9931	3106.15	2223.8
1018.797	2920.1024	3083.6	2203.65
1018.9121	2921.211	3070.2	2188.9
1019.0271	2922.319	3055.7	2177.85
1019.1421	2923.4264	3052.35	2172.25
1019.2571	2924.5331	3042.05	2162.7
1019.372	2925.6391	3028.15	2146.45
1019.4869	2926.7445	3026.45	2146.3
1019.6017	2927.8493	3031.65	2152.45
1019.7165	2928.9534	3013.1	2131.5
1019.8313	2930.0569	3010.4	2124.95
1019.946	2931.1597	3009.95	2128.35
1020.0606	2932.2619	3008.75	2127.95
1020.1753	2933.3634	3002.65	2122.9
1020.2899	2934.4643	3002.4	2118.4
1020.4044	2935.5645	3006.25	2121.35
1020.5189	2936.6641	2990.25	2105.65
1020.6334	2937.763	2950.85	2071.85
1020.7478	2938.8613	2948.55	2067.95
1020.8622	2939.959	2920.45	2034.55
1020.9765	2941.056	2898.7	2018.95
1021.0908	2942.1523	2856.2	1974.9
1021.2051	2943.248	2831.75	1951.65
1021.3193	2944.3431	2810.05	1931.6
1021.4334	2945.4375	2756.75	1877.6
1021.5476	2946.5313	2725.5	1845.6
1021.6617	2947.6244	2682	1800.55
1021.7757	2948.7169	2642.6	1761.75
1021.8897	2949.8087	2603.1	1722.85
1022.0037	2950.8999	2576.45	1694.6
1022.1176	2951.9904	2543.1	1662.4
1022.2315	2953.0803	2515.05	1636.2
1022.3453	2954.1696	2489	1609.35
1022.4591	2955.2582	2465.65	1586.05
1022.5728	2956.3462	2437.85	1558.6
1022.6865	2957.4335	2415.1	1533.45
1022.8002	2958.5202	2411.65	1529.3
1022.9138	2959.6062	2390.85	1510.2
1023.0274	2960.6916	2384.7	1505.6
1023.141	2961.7764	2370.05	1489.2
1023.2545	2962.8605	2356.5	1474.7
1023.3679	2963.9439	2347.3	1467.05
1023.4813	2965.0267	2341.5	1460.05
1023.5947	2966.1089	2358.05	1453.8
1023.708	2967.1905	2326.5	1446.3
1023.8213	2968.2714	2309.65	1431.95
1023.9346	2969.3516	2307	1428.35
1024.0478	2970.4312	2318.8	1431.75
1024.1609	2971.5102	2308.25	1429.4
1024.274	2972.5885	2297.75	1417.25
1024.3871	2973.6662	2302.3	1417.75
1024.5002	2974.7432	2286.55	1407.25
1024.6132	2975.8196	2276.9	1396.45
1024.7261	2976.8954	2268.45	1390.45
1024.839	2977.9705	2275.9	1397
1024.9519	2979.045	2268.15	1389.25
1025.0647	2980.1188	2255.55	1377.6
1025.1775	2981.192	2246.35	1368.3
1025.2902	2982.2645	2232.95	1351.35
1025.4029	2983.3364	2215.85	1336.6
1025.5156	2984.4077	2206.85	1326
1025.6282	2985.4783	2196.5	1309.6
1025.7407	2986.5483	2182.85	1304.6
1025.8532	2987.6177	2171.95	1290.75
1025.9657	2988.6864	2155.3	1277.8
1026.0782	2989.7545	2144.05	1264.6
1026.1906	2990.8219	2112	1234.1
1026.3029	2991.8887	2095.75	1213.9
1026.4152	2992.9548	2089.15	1210.45
1026.5275	2994.0204	2071.6	1192
1026.6397	2995.0852	2053.55	1174.45
1026.7519	2996.1495	2048.9	1165.85
1026.864	2997.2131	2031.65	1150.6
1026.9761	2998.276	2020.75	1140.55
1027.0882	2999.3383	2011.6	1132.3
1027.2002	3000.4	1996.75	1114.3
1027.3122	3001.4611	1988.4	1108.85
1027.4241	3002.5215	1977.75	1097.1
1027.536	3003.5812	1970.95	1092.65
1027.6478	3004.6404	1959.65	1079.4
1027.7596	3005.6989	1961.2	1078.1
1027.8714	3006.7567	1948.4	1069
1027.9831	3007.8139	1961.95	1050.95
1028.0947	3008.8705	1919.4	1039
1028.2064	3009.9264	1922.7	1039.35
1028.3179	3010.9818	1907.5	1028.7
1028.4295	3012.0364	1908.8	1028.5
1028.541	3013.0905	1908.7	1029.35
1028.6524	3014.1439	1908.25	1029.3
1028.7638	3015.1966	1896.65	1017.35
1028.8752	3016.2487	1889.55	1008.95
1028.9865	3017.3002	1893.25	1010.9
1029.0978	3018.3511	1884.7	1005.95
1029.209	3019.4013	1876.35	997.75
1029.3202	3020.4509	1871.8	991.9
1029.4314	3021.4998	1873.85	994
1029.5425	3022.5481	1858.8	979.8
1029.6535	3023.5958	1870.15	990.25
1029.7645	3024.6428	1859.55	980.4
1029.8755	3025.6892	1849.85	972.5
1029.9864	3026.735	1859.6	980.45
1030.0973	3027.7802	1843.65	963.9
1030.2082	3028.8247	1835.35	954.5
1030.319	3029.8685	1838.6	959.05
1030.4297	3030.9118	1837.6	957.2
1030.5404	3031.9544	1834.45	954.5
1030.6511	3032.9963	1826.8	947.7
1030.7617	3034.0376	1826.95	948.7
1030.8723	3035.0783	1830.25	946.1
1030.9829	3036.1184	1825.5	945.45
1031.0934	3037.1578	1825.55	946.05
1031.2038	3038.1966	1805.15	922.5
1031.3142	3039.2348	1808.25	928.45
1031.4246	3040.2723	1815.6	928.75
1031.5349	3041.3092	1803.95	926.65
1031.6452	3042.3455	1801.9	921.25
1031.7554	3043.3811	1800.5	919.65
1031.8656	3044.4161	1799.05	918.9
1031.9758	3045.4505	1790.5	914.75
1032.0859	3046.4842	1786.9	908.05
1032.1959	3047.5173	1770.35	890.45
1032.3059	3048.5498	1766.1	887.6
1032.4159	3049.5816	1769.15	889.5
1032.5258	3050.6128	1760.7	878.55
1032.6357	3051.6434	1763.1	883.05
1032.7455	3052.6734	1766.45	884.85
1032.8553	3053.7027	1760.15	880.65
1032.9651	3054.7314	1750.8	873.15
1033.0748	3055.7594	1750.35	872.45
1033.1845	3056.7868	1745.7	867.4
1033.2941	3057.8136	1732.65	853.35
1033.4037	3058.8398	1740	859.85
1033.5132	3059.8653	1731.5	851.2
1033.6227	3060.8902	1726	846.3
1033.7321	3061.9145	1719.8	842.6
1033.8415	3062.9381	1714.6	834.65
1033.9509	3063.9612	1724.25	827.1
1034.0602	3064.9835	1714	833.35
1034.1694	3066.0053	1706.5	825.75
1034.2787	3067.0264	1701.65	823.2
1034.3878	3068.0469	1697.2	817.15
1034.497	3069.0668	1697	814.4
1034.6061	3070.086	1691.55	813.05
1034.7151	3071.1046	1681.35	800.55
1034.8241	3072.1226	1687.65	807.8
1034.9331	3073.1399	1678.9	799.2
1035.042	3074.1567	1671.85	792
1035.1508	3075.1727	1666.5	787.8
1035.2597	3076.1882	1658.4	778.55
1035.3684	3077.203	1654	773.95
1035.4772	3078.2173	1641.85	761.15
1035.5859	3079.2308	1642.1	760.25
1035.6945	3080.2438	1643.5	762.65
1035.8031	3081.2561	1636.1	757.1
1035.9117	3082.2678	1619.15	739.95
1036.0202	3083.2789	1622.4	743.85
1036.1286	3084.2893	1623.1	744.25
1036.2371	3085.2991	1609	730.15
1036.3454	3086.3083	1612.85	727.9
1036.4538	3087.3169	1602.9	723.05
1036.562	3088.3248	1604.55	726.2
1036.6703	3089.3321	1605.35	724.75
1036.7785	3090.3388	1590.4	712.15
1036.8866	3091.3449	1584.1	704.55
1036.9948	3092.3503	1588	706.8
1037.1028	3093.3551	1577.6	700.75
1037.2108	3094.3593	1573.45	695.4
1037.3188	3095.3629	1572.3	693.35
1037.4267	3096.3658	1565.05	685.1
1037.5346	3097.3681	1558.3	678.45
1037.6425	3098.3698	1562.9	682.95
1037.7503	3099.3708	1567	682.15
1037.858	3100.3713	1553.7	672.95
1037.9657	3101.3711	1552.1	670.7
1038.0734	3102.3702	1660.75	644.5
1038.181	3103.3688	1549.6	668.75
1038.2886	3104.3667	1542.25	662.7
1038.3961	3105.364	1529.95	652.45
1038.5036	3106.3607	1530.45	649.2
1038.611	3107.3568	1515.5	637
1038.7184	3108.3522	1515.85	637.85
1038.8257	3109.347	1514.05	635.7
1038.933	3110.3412	1518	635.25
1039.0403	3111.3348	1509.35	628.8
1039.1475	3112.3277	1506.15	627.55
1039.2547	3113.32	1497.45	618.1
1039.3618	3114.3117	1496.75	617.85
1039.4689	3115.3028	1490.2	613.3
1039.5759	3116.2932	1494.55	613.45
1039.6829	3117.2831	1495.2	610.5
1039.7898	3118.2723	1479.5	601.05
1039.8967	3119.2608	1481.4	602.8
1040.0035	3120.2488	1473.2	594.05
1040.1103	3121.2361	1474.8	594.95
1040.2171	3122.2229	1468.15	589.3
1040.3238	3123.209	1463.5	585.3
1040.4305	3124.1944	1461.05	582.85
1040.5371	3125.1793	1462.6	581.9
1040.6437	3126.1635	1456.35	576.5
1040.7502	3127.1471	1455.9	579.15
1040.8567	3128.1301	1446.6	568.2
1040.9631	3129.1125	1442.2	563.15
1041.0695	3130.0942	1438.85	560.5
1041.1759	3131.0753	1453.1	563.95
1041.2822	3132.0558	1444.35	562.7
1041.3884	3133.0357	1440.2	559.9
1041.4946	3134.015	1431.45	550.85
1041.6008	3134.9936	1428.95	547.95
1041.7069	3135.9716	1435.6	535.7
1041.813	3136.949	1423.7	544.1
1041.919	3137.9258	1425.55	542.3
1042.025	3138.902	1422.5	538.35
1042.1309	3139.8775	1419.95	541.1
1042.2368	3140.8524	1421.6	541.75
1042.3427	3141.8267	1422.6	542.85
1042.4485	3142.8004	1408	527.9
1042.5542	3143.7735	1414.75	530.8
1042.6599	3144.7459	1411.3	530.8
1042.7656	3145.7178	1407.8	529.75
1042.8712	3146.689	1395.75	516.7
1042.9768	3147.6596	1398.25	517.6
1043.0823	3148.6295	1400.15	522.35
1043.1878	3149.5989	1389.05	510.75
1043.2932	3150.5676	1387.5	510.4
1043.3986	3151.5357	1386.8	510.4
1043.5039	3152.5032	1386.55	508.4
1043.6092	3153.4701	1380.05	502.65
1043.7145	3154.4364	1379.35	498.15
1043.8197	3155.402	1373.5	496.55
1043.9248	3156.367	1376.7	495.3
1044.03	3157.3315	1409.95	493.8
1044.135	3158.2952	1369.65	489.05
1044.24	3159.2584	1364.85	485.85
1044.345	3160.221	1366.8	487.5
1044.4499	3161.1829	1359.6	480.75
1044.5548	3162.1442	1351.45	470.9
1044.6596	3163.105	1352.75	472.65
1044.7644	3164.065	1350	470.95
1044.8692	3165.0245	1351.75	471.05
1044.9739	3165.9834	1347.85	471.2
1045.0785	3166.9416	1352.75	473.1
1045.1831	3167.8993	1338.05	458.45
1045.2877	3168.8563	1336.35	455.15
1045.3922	3169.8127	1338.2	460.9
1045.4966	3170.7684	1332.3	453.15
1045.6011	3171.7236	1327.75	447.65
1045.7054	3172.6782	1323.7	446.35
1045.8098	3173.6321	1324.05	444.4
1045.914	3174.5854	1332.75	449.45
1046.0183	3175.5381	1320.45	441.55
1046.1224	3176.4902	1322.55	443.25
1046.2266	3177.4417	1316.05	438.15
1046.3307	3178.3926	1313.9	435.3
1046.4347	3179.3428	1315.55	437.2
1046.5387	3180.2924	1309.55	429.15
1046.6427	3181.2415	1311.75	432.8
1046.7466	3182.1899	1310.9	430
1046.8504	3183.1377	1307.15	429
1046.9542	3184.0848	1306.8	423.9
1047.058	3185.0314	1297.5	416.3
1047.1617	3185.9773	1294.45	413.8
1047.2654	3186.9227	1294.65	415.85
1047.369	3187.8674	1287.45	408.55
1047.4726	3188.8115	1294.9	413.35
1047.5761	3189.755	1284	405.45
1047.6796	3190.6979	1281.95	402.2
1047.783	3191.6402	1277.7	401.05
1047.8864	3192.5818	1279.1	399.75
1047.9898	3193.5229	1295	399.3
1048.0931	3194.4633	1275.9	394.9
1048.1963	3195.4031	1270.25	390.2
1048.2995	3196.3423	1269.6	391.4
1048.4027	3197.2809	1270.15	390.9
1048.5058	3198.2189	1273.9	393
1048.6089	3199.1563	1288.55	395.45
1048.7119	3200.0931	1263.55	386.65
1048.8148	3201.0292	1256.1	379.6
1048.9178	3201.9648	1259.15	379.15
1049.0206	3202.8997	1262.05	380.2
1049.1235	3203.834	1251.45	372.3
1049.2262	3204.7677	1256.35	377.5
1049.329	3205.7008	1250.45	370.15
1049.4317	3206.6333	1247.55	369.1
1049.5343	3207.5652	1248.15	367.15
1049.6369	3208.4964	1249.35	371.1
1049.7394	3209.4271	1250.6	372.25
1049.8419	3210.3571	1246.95	367.5
1049.9444	3211.2865	1234.45	354.55
1050.0468	3212.2154	1238.8	357.15
1050.1491	3213.1436	1242.05	359.65
1050.2514	3214.0712	1247.2	362.8
1050.3537	3214.9982	1236.3	357.8
1050.4559	3215.9246	1230.1	350.95
1050.5581	3216.8503	1228.05	350.75
1050.6602	3217.7755	1230.05	352
1050.7623	3218.7001	1226.6	348.1
1050.8643	3219.624	1225.45	346
1050.9663	3220.5473	1219.85	341.75
1051.0682	3221.4701	1225.8	346.25
1051.1701	3222.3922	1223.05	343.15
1051.2719	3223.3137	1218.55	338.7
1051.3737	3224.2346	1216.15	338.4
1051.4754	3225.1549	1214.25	335
1051.5771	3226.0746	1212.75	336.05
1051.6788	3226.9937	1208.3	328.95
1051.7804	3227.9121	1210	331.65
1051.8819	3228.83	1206.7	328.15
1051.9834	3229.7473	1206.95	328.4
1052.0849	3230.6639	1210.05	329.65
1052.1863	3231.5799	1202.1	325.65
1052.2876	3232.4954	1200	320.25
1052.3889	3233.4102	1201.95	323.35
1052.4902	3234.3244	1189.65	309.95
1052.5914	3235.238	1193.2	313.55
1052.6926	3236.151	1214.3	314.25
1052.7937	3237.0634	1190.35	313.6
1052.8948	3237.9752	1190.1	309.3
1052.9958	3238.8864	1185.05	305.5
1053.0968	3239.797	1180.4	301.25
1053.1977	3240.7069	1182.9	305.85
1053.2986	3241.6163	1181.2	300.55
1053.3994	3242.5251	1177.85	300.6
1053.5002	3243.4332	1175.1	295.9
1053.6009	3244.3408	1173.75	293.75
1053.7016	3245.2477	1174.75	298.3
1053.8022	3246.154	1171.4	289.85
1053.9028	3247.0598	1168.7	289.8
1054.0034	3247.9649	1166.85	287.4
1054.1039	3248.8694	1165	285.45
1054.2043	3249.7733	1167.75	290.65
1054.3047	3250.6766	1164.9	287.75
1054.4051	3251.5793	1162.8	283.35
1054.5054	3252.4814	1153.95	275
1054.6056	3253.3829	1154.5	276.7
1054.7058	3254.2838	1152.1	273.25
1054.806	3255.1841	1149.85	270.65
1054.9061	3256.0838	1150.45	273.6
1055.0061	3256.9829	1142.95	264.45
1055.1062	3257.8814	1152.7	271.75
1055.2061	3258.7792	1144.45	264.15
1055.306	3259.6765	1144.05	262.65
1055.4059	3260.5731	1139.3	261.65
1055.5057	3261.4692	1134.7	254.65
1055.6055	3262.3647	1134.5	257.35
1055.7052	3263.2595	1129.25	250.15
1055.8049	3264.1538	1125.3	247.3
1055.9045	3265.0474	1120.2	240.6
1056.0041	3265.9404	1115.9	239.05
1056.1036	3266.8329	1113.45	235.75
1056.2031	3267.7247	1121.4	232.35
1056.3025	3268.616	1107.3	229.7
1056.4019	3269.5066	1102	223.7
1056.5013	3270.3966	1091.7	210.4
1056.6005	3271.286	1086.1	208.8
