Software Version:	3.9.2.0
Unit SN:	10000200
Spectrometer SN:	6960
Date:	3/6/2024 9:30:32 AM
Data Line Index:	25
Spectral Points:	2048
Integration time (ms):	125
Averages:	20
Delay (ms):	30
Sequence Number:	1
Processing:	dark subtract
Laser Power (mW):	305
Laser Current (mA):	822
Laser Diode Temp (C):	25.1
Laser Case Temp (C):	23.5
System Temp (C):	23.2
Spectrometer Temp (C):	20.9
CCD Temp (C):	-0.038
Secondary Temp (C):	20.016
Heatsink Temp (C):	17.618
CCDPCB Temp (C):	29.915
SecondaryPCB Temp (C):	25.202

Wavelength	RamanShift	Raw Counts	Dark Subtracted
787.061	30.1047	514.55	107.15
787.2016	32.3739	520.4	114.85
787.3422	34.6426	525.65	120.1
787.4828	36.9109	535.25	126.4
787.6235	39.1787	546.2	133.15
787.7642	41.4461	558.7	141.3
787.9049	43.7131	570.45	150.5
788.0456	45.9796	580.25	158.3
788.1863	48.2456	592.35	167.65
788.3271	50.5112	608.2	177.75
788.4679	52.7764	617.95	185.15
788.6087	55.0411	637.4	200.05
788.7496	57.3054	652.5	208.75
788.8904	59.5692	665.15	221.15
789.0313	61.8326	681.3	234.9
789.1722	64.0955	699.6	250.05
789.3132	66.3579	724.3	268.95
789.4541	68.6199	757.7	300.6
789.5951	70.8815	808.55	345.4
789.7361	73.1426	921.1	455.9
789.8771	75.4032	1191.45	722.1
790.0181	77.6634	1871.55	1399.15
790.1592	79.9231	3509.65	3035.05
790.3003	82.1824	7092.2	6611.8
790.4414	84.4412	13429.8	12942.15
790.5825	86.6995	21968.4	21468.5
790.7237	88.9574	30205	29697.65
790.8648	91.2148	36010.5	35499.05
791.006	93.4717	39158.45	38640.1
791.1472	95.7282	40502	39983.4
791.2885	97.9842	41204.9	40684.55
791.4297	100.2398	41470.8	40946.45
791.571	102.4949	41484.95	40958.3
791.7123	104.7495	41692.9	41162.55
791.8536	107.0036	41565.45	41035
791.9949	109.2573	41891.45	41359.55
792.1363	111.5105	41616.2	41082.4
792.2777	113.7632	41875	41338.2
792.4191	116.0154	41961.5	41412.95
792.5605	118.2672	42290	41749.8
792.7019	120.5185	42251.85	41708.9
792.8434	122.7693	42318.65	41773.7
792.9849	125.0197	42375.55	41825.25
793.1264	127.2696	42568.3	42014.8
793.2679	129.519	42814.65	42258
793.4094	131.7679	43108.1	42551.9
793.551	134.0163	42554	41991.4
793.6926	136.2642	42872.25	42306.1
793.8342	138.5117	43114.35	42548.05
793.9758	140.7587	43081.6	42512.4
794.1175	143.0052	43256.4	42684.1
794.2591	145.2512	43004.65	42433.45
794.4008	147.4967	43291.95	42718.5
794.5425	149.7417	43227.9	42650.85
794.6842	151.9863	43231.9	42652.4
794.826	154.2304	43039.8	42454.75
794.9677	156.4739	43160.35	42568.05
795.1095	158.717	43305.75	42716.45
795.2513	160.9596	43322.55	42727.95
795.3931	163.2017	43137.1	42540.55
795.535	165.4433	43380.7	42780.65
795.6768	167.6844	43262.15	42659.95
795.8187	169.925	43417.05	42812.95
795.9606	172.1651	43349.1	42742.55
796.1025	174.4047	43274.95	42663.95
796.2445	176.6439	43371.9	42759.1
796.3864	178.8825	43454.4	42838.95
796.5284	181.1206	43596.05	42974.4
796.6704	183.3582	43675	43047.5
796.8124	185.5954	43471.05	42847.1
796.9544	187.832	43718.45	43089.75
797.0965	190.0681	43689.7	43057.9
797.2386	192.3037	43955.3	43318.3
797.3806	194.5388	44214	43575.85
797.5228	196.7734	43745.05	43105.3
797.6649	199.0075	44159.45	43518.7
797.807	201.2411	44325.5	43682.4
797.9492	203.4742	44462.25	43817.45
798.0914	205.7068	44575.9	43923.2
798.2336	207.9389	44633.5	43983.45
798.3758	210.1704	44675.95	44034.8
798.518	212.4015	44888.9	44256.1
798.6603	214.632	44630.75	44002.15
798.8025	216.862	44861.1	44235.4
798.9448	219.0915	45028.4	44397.45
799.0871	221.3205	44949.9	44317.9
799.2294	223.549	45161.4	44533.55
799.3718	225.777	45227.1	44599.15
799.5141	228.0044	45245.1	44609.35
799.6565	230.2314	45427.45	44790.55
799.7989	232.4578	45382.2	44742.1
799.9413	234.6837	45407.1	44758.4
800.0837	236.909	45742.9	45092.1
800.2262	239.1339	45280.95	44603.45
800.3687	241.3582	45554.35	44892.3
800.5111	243.582	45509.2	44814.6
800.6536	245.8053	45730	45052.25
800.7961	248.0281	45648.1	44973
800.9387	250.2503	45740.7	45061.7
801.0812	252.472	45699.95	45019.8
801.2238	254.6932	45822.2	45143.9
801.3664	256.9139	45763.85	45082.55
801.509	259.134	46118.9	45432.55
801.6516	261.3536	45637.75	44953.65
801.7942	263.5727	46070.85	45388.2
801.9369	265.7912	45898.1	45215.1
802.0795	268.0092	45971.7	45286.55
802.2222	270.2267	46023.5	45339.3
802.3649	272.4436	46037.85	45349
802.5076	274.6601	46090.15	45391.75
802.6504	276.8759	46055.25	45360.2
802.7931	279.0913	46151.6	45456.35
802.9359	281.3061	46087.45	45391.6
803.0787	283.5204	46268.65	45570.35
803.2215	285.7341	46287.35	45591
803.3643	287.9473	46471.5	45756.65
803.5071	290.16	46306.1	45598.9
803.6499	292.3721	46667.5	45970.15
803.7928	294.5837	46116.4	45414.65
803.9357	296.7947	46110.6	45409
804.0786	299.0052	46268.8	45566.4
804.2215	301.2152	46119.45	45416.55
804.3644	303.4246	46376.8	45672.5
804.5074	305.6334	46304.4	45600.85
804.6503	307.8418	46151.95	45444.4
804.7933	310.0495	46254.05	45547.5
804.9363	312.2568	46167.45	45460.65
805.0793	314.4635	46026.2	45313.55
805.2223	316.6696	45990.15	45276.85
805.3653	318.8752	46054.5	45332.75
805.5084	321.0802	45690.2	44974.05
805.6514	323.2847	45860.15	45142.55
805.7945	325.4887	45806	45090.25
805.9376	327.692	45704.55	44985.75
806.0807	329.8949	45876.75	45154.4
806.2238	332.0972	45851.1	45129.35
806.367	334.2989	45964.35	45238.2
806.5101	336.5001	45998.3	45272.85
806.6533	338.7007	45847.65	45123.75
806.7965	340.9008	46021.65	45293.7
806.9397	343.1003	45878.8	45147.9
807.0829	345.2992	45960.15	45230.4
807.2261	347.4976	45832.6	45098.65
807.3693	349.6955	45828.05	45091.1
807.5126	351.8927	45924.1	45186
807.6559	354.0895	45826.75	45077.4
807.7991	356.2856	45874.1	45135.7
807.9424	358.4812	45933.1	45193
808.0857	360.6763	45835	45091.55
808.2291	362.8707	45763.4	45019.3
808.3724	365.0646	45824.25	45078.05
808.5158	367.258	45755.7	45007
808.6591	369.4508	45672.95	44920.5
808.8025	371.643	45804.05	45052.5
808.9459	373.8346	45644.9	44890.8
809.0893	376.0257	45629.9	44873.4
809.2327	378.2162	45525.6	44770.7
809.3762	380.4062	45556	44800.85
809.5196	382.5956	45438.75	44682.65
809.6631	384.7844	45518.7	44771.45
809.8066	386.9726	45358.7	44612.05
809.9501	389.1603	45373.3	44626.9
810.0936	391.3474	45259.5	44463.4
810.2371	393.5339	45349.25	44597.3
810.3806	395.7199	45056.6	44311.6
810.5241	397.9052	45071.6	44321.95
810.6677	400.09	45097.75	44346.5
810.8113	402.2743	45085.8	44332.95
810.9548	404.4579	45020.9	44265.05
811.0984	406.641	45098.45	44340
811.2421	408.8235	45188.7	44430.15
811.3857	411.0054	45193.55	44433.55
811.5293	413.1868	45277.55	44513.95
811.673	415.3675	45259	44492.55
811.8166	417.5477	45244.4	44477.45
811.9603	419.7273	45189.5	44419.1
812.104	421.9064	45031.05	44255.9
812.2477	424.0848	44863.45	44091.35
812.3914	426.2627	44807.35	44036.5
812.5351	428.4399	44631.85	43859.35
812.6788	430.6166	44597.1	43821.2
812.8226	432.7928	44506.65	43726.45
812.9663	434.9683	44346.5	43567.95
813.1101	437.1432	44317.9	43540.3
813.2539	439.3176	44147.95	43372.05
813.3977	441.4914	44019.25	43242.65
813.5415	443.6645	44030.6	43253.3
813.6853	445.8371	43828.25	43047.35
813.8291	448.0091	43678.85	42898.75
813.973	450.1806	43564.45	42784.8
814.1168	452.3514	43461.05	42677.3
814.2607	454.5216	43504.45	42711.95
814.4046	456.6913	43266.3	42479.65
814.5485	458.8603	43328.65	42546.35
814.6924	461.0288	43412.75	42628.85
814.8363	463.1967	43279.9	42497.15
814.9802	465.3639	43271.1	42487.85
815.1241	467.5306	43128.1	42340
815.2681	469.6967	43086.15	42301.4
815.412	471.8622	43004.7	42220.75
815.556	474.0271	42983.3	42200.3
815.7	476.1914	42947.1	42156.45
815.844	478.3551	42860.9	42073.8
815.988	480.5182	42927.65	42139.15
816.132	482.6807	42950.2	42160.25
816.276	484.8426	42970.95	42183.4
816.4201	487.0039	43123	42335.55
816.5641	489.1647	43049.8	42257.85
816.7082	491.3248	43146.65	42354.8
816.8522	493.4843	43092.4	42301.6
816.9963	495.6432	43036.25	42242.6
817.1404	497.8015	42927.8	42132.5
817.2845	499.9592	42998.05	42202.65
817.4286	502.1163	42867.6	42072.75
817.5727	504.2728	42739.05	41943.05
817.7168	506.4287	42838.65	42043.4
817.861	508.5839	42694.2	41897.4
818.0051	510.7386	42697.9	41900.85
818.1493	512.8927	42681.9	41874.95
818.2935	515.0461	42675.65	41875.65
818.4377	517.199	42616.1	41816.6
818.5818	519.3512	42575.45	41774.3
818.726	521.5029	42580.8	41776.7
818.8703	523.6539	42618.55	41815.05
819.0145	525.8043	42571.25	41768.45
819.1587	527.9541	42554.55	41747.2
819.303	530.1033	42426.8	41623.15
819.4472	532.2519	42371.8	41568.85
819.5915	534.3999	42333	41526.25
819.7357	536.5472	42280.5	41475.55
819.88	538.694	42270	41467.15
820.0243	540.8401	42294.5	41487.75
820.1686	542.9856	42265.05	41454.7
820.3129	545.1305	42223.4	41413.75
820.4572	547.2748	42241.95	41432.7
820.6016	549.4185	42218.55	41405.85
820.7459	551.5615	42171.65	41356.8
820.8902	553.704	42158.8	41346.75
821.0346	555.8458	42031.7	41219.35
821.1789	557.987	42080.15	41272.5
821.3233	560.1276	42012.75	41200.6
821.4677	562.2675	42079.95	41269.7
821.6121	564.4069	42049.05	41237.15
821.7565	566.5456	42037	41225.75
821.9009	568.6837	41993.65	41178.95
822.0453	570.8212	41782.55	40968.9
822.1897	572.958	41681	40865.35
822.3342	575.0942	41583.4	40770.95
822.4786	577.2299	41438.95	40625.3
822.6231	579.3648	41347.55	40534.15
822.7675	581.4992	41185.55	40372.95
822.912	583.6329	41101.6	40289.45
823.0565	585.766	41020.2	40205.2
823.201	587.8985	40947.85	40130.95
823.3454	590.0304	40833.65	40004.75
823.4899	592.1616	40789.25	39969.25
823.6345	594.2922	40739.45	39920.3
823.779	596.4222	40642.75	39822.6
823.9235	598.5515	40546.6	39726.1
824.068	600.6802	40408.95	39587.85
824.2126	602.8083	40198.8	39379.7
824.3571	604.9358	40226.25	39402.85
824.5017	607.0626	40089.45	39266.2
824.6462	609.1888	40017.7	39193.5
824.7908	611.3144	40026.4	39201.1
824.9354	613.4393	39951.8	39128.45
825.08	615.5636	39967.7	39142.8
825.2246	617.6873	39954.4	39131.8
825.3692	619.8103	40021.35	39194.5
825.5138	621.9327	39902.75	39075.8
825.6584	624.0544	39868.75	39042.95
825.803	626.1756	39816.25	38990.25
825.9477	628.2961	39702.55	38876.6
826.0923	630.4159	39618.7	38789.5
826.237	632.5351	39633.5	38806.7
826.3816	634.6537	39589.9	38760.75
826.5263	636.7716	39514.9	38684.95
826.6709	638.8889	39493.2	38662.75
826.8156	641.0056	39522.15	38692.9
826.9603	643.1216	39433.4	38603.4
827.105	645.237	39491.4	38656.55
827.2497	647.3518	39379.85	38549.05
827.3944	649.4659	39404.3	38574.95
827.5391	651.5793	39311.85	38481.1
827.6838	653.6922	39202.5	38371.95
827.8285	655.8043	39162	38332.35
827.9733	657.9159	39097.95	38264.05
828.118	660.0268	38938.7	38100.6
828.2627	662.137	38902.65	38067.8
828.4075	664.2466	38875.95	38041.75
828.5522	666.3556	38907.3	38071.45
828.697	668.4639	38798.1	37959.75
828.8418	670.5716	38780.4	37947.1
828.9865	672.6786	38778.5	37942.15
829.1313	674.785	38628.3	37789.95
829.2761	676.8907	38530.95	37692.8
829.4209	678.9958	38537.15	37702.85
829.5657	681.1002	38369.2	37530
829.7105	683.204	38324.45	37481.05
829.8553	685.3072	38356.8	37516.6
830.0001	687.4097	38186.6	37350.3
830.1449	689.5115	38252.75	37411.15
830.2898	691.6127	38271.35	37433.65
830.4346	693.7132	38126.5	37287
830.5794	695.8131	38130.35	37273.7
830.7243	697.9123	38157.15	37315.35
830.8691	700.0109	38025.7	37185.4
831.014	702.1089	38067.35	37227.9
831.1588	704.2061	37942.8	37102.75
831.3037	706.3028	37948.5	37103.8
831.4486	708.3987	37920.3	37077.1
831.5935	710.4941	37849.9	37006.45
831.7383	712.5887	37863.35	37020.65
831.8832	714.6827	37835.75	36988.75
832.0281	716.7761	37787.5	36945.75
832.173	718.8688	37728.05	36882.7
832.3179	720.9608	37633.05	36783.45
832.4628	723.0522	37702.15	36855.2
832.6077	725.1429	37594.55	36751.5
832.7527	727.233	37606.3	36761.85
832.8976	729.3224	37613.95	36767.8
833.0425	731.4112	37463.85	36616.2
833.1874	733.4993	37455.5	36604.65
833.3324	735.5867	37323.95	36476.85
833.4773	737.6735	37257.6	36409.4
833.6222	739.7596	37143.15	36295.45
833.7672	741.845	37055.15	36207.15
833.9122	743.9298	36990.6	36141.7
834.0571	746.014	36927	36081.75
834.2021	748.0974	36883.65	36032
834.347	750.1802	36803.15	35955.7
834.492	752.2624	36621.45	35773.95
834.637	754.3439	36462.45	35612.8
834.782	756.4247	36387.6	35527.7
834.9269	758.5048	36261.7	35411.6
835.0719	760.5843	36240.95	35390.75
835.2169	762.6631	36123.3	35270.95
835.3619	764.7413	36077.55	35228.1
835.5069	766.8188	36109.5	35258.55
835.6519	768.8956	35994.15	35141.05
835.7969	770.9718	36073	35219.9
835.9419	773.0473	35925.95	35073.85
836.0869	775.1221	35872.05	35020.1
836.232	777.1962	35743.4	34891.45
836.377	779.2697	35725.2	34869.3
836.522	781.3426	35666.5	34796.6
836.667	783.4147	35600.55	34744.7
836.8121	785.4862	35596.05	34742.7
836.9571	787.557	35410.65	34557.95
837.1021	789.6271	35345	34492.35
837.2472	791.6966	35160.85	34308.9
837.3922	793.7654	35013.95	34158.15
837.5373	795.8335	34978.15	34123.05
837.6823	797.901	34855.65	34001.8
837.8274	799.9678	34834.2	33976.5
837.9724	802.0339	34754.6	33899.8
838.1175	804.0993	34701.5	33836.05
838.2626	806.1641	34615.9	33760.25
838.4076	808.2282	34515.1	33659.15
838.5527	810.2916	34476.75	33619.35
838.6978	812.3544	34450.7	33595.3
838.8428	814.4164	34401.75	33545.9
838.9879	816.4778	34411.55	33555.9
839.133	818.5385	34260.55	33405.1
839.2781	820.5986	34309	33451.1
839.4232	822.658	34342.35	33484.25
839.5682	824.7166	34177.65	33321.1
839.7133	826.7747	34288.95	33432
839.8584	828.832	34259.45	33402.3
840.0035	830.8886	34124.45	33263.8
840.1486	832.9446	34108.3	33248.95
840.2937	834.9999	34005.55	33146.75
840.4388	837.0545	33948.4	33086.95
840.5839	839.1085	33872	33010.6
840.729	841.1618	33771.55	32906.75
840.8741	843.2143	33651.65	32793.55
841.0192	845.2662	33510.7	32651.75
841.1643	847.3175	33558.85	32701.2
841.3095	849.368	33384.65	32524.75
841.4546	851.4179	33371.35	32512.1
841.5997	853.467	33185.9	32325.15
841.7448	855.5155	33149.25	32290
841.8899	857.5633	33096.25	32235.85
842.0351	859.6105	32973.7	32115.8
842.1802	861.6569	33004.9	32143
842.3253	863.7027	32933.95	32071.35
842.4704	865.7478	32915.8	32053.15
842.6156	867.7922	32854.45	31991.85
842.7607	869.8359	32756.85	31892.85
842.9058	871.8789	32709.75	31848.15
843.0509	873.9212	32687.7	31794.75
843.1961	875.9629	32541.6	31678.15
843.3412	878.0039	32563.4	31701.55
843.4863	880.0441	32541.45	31678.75
843.6315	882.0837	32529.55	31665.7
843.7766	884.1226	32452.45	31589.05
843.9218	886.1609	32485.6	31624.6
844.0669	888.1984	32515.65	31651.05
844.212	890.2352	32598.45	31736.35
844.3572	892.2714	32512.6	31647
844.5023	894.3069	32422	31555.55
844.6475	896.3416	32268.95	31404.6
844.7926	898.3757	32252.4	31387.6
844.9377	900.4091	32161.9	31298.65
845.0829	902.4418	32107	31236.7
845.228	904.4739	31974.65	31107.2
845.3732	906.5052	31960.4	31096.7
845.5183	908.5358	31894.55	31029.45
845.6635	910.5658	31832.75	30967.05
845.8086	912.595	31752.5	30886.9
845.9538	914.6236	31669.75	30804.35
846.0989	916.6515	31592.3	30728.25
846.2441	918.6786	31521.35	30653.75
846.3892	920.7051	31494.45	30625.55
846.5344	922.7309	31489.3	30621.45
846.6795	924.756	31294	30428.4
846.8246	926.7804	31332.7	30466.7
846.9698	928.8041	31046.4	30176
847.1149	930.8272	31132.85	30264.75
847.2601	932.8495	30948.05	30080.8
847.4052	934.8711	30959.3	30089.3
847.5504	936.892	30832.5	29964.1
847.6955	938.9123	30799.05	29931.75
847.8407	940.9318	30724.55	29858.35
847.9858	942.9506	30625.7	29757.55
848.131	944.9688	30497.05	29627.9
848.2761	946.9862	30453.15	29586.45
848.4213	949.003	30253.2	29383.05
848.5664	951.019	30202.85	29333.7
848.7115	953.0344	30057.5	29187.9
848.8567	955.0491	30006.05	29137.3
849.0018	957.063	29977.75	29109.8
849.147	959.0763	30025.15	29156.7
849.2921	961.0888	29855.2	28985.5
849.4373	963.1007	29888.1	29018.85
849.5824	965.1119	29835	28967.35
849.7275	967.1223	29766.9	28898.05
849.8727	969.1321	29741.9	28873.95
850.0178	971.1412	29668.6	28799.05
850.1629	973.1495	29582.25	28713.55
850.3081	975.1572	29556.15	28642.7
850.4532	977.1641	29495.1	28625.35
850.5983	979.1704	29454.85	28583.25
850.7435	981.1759	29351.65	28478.55
850.8886	983.1808	29336.25	28466.75
851.0337	985.1849	29224.5	28347.3
851.1788	987.1884	29144.3	28271.5
851.324	989.1911	29031.65	28161.4
851.4691	991.1932	29066.05	28192.15
851.6142	993.1945	28895.8	28026.5
851.7593	995.1951	28722.1	27850.6
851.9045	997.1951	28720.35	27844.6
852.0496	999.1943	28591.35	27720.7
852.1947	1001.1928	28472.85	27601.25
852.3398	1003.1906	28391.45	27519.85
852.4849	1005.1877	28383.7	27508.15
852.63	1007.1841	28275.35	27403.55
852.7751	1009.1798	28113.25	27240.8
852.9202	1011.1748	28076.15	27205
853.0653	1013.1691	27976.8	27103.5
853.2104	1015.1627	27837.35	26963.2
853.3555	1017.1556	27626.65	26754.05
853.5006	1019.1477	27582.35	26710.8
853.6457	1021.1392	27397.9	26527.55
853.7908	1023.1299	27315.7	26445.2
853.9359	1025.12	27235.25	26362
854.081	1027.1093	27096.85	26226.9
854.2261	1029.0979	26994.05	26125.9
854.3712	1031.0859	26941.55	26069.55
854.5163	1033.0731	26857.3	25984.2
854.6613	1035.0596	26762.45	25890.75
854.8064	1037.0454	26616.35	25742.55
854.9515	1039.0304	26583.15	25711.45
855.0965	1041.0148	26477.7	25604
855.2416	1042.9985	26360.4	25488.65
855.3867	1044.9814	26352.8	25481.85
855.5317	1046.9636	26215.65	25337.15
855.6768	1048.9452	26107.9	25235.9
855.8219	1050.926	26088.75	25216.25
855.9669	1052.9061	26033.25	25159.6
856.112	1054.8855	25930	25054.8
856.257	1056.8642	25883.35	25008.65
856.4021	1058.8421	25903.55	25025.05
856.5471	1060.8194	25793.5	24920.65
856.6921	1062.7959	25720.75	24846.9
856.8372	1064.7717	25652.6	24776.7
856.9822	1066.7469	25592.65	24716.5
857.1272	1068.7213	25567.25	24691.6
857.2723	1070.695	25501.55	24625.3
857.4173	1072.6679	25393.1	24517.05
857.5623	1074.6402	25378.9	24503.2
857.7073	1076.6117	25418.45	24537.85
857.8523	1078.5826	25350.2	24474
857.9973	1080.5527	25229.25	24350.55
858.1423	1082.5221	25137.9	24262.5
858.2873	1084.4908	25053.15	24177
858.4323	1086.4587	24981.8	24103.95
858.5773	1088.426	24946.35	24071.5
858.7223	1090.3925	24866.3	23986.6
858.8673	1092.3584	24823.4	23947.3
859.0123	1094.3235	24675.9	23801.25
859.1573	1096.2879	24622.8	23745.2
859.3022	1098.2515	24594.6	23717.8
859.4472	1100.2145	24626.25	23750.3
859.5922	1102.1767	24529.75	23653.45
859.7371	1104.1382	24480.85	23605.5
859.8821	1106.099	24489.3	23611.5
860.027	1108.0591	24425.65	23550.95
860.172	1110.0185	24374.1	23496.1
860.3169	1111.9771	24411.45	23537.1
860.4619	1113.9351	24294.45	23419
860.6068	1115.8923	24322.95	23445.5
860.7517	1117.8488	24264.5	23385.35
860.8967	1119.8045	24154.55	23278
861.0416	1121.7596	24086.85	23208.55
861.1865	1123.7139	23898.7	23023.55
861.3314	1125.6675	23798.7	22920.6
861.4763	1127.6204	23795.4	22918.7
861.6212	1129.5726	23710.7	22833.8
861.7661	1131.524	23702.15	22824.75
861.911	1133.4748	23626.05	22749.7
862.0559	1135.4248	23537.8	22657.85
862.2008	1137.3741	23431.35	22555.3
862.3457	1139.3226	23348.8	22469.15
862.4905	1141.2705	23373.45	22497.2
862.6354	1143.2176	23218.7	22334.95
862.7803	1145.164	23256.25	22377.9
862.9251	1147.1097	23214.5	22336.75
863.07	1149.0546	23131.1	22251.3
863.2148	1150.9989	23112.95	22235.4
863.3597	1152.9424	23070.1	22192.4
863.5045	1154.8852	23041.7	22163.5
863.6493	1156.8272	22988.05	22109.45
863.7942	1158.7686	22980.05	22095.55
863.939	1160.7092	22877.85	21999.45
864.0838	1162.6491	22795.9	21917.2
864.2286	1164.5883	22754.85	21879.15
864.3734	1166.5267	22757.95	21878.45
864.5182	1168.4644	22742.4	21865.2
864.663	1170.4014	22689.5	21806.8
864.8078	1172.3377	22718.85	21841.7
864.9526	1174.2732	22701.45	21823.8
865.0974	1176.2081	22721.3	21843.15
865.2421	1178.1421	22735.9	21854.1
865.3869	1180.0755	22822.2	21943.85
865.5317	1182.0082	22759	21879.9
865.6764	1183.9401	22741.85	21863.6
865.8212	1185.8713	22631.95	21755.2
865.9659	1187.8017	22516.05	21638.6
866.1106	1189.7315	22440.4	21564.2
866.2554	1191.6605	22227.3	21352.45
866.4001	1193.5888	22098.1	21219.1
866.5448	1195.5163	22022.85	21145
866.6895	1197.4432	21921.05	21041.45
866.8342	1199.3693	21834.85	20957.75
866.9789	1201.2947	21720.05	20840.05
867.1236	1203.2193	21661.9	20782.15
867.2683	1205.1432	21640.5	20759.2
867.413	1207.0664	21591.25	20712.75
867.5576	1208.9889	21506.5	20623.75
867.7023	1210.9106	21412.6	20534.95
867.847	1212.8316	21345.5	20465.8
867.9916	1214.7519	21299.45	20409.9
868.1363	1216.6715	21225.35	20347.25
868.2809	1218.5903	21219.25	20338
868.4255	1220.5084	21177.65	20299.1
868.5701	1222.4257	21171.15	20291.75
868.7148	1224.3424	21115.35	20238.55
868.8594	1226.2583	21032.25	20145.85
869.004	1228.1735	20968.75	20088.8
869.1486	1230.0879	20877.8	19995.95
869.2932	1232.0016	20897.8	20018.55
869.4377	1233.9146	20895.8	20011.8
869.5823	1235.8269	20812.65	19932.75
869.7269	1237.7384	20841.65	19962.45
869.8715	1239.6492	20694.15	19814.2
870.016	1241.5592	20710.85	19830.05
870.1606	1243.4686	20657.8	19775.9
870.3051	1245.3772	20654.3	19775.55
870.4496	1247.285	20701.35	19818.05
870.5941	1249.1922	20694.05	19812.35
870.7387	1251.0986	20688.75	19807.9
870.8832	1253.0042	20660.1	19779.25
871.0277	1254.9092	20677.15	19795.2
871.1722	1256.8134	20699.05	19818.2
871.3167	1258.7169	20781.2	19898.65
871.4611	1260.6196	20721.4	19844
871.6056	1262.5216	20818.85	19936.6
871.7501	1264.4229	20724.25	19843.75
871.8945	1266.3234	20724.1	19842.3
872.039	1268.2232	20631.4	19750.25
872.1834	1270.1223	20525.7	19643.7
872.3278	1272.0207	20499.45	19617
872.4723	1273.9183	20420.75	19533.1
872.6167	1275.8151	20365.6	19485.4
872.7611	1277.7113	20370.45	19489.95
872.9055	1279.6067	20348	19467.1
873.0499	1281.5014	20420.5	19537.75
873.1943	1283.3953	20553.1	19669.55
873.3386	1285.2885	20709.85	19828.5
873.483	1287.181	20787.8	19905.8
873.6274	1289.0727	20838.3	19957.5
873.7717	1290.9637	20765.55	19881.9
873.9161	1292.854	20681.85	19800.6
874.0604	1294.7435	20524.5	19644.05
874.2047	1296.6323	20414.5	19533.55
874.349	1298.5204	20265.7	19381.75
874.4933	1300.4077	20229.4	19345.45
874.6376	1302.2943	20099	19218.15
874.7819	1304.1802	20091.45	19211.35
874.9262	1306.0653	20023	19137.6
875.0705	1307.9497	19963.4	19082
875.2147	1309.8333	19942.7	19062.15
875.359	1311.7162	19879.8	18998.05
875.5032	1313.5984	19870.05	18987.9
875.6475	1315.4798	19780.55	18897.55
875.7917	1317.3605	19763	18880.05
875.9359	1319.2405	19776.7	18892.5
876.0801	1321.1197	19702.55	18818.95
876.2243	1322.9982	19628.25	18740.2
876.3685	1324.876	19632.25	18750.2
876.5127	1326.753	19501.7	18618.8
876.6569	1328.6293	19459.7	18575.35
876.801	1330.5048	19345.4	18462.3
876.9452	1332.3796	19273.95	18393.7
877.0893	1334.2537	19202.15	18294.85
877.2335	1336.127	19134.4	18251.3
877.3776	1337.9996	19066.2	18183.35
877.5217	1339.8714	19004.95	18121.45
877.6658	1341.7426	18976.95	18053.2
877.8099	1343.6129	18910.8	18028
877.954	1345.4826	18841.2	17958.4
878.0981	1347.3515	18840.6	17955.7
878.2422	1349.2196	18791.2	17910.3
878.3862	1351.087	18787.65	17907.5
878.5303	1352.9537	18728.95	17846.3
878.6743	1354.8197	18716.55	17833.05
878.8184	1356.6849	18721.6	17840.05
878.9624	1358.5493	18675.45	17790.65
879.1064	1360.4131	18670	17787.7
879.2504	1362.276	18646.35	17763.9
879.3944	1364.1383	18601.8	17719.1
879.5384	1365.9998	18569	17682.25
879.6823	1367.8606	18514.8	17631.4
879.8263	1369.7206	18497.15	17614.4
879.9702	1371.5799	18432.75	17546.75
880.1142	1373.4384	18409.25	17526.45
880.2581	1375.2962	18386.85	17502.95
880.402	1377.1533	18266.05	17384.7
880.5459	1379.0096	18155.3	17272.8
880.6898	1380.8652	18088.5	17204.85
880.8337	1382.7201	18039.3	17156.65
880.9776	1384.5742	17913.95	17029.65
881.1215	1386.4275	17817.25	16933.15
881.2653	1388.2802	17753.05	16871.55
881.4092	1390.132	17681.75	16799.15
881.553	1391.9832	17662.25	16778.4
881.6968	1393.8336	17584.9	16704.1
881.8406	1395.6832	17512.1	16630.1
881.9844	1397.5322	17435.35	16552.95
882.1282	1399.3803	17400.9	16511.6
882.272	1401.2278	17296.7	16412.75
882.4158	1403.0745	17307.2	16423.6
882.5595	1404.9204	17209.15	16326.15
882.7033	1406.7656	17160.55	16277.15
882.847	1408.6101	17108	16223.25
882.9908	1410.4538	17020.3	16135.95
883.1345	1412.2968	16983.15	16100
883.2782	1414.139	16917.35	16034.4
883.4219	1415.9805	16906.65	16022.25
883.5656	1417.8213	16852.65	15947.9
883.7092	1419.6613	16792.3	15909.4
883.8529	1421.5006	16788.3	15905.15
883.9965	1423.3391	16776.7	15891.9
884.1402	1425.1769	16701.05	15816
884.2838	1427.0139	16750.05	15868.3
884.4274	1428.8502	16767.6	15882.35
884.571	1430.6858	16811.35	15927.9
884.7146	1432.5206	16729.1	15844.1
884.8582	1434.3547	16725.3	15841.65
885.0018	1436.188	16665.15	15782.3
885.1453	1438.0206	16670.1	15785.6
885.2889	1439.8524	16577.9	15695.3
885.4324	1441.6835	16599.1	15714.8
885.5759	1443.5139	16541.8	15656.3
885.7194	1445.3435	16484	15600.05
885.8629	1447.1724	16477.3	15594.55
886.0064	1449.0005	16477.35	15594.4
886.1499	1450.8279	16446.25	15561.8
886.2933	1452.6545	16409.8	15524.4
886.4368	1454.4804	16380.75	15499.4
886.5802	1456.3056	16331.25	15440.35
886.7237	1458.13	16300.55	15417.25
886.8671	1459.9536	16262.45	15379.45
887.0105	1461.7766	16212.75	15330.7
887.1539	1463.5987	16128.6	15244.05
887.2972	1465.4202	16096.9	15214.6
887.4406	1467.2409	16000.95	15118.1
887.584	1469.0608	15978.85	15094.7
887.7273	1470.88	15909.15	15024.15
887.8706	1472.6984	15882.5	14997.85
888.0139	1474.5161	15803.75	14916.35
888.1572	1476.3331	15772.55	14890
888.3005	1478.1493	15717.6	14831.55
888.4438	1479.9648	15738.3	14854.55
888.5871	1481.7795	15660.8	14777.2
888.7303	1483.5935	15642.5	14758.95
888.8736	1485.4067	15594.5	14712.3
889.0168	1487.2192	15605.95	14721.3
889.16	1489.031	15566.25	14679
889.3032	1490.842	15557.6	14673.1
889.4464	1492.6522	15539.05	14654.85
889.5896	1494.4618	15484.4	14600.25
889.7327	1496.2705	15451.85	14570.1
889.8759	1498.0785	15407.4	14522.75
890.019	1499.8858	15373.15	14489.55
890.1622	1501.6924	15333.7	14449.85
890.3053	1503.4981	15287.9	14403.7
890.4484	1505.3032	15271.45	14387.5
890.5914	1507.1075	15213.3	14329.85
890.7345	1508.911	15214.65	14330.75
890.8776	1510.7138	15158.75	14274.5
891.0206	1512.5159	15082.1	14197.65
891.1637	1514.3172	15017.35	14131.65
891.3067	1516.1178	14962.9	14081.75
891.4497	1517.9176	14938.85	14053.9
891.5927	1519.7166	14908.55	14025.5
891.7357	1521.515	14861.15	13969.25
891.8786	1523.3126	14793.45	13906.75
892.0216	1525.1094	14755.8	13873.5
892.1645	1526.9055	14727	13845.2
892.3074	1528.7008	14654.35	13770.9
892.4503	1530.4954	14607.9	13716.35
892.5932	1532.2893	14577.5	13695.25
892.7361	1534.0824	14499.65	13612.3
892.879	1535.8747	14489.5	13606.35
893.0218	1537.6663	14414.6	13529.5
893.1647	1539.4572	14354.7	13470.55
893.3075	1541.2473	14307.15	13423.6
893.4503	1543.0367	14279.2	13394.5
893.5931	1544.8253	14182.05	13294.1
893.7359	1546.6132	14162.85	13275.1
893.8787	1548.4003	14115.9	13222.2
894.0214	1550.1867	14107.1	13215.5
894.1642	1551.9723	14081.55	13192.8
894.3069	1553.7572	14042.55	13157
894.4496	1555.5414	13994.25	13110.9
894.5923	1557.3247	13967.8	13083.1
894.735	1559.1074	13932	13051.25
894.8777	1560.8893	13921.1	13037.75
895.0204	1562.6705	13902.35	13019.1
895.163	1564.4509	13872.15	12990.25
895.3056	1566.2305	13825.95	12943.9
895.4482	1568.0094	13851.25	12966.7
895.5908	1569.7876	13825.55	12943.75
895.7334	1571.565	13747.65	12865.65
895.876	1573.3417	13750.9	12868.75
896.0186	1575.1176	13711.4	12826.8
896.1611	1576.8928	13702.75	12819.5
896.3036	1578.6672	13613.75	12731.5
896.4461	1580.4409	13592.55	12711.85
896.5886	1582.2138	13566.95	12680.95
896.7311	1583.986	13557.3	12673.8
896.8736	1585.7575	13597.7	12716.55
897.0161	1587.5282	13568.25	12687.45
897.1585	1589.2981	13562.6	12681.45
897.3009	1591.0673	13528.5	12645.45
897.4433	1592.8358	13490.65	12607.8
897.5857	1594.6035	13466.4	12583.7
897.7281	1596.3704	13398.1	12512.05
897.8705	1598.1366	13300.65	12418.4
898.0128	1599.9021	13246.5	12363.95
898.1551	1601.6668	13152.15	12266.5
898.2975	1603.4308	13108.95	12223.3
898.4398	1605.194	13090.2	12202.8
898.5821	1606.9564	13043.35	12162.3
898.7243	1608.7182	13029.15	12141.85
898.8666	1610.4791	13030.1	12148.75
899.0088	1612.2394	13077.15	12197.25
899.1511	1613.9988	13119.4	12238.3
899.2933	1615.7576	13166.45	12282.95
899.4355	1617.5156	13193.4	12306.35
899.5776	1619.2728	13171.85	12288.7
899.7198	1621.0293	13075.55	12195.2
899.862	1622.785	12953.3	12066.5
900.0041	1624.54	12767.95	11884.55
900.1462	1626.2942	12665.75	11782.95
900.2883	1628.0477	12536.95	11652.9
900.4304	1629.8005	12427.4	11540.35
900.5725	1631.5525	12360.35	11478.4
900.7145	1633.3037	12235.95	11353.5
900.8566	1635.0542	12159.35	11278.6
900.9986	1636.804	12084.3	11202.4
901.1406	1638.553	12134.45	11163.9
901.2826	1640.3013	12022.15	11140.75
901.4245	1642.0488	11935.5	11052.2
901.5665	1643.7955	11889.55	11010
901.7085	1645.5416	11833.7	10949.55
901.8504	1647.2868	11832.55	10951.65
901.9923	1649.0313	11771.25	10888.6
902.1342	1650.7751	11771.85	10884.85
902.2761	1652.5181	11703.3	10822.7
902.4179	1654.2604	11637.4	10752.75
902.5598	1656.0019	11615	10734.7
902.7016	1657.7427	11587.45	10705
902.8434	1659.4828	11581.15	10697.7
902.9852	1661.222	11576.15	10691.9
903.127	1662.9606	11573.05	10690.2
903.2687	1664.6984	11537.1	10652.85
903.4105	1666.4354	11539.45	10655
903.5522	1668.1717	11493.1	10610.9
903.6939	1669.9072	11388.45	10506.55
903.8356	1671.642	11327.65	10442.05
903.9773	1673.3761	11278.8	10396.65
904.119	1675.1094	11217.85	10335.7
904.2606	1676.8419	11132.1	10246.85
904.4022	1678.5737	11099.25	10218.6
904.5439	1680.3048	11059.2	10175.65
904.6855	1682.0351	10980.2	10096.8
904.827	1683.7646	10910.35	10025.15
904.9686	1685.4934	10893.65	10011.8
905.1101	1687.2215	10817.2	9932.8
905.2517	1688.9488	10772.65	9888.2
905.3932	1690.6754	10716.45	9832.7
905.5347	1692.4012	10710.6	9826.75
905.6761	1694.1263	10671.45	9786.1
905.8176	1695.8506	10640.45	9757.05
905.9591	1697.5742	10571	9689.7
906.1005	1699.297	10535.2	9651.5
906.2419	1701.0191	10498	9615.8
906.3833	1702.7404	10436.45	9555.6
906.5246	1704.461	10402.85	9517.65
906.666	1706.1808	10358.4	9473
906.8073	1707.8999	10346.45	9463.25
906.9487	1709.6182	10318.25	9434.35
907.09	1711.3358	10286.05	9402.2
907.2313	1713.0527	10264.7	9383.25
907.3725	1714.7688	10229.2	9339.85
907.5138	1716.4841	10162.25	9277.55
907.655	1718.1987	10152.15	9262.8
907.7962	1719.9126	10115.25	9234.55
907.9374	1721.6257	10085.95	9200.3
908.0786	1723.338	10067.2	9186.65
908.2198	1725.0496	10021.7	9137.4
908.3609	1726.7605	10000.9	9116.8
908.502	1728.4706	9965.8	9083.95
908.6431	1730.18	9921.95	9037.8
908.7842	1731.8886	9913.05	9031.5
908.9253	1733.5964	9909.6	9004.55
909.0664	1735.3036	9892.6	9005.3
909.2074	1737.0099	9865.9	8983.15
909.3484	1738.7156	9836.7	8956.35
909.4894	1740.4204	9803.85	8919.45
909.6304	1742.1246	9780.15	8897.05
909.7714	1743.8279	9731.25	8850.2
909.9123	1745.5306	9751.35	8867.7
910.0532	1747.2325	9724.7	8841.15
910.1941	1748.9336	9725.95	8843.75
910.335	1750.634	9680.65	8795.6
910.4759	1752.3336	9645.95	8763.2
910.6168	1754.0325	9613	8733
910.7576	1755.7307	9627.2	8743.9
910.8984	1757.4281	9619.45	8737.35
911.0392	1759.1247	9621.45	8728.5
911.18	1760.8206	9576.4	8688.1
911.3208	1762.5158	9568.35	8682
911.4615	1764.2102	9536.4	8656.15
911.6022	1765.9039	9504.6	8621
911.7429	1767.5968	9472.25	8589.6
911.8836	1769.289	9490.85	8609.25
912.0243	1770.9804	9445.4	8562.15
912.1649	1772.6711	9424.1	8540.45
912.3056	1774.361	9403.95	8521.45
912.4462	1776.0502	9407.05	8523.95
912.5868	1777.7386	9375.1	8490
912.7274	1779.4263	9366.95	8484.9
912.8679	1781.1132	9349.6	8470.25
913.0084	1782.7994	9309.35	8427.3
913.149	1784.4849	9289.95	8407.8
913.2895	1786.1696	9272.5	8370.9
913.4299	1787.8535	9226.15	8344.85
913.5704	1789.5367	9188.55	8306.7
913.7108	1791.2192	9192.2	8309.7
913.8513	1792.9009	9174.4	8274.5
913.9917	1794.5818	9135.35	8249.75
914.132	1796.2621	9126.35	8245.9
914.2724	1797.9415	9119	8235.95
914.4128	1799.6202	9063.45	8182.15
914.5531	1801.2982	9065.45	8181.75
914.6934	1802.9755	9036.65	8152.6
914.8337	1804.6519	9016.65	8134.95
914.9739	1806.3277	8967.15	8084.3
915.1142	1808.0027	8928.4	8046.55
915.2544	1809.6769	8921.15	8040
915.3946	1811.3504	8936.5	8051
915.5348	1813.0231	8895.45	8012.45
915.675	1814.6951	8895.55	8014.6
915.8151	1816.3664	8869	7984.45
915.9553	1818.0369	8862.9	7982.05
916.0954	1819.7067	8832.65	7950.25
916.2355	1821.3757	8792.85	7910.25
916.3755	1823.044	8786.75	7905.5
916.5156	1824.7115	8785.7	7903.2
916.6556	1826.3783	8736.85	7854.85
916.7956	1828.0443	8724.9	7842.35
916.9356	1829.7096	8697.6	7813.7
917.0756	1831.3741	8704.15	7816.9
917.2155	1833.0379	8693.5	7810.1
917.3555	1834.701	8651.45	7767.85
917.4954	1836.3633	8642.3	7760
917.6353	1838.0248	8619.55	7735
917.7751	1839.6856	8598.8	7717.1
917.915	1841.3457	8561.9	7678.85
918.0548	1843.005	8533.15	7652.1
918.1946	1844.6636	8541.1	7661.2
918.3344	1846.3214	8509.15	7626.65
918.4742	1847.9785	8498.5	7617.75
918.6139	1849.6349	8483.55	7598.8
918.7537	1851.2904	8458.85	7569
918.8934	1852.9453	8437.55	7554.5
919.0331	1854.5994	8426.5	7541.6
919.1727	1856.2528	8410.95	7524.65
919.3124	1857.9054	8386.75	7503.45
919.452	1859.5572	8348.45	7467.6
919.5916	1861.2083	8345.35	7461.75
919.7312	1862.8587	8344.45	7460.6
919.8708	1864.5084	8333.3	7452.6
920.0103	1866.1572	8331.1	7450.25
920.1498	1867.8054	8256.45	7372.85
920.2893	1869.4528	8237.3	7354.25
920.4288	1871.0994	8210.4	7327.4
920.5683	1872.7453	8198	7314
920.7077	1874.3905	8187.9	7298.6
920.8471	1876.0349	8166.5	7282.2
920.9865	1877.6786	8156.5	7272.4
921.1259	1879.3215	8165.8	7282.7
921.2653	1880.9637	8132.9	7248.9
921.4046	1882.6051	8145.95	7261.4
921.5439	1884.2458	8117.4	7232.4
921.6832	1885.8858	8099.1	7217.4
921.8225	1887.525	8056.35	7171.75
921.9617	1889.1634	8013.15	7132.75
922.101	1890.8011	8011.85	7129.45
922.2402	1892.4381	8004.95	7122.55
922.3794	1894.0743	7994.45	7111.3
922.5185	1895.7098	7971.7	7090.9
922.6577	1897.3446	7955.95	7071.25
922.7968	1898.9786	7939	7052.25
922.9359	1900.6118	7908.95	7028.05
923.075	1902.2443	7889.7	7006.35
923.214	1903.8761	7859.7	6977.9
923.3531	1905.5071	7815.55	6930.85
923.4921	1907.1374	7810.15	6928.05
923.6311	1908.7669	7801.1	6918.6
923.77	1910.3957	7806.65	6923.95
923.909	1912.0237	7761.75	6878.9
924.0479	1913.651	7732.7	6849.5
924.1868	1915.2776	7707.05	6824.95
924.3257	1916.9034	7693.35	6811.05
924.4646	1918.5285	7669.4	6787.4
924.6034	1920.1528	7613.3	6729.65
924.7422	1921.7764	7618.4	6735.05
924.881	1923.3992	7622.2	6740.75
925.0198	1925.0213	7557.35	6676.25
925.1586	1926.6427	7511	6629.95
925.2973	1928.2633	7665.65	6572.75
925.436	1929.8832	7512	6626.2
925.5747	1931.5023	7479.95	6595.55
925.7134	1933.1207	7442	6559.4
925.852	1934.7383	7445.25	6560.45
925.9906	1936.3552	7420.3	6539.35
926.1292	1937.9714	7392.15	6508.6
926.2678	1939.5868	7373.9	6491.35
926.4064	1941.2015	7324.6	6440.65
926.5449	1942.8154	7317	6435.05
926.6834	1944.4286	7290.45	6406.5
926.8219	1946.041	7269.95	6365.9
926.9604	1947.6528	7211.7	6323.25
927.0988	1949.2637	7211.5	6329.2
927.2372	1950.8739	7198.55	6315.45
927.3756	1952.4834	7188.25	6305.25
927.514	1954.0921	7166.15	6284.15
927.6523	1955.7001	7142.4	6256.2
927.7907	1957.3074	7136.45	6256.6
927.929	1958.9139	7094.8	6214.75
928.0673	1960.5197	7069.5	6187.6
928.2055	1962.1247	7047.45	6166
928.3438	1963.729	7011	6131.05
928.482	1965.3325	7026.8	6121
928.6202	1966.9353	7004.1	6124.25
928.7584	1968.5374	6989.9	6106.95
928.8965	1970.1387	6952.45	6071.7
929.0346	1971.7393	6942.55	6058.75
929.1727	1973.3392	6928.95	6047.8
929.3108	1974.9383	6910.45	6030.45
929.4489	1976.5366	6871.05	5991.25
929.5869	1978.1342	6861.75	5980.9
929.7249	1979.7311	6857.3	5973.4
929.8629	1981.3273	6827.1	5945.9
930.0009	1982.9227	6819.4	5937.65
930.1388	1984.5173	6801.05	5919.25
930.2767	1986.1112	6777.7	5896.4
930.4146	1987.7044	6763.6	5882.2
930.5525	1989.2968	6745.85	5864.6
930.6904	1990.8885	6711.45	5826
930.8282	1992.4795	6712	5830.6
930.966	1994.0697	6687.55	5806.2
931.1038	1995.6592	6682.5	5801.85
931.2415	1997.2479	6665	5783.95
931.3793	1998.8359	6641.45	5758.95
931.517	2000.4232	6617.4	5738.4
931.6547	2002.0097	6594.2	5715.8
931.7923	2003.5955	6578.8	5698.9
931.93	2005.1805	6592.3	5712.15
932.0676	2006.7648	6565.6	5685.2
932.2052	2008.3484	6543.85	5659
932.3427	2009.9312	6555.55	5672.85
932.4803	2011.5133	6509.35	5629.7
932.6178	2013.0946	6493.6	5612.75
932.7553	2014.6752	6483.15	5606.05
932.8928	2016.2551	6485.65	5604.2
933.0302	2017.8342	6428.3	5547.8
933.1676	2019.4126	6410.45	5530.25
933.305	2020.9902	6407.15	5527.55
933.4424	2022.5672	6401.85	5521.9
933.5798	2024.1433	6385.6	5499.2
933.7171	2025.7188	6360.4	5482.15
933.8544	2027.2935	6362.05	5479.6
933.9917	2028.8674	6342.35	5463.2
934.129	2030.4406	6317.05	5439
934.2662	2032.0131	6290.9	5411.1
934.4034	2033.5849	6275.3	5389.55
934.5406	2035.1559	6259.5	5379.55
934.6778	2036.7261	6265.25	5384.95
934.8149	2038.2957	6256.45	5376.85
934.952	2039.8645	6231.3	5349.55
935.0891	2041.4325	6236.15	5352.35
935.2262	2042.9998	6237.55	5358.25
935.3632	2044.5664	6213.8	5329.25
935.5002	2046.1323	6215.3	5337.05
935.6372	2047.6974	6197.8	5315.2
935.7742	2049.2617	6182.45	5304.2
935.9111	2050.8254	6210.2	5307
936.048	2052.3883	6171.3	5288.3
936.1849	2053.9504	6140.5	5258.3
936.3218	2055.5118	6129.5	5246.75
936.4586	2057.0725	6127.6	5243.45
936.5955	2058.6325	6107	5227.5
936.7323	2060.1917	6069.85	5188.65
936.869	2061.7502	6068.2	5184.6
937.0058	2063.3079	6068.95	5190.2
937.1425	2064.8649	6046.75	5162.65
937.2792	2066.4212	6048.6	5167.85
937.4159	2067.9767	6044.05	5162.85
937.5525	2069.5315	6026.65	5146.85
937.6891	2071.0856	5999	5117
937.8257	2072.6389	5981.4	5099.7
937.9623	2074.1915	5952.05	5074.65
938.0989	2075.7433	5934.55	5050.7
938.2354	2077.2945	5914.45	5036
938.3719	2078.8448	5905.75	5024.55
938.5084	2080.3945	5888.35	5008.9
938.6448	2081.9434	5879.75	4996.9
938.7812	2083.4916	5865.6	4985.35
938.9176	2085.039	5870.75	4988.8
939.054	2086.5857	5853.65	4970.9
939.1903	2088.1317	5833.8	4954.6
939.3267	2089.677	5832.95	4952.25
939.463	2091.2215	5821.2	4940.3
939.5992	2092.7652	5787.55	4904.65
939.7355	2094.3083	5791.1	4907.95
939.8717	2095.8506	5799.9	4919.75
940.0079	2097.3921	5780.6	4900.55
940.1441	2098.933	5759.75	4878.25
940.2802	2100.4731	5753.1	4872.6
940.4163	2102.0124	5773.25	4875.45
940.5524	2103.5511	5741.35	4859.7
940.6885	2105.089	5737.6	4856.1
940.8245	2106.6261	5707.15	4825.4
940.9606	2108.1626	5701.7	4818.85
941.0965	2109.6983	5721.65	4811.75
941.2325	2111.2332	5699.75	4819.65
941.3684	2112.7675	5692.55	4811.45
941.5044	2114.301	5674.25	4790.65
941.6403	2115.8337	5679.95	4799.5
941.7761	2117.3657	5664.05	4784.45
941.912	2118.897	5655.35	4772.35
942.0478	2120.4276	5637.35	4752.1
942.1835	2121.9575	5611.35	4729.2
942.3193	2123.4866	5615.35	4732.15
942.455	2125.0149	5603.5	4720.95
942.5907	2126.5426	5586.7	4706.3
942.7264	2128.0695	5576.8	4693.55
942.8621	2129.5956	5540	4661.9
942.9977	2131.1211	5546.75	4659.55
943.1333	2132.6458	5549.15	4668.85
943.2689	2134.1698	5522.1	4639.8
943.4044	2135.693	5490.25	4606.4
943.54	2137.2155	5513.7	4628.15
943.6755	2138.7373	5492.2	4611.9
943.8109	2140.2584	5484.4	4603.55
943.9464	2141.7787	5456.9	4571.95
944.0818	2143.2983	5432.4	4552.95
944.2172	2144.8171	5433.15	4554.35
944.3526	2146.3353	5408.2	4525.15
944.4879	2147.8527	5405.8	4527.55
944.6232	2149.3693	5401.3	4519.6
944.7585	2150.8853	5388.05	4504.85
944.8938	2152.4005	5348.65	4469.25
945.029	2153.9149	5365.95	4482.75
945.1642	2155.4287	5344.5	4464.65
945.2994	2156.9417	5345.15	4460.8
945.4346	2158.454	5321.5	4438.9
945.5697	2159.9655	5322.55	4443.25
945.7048	2161.4764	5300.75	4421.65
945.8399	2162.9865	5279.4	4398.35
945.9749	2164.4958	5260.25	4380.2
946.1099	2166.0045	5254.05	4371.45
946.2449	2167.5124	5256.6	4376.1
946.3799	2169.0195	5237.05	4355.15
946.5148	2170.526	5235.25	4353.3
946.6498	2172.0317	5210.05	4330.5
946.7846	2173.5367	5212.3	4329.9
946.9195	2175.0409	5200.75	4321.7
947.0543	2176.5445	5197.8	4318.3
947.1891	2178.0473	5166	4285.6
947.3239	2179.5494	5169.5	4283.85
947.4587	2181.0507	5135.2	4254.95
947.5934	2182.5513	5135.45	4254.65
947.7281	2184.0512	5104.85	4223.95
947.8628	2185.5504	5101.9	4221.6
947.9974	2187.0488	5091.4	4210.7
948.132	2188.5465	5087.85	4206.35
948.2666	2190.0435	5065.55	4184.7
948.4012	2191.5397	5047.85	4167.7
948.5357	2193.0353	5030.7	4151.55
948.6702	2194.5301	5005.6	4123.4
948.8047	2196.0241	5002.75	4122.7
948.9392	2197.5175	4999.45	4119.75
949.0736	2199.0101	4965.2	4081.1
949.208	2200.502	4938.75	4058.3
949.3424	2201.9931	4928.95	4047.9
949.4767	2203.4835	4910.7	4029
949.611	2204.9733	4906.55	4019.3
949.7453	2206.4622	4905.85	4024.4
949.8796	2207.9505	4901.3	4018.4
950.0138	2209.438	4870.45	3992.6
950.148	2210.9248	4851.3	3968.1
950.2822	2212.4109	4848.4	3969.25
950.4164	2213.8962	4839.95	3955.6
950.5505	2215.3809	4839.4	3959.7
950.6846	2216.8648	4820.45	3938.25
950.8186	2218.3479	4808.35	3921.7
950.9527	2219.8304	4791.65	3908.15
951.0867	2221.3121	4773.85	3889.95
951.2207	2222.7931	4755.05	3874.7
951.3546	2224.2733	4747.9	3865.85
951.4886	2225.7529	4727.85	3846.4
951.6225	2227.2317	4720.95	3837.9
951.7563	2228.7098	4706.1	3827.3
951.8902	2230.1872	4685.2	3806.05
952.024	2231.6638	4695.05	3814.75
952.1578	2233.1397	4681.3	3793.1
952.2916	2234.6149	4666.5	3785.7
952.4253	2236.0894	4640.3	3759.95
952.559	2237.5632	4648	3764.15
952.6927	2239.0362	4629.75	3748.8
952.8263	2240.5085	4619.9	3737.9
952.9599	2241.9801	4600.7	3719.95
953.0935	2243.4509	4597.3	3718.05
953.2271	2244.921	4579.25	3697
953.3606	2246.3904	4550.05	3665.75
953.4941	2247.8591	4544.05	3664.1
953.6276	2249.3271	4538.6	3659.3
953.7611	2250.7943	4527.9	3645.35
953.8945	2252.2608	4507.65	3626.25
954.0279	2253.7266	4500.7	3619.95
954.1612	2255.1917	4488.05	3606.95
954.2946	2256.656	4484.95	3603.05
954.4279	2258.1197	4465.5	3584.7
954.5612	2259.5826	4471.7	3589.3
954.6944	2261.0447	4444.35	3561.65
954.8276	2262.5062	4423.6	3538.9
954.9608	2263.9669	4418.6	3536
955.094	2265.4269	4426.6	3547.85
955.2271	2266.8862	4397.05	3515.4
955.3602	2268.3448	4403.8	3523.8
955.4933	2269.8026	4388.5	3508.15
955.6264	2271.2598	4374.85	3493.6
955.7594	2272.7162	4367.65	3490
955.8924	2274.1719	4339.95	3458.55
956.0253	2275.6268	4341.85	3461.75
956.1583	2277.0811	4323.5	3443.25
956.2912	2278.5346	4317.85	3437.35
956.4241	2279.9874	4318.55	3437.75
956.5569	2281.4395	4314.15	3434.55
956.6897	2282.8908	4291.6	3407.05
956.8225	2284.3414	4302.35	3421.9
956.9553	2285.7914	4289.2	3408.8
957.088	2287.2406	4262.55	3380.85
957.2207	2288.689	4260.5	3379.7
957.3534	2290.1368	4253.85	3370.15
957.486	2291.5838	4220.1	3336.45
957.6186	2293.0302	4223.95	3341.65
957.7512	2294.4758	4185.85	3305.6
957.8838	2295.9206	4190.9	3306.2
958.0163	2297.3648	4179.35	3298.8
958.1488	2298.8082	4178.55	3296.45
958.2813	2300.251	4168.85	3288.75
958.4137	2301.693	4156.35	3271.45
958.5461	2303.1343	4145.05	3262.25
958.6785	2304.5748	4142.6	3260.55
958.8108	2306.0147	4118.8	3239.7
958.9432	2307.4538	4111.15	3227.05
959.0754	2308.8922	4099.05	3220.65
959.2077	2310.3299	4097.45	3216.5
959.3399	2311.7669	4074.4	3194.95
959.4721	2313.2031	4070.25	3189.6
959.6043	2314.6387	4056.75	3174.85
959.7365	2316.0735	4060.65	3179.75
959.8686	2317.5076	4032.85	3150.6
960.0006	2318.941	4018.5	3136.55
960.1327	2320.3737	4027.55	3144.85
960.2647	2321.8056	4023.1	3141.65
960.3967	2323.2369	4009.1	3127.55
960.5287	2324.6674	3999.6	3117.7
960.6606	2326.0972	3993.95	3111.15
960.7925	2327.5263	3977.75	3097.75
960.9244	2328.9547	3971.05	3087.4
961.0562	2330.3823	3950.9	3069.55
961.1881	2331.8092	3957.65	3073.85
961.3198	2333.2355	3922.7	3040.55
961.4516	2334.661	3928.8	3047.65
961.5833	2336.0858	3918.55	3034.45
961.715	2337.5098	3888.8	3006.95
961.8467	2338.9332	3894.35	3011.9
961.9783	2340.3558	3879.4	2995.55
962.1099	2341.7778	3881.4	2997.85
962.2415	2343.199	3857.55	2975.3
962.373	2344.6195	3849.6	2968.25
962.5045	2346.0393	3841.05	2960
962.636	2347.4583	3849.15	2968.2
962.7675	2348.8767	3844	2962.45
962.8989	2350.2943	3820.35	2937.3
963.0303	2351.7113	3805.9	2922.2
963.1617	2353.1275	3804.95	2923
963.293	2354.543	3795.55	2906.9
963.4243	2355.9578	3781.7	2898.6
963.5556	2357.3718	3766.8	2888.35
963.6868	2358.7852	3749.5	2863.9
963.818	2360.1978	3746.6	2862.1
963.9492	2361.6098	3741.65	2859.4
964.0803	2363.021	3734.7	2849.25
964.2114	2364.4315	3729.25	2848.55
964.3425	2365.8413	3716.55	2828.15
964.4736	2367.2504	3711.65	2830.95
964.6046	2368.6587	3689.95	2807.15
964.7356	2370.0664	3666.7	2786.6
964.8666	2371.4733	3654.6	2773.55
964.9975	2372.8795	3651.95	2771.4
965.1284	2374.285	3642.25	2760.7
965.2593	2375.6899	3627.4	2746.2
965.3901	2377.0939	3620.9	2739.25
965.5209	2378.4973	3598.85	2717.2
965.6517	2379.9	3602.4	2719.4
965.7825	2381.3019	3586.95	2705.8
965.9132	2382.7032	3578	2696.7
966.0439	2384.1037	3570.1	2692.25
966.1745	2385.5035	3564.05	2682.3
966.3051	2386.9027	3546.45	2666.65
966.4357	2388.3011	3564.95	2680.15
966.5663	2389.6987	3536.85	2655.55
966.6968	2391.0957	3524.9	2643.6
966.8273	2392.492	3527.35	2645.45
966.9578	2393.8876	3496.95	2614.2
967.0882	2395.2824	3498.95	2615.6
967.2186	2396.6765	3472.5	2589.75
967.349	2398.07	3444.9	2562.3
967.4793	2399.4627	3465.5	2581
967.6097	2400.8547	3453.4	2570.95
967.7399	2402.246	3447.15	2562.6
967.8702	2403.6366	3428.85	2545
968.0004	2405.0265	3408.7	2527.5
968.1306	2406.4156	3392.6	2506.7
968.2607	2407.8041	3390.7	2506.9
968.3909	2409.1918	3381.95	2499.05
968.521	2410.5789	3369.1	2487.6
968.651	2411.9652	3357.5	2471.1
968.781	2413.3508	3364.55	2482.55
968.911	2414.7358	3335.05	2450.75
969.041	2416.12	3325.7	2443.9
969.1709	2417.5035	3315.95	2435.15
969.3008	2418.8863	3306.2	2423.65
969.4307	2420.2684	3293.95	2412.1
969.5606	2421.6497	3274.15	2390.95
969.6904	2423.0304	3274.3	2393.35
969.8201	2424.4104	3274.6	2391.4
969.9499	2425.7896	3257.45	2372.3
970.0796	2427.1682	3246.75	2365.4
970.2093	2428.546	3250.65	2365.45
970.3389	2429.9232	3240.3	2357.3
970.4685	2431.2996	3240.15	2359.35
970.5981	2432.6753	3228.7	2347.15
970.7277	2434.0503	3223.05	2338.7
970.8572	2435.4246	3203.95	2322.95
970.9867	2436.7982	3205.65	2321.8
971.1161	2438.1711	3189.55	2308.55
971.2456	2439.5433	3189.4	2307.9
971.375	2440.9148	3168.8	2281.45
971.5043	2442.2856	3148.35	2267.2
971.6336	2443.6557	3159	2275.95
971.7629	2445.025	3140.95	2257.5
971.8922	2446.3937	3142.9	2259.95
972.0214	2447.7617	3137.6	2254.75
972.1506	2449.1289	3118.8	2236.35
972.2798	2450.4955	3113.75	2228.4
972.4089	2451.8613	3104.2	2223.85
972.538	2453.2265	3093.4	2213.3
972.6671	2454.5909	3105.15	2223.1
972.7961	2455.9546	3082.7	2200.8
972.9251	2457.3177	3077.05	2194.95
973.0541	2458.68	3071	2189.45
973.1831	2460.0416	3063.4	2180.75
973.312	2461.4025	3070.2	2187.25
973.4408	2462.7627	3066.95	2171.95
973.5697	2464.1222	3057.5	2177.5
973.6985	2465.4811	3034.65	2153.2
973.8273	2466.8392	3038.7	2156.65
973.956	2468.1966	3048.25	2163.35
974.0847	2469.5533	3027.05	2142.85
974.2134	2470.9093	3022.55	2140.95
974.3421	2472.2645	3003.95	2118.9
974.4707	2473.6191	2996.25	2114.55
974.5993	2474.973	2984.15	2101.5
974.7278	2476.3262	2996.25	2111.55
974.8563	2477.6787	2970.2	2087
974.9848	2479.0305	2965	2082.65
975.1132	2480.3816	2959.55	2075
975.2417	2481.7319	2946.2	2065.45
975.37	2483.0816	2935.45	2050.5
975.4984	2484.4306	2931.75	2050.4
975.6267	2485.7789	2926.45	2045.05
975.755	2487.1264	2919.4	2035.65
975.8833	2488.4733	2894.8	2014.15
976.0115	2489.8195	2896.7	2006.1
976.1397	2491.165	2901.35	2015.8
976.2678	2492.5097	2882.75	1997.9
976.3959	2493.8538	2860.7	1980.55
976.524	2495.1972	2859.2	1977.85
976.6521	2496.5398	2864.05	1981.7
976.7801	2497.8818	2847.2	1963.7
976.9081	2499.2231	2834.9	1953.2
977.036	2500.5637	2834.85	1951.6
977.164	2501.9035	2839.2	1957
977.2918	2503.2427	2826.5	1940.4
977.4197	2504.5812	2804.65	1923.7
977.5475	2505.919	2818.9	1935.05
977.6753	2507.256	2812.1	1930.6
977.8031	2508.5924	2791.65	1910.1
977.9308	2509.9281	2792.05	1905.65
978.0585	2511.2631	2774	1893.6
978.1861	2512.5974	2761.45	1879.75
978.3137	2513.9309	2760.3	1880.3
978.4413	2515.2638	2772.25	1865.15
978.5689	2516.596	2754.95	1874.6
978.6964	2517.9275	2735.75	1851.9
978.8239	2519.2583	2733.35	1850.75
978.9513	2520.5884	2730	1846.95
979.0788	2521.9178	2719.6	1838.05
979.2062	2523.2465	2704.25	1823.4
979.3335	2524.5745	2699.4	1817.4
979.4608	2525.9018	2690.9	1809.8
979.5881	2527.2284	2696.95	1816.2
979.7154	2528.5543	2685.4	1804.1
979.8426	2529.8796	2680.2	1798
979.9698	2531.2041	2672.1	1791.1
980.0969	2532.5279	2671.15	1792.2
980.224	2533.851	2668.55	1785.75
980.3511	2535.1735	2659.15	1775.45
980.4781	2536.4952	2650.15	1767.8
980.6052	2537.8163	2648.1	1766.55
980.7321	2539.1366	2630.9	1751.8
980.8591	2540.4562	2626.15	1742.1
980.986	2541.7752	2628.3	1748.35
981.1129	2543.0935	2629.4	1746.85
981.2397	2544.411	2616.7	1733.65
981.3665	2545.7279	2601.6	1719.8
981.4933	2547.0441	2609.55	1727.6
981.62	2548.3596	2607.9	1722.95
981.7467	2549.6744	2602.75	1722.7
981.8734	2550.9885	2591.35	1702.1
982.0001	2552.3019	2583.25	1702.9
982.1267	2553.6146	2591.65	1707.4
982.2532	2554.9266	2574.2	1693.05
982.3798	2556.2379	2562.9	1678.75
982.5063	2557.5485	2566.15	1686.95
982.6327	2558.8585	2567.05	1676.8
982.7592	2560.1677	2563.8	1678.15
982.8856	2561.4762	2544.65	1663.9
983.0119	2562.7841	2545.35	1660.45
983.1383	2564.0913	2545.05	1663.45
983.2646	2565.3977	2536.95	1655.55
983.3908	2566.7035	2526.6	1645.4
983.517	2568.0086	2533.95	1651.6
983.6432	2569.313	2531.45	1649.35
983.7694	2570.6167	2530.8	1644.75
983.8955	2571.9197	2521.2	1641.3
984.0216	2573.222	2520.75	1635.85
984.1476	2574.5236	2500.35	1617.3
984.2737	2575.8246	2507.7	1625.35
984.3996	2577.1248	2494	1608.45
984.5256	2578.4244	2495	1614.5
984.6515	2579.7232	2496.4	1615.4
984.7774	2581.0214	2520.75	1615.95
984.9032	2582.3189	2483.15	1603.85
985.029	2583.6157	2477.65	1591.25
985.1548	2584.9118	2475.65	1592.3
985.2806	2586.2072	2469.95	1588.6
985.4063	2587.5019	2454.65	1572.1
985.5319	2588.7959	2450.95	1569.5
985.6576	2590.0893	2457.45	1573.6
985.7832	2591.3819	2452.35	1572.45
985.9087	2592.6739	2428.05	1546.5
986.0343	2593.9652	2438.1	1555.8
986.1597	2595.2557	2422.35	1540.3
986.2852	2596.5456	2409.4	1526
986.4106	2597.8348	2402.15	1521.3
986.536	2599.1234	2390.6	1510.95
986.6614	2600.4112	2408.45	1527.95
986.7867	2601.6983	2397.1	1511
986.912	2602.9848	2389.95	1509.15
987.0372	2604.2705	2383.8	1498
987.1624	2605.5556	2363.1	1482.2
987.2876	2606.84	2369.65	1486.7
987.4128	2608.1237	2359.85	1477.95
987.5379	2609.4067	2349.2	1467.2
987.6629	2610.689	2357.45	1466.45
987.788	2611.9707	2350.35	1465.85
987.913	2613.2516	2337.3	1451.2
988.0379	2614.5319	2327.75	1448.05
988.1629	2615.8115	2314.25	1432.1
988.2878	2617.0903	2313.25	1429.45
988.4126	2618.3685	2305.7	1426.2
988.5375	2619.6461	2320.1	1438.9
988.6622	2620.9229	2294.55	1414.05
988.787	2622.199	2297.75	1414.9
988.9117	2623.4745	2281.6	1399.4
989.0364	2624.7493	2274.15	1392.6
989.161	2626.0234	2272.15	1391.65
989.2857	2627.2968	2272.05	1390.55
989.4102	2628.5695	2265.25	1380.2
989.5348	2629.8415	2254.7	1373.3
989.6593	2631.1128	2241.1	1356.75
989.7837	2632.3835	2235.85	1354.95
989.9082	2633.6535	2234	1353.65
990.0326	2634.9228	2223.7	1342.85
990.1569	2636.1914	2214.5	1332.45
990.2812	2637.4593	2230.65	1342.5
990.4055	2638.7265	2219.5	1337.75
990.5298	2639.9931	2212.15	1332.2
990.654	2641.259	2213.1	1328.45
990.7782	2642.5242	2202.7	1320.75
990.9023	2643.7887	2187.7	1306.05
991.0264	2645.0525	2189.3	1307.85
991.1505	2646.3156	2179.95	1298.25
991.2745	2647.5781	2175.3	1294.05
991.3985	2648.8398	2174.2	1294
991.5225	2650.1009	2178.1	1265.2
991.6464	2651.3613	2166.8	1286.25
991.7703	2652.6211	2157.35	1274
991.8942	2653.8801	2153.9	1272.9
992.018	2655.1385	2144.7	1259.2
992.1418	2656.3961	2145.25	1265.75
992.2655	2657.6531	2139.3	1257.75
992.3892	2658.9094	2137.7	1256.1
992.5129	2660.1651	2130.3	1249.3
992.6366	2661.42	2123.35	1241.85
992.7602	2662.6743	2125.4	1241.85
992.8837	2663.9279	2116.4	1235.45
993.0073	2665.1808	2108.25	1225.95
993.1307	2666.433	2114.4	1232.1
993.2542	2667.6846	2111.6	1231.85
993.3776	2668.9354	2111.25	1226.05
993.501	2670.1856	2096.3	1214.55
993.6244	2671.4351	2085.65	1205
993.7477	2672.6839	2099.65	1216.25
993.8709	2673.9321	2084	1202.25
993.9942	2675.1795	2081.6	1199.75
994.1174	2676.4263	2082.75	1201.6
994.2405	2677.6724	2061.45	1183.2
994.3637	2678.9179	2068.2	1188.45
994.4868	2680.1626	2058.5	1178.85
994.6098	2681.4067	2062.65	1180.9
994.7328	2682.6501	2050.3	1170.65
994.8558	2683.8928	2056.35	1173.85
994.9788	2685.1348	2045.25	1164.25
995.1017	2686.3761	2036.7	1156.65
995.2245	2687.6168	2031.3	1146.95
995.3474	2688.8568	2032.1	1149.95
995.4702	2690.0961	2020.9	1140.35
995.5929	2691.3348	2020.15	1139.45
995.7156	2692.5727	2014.8	1131.65
995.8383	2693.81	2010.1	1128.9
995.961	2695.0466	2014.6	1135.65
996.0836	2696.2826	2008.5	1126.45
996.2062	2697.5178	2012.7	1109.65
996.3287	2698.7524	1995.05	1114.85
996.4512	2699.9863	1999.75	1115.7
996.5737	2701.2195	1986.4	1105.25
996.6961	2702.452	1985.15	1102.15
996.8185	2703.6839	1984.7	1103.15
996.9408	2704.9151	1982.9	1104.05
997.0631	2706.1456	1970.9	1088.8
997.1854	2707.3755	1965.7	1085.1
997.3077	2708.6046	1972.55	1090.55
997.4299	2709.8331	1959.6	1077
997.552	2711.0609	1951.5	1070.95
997.6742	2712.2881	1949.3	1065.95
997.7963	2713.5145	1942.65	1059.25
997.9183	2714.7403	1938.95	1059.35
998.0403	2715.9654	1935.95	1055.15
998.1623	2717.1899	1944.9	1050
998.2842	2718.4136	1928.1	1047.45
998.4062	2719.6367	1917.95	1035.85
998.528	2720.8591	1924.1	1036.55
998.6498	2722.0809	1919.85	1039.8
998.7716	2723.3019	1908.1	1023.55
998.8934	2724.5223	1906.6	1023.3
999.0151	2725.7421	1914.7	1032.85
999.1368	2726.9611	1896.55	1015.15
999.2584	2728.1795	1894.5	1008.1
999.38	2729.3972	1890.9	1008.7
999.5016	2730.6142	1897.15	1003.7
999.6231	2731.8306	1874.2	992.75
999.7446	2733.0462	1874.8	989.95
999.8661	2734.2612	1859.55	971.55
999.9875	2735.4756	1861.5	978.1
1000.1089	2736.6892	1847.9	966.2
1000.2302	2737.9022	1853.8	974.35
1000.3515	2739.1145	1851	970.3
1000.4728	2740.3262	1840.75	949.15
1000.594	2741.5372	1835.35	955.8
1000.7152	2742.7475	1832.05	951.6
1000.8363	2743.9571	1825.9	944.15
1000.9575	2745.1661	1826.8	940.7
1001.0785	2746.3744	1823.05	941.85
1001.1996	2747.582	1808.45	927
1001.3206	2748.7889	1804.05	920.6
1001.4415	2749.9952	1815.35	933.5
1001.5625	2751.2008	1807.5	925.55
1001.6833	2752.4057	1807.5	924.35
1001.8042	2753.61	1797.6	915.9
1001.925	2754.8136	1796.75	914.05
1002.0458	2756.0165	1789.55	908.6
1002.1665	2757.2188	1786.2	905.2
1002.2872	2758.4204	1779.7	898.45
1002.4078	2759.6213	1782.9	898.6
1002.5285	2760.8215	1778.2	893.05
1002.649	2762.0211	1765.05	882.8
1002.7696	2763.22	1764.4	881.35
1002.8901	2764.4182	1764.55	880.9
1003.0106	2765.6158	1770.45	889.35
1003.131	2766.8127	1763.1	880.55
1003.2514	2768.009	1746.7	866.3
1003.3717	2769.2045	1755.45	874.3
1003.492	2770.3994	1747.8	865.3
1003.6123	2771.5936	1739.8	856.25
1003.7325	2772.7872	1738.3	856.95
1003.8527	2773.9801	1734.75	851.9
1003.9729	2775.1723	1743.25	845.7
1004.093	2776.3639	1728.7	850.2
1004.2131	2777.5548	1721.75	838.4
1004.3331	2778.745	1718.25	838
1004.4531	2779.9346	1714.35	832.55
1004.5731	2781.1235	1711.25	829.3
1004.693	2782.3117	1709.7	829
1004.8129	2783.4992	1703.5	823.05
1004.9328	2784.6861	1703.35	821.85
1005.0526	2785.8723	1710.9	828.6
1005.1723	2787.0579	1699.1	816.85
1005.2921	2788.2428	1687.95	806.95
1005.4118	2789.427	1694.4	812.5
1005.5314	2790.6106	1672.95	792
1005.651	2791.7935	1676.55	793.05
1005.7706	2792.9757	1675.1	794.55
1005.8902	2794.1573	1671.9	789.4
1006.0097	2795.3382	1669.9	786.8
1006.1291	2796.5184	1670.1	790.8
1006.2485	2797.698	1663.2	780.55
1006.3679	2798.8769	1653.15	773.1
1006.4873	2800.0551	1660.6	781.1
1006.6066	2801.2327	1650.25	767.25
1006.7258	2802.4096	1650.8	771.65
1006.8451	2803.5859	1646.95	763.7
1006.9642	2804.7615	1641.7	759.05
1007.0834	2805.9364	1639.35	759
1007.2025	2807.1106	1640.2	759.05
1007.3216	2808.2842	1634.35	753.1
1007.4406	2809.4572	1625.3	745
1007.5596	2810.6294	1628.4	746.9
1007.6785	2811.801	1625.55	746.3
1007.7975	2812.972	1622.4	743.1
1007.9163	2814.1423	1623.85	743.25
1008.0352	2815.3119	1625.95	745.15
1008.154	2816.4808	1621.5	743.45
1008.2727	2817.6491	1623.1	739.9
1008.3914	2818.8167	1621.95	742
1008.5101	2819.9837	1634.5	746.65
1008.6288	2821.15	1633.4	752.65
1008.7474	2822.3157	1625.2	746
1008.8659	2823.4807	1627.8	747.65
1008.9844	2824.645	1638.6	755.45
1009.1029	2825.8086	1638.9	759.05
1009.2214	2826.9716	1638.15	757.65
1009.3398	2828.134	1647.6	767.7
1009.4581	2829.2957	1657.05	776.2
1009.5764	2830.4567	1662.95	783.7
1009.6947	2831.617	1653.25	773
1009.813	2832.7767	1659.2	778.2
1009.9312	2833.9358	1654.65	773.85
1010.0493	2835.0941	1659.95	778.75
1010.1675	2836.2519	1641.8	761.35
1010.2855	2837.4089	1642.25	762.5
1010.4036	2838.5653	1641	760.1
1010.5216	2839.7211	1636.95	756.7
1010.6396	2840.8761	1632.95	752.65
1010.7575	2842.0306	1628.8	750.25
1010.8754	2843.1843	1619.7	737.8
1010.9932	2844.3374	1621.3	741.4
1011.111	2845.4899	1623.05	739.95
1011.2288	2846.6417	1625.05	745.45
1011.3465	2847.7928	1620.85	740.25
1011.4642	2848.9433	1620.85	740.45
1011.5818	2850.0931	1615.45	734.4
1011.6995	2851.2422	1619.6	735
1011.817	2852.3907	1612.95	731.85
1011.9345	2853.5385	1613.05	730.6
1012.052	2854.6857	1624.65	734.5
1012.1695	2855.8323	1614.4	735.6
1012.2869	2856.9781	1606.2	725.55
1012.4042	2858.1233	1609.05	727.5
1012.5216	2859.2679	1604.45	722.8
1012.6389	2860.4118	1619.85	739.55
1012.7561	2861.555	1619.3	733.4
1012.8733	2862.6976	1613.25	729.65
1012.9905	2863.8395	1608.55	729.45
1013.1076	2864.9808	1603.1	721.2
1013.2247	2866.1214	1616.5	735.7
1013.3417	2867.2614	1614	733.85
1013.4587	2868.4007	1602.6	721.8
1013.5757	2869.5393	1604.2	720.5
1013.6926	2870.6773	1601.8	718
1013.8095	2871.8146	1608.2	724.7
1013.9263	2872.9513	1607.65	724.85
1014.0431	2874.0874	1603.1	724
1014.1599	2875.2227	1602.7	720.15
1014.2766	2876.3574	1604.8	725.2
1014.3933	2877.4915	1596.25	716.7
1014.51	2878.6249	1593.75	715.15
1014.6266	2879.7577	1597.1	716.7
1014.7431	2880.8898	1607.35	716.15
1014.8596	2882.0212	1596.85	717.2
1014.9761	2883.152	1591.1	709.4
1015.0925	2884.2821	1591.1	710.55
1015.2089	2885.4116	1591.9	710.15
1015.3253	2886.5405	1584.7	703.6
1015.4416	2887.6686	1595	710.75
1015.5579	2888.7962	1587.75	709.6
1015.6741	2889.923	1587.95	709.55
1015.7903	2891.0493	1580.7	699.65
1015.9065	2892.1748	1574.5	692.6
1016.0226	2893.2997	1577.1	696.25
1016.1387	2894.424	1570.65	691.3
1016.2547	2895.5476	1570.25	690.5
1016.3707	2896.6706	1568.55	688.95
1016.4866	2897.7929	1562.85	680.1
1016.6025	2898.9145	1560.3	679.45
1016.7184	2900.0355	1556.85	675.75
1016.8342	2901.1559	1551.4	671.4
1016.95	2902.2756	1555.55	673.9
1017.0658	2903.3946	1554.35	671.65
1017.1815	2904.513	1552.8	671.2
1017.2971	2905.6308	1543.4	661.6
1017.4127	2906.7479	1540.9	661.25
1017.5283	2907.8643	1540.95	658.4
1017.6439	2908.9801	1528.45	650
1017.7594	2910.0953	1531.6	650.55
1017.8748	2911.2098	1534.1	650.3
1017.9902	2912.3236	1533.85	647.2
1018.1056	2913.4368	1533.05	649.7
1018.2209	2914.5494	1515.65	634.15
1018.3362	2915.6613	1517.9	631.8
1018.4515	2916.7725	1513.15	628.6
1018.5667	2917.8831	1503	623
1018.6819	2918.9931	1513.65	632.35
1018.797	2920.1024	1503.3	621.95
1018.9121	2921.211	1500.65	619.4
1019.0271	2922.319	1490.75	609.55
1019.1421	2923.4264	1491.35	609.3
1019.2571	2924.5331	1488.1	608.1
1019.372	2925.6391	1488.45	606.95
1019.4869	2926.7445	1486.7	607.9
1019.6017	2927.8493	1489.6	609.2
1019.7165	2928.9534	1486	604.75
1019.8313	2930.0569	1482.25	599.65
1019.946	2931.1597	1480.2	598.55
1020.0606	2932.2619	1478.95	598.95
1020.1753	2933.3634	1478.6	596
1020.2899	2934.4643	1480.25	592.95
1020.4044	2935.5645	1488.65	603.05
1020.5189	2936.6641	1486.05	602
1020.6334	2937.763	1476.8	597.75
1020.7478	2938.8613	1468.5	587.7
1020.8622	2939.959	1474.9	586.6
1020.9765	2941.056	1468.4	590.1
1021.0908	2942.1523	1458	574.5
1021.2051	2943.248	1452.25	571.05
1021.3193	2944.3431	1440.4	559.1
1021.4334	2945.4375	1434.4	553.6
1021.5476	2946.5313	1419.8	541.35
1021.6617	2947.6244	1417.75	535.9
1021.7757	2948.7169	1409.55	529.2
1021.8897	2949.8087	1407.6	526.2
1022.0037	2950.8999	1393.1	510.9
1022.1176	2951.9904	1386.6	507.3
1022.2315	2953.0803	1375.4	493.75
1022.3453	2954.1696	1373.55	494.05
1022.4591	2955.2582	1365.1	484.95
1022.5728	2956.3462	1366.9	488.3
1022.6865	2957.4335	1364.05	483
1022.8002	2958.5202	1357.5	473.85
1022.9138	2959.6062	1356.3	475.5
1023.0274	2960.6916	1353.65	473.75
1023.141	2961.7764	1347.7	465.05
1023.2545	2962.8605	1348.95	469.2
1023.3679	2963.9439	1346.05	465.65
1023.4813	2965.0267	1344.15	462.25
1023.5947	2966.1089	1368.95	465.3
1023.708	2967.1905	1343.95	461.7
1023.8213	2968.2714	1333.35	454.85
1023.9346	2969.3516	1335.65	453.95
1024.0478	2970.4312	1339.9	452.6
1024.1609	2971.5102	1327.65	446.65
1024.274	2972.5885	1332.05	451.45
1024.3871	2973.6662	1330.1	443.85
1024.5002	2974.7432	1323.8	442.15
1024.6132	2975.8196	1319.55	440.35
1024.7261	2976.8954	1316.75	436.9
1024.839	2977.9705	1321.75	442.9
1024.9519	2979.045	1322.55	444.95
1025.0647	2980.1188	1316.25	436.65
1025.1775	2981.192	1310.25	430.5
1025.2902	2982.2645	1311.85	431.35
1025.4029	2983.3364	1305.95	424.85
1025.5156	2984.4077	1303	423
1025.6282	2985.4783	1308	420.7
1025.7407	2986.5483	1295.85	416.3
1025.8532	2987.6177	1289.15	408.75
1025.9657	2988.6864	1291.75	410.9
1026.0782	2989.7545	1296	414.7
1026.1906	2990.8219	1283.8	403.6
1026.3029	2991.8887	1285.8	404.4
1026.4152	2992.9548	1281.9	400.2
1026.5275	2994.0204	1275	397.05
1026.6397	2995.0852	1269.6	388.95
1026.7519	2996.1495	1268.55	389.25
1026.864	2997.2131	1260.3	381.35
1026.9761	2998.276	1260.4	378.9
1027.0882	2999.3383	1253.9	373.9
1027.2002	3000.4	1248.35	366.1
1027.3122	3001.4611	1252	370.95
1027.4241	3002.5215	1242.9	360.95
1027.536	3003.5812	1242.75	362.1
1027.6478	3004.6404	1240.8	359.6
1027.7596	3005.6989	1241.35	359.6
1027.8714	3006.7567	1238.9	357.7
1027.9831	3007.8139	1260.25	357.6
1028.0947	3008.8705	1233.1	354.05
1028.2064	3009.9264	1233.3	348.75
1028.3179	3010.9818	1223.7	344.7
1028.4295	3012.0364	1225	344.65
1028.541	3013.0905	1227.85	346.7
1028.6524	3014.1439	1226.25	348.05
1028.7638	3015.1966	1222.85	342
1028.8752	3016.2487	1217.65	337.8
1028.9865	3017.3002	1226.65	339.6
1029.0978	3018.3511	1219.4	340.1
1029.209	3019.4013	1221.1	341.35
1029.3202	3020.4509	1215.65	336.1
1029.4314	3021.4998	1209.5	327.7
1029.5425	3022.5481	1210.05	328
1029.6535	3023.5958	1202.35	321.5
1029.7645	3024.6428	1213.8	331.55
1029.8755	3025.6892	1205.4	326
1029.9864	3026.735	1199.6	318.05
1030.0973	3027.7802	1199.5	320.15
1030.2082	3028.8247	1197.8	317.55
1030.319	3029.8685	1196.15	315.2
1030.4297	3030.9118	1201.4	321.1
1030.5404	3031.9544	1196.75	316.55
1030.6511	3032.9963	1196	314.95
1030.7617	3034.0376	1195.4	314.75
1030.8723	3035.0783	1192.7	310.75
1030.9829	3036.1184	1194.85	312.15
1031.0934	3037.1578	1188.45	311.1
1031.2038	3038.1966	1187	304.65
1031.3142	3039.2348	1186.65	306.9
1031.4246	3040.2723	1196.55	304.85
1031.5349	3041.3092	1187.4	308.55
1031.6452	3042.3455	1177.2	295.85
1031.7554	3043.3811	1182.7	302
1031.8656	3044.4161	1181.95	300
1031.9758	3045.4505	1184.8	307.05
1032.0859	3046.4842	1178.6	298.25
1032.1959	3047.5173	1171.9	292.15
1032.3059	3048.5498	1181.95	301.8
1032.4159	3049.5816	1179.15	297.35
1032.5258	3050.6128	1179.7	298.65
1032.6357	3051.6434	1177.75	295.4
1032.7455	3052.6734	1174.15	291.4
1032.8553	3053.7027	1172.35	292.1
1032.9651	3054.7314	1170.05	289.3
1033.0748	3055.7594	1169.45	290.4
1033.1845	3056.7868	1167.35	286.1
1033.2941	3057.8136	1167.85	286.8
1033.4037	3058.8398	1163.55	283.75
1033.5132	3059.8653	1164.7	283.1
1033.6227	3060.8902	1164.45	285.45
1033.7321	3061.9145	1163.4	281.95
1033.8415	3062.9381	1163.6	285.15
1033.9509	3063.9612	1176.45	280.05
1034.0602	3064.9835	1164.35	285.35
1034.1694	3066.0053	1165.65	283.35
1034.2787	3067.0264	1163.2	285
1034.3878	3068.0469	1158	277.3
1034.497	3069.0668	1157.3	276.45
1034.6061	3070.086	1155.55	276.4
1034.7151	3071.1046	1158	277.95
1034.8241	3072.1226	1160.35	280.2
1034.9331	3073.1399	1153.05	272.55
1035.042	3074.1567	1150.05	268.4
1035.1508	3075.1727	1151.7	273.5
1035.2597	3076.1882	1144.85	264.35
1035.3684	3077.203	1147.7	267.1
1035.4772	3078.2173	1149	269.25
1035.5859	3079.2308	1144.15	259.4
1035.6945	3080.2438	1141.85	260.65
1035.8031	3081.2561	1137.25	255.95
1035.9117	3082.2678	1137.05	257
1036.0202	3083.2789	1136.5	256.35
1036.1286	3084.2893	1131.2	252.05
1036.2371	3085.2991	1134.7	255.35
1036.3454	3086.3083	1138.55	254.55
1036.4538	3087.3169	1129	248.5
1036.562	3088.3248	1130.15	249.3
1036.6703	3089.3321	1130.1	249.25
1036.7785	3090.3388	1123.35	244.1
1036.8866	3091.3449	1124.7	241.9
1036.9948	3092.3503	1124.85	240.7
1037.1028	3093.3551	1129.3	250.75
1037.2108	3094.3593	1122.3	243.6
1037.3188	3095.3629	1118.25	239
1037.4267	3096.3658	1121.6	239.9
1037.5346	3097.3681	1120.2	240.4
1037.6425	3098.3698	1116.65	234.8
1037.7503	3099.3708	1124.4	237.25
1037.858	3100.3713	1116.75	237.6
1037.9657	3101.3711	1113.45	232.5
1038.0734	3102.3702	1246.75	228.7
1038.181	3103.3688	1112.25	229.9
1038.2886	3104.3667	1110.6	233.05
1038.3961	3105.364	1106.65	227.8
1038.5036	3106.3607	1107	225.15
1038.611	3107.3568	1104.15	224.55
1038.7184	3108.3522	1105.8	225.85
1038.8257	3109.347	1105.25	224.1
1038.933	3110.3412	1102.55	220.6
1039.0403	3111.3348	1099.4	219.5
1039.1475	3112.3277	1099.2	216.05
1039.2547	3113.32	1097.95	216.45
1039.3618	3114.3117	1099.75	217.4
1039.4689	3115.3028	1093	213.75
1039.5759	3116.2932	1093.9	210.75
1039.6829	3117.2831	1097.1	212.55
1039.7898	3118.2723	1089.2	209.45
1039.8967	3119.2608	1092.3	210.45
1040.0035	3120.2488	1090.1	210.8
1040.1103	3121.2361	1085.55	204.65
1040.2171	3122.2229	1089.25	209.6
1040.3238	3123.209	1080.9	200.1
1040.4305	3124.1944	1083.65	204.1
1040.5371	3125.1793	1088.95	207.5
1040.6437	3126.1635	1079.8	201.05
1040.7502	3127.1471	1081.2	201.25
1040.8567	3128.1301	1076.3	196.1
1040.9631	3129.1125	1077.95	196.95
1041.0695	3130.0942	1081.35	200.45
1041.1759	3131.0753	1086.4	199.2
1041.2822	3132.0558	1079.6	196.55
1041.3884	3133.0357	1074.3	194.3
1041.4946	3134.015	1079	199.25
1041.6008	3134.9936	1072.6	189.05
1041.7069	3135.9716	1092.2	191.8
1041.813	3136.949	1073.85	193.85
1041.919	3137.9258	1076.45	190.15
1042.025	3138.902	1076.25	190.55
1042.1309	3139.8775	1067.45	187.9
1042.2368	3140.8524	1069.8	191.7
1042.3427	3141.8267	1067.1	184.1
1042.4485	3142.8004	1066.65	187.9
1042.5542	3143.7735	1073.75	186.1
1042.6599	3144.7459	1070.7	188.8
1042.7656	3145.7178	1069.4	188.55
1042.8712	3146.689	1061.5	180.65
1042.9768	3147.6596	1059.8	177.9
1043.0823	3148.6295	1059.5	180.1
1043.1878	3149.5989	1061.2	180.8
1043.2932	3150.5676	1058.45	181.6
1043.3986	3151.5357	1056.55	178.9
1043.5039	3152.5032	1055.25	175.85
1043.6092	3153.4701	1054.35	175.4
1043.7145	3154.4364	1056.8	174.65
1043.8197	3155.402	1056.8	177.55
1043.9248	3156.367	1059.2	178.1
1044.03	3157.3315	1087.5	171.1
1044.135	3158.2952	1054.05	173.95
1044.24	3159.2584	1054.15	174.05
1044.345	3160.221	1047.8	166.4
1044.4499	3161.1829	1050.05	168.8
1044.5548	3162.1442	1046.3	168.5
1044.6596	3163.105	1047.55	167.25
1044.7644	3164.065	1045.8	165.5
1044.8692	3165.0245	1046.55	165.35
1044.9739	3165.9834	1044.9	166.85
1045.0785	3166.9416	1047.3	167.95
1045.1831	3167.8993	1041.85	162.45
1045.2877	3168.8563	1043.25	161.8
1045.3922	3169.8127	1042.45	163.65
1045.4966	3170.7684	1040.85	159.4
1045.6011	3171.7236	1040.1	159.85
1045.7054	3172.6782	1036.65	156.2
1045.8098	3173.6321	1038.15	158.4
1045.914	3174.5854	1043.5	158.05
1046.0183	3175.5381	1033.1	154.5
1046.1224	3176.4902	1030.45	151.25
1046.2266	3177.4417	1033.25	156.5
1046.3307	3178.3926	1033.7	154.7
1046.4347	3179.3428	1033.9	156.65
1046.5387	3180.2924	1028	147.6
1046.6427	3181.2415	1030.55	150.05
1046.7466	3182.1899	1029.6	148.1
1046.8504	3183.1377	1026.55	145.45
1046.9542	3184.0848	1029.3	147.9
1047.058	3185.0314	1028.05	147.75
1047.1617	3185.9773	1026.15	143.15
1047.2654	3186.9227	1027.6	148.8
1047.369	3187.8674	1025	145.25
1047.4726	3188.8115	1030	146.8
1047.5761	3189.755	1024	145.35
1047.6796	3190.6979	1022.25	140.85
1047.783	3191.6402	1023.65	144.5
1047.8864	3192.5818	1019.1	137.8
1047.9898	3193.5229	1025.5	140.45
1048.0931	3194.4633	1018.9	140
1048.1963	3195.4031	1019.35	139.45
1048.2995	3196.3423	1016.95	137.4
1048.4027	3197.2809	1016.25	134.8
1048.5058	3198.2189	1017.8	138.65
1048.6089	3199.1563	1025.4	140.65
1048.7119	3200.0931	1009.4	129.1
1048.8148	3201.0292	1013.05	134.9
1048.9178	3201.9648	1014.1	134.5
1049.0206	3202.8997	1013.4	130.55
1049.1235	3203.834	1012	133.05
1049.2262	3204.7677	1014.75	136.55
1049.329	3205.7008	1015.55	134.25
1049.4317	3206.6333	1008.8	130.55
1049.5343	3207.5652	1009.25	128.2
1049.6369	3208.4964	1014.35	133.05
1049.7394	3209.4271	1008.2	127.9
1049.8419	3210.3571	1003.15	123.7
1049.9444	3211.2865	1009.9	129.65
1050.0468	3212.2154	1005.7	126.6
1050.1491	3213.1436	1005	122.15
1050.2514	3214.0712	1011.05	122.75
1050.3537	3214.9982	1005.45	124.8
1050.4559	3215.9246	1005	123.7
1050.5581	3216.8503	999.45	120.8
1050.6602	3217.7755	1004.45	124.8
1050.7623	3218.7001	1003.5	126.05
1050.8643	3219.624	1002.55	122.1
1050.9663	3220.5473	1001.55	123.6
1051.0682	3221.4701	998	117.35
1051.1701	3222.3922	1000.5	119.1
1051.2719	3223.3137	997.75	117.85
1051.3737	3224.2346	995.6	116.6
1051.4754	3225.1549	996.85	115.8
1051.5771	3226.0746	998.75	118.1
1051.6788	3226.9937	997.25	117.95
1051.7804	3227.9121	995.5	114.45
1051.8819	3228.83	998.2	118.9
1051.9834	3229.7473	998.5	119.85
1052.0849	3230.6639	994.1	113.55
1052.1863	3231.5799	991.2	111.05
1052.2876	3232.4954	994.2	114.15
1052.3889	3233.4102	991.65	111.05
1052.4902	3234.3244	991.55	111
1052.5914	3235.238	994.25	114.65
1052.6926	3236.151	1015.6	112.75
1052.7937	3237.0634	986.3	107.3
1052.8948	3237.9752	989.1	110.1
1052.9958	3238.8864	989.35	108.55
1053.0968	3239.797	988.35	108.05
1053.1977	3240.7069	986.05	104.95
1053.2986	3241.6163	985.75	105.45
1053.3994	3242.5251	985.95	106.75
1053.5002	3243.4332	985.3	107.85
1053.6009	3244.3408	985.95	104.45
1053.7016	3245.2477	985.65	107.15
1053.8022	3246.154	987.4	105.35
1053.9028	3247.0598	983.55	103.95
1054.0034	3247.9649	985.15	103.6
1054.1039	3248.8694	980.1	101.6
1054.2043	3249.7733	980.75	101.65
1054.3047	3250.6766	981.95	102.85
1054.4051	3251.5793	980.3	99.8
1054.5054	3252.4814	976.75	97.95
1054.6056	3253.3829	978.75	101
1054.7058	3254.2838	975.5	95.3
1054.806	3255.1841	973.9	92.85
1054.9061	3256.0838	974.2	94.35
1055.0061	3256.9829	975.35	97.6
1055.1062	3257.8814	982.35	100.55
1055.2061	3258.7792	973.65	92.4
1055.306	3259.6765	974.5	93.45
1055.4059	3260.5731	970.7	91.15
1055.5057	3261.4692	973.55	92.8
1055.6055	3262.3647	972.3	92.1
1055.7052	3263.2595	965.55	84.7
1055.8049	3264.1538	964.6	85.2
1055.9045	3265.0474	967	86.25
1056.0041	3265.9404	966.2	86.05
1056.1036	3266.8329	962.5	82.15
1056.2031	3267.7247	973.85	84.65
1056.3025	3268.616	960.45	81.3
1056.4019	3269.5066	957.25	77.6
1056.5013	3270.3966	956.2	73.35
1056.6005	3271.286	950.2	70.35
