Software Version:	3.9.2.0
Unit SN:	10000200
Spectrometer SN:	6960
Date:	3/6/2024 10:12:14 AM
Data Line Index:	25
Spectral Points:	2048
Integration time (ms):	125
Averages:	20
Delay (ms):	30
Sequence Number:	1
Processing:	dark subtract
Laser Power (mW):	305
Laser Current (mA):	824
Laser Diode Temp (C):	25.1
Laser Case Temp (C):	24.9
System Temp (C):	24.8
Spectrometer Temp (C):	22.3
CCD Temp (C):	0.001
Secondary Temp (C):	20.004
Heatsink Temp (C):	18.521
CCDPCB Temp (C):	31.071
SecondaryPCB Temp (C):	25.725

Wavelength	RamanShift	Raw Counts	Dark Subtracted
787.061	30.1047	962.6	553.15
787.2016	32.3739	984.35	576.9
787.3422	34.6426	1028.6	621.3
787.4828	36.9109	1054.3	645.6
787.6235	39.1787	1099.45	684.6
787.7642	41.4461	1154.75	735.4
787.9049	43.7131	1199.1	776.55
788.0456	45.9796	1246.7	821.55
788.1863	48.2456	1306.35	878.6
788.3271	50.5112	1359.5	929
788.4679	52.7764	1410.4	975.55
788.6087	55.0411	1474.85	1035.55
788.7496	57.3054	1531.2	1086
788.8904	59.5692	1604.35	1159.25
789.0313	61.8326	1682.6	1235.25
789.1722	64.0955	1764.05	1310.7
789.3132	66.3579	1867.6	1410.05
789.4541	68.6199	1975.45	1514.05
789.5951	70.8815	2187.15	1720.35
789.7361	73.1426	2642.5	2172.85
789.8771	75.4032	3792.1	3319.2
790.0181	77.6634	6768.2	6290
790.1592	79.9231	14330.15	13847.45
790.3003	82.1824	42926.7	42429.6
790.4414	84.4412	63789.05	63269.1
790.5825	86.6995	65073.45	64528.55
790.7237	88.9574	65535	64961.65
790.8648	91.2148	65535	64946.5
791.006	93.4717	65535	64934.35
791.1472	95.7282	65535	64931.75
791.2885	97.9842	65535	64926.7
791.4297	100.2398	65535	64923.85
791.571	102.4949	65535	64924.6
791.7123	104.7495	65535	64916.05
791.8536	107.0036	65535	64920.15
791.9949	109.2573	65535	64918.35
792.1363	111.5105	65535	64916.85
792.2777	113.7632	65535	64913
792.4191	116.0154	65535	64902.65
792.5605	118.2672	65535	64907.2
792.7019	120.5185	65535	64908.15
792.8434	122.7693	65535	64902.65
792.9849	125.0197	65535	64896.85
793.1264	127.2696	65535	64898.1
793.2679	129.519	65535	64893.2
793.4094	131.7679	65535	64889.7
793.551	134.0163	65535	64889.45
793.6926	136.2642	65535	64884.6
793.8342	138.5117	65535	64878.2
793.9758	140.7587	65535	64881.4
794.1175	143.0052	65535	64876
794.2591	145.2512	65535	64876.45
794.4008	147.4967	65535	64873.7
794.5425	149.7417	65535	64867.9
794.6842	151.9863	65535	64870.4
794.826	154.2304	65535	64861.65
794.9677	156.4739	65535	64857.4
795.1095	158.717	65535	64859.55
795.2513	160.9596	65535	64854.9
795.3931	163.2017	65535	64853.55
795.535	165.4433	65535	64849.6
795.6768	167.6844	65535	64850.5
795.8187	169.925	65535	64848.05
795.9606	172.1651	65535	64840.6
796.1025	174.4047	65535	64838.9
796.2445	176.6439	65535	64841.2
796.3864	178.8825	65535	64833.4
796.5284	181.1206	65535	64829.8
796.6704	183.3582	65535	64826.55
796.8124	185.5954	65535	64824.65
796.9544	187.832	65535	64821.25
797.0965	190.0681	65535	64819
797.2386	192.3037	65535	64811.7
797.3806	194.5388	65535	64813.9
797.5228	196.7734	65535	64806.15
797.6649	199.0075	65535	64808.15
797.807	201.2411	65535	64807.65
797.9492	203.4742	65535	64805.05
798.0914	205.7068	65535	64799.9
798.2336	207.9389	65535	64799.45
798.3758	210.1704	65535	64806.65
798.518	212.4015	65535	64813.95
798.6603	214.632	65535	64821.55
798.8025	216.862	65535	64822.3
798.9448	219.0915	65535	64819.8
799.0871	221.3205	65535	64816.7
799.2294	223.549	65535	64821.4
799.3718	225.777	65535	64822.2
799.5141	228.0044	65535	64815.15
799.6565	230.2314	65535	64816.95
799.7989	232.4578	65535	64810.35
799.9413	234.6837	65535	64800.4
800.0837	236.909	65535	64797.4
800.2262	239.1339	65535	64772.55
800.3687	241.3582	65535	64788.95
800.5111	243.582	65535	64757.35
800.6536	245.8053	65535	64770.85
800.7961	248.0281	65535	64776.2
800.9387	250.2503	65535	64774.55
801.0812	252.472	65535	64772
801.2238	254.6932	65535	64773.25
801.3664	256.9139	65535	64768.05
801.509	259.134	65535	64767.95
801.6516	261.3536	65535	64768.25
801.7942	263.5727	65535	64763.5
801.9369	265.7912	65535	64768.85
802.0795	268.0092	65535	64767.35
802.2222	270.2267	65535	64767.65
802.3649	272.4436	65535	64766.75
802.5076	274.6601	65535	64753.2
802.6504	276.8759	65535	64760.5
802.7931	279.0913	65535	64759.2
802.9359	281.3061	65535	64758.5
803.0787	283.5204	65535	64747.9
803.2215	285.7341	65535	64746.85
803.3643	287.9473	65535	64739.25
803.5071	290.16	65535	64746.3
803.6499	292.3721	65535	64749.9
803.7928	294.5837	65535	64752.5
803.9357	296.7947	65535	64751.15
804.0786	299.0052	65535	64749.95
804.2215	301.2152	65535	64747.15
804.3644	303.4246	65535	64750.15
804.5074	305.6334	65535	64747.9
804.6503	307.8418	65535	64745.75
804.7933	310.0495	65535	64745.3
804.9363	312.2568	65535	64744.4
805.0793	314.4635	65535	64743.7
805.2223	316.6696	65535	64737.75
805.3653	318.8752	65535	64730.2
805.5084	321.0802	65535	64737.85
805.6514	323.2847	65535	64733.15
805.7945	325.4887	65535	64735.5
805.9376	327.692	65535	64735.5
806.0807	329.8949	65535	64733.3
806.2238	332.0972	65535	64731.5
806.367	334.2989	65535	64726.6
806.5101	336.5001	65535	64725.9
806.6533	338.7007	65535	64723.9
806.7965	340.9008	65535	64723.55
806.9397	343.1003	65535	64721.95
807.0829	345.2992	65535	64721.9
807.2261	347.4976	65535	64720.95
807.3693	349.6955	65535	64720.65
807.5126	351.8927	65535	64716.55
807.6559	354.0895	65535	64706.45
807.7991	356.2856	65535	64712.4
807.9424	358.4812	65535	64715.3
808.0857	360.6763	65535	64708.9
808.2291	362.8707	65535	64708.75
808.3724	365.0646	65535	64709.45
808.5158	367.258	65535	64707.5
808.6591	369.4508	65535	64701.4
808.8025	371.643	65535	64703.4
808.9459	373.8346	65535	64698.85
809.0893	376.0257	65535	64695
809.2327	378.2162	65535	64700.9
809.3762	380.4062	65535	64700.4
809.5196	382.5956	65535	64704.8
809.6631	384.7844	65535	64710.8
809.8066	386.9726	65535	64710.65
809.9501	389.1603	65535	64711.05
810.0936	391.3474	65535	64670.6
810.2371	393.5339	65535	64707.7
810.3806	395.7199	65535	64706.75
810.5241	397.9052	65535	64703.7
810.6677	400.09	65535	64709.4
810.8113	402.2743	65535	64706.5
810.9548	404.4579	65535	64705.25
811.0984	406.641	65535	64705.4
811.2421	408.8235	65535	64699.35
811.3857	411.0054	65535	64697.95
811.5293	413.1868	65535	64694.35
811.673	415.3675	65535	64688.15
811.8166	417.5477	65535	64691.15
811.9603	419.7273	65535	64689.35
812.104	421.9064	65535	64687.8
812.2477	424.0848	65535	64686.6
812.3914	426.2627	65535	64689.45
812.5351	428.4399	65535	64686.65
812.6788	430.6166	65535	64680.95
812.8226	432.7928	65535	64684.55
812.9663	434.9683	65535	64683.5
813.1101	437.1432	65535	64682.95
813.2539	439.3176	65535	64688.4
813.3977	441.4914	65535	64691.2
813.5415	443.6645	65535	64687.55
813.6853	445.8371	65535	64686.6
813.8291	448.0091	65535	64687.25
813.973	450.1806	65535	64686.5
814.1168	452.3514	65535	64688.75
814.2607	454.5216	65535	64676.8
814.4046	456.6913	65535	64683.6
814.5485	458.8603	65535	64684.8
814.6924	461.0288	65535	64687.65
814.8363	463.1967	65535	64685
814.9802	465.3639	65535	64684.85
815.1241	467.5306	65535	64684.45
815.2681	469.6967	65535	64684.6
815.412	471.8622	65535	64685.85
815.556	474.0271	65535	64685.7
815.7	476.1914	65535	64678.75
815.844	478.3551	65535	64678.7
815.988	480.5182	65535	64681.8
816.132	482.6807	65535	64682.1
816.276	484.8426	65535	64689.05
816.4201	487.0039	65535	64683.55
816.5641	489.1647	65535	64682.2
816.7082	491.3248	65535	64676.2
816.8522	493.4843	65535	64682.6
816.9963	495.6432	65535	64680.7
817.1404	497.8015	65535	64673.05
817.2845	499.9592	65535	64668
817.4286	502.1163	65535	64668
817.5727	504.2728	65535	64673.55
817.7168	506.4287	65535	64680.35
817.861	508.5839	65535	64681.95
818.0051	510.7386	65535	64674.95
818.1493	512.8927	65535	64669.8
818.2935	515.0461	65535	64670.35
818.4377	517.199	65535	64669.4
818.5818	519.3512	65535	64667
818.726	521.5029	65535	64664.05
818.8703	523.6539	65535	64668.05
819.0145	525.8043	65535	64669.2
819.1587	527.9541	65535	64663.5
819.303	530.1033	65535	64664.05
819.4472	532.2519	65535	64665.05
819.5915	534.3999	65535	64662.6
819.7357	536.5472	65535	64666.95
819.88	538.694	65535	64667.9
820.0243	540.8401	65535	64662.6
820.1686	542.9856	65535	64660.95
820.3129	545.1305	65535	64655.5
820.4572	547.2748	65535	64652.4
820.6016	549.4185	65535	64654.35
820.7459	551.5615	65535	64653.15
820.8902	553.704	65535	64658.5
821.0346	555.8458	65535	64662.4
821.1789	557.987	65535	64660.4
821.3233	560.1276	65535	64658
821.4677	562.2675	65535	64656.65
821.6121	564.4069	65535	64661.2
821.7565	566.5456	65535	64660.2
821.9009	568.6837	65535	64657.7
822.0453	570.8212	65535	64657.8
822.1897	572.958	65535	64658.4
822.3342	575.0942	65535	64658.35
822.4786	577.2299	65535	64661.2
822.6231	579.3648	65535	64668.35
822.7675	581.4992	65535	64669.55
822.912	583.6329	65535	64670.9
823.0565	585.766	65535	64669.2
823.201	587.8985	65535	64664.7
823.3454	590.0304	65535	64639.55
823.4899	592.1616	65535	64655.45
823.6345	594.2922	65535	64652.1
823.779	596.4222	65535	64652.1
823.9235	598.5515	65535	64646.75
824.068	600.6802	65535	64650
824.2126	602.8083	65535	64650.95
824.3571	604.9358	65535	64652.05
824.5017	607.0626	65535	64648.1
824.6462	609.1888	65535	64647.1
824.7908	611.3144	65535	64647.9
824.9354	613.4393	65535	64649.85
825.08	615.5636	65535	64647.35
825.2246	617.6873	65535	64649.2
825.3692	619.8103	65535	64646.85
825.5138	621.9327	65535	64646
825.6584	624.0544	65535	64653.7
825.803	626.1756	65535	64653.7
825.9477	628.2961	65535	64646.55
826.0923	630.4159	65535	64645.5
826.237	632.5351	65535	64645.1
826.3816	634.6537	65535	64647.2
826.5263	636.7716	65535	64643.75
826.6709	638.8889	65535	64642.45
826.8156	641.0056	65535	64639.8
826.9603	643.1216	65535	64639.55
827.105	645.237	65535	64642.05
827.2497	647.3518	65535	64646
827.3944	649.4659	65535	64649.15
827.5391	651.5793	65535	64649.85
827.6838	653.6922	65535	64646.5
827.8285	655.8043	65535	64646.6
827.9733	657.9159	65535	64643
828.118	660.0268	65535	64644
828.2627	662.137	65535	64642
828.4075	664.2466	65535	64638.15
828.5522	666.3556	65535	64637.2
828.697	668.4639	65535	64640.95
828.8418	670.5716	65535	64643.3
828.9865	672.6786	65535	64643.9
829.1313	674.785	65535	64636.35
829.2761	676.8907	65535	64640
829.4209	678.9958	65535	64645.8
829.5657	681.1002	65535	64642.2
829.7105	683.204	65535	64628.45
829.8553	685.3072	65535	64632.65
830.0001	687.4097	65535	64638.7
830.1449	689.5115	65535	64637.35
830.2898	691.6127	65535	64640.65
830.4346	693.7132	65535	64639
830.5794	695.8131	65535	64618.15
830.7243	697.9123	65535	64633.55
830.8691	700.0109	65535	64636.7
831.014	702.1089	65535	64636.25
831.1588	704.2061	65535	64634.05
831.3037	706.3028	65535	64633.85
831.4486	708.3987	65535	64632.05
831.5935	710.4941	65535	64639
831.7383	712.5887	65535	64634.55
831.8832	714.6827	65535	64634.5
832.0281	716.7761	65535	64635.55
832.173	718.8688	65535	64631.15
832.3179	720.9608	65535	64625.95
832.4628	723.0522	65535	64625.45
832.6077	725.1429	65535	64628.15
832.7527	727.233	65535	64631.3
832.8976	729.3224	65535	64633.1
833.0425	731.4112	65535	64629.25
833.1874	733.4993	65535	64630.9
833.3324	735.5867	65535	64631.6
833.4773	737.6735	65535	64627.9
833.6222	739.7596	65535	64628.05
833.7672	741.845	65535	64631.05
833.9122	743.9298	65535	64628.5
834.0571	746.014	65535	64628.1
834.2021	748.0974	65535	64625.9
834.347	750.1802	65535	64626.6
834.492	752.2624	65535	64630.85
834.637	754.3439	65535	64623.1
834.782	756.4247	65535	64616.8
834.9269	758.5048	65535	64627.65
835.0719	760.5843	65535	64627.8
835.2169	762.6631	65535	64626.8
835.3619	764.7413	65535	64625.55
835.5069	766.8188	65535	64624.8
835.6519	768.8956	65535	64623.65
835.7969	770.9718	65535	64628.1
835.9419	773.0473	65535	64628
836.0869	775.1221	65535	64627.7
836.232	777.1962	65535	64626.4
836.377	779.2697	65535	64624.75
836.522	781.3426	65535	64605.85
836.667	783.4147	65535	64624.65
836.8121	785.4862	65535	64626.35
836.9571	787.557	65535	64622
837.1021	789.6271	65535	64622.45
837.2472	791.6966	65535	64624.7
837.3922	793.7654	65535	64624.15
837.5373	795.8335	65535	64622.95
837.6823	797.901	65535	64627.85
837.8274	799.9678	65535	64621.45
837.9724	802.0339	65535	64621.15
838.1175	804.0993	65535	64610.65
838.2626	806.1641	65535	64623.1
838.4076	808.2282	65535	64623.05
838.5527	810.2916	65535	64620.5
838.6978	812.3544	65535	64626.7
838.8428	814.4164	65535	64624.9
838.9879	816.4778	65535	64623
839.133	818.5385	65535	64623.25
839.2781	820.5986	65535	64624.2
839.4232	822.658	65535	64622.6
839.5682	824.7166	65535	64623.35
839.7133	826.7747	65535	64622.75
839.8584	828.832	65535	64618.65
840.0035	830.8886	65535	64619
840.1486	832.9446	65535	64619.25
840.2937	834.9999	65535	64623.6
840.4388	837.0545	65535	64615.45
840.5839	839.1085	65535	64617.9
840.729	841.1618	65535	64615.5
840.8741	843.2143	65535	64620.85
841.0192	845.2662	65535	64619.9
841.1643	847.3175	65535	64621.9
841.3095	849.368	65535	64616.95
841.4546	851.4179	65535	64620.45
841.5997	853.467	65535	64624.15
841.7448	855.5155	65535	64616.05
841.8899	857.5633	65535	64619
842.0351	859.6105	65535	64622
842.1802	861.6569	65535	64623.6
842.3253	863.7027	65535	64619.1
842.4704	865.7478	65535	64618.95
842.6156	867.7922	65535	64619.8
842.7607	869.8359	65535	64620.75
842.9058	871.8789	65535	64614.95
843.0509	873.9212	65535	64587.1
843.1961	875.9629	65535	64618.95
843.3412	878.0039	65535	64617.7
843.4863	880.0441	65535	64621.95
843.6315	882.0837	65535	64618.45
843.7766	884.1226	65535	64619.6
843.9218	886.1609	65535	64620.65
844.0669	888.1984	65535	64620.6
844.212	890.2352	65535	64618.25
844.3572	892.2714	65535	64609.8
844.5023	894.3069	65535	64617.3
844.6475	896.3416	65535	64617.25
844.7926	898.3757	65535	64615.95
844.9377	900.4091	65535	64614.4
845.0829	902.4418	65535	64609.35
845.228	904.4739	65535	64612.45
845.3732	906.5052	65535	64614.15
845.5183	908.5358	65535	64617.65
845.6635	910.5658	65535	64613.05
845.8086	912.595	65535	64613.35
845.9538	914.6236	65535	64614.25
846.0989	916.6515	65535	64616.65
846.2441	918.6786	65535	64610.35
846.3892	920.7051	65535	64613.25
846.5344	922.7309	65535	64618.15
846.6795	924.756	65535	64615.1
846.8246	926.7804	65535	64614.65
846.9698	928.8041	65535	64611.75
847.1149	930.8272	65535	64617
847.2601	932.8495	65535	64615.85
847.4052	934.8711	65535	64612.75
847.5504	936.892	65535	64614.75
847.6955	938.9123	65535	64615
847.8407	940.9318	65535	64612.6
847.9858	942.9506	65535	64611.15
848.131	944.9688	65535	64615.5
848.2761	946.9862	65535	64616.6
848.4213	949.003	65535	64613.75
848.5664	951.019	65535	64615.45
848.7115	953.0344	65535	64615.3
848.8567	955.0491	65535	64614.25
849.0018	957.063	65535	64613.75
849.147	959.0763	65535	64616.65
849.2921	961.0888	65535	64614.35
849.4373	963.1007	65535	64615.8
849.5824	965.1119	65535	64619.95
849.7275	967.1223	65535	64625.95
849.8727	969.1321	65535	64622.6
850.0178	971.1412	65535	64622.7
850.1629	973.1495	65535	64617.25
850.3081	975.1572	65535	64576.65
850.4532	977.1641	65535	64613.1
850.5983	979.1704	65535	64614.1
850.7435	981.1759	65535	64609.35
850.8886	983.1808	65535	64612.55
851.0337	985.1849	65535	64603.95
851.1788	987.1884	65535	64612.1
851.324	989.1911	65535	64612.1
851.4691	991.1932	65527.95	64610.5
851.6142	993.1945	65534.45	64614.2
851.7593	995.1951	65535	64613.25
851.9045	997.1951	65529.55	64605.6
852.0496	999.1943	65530.85	64609.95
852.1947	1001.1928	65525.25	64601.4
852.3398	1003.1906	65531.15	64610.5
852.4849	1005.1877	65501	64580.35
852.63	1007.1841	65501.5	64581.75
852.7751	1009.1798	65513.7	64591.7
852.9202	1011.1748	65515.3	64591.35
853.0653	1013.1691	65511.45	64590.2
853.2104	1015.1627	65379.25	64458.75
853.3555	1017.1556	65469.3	64551.05
853.5006	1019.1477	65487.75	64566.9
853.6457	1021.1392	65442.3	64526
853.7908	1023.1299	65366.95	64453
853.9359	1025.12	65411.9	64500.8
854.081	1027.1093	65391.1	64488.05
854.2261	1029.0979	65387.4	64484.2
854.3712	1031.0859	65365.25	64456.45
854.5163	1033.0731	65326.1	64412.95
854.6613	1035.0596	65360.9	64444.7
854.8064	1037.0454	65346.05	64429
854.9515	1039.0304	65326.6	64407.45
855.0965	1041.0148	65270.5	64352.25
855.2416	1042.9985	65291.55	64371.4
855.3867	1044.9814	65334	64416.45
855.5317	1046.9636	65263.25	64343.1
855.6768	1048.9452	65275.9	64360.1
855.8219	1050.926	65262.85	64342.25
855.9669	1052.9061	65266.55	64349.4
856.112	1054.8855	65285.05	64366.65
856.257	1056.8642	65247	64326.8
856.4021	1058.8421	65207.85	64285.3
856.5471	1060.8194	65212.5	64294.4
856.6921	1062.7959	65195.7	64277.95
856.8372	1064.7717	65242.85	64322.6
856.9822	1066.7469	65221.95	64301
857.1272	1068.7213	65215.85	64293.6
857.2723	1070.695	65194.5	64277.9
857.4173	1072.6679	65163.1	64244.55
857.5623	1074.6402	65192.3	64270
857.7073	1076.6117	65168.1	64242.2
857.8523	1078.5826	65172.5	64253.95
857.9973	1080.5527	65172.95	64250.7
858.1423	1082.5221	65152.6	64230.9
858.2873	1084.4908	65141.45	64223.7
858.4323	1086.4587	65120.25	64198.4
858.5773	1088.426	65136.95	64213.5
858.7223	1090.3925	65136.85	64210.15
858.8673	1092.3584	65124.5	64205.1
859.0123	1094.3235	65093.45	64176.1
859.1573	1096.2879	65088.05	64169.75
859.3022	1098.2515	65119.9	64198.35
859.4472	1100.2145	65092.2	64175.3
859.5922	1102.1767	65077.8	64157.8
859.7371	1104.1382	65091.05	64173.95
859.8821	1106.099	65062.8	64141.55
860.027	1108.0591	65059.4	64139.7
860.172	1110.0185	65025.35	64103.75
860.3169	1111.9771	65063.5	64142.75
860.4619	1113.9351	65041	64121.6
860.6068	1115.8923	65027.55	64108.8
860.7517	1117.8488	65012.75	64092.2
860.8967	1119.8045	64992.35	64071.95
861.0416	1121.7596	64999.8	64079.75
861.1865	1123.7139	64991.75	64075.85
861.3314	1125.6675	64991.05	64073.3
861.4763	1127.6204	64989.4	64072.55
861.6212	1129.5726	64968.15	64048.45
861.7661	1131.524	64953.75	64033.9
861.911	1133.4748	64966.9	64047.35
862.0559	1135.4248	64953.9	64032.85
862.2008	1137.3741	64947.15	64026.5
862.3457	1139.3226	64950.5	64030.35
862.4905	1141.2705	64940.55	64021.05
862.6354	1143.2176	64922.6	63997.75
862.7803	1145.164	64903.6	63983.6
862.9251	1147.1097	64902.05	63980.75
863.07	1149.0546	64893.45	63973.55
863.2148	1150.9989	64900.05	63981.6
863.3597	1152.9424	64899.75	63980.1
863.5045	1154.8852	64890.15	63970.8
863.6493	1156.8272	64878.2	63955.3
863.7942	1158.7686	64896.3	63971.35
863.939	1160.7092	64863.5	63944.1
864.0838	1162.6491	64856.7	63934.65
864.2286	1164.5883	64872	63952.15
864.3734	1166.5267	64849.9	63932.6
864.5182	1168.4644	64862.25	63942.6
864.663	1170.4014	64851.35	63929.5
864.8078	1172.3377	64855.35	63935.7
864.9526	1174.2732	64867.5	63950.4
865.0974	1176.2081	64847.2	63928.2
865.2421	1178.1421	64835.45	63914.95
865.3869	1180.0755	64850.65	63934.3
865.5317	1182.0082	64842.4	63926.55
865.6764	1183.9401	64842.6	63925.75
865.8212	1185.8713	64820.7	63908.05
865.9659	1187.8017	64823.45	63912.05
866.1106	1189.7315	64807.05	63901.15
866.2554	1191.6605	64806.85	63873.55
866.4001	1193.5888	64783.9	63872.15
866.5448	1195.5163	64761.4	63848.8
866.6895	1197.4432	64757.7	63841.9
866.8342	1199.3693	64758.65	63842.75
866.9789	1201.2947	64751.05	63831.2
867.1236	1203.2193	64750.2	63836.15
867.2683	1205.1432	64729.35	63816.5
867.413	1207.0664	64720.95	63804.4
867.5576	1208.9889	64718.5	63799.65
867.7023	1210.9106	64713.9	63797.85
867.847	1212.8316	64679.3	63763.35
867.9916	1214.7519	64692.35	63766.8
868.1363	1216.6715	64677.4	63763.9
868.2809	1218.5903	64681.35	63764.25
868.4255	1220.5084	64680.3	63764.3
868.5701	1222.4257	64674.85	63757.85
868.7148	1224.3424	64669.6	63754.05
868.8594	1226.2583	64657.75	63735.95
869.004	1228.1735	64650.7	63736.6
869.1486	1230.0879	64642.65	63726.3
869.2932	1232.0016	64637.7	63719.6
869.4377	1233.9146	64626.6	63707.35
869.5823	1235.8269	64621.1	63703.15
869.7269	1237.7384	64622.35	63704.75
869.8715	1239.6492	64607.65	63690.25
870.016	1241.5592	64607.9	63690.4
870.1606	1243.4686	64606.3	63688.75
870.3051	1245.3772	64593.6	63678
870.4496	1247.285	64581.45	63665.05
870.5941	1249.1922	64580.9	63663.65
870.7387	1251.0986	64581.5	63666.45
870.8832	1253.0042	64565.2	63651.1
871.0277	1254.9092	64564.45	63648.8
871.1722	1256.8134	64551.55	63638.9
871.3167	1258.7169	64548	63634.1
871.4611	1260.6196	64558.35	63643.45
871.6056	1262.5216	64550.9	63631.95
871.7501	1264.4229	64553.7	63641.45
871.8945	1266.3234	64538.15	63621.9
872.039	1268.2232	64541.2	63625.75
872.1834	1270.1223	64544.3	63628.6
872.3278	1272.0207	64547.2	63629
872.4723	1273.9183	64525.3	63602.4
872.6167	1275.8151	64515.25	63602.15
872.7611	1277.7113	64525.7	63608.2
872.9055	1279.6067	64509	63594.35
873.0499	1281.5014	64500.9	63584.75
873.1943	1283.3953	64495.35	63577.2
873.3386	1285.2885	64498	63583.55
873.483	1287.181	64496.1	63580.85
873.6274	1289.0727	64509.45	63595.5
873.7717	1290.9637	64499.35	63584.1
873.9161	1292.854	64515.4	63601.5
874.0604	1294.7435	64498.15	63584.9
874.2047	1296.6323	64489.75	63573.2
874.349	1298.5204	64488.85	63572.1
874.4933	1300.4077	64486.45	63571.9
874.6376	1302.2943	64468.45	63554.35
874.7819	1304.1802	64468.95	63555.55
874.9262	1306.0653	64465.95	63546.95
875.0705	1307.9497	64458.3	63545.25
875.2147	1309.8333	64463	63550.45
875.359	1311.7162	64450.75	63536
875.5032	1313.5984	64445.55	63529.6
875.6475	1315.4798	64437.7	63509
875.7917	1317.3605	64433.1	63501
875.9359	1319.2405	64426.5	63510.7
876.0801	1321.1197	64416.2	63499.4
876.2243	1322.9982	64418.15	63499.45
876.3685	1324.876	64415.35	63500.8
876.5127	1326.753	64399.4	63481.85
876.6569	1328.6293	64386.1	63468.75
876.801	1330.5048	64395.8	63479.05
876.9452	1332.3796	64386.25	63471.4
877.0893	1334.2537	64377.6	63435.65
877.2335	1336.127	64370.7	63455.55
877.3776	1337.9996	64364.45	63448.05
877.5217	1339.8714	64359.55	63447.3
877.6658	1341.7426	64352.5	63391.3
877.8099	1343.6129	64358.35	63439.75
877.954	1345.4826	64357.9	63442.45
878.0981	1347.3515	64356.15	63437.8
878.2422	1349.2196	64347.65	63432.2
878.3862	1351.087	64343.95	63428.35
878.5303	1352.9537	64343.85	63424.7
878.6743	1354.8197	64344.95	63429.25
878.8184	1356.6849	64343.3	63426.5
878.9624	1358.5493	64348.2	63432.45
879.1064	1360.4131	64340.7	63425.5
879.2504	1362.276	64330.65	63414.65
879.3944	1364.1383	64326.3	63413.1
879.5384	1365.9998	64310	63390.85
879.6823	1367.8606	64305.85	63388.2
879.8263	1369.7206	64296.2	63378.95
879.9702	1371.5799	64286.95	63368.3
880.1142	1373.4384	64279.4	63361.8
880.2581	1375.2962	64268.6	63352.6
880.402	1377.1533	64264.7	63351.2
880.5459	1379.0096	64257.25	63344.05
880.6898	1380.8652	64246.85	63336
880.8337	1382.7201	64234.55	63320.85
880.9776	1384.5742	64220.15	63304.6
881.1215	1386.4275	64209.35	63292.4
881.2653	1388.2802	64205.35	63289.55
881.4092	1390.132	64188.75	63273.15
881.553	1391.9832	64190.05	63270.7
881.6968	1393.8336	64175.35	63261.6
881.8406	1395.6832	64171.3	63254
881.9844	1397.5322	64163.7	63249.7
882.1282	1399.3803	64159.2	63239.45
882.272	1401.2278	64155.5	63242.65
882.4158	1403.0745	64143.85	63232.4
882.5595	1404.9204	64137.45	63226.65
882.7033	1406.7656	64135.35	63222.35
882.847	1408.6101	64124.5	63212.3
882.9908	1410.4538	64122.65	63209.55
883.1345	1412.2968	64120.45	63208
883.2782	1414.139	64104.95	63190.25
883.4219	1415.9805	64107.3	63195.05
883.5656	1417.8213	64099.75	63182.15
883.7092	1419.6613	64092.8	63180.55
883.8529	1421.5006	64094.5	63177.75
883.9965	1423.3391	64093	63179.7
884.1402	1425.1769	64086.8	63171.85
884.2838	1427.0139	64094.75	63183.4
884.4274	1428.8502	64087.1	63172.65
884.571	1430.6858	64088.4	63175.85
884.7146	1432.5206	64072.75	63160.1
884.8582	1434.3547	64094.45	63180.2
885.0018	1436.188	64090.6	63178.7
885.1453	1438.0206	64083.7	63170.1
885.2889	1439.8524	64070.5	63156.4
885.4324	1441.6835	64066.45	63153.3
885.5759	1443.5139	64068.4	63152.8
885.7194	1445.3435	64057.25	63146.9
885.8629	1447.1724	64044.15	63133.5
886.0064	1449.0005	64058.5	63145.7
886.1499	1450.8279	64050.5	63138.25
886.2933	1452.6545	64049.8	63138.35
886.4368	1454.4804	64055.6	63144.3
886.5802	1456.3056	64041.95	63124.55
886.7237	1458.13	64034.55	63124.65
886.8671	1459.9536	64029.55	63119.6
887.0105	1461.7766	64012.3	63100.1
887.1539	1463.5987	64013.85	63102.8
887.2972	1465.4202	64013.65	63101.45
887.4406	1467.2409	63997.6	63086.05
887.584	1469.0608	63989.05	63078.35
887.7273	1470.88	63991.85	63077.8
887.8706	1472.6984	63986.65	63075.7
888.0139	1474.5161	63971.75	63059.4
888.1572	1476.3331	63971.45	63059.65
888.3005	1478.1493	63966.75	63056.35
888.4438	1479.9648	63960.05	63048.6
888.5871	1481.7795	63954.85	63041.9
888.7303	1483.5935	63957.05	63044.45
888.8736	1485.4067	63944.6	63032.9
889.0168	1487.2192	63941.75	63028.55
889.16	1489.031	63928.2	63014.75
889.3032	1490.842	63930	63019.25
889.4464	1492.6522	63931	63021.8
889.5896	1494.4618	63908	62996.95
889.7327	1496.2705	63911.2	62998.8
889.8759	1498.0785	63849	62936.7
890.019	1499.8858	63907.75	62999.05
890.1622	1501.6924	63919.75	63010.95
890.3053	1503.4981	63883.25	62974.05
890.4484	1505.3032	63897.6	62988.45
890.5914	1507.1075	63855.95	62943.5
890.7345	1508.911	63835	62923.7
890.8776	1510.7138	63823.05	62911.35
891.0206	1512.5159	63849.5	62937.1
891.1637	1514.3172	63755.15	62844.85
891.3067	1516.1178	63778.7	62870.15
891.4497	1517.9176	63806.95	62895
891.5927	1519.7166	63758.05	62849.8
891.7357	1521.515	63737.95	62823.6
891.8786	1523.3126	63690.7	62779.75
892.0216	1525.1094	63738.05	62824.8
892.1645	1526.9055	63712.1	62803.15
892.3074	1528.7008	63726.45	62818.8
892.4503	1530.4954	63658.5	62747.1
892.5932	1532.2893	63710.45	62803.25
892.7361	1534.0824	63640.3	62727.9
892.879	1535.8747	63615.25	62710.9
893.0218	1537.6663	63690.45	62782.8
893.1647	1539.4572	63542.8	62634.2
893.3075	1541.2473	63580	62675.85
893.4503	1543.0367	63570.35	62663.55
893.5931	1544.8253	63554.75	62644.1
893.7359	1546.6132	63572.65	62664
893.8787	1548.4003	63534.4	62617.35
894.0214	1550.1867	63509.15	62594.9
894.1642	1551.9723	63514.6	62604.35
894.3069	1553.7572	63512	62606.05
894.4496	1555.5414	63531.8	62623.9
894.5923	1557.3247	63386.4	62481.95
894.735	1559.1074	63499.95	62598.15
894.8777	1560.8893	63461	62557
895.0204	1562.6705	63480.1	62577.3
895.163	1564.4509	63432.15	62529.35
895.3056	1566.2305	63452.45	62552.65
895.4482	1568.0094	63487.5	62585.75
895.5908	1569.7876	63455.3	62553
895.7334	1571.565	63383.4	62480.35
895.876	1573.3417	63413.75	62512.1
896.0186	1575.1176	63394.5	62492.25
896.1611	1576.8928	63368.4	62469.1
896.3036	1578.6672	63293.25	62396.8
896.4461	1580.4409	63335.35	62440.05
896.5886	1582.2138	63238.3	62336.55
896.7311	1583.986	63285.65	62381.65
896.8736	1585.7575	63188.55	62287.1
897.0161	1587.5282	63253.95	62356.7
897.1585	1589.2981	63252.1	62353.65
897.3009	1591.0673	63153.2	62254.7
897.4433	1592.8358	63084.35	62186.6
897.5857	1594.6035	63166.95	62265.95
897.7281	1596.3704	63195	62292.8
897.8705	1598.1366	63027.1	62127.75
898.0128	1599.9021	62949.45	62051.15
898.1551	1601.6668	63108.9	62206.15
898.2975	1603.4308	63014.1	62114.75
898.4398	1605.194	63035.4	62131.3
898.5821	1606.9564	62839.5	61942.95
898.7243	1608.7182	62958.95	62062.25
898.8666	1610.4791	62877.15	61987.5
899.0088	1612.2394	62984.5	62095.7
899.1511	1613.9988	62828.15	61936.3
899.2933	1615.7576	62989.6	62093.6
899.4355	1617.5156	62954.35	62050.45
899.5776	1619.2728	63088.3	62187.15
899.7198	1621.0293	62805.05	61906.75
899.862	1622.785	62798.2	61897.3
900.0041	1624.54	62891.85	61993.5
900.1462	1626.2942	62750.35	61855.3
900.2883	1628.0477	62537.65	61640.15
900.4304	1629.8005	62412.55	61512.65
900.5725	1631.5525	62571.5	61677.65
900.7145	1633.3037	62285.75	61392.2
900.8566	1635.0542	62281.15	61388.4
900.9986	1636.804	62402	61506
901.1406	1638.553	62166.05	61189.85
901.2826	1640.3013	62205.4	61308.5
901.4245	1642.0488	62058.9	61163.4
901.5665	1643.7955	62197.35	61304.65
901.7085	1645.5416	62074.25	61181.2
901.8504	1647.2868	61970.7	61074.6
901.9923	1649.0313	62152.35	61254.1
902.1342	1650.7751	62028.1	61129.05
902.2761	1652.5181	61926.65	61033
902.4179	1654.2604	61942.75	61050.65
902.5598	1656.0019	61979.4	61087.15
902.7016	1657.7427	61884.6	60991.85
902.8434	1659.4828	62027.8	61132.15
902.9852	1661.222	61848.1	60949.65
903.127	1662.9606	61971	61077.9
903.2687	1664.6984	61813.55	60917
903.4105	1666.4354	61841.5	60942.4
903.5522	1668.1717	61604.45	60706.7
903.6939	1669.9072	61355.35	60457.55
903.8356	1671.642	61334.45	60435.7
903.9773	1673.3761	61243.1	60348.4
904.119	1675.1094	61149.5	60254.65
904.2606	1676.8419	60854.95	59959.45
904.4022	1678.5737	60911.05	60014.8
904.5439	1680.3048	60803.35	59907.8
904.6855	1682.0351	60638.55	59741.35
904.827	1683.7646	60508.75	59608.15
904.9686	1685.4934	60617.5	59723.95
905.1101	1687.2215	59989.15	59096.1
905.2517	1688.9488	60433.15	59541.2
905.3932	1690.6754	59466.35	58572.35
905.5347	1692.4012	59971.15	59075.65
905.6761	1694.1263	60033.7	59137.4
905.8176	1695.8506	59585.8	58691.45
905.9591	1697.5742	59653.95	58760.7
906.1005	1699.297	59504.7	58612
906.2419	1701.0191	59560.85	58667.65
906.3833	1702.7404	58955.65	58064.15
906.5246	1704.461	58720.85	57827.2
906.666	1706.1808	59149.8	58255
906.8073	1707.8999	58889.1	57996.65
906.9487	1709.6182	58728.55	57835.4
907.09	1711.3358	58647.35	57755.75
907.2313	1713.0527	58520.8	57633.25
907.3725	1714.7688	58543.1	57645.85
907.5138	1716.4841	57848.7	56953.7
907.655	1718.1987	58104.95	57208.15
907.7962	1719.9126	57902.15	57010.5
907.9374	1721.6257	58008.8	57120
908.0786	1723.338	58003.1	57113.2
908.2198	1725.0496	57158.1	56266.05
908.3609	1726.7605	57266.45	56374
908.502	1728.4706	57013.5	56121.8
908.6431	1730.18	57209.25	56314.75
908.7842	1731.8886	56926.55	56036.6
908.9253	1733.5964	56725.4	55828.6
909.0664	1735.3036	57087.05	56193.75
909.2074	1737.0099	56765.45	55874.25
909.3484	1738.7156	56457.35	55567.3
909.4894	1740.4204	56323.4	55431.3
909.6304	1742.1246	56405.9	55514.7
909.7714	1743.8279	56527.4	55637.5
909.9123	1745.5306	56410.9	55519.15
910.0532	1747.2325	55560.25	54671.95
910.1941	1748.9336	55589.1	54697.05
910.335	1750.634	55694.65	54800.55
910.4759	1752.3336	55917.1	55027.2
910.6168	1754.0325	55337.3	54448.9
910.7576	1755.7307	55803.95	54915
910.8984	1757.4281	55143.75	54254.05
911.0392	1759.1247	55606.35	54705.75
911.18	1760.8206	54860.3	53963.3
911.3208	1762.5158	54934.8	54037
911.4615	1764.2102	54979.45	54088.2
911.6022	1765.9039	54775.2	53886
911.7429	1767.5968	54618.6	53731.6
911.8836	1769.289	54436.4	53546.25
912.0243	1770.9804	54556	53664
912.1649	1772.6711	54406.1	53514.75
912.3056	1774.361	54266.5	53372.2
912.4462	1776.0502	54199.5	53306
912.5868	1777.7386	53722.75	52827.7
912.7274	1779.4263	53873.15	52981.25
912.8679	1781.1132	53889.8	53001.3
913.0084	1782.7994	53696.2	52806.7
913.149	1784.4849	53785.55	52896.65
913.2895	1786.1696	53108.05	52213.5
913.4299	1787.8535	53451.8	52565.85
913.5704	1789.5367	53438.9	52551.35
913.7108	1791.2192	52981.3	52090.7
913.8513	1792.9009	52745.25	51824.3
913.9917	1794.5818	52933.7	52041.35
914.132	1796.2621	52656.2	51766.7
914.2724	1797.9415	52656.5	51766.2
914.4128	1799.6202	52523.9	51632.7
914.5531	1801.2982	52541	51651.05
914.6934	1802.9755	52208.7	51317.7
914.8337	1804.6519	52124.45	51233.3
914.9739	1806.3277	52355.05	51466.5
915.1142	1808.0027	51641.65	50756.2
915.2544	1809.6769	51822.6	50935.55
915.3946	1811.3504	51877.75	50987.75
915.5348	1813.0231	51344.85	50457.35
915.675	1814.6951	51627.2	50738.55
915.8151	1816.3664	51415.95	50522.05
915.9553	1818.0369	51359.8	50470.65
916.0954	1819.7067	51157.15	50267.45
916.2355	1821.3757	51401.9	50509.9
916.3755	1823.044	50948.2	50058.35
916.5156	1824.7115	50779.75	49890
916.6556	1826.3783	50786.3	49896.9
916.7956	1828.0443	50655.9	49770.85
916.9356	1829.7096	50469.1	49579.25
917.0756	1831.3741	50134.7	49241.35
917.2155	1833.0379	50294.7	49407.2
917.3555	1834.701	50203.6	49312.9
917.4954	1836.3633	49946.05	49058.95
917.6353	1838.0248	50019.5	49131.55
917.7751	1839.6856	49923.7	49033.6
917.915	1841.3457	49648.15	48759.15
918.0548	1843.005	49876.55	48986.95
918.1946	1844.6636	49589.35	48702.75
918.3344	1846.3214	49235.05	48345.6
918.4742	1847.9785	49286.1	48399
918.6139	1849.6349	49229.4	48339.8
918.7537	1851.2904	49365.4	48467.6
918.8934	1852.9453	48856.1	47965.55
919.0331	1854.5994	48960.75	48068.25
919.1727	1856.2528	48996.25	48098.9
919.3124	1857.9054	48611.6	47722.85
919.452	1859.5572	48553.9	47666.15
919.5916	1861.2083	48570.7	47680.2
919.7312	1862.8587	48797.95	47907.9
919.8708	1864.5084	48124.95	47233.35
920.0103	1866.1572	48280.1	47390.2
920.1498	1867.8054	47884.1	46993.9
920.2893	1869.4528	48082.45	47191.55
920.4288	1871.0994	47681.55	46789.3
920.5683	1872.7453	47643	46751.05
920.7077	1874.3905	47671.3	46775.9
920.8471	1876.0349	47359.9	46468.4
920.9865	1877.6786	47503.65	46611.35
921.1259	1879.3215	47317.4	46426.4
921.2653	1880.9637	47424.05	46534.15
921.4046	1882.6051	47207.4	46317.9
921.5439	1884.2458	46988.85	46098.85
921.6832	1885.8858	46750.55	45859.95
921.8225	1887.525	46807.2	45916.65
921.9617	1889.1634	46600.9	45711
922.101	1890.8011	46511.8	45619.75
922.2402	1892.4381	46209.15	45319.3
922.3794	1894.0743	46404.2	45515.3
922.5185	1895.7098	46188.15	45297.1
922.6577	1897.3446	46017.75	45125.6
922.7968	1898.9786	45961	45065.4
922.9359	1900.6118	45827.8	44940.5
923.075	1902.2443	45547.45	44656.5
923.214	1903.8761	45577.65	44686.35
923.3531	1905.5071	45305.85	44414.1
923.4921	1907.1374	45066.4	44177.55
923.6311	1908.7669	45111.55	44222.95
923.77	1910.3957	45104.4	44216.5
923.909	1912.0237	44721.9	43831.25
924.0479	1913.651	44614.7	43725.35
924.1868	1915.2776	44506.25	43619
924.3257	1916.9034	44339.85	43452
924.4646	1918.5285	44094.05	43206.65
924.6034	1920.1528	43973.7	43085.2
924.7422	1921.7764	43946.3	43059
924.881	1923.3992	43790.3	42902.6
925.0198	1925.0213	43493.85	42604.25
925.1586	1926.6427	43271.2	42383.15
925.2973	1928.2633	43470.3	42370.3
925.436	1929.8832	43177.6	42285.1
925.5747	1931.5023	42952.1	42064.55
925.7134	1933.1207	42773.35	41883.4
925.852	1934.7383	42804.9	41915.4
925.9906	1936.3552	42555.3	41666.55
926.1292	1937.9714	42466.75	41576.7
926.2678	1939.5868	42315	41423.55
926.4064	1941.2015	42075.85	41185
926.5449	1942.8154	41850.8	40960.2
926.6834	1944.4286	41733.55	40842
926.8219	1946.041	41655.1	40743.15
926.9604	1947.6528	41402.7	40507.5
927.0988	1949.2637	41350.75	40461.35
927.2372	1950.8739	41181.6	40291.4
927.3756	1952.4834	41167.95	40280.5
927.514	1954.0921	41087.3	40196.9
927.6523	1955.7001	40903.45	40010.3
927.7907	1957.3074	40758.2	39871.55
927.929	1958.9139	40542.6	39657.95
928.0673	1960.5197	40501.9	39613.1
928.2055	1962.1247	40254.55	39369.65
928.3438	1963.729	40086.7	39199.7
928.482	1965.3325	39948.05	39037.35
928.6202	1966.9353	39857.2	38972.15
928.7584	1968.5374	39691.8	38804.15
928.8965	1970.1387	39541.9	38655.5
929.0346	1971.7393	39428.2	38541.3
929.1727	1973.3392	39322.65	38437.15
929.3108	1974.9383	39126.8	38242.7
929.4489	1976.5366	38925.35	38040.7
929.5869	1978.1342	38936.85	38049.45
929.7249	1979.7311	38868.05	37981.05
929.8629	1981.3273	38685.7	37800.65
930.0009	1982.9227	38533.3	37650.2
930.1388	1984.5173	38416.95	37532.5
930.2767	1986.1112	38264.7	37381.9
930.4146	1987.7044	38264.95	37382.15
930.5525	1989.2968	38095.65	37207.6
930.6904	1990.8885	38004.65	37116.8
930.8282	1992.4795	37975.5	37090.9
930.966	1994.0697	37763.65	36879.35
931.1038	1995.6592	37648.25	36763.45
931.2415	1997.2479	37583.9	36699.6
931.3793	1998.8359	37442.4	36558.1
931.517	2000.4232	37238.3	36357
931.6547	2002.0097	37215.3	36333.3
931.7923	2003.5955	37018.4	36134.45
931.93	2005.1805	36994.65	36111.7
932.0676	2006.7648	36853.8	35972.1
932.2052	2008.3484	36709.6	35826.15
932.3427	2009.9312	36746.05	35860.4
932.4803	2011.5133	36558.7	35676.85
932.6178	2013.0946	36404.7	35521.7
932.7553	2014.6752	36344.25	35463.85
932.8928	2016.2551	36235.6	35354.15
933.0302	2017.8342	36069.3	35187.5
933.1676	2019.4126	35933.6	35053.05
933.305	2020.9902	35807.4	34926.55
933.4424	2022.5672	35766.65	34882.15
933.5798	2024.1433	35746.25	34861.45
933.7171	2025.7188	35557.9	34676.1
933.8544	2027.2935	35467.15	34583.7
933.9917	2028.8674	35308.8	34428.25
934.129	2030.4406	35215.75	34335.35
934.2662	2032.0131	34993.75	34113.35
934.4034	2033.5849	34934.25	34046.6
934.5406	2035.1559	34897.45	34017.95
934.6778	2036.7261	34823.25	33940.6
934.8149	2038.2957	34719.55	33838.45
934.952	2039.8645	34594.95	33712.8
935.0891	2041.4325	34605.35	33717.65
935.2262	2042.9998	34458.9	33577
935.3632	2044.5664	34386.2	33504.2
935.5002	2046.1323	34266.15	33385.05
935.6372	2047.6974	34115.3	33234.25
935.7742	2049.2617	34072.8	33192.8
935.9111	2050.8254	34037.9	33152
936.048	2052.3883	34007.7	33123.05
936.1849	2053.9504	33816.75	32934.4
936.3218	2055.5118	33730.1	32846.7
936.4586	2057.0725	33568	32679.7
936.5955	2058.6325	33462.4	32580.55
936.7323	2060.1917	33340.4	32458.8
936.869	2061.7502	33262.65	32377.8
937.0058	2063.3079	33140.5	32260.55
937.1425	2064.8649	33064.75	32178.15
937.2792	2066.4212	33030.05	32145.8
937.4159	2067.9767	32890.5	32007.85
937.5525	2069.5315	32697.25	31813.85
937.6891	2071.0856	32585.8	31703.45
937.8257	2072.6389	32482.05	31601.8
937.9623	2074.1915	32307.4	31427.55
938.0989	2075.7433	32159	31278.7
938.2354	2077.2945	32089.2	31207.95
938.3719	2078.8448	31998.8	31116.35
938.5084	2080.3945	31923.7	31041.4
938.6448	2081.9434	31848.45	30963.75
938.7812	2083.4916	31768	30882.45
938.9176	2085.039	31586.3	30699.45
939.054	2086.5857	31590.9	30703.1
939.1903	2088.1317	31516.85	30630.15
939.3267	2089.677	31409	30520
939.463	2091.2215	31318.05	30432
939.5992	2092.7652	31219	30328.95
939.7355	2094.3083	31136.65	30250.45
939.8717	2095.8506	31134.35	30249.8
940.0079	2097.3921	31060.2	30176.15
940.1441	2098.933	30931.15	30045
940.2802	2100.4731	30866.15	29984.4
940.4163	2102.0124	30819.1	29916.25
940.5524	2103.5511	30740.8	29855.35
940.6885	2105.089	30635.55	29751.3
940.8245	2106.6261	30567.7	29682.1
940.9606	2108.1626	30498.45	29613.6
941.0965	2109.6983	30479.85	29567.45
941.2325	2111.2332	30377.5	29491.3
941.3684	2112.7675	30246.3	29361.4
941.5044	2114.301	30164.7	29276.25
941.6403	2115.8337	30107.7	29222.7
941.7761	2117.3657	29988	29101.05
941.912	2118.897	29987.3	29102.15
942.0478	2120.4276	29870.2	28978.75
942.1835	2121.9575	29684.55	28797.4
942.3193	2123.4866	29726.5	28828.3
942.455	2125.0149	29626.35	28738.85
942.5907	2126.5426	29428.05	28544.95
942.7264	2128.0695	29370.3	28482.8
942.8621	2129.5956	29326.35	28444.9
942.9977	2131.1211	29238.15	28350.45
943.1333	2132.6458	29155.1	28273.6
943.2689	2134.1698	29116.9	28231
943.4044	2135.693	29044.2	28156.65
943.54	2137.2155	28956.45	28067.15
943.6755	2138.7373	28907.9	28024.6
943.8109	2140.2584	28763.45	27879.3
943.9464	2141.7787	28682.6	27793.4
944.0818	2143.2983	28541.05	27661
944.2172	2144.8171	28373.25	27492.85
944.3526	2146.3353	28327.2	27445.25
944.4879	2147.8527	28238.05	27356.65
944.6232	2149.3693	28232.1	27346.75
944.7585	2150.8853	28086.3	27201.25
944.8938	2152.4005	27957.7	27069.9
945.029	2153.9149	27942.45	27055.95
945.1642	2155.4287	27858.7	26974.65
945.2994	2156.9417	27752.65	26866
945.4346	2158.454	27685.3	26797.65
945.5697	2159.9655	27619.1	26735.8
945.7048	2161.4764	27570.15	26686.15
945.8399	2162.9865	27466.45	26582.45
945.9749	2164.4958	27365.2	26481.45
946.1099	2166.0045	27269.9	26384.3
946.2449	2167.5124	27249.15	26365.55
946.3799	2169.0195	27168.55	26283.9
946.5148	2170.526	27162.25	26277.6
946.6498	2172.0317	27036.3	26150.35
946.7846	2173.5367	26967.05	26081.25
946.9195	2175.0409	26929.7	26044.75
947.0543	2176.5445	26889.5	26006.65
947.1891	2178.0473	26744	25858.75
947.3239	2179.5494	26604.5	25716.5
947.4587	2181.0507	26540.1	25654.8
947.5934	2182.5513	26439	25557
947.7281	2184.0512	26383.05	25499.05
947.8628	2185.5504	26302.8	25419.25
947.9974	2187.0488	26144.9	25261.1
948.132	2188.5465	26105.95	25221.35
948.2666	2190.0435	26009.6	25125.3
948.4012	2191.5397	25848.65	24964.4
948.5357	2193.0353	25854.4	24968.7
948.6702	2194.5301	25696.4	24810.45
948.8047	2196.0241	25659.1	24771.15
948.9392	2197.5175	25536.5	24648
949.0736	2199.0101	25482.4	24592.9
949.208	2200.502	25363.55	24479.35
949.3424	2201.9931	25209.4	24322.9
949.4767	2203.4835	25168.55	24283.25
949.611	2204.9733	25108.6	24222.1
949.7453	2206.4622	25042.55	24160.95
949.8796	2207.9505	24934.75	24050.4
950.0138	2209.438	24803.95	23924.05
950.148	2210.9248	24790.4	23907.3
950.2822	2212.4109	24717.1	23833.65
950.4164	2213.8962	24595.95	23706.9
950.5505	2215.3809	24568.45	23680.05
950.6846	2216.8648	24492.1	23601.4
950.8186	2218.3479	24402.25	23509.6
950.9527	2219.8304	24272.45	23383.65
951.0867	2221.3121	24192.25	23302.5
951.2207	2222.7931	24141.45	23255.8
951.3546	2224.2733	24036.15	23149.25
951.4886	2225.7529	23929	23044.1
951.6225	2227.2317	23873.55	22986.65
951.7563	2228.7098	23844.95	22961.1
951.8902	2230.1872	23711.1	22828.7
952.024	2231.6638	23668.45	22784.5
952.1578	2233.1397	23559.55	22671
952.2916	2234.6149	23502.05	22621.25
952.4253	2236.0894	23436.75	22551.95
952.559	2237.5632	23353.45	22468.75
952.6927	2239.0362	23236.25	22351.5
952.8263	2240.5085	23186.9	22301.05
952.9599	2241.9801	23105.05	22219.95
953.0935	2243.4509	23028.8	22142.75
953.2271	2244.921	22953.05	22066.55
953.3606	2246.3904	22893.25	22004.95
953.4941	2247.8591	22797.25	21911.45
953.6276	2249.3271	22742.75	21857.2
953.7611	2250.7943	22639	21752.65
953.8945	2252.2608	22565.1	21678
954.0279	2253.7266	22459.75	21574.35
954.1612	2255.1917	22421.6	21533.65
954.2946	2256.656	22329.2	21445.3
954.4279	2258.1197	22267	21386.2
954.5612	2259.5826	22238.4	21352.55
954.6944	2261.0447	22198.65	21312.5
954.8276	2262.5062	22051.7	21164.15
954.9608	2263.9669	22041.4	21154.85
955.094	2265.4269	22001.3	21116.65
955.2271	2266.8862	21950.3	21064
955.3602	2268.3448	21854.3	20971.2
955.4933	2269.8026	21811.7	20927.05
955.6264	2271.2598	21680.95	20796.2
955.7594	2272.7162	21644.6	20763.45
955.8924	2274.1719	21599.65	20714.55
956.0253	2275.6268	21549	20663.25
956.1583	2277.0811	21504.45	20616.5
956.2912	2278.5346	21458.9	20577.8
956.4241	2279.9874	21391.75	20508.8
956.5569	2281.4395	21330.8	20447.65
956.6897	2282.8908	21224.9	20336.7
956.8225	2284.3414	21184.7	20295.6
956.9553	2285.7914	21136.3	20252.6
957.088	2287.2406	21064.55	20177.55
957.2207	2288.689	21001.3	20114.15
957.3534	2290.1368	20945.8	20058.45
957.486	2291.5838	20893.45	20001.8
957.6186	2293.0302	20824.85	19934.1
957.7512	2294.4758	20686.75	19800.25
957.8838	2295.9206	20623.75	19735
958.0163	2297.3648	20533	19648.55
958.1488	2298.8082	20506.9	19622.25
958.2813	2300.251	20466.35	19579.4
958.4137	2301.693	20379.4	19489.15
958.5461	2303.1343	20372.05	19484.95
958.6785	2304.5748	20317.5	19431.6
958.8108	2306.0147	20200.9	19314.45
958.9432	2307.4538	20146.8	19259.6
959.0754	2308.8922	20074.95	19190.1
959.2077	2310.3299	20046.75	19162.55
959.3399	2311.7669	19947.45	19064.9
959.4721	2313.2031	19900.85	19015.85
959.6043	2314.6387	19782.35	18894.75
959.7365	2316.0735	19759.75	18876.25
959.8686	2317.5076	19726.45	18839.05
960.0006	2318.941	19678.35	18791.75
960.1327	2320.3737	19635	18748.2
960.2647	2321.8056	19572.25	18682.3
960.3967	2323.2369	19483.3	18596.95
960.5287	2324.6674	19449.85	18561.55
960.6606	2326.0972	19366.55	18479.85
960.7925	2327.5263	19264.9	18377.95
960.9244	2328.9547	19218.55	18331.95
961.0562	2330.3823	19181.4	18294.3
961.1881	2331.8092	19137.35	18246.3
961.3198	2333.2355	19032.55	18144.75
961.4516	2334.661	19037.9	18149.45
961.5833	2336.0858	19004.8	18115.35
961.715	2337.5098	18941.85	18057
961.8467	2338.9332	18899.75	18011.8
961.9783	2340.3558	18843.6	17954.75
962.1099	2341.7778	18751.7	17866.9
962.2415	2343.199	18656.4	17768.4
962.373	2344.6195	18594.1	17708.35
962.5045	2346.0393	18583.95	17700.15
962.636	2347.4583	18524.8	17638.9
962.7675	2348.8767	18478.35	17590.85
962.8989	2350.2943	18445.35	17558.2
963.0303	2351.7113	18400.7	17510.95
963.1617	2353.1275	18313.85	17425.8
963.293	2354.543	18277.85	17382.15
963.4243	2355.9578	18209.5	17322.75
963.5556	2357.3718	18084.8	17198.1
963.6868	2358.7852	18036.75	17148.25
963.818	2360.1978	17939.8	17051.95
963.9492	2361.6098	17910.35	17023.2
964.0803	2363.021	17825.05	16937
964.2114	2364.4315	17804.85	16917.75
964.3425	2365.8413	17713.7	16823.45
964.4736	2367.2504	17676.65	16791.45
964.6046	2368.6587	17586.1	16703.4
964.7356	2370.0664	17522.1	16635.95
964.8666	2371.4733	17492.75	16606.9
964.9975	2372.8795	17430.55	16546.2
965.1284	2374.285	17352.7	16465.05
965.2593	2375.6899	17274.8	16392.25
965.3901	2377.0939	17190.25	16304.3
965.5209	2378.4973	17127.5	16243.65
965.6517	2379.9	17084.9	16199.05
965.7825	2381.3019	17021.8	16139.35
965.9132	2382.7032	16991.65	16106.1
966.0439	2384.1037	16942.45	16059.85
966.1745	2385.5035	16858.7	15976.75
966.3051	2386.9027	16827.15	15944.7
966.4357	2388.3011	16797.2	15911.1
966.5663	2389.6987	16730.95	15845.15
966.6968	2391.0957	16636.75	15752
966.8273	2392.492	16594.2	15711.1
966.9578	2393.8876	16516.75	15632.6
967.0882	2395.2824	16446.45	15561.35
967.2186	2396.6765	16370.05	15483.15
967.349	2398.07	16318.35	15433.6
967.4793	2399.4627	16286.8	15399.45
967.6097	2400.8547	16265.15	15378.7
967.7399	2402.246	16194.8	15304.1
967.8702	2403.6366	16081.05	15193.9
968.0004	2405.0265	16031.95	15147.8
968.1306	2406.4156	15961.45	15073.8
968.2607	2407.8041	15897.45	15008.55
968.3909	2409.1918	15847.75	14960.95
968.521	2410.5789	15773.75	14886.75
968.651	2411.9652	15737	14848.1
968.781	2413.3508	15666.75	14780.7
968.911	2414.7358	15593.7	14705.3
969.041	2416.12	15529.95	14645.9
969.1709	2417.5035	15499.85	14613.65
969.3008	2418.8863	15435.65	14550.15
969.4307	2420.2684	15382.2	14496.25
969.5606	2421.6497	15320.6	14433.15
969.6904	2423.0304	15204.5	14318.5
969.8201	2424.4104	15202.45	14316.45
969.9499	2425.7896	15135.05	14247.35
970.0796	2427.1682	15116.2	14230.65
970.2093	2428.546	15044.7	14155.8
970.3389	2429.9232	15050.55	14163
970.4685	2431.2996	14989.65	14102.8
970.5981	2432.6753	14983.85	14098.9
970.7277	2434.0503	14931.1	14044.95
970.8572	2435.4246	14830.2	13941.7
970.9867	2436.7982	14799.9	13911.4
971.1161	2438.1711	14752.35	13865.8
971.2456	2439.5433	14690.95	13802.15
971.375	2440.9148	14635.9	13748.85
971.5043	2442.2856	14581.2	13694.35
971.6336	2443.6557	14524.55	13636.3
971.7629	2445.025	14441.45	13555.4
971.8922	2446.3937	14453.6	13568.2
972.0214	2447.7617	14408.8	13520.8
972.1506	2449.1289	14345.05	13460.7
972.2798	2450.4955	14274.95	13385.3
972.4089	2451.8613	14266.2	13380.95
972.538	2453.2265	14210.7	13326.2
972.6671	2454.5909	14170.3	13284.9
972.7961	2455.9546	14138	13252.25
972.9251	2457.3177	14097.65	13214.6
973.0541	2458.68	14040.2	13153.95
973.1831	2460.0416	14019.1	13134
973.312	2461.4025	14001.55	13116.5
973.4408	2462.7627	13936.2	13040.8
973.5697	2464.1222	13875.45	12991.7
973.6985	2465.4811	13849.7	12963.1
973.8273	2466.8392	13781.3	12897.75
973.956	2468.1966	13761.75	12875.7
974.0847	2469.5533	13754.1	12866.55
974.2134	2470.9093	13715.2	12827.95
974.3421	2472.2645	13646.65	12759.85
974.4707	2473.6191	13596.25	12713.1
974.5993	2474.973	13548.45	12663.5
974.7278	2476.3262	13520.55	12631.7
974.8563	2477.6787	13473.4	12589.55
974.9848	2479.0305	13380.95	12495.8
975.1132	2480.3816	13327.25	12439.55
975.2417	2481.7319	13279.45	12393.7
975.37	2483.0816	13272.35	12385.3
975.4984	2484.4306	13213	12326.95
975.6267	2485.7789	13114.6	12231.7
975.755	2487.1264	13092.05	12206.35
975.8833	2488.4733	13050.15	12168.95
976.0115	2489.8195	13011.35	12119.3
976.1397	2491.165	12956.05	12068.5
976.2678	2492.5097	12919.9	12031.8
976.3959	2493.8538	12850.95	11968.9
976.524	2495.1972	12793.6	11907.3
976.6521	2496.5398	12739.45	11852.1
976.7801	2497.8818	12701.05	11813.5
976.9081	2499.2231	12696.55	11810.45
977.036	2500.5637	12625.65	11737.55
977.164	2501.9035	12591.15	11705.35
977.2918	2503.2427	12567.65	11678.1
977.4197	2504.5812	12493.5	11607.8
977.5475	2505.919	12481.6	11593.2
977.6753	2507.256	12453.05	11566.25
977.8031	2508.5924	12371.05	11487.1
977.9308	2509.9281	12351.75	11459.95
978.0585	2511.2631	12308.3	11424.05
978.1861	2512.5974	12250.2	11367.6
978.3137	2513.9309	12192.7	11307.85
978.4413	2515.2638	12196	11280.65
978.5689	2516.596	12139.15	11252.75
978.6964	2517.9275	12079.65	11193.75
978.8239	2519.2583	12052.05	11166.85
978.9513	2520.5884	11966.25	11078.55
979.0788	2521.9178	11958.75	11073.95
979.2062	2523.2465	11894.35	11009.8
979.3335	2524.5745	11849.3	10962.7
979.4608	2525.9018	11803.8	10917.3
979.5881	2527.2284	11778.8	10895.15
979.7154	2528.5543	11747.45	10863.4
979.8426	2529.8796	11734	10850.1
979.9698	2531.2041	11723.3	10837.1
980.0969	2532.5279	11671.2	10789.1
980.224	2533.851	11660.4	10773.35
980.3511	2535.1735	11612.1	10726.65
980.4781	2536.4952	11582.9	10696.15
980.6052	2537.8163	11547.6	10661.4
980.7321	2539.1366	11523.55	10638.1
980.8591	2540.4562	11484.85	10597.7
980.986	2541.7752	11458.75	10572.8
981.1129	2543.0935	11437.35	10549.8
981.2397	2544.411	11408.5	10521.05
981.3665	2545.7279	11390.95	10506.05
981.4933	2547.0441	11351.3	10464.1
981.62	2548.3596	11334.8	10445.8
981.7467	2549.6744	11323.75	10438.65
981.8734	2550.9885	11270.7	10375.4
982.0001	2552.3019	11234.5	10350.75
982.1267	2553.6146	11210.55	10323.65
982.2532	2554.9266	11165.5	10279.45
982.3798	2556.2379	11131	10244.25
982.5063	2557.5485	11093.35	10210.9
982.6327	2558.8585	11061.45	10170.05
982.7592	2560.1677	11064.3	10173.55
982.8856	2561.4762	11055.9	10168.75
983.0119	2562.7841	10998.25	10109.1
983.1383	2564.0913	10969.7	10086.65
983.2646	2565.3977	10958.2	10073.05
983.3908	2566.7035	10901.7	10016.55
983.517	2568.0086	10913.75	10026.9
983.6432	2569.313	10904.4	10019
983.7694	2570.6167	10850.7	9962.25
983.8955	2571.9197	10818.6	9932.55
984.0216	2573.222	10826.9	9937.9
984.1476	2574.5236	10799.45	9912.9
984.2737	2575.8246	10754.35	9864.8
984.3996	2577.1248	10721.25	9833.7
984.5256	2578.4244	10722.1	9835.1
984.6515	2579.7232	10677.9	9792.8
984.7774	2581.0214	10666.1	9757.3
984.9032	2582.3189	10596.65	9712.75
985.029	2583.6157	10607.15	9718.25
985.1548	2584.9118	10592.45	9706.9
985.2806	2586.2072	10544.9	9660
985.4063	2587.5019	10508.8	9623.1
985.5319	2588.7959	10483.2	9596.85
985.6576	2590.0893	10471.15	9583.25
985.7832	2591.3819	10444.2	9559.35
985.9087	2592.6739	10418.05	9533.2
986.0343	2593.9652	10349.75	9464.85
986.1597	2595.2557	10331.3	9446.95
986.2852	2596.5456	10281.6	9393.4
986.4106	2597.8348	10238.45	9354.5
986.536	2599.1234	10213.55	9328.8
986.6614	2600.4112	10179.05	9291.7
986.7867	2601.6983	10123.85	9235.85
986.912	2602.9848	10110.2	9222.9
987.0372	2604.2705	10073.2	9180.35
987.1624	2605.5556	10023.65	9137.9
987.2876	2606.84	9993.75	9108.3
987.4128	2608.1237	9977.65	9092.75
987.5379	2609.4067	9915.15	9030.7
987.6629	2610.689	9889.7	8995.4
987.788	2611.9707	9854.7	8964.75
987.913	2613.2516	9814.55	8924.3
988.0379	2614.5319	9778.9	8892.8
988.1629	2615.8115	9735.45	8849.95
988.2878	2617.0903	9684.95	8798.75
988.4126	2618.3685	9643.55	8758.25
988.5375	2619.6461	9625.55	8738.35
988.6622	2620.9229	9584.5	8699
988.787	2622.199	9565	8680.3
988.9117	2623.4745	9518.85	8632.8
989.0364	2624.7493	9471.75	8587.4
989.161	2626.0234	9473.75	8588.75
989.2857	2627.2968	9442.2	8557.4
989.4102	2628.5695	9392.7	8505.75
989.5348	2629.8415	9346.3	8462.15
989.6593	2631.1128	9310.8	8424.15
989.7837	2632.3835	9267.5	8382.6
989.9082	2633.6535	9229.15	8345.1
990.0326	2634.9228	9210.7	8325.45
990.1569	2636.1914	9200.9	8315.65
990.2812	2637.4593	9152.65	8262.65
990.4055	2638.7265	9117.25	8230.85
990.5298	2639.9931	9088.2	8203
990.654	2641.259	9063.85	8177.8
990.7782	2642.5242	9062.9	8177.5
990.9023	2643.7887	8994.05	8111.25
991.0264	2645.0525	8969.95	8083.85
991.1505	2646.3156	8916.85	8029.55
991.2745	2647.5781	8909	8024.85
991.3985	2648.8398	8875.6	7991.4
991.5225	2650.1009	8879.9	7956.75
991.6464	2651.3613	8859.4	7974.15
991.7703	2652.6211	8820.45	7936.15
991.8942	2653.8801	8788.15	7903.05
992.018	2655.1385	8751.95	7863.6
992.1418	2656.3961	8718.5	7834.95
992.2655	2657.6531	8704.9	7821.4
992.3892	2658.9094	8695.45	7812.1
992.5129	2660.1651	8653.25	7769.65
992.6366	2661.42	8646.9	7762.7
992.7602	2662.6743	8648.2	7762.5
992.8837	2663.9279	8611.7	7727.2
993.0073	2665.1808	8601.75	7715.2
993.1307	2666.433	8550.25	7662.4
993.2542	2667.6846	8504.65	7621.9
993.3776	2668.9354	8480.35	7594.8
993.501	2670.1856	8483.35	7598.75
993.6244	2671.4351	8470.55	7588.2
993.7477	2672.6839	8443.9	7558.3
993.8709	2673.9321	8390	7507
993.9942	2675.1795	8393.55	7508.6
994.1174	2676.4263	8352.45	7468.4
994.2405	2677.6724	8318.1	7433.55
994.3637	2678.9179	8291.15	7404.65
994.4868	2680.1626	8273.15	7389.15
994.6098	2681.4067	8252.4	7367.15
994.7328	2682.6501	8233.7	7351.3
994.8558	2683.8928	8193.95	7311.95
994.9788	2685.1348	8155.65	7272.85
995.1017	2686.3761	8129.35	7244.95
995.2245	2687.6168	8123.7	7237.6
995.3474	2688.8568	8092.3	7208.25
995.4702	2690.0961	8044.4	7161.15
995.5929	2691.3348	8048.8	7164.75
995.7156	2692.5727	8021.7	7135.15
995.8383	2693.81	7980.5	7098.8
995.961	2695.0466	7954.15	7071.45
996.0836	2696.2826	7929.9	7042.6
996.2062	2697.5178	7912.05	7025.75
996.3287	2698.7524	7883.2	6998.25
996.4512	2699.9863	7873.6	6986.8
996.5737	2701.2195	7816.6	6933.7
996.6961	2702.452	7812.35	6926.05
996.8185	2703.6839	7805.1	6921.2
996.9408	2704.9151	7777.8	6893.35
997.0631	2706.1456	7737.95	6852.7
997.1854	2707.3755	7710.5	6826.5
997.3077	2708.6046	7672.8	6785.05
997.4299	2709.8331	7676.9	6793.35
997.552	2711.0609	7641.6	6756.65
997.6742	2712.2881	7622.3	6738.3
997.7963	2713.5145	7596.55	6709.9
997.9183	2714.7403	7589.2	6704.65
998.0403	2715.9654	7562.45	6677.95
998.1623	2717.1899	7538.25	6652.5
998.2842	2718.4136	7508	6623.45
998.4062	2719.6367	7492.75	6607.45
998.528	2720.8591	7466.7	6575.3
998.6498	2722.0809	7447.6	6562
998.7716	2723.3019	7431.75	6542.4
998.8934	2724.5223	7406.55	6520.95
999.0151	2725.7421	7389.15	6505.15
999.1368	2726.9611	7379.1	6490.4
999.2584	2728.1795	7334.7	6447.4
999.38	2729.3972	7301.2	6417.45
999.5016	2730.6142	7284.55	6392.6
999.6231	2731.8306	7248.45	6363.85
999.7446	2733.0462	7213	6325.95
999.8661	2734.2612	7165.6	6276.95
999.9875	2735.4756	7133.55	6247.6
1000.1089	2736.6892	7105.75	6219.45
1000.2302	2737.9022	7060.3	6178.3
1000.3515	2739.1145	7046.05	6162
1000.4728	2740.3262	7005	6114.15
1000.594	2741.5372	6979.1	6094.85
1000.7152	2742.7475	6937.45	6052.75
1000.8363	2743.9571	6897.35	6012.5
1000.9575	2745.1661	6883.75	5993.55
1001.0785	2746.3744	6859.55	5975.4
1001.1996	2747.582	6826.3	5941.55
1001.3206	2748.7889	6814	5929.9
1001.4415	2749.9952	6803.45	5920.45
1001.5625	2751.2008	6766.7	5883.7
1001.6833	2752.4057	6752.05	5867.3
1001.8042	2753.61	6718.15	5835.55
1001.925	2754.8136	6709.65	5822.3
1002.0458	2756.0165	6643.25	5760.3
1002.1665	2757.2188	6641.15	5760.3
1002.2872	2758.4204	6605.5	5719.95
1002.4078	2759.6213	6592.35	5708.35
1002.5285	2760.8215	6585.3	5695.8
1002.649	2762.0211	6560.8	5676.15
1002.7696	2763.22	6538.6	5650.55
1002.8901	2764.4182	6530.05	5643.95
1003.0106	2765.6158	6500.65	5615.9
1003.131	2766.8127	6469.65	5585.8
1003.2514	2768.009	6435	5551.3
1003.3717	2769.2045	6430.45	5544.35
1003.492	2770.3994	6415.6	5531.3
1003.6123	2771.5936	6391.8	5508.9
1003.7325	2772.7872	6359.75	5475.85
1003.8527	2773.9801	6321.35	5438.45
1003.9729	2775.1723	6310.55	5409.15
1004.093	2776.3639	6301.95	5421.3
1004.2131	2777.5548	6269.05	5384.5
1004.3331	2778.745	6241.95	5356.75
1004.4531	2779.9346	6223.8	5342.75
1004.5731	2781.1235	6204.4	5319.2
1004.693	2782.3117	6186.3	5305.15
1004.8129	2783.4992	6165.95	5283.7
1004.9328	2784.6861	6144.65	5261.55
1005.0526	2785.8723	6139.35	5255.4
1005.1723	2787.0579	6118.1	5236.15
1005.2921	2788.2428	6122	5237.95
1005.4118	2789.427	6091	5208.05
1005.5314	2790.6106	6085.05	5202.25
1005.651	2791.7935	6049.75	5165.25
1005.7706	2792.9757	6027.95	5145.5
1005.8902	2794.1573	6010.4	5124.9
1006.0097	2795.3382	5992.55	5108.7
1006.1291	2796.5184	5988.7	5107.6
1006.2485	2797.698	5967.65	5081.85
1006.3679	2798.8769	5956.8	5073.15
1006.4873	2800.0551	5946.2	5060.75
1006.6066	2801.2327	5934.95	5048.9
1006.7258	2802.4096	5913.9	5030.55
1006.8451	2803.5859	5913.3	5029.95
1006.9642	2804.7615	5896.5	5013
1007.0834	2805.9364	5875.55	4993
1007.2025	2807.1106	5872.5	4992.8
1007.3216	2808.2842	5885.1	4997.9
1007.4406	2809.4572	5901.45	5018.5
1007.5596	2810.6294	5898.05	5014.35
1007.6785	2811.801	5894.55	5011.8
1007.7975	2812.972	5916.65	5035.35
1007.9163	2814.1423	5922.3	5038.3
1008.0352	2815.3119	5945.8	5061.25
1008.154	2816.4808	5939.6	5059.45
1008.2727	2817.6491	5975	5091.75
1008.3914	2818.8167	5987.55	5105.9
1008.5101	2819.9837	6027.65	5141.9
1008.6288	2821.15	6033.35	5150.95
1008.7474	2822.3157	6056.9	5175.75
1008.8659	2823.4807	6081.75	5198.1
1008.9844	2824.645	6117.95	5233.05
1009.1029	2825.8086	6120.85	5239.85
1009.2214	2826.9716	6147.4	5266.2
1009.3398	2828.134	6189	5309.7
1009.4581	2829.2957	6201.5	5318.2
1009.5764	2830.4567	6229	5348.1
1009.6947	2831.617	6227.25	5344.9
1009.813	2832.7767	6219.8	5337
1009.9312	2833.9358	6199.3	5319.1
1010.0493	2835.0941	6179.2	5293.6
1010.1675	2836.2519	6162.95	5280.7
1010.2855	2837.4089	6152.7	5270.25
1010.4036	2838.5653	6110.75	5228.6
1010.5216	2839.7211	6087.75	5206.1
1010.6396	2840.8761	6066.4	5181.05
1010.7575	2842.0306	6069.15	5188.05
1010.8754	2843.1843	6083.95	5203.2
1010.9932	2844.3374	6102.2	5220.25
1011.111	2845.4899	6125.8	5242.5
1011.2288	2846.6417	6136.15	5254.75
1011.3465	2847.7928	6158.5	5276.05
1011.4642	2848.9433	6206.65	5323.45
1011.5818	2850.0931	6251.3	5368.05
1011.6995	2851.2422	6279.6	5396.1
1011.817	2852.3907	6318.85	5435.85
1011.9345	2853.5385	6350.25	5465.7
1012.052	2854.6857	6355.1	5461.85
1012.1695	2855.8323	6374.85	5492.95
1012.2869	2856.9781	6397.55	5516.15
1012.4042	2858.1233	6412.15	5529.55
1012.5216	2859.2679	6429.2	5549.7
1012.6389	2860.4118	6445.85	5563.5
1012.7561	2861.555	6469.15	5581.35
1012.8733	2862.6976	6489.95	5606.6
1012.9905	2863.8395	6487.05	5607.1
1013.1076	2864.9808	6496.8	5614.9
1013.2247	2866.1214	6482.55	5602.9
1013.3417	2867.2614	6515.95	5633
1013.4587	2868.4007	6490.2	5609.3
1013.5757	2869.5393	6468.65	5583.9
1013.6926	2870.6773	6457.95	5573.85
1013.8095	2871.8146	6457.6	5574.35
1013.9263	2872.9513	6446.15	5561.75
1014.0431	2874.0874	6422.2	5538.2
1014.1599	2875.2227	6404.55	5520.75
1014.2766	2876.3574	6367.65	5485.85
1014.3933	2877.4915	6331.05	5450.85
1014.51	2878.6249	6296.7	5412.3
1014.6266	2879.7577	6272.25	5388.7
1014.7431	2880.8898	6247.8	5354.55
1014.8596	2882.0212	6205.55	5326.55
1014.9761	2883.152	6189.5	5307.35
1015.0925	2884.2821	6154.15	5273.6
1015.2089	2885.4116	6124.05	5242.8
1015.3253	2886.5405	6083.05	5203.25
1015.4416	2887.6686	6100.9	5216.05
1015.5579	2888.7962	6080.65	5200.15
1015.6741	2889.923	6063.45	5182.8
1015.7903	2891.0493	6085.95	5206.2
1015.9065	2892.1748	6063.35	5181.8
1016.0226	2893.2997	6045.25	5162.5
1016.1387	2894.424	6048.15	5168.3
1016.2547	2895.5476	6032.8	5148.4
1016.3707	2896.6706	6030.45	5150.55
1016.4866	2897.7929	6030.55	5150
1016.6025	2898.9145	6030.4	5147.2
1016.7184	2900.0355	6050	5169.65
1016.8342	2901.1559	6055.7	5173.1
1016.95	2902.2756	6038.25	5155.4
1017.0658	2903.3946	6062.15	5180.2
1017.1815	2904.513	6063.05	5177
1017.2971	2905.6308	6053.2	5173.75
1017.4127	2906.7479	6062.6	5180
1017.5283	2907.8643	6079.4	5198.25
1017.6439	2908.9801	6064.45	5184.6
1017.7594	2910.0953	6051.2	5168.35
1017.8748	2911.2098	6031.05	5148.05
1017.9902	2912.3236	6037.8	5150
1018.1056	2913.4368	5979.05	5092.95
1018.2209	2914.5494	5967.8	5086.05
1018.3362	2915.6613	5939.2	5049.85
1018.4515	2916.7725	5899.35	5014.7
1018.5667	2917.8831	5880.35	4996.75
1018.6819	2918.9931	5842.45	4958.55
1018.797	2920.1024	5798.3	4916.8
1018.9121	2921.211	5776.9	4894.05
1019.0271	2922.319	5757.3	4875.95
1019.1421	2923.4264	5737.6	4858.85
1019.2571	2924.5331	5724.45	4845.05
1019.372	2925.6391	5706.25	4826.5
1019.4869	2926.7445	5674.3	4794.95
1019.6017	2927.8493	5682	4800.1
1019.7165	2928.9534	5670.85	4788.65
1019.8313	2930.0569	5647.7	4762.8
1019.946	2931.1597	5633.7	4751.3
1020.0606	2932.2619	5631.1	4748.55
1020.1753	2933.3634	5616.15	4735.1
1020.2899	2934.4643	5634.1	4744.85
1020.4044	2935.5645	5578.95	4691.9
1020.5189	2936.6641	5563.6	4678.9
1020.6334	2937.763	5515.9	4634.1
1020.7478	2938.8613	5467.25	4584.8
1020.8622	2939.959	5428.4	4542.3
1020.9765	2941.056	5372.65	4492.05
1021.0908	2942.1523	5306.5	4423.65
1021.2051	2943.248	5246.25	4363.45
1021.3193	2944.3431	5168.45	4286.5
1021.4334	2945.4375	5084.5	4202.2
1021.5476	2946.5313	5018.1	4139.15
1021.6617	2947.6244	4910.85	4030.9
1021.7757	2948.7169	4824.55	3942.05
1021.8897	2949.8087	4752.7	3870.8
1022.0037	2950.8999	4683.65	3803.25
1022.1176	2951.9904	4607.55	3727.8
1022.2315	2953.0803	4555.7	3673.15
1022.3453	2954.1696	4503.8	3623.2
1022.4591	2955.2582	4432.6	3553.4
1022.5728	2956.3462	4383.45	3502.7
1022.6865	2957.4335	4345.85	3463.45
1022.8002	2958.5202	4313.95	3429.05
1022.9138	2959.6062	4273.15	3390.35
1023.0274	2960.6916	4259.15	3376.5
1023.141	2961.7764	4217.45	3335.7
1023.2545	2962.8605	4202.95	3321.85
1023.3679	2963.9439	4185	3306.35
1023.4813	2965.0267	4163.7	3280.1
1023.5947	2966.1089	4160.85	3256.3
1023.708	2967.1905	4122.8	3243.05
1023.8213	2968.2714	4095.2	3214.65
1023.9346	2969.3516	4082.8	3202.1
1024.0478	2970.4312	4094.45	3205
1024.1609	2971.5102	4062.3	3181.65
1024.274	2972.5885	4063.15	3183.35
1024.3871	2973.6662	4052.1	3165.55
1024.5002	2974.7432	4036.4	3157.1
1024.6132	2975.8196	4027.55	3146
1024.7261	2976.8954	4020.05	3138.45
1024.839	2977.9705	4002.15	3122.55
1024.9519	2979.045	3977.75	3097.5
1025.0647	2980.1188	3964.7	3085.1
1025.1775	2981.192	3928.95	3049.4
1025.2902	2982.2645	3906.8	3024.15
1025.4029	2983.3364	3888.5	3008.3
1025.5156	2984.4077	3862.45	2982.35
1025.6282	2985.4783	3832.4	2945.1
1025.7407	2986.5483	3799.15	2919.85
1025.8532	2987.6177	3751.45	2870.5
1025.9657	2988.6864	3736.8	2858.25
1026.0782	2989.7545	3702.45	2818.3
1026.1906	2990.8219	3672.95	2793.55
1026.3029	2991.8887	3636.5	2754.25
1026.4152	2992.9548	3617.7	2735.1
1026.5275	2994.0204	3569.05	2687.6
1026.6397	2995.0852	3542.25	2662.45
1026.7519	2996.1495	3521.8	2638.8
1026.864	2997.2131	3481.65	2599.45
1026.9761	2998.276	3454.3	2573.2
1027.0882	2999.3383	3433.15	2553.45
1027.2002	3000.4	3420.75	2538.25
1027.3122	3001.4611	3385.95	2506.4
1027.4241	3002.5215	3366.9	2486.05
1027.536	3003.5812	3341.5	2461.75
1027.6478	3004.6404	3335.45	2454.9
1027.7596	3005.6989	3316.3	2432.4
1027.8714	3006.7567	3294.9	2414.75
1027.9831	3007.8139	3302.35	2391.2
1028.0947	3008.8705	3270.55	2389.05
1028.2064	3009.9264	3252.25	2368
1028.3179	3010.9818	3246	2364.5
1028.4295	3012.0364	3228.85	2347.7
1028.541	3013.0905	3217.75	2335.7
1028.6524	3014.1439	3205.8	2324.85
1028.7638	3015.1966	3191.85	2312
1028.8752	3016.2487	3183.45	2304.05
1028.9865	3017.3002	3170.85	2286.55
1029.0978	3018.3511	3151.6	2273.7
1029.209	3019.4013	3160.85	2278.65
1029.3202	3020.4509	3147.35	2269.2
1029.4314	3021.4998	3136.2	2254.65
1029.5425	3022.5481	3122.25	2241.65
1029.6535	3023.5958	3112.85	2233.8
1029.7645	3024.6428	3108	2226.2
1029.8755	3025.6892	3083.1	2202.8
1029.9864	3026.735	3083.85	2203.45
1030.0973	3027.7802	3082.4	2202.05
1030.2082	3028.8247	3071.8	2190.25
1030.319	3029.8685	3042.95	2160.55
1030.4297	3030.9118	3056.55	2177
1030.5404	3031.9544	3044.7	2165.05
1030.6511	3032.9963	3034.5	2152.05
1030.7617	3034.0376	3023.25	2142.5
1030.8723	3035.0783	3020.65	2139.2
1030.9829	3036.1184	3021.1	2138.55
1031.0934	3037.1578	3020.6	2141.45
1031.2038	3038.1966	3006.6	2124.7
1031.3142	3039.2348	2994.4	2114.15
1031.4246	3040.2723	2987.25	2099.3
1031.5349	3041.3092	2977.5	2099.7
1031.6452	3042.3455	2983.95	2103.15
1031.7554	3043.3811	2959.7	2078.45
1031.8656	3044.4161	2960.45	2079.1
1031.9758	3045.4505	2939.2	2059.2
1032.0859	3046.4842	2939.2	2057.4
1032.1959	3047.5173	2920.05	2041.45
1032.3059	3048.5498	2915.15	2035.1
1032.4159	3049.5816	2908.5	2028.45
1032.5258	3050.6128	2897.95	2016.7
1032.6357	3051.6434	2894.15	2013.85
1032.7455	3052.6734	2877.55	1996
1032.8553	3053.7027	2858.95	1978.25
1032.9651	3054.7314	2847.75	1968.3
1033.0748	3055.7594	2847.1	1968.4
1033.1845	3056.7868	2834.85	1953.05
1033.2941	3057.8136	2829.45	1948.9
1033.4037	3058.8398	2811.7	1931.5
1033.5132	3059.8653	2809.7	1929.65
1033.6227	3060.8902	2800.35	1920.9
1033.7321	3061.9145	2797.9	1918.7
1033.8415	3062.9381	2783.05	1903.1
1033.9509	3063.9612	2786.5	1888.95
1034.0602	3064.9835	2755.75	1877.4
1034.1694	3066.0053	2749.35	1866.15
1034.2787	3067.0264	2749.7	1870.65
1034.3878	3068.0469	2741.9	1860.05
1034.497	3069.0668	2722.4	1839.1
1034.6061	3070.086	2711.05	1832
1034.7151	3071.1046	2698.25	1819.8
1034.8241	3072.1226	2685	1802.15
1034.9331	3073.1399	2676.15	1797.1
1035.042	3074.1567	2657	1776.9
1035.1508	3075.1727	2651	1771.2
1035.2597	3076.1882	2638.95	1758.7
1035.3684	3077.203	2633.75	1754.4
1035.4772	3078.2173	2614.45	1732.55
1035.5859	3079.2308	2617.15	1732.25
1035.6945	3080.2438	2609.6	1729.7
1035.8031	3081.2561	2585.6	1706.4
1035.9117	3082.2678	2571.05	1690.6
1036.0202	3083.2789	2571.1	1692.55
1036.1286	3084.2893	2560.45	1680.25
1036.2371	3085.2991	2538.2	1657.05
1036.3454	3086.3083	2546.05	1662.25
1036.4538	3087.3169	2529.7	1648.7
1036.562	3088.3248	2528.9	1646.75
1036.6703	3089.3321	2504.85	1623.2
1036.7785	3090.3388	2493.05	1612.5
1036.8866	3091.3449	2489.4	1609.9
1036.9948	3092.3503	2473.6	1589.65
1037.1028	3093.3551	2469.15	1591.6
1037.2108	3094.3593	2458.5	1578.25
1037.3188	3095.3629	2451	1570.55
1037.4267	3096.3658	2453.1	1571.05
1037.5346	3097.3681	2432.15	1553.35
1037.6425	3098.3698	2425.35	1543.75
1037.7503	3099.3708	2423.75	1536.8
1037.858	3100.3713	2403.8	1525.9
1037.9657	3101.3711	2395.75	1515.05
1038.0734	3102.3702	2505.55	1488.55
1038.181	3103.3688	2393.4	1512.05
1038.2886	3104.3667	2370.1	1490
1038.3961	3105.364	2353.5	1472.45
1038.5036	3106.3607	2349.1	1467.85
1038.611	3107.3568	2346.75	1466.7
1038.7184	3108.3522	2344.15	1465.35
1038.8257	3109.347	2327.95	1448.15
1038.933	3110.3412	2325.45	1443
1039.0403	3111.3348	2305.5	1427.15
1039.1475	3112.3277	2299.2	1420.2
1039.2547	3113.32	2284.95	1406.8
1039.3618	3114.3117	2293.5	1414.15
1039.4689	3115.3028	2284.05	1403.45
1039.5759	3116.2932	2269.65	1387.2
1039.6829	3117.2831	2264.8	1378.85
1039.7898	3118.2723	2250.6	1370.95
1039.8967	3119.2608	2248.35	1367.55
1040.0035	3120.2488	2239.2	1359.3
1040.1103	3121.2361	2231.7	1348.7
1040.2171	3122.2229	2222.55	1340.55
1040.3238	3123.209	2202.45	1322.65
1040.4305	3124.1944	2196.25	1318.9
1040.5371	3125.1793	2196.95	1314.2
1040.6437	3126.1635	2186.1	1306.95
1040.7502	3127.1471	2180.5	1300.6
1040.8567	3128.1301	2178.95	1298.75
1040.9631	3129.1125	2162.45	1283.05
1041.0695	3130.0942	2160.45	1279.9
1041.1759	3131.0753	2169.3	1280.4
1041.2822	3132.0558	2155.8	1273.1
1041.3884	3133.0357	2152.5	1272.75
1041.4946	3134.015	2133.75	1253.15
1041.6008	3134.9936	2139.85	1258.95
1041.7069	3135.9716	2144.3	1244.9
1041.813	3136.949	2123.3	1243.4
1041.919	3137.9258	2124.55	1238.05
1042.025	3138.902	2110.5	1225.4
1042.1309	3139.8775	2112.5	1231
1042.2368	3140.8524	2110.4	1230.05
1042.3427	3141.8267	2093.6	1210.85
1042.4485	3142.8004	2093.85	1214.1
1042.5542	3143.7735	2093.5	1207.75
1042.6599	3144.7459	2089.65	1208.75
1042.7656	3145.7178	2075.2	1194.15
1042.8712	3146.689	2068.25	1191.1
1042.9768	3147.6596	2072.95	1191.55
1043.0823	3148.6295	2055.6	1177.05
1043.1878	3149.5989	2047.65	1167.35
1043.2932	3150.5676	2037.75	1161.4
1043.3986	3151.5357	2034.3	1156.6
1043.5039	3152.5032	2037.8	1157.2
1043.6092	3153.4701	2026.9	1149.3
1043.7145	3154.4364	2021.2	1138.35
1043.8197	3155.402	2010.8	1131.8
1043.9248	3156.367	2010.25	1126.3
1044.03	3157.3315	2032.9	1115.7
1044.135	3158.2952	1997.35	1119.5
1044.24	3159.2584	1980.45	1101.05
1044.345	3160.221	1970.15	1090.05
1044.4499	3161.1829	1980.05	1101.2
1044.5548	3162.1442	1972.4	1091.25
1044.6596	3163.105	1955.5	1076
1044.7644	3164.065	1957.95	1077.75
1044.8692	3165.0245	1934.95	1051.75
1044.9739	3165.9834	1937.4	1058.3
1045.0785	3166.9416	1954.65	1075.55
1045.1831	3167.8993	1926.4	1047.85
1045.2877	3168.8563	1924.25	1043.9
1045.3922	3169.8127	1915	1034.9
1045.4966	3170.7684	1911.75	1033.35
1045.6011	3171.7236	1900.1	1019.1
1045.7054	3172.6782	1901.8	1023.45
1045.8098	3173.6321	1889.7	1009.7
1045.914	3174.5854	1897.2	1014.35
1046.0183	3175.5381	1885.9	1006.05
1046.1224	3176.4902	1885.65	1007.55
1046.2266	3177.4417	1875.95	996.65
1046.3307	3178.3926	1872.95	993.9
1046.4347	3179.3428	1864.45	986.2
1046.5387	3180.2924	1858.8	981.25
1046.6427	3181.2415	1855.25	973.35
1046.7466	3182.1899	1846.8	965.9
1046.8504	3183.1377	1847.95	967.8
1046.9542	3184.0848	1844.7	962.45
1047.058	3185.0314	1826.25	945.15
1047.1617	3185.9773	1828.1	948.1
1047.2654	3186.9227	1811.55	933
1047.369	3187.8674	1821	941.45
1047.4726	3188.8115	1814.45	931.35
1047.5761	3189.755	1810.15	929.2
1047.6796	3190.6979	1804.85	924.55
1047.783	3191.6402	1794.25	916.5
1047.8864	3192.5818	1796.1	916.35
1047.9898	3193.5229	1801.95	904.9
1048.0931	3194.4633	1784.05	905.8
1048.1963	3195.4031	1786.45	908.3
1048.2995	3196.3423	1779.1	900.45
1048.4027	3197.2809	1760.15	881.4
1048.5058	3198.2189	1772.7	891.75
1048.6089	3199.1563	1782.15	887.75
1048.7119	3200.0931	1760.35	883.4
1048.8148	3201.0292	1748.2	868.8
1048.9178	3201.9648	1755.1	876.7
1049.0206	3202.8997	1748.8	865.3
1049.1235	3203.834	1728.2	851.35
1049.2262	3204.7677	1732.75	852.7
1049.329	3205.7008	1731.15	849.45
1049.4317	3206.6333	1724.3	846.85
1049.5343	3207.5652	1723.4	842.55
1049.6369	3208.4964	1712.3	834.6
1049.7394	3209.4271	1713.45	833.9
1049.8419	3210.3571	1708	829.15
1049.9444	3211.2865	1707	826.3
1050.0468	3212.2154	1698.2	821.05
1050.1491	3213.1436	1699.85	818.05
1050.2514	3214.0712	1693.8	807.9
1050.3537	3214.9982	1688.25	807.9
1050.4559	3215.9246	1684.3	805
1050.5581	3216.8503	1673.6	794.6
1050.6602	3217.7755	1675.1	796.65
1050.7623	3218.7001	1671.45	792.05
1050.8643	3219.624	1669.1	789.1
1050.9663	3220.5473	1662.05	783.85
1051.0682	3221.4701	1659.6	780.8
1051.1701	3222.3922	1656.65	776.85
1051.2719	3223.3137	1658.3	778.45
1051.3737	3224.2346	1653.2	772.75
1051.4754	3225.1549	1644.85	766
1051.5771	3226.0746	1639.75	761.55
1051.6788	3226.9937	1636.2	756.8
1051.7804	3227.9121	1630.8	752.15
1051.8819	3228.83	1618.45	739.65
1051.9834	3229.7473	1621.55	744.45
1052.0849	3230.6639	1618.6	740
1052.1863	3231.5799	1615.2	736.7
1052.2876	3232.4954	1613.15	733.3
1052.3889	3233.4102	1607.05	727.1
1052.4902	3234.3244	1602.2	723.05
1052.5914	3235.238	1588.95	709.95
1052.6926	3236.151	1615.4	712.5
1052.7937	3237.0634	1582.4	703.25
1052.8948	3237.9752	1589.4	708.95
1052.9958	3238.8864	1579.4	701.6
1053.0968	3239.797	1575.05	695.35
1053.1977	3240.7069	1572.2	695.25
1053.2986	3241.6163	1560.25	681.9
1053.3994	3242.5251	1564.5	688.05
1053.5002	3243.4332	1558	679.15
1053.6009	3244.3408	1551.3	673
1053.7016	3245.2477	1546.05	667
1053.8022	3246.154	1548.1	667
1053.9028	3247.0598	1539.9	660.3
1054.0034	3247.9649	1537	656.8
1054.1039	3248.8694	1531	651.3
1054.2043	3249.7733	1522.9	642.55
1054.3047	3250.6766	1523.45	643.65
1054.4051	3251.5793	1524.25	645.4
1054.5054	3252.4814	1519.35	641.6
1054.6056	3253.3829	1506.15	627.8
1054.7058	3254.2838	1510.9	631.3
1054.806	3255.1841	1496.4	618.15
1054.9061	3256.0838	1503.1	622.3
1055.0061	3256.9829	1487.75	610.5
1055.1062	3257.8814	1487.65	606.8
1055.2061	3258.7792	1480.5	599.55
1055.306	3259.6765	1482.35	603.2
1055.4059	3260.5731	1471.95	591.75
1055.5057	3261.4692	1468.75	589.6
1055.6055	3262.3647	1454.8	574.3
1055.7052	3263.2595	1445.9	567.85
1055.8049	3264.1538	1443.45	566.1
1055.9045	3265.0474	1437.7	556.75
1056.0041	3265.9404	1428.2	548.9
1056.1036	3266.8329	1419	541.1
1056.2031	3267.7247	1425.3	536.1
1056.3025	3268.616	1388.9	510.7
1056.4019	3269.5066	1378.9	497.5
1056.5013	3270.3966	1370.35	489.55
1056.6005	3271.286	1345.7	469.05
