Software Version:	3.9.2.0
Unit SN:	10000200
Spectrometer SN:	6960
Date:	3/6/2024 10:06:54 AM
Data Line Index:	25
Spectral Points:	2048
Integration time (ms):	125
Averages:	20
Delay (ms):	30
Sequence Number:	1
Processing:	dark subtract
Laser Power (mW):	300
Laser Current (mA):	827
Laser Diode Temp (C):	25
Laser Case Temp (C):	24.8
System Temp (C):	24.6
Spectrometer Temp (C):	22.2
CCD Temp (C):	0.008
Secondary Temp (C):	20.007
Heatsink Temp (C):	18.522
CCDPCB Temp (C):	31.016
SecondaryPCB Temp (C):	26.269

Wavelength	RamanShift	Raw Counts	Dark Subtracted
787.061	30.1047	753.3	347.2
787.2016	32.3739	768.7	361.8
787.3422	34.6426	787.1	381.3
787.4828	36.9109	814.2	406.5
787.6235	39.1787	840.95	430.3
787.7642	41.4461	872.5	456.5
787.9049	43.7131	903.45	481.8
788.0456	45.9796	935.85	512.85
788.1863	48.2456	962.1	535.05
788.3271	50.5112	1001.35	571.15
788.4679	52.7764	1037.9	603.8
788.6087	55.0411	1080	640.65
788.7496	57.3054	1126	681.1
788.8904	59.5692	1159.65	712.75
789.0313	61.8326	1214	766.15
789.1722	64.0955	1261.2	809.95
789.3132	66.3579	1330.65	874.8
789.4541	68.6199	1413.25	953.3
789.5951	70.8815	1542.65	1077.85
789.7361	73.1426	1841.65	1373.6
789.8771	75.4032	2590.4	2117.7
790.0181	77.6634	4533.85	4058.7
790.1592	79.9231	9368.3	8888.3
790.3003	82.1824	22973.5	22485.05
790.4414	84.4412	47214.75	46710.15
790.5825	86.6995	58528.7	58009.35
790.7237	88.9574	62356.25	61824.95
790.8648	91.2148	64384.45	63841.75
791.006	93.4717	64826.35	64275.95
791.1472	95.7282	65021.9	64466.55
791.2885	97.9842	65143.1	64583.55
791.4297	100.2398	65106.85	64547.1
791.571	102.4949	65143.6	64581.5
791.7123	104.7495	65121.5	64555.35
791.8536	107.0036	65102.25	64535.2
791.9949	109.2573	65204.45	64638.25
792.1363	111.5105	65166.55	64597.6
792.2777	113.7632	65168.3	64598.5
792.4191	116.0154	65235.85	64654.75
792.5605	118.2672	65309.7	64734.2
792.7019	120.5185	65329	64752.2
792.8434	122.7693	65333.05	64751.3
792.9849	125.0197	65214.4	64628.15
793.1264	127.2696	65397.45	64807.15
793.2679	129.519	65357.1	64764.25
793.4094	131.7679	65419.05	64828.75
793.551	134.0163	65291.7	64693.9
793.6926	136.2642	65357.25	64760.1
793.8342	138.5117	65418.7	64814.85
793.9758	140.7587	65407.45	64804.9
794.1175	143.0052	65400.4	64795.35
794.2591	145.2512	65344.6	64733.7
794.4008	147.4967	65428.65	64819.2
794.5425	149.7417	65411.45	64801.4
794.6842	151.9863	65410.15	64794.2
794.826	154.2304	65379.95	64762.35
794.9677	156.4739	65384.9	64755.85
795.1095	158.717	65450.25	64826.1
795.2513	160.9596	65422.05	64794.1
795.3931	163.2017	65365	64732.85
795.535	165.4433	65438.8	64804.4
795.6768	167.6844	65403.25	64765.9
795.8187	169.925	65431.1	64791.6
795.9606	172.1651	65395.8	64756.05
796.1025	174.4047	65434.2	64789.7
796.2445	176.6439	65414.25	64764.85
796.3864	178.8825	65394.95	64742.4
796.5284	181.1206	65472.65	64818.05
796.6704	183.3582	65457.9	64798.55
796.8124	185.5954	65443.25	64785.2
796.9544	187.832	65444.7	64779.5
797.0965	190.0681	65394.65	64728.4
797.2386	192.3037	65461.35	64792.85
797.3806	194.5388	65516.1	64843.35
797.5228	196.7734	65366	64691.8
797.6649	199.0075	65510.3	64834.75
797.807	201.2411	65467.45	64788.8
797.9492	203.4742	65522.45	64842.75
798.0914	205.7068	65507.4	64821
798.2336	207.9389	65499.85	64815.55
798.3758	210.1704	65487.6	64804.5
798.518	212.4015	65524.75	64854.2
798.6603	214.632	65492.05	64825.95
798.8025	216.862	65526.5	64862.95
798.9448	219.0915	65500.85	64836.9
799.0871	221.3205	65504.95	64837.85
799.2294	223.549	65526.25	64863.3
799.3718	225.777	65525.05	64857.55
799.5141	228.0044	65532.85	64861.95
799.6565	230.2314	65523.65	64851.4
799.7989	232.4578	65526.15	64850.7
799.9413	234.6837	65528.85	64843.1
800.0837	236.909	65535	64848.9
800.2262	239.1339	65516.65	64808
800.3687	241.3582	65534	64839.95
800.5111	243.582	65535	64806.9
800.6536	245.8053	65531.7	64820.55
800.7961	248.0281	65535	64825.4
800.9387	250.2503	65535	64823
801.0812	252.472	65528.9	64812.95
801.2238	254.6932	65535	64817.8
801.3664	256.9139	65533.9	64818.7
801.509	259.134	65535	64816.1
801.6516	261.3536	65533.6	64815.85
801.7942	263.5727	65535	64816.55
801.9369	265.7912	65535	64814.95
802.0795	268.0092	65535	64817.6
802.2222	270.2267	65535	64814.1
802.3649	272.4436	65528.15	64805.25
802.5076	274.6601	65535	64803.5
802.6504	276.8759	65535	64809.35
802.7931	279.0913	65535	64806.4
802.9359	281.3061	65535	64805.9
803.0787	283.5204	65535	64800.45
803.2215	285.7341	65535	64797.1
803.3643	287.9473	65535	64788.8
803.5071	290.16	65535	64796.9
803.6499	292.3721	65535	64803.6
803.7928	294.5837	65535	64800.45
803.9357	296.7947	65533	64797.3
804.0786	299.0052	65535	64797.8
804.2215	301.2152	65535	64798.45
804.3644	303.4246	65535	64799
804.5074	305.6334	65535	64799.2
804.6503	307.8418	65535	64792.55
804.7933	310.0495	65535	64793
804.9363	312.2568	65535	64793.15
805.0793	314.4635	65535	64788.85
805.2223	316.6696	65535	64784.8
805.3653	318.8752	65535	64777.6
805.5084	321.0802	65529	64779.5
805.6514	323.2847	65535	64783.55
805.7945	325.4887	65535	64781.8
805.9376	327.692	65533.5	64780.35
806.0807	329.8949	65535	64781.55
806.2238	332.0972	65535	64778.05
806.367	334.2989	65535	64773.65
806.5101	336.5001	65535	64777.1
806.6533	338.7007	65531.55	64772.4
806.7965	340.9008	65535	64774.2
806.9397	343.1003	65535	64772.35
807.0829	345.2992	65535	64770.6
807.2261	347.4976	65535	64769.7
807.3693	349.6955	65535	64763.65
807.5126	351.8927	65535	64764.85
807.6559	354.0895	65535	64751.75
807.7991	356.2856	65535	64764.75
807.9424	358.4812	65535	64761.55
808.0857	360.6763	65533.35	64758.2
808.2291	362.8707	65535	64759.5
808.3724	365.0646	65535	64754.7
808.5158	367.258	65535	64753.8
808.6591	369.4508	65530.85	64746.25
808.8025	371.643	65535	64748.45
808.9459	373.8346	65535	64750.05
809.0893	376.0257	65535	64746.55
809.2327	378.2162	65535	64745.3
809.3762	380.4062	65526.8	64736.2
809.5196	382.5956	65535	64746.4
809.6631	384.7844	65535	64752.3
809.8066	386.9726	65535	64754.6
809.9501	389.1603	65535	64755.8
810.0936	391.3474	65535	64712.35
810.2371	393.5339	65535	64747.55
810.3806	395.7199	65527.6	64746.8
810.5241	397.9052	65531.5	64753
810.6677	400.09	65535	64754.95
810.8113	402.2743	65535	64751.25
810.9548	404.4579	65530.3	64746.35
811.0984	406.641	65533.1	64747.8
811.2421	408.8235	65535	64745.4
811.3857	411.0054	65535	64743.2
811.5293	413.1868	65535	64742.05
811.673	415.3675	65531.95	64735.8
811.8166	417.5477	65531.25	64734.9
811.9603	419.7273	65535	64733.9
812.104	421.9064	65534.5	64727.9
812.2477	424.0848	65532.95	64730.35
812.3914	426.2627	65535	64731.75
812.5351	428.4399	65530.45	64725.4
812.6788	430.6166	65512.2	64706.1
812.8226	432.7928	65535	64727.1
812.9663	434.9683	65525.4	64715.25
813.1101	437.1432	65521.85	64710.45
813.2539	439.3176	65534.05	64723.7
813.3977	441.4914	65503.9	64700.9
813.5415	443.6645	65519.15	64711.15
813.6853	445.8371	65525.35	64717.55
813.8291	448.0091	65519.3	64709.95
813.973	450.1806	65503.8	64694.15
814.1168	452.3514	65511.15	64699.3
814.2607	454.5216	65469.9	64650.65
814.4046	456.6913	65515.25	64700.6
814.5485	458.8603	65522.05	64707.25
814.6924	461.0288	65478.8	64669.15
814.8363	463.1967	65519.4	64709.5
814.9802	465.3639	65505.95	64692.75
815.1241	467.5306	65426.8	64610.35
815.2681	469.6967	65474.75	64659.95
815.412	471.8622	65518.05	64705.7
815.556	474.0271	65475.15	64661.65
815.7	476.1914	65474.7	64657.6
815.844	478.3551	65474.9	64662.1
815.988	480.5182	65524.9	64707.4
816.132	482.6807	65461.75	64647.7
816.276	484.8426	65466.7	64654.85
816.4201	487.0039	65520.4	64703.35
816.5641	489.1647	65517.85	64699.25
816.7082	491.3248	65440.75	64622.5
816.8522	493.4843	65519.7	64701.85
816.9963	495.6432	65522.4	64705.7
817.1404	497.8015	65447.35	64623.15
817.2845	499.9592	65488.9	64666.8
817.4286	502.1163	65481.95	64657.35
817.5727	504.2728	65480.5	64656.75
817.7168	506.4287	65484.45	64664.25
817.861	508.5839	65460.15	64638.95
818.0051	510.7386	65488.7	64665.55
818.1493	512.8927	65496.85	64666.55
818.2935	515.0461	65491.9	64667.6
818.4377	517.199	65517.8	64691.3
818.5818	519.3512	65478.9	64648.4
818.726	521.5029	65488.15	64655.2
818.8703	523.6539	65485.25	64658.25
819.0145	525.8043	65423.6	64595.4
819.1587	527.9541	65477.7	64645.4
819.303	530.1033	65478.1	64648.55
819.4472	532.2519	65443.8	64615.3
819.5915	534.3999	65504.15	64668.45
819.7357	536.5472	65518.1	64685.55
819.88	538.694	65435.7	64602.8
820.0243	540.8401	65465.7	64629.5
820.1686	542.9856	65477.35	64637.8
820.3129	545.1305	65508.8	64668.2
820.4572	547.2748	65450.7	64609.5
820.6016	549.4185	65447.55	64604.4
820.7459	551.5615	65503.4	64663.45
820.8902	553.704	65482.5	64642.95
821.0346	555.8458	65443.95	64606.95
821.1789	557.987	65461.85	64624.3
821.3233	560.1276	65478.45	64638.85
821.4677	562.2675	65452.7	64613.5
821.6121	564.4069	65452	64613.7
821.7565	566.5456	65485.3	64649.85
821.9009	568.6837	65430.8	64595.1
822.0453	570.8212	65459	64623.5
822.1897	572.958	65386.4	64547.2
822.3342	575.0942	65446.1	64610.15
822.4786	577.2299	65419.25	64583.1
822.6231	579.3648	65413.2	64577.6
822.7675	581.4992	65406.8	64574.3
822.912	583.6329	65400.9	64566.75
823.0565	585.766	65404.15	64570.65
823.201	587.8985	65424.9	64587.45
823.3454	590.0304	65344.8	64481.6
823.4899	592.1616	65402.9	64558.45
823.6345	594.2922	65365.4	64521.3
823.779	596.4222	65318.25	64475.2
823.9235	598.5515	65347.1	64500.95
824.068	600.6802	65385.35	64539.3
824.2126	602.8083	65329.65	64485.7
824.3571	604.9358	65322.65	64474.95
824.5017	607.0626	65373.65	64525.7
824.6462	609.1888	65258.1	64406.35
824.7908	611.3144	65337.3	64485.35
824.9354	613.4393	65316.55	64467.3
825.08	615.5636	65242	64394.75
825.2246	617.6873	65318.85	64470.05
825.3692	619.8103	65209.1	64358.3
825.5138	621.9327	65324.7	64469.7
825.6584	624.0544	65339.05	64491.1
825.803	626.1756	65309.8	64457.15
825.9477	628.2961	65298.9	64449.05
826.0923	630.4159	65251.05	64400.25
826.237	632.5351	65211.8	64359.95
826.3816	634.6537	65367.15	64514.95
826.5263	636.7716	65210.7	64355
826.6709	638.8889	65269.65	64414.4
826.8156	641.0056	65239.15	64383.9
826.9603	643.1216	65271.65	64414.3
827.105	645.237	65299.7	64440.35
827.2497	647.3518	65203.25	64352.95
827.3944	649.4659	65254.2	64402
827.5391	651.5793	65268.15	64417.95
827.6838	653.6922	65296.95	64444.7
827.8285	655.8043	65119.75	64264.9
827.9733	657.9159	65305.4	64451.15
828.118	660.0268	64989.2	64133.9
828.2627	662.137	65222.95	64366.6
828.4075	664.2466	65235.3	64374.05
828.5522	666.3556	65151.9	64292.95
828.697	668.4639	65215.5	64354.9
828.8418	670.5716	65122.1	64266.7
828.9865	672.6786	65208.65	64349.3
829.1313	674.785	65083.65	64220.3
829.2761	676.8907	65097.55	64238.15
829.4209	678.9958	65172.85	64314.5
829.5657	681.1002	65176.95	64316.05
829.7105	683.204	65043.55	64179
829.8553	685.3072	64995.4	64131.2
830.0001	687.4097	65060.5	64196.6
830.1449	689.5115	64998.45	64134.7
830.2898	691.6127	65136.5	64277.6
830.4346	693.7132	65020.2	64159.05
830.5794	695.8131	65030.65	64149.1
830.7243	697.9123	65061.9	64196.1
830.8691	700.0109	65075.05	64209.25
831.014	702.1089	64930.65	64068.05
831.1588	704.2061	64981.4	64117
831.3037	706.3028	64977.65	64108.3
831.4486	708.3987	64998.8	64133.3
831.5935	710.4941	64924.3	64057.6
831.7383	712.5887	65032.45	64165.6
831.8832	714.6827	64938	64068.45
832.0281	716.7761	65003.35	64141.55
832.173	718.8688	65038.8	64171.75
832.3179	720.9608	64924.35	64054.55
832.4628	723.0522	64930.05	64057
832.6077	725.1429	64835.05	63967.25
832.7527	727.233	65134.05	64263.9
832.8976	729.3224	64712.05	63844.4
833.0425	731.4112	64863.65	63994
833.1874	733.4993	64877.25	64005.3
833.3324	735.5867	64881	64012.1
833.4773	737.6735	64808.55	63939.45
833.6222	739.7596	64732.15	63858.8
833.7672	741.845	64733.3	63861.55
833.9122	743.9298	64879.45	64008.15
834.0571	746.014	64727.05	63855.65
834.2021	748.0974	64605.25	63732.55
834.347	750.1802	64811.45	63939.35
834.492	752.2624	64540.1	63669.15
834.637	754.3439	64570.65	63695.2
834.782	756.4247	64637.65	63754.05
834.9269	758.5048	64506.15	63634.45
835.0719	760.5843	64563.3	63689.05
835.2169	762.6631	64595.8	63723.15
835.3619	764.7413	64498.35	63629.3
835.5069	766.8188	64508.1	63633.6
835.6519	768.8956	64572.55	63697.55
835.7969	770.9718	64528.1	63658
835.9419	773.0473	64489.4	63615.65
836.0869	775.1221	64352.1	63478.75
836.232	777.1962	64363.95	63489.25
836.377	779.2697	64162.7	63286.55
836.522	781.3426	64284.2	63392.2
836.667	783.4147	64320.2	63446.05
836.8121	785.4862	64254.65	63382.05
836.9571	787.557	64076.5	63199.45
837.1021	789.6271	64288.5	63412.55
837.2472	791.6966	64151.3	63274.65
837.3922	793.7654	64021.5	63144.6
837.5373	795.8335	64033.65	63157.5
837.6823	797.901	64087.55	63214.2
837.8274	799.9678	63988.25	63108.8
837.9724	802.0339	63936.85	63061.3
838.1175	804.0993	63951.45	63064.75
838.2626	806.1641	63879.7	63001.95
838.4076	808.2282	63855.35	62981.95
838.5527	810.2916	63813.55	62932.25
838.6978	812.3544	63914.2	63036.7
838.8428	814.4164	63713.6	62837.35
838.9879	816.4778	63753.8	62874.7
839.133	818.5385	63723.45	62843.5
839.2781	820.5986	63751.05	62872.85
839.4232	822.658	63769.05	62888.25
839.5682	824.7166	63751.75	62874.65
839.7133	826.7747	63586.8	62711.55
839.8584	828.832	63653.2	62771.6
840.0035	830.8886	63723.4	62842.8
840.1486	832.9446	63705.2	62821.55
840.2937	834.9999	63446.05	62568.5
840.4388	837.0545	63564.3	62680.5
840.5839	839.1085	63601.6	62721.75
840.729	841.1618	63569.55	62686
840.8741	843.2143	63397.4	62518.05
841.0192	845.2662	63381.55	62499.3
841.1643	847.3175	63438.65	62559.9
841.3095	849.368	63227.9	62345
841.4546	851.4179	63391.5	62512.4
841.5997	853.467	63243.1	62362.2
841.7448	855.5155	63316.2	62433.25
841.8899	857.5633	63181.85	62300.2
842.0351	859.6105	63121.3	62238.5
842.1802	861.6569	63199.7	62318.35
842.3253	863.7027	63046.1	62161.4
842.4704	865.7478	63116.6	62233.3
842.6156	867.7922	63091.95	62210.75
842.7607	869.8359	63138.55	62254.2
842.9058	871.8789	62971.15	62087.7
843.0509	873.9212	63057.05	62140.6
843.1961	875.9629	63021.05	62138.35
843.3412	878.0039	63025	62140.4
843.4863	880.0441	62922.9	62040
843.6315	882.0837	62907.05	62024.5
843.7766	884.1226	62940.55	62053.3
843.9218	886.1609	62912.75	62033.5
844.0669	888.1984	62881.85	61997.55
844.212	890.2352	63017.05	62135.8
844.3572	892.2714	62852.45	61965.7
844.5023	894.3069	62877.2	61989.6
844.6475	896.3416	62841.85	61955.65
844.7926	898.3757	62799.35	61915.55
844.9377	900.4091	62674.85	61788.4
845.0829	902.4418	62808.5	61919.6
845.228	904.4739	62690.3	61801.75
845.3732	906.5052	62714.95	61828.2
845.5183	908.5358	62628.3	61740.55
845.6635	910.5658	62577.05	61687.95
845.8086	912.595	62599.25	61710.35
845.9538	914.6236	62465.4	61581.45
846.0989	916.6515	62664.3	61778.35
846.2441	918.6786	62438.35	61551.35
846.3892	920.7051	62439.65	61551.15
846.5344	922.7309	62428.1	61544.6
846.6795	924.756	62432.55	61544.85
846.8246	926.7804	62364.15	61476.25
846.9698	928.8041	62218.2	61330.15
847.1149	930.8272	62288.15	61399.15
847.2601	932.8495	62251.15	61363.3
847.4052	934.8711	62178.6	61289.25
847.5504	936.892	62146.5	61260.9
847.6955	938.9123	62138.4	61250.45
847.8407	940.9318	62090.65	61204.05
847.9858	942.9506	62038.55	61150.9
848.131	944.9688	62017.9	61130
848.2761	946.9862	61906.45	61018.45
848.4213	949.003	61934.1	61047.2
848.5664	951.019	61828.15	60938
848.7115	953.0344	61821	60932.2
848.8567	955.0491	61810.75	60919.35
849.0018	957.063	61810.85	60922.95
849.147	959.0763	61779.5	60894.45
849.2921	961.0888	61725.85	60836.25
849.4373	963.1007	61744.2	60856.35
849.5824	965.1119	61746.65	60861.4
849.7275	967.1223	61710.5	60825.55
849.8727	969.1321	61695.05	60808.75
850.0178	971.1412	61648.75	60764.05
850.1629	973.1495	61578.45	60690.15
850.3081	975.1572	61616.45	60691.3
850.4532	977.1641	61600.75	60711.55
850.5983	979.1704	61519.9	60627.9
850.7435	981.1759	61477.45	60584.3
850.8886	983.1808	61472.5	60584.4
851.0337	985.1849	61451.9	60550.6
851.1788	987.1884	61415.5	60525.5
851.324	989.1911	61398.85	60507.45
851.4691	991.1932	61341.25	60450.7
851.6142	993.1945	61311.85	60423.65
851.7593	995.1951	61251.15	60363.75
851.9045	997.1951	61258.25	60361.55
852.0496	999.1943	61174.4	60286.75
852.1947	1001.1928	61124.7	60235.7
852.3398	1003.1906	61099.55	60207.6
852.4849	1005.1877	61041.55	60150.2
852.63	1007.1841	60990.75	60099.4
852.7751	1009.1798	60932.1	60042.15
852.9202	1011.1748	60883.2	59993.55
853.0653	1013.1691	60870.75	59982.35
853.2104	1015.1627	60721.7	59832.5
853.3555	1017.1556	60725.7	59838.75
853.5006	1019.1477	60716.85	59826.7
853.6457	1021.1392	60579.15	59692.75
853.7908	1023.1299	60462.55	59576.3
853.9359	1025.12	60480.5	59592.25
854.081	1027.1093	60379.95	59497.65
854.2261	1029.0979	60378.05	59495.3
854.3712	1031.0859	60326.55	59443.2
854.5163	1033.0731	60225.35	59341.1
854.6613	1035.0596	60223.45	59337.25
854.8064	1037.0454	60128.65	59239.35
854.9515	1039.0304	60102.5	59212.15
855.0965	1041.0148	59962.95	59071.95
855.2416	1042.9985	59949.45	59057.55
855.3867	1044.9814	60019.45	59131.6
855.5317	1046.9636	59877.35	58984.9
855.6768	1048.9452	59842.6	58953.35
855.8219	1050.926	59826.9	58939.05
855.9669	1052.9061	59764.2	58873.5
856.112	1054.8855	59756.05	58866.95
856.257	1056.8642	59729.5	58839.2
856.4021	1058.8421	59680.25	58785.1
856.5471	1060.8194	59654.7	58763.8
856.6921	1062.7959	59598.8	58704.85
856.8372	1064.7717	59603.65	58710.4
856.9822	1066.7469	59565.15	58672.1
857.1272	1068.7213	59563.5	58670.55
857.2723	1070.695	59520.7	58630.05
857.4173	1072.6679	59433.7	58543.55
857.5623	1074.6402	59419	58526.2
857.7073	1076.6117	59410.85	58513.7
857.8523	1078.5826	59394.35	58502.35
857.9973	1080.5527	59344.55	58448.55
858.1423	1082.5221	59273.8	58382.8
858.2873	1084.4908	59268	58377.9
858.4323	1086.4587	59229.95	58339.15
858.5773	1088.426	59222.8	58331.4
858.7223	1090.3925	59148.85	58252.9
858.8673	1092.3584	59134.9	58242.2
859.0123	1094.3235	59064.7	58176.15
859.1573	1096.2879	59033.7	58142.15
859.3022	1098.2515	59024.1	58131.2
859.4472	1100.2145	59010.35	58119.3
859.5922	1102.1767	58958.65	58066.3
859.7371	1104.1382	58983.2	58091.95
859.8821	1106.099	58932.25	58039.6
860.027	1108.0591	58865.3	57975.5
860.172	1110.0185	58815.55	57922.5
860.3169	1111.9771	58845.45	57954.25
860.4619	1113.9351	58762.2	57872.25
860.6068	1115.8923	58743.75	57850.75
860.7517	1117.8488	58681	57787.7
860.8967	1119.8045	58599	57708
861.0416	1121.7596	58592.95	57698.9
861.1865	1123.7139	58536.65	57646.55
861.3314	1125.6675	58511.95	57621.8
861.4763	1127.6204	58487.05	57598.2
861.6212	1129.5726	58423	57527.55
861.7661	1131.524	58422.45	57530
861.911	1133.4748	58425.6	57533.7
862.0559	1135.4248	58337.75	57444.55
862.2008	1137.3741	58326.6	57433.4
862.3457	1139.3226	58278.95	57386.2
862.4905	1141.2705	58277.9	57387.9
862.6354	1143.2176	58206.55	57308.45
862.7803	1145.164	58149	57255.95
862.9251	1147.1097	58150.15	57258
863.07	1149.0546	58155.7	57263.8
863.2148	1150.9989	58155.9	57263.6
863.3597	1152.9424	58052.4	57157.75
863.5045	1154.8852	58090.2	57197.2
863.6493	1156.8272	58013.15	57120.25
863.7942	1158.7686	58067.65	57167.6
863.939	1160.7092	57939.7	57047.5
864.0838	1162.6491	57905.45	57009.9
864.2286	1164.5883	57911.8	57020
864.3734	1166.5267	57850.85	56956.65
864.5182	1168.4644	57886.1	56994.65
864.663	1170.4014	57863.35	56964.1
864.8078	1172.3377	57849.7	56954.7
864.9526	1174.2732	57891.85	56999.8
865.0974	1176.2081	57872.75	56981
865.2421	1178.1421	57820.25	56925.25
865.3869	1180.0755	57879.15	56988.9
865.5317	1182.0082	57795.25	56904.95
865.6764	1183.9401	57841.85	56948.5
865.8212	1185.8713	57738.2	56847.55
865.9659	1187.8017	57699.6	56810.7
866.1106	1189.7315	57674.1	56789.95
866.2554	1191.6605	57615.05	56699.3
866.4001	1193.5888	57516.1	56626.45
866.5448	1195.5163	57434.85	56543.5
866.6895	1197.4432	57366.85	56474.5
866.8342	1199.3693	57356.15	56467.35
866.9789	1201.2947	57270.65	56373.7
867.1236	1203.2193	57262.85	56372.9
867.2683	1205.1432	57194.2	56300.3
867.413	1207.0664	57146	56251.7
867.5576	1208.9889	57104.75	56211
867.7023	1210.9106	57074.05	56183.6
867.847	1212.8316	56970.85	56079.75
867.9916	1214.7519	56954.85	56055.55
868.1363	1216.6715	56927	56037.05
868.2809	1218.5903	56910.85	56019.1
868.4255	1220.5084	56875.7	55981.9
868.5701	1222.4257	56889.45	55998.25
868.7148	1224.3424	56833.45	55944.35
868.8594	1226.2583	56740.05	55845.3
869.004	1228.1735	56738.1	55845.8
869.1486	1230.0879	56644.55	55752.3
869.2932	1232.0016	56698.75	55809.5
869.4377	1233.9146	56607.55	55714.15
869.5823	1235.8269	56593.65	55702.55
869.7269	1237.7384	56527.25	55634.6
869.8715	1239.6492	56491.6	55599.25
870.016	1241.5592	56415.9	55522.15
870.1606	1243.4686	56426.05	55533.25
870.3051	1245.3772	56351.7	55458.8
870.4496	1247.285	56397.65	55506.4
870.5941	1249.1922	56260.35	55367.35
870.7387	1251.0986	56300.5	55411.1
870.8832	1253.0042	56205.9	55315.55
871.0277	1254.9092	56269.15	55379.85
871.1722	1256.8134	56091.55	55199.7
871.3167	1258.7169	56209.5	55315.9
871.4611	1260.6196	56080.8	55191.6
871.6056	1262.5216	56084.5	55191.95
871.7501	1264.4229	56102.95	55212.1
871.8945	1266.3234	56168.7	55277
872.039	1268.2232	56107.5	55211.9
872.1834	1270.1223	56021.7	55126.85
872.3278	1272.0207	56009.05	55117.9
872.4723	1273.9183	55979.35	55080.15
872.6167	1275.8151	55927.2	55035.25
872.7611	1277.7113	55893	55000.8
872.9055	1279.6067	55814	54923.45
873.0499	1281.5014	55789.4	54896.9
873.1943	1283.3953	55865.05	54970.2
873.3386	1285.2885	55835.6	54944.75
873.483	1287.181	55871	54977.6
873.6274	1289.0727	55855.9	54966.2
873.7717	1290.9637	55708.55	54815.4
873.9161	1292.854	55904.25	55014.4
874.0604	1294.7435	55786.6	54895.85
874.2047	1296.6323	55779.35	54886.15
874.349	1298.5204	55722.65	54827.3
874.4933	1300.4077	55808.15	54918.4
874.6376	1302.2943	55674.35	54782.65
874.7819	1304.1802	55591.45	54699.8
874.9262	1306.0653	55510.55	54615.3
875.0705	1307.9497	55448.05	54556.8
875.2147	1309.8333	55414.9	54522.95
875.359	1311.7162	55320.85	54427.75
875.5032	1313.5984	55333.75	54438.4
875.6475	1315.4798	55199.05	54304.95
875.7917	1317.3605	55180.95	54273.35
875.9359	1319.2405	55173.95	54277.7
876.0801	1321.1197	54989.35	54093.65
876.2243	1322.9982	55007.65	54111.9
876.3685	1324.876	54947.85	54056.15
876.5127	1326.753	54794.85	53902.1
876.6569	1328.6293	54958.1	54063.55
876.801	1330.5048	54836.05	53941.05
876.9452	1332.3796	54721	53827.45
877.0893	1334.2537	54655.65	53736.9
877.2335	1336.127	54701.7	53806.05
877.3776	1337.9996	54589.25	53696.3
877.5217	1339.8714	54693.25	53800.25
877.6658	1341.7426	54373.85	53439.3
877.8099	1343.6129	54568.75	53671.9
877.954	1345.4826	54558.3	53664.25
878.0981	1347.3515	54274	53378.7
878.2422	1349.2196	54475.6	53580.65
878.3862	1351.087	54406.85	53513.4
878.5303	1352.9537	54364.8	53471
878.6743	1354.8197	54368	53473.2
878.8184	1356.6849	54373.3	53482
878.9624	1358.5493	54360.05	53467.65
879.1064	1360.4131	54208.4	53314.75
879.2504	1362.276	54391.5	53500.75
879.3944	1364.1383	54106.4	53214.5
879.5384	1365.9998	53971.9	53075.3
879.6823	1367.8606	54053.25	53158.15
879.8263	1369.7206	53854.3	52960.5
879.9702	1371.5799	53720.7	52825.05
880.1142	1373.4384	53618.25	52726.2
880.2581	1375.2962	53620.6	52725.6
880.402	1377.1533	53292.1	52399.35
880.5459	1379.0096	53203.45	52309.5
880.6898	1380.8652	53180.65	52289.1
880.8337	1382.7201	53014.3	52122.65
880.9776	1384.5742	52986	52093.8
881.1215	1386.4275	52683.05	51789
881.2653	1388.2802	52695.25	51803.75
881.4092	1390.132	52744.8	51852.65
881.553	1391.9832	52463.35	51569.05
881.6968	1393.8336	52252.6	51359.55
881.8406	1395.6832	52296	51404.5
881.9844	1397.5322	52324.75	51432.4
882.1282	1399.3803	52033.55	51135.95
882.272	1401.2278	52016.95	51122.7
882.4158	1403.0745	51843.25	50948.75
882.5595	1404.9204	51768.5	50876.85
882.7033	1406.7656	51732.6	50841.55
882.847	1408.6101	51486.5	50593.85
882.9908	1410.4538	51571.85	50679
883.1345	1412.2968	51545.2	50652.45
883.2782	1414.139	51213.3	50321.05
883.4219	1415.9805	51350.5	50457.85
883.5656	1417.8213	51077.7	50179.05
883.7092	1419.6613	51216.55	50324.3
883.8529	1421.5006	51079.65	50186.25
883.9965	1423.3391	50988.15	50095.35
884.1402	1425.1769	50986.55	50093.35
884.2838	1427.0139	51238.25	50344.4
884.4274	1428.8502	51062	50169.3
884.571	1430.6858	51118.2	50225.4
884.7146	1432.5206	51407.55	50514.65
884.8582	1434.3547	51112.45	50220.35
885.0018	1436.188	50959	50065.6
885.1453	1438.0206	51111.7	50217.35
885.2889	1439.8524	50987.9	50094.35
885.4324	1441.6835	50788.25	49894.65
885.5759	1443.5139	50879.95	49983.35
885.7194	1445.3435	50650.8	49759.75
885.8629	1447.1724	50719.85	49829.85
886.0064	1449.0005	50437.05	49545.85
886.1499	1450.8279	50582.2	49688.8
886.2933	1452.6545	50503.1	49609.85
886.4368	1454.4804	50384.4	49490.95
886.5802	1456.3056	50277.05	49376.8
886.7237	1458.13	50311.25	49419.4
886.8671	1459.9536	50453.4	49559.5
887.0105	1461.7766	50151.95	49258.65
887.1539	1463.5987	49876.65	48982.85
887.2972	1465.4202	49881.1	48986.65
887.4406	1467.2409	49780.25	48887.75
887.584	1469.0608	49519.8	48628.85
887.7273	1470.88	49463.85	48569.8
887.8706	1472.6984	49451.1	48558.4
888.0139	1474.5161	49114.2	48220.75
888.1572	1476.3331	49175.25	48283.7
888.3005	1478.1493	48968.1	48074.6
888.4438	1479.9648	48952.95	48060.3
888.5871	1481.7795	48973.45	48081.7
888.7303	1483.5935	48992.3	48099.6
888.8736	1485.4067	48777.85	47886.05
889.0168	1487.2192	48802.15	47908
889.16	1489.031	48633.3	47739.95
889.3032	1490.842	48631.25	47740.6
889.4464	1492.6522	48684.1	47793.6
889.5896	1494.4618	48511.9	47615.35
889.7327	1496.2705	48551.55	47658.75
889.8759	1498.0785	48244.25	47349.8
890.019	1499.8858	48289.65	47397.3
890.1622	1501.6924	48395.95	47502.35
890.3053	1503.4981	48171.45	47280.05
890.4484	1505.3032	48198.6	47305.65
890.5914	1507.1075	48004	47109.8
890.7345	1508.911	47997.35	47106.9
890.8776	1510.7138	47989.6	47096.05
891.0206	1512.5159	47977.15	47086.15
891.1637	1514.3172	47617.85	46727.75
891.3067	1516.1178	47635.9	46746.35
891.4497	1517.9176	47715.5	46822.5
891.5927	1519.7166	47551.95	46661.7
891.7357	1521.515	47452.5	46555.65
891.8786	1523.3126	47375.5	46483.15
892.0216	1525.1094	47359.3	46466.8
892.1645	1526.9055	47228.9	46340.8
892.3074	1528.7008	47210	46318.35
892.4503	1530.4954	46951.7	46061.7
892.5932	1532.2893	46997.8	46107.55
892.7361	1534.0824	46792.3	45897.6
892.879	1535.8747	46746.25	45855.7
893.0218	1537.6663	46824.1	45932.65
893.1647	1539.4572	46489.15	45596.8
893.3075	1541.2473	46575.4	45684.55
893.4503	1543.0367	46468.7	45578.55
893.5931	1544.8253	46364.5	45469.1
893.7359	1546.6132	46398.4	45504.45
893.8787	1548.4003	46250.85	45349.45
894.0214	1550.1867	46172.8	45274.75
894.1642	1551.9723	46152.95	45257.95
894.3069	1553.7572	46126.85	45236.75
894.4496	1555.5414	46143.75	45255.75
894.5923	1557.3247	45961.6	45073.25
894.735	1559.1074	46036.9	45149.65
894.8777	1560.8893	45956.25	45067.65
895.0204	1562.6705	45922.85	45034.4
895.163	1564.4509	45832.3	44944.35
895.3056	1566.2305	45766.5	44881.05
895.4482	1568.0094	45898.3	45011.55
895.5908	1569.7876	45799.55	44911.3
895.7334	1571.565	45655.35	44767.4
895.876	1573.3417	45658.65	44771.6
896.0186	1575.1176	45590.25	44703.1
896.1611	1576.8928	45607.75	44719.15
896.3036	1578.6672	45402.15	44517.5
896.4461	1580.4409	45376.2	44491.5
896.5886	1582.2138	45198.35	44310
896.7311	1583.986	45228.45	44339.85
896.8736	1585.7575	45107.5	44221.55
897.0161	1587.5282	45096.85	44211.55
897.1585	1589.2981	45139.1	44252.2
897.3009	1591.0673	44950.45	44065.25
897.4433	1592.8358	44886.6	44002.15
897.5857	1594.6035	44913.95	44023
897.7281	1596.3704	44906	44017.7
897.8705	1598.1366	44679.05	43792.7
898.0128	1599.9021	44580.5	43694.7
898.1551	1601.6668	44648.9	43758.5
898.2975	1603.4308	44519.4	43631.25
898.4398	1605.194	44559.3	43667.45
898.5821	1606.9564	44301.7	43415.2
898.7243	1608.7182	44461.55	43573.2
898.8666	1610.4791	44379.45	43497.55
899.0088	1612.2394	44488.65	43606.35
899.1511	1613.9988	44351.7	43468.55
899.2933	1615.7576	44526	43640.6
899.4355	1617.5156	44507.4	43617.5
899.5776	1619.2728	44637.1	43751.3
899.7198	1621.0293	44290.6	43406.8
899.862	1622.785	44216.8	43327.95
900.0041	1624.54	44166.2	43277.45
900.1462	1626.2942	43918.9	43031.9
900.2883	1628.0477	43580.15	42691.35
900.4304	1629.8005	43314	42424.2
900.5725	1631.5525	43353.5	42469.6
900.7145	1633.3037	43019	42134.65
900.8566	1635.0542	42915.65	42029.65
900.9986	1636.804	42915.25	42028.55
901.1406	1638.553	42741.75	41812.6
901.2826	1640.3013	42693.4	41810.9
901.4245	1642.0488	42467.8	41581.6
901.5665	1643.7955	42526.1	41644.7
901.7085	1645.5416	42420.1	41536.8
901.8504	1647.2868	42328.2	41444.1
901.9923	1649.0313	42395.15	41510.5
902.1342	1650.7751	42328.65	41439.85
902.2761	1652.5181	42211.25	41327.4
902.4179	1654.2604	42127	41243.45
902.5598	1656.0019	42250.55	41365.55
902.7016	1657.7427	42167.25	41283
902.8434	1659.4828	42297.55	41411.95
902.9852	1661.222	42174.65	41288.7
903.127	1662.9606	42172.4	41287.5
903.2687	1664.6984	41988.05	41101
903.4105	1666.4354	41901.65	41017.75
903.5522	1668.1717	41518.2	40631.3
903.6939	1669.9072	41078.8	40194.2
903.8356	1671.642	40956.75	40068.85
903.9773	1673.3761	40694.5	39809.75
904.119	1675.1094	40497.95	39614.7
904.2606	1676.8419	40169.3	39285.55
904.4022	1678.5737	40094.6	39209.4
904.5439	1680.3048	39927.4	39041.6
904.6855	1682.0351	39678.55	38793.55
904.827	1683.7646	39538.2	38650.65
904.9686	1685.4934	39506.1	38622.05
905.1101	1687.2215	39091.3	38205.55
905.2517	1688.9488	39245	38362.1
905.3932	1690.6754	38655.6	37769.75
905.5347	1692.4012	38850.05	37964.1
905.6761	1694.1263	38738.5	37853.95
905.8176	1695.8506	38527.25	37643.5
905.9591	1697.5742	38489.5	37606.05
906.1005	1699.297	38318.55	37434.6
906.2419	1701.0191	38223.8	37340.4
906.3833	1702.7404	37959.3	37075.55
906.5246	1704.461	37801.55	36915.65
906.666	1706.1808	37769.2	36883
906.8073	1707.8999	37701.3	36816.6
906.9487	1709.6182	37628.15	36745.9
907.09	1711.3358	37507.15	36626.4
907.2313	1713.0527	37419.85	36537.15
907.3725	1714.7688	37294	36406.25
907.5138	1716.4841	37010.15	36125.95
907.655	1718.1987	37047.7	36158.1
907.7962	1719.9126	36954.25	36073.1
907.9374	1721.6257	36850.25	35963.5
908.0786	1723.338	36858.5	35974.35
908.2198	1725.0496	36515.45	35632.2
908.3609	1726.7605	36451.65	35567.65
908.502	1728.4706	36386.55	35501.8
908.6431	1730.18	36291.65	35407.55
908.7842	1731.8886	36228.5	35347
908.9253	1733.5964	36083.25	35193.3
909.0664	1735.3036	36124.9	35239.95
909.2074	1737.0099	36031	35148.15
909.3484	1738.7156	35894	35013.25
909.4894	1740.4204	35668.9	34782.95
909.6304	1742.1246	35692.6	34806.7
909.7714	1743.8279	35651.25	34769.85
909.9123	1745.5306	35563.75	34681.6
910.0532	1747.2325	35290.8	34408.6
910.1941	1748.9336	35247.9	34366.3
910.335	1750.634	35179.8	34294.4
910.4759	1752.3336	35189.3	34309.25
910.6168	1754.0325	35017.95	34136.5
910.7576	1755.7307	35090.05	34208.2
910.8984	1757.4281	34875.9	33992.5
911.0392	1759.1247	34949.2	34059
911.18	1760.8206	34702.2	33815.85
911.3208	1762.5158	34696.2	33811
911.4615	1764.2102	34627.1	33744.65
911.6022	1765.9039	34453.5	33572.4
911.7429	1767.5968	34414.7	33531.75
911.8836	1769.289	34265.7	33383.5
912.0243	1770.9804	34226.85	33341.9
912.1649	1772.6711	34201.1	33317.55
912.3056	1774.361	34088.85	33204.4
912.4462	1776.0502	34028.25	33145.5
912.5868	1777.7386	33906.3	33019.65
912.7274	1779.4263	33863.85	32982.1
912.8679	1781.1132	33841.1	32959.85
913.0084	1782.7994	33703.35	32820.55
913.149	1784.4849	33669	32785.55
913.2895	1786.1696	33458	32571.7
913.4299	1787.8535	33471.6	32589.4
913.5704	1789.5367	33408.6	32526.1
913.7108	1791.2192	33322.05	32439.55
913.8513	1792.9009	33155.15	32242.9
913.9917	1794.5818	33130.4	32247.85
914.132	1796.2621	33021.65	32139
914.2724	1797.9415	32952.2	32068.55
914.4128	1799.6202	32859.05	31977.75
914.5531	1801.2982	32816.1	31932.55
914.6934	1802.9755	32714.2	31828.85
914.8337	1804.6519	32681.4	31798.55
914.9739	1806.3277	32573.9	31692.45
915.1142	1808.0027	32367.85	31487.8
915.2544	1809.6769	32408.85	31524.4
915.3946	1811.3504	32315.15	31432.45
915.5348	1813.0231	32175.2	31293.25
915.675	1814.6951	32189.2	31307.35
915.8151	1816.3664	32122.95	31238.7
915.9553	1818.0369	32050.2	31167.1
916.0954	1819.7067	31923.45	31040.3
916.2355	1821.3757	31973.35	31089.25
916.3755	1823.044	31853.65	30970
916.5156	1824.7115	31777.25	30894
916.6556	1826.3783	31640.15	30758.05
916.7956	1828.0443	31575.25	30693.25
916.9356	1829.7096	31507.95	30625.25
917.0756	1831.3741	31503.8	30617.3
917.2155	1833.0379	31389.25	30508.6
917.3555	1834.701	31280	30395.55
917.4954	1836.3633	31219.15	30335
917.6353	1838.0248	31125.75	30240.4
917.7751	1839.6856	31129.2	30246.9
917.915	1841.3457	31018.25	30135.95
918.0548	1843.005	31014	30132.7
918.1946	1844.6636	30986.25	30105.15
918.3344	1846.3214	30846.5	29962.8
918.4742	1847.9785	30822.45	29939.55
918.6139	1849.6349	30733.95	29850.45
918.7537	1851.2904	30710.75	29818.7
918.8934	1852.9453	30552.1	29667.95
919.0331	1854.5994	30507.55	29623.4
919.1727	1856.2528	30523.25	29635.2
919.3124	1857.9054	30410.8	29528.45
919.452	1859.5572	30404	29522.6
919.5916	1861.2083	30325.5	29443.95
919.7312	1862.8587	30362	29480.85
919.8708	1864.5084	30205.65	29322.25
920.0103	1866.1572	30124.9	29242.4
920.1498	1867.8054	30013.05	29131.05
920.2893	1869.4528	30008.6	29124
920.4288	1871.0994	29863.75	28978.75
920.5683	1872.7453	29836.2	28952.65
920.7077	1874.3905	29725.7	28835.95
920.8471	1876.0349	29644	28759.9
920.9865	1877.6786	29670.7	28786.25
921.1259	1879.3215	29641.05	28760.15
921.2653	1880.9637	29522.5	28637.5
921.4046	1882.6051	29494.55	28613.55
921.5439	1884.2458	29419.25	28534.9
921.6832	1885.8858	29257.85	28376.3
921.8225	1887.525	29239.3	28356.9
921.9617	1889.1634	29084.2	28201.95
922.101	1890.8011	29014.15	28131
922.2402	1892.4381	28903.45	28019.95
922.3794	1894.0743	28956.65	28074.1
922.5185	1895.7098	28850	27967.55
922.6577	1897.3446	28815.35	27933.75
922.7968	1898.9786	28729.5	27842.7
922.9359	1900.6118	28631.5	27751.15
923.075	1902.2443	28532.35	27646.05
923.214	1903.8761	28466.25	27585.3
923.3531	1905.5071	28347.3	27463.65
923.4921	1907.1374	28215.9	27330.75
923.6311	1908.7669	28204.8	27324
923.77	1910.3957	28168.75	27285.3
923.909	1912.0237	27973.15	27088.9
924.0479	1913.651	27957.9	27073.45
924.1868	1915.2776	27898.35	27018
924.3257	1916.9034	27735.55	26856.45
924.4646	1918.5285	27625	26741.9
924.6034	1920.1528	27565.15	26683.25
924.7422	1921.7764	27477.75	26595.6
924.881	1923.3992	27342.5	26460.05
925.0198	1925.0213	27163.15	26280.9
925.1586	1926.6427	27071.1	26190.15
925.2973	1928.2633	27215.6	26122.4
925.436	1929.8832	26997.5	26111.75
925.5747	1931.5023	26832.05	25948.2
925.7134	1933.1207	26814.1	25931.6
925.852	1934.7383	26812.15	25929.65
925.9906	1936.3552	26672.3	25791.9
926.1292	1937.9714	26608.7	25726.2
926.2678	1939.5868	26537	25650.9
926.4064	1941.2015	26384.15	25501.35
926.5449	1942.8154	26288.6	25404.15
926.6834	1944.4286	26144.8	25262.45
926.8219	1946.041	26096.65	25191.7
926.9604	1947.6528	25976.25	25088.65
927.0988	1949.2637	25892.65	25012.05
927.2372	1950.8739	25789.25	24906.6
927.3756	1952.4834	25802	24918.65
927.514	1954.0921	25722.05	24838.95
927.6523	1955.7001	25626.4	24740.15
927.7907	1957.3074	25566.45	24688.5
927.929	1958.9139	25399.55	24516.95
928.0673	1960.5197	25393.95	24511
928.2055	1962.1247	25231.95	24353.35
928.3438	1963.729	25144.3	24263.75
928.482	1965.3325	25091.65	24187.95
928.6202	1966.9353	25019.15	24137.7
928.7584	1968.5374	24931.75	24050.85
928.8965	1970.1387	24843.65	23962.65
929.0346	1971.7393	24748.45	23868.2
929.1727	1973.3392	24673.9	23794.1
929.3108	1974.9383	24592.85	23713.25
929.4489	1976.5366	24461.3	23579
929.5869	1978.1342	24422.2	23540.75
929.7249	1979.7311	24414.55	23530.45
929.8629	1981.3273	24322.3	23438.9
930.0009	1982.9227	24214.05	23332.3
930.1388	1984.5173	24157.45	23277
930.2767	1986.1112	24032.4	23151.4
930.4146	1987.7044	23999.6	23119.6
930.5525	1989.2968	23932.5	23050.55
930.6904	1990.8885	23904.55	23021.6
930.8282	1992.4795	23839.2	22958.65
930.966	1994.0697	23737	22855.2
931.1038	1995.6592	23676.65	22795.45
931.2415	1997.2479	23577.3	22695.65
931.3793	1998.8359	23556.45	22677.75
931.517	2000.4232	23440	22562.05
931.6547	2002.0097	23360.8	22484.15
931.7923	2003.5955	23235.7	22354.7
931.93	2005.1805	23257.3	22374
932.0676	2006.7648	23159.35	22279.75
932.2052	2008.3484	23081.1	22201.7
932.3427	2009.9312	23090.35	22209.7
932.4803	2011.5133	23001	22121.6
932.6178	2013.0946	22902.05	22022.8
932.7553	2014.6752	22881.05	22002.85
932.8928	2016.2551	22824.5	21944
933.0302	2017.8342	22703.4	21822.9
933.1676	2019.4126	22637.2	21757.25
933.305	2020.9902	22491.3	21612.1
933.4424	2022.5672	22474.45	21594.65
933.5798	2024.1433	22424.85	21540.3
933.7171	2025.7188	22349.4	21471.4
933.8544	2027.2935	22331.7	21451.05
933.9917	2028.8674	22220.8	21343.6
934.129	2030.4406	22153.95	21276.05
934.2662	2032.0131	22040.85	21162.4
934.4034	2033.5849	21958.45	21073.25
934.5406	2035.1559	21926.05	21047
934.6778	2036.7261	21901.9	21023.45
934.8149	2038.2957	21815.55	20936.2
934.952	2039.8645	21768.1	20890.4
935.0891	2041.4325	21774.5	20891.7
935.2262	2042.9998	21677.6	20799.55
935.3632	2044.5664	21675.65	20792.2
935.5002	2046.1323	21587.2	20710.55
935.6372	2047.6974	21513.05	20634.25
935.7742	2049.2617	21442.05	20565.15
935.9111	2050.8254	21425.95	20542
936.048	2052.3883	21362.8	20481.65
936.1849	2053.9504	21297.5	20415.1
936.3218	2055.5118	21217.3	20338.85
936.4586	2057.0725	21112.35	20229.6
936.5955	2058.6325	21089.3	20208.5
936.7323	2060.1917	21037.85	20157.4
936.869	2061.7502	20944.25	20062.75
937.0058	2063.3079	20905.45	20026.15
937.1425	2064.8649	20831.85	19950.15
937.2792	2066.4212	20783.95	19903.55
937.4159	2067.9767	20743.65	19864.7
937.5525	2069.5315	20672.15	19793.5
937.6891	2071.0856	20579.2	19700.6
937.8257	2072.6389	20491.95	19610.5
937.9623	2074.1915	20397.2	19521.45
938.0989	2075.7433	20322.2	19441.2
938.2354	2077.2945	20305.65	19427.35
938.3719	2078.8448	20227.75	19347.7
938.5084	2080.3945	20112.15	19232.5
938.6448	2081.9434	20118.55	19238.6
938.7812	2083.4916	20077.05	19196.4
938.9176	2085.039	19962.8	19081.5
939.054	2086.5857	19886.8	19004.2
939.1903	2088.1317	19877.65	18997
939.3267	2089.677	19855.5	18972.85
939.463	2091.2215	19784.25	18903.3
939.5992	2092.7652	19743.4	18860.2
939.7355	2094.3083	19648.7	18766.6
939.8717	2095.8506	19653.75	18773.9
940.0079	2097.3921	19609.85	18730.45
940.1441	2098.933	19546	18665.5
940.2802	2100.4731	19509.95	18629.3
940.4163	2102.0124	19521	18623.5
940.5524	2103.5511	19426.3	18546.65
940.6885	2105.089	19382.4	18502.95
940.8245	2106.6261	19334.05	18451.75
940.9606	2108.1626	19289	18407.95
941.0965	2109.6983	19266.2	18354.85
941.2325	2111.2332	19156	18276
941.3684	2112.7675	19125.65	18244.6
941.5044	2114.301	19074.45	18192.2
941.6403	2115.8337	19066.85	18185.8
941.7761	2117.3657	18977.15	18094.85
941.912	2118.897	18954.25	18072.9
942.0478	2120.4276	18896.3	18010.1
942.1835	2121.9575	18806	17923.9
942.3193	2123.4866	18783.95	17887.3
942.455	2125.0149	18753.85	17869.8
942.5907	2126.5426	18619.3	17740.85
942.7264	2128.0695	18576.4	17693.05
942.8621	2129.5956	18566.9	17689.5
942.9977	2131.1211	18549.05	17666.7
943.1333	2132.6458	18444.65	17566.2
943.2689	2134.1698	18415.55	17533.5
943.4044	2135.693	18367.3	17484.3
943.54	2137.2155	18340.6	17460.3
943.6755	2138.7373	18291.1	17410.55
943.8109	2140.2584	18224.35	17343.75
943.9464	2141.7787	18146.4	17260
944.0818	2143.2983	18101.7	17224.35
944.2172	2144.8171	17994.45	17116.45
944.3526	2146.3353	17945	17063.75
944.4879	2147.8527	17913.45	17034.5
944.6232	2149.3693	17889.75	17009.55
944.7585	2150.8853	17829.9	16949.15
944.8938	2152.4005	17714.25	16832.15
945.029	2153.9149	17717.95	16836
945.1642	2155.4287	17670.5	16790.75
945.2994	2156.9417	17631.15	16747.3
945.4346	2158.454	17548.55	16666.5
945.5697	2159.9655	17522.1	16642.9
945.7048	2161.4764	17506.7	16626.6
945.8399	2162.9865	17438.1	16558.25
945.9749	2164.4958	17394.5	16513.55
946.1099	2166.0045	17311.05	16427.05
946.2449	2167.5124	17301.6	16422.25
946.3799	2169.0195	17259.95	16380.55
946.5148	2170.526	17228.95	16346.45
946.6498	2172.0317	17168.35	16287.1
946.7846	2173.5367	17119.7	16238.45
946.9195	2175.0409	17078.05	16198.95
947.0543	2176.5445	17075.75	16195.55
947.1891	2178.0473	16988.6	16108.6
947.3239	2179.5494	16920.05	16032.45
947.4587	2181.0507	16851.05	15971.3
947.5934	2182.5513	16791.7	15910.3
947.7281	2184.0512	16772.8	15891.5
947.8628	2185.5504	16709.2	15828.75
947.9974	2187.0488	16589.3	15708.95
948.132	2188.5465	16559.85	15675.7
948.2666	2190.0435	16502.5	15624.05
948.4012	2191.5397	16474.45	15593.35
948.5357	2193.0353	16437.9	15558.25
948.6702	2194.5301	16338.95	15456.25
948.8047	2196.0241	16284.8	15401.65
948.9392	2197.5175	16256.2	15374.4
949.0736	2199.0101	16193.4	15306.4
949.208	2200.502	16092.5	15210.2
949.3424	2201.9931	16029	15147.1
949.4767	2203.4835	15983.1	15102
949.611	2204.9733	15965.5	15078.55
949.7453	2206.4622	15918.05	15040.3
949.8796	2207.9505	15849.6	14966.25
950.0138	2209.438	15803.15	14925.75
950.148	2210.9248	15712.85	14830.5
950.2822	2212.4109	15670.3	14791.85
950.4164	2213.8962	15629.4	14746.55
950.5505	2215.3809	15587.95	14702.85
950.6846	2216.8648	15573.8	14691.85
950.8186	2218.3479	15527.85	14641.35
950.9527	2219.8304	15445.9	14562.05
951.0867	2221.3121	15407.4	14524
951.2207	2222.7931	15385.8	14506.1
951.3546	2224.2733	15282.35	14400.05
951.4886	2225.7529	15236	14354.65
951.6225	2227.2317	15178.95	14295.7
951.7563	2228.7098	15163.85	14283.2
951.8902	2230.1872	15130.1	14250.95
952.024	2231.6638	15079.05	14197.85
952.1578	2233.1397	15016.55	14132.6
952.2916	2234.6149	14984.3	14103.8
952.4253	2236.0894	14899.8	14018.7
952.559	2237.5632	14887.4	13995.65
952.6927	2239.0362	14821.05	13939.35
952.8263	2240.5085	14758.5	13877.2
952.9599	2241.9801	14710.2	13829.4
953.0935	2243.4509	14669.85	13788.65
953.2271	2244.921	14648.25	13767.6
953.3606	2246.3904	14569.15	13685.45
953.4941	2247.8591	14515.25	13634.75
953.6276	2249.3271	14510.8	13629.9
953.7611	2250.7943	14427.8	13547.05
953.8945	2252.2608	14384.95	13504.45
954.0279	2253.7266	14369.3	13487.95
954.1612	2255.1917	14315.5	13435
954.2946	2256.656	14284.45	13402.95
954.4279	2258.1197	14218.6	13339.5
954.5612	2259.5826	14181.55	13299.95
954.6944	2261.0447	14155.35	13271.55
954.8276	2262.5062	14093.2	13208.8
954.9608	2263.9669	14058.4	13175.65
955.094	2265.4269	14040.35	13158.65
955.2271	2266.8862	14010.45	13130.35
955.3602	2268.3448	13952.5	13072
955.4933	2269.8026	13978.55	13098
955.6264	2271.2598	13907.6	13027.9
955.7594	2272.7162	13859.3	12978.35
955.8924	2274.1719	13800	12918.55
956.0253	2275.6268	13784.4	12903.25
956.1583	2277.0811	13739.15	12855.25
956.2912	2278.5346	13688.3	12807.15
956.4241	2279.9874	13676.5	12796.75
956.5569	2281.4395	13665.25	12785.5
956.6897	2282.8908	13581.2	12694.45
956.8225	2284.3414	13535.7	12653.45
956.9553	2285.7914	13502	12621.8
957.088	2287.2406	13458.5	12575.25
957.2207	2288.689	13440.35	12561.25
957.3534	2290.1368	13412.8	12529.8
957.486	2291.5838	13361.95	12478.2
957.6186	2293.0302	13324.6	12441.75
957.7512	2294.4758	13249.8	12369.45
957.8838	2295.9206	13204.8	12319.8
958.0163	2297.3648	13154.7	12272.65
958.1488	2298.8082	13135.1	12251.7
958.2813	2300.251	13092.1	12211.7
958.4137	2301.693	13045.75	12161.85
958.5461	2303.1343	13038.1	12155.75
958.6785	2304.5748	12983.1	12101.15
958.8108	2306.0147	12933.15	12053.45
958.9432	2307.4538	12919.4	12035.8
959.0754	2308.8922	12849.5	11971.4
959.2077	2310.3299	12820.65	11941.25
959.3399	2311.7669	12815.9	11935.8
959.4721	2313.2031	12777	11894.8
959.6043	2314.6387	12725.35	11844.85
959.7365	2316.0735	12714.25	11834.45
959.8686	2317.5076	12680.45	11798
960.0006	2318.941	12664.7	11784.95
960.1327	2320.3737	12602.35	11719.2
960.2647	2321.8056	12542.8	11660.15
960.3967	2323.2369	12515.35	11633.6
960.5287	2324.6674	12519.6	11635.95
960.6606	2326.0972	12440.2	11556.25
960.7925	2327.5263	12379.65	11498.6
960.9244	2328.9547	12341.1	11458.65
961.0562	2330.3823	12322.55	11440.6
961.1881	2331.8092	12296.6	11412.75
961.3198	2333.2355	12238.35	11357
961.4516	2334.661	12235.7	11353.8
961.5833	2336.0858	12184.85	11300.45
961.715	2337.5098	12160.25	11280.35
961.8467	2338.9332	12138.45	11257.5
961.9783	2340.3558	12077.35	11191.5
962.1099	2341.7778	12059.8	11178.3
962.2415	2343.199	11999.8	11117.6
962.373	2344.6195	11974.1	11092.95
962.5045	2346.0393	11936.05	11056.05
962.636	2347.4583	11915.5	11034.05
962.7675	2348.8767	11871.3	10989.45
962.8989	2350.2943	11831.15	10948.1
963.0303	2351.7113	11823.25	10939.05
963.1617	2353.1275	11794.95	10912.4
963.293	2354.543	11742.45	10852.95
963.4243	2355.9578	11713.45	10831.3
963.5556	2357.3718	11652.55	10769.75
963.6868	2358.7852	11591.4	10705.65
963.818	2360.1978	11586.45	10702.25
963.9492	2361.6098	11529.85	10649.15
964.0803	2363.021	11518.05	10631.65
964.2114	2364.4315	11434.9	10554.85
964.3425	2365.8413	11430.05	10542.2
964.4736	2367.2504	11399.7	10519.7
964.6046	2368.6587	11344.85	10463.9
964.7356	2370.0664	11307	10427
964.8666	2371.4733	11243.15	10363.05
964.9975	2372.8795	11235.75	10354.85
965.1284	2374.285	11196.1	10313.25
965.2593	2375.6899	11147.7	10266.25
965.3901	2377.0939	11068.9	10188.65
965.5209	2378.4973	11035.8	10158.3
965.6517	2379.9	11023.8	10142.65
965.7825	2381.3019	10989.25	10109.2
965.9132	2382.7032	10946.55	10068.85
966.0439	2384.1037	10933.05	10054.1
966.1745	2385.5035	10888.1	10007.5
966.3051	2386.9027	10878.5	9999.7
966.4357	2388.3011	10821.6	9936.7
966.5663	2389.6987	10798.25	9917.95
966.6968	2391.0957	10775.25	9896.95
966.8273	2392.492	10708.4	9826.3
966.9578	2393.8876	10650.05	9768.8
967.0882	2395.2824	10596.2	9715.55
967.2186	2396.6765	10560	9679.6
967.349	2398.07	10527.3	9646.2
967.4793	2399.4627	10523.15	9641.6
967.6097	2400.8547	10517.55	9635.75
967.7399	2402.246	10468.95	9583.05
967.8702	2403.6366	10389.45	9508.8
968.0004	2405.0265	10340.05	9458.95
968.1306	2406.4156	10321.55	9438.1
968.2607	2407.8041	10272.25	9389.8
968.3909	2409.1918	10247.5	9364.05
968.521	2410.5789	10187.15	9306.1
968.651	2411.9652	10152.05	9268.85
968.781	2413.3508	10120.05	9240.1
968.911	2414.7358	10099.05	9217.2
969.041	2416.12	10048	9169.35
969.1709	2417.5035	10021.4	9141.3
969.3008	2418.8863	9976.9	9096.4
969.4307	2420.2684	9967.75	9087.4
969.5606	2421.6497	9901.95	9020.35
969.6904	2423.0304	9855.5	8977.25
969.8201	2424.4104	9821	8940.25
969.9499	2425.7896	9827.9	8945.8
970.0796	2427.1682	9760.05	8877.7
970.2093	2428.546	9762.9	8879.5
970.3389	2429.9232	9740.85	8858.05
970.4685	2431.2996	9704.8	8824.55
970.5981	2432.6753	9687.9	8807.85
970.7277	2434.0503	9658.65	8779.2
970.8572	2435.4246	9601	8719.45
970.9867	2436.7982	9578.25	8696.95
971.1161	2438.1711	9571.85	8691.05
971.2456	2439.5433	9541.8	8661.55
971.375	2440.9148	9498.15	8615.2
971.5043	2442.2856	9442.5	8562.5
971.6336	2443.6557	9413.25	8531.4
971.7629	2445.025	9390.45	8509.55
971.8922	2446.3937	9365.45	8483.9
972.0214	2447.7617	9335.65	8453.95
972.1506	2449.1289	9339.1	8458.8
972.2798	2450.4955	9290.85	8405.75
972.4089	2451.8613	9277.25	8396.95
972.538	2453.2265	9233.75	8353.6
972.6671	2454.5909	9225.7	8342.35
972.7961	2455.9546	9187.2	8309.45
972.9251	2457.3177	9151.1	8270.9
973.0541	2458.68	9115.9	8232.7
973.1831	2460.0416	9103.35	8224.75
973.312	2461.4025	9118.65	8237.5
973.4408	2462.7627	9074.8	8181.25
973.5697	2464.1222	9049	8168.75
973.6985	2465.4811	9013.3	8132.35
973.8273	2466.8392	8966.25	8084.55
973.956	2468.1966	8955.75	8072.9
974.0847	2469.5533	8969.2	8086.2
974.2134	2470.9093	8912	8030.65
974.3421	2472.2645	8876.45	7992.65
974.4707	2473.6191	8859.85	7980.05
974.5993	2474.973	8804.45	7922.55
974.7278	2476.3262	8790.8	7907.3
974.8563	2477.6787	8786.2	7905.35
974.9848	2479.0305	8733.45	7852.7
975.1132	2480.3816	8685.05	7801.5
975.2417	2481.7319	8666.4	7785.6
975.37	2483.0816	8630.4	7747.4
975.4984	2484.4306	8597.55	7716.1
975.6267	2485.7789	8577.95	7698.45
975.755	2487.1264	8563.6	7682.2
975.8833	2488.4733	8502.3	7624.75
976.0115	2489.8195	8473.95	7584
976.1397	2491.165	8437.45	7553.85
976.2678	2492.5097	8426.95	7545.45
976.3959	2493.8538	8397.9	7517.3
976.524	2495.1972	8334.35	7451.8
976.6521	2496.5398	8332.9	7451.1
976.7801	2497.8818	8289.05	7405.95
976.9081	2499.2231	8279.45	7397.65
977.036	2500.5637	8241.6	7358.05
977.164	2501.9035	8228.95	7347.05
977.2918	2503.2427	8216.55	7331.4
977.4197	2504.5812	8192.75	7310.85
977.5475	2505.919	8164.7	7279.9
977.6753	2507.256	8134.75	7254
977.8031	2508.5924	8084.45	7204.15
977.9308	2509.9281	8078.95	7190.05
978.0585	2511.2631	8050.95	7170.8
978.1861	2512.5974	8026.7	7144.3
978.3137	2513.9309	8004.45	7124.45
978.4413	2515.2638	7979.95	7069.95
978.5689	2516.596	7955.05	7074.25
978.6964	2517.9275	7876.8	6993.95
978.8239	2519.2583	7868.55	6986.3
978.9513	2520.5884	7861.45	6979.4
979.0788	2521.9178	7819.6	6937
979.2062	2523.2465	7805.05	6926.05
979.3335	2524.5745	7773.55	6893.95
979.4608	2525.9018	7770.1	6889.3
979.5881	2527.2284	7736.45	6855.9
979.7154	2528.5543	7714	6833.25
979.8426	2529.8796	7677.6	6797.65
979.9698	2531.2041	7645.65	6763.85
980.0969	2532.5279	7638.45	6760.4
980.224	2533.851	7654.65	6774.75
980.3511	2535.1735	7599.4	6718.05
980.4781	2536.4952	7566.95	6686.85
980.6052	2537.8163	7581.6	6699.85
980.7321	2539.1366	7553	6672.8
980.8591	2540.4562	7536.85	6653.4
980.986	2541.7752	7515.7	6635
981.1129	2543.0935	7493.6	6611.25
981.2397	2544.411	7474.25	6591.55
981.3665	2545.7279	7472.9	6592.05
981.4933	2547.0441	7482.45	6600.5
981.62	2548.3596	7441.8	6556.05
981.7467	2549.6744	7434.05	6554.05
981.8734	2550.9885	7415.25	6524.35
982.0001	2552.3019	7377.95	6498.15
982.1267	2553.6146	7390.75	6507.9
982.2532	2554.9266	7333.9	6453.65
982.3798	2556.2379	7316.95	6434
982.5063	2557.5485	7313.45	6433.85
982.6327	2558.8585	7304.25	6416
982.7592	2560.1677	7294.75	6410.25
982.8856	2561.4762	7275	6393.9
983.0119	2562.7841	7239.55	6355.7
983.1383	2564.0913	7213.4	6330.85
983.2646	2565.3977	7203.2	6321.45
983.3908	2566.7035	7167	6287.3
983.517	2568.0086	7164.05	6281.4
983.6432	2569.313	7157.45	6278.25
983.7694	2570.6167	7140.9	6255.75
983.8955	2571.9197	7115.75	6236.45
984.0216	2573.222	7112.9	6227.8
984.1476	2574.5236	7093.5	6212.8
984.2737	2575.8246	7081.15	6198.7
984.3996	2577.1248	7091.05	6207.7
984.5256	2578.4244	7037.3	6155.8
984.6515	2579.7232	7054.9	6172.05
984.7774	2581.0214	7013.65	6106.5
984.9032	2582.3189	6994.25	6116.4
985.029	2583.6157	7003.6	6116
985.1548	2584.9118	6990.25	6107.65
985.2806	2586.2072	6948.2	6067.4
985.4063	2587.5019	6923.7	6041.35
985.5319	2588.7959	6908.55	6027.35
985.6576	2590.0893	6920.55	6038.85
985.7832	2591.3819	6887.85	6008.35
985.9087	2592.6739	6840.6	5959.9
986.0343	2593.9652	6821.35	5939.5
986.1597	2595.2557	6843.1	5964.45
986.2852	2596.5456	6783.2	5899.9
986.4106	2597.8348	6773.65	5892.45
986.536	2599.1234	6755.55	5875.9
986.6614	2600.4112	6717.05	5835.05
986.7867	2601.6983	6708.75	5824.45
986.912	2602.9848	6671.85	5791.35
987.0372	2604.2705	6660.35	5771.9
987.1624	2605.5556	6646.45	5767
987.2876	2606.84	6596.75	5715.15
987.4128	2608.1237	6582.4	5700.7
987.5379	2609.4067	6546.65	5665.8
987.6629	2610.689	6554.15	5664.95
987.788	2611.9707	6526.95	5643.3
987.913	2613.2516	6500.2	5613.7
988.0379	2614.5319	6481	5601.5
988.1629	2615.8115	6452.8	5570.95
988.2878	2617.0903	6409.9	5528.9
988.4126	2618.3685	6387.4	5506
988.5375	2619.6461	6365.95	5484.95
988.6622	2620.9229	6376.9	5496.8
988.787	2622.199	6349.5	5466.5
988.9117	2623.4745	6312.5	5430.95
989.0364	2624.7493	6319.4	5438.45
989.161	2626.0234	6297.05	5415.7
989.2857	2627.2968	6253.05	5372.25
989.4102	2628.5695	6245.95	5364.3
989.5348	2629.8415	6217.7	5338.25
989.6593	2631.1128	6182.5	5299.3
989.7837	2632.3835	6159.7	5277.15
989.9082	2633.6535	6134.75	5254.8
990.0326	2634.9228	6115.45	5235.4
990.1569	2636.1914	6086.1	5205.1
990.2812	2637.4593	6104.5	5218.85
990.4055	2638.7265	6070.6	5189.65
990.5298	2639.9931	6051.95	5170.3
990.654	2641.259	6049.6	5169.6
990.7782	2642.5242	6026.1	5144.1
990.9023	2643.7887	6003.35	5122.7
991.0264	2645.0525	5999.35	5120.2
991.1505	2646.3156	5985.35	5104.25
991.2745	2647.5781	5926.45	5047.3
991.3985	2648.8398	5914.2	5035.3
991.5225	2650.1009	5900.15	5010.2
991.6464	2651.3613	5890.2	5008.05
991.7703	2652.6211	5879.3	4999.75
991.8942	2653.8801	5864.35	4985
992.018	2655.1385	5846.15	4962
992.1418	2656.3961	5822.95	4942.3
992.2655	2657.6531	5805.35	4923.6
992.3892	2658.9094	5798.35	4917.55
992.5129	2660.1651	5784.95	4906
992.6366	2661.42	5757.7	4875.85
992.7602	2662.6743	5759.15	4878.2
992.8837	2663.9279	5757.75	4878.05
993.0073	2665.1808	5733.05	4851.65
993.1307	2666.433	5708.55	4826.3
993.2542	2667.6846	5699.55	4816.65
993.3776	2668.9354	5697.6	4814.25
993.501	2670.1856	5656.45	4775.15
993.6244	2671.4351	5654.25	4773.6
993.7477	2672.6839	5647.15	4766.9
993.8709	2673.9321	5595.35	4715.75
993.9942	2675.1795	5597	4717.35
994.1174	2676.4263	5577.65	4697.8
994.2405	2677.6724	5561.5	4681.75
994.3637	2678.9179	5561.45	4681.3
994.4868	2680.1626	5533.1	4650.8
994.6098	2681.4067	5530.3	4649.2
994.7328	2682.6501	5512.1	4631.85
994.8558	2683.8928	5486.5	4605.55
994.9788	2685.1348	5482.4	4604.2
995.1017	2686.3761	5437.85	4558.2
995.2245	2687.6168	5424	4542.6
995.3474	2688.8568	5411.6	4532.75
995.4702	2690.0961	5382.2	4503.65
995.5929	2691.3348	5379.8	4499.25
995.7156	2692.5727	5374.05	4494.35
995.8383	2693.81	5367.15	4486.15
995.961	2695.0466	5334.7	4455.7
996.0836	2696.2826	5333.6	4450.9
996.2062	2697.5178	5314.7	4433
996.3287	2698.7524	5290.25	4409.55
996.4512	2699.9863	5291.2	4405.55
996.5737	2701.2195	5270.65	4392.3
996.6961	2702.452	5275.05	4391.75
996.8185	2703.6839	5249.7	4368.55
996.9408	2704.9151	5207.35	4327.45
997.0631	2706.1456	5189.75	4307.8
997.1854	2707.3755	5183.5	4302.8
997.3077	2708.6046	5187.45	4303.25
997.4299	2709.8331	5155.6	4276.4
997.552	2711.0609	5126.05	4246.1
997.6742	2712.2881	5123.65	4243.25
997.7963	2713.5145	5130.9	4248.3
997.9183	2714.7403	5118.8	4239.75
998.0403	2715.9654	5071.9	4189.85
998.1623	2717.1899	5079.45	4197.3
998.2842	2718.4136	5061.5	4182.4
998.4062	2719.6367	5069.25	4189
998.528	2720.8591	5042.15	4154.65
998.6498	2722.0809	5020.85	4139.1
998.7716	2723.3019	5010.25	4125.8
998.8934	2724.5223	5001.6	4120.3
999.0151	2725.7421	4976.35	4094.3
999.1368	2726.9611	4976.3	4095.65
999.2584	2728.1795	4959.15	4073.05
999.38	2729.3972	4938.85	4059.3
999.5016	2730.6142	4943.6	4056.5
999.6231	2731.8306	4891.75	4011.1
999.7446	2733.0462	4874.45	3992.9
999.8661	2734.2612	4859.9	3974.65
999.9875	2735.4756	4805.55	3922.6
1000.1089	2736.6892	4787.65	3907.85
1000.2302	2737.9022	4754.1	3875.75
1000.3515	2739.1145	4748.4	3867.3
1000.4728	2740.3262	4753.85	3866
1000.594	2741.5372	4739.2	3857.75
1000.7152	2742.7475	4700	3820.75
1000.8363	2743.9571	4691.6	3809.7
1000.9575	2745.1661	4667.15	3784.3
1001.0785	2746.3744	4660.1	3780
1001.1996	2747.582	4645.3	3765.95
1001.3206	2748.7889	4624.85	3743.1
1001.4415	2749.9952	4609.85	3729.95
1001.5625	2751.2008	4585.4	3703.95
1001.6833	2752.4057	4582.75	3699.25
1001.8042	2753.61	4559.8	3679.5
1001.925	2754.8136	4556.15	3672.1
1002.0458	2756.0165	4527.8	3647.25
1002.1665	2757.2188	4499.8	3620
1002.2872	2758.4204	4504.45	3624.7
1002.4078	2759.6213	4484	3602.2
1002.5285	2760.8215	4469.8	3585.75
1002.649	2762.0211	4485.35	3605.65
1002.7696	2763.22	4446.55	3563.15
1002.8901	2764.4182	4445.1	3563.05
1003.0106	2765.6158	4436.85	3557.3
1003.131	2766.8127	4404.25	3523.85
1003.2514	2768.009	4390.6	3509.6
1003.3717	2769.2045	4390.8	3509
1003.492	2770.3994	4346.65	3464.6
1003.6123	2771.5936	4371.3	3490.65
1003.7325	2772.7872	4330.35	3450.2
1003.8527	2773.9801	4318.6	3438.6
1003.9729	2775.1723	4309.85	3412.1
1004.093	2776.3639	4287.8	3408.25
1004.2131	2777.5548	4278.75	3394.95
1004.3331	2778.745	4265.7	3385.5
1004.4531	2779.9346	4249.05	3369.1
1004.5731	2781.1235	4273.1	3392.35
1004.693	2782.3117	4226.05	3348.65
1004.8129	2783.4992	4220.5	3342.15
1004.9328	2784.6861	4202.7	3321
1005.0526	2785.8723	4199.65	3317
1005.1723	2787.0579	4185.1	3303.6
1005.2921	2788.2428	4169.25	3290.35
1005.4118	2789.427	4158.15	3277.9
1005.5314	2790.6106	4154.7	3273.95
1005.651	2791.7935	4136.65	3253.45
1005.7706	2792.9757	4126.3	3247.6
1005.8902	2794.1573	4130.95	3247.75
1006.0097	2795.3382	4123.15	3246.25
1006.1291	2796.5184	4099.75	3219.85
1006.2485	2797.698	4083.1	3201.85
1006.3679	2798.8769	4085.5	3206.8
1006.4873	2800.0551	4084.4	3203.1
1006.6066	2801.2327	4063.7	3181.45
1006.7258	2802.4096	4049.8	3171.55
1006.8451	2803.5859	4052.35	3171.45
1006.9642	2804.7615	4056.15	3175.8
1007.0834	2805.9364	4033.15	3154.1
1007.2025	2807.1106	4050.45	3170.5
1007.3216	2808.2842	4052.45	3172.8
1007.4406	2809.4572	4046	3166.7
1007.5596	2810.6294	4040.8	3158.15
1007.6785	2811.801	4045.6	3168.55
1007.7975	2812.972	4069.6	3191.6
1007.9163	2814.1423	4068.05	3187.5
1008.0352	2815.3119	4068.55	3188.4
1008.154	2816.4808	4096.1	3217
1008.2727	2817.6491	4103.55	3225.6
1008.3914	2818.8167	4117.6	3240.4
1008.5101	2819.9837	4131.1	3247
1008.6288	2821.15	4148.1	3269.4
1008.7474	2822.3157	4163.2	3282.55
1008.8659	2823.4807	4176.45	3296.95
1008.9844	2824.645	4193.55	3314.15
1009.1029	2825.8086	4218	3339
1009.2214	2826.9716	4230.65	3352.65
1009.3398	2828.134	4249.9	3369.65
1009.4581	2829.2957	4262.55	3382.7
1009.5764	2830.4567	4269.85	3391.75
1009.6947	2831.617	4266.3	3387.8
1009.813	2832.7767	4263.55	3383.9
1009.9312	2833.9358	4265.95	3386.1
1010.0493	2835.0941	4263.85	3382.8
1010.1675	2836.2519	4265.15	3386.3
1010.2855	2837.4089	4224.6	3342.5
1010.4036	2838.5653	4206.2	3326
1010.5216	2839.7211	4185.4	3307.6
1010.6396	2840.8761	4190.55	3309.6
1010.7575	2842.0306	4183.95	3307.8
1010.8754	2843.1843	4178.9	3298.9
1010.9932	2844.3374	4194.3	3316.6
1011.111	2845.4899	4187.75	3307.15
1011.2288	2846.6417	4231.05	3352.4
1011.3465	2847.7928	4242.9	3363
1011.4642	2848.9433	4257.45	3377.45
1011.5818	2850.0931	4289.95	3409.5
1011.6995	2851.2422	4317.75	3436.75
1011.817	2852.3907	4328.05	3448.05
1011.9345	2853.5385	4347.85	3467.5
1012.052	2854.6857	4366.95	3476.75
1012.1695	2855.8323	4372.9	3494
1012.2869	2856.9781	4380.4	3501
1012.4042	2858.1233	4396.9	3517.3
1012.5216	2859.2679	4412.9	3532.9
1012.6389	2860.4118	4408.35	3529.05
1012.7561	2861.555	4441.25	3557.2
1012.8733	2862.6976	4454.7	3576.35
1012.9905	2863.8395	4459.4	3578.95
1013.1076	2864.9808	4460.25	3581.45
1013.2247	2866.1214	4455.75	3576.7
1013.3417	2867.2614	4460.05	3580
1013.4587	2868.4007	4444.05	3565.2
1013.5757	2869.5393	4437.65	3556
1013.6926	2870.6773	4443.45	3561.1
1013.8095	2871.8146	4444.4	3562.1
1013.9263	2872.9513	4436.05	3552.8
1014.0431	2874.0874	4407.9	3529.5
1014.1599	2875.2227	4388.1	3507.8
1014.2766	2876.3574	4388.9	3510.1
1014.3933	2877.4915	4358.4	3481.75
1014.51	2878.6249	4341.7	3462.2
1014.6266	2879.7577	4314.15	3435.15
1014.7431	2880.8898	4307.7	3418.05
1014.8596	2882.0212	4266.75	3389.1
1014.9761	2883.152	4252.95	3372.55
1015.0925	2884.2821	4241.15	3362.65
1015.2089	2885.4116	4222.85	3341.55
1015.3253	2886.5405	4211.55	3331.2
1015.4416	2887.6686	4225.3	3341.1
1015.5579	2888.7962	4213.5	3337.05
1015.6741	2889.923	4197.35	3318.45
1015.7903	2891.0493	4200.4	3322.8
1015.9065	2892.1748	4196	3315.75
1016.0226	2893.2997	4187.5	3307.1
1016.1387	2894.424	4182.8	3304.5
1016.2547	2895.5476	4173.6	3291.85
1016.3707	2896.6706	4174.5	3296.5
1016.4866	2897.7929	4179.55	3299.05
1016.6025	2898.9145	4184.1	3305.65
1016.7184	2900.0355	4163.6	3282
1016.8342	2901.1559	4173.9	3293.4
1016.95	2902.2756	4182.4	3302.2
1017.0658	2903.3946	4201.1	3322.45
1017.1815	2904.513	4202.1	3320.2
1017.2971	2905.6308	4188.2	3308.85
1017.4127	2906.7479	4187.5	3307.65
1017.5283	2907.8643	4207.65	3328.15
1017.6439	2908.9801	4203.45	3325.5
1017.7594	2910.0953	4193.5	3314.9
1017.8748	2911.2098	4187.9	3307.45
1017.9902	2912.3236	4161.85	3274.35
1018.1056	2913.4368	4149.15	3266.25
1018.2209	2914.5494	4133.1	3253.8
1018.3362	2915.6613	4119.7	3234.65
1018.4515	2916.7725	4082.2	3201.35
1018.5667	2917.8831	4077.2	3197.2
1018.6819	2918.9931	4043.8	3161.7
1018.797	2920.1024	4019.1	3141.15
1018.9121	2921.211	4013.55	3135.2
1019.0271	2922.319	3980.2	3100.25
1019.1421	2923.4264	3971.3	3093.25
1019.2571	2924.5331	3966.3	3090.05
1019.372	2925.6391	3960.3	3082.7
1019.4869	2926.7445	3942.8	3065.65
1019.6017	2927.8493	3944.35	3065.8
1019.7165	2928.9534	3941.15	3061.65
1019.8313	2930.0569	3927.8	3046.3
1019.946	2931.1597	3910.55	3032.3
1020.0606	2932.2619	3906.7	3027.35
1020.1753	2933.3634	3910	3032.15
1020.2899	2934.4643	3913.55	3026.35
1020.4044	2935.5645	3895.75	3011.85
1020.5189	2936.6641	3880.75	2996.75
1020.6334	2937.763	3851	2972.15
1020.7478	2938.8613	3813.9	2934.05
1020.8622	2939.959	3801.45	2918.4
1020.9765	2941.056	3748.95	2868.6
1021.0908	2942.1523	3712.8	2832.05
1021.2051	2943.248	3677.3	2799.6
1021.3193	2944.3431	3610.1	2730
1021.4334	2945.4375	3563.95	2684.05
1021.5476	2946.5313	3513.85	2635.8
1021.6617	2947.6244	3462.6	2584.2
1021.7757	2948.7169	3396.25	2514.15
1021.8897	2949.8087	3354.65	2474.75
1022.0037	2950.8999	3303.35	2425.95
1022.1176	2951.9904	3266.9	2388.85
1022.2315	2953.0803	3217.1	2338.95
1022.3453	2954.1696	3179.75	2299.75
1022.4591	2955.2582	3146.65	2269.4
1022.5728	2956.3462	3109.45	2232.05
1022.6865	2957.4335	3087.6	2206.65
1022.8002	2958.5202	3059.9	2179.35
1022.9138	2959.6062	3037.9	2160.1
1023.0274	2960.6916	3038.65	2158.15
1023.141	2961.7764	3003.95	2124.95
1023.2545	2962.8605	2994.7	2114.5
1023.3679	2963.9439	2982.15	2104.6
1023.4813	2965.0267	2965.95	2085.45
1023.5947	2966.1089	2971.05	2069.7
1023.708	2967.1905	2944.7	2066.85
1023.8213	2968.2714	2940.6	2062.45
1023.9346	2969.3516	2935.8	2058.05
1024.0478	2970.4312	2921.8	2032.5
1024.1609	2971.5102	2923.4	2045.3
1024.274	2972.5885	2921.25	2043.65
1024.3871	2973.6662	2919	2034.95
1024.5002	2974.7432	2901.1	2022.35
1024.6132	2975.8196	2882	2003
1024.7261	2976.8954	2875.3	1997.4
1024.839	2977.9705	2869.8	1988.8
1024.9519	2979.045	2865.55	1988.3
1025.0647	2980.1188	2845.65	1967.55
1025.1775	2981.192	2835.5	1957.75
1025.2902	2982.2645	2813.8	1935.05
1025.4029	2983.3364	2793.25	1912.85
1025.5156	2984.4077	2782	1903.05
1025.6282	2985.4783	2760.05	1875.8
1025.7407	2986.5483	2736.05	1860.05
1025.8532	2987.6177	2727.65	1850.15
1025.9657	2988.6864	2706.8	1826.1
1026.0782	2989.7545	2670.2	1790.2
1026.1906	2990.8219	2663.7	1783.65
1026.3029	2991.8887	2637.05	1755.15
1026.4152	2992.9548	2616.6	1737.6
1026.5275	2994.0204	2591.2	1711.85
1026.6397	2995.0852	2576.05	1698.2
1026.7519	2996.1495	2557	1678.05
1026.864	2997.2131	2543.5	1665.7
1026.9761	2998.276	2524.95	1646.05
1027.0882	2999.3383	2514	1632.95
1027.2002	3000.4	2491.55	1611.45
1027.3122	3001.4611	2469.25	1590.6
1027.4241	3002.5215	2461.95	1584.35
1027.536	3003.5812	2451.7	1571.55
1027.6478	3004.6404	2434.05	1555.6
1027.7596	3005.6989	2425.7	1545.55
1027.8714	3006.7567	2428.2	1549.3
1027.9831	3007.8139	2425.1	1516.45
1028.0947	3008.8705	2389.2	1511.7
1028.2064	3009.9264	2388.35	1505.6
1028.3179	3010.9818	2379.55	1500.2
1028.4295	3012.0364	2375.4	1495.15
1028.541	3013.0905	2367.2	1489.65
1028.6524	3014.1439	2358.5	1480.3
1028.7638	3015.1966	2358.25	1480.3
1028.8752	3016.2487	2330.5	1450.25
1028.9865	3017.3002	2336.55	1455.6
1029.0978	3018.3511	2327.75	1450.5
1029.209	3019.4013	2333.55	1454.55
1029.3202	3020.4509	2315.7	1436.7
1029.4314	3021.4998	2311.5	1433.45
1029.5425	3022.5481	2299.75	1422.9
1029.6535	3023.5958	2293.3	1416.5
1029.7645	3024.6428	2292.75	1412.9
1029.8755	3025.6892	2282.7	1403.85
1029.9864	3026.735	2285.25	1406.25
1030.0973	3027.7802	2287.45	1408
1030.2082	3028.8247	2275.3	1396.9
1030.319	3029.8685	2254.35	1375.3
1030.4297	3030.9118	2256.5	1374.1
1030.5404	3031.9544	2243.15	1365.8
1030.6511	3032.9963	2243.65	1365.6
1030.7617	3034.0376	2243.15	1364.4
1030.8723	3035.0783	2243.5	1361.9
1030.9829	3036.1184	2228.8	1348.8
1031.0934	3037.1578	2219.25	1341.15
1031.2038	3038.1966	2229.2	1348.3
1031.3142	3039.2348	2219.25	1340.5
1031.4246	3040.2723	2229.15	1340.95
1031.5349	3041.3092	2202.2	1325
1031.6452	3042.3455	2206.15	1326.8
1031.7554	3043.3811	2189.65	1311.35
1031.8656	3044.4161	2190.4	1309.75
1031.9758	3045.4505	2186.95	1309.2
1032.0859	3046.4842	2179.35	1300.2
1032.1959	3047.5173	2175.85	1298
1032.3059	3048.5498	2160.2	1280.2
1032.4159	3049.5816	2166.95	1288
1032.5258	3050.6128	2155.65	1277.2
1032.6357	3051.6434	2152.1	1271.75
1032.7455	3052.6734	2146.25	1267.15
1032.8553	3053.7027	2138.25	1262
1032.9651	3054.7314	2136.2	1258.15
1033.0748	3055.7594	2126.95	1248.65
1033.1845	3056.7868	2126.05	1246.4
1033.2941	3057.8136	2121.3	1242.9
1033.4037	3058.8398	2104.9	1228.15
1033.5132	3059.8653	2094.5	1215.85
1033.6227	3060.8902	2089.55	1211.15
1033.7321	3061.9145	2082.1	1201.45
1033.8415	3062.9381	2082.9	1205.35
1033.9509	3063.9612	2093.5	1199
1034.0602	3064.9835	2079.75	1201.2
1034.1694	3066.0053	2061.4	1181.1
1034.2787	3067.0264	2057.85	1179.6
1034.3878	3068.0469	2046.6	1165.9
1034.497	3069.0668	2054.75	1173.2
1034.6061	3070.086	2049.15	1171.05
1034.7151	3071.1046	2042.65	1164.35
1034.8241	3072.1226	2031.5	1152.1
1034.9331	3073.1399	2025.65	1147.25
1035.042	3074.1567	2018.4	1138.55
1035.1508	3075.1727	2015.2	1134.05
1035.2597	3076.1882	1999.7	1123.2
1035.3684	3077.203	1998.85	1119.25
1035.4772	3078.2173	1989.3	1109.2
1035.5859	3079.2308	1978.25	1098.1
1035.6945	3080.2438	1973.55	1094.25
1035.8031	3081.2561	1961.45	1082.5
1035.9117	3082.2678	1954.15	1076.6
1036.0202	3083.2789	1958.7	1081.3
1036.1286	3084.2893	1946.5	1066.95
1036.2371	3085.2991	1939	1060.35
1036.3454	3086.3083	1936.7	1051.65
1036.4538	3087.3169	1927.75	1049.4
1036.562	3088.3248	1917.85	1037.95
1036.6703	3089.3321	1908.75	1027.25
1036.7785	3090.3388	1911.15	1034.1
1036.8866	3091.3449	1897.4	1018.3
1036.9948	3092.3503	1907.35	1024.6
1037.1028	3093.3551	1887.2	1010.8
1037.2108	3094.3593	1884.7	1006.6
1037.3188	3095.3629	1876.35	996.85
1037.4267	3096.3658	1866.25	986.55
1037.5346	3097.3681	1872.85	996.8
1037.6425	3098.3698	1857.2	976.85
1037.7503	3099.3708	1852.6	969
1037.858	3100.3713	1842.85	966.15
1037.9657	3101.3711	1837.5	957.8
1038.0734	3102.3702	1961.25	945.8
1038.181	3103.3688	1847.15	968.4
1038.2886	3104.3667	1824.35	947.55
1038.3961	3105.364	1821.1	943.95
1038.5036	3106.3607	1815.7	935.5
1038.611	3107.3568	1808.15	929.8
1038.7184	3108.3522	1794.8	917.3
1038.8257	3109.347	1801.2	924.05
1038.933	3110.3412	1799.3	916.15
1039.0403	3111.3348	1787.85	910.25
1039.1475	3112.3277	1783.75	905.05
1039.2547	3113.32	1767.85	889.8
1039.3618	3114.3117	1762.9	883.05
1039.4689	3115.3028	1760.4	882.9
1039.5759	3116.2932	1758.1	877.85
1039.6829	3117.2831	1757.3	873.2
1039.7898	3118.2723	1745.9	869.3
1039.8967	3119.2608	1741.6	862.05
1040.0035	3120.2488	1732.05	854.6
1040.1103	3121.2361	1737.7	859.1
1040.2171	3122.2229	1728.75	851.55
1040.3238	3123.209	1718.85	837.8
1040.4305	3124.1944	1718.25	841.65
1040.5371	3125.1793	1724.15	841.95
1040.6437	3126.1635	1707.35	830.3
1040.7502	3127.1471	1696.65	817.2
1040.8567	3128.1301	1707.95	829.55
1040.9631	3129.1125	1690.25	810.7
1041.0695	3130.0942	1699.75	821.4
1041.1759	3131.0753	1709.9	823.1
1041.2822	3132.0558	1688.05	806.3
1041.3884	3133.0357	1683.4	803.6
1041.4946	3134.015	1673.65	792.65
1041.6008	3134.9936	1681.75	800.5
1041.7069	3135.9716	1689.65	790.05
1041.813	3136.949	1675.75	797.65
1041.919	3137.9258	1668.4	784.4
1042.025	3138.902	1671.95	788.35
1042.1309	3139.8775	1649.75	770.7
1042.2368	3140.8524	1651.65	771.9
1042.3427	3141.8267	1652.85	773.15
1042.4485	3142.8004	1652.55	774.25
1042.5542	3143.7735	1657.15	773.55
1042.6599	3144.7459	1652.2	772.9
1042.7656	3145.7178	1645.45	766.3
1042.8712	3146.689	1638.1	759.25
1042.9768	3147.6596	1632.8	753.9
1043.0823	3148.6295	1620.85	742.45
1043.1878	3149.5989	1619.55	742.25
1043.2932	3150.5676	1616.3	738.8
1043.3986	3151.5357	1617.95	741.05
1043.5039	3152.5032	1602.25	722.4
1043.6092	3153.4701	1605.2	729.45
1043.7145	3154.4364	1602.15	721.15
1043.8197	3155.402	1604.15	725.45
1043.9248	3156.367	1593.25	711.75
1044.03	3157.3315	1621	705.8
1044.135	3158.2952	1588.7	712.45
1044.24	3159.2584	1580.3	704.2
1044.345	3160.221	1580.85	702.1
1044.4499	3161.1829	1572	694.05
1044.5548	3162.1442	1574.05	694.4
1044.6596	3163.105	1557	678.25
1044.7644	3164.065	1559.95	681.45
1044.8692	3165.0245	1556.9	676.6
1044.9739	3165.9834	1551	674.1
1045.0785	3166.9416	1551.3	672.8
1045.1831	3167.8993	1541.05	662.65
1045.2877	3168.8563	1540.4	661.45
1045.3922	3169.8127	1542.55	665.05
1045.4966	3170.7684	1538.15	657.75
1045.6011	3171.7236	1536	657.35
1045.7054	3172.6782	1533.7	654.2
1045.8098	3173.6321	1523.35	644.8
1045.914	3174.5854	1524.3	642.3
1046.0183	3175.5381	1515.9	637.85
1046.1224	3176.4902	1522.6	643.85
1046.2266	3177.4417	1509.9	630.4
1046.3307	3178.3926	1502.45	626.3
1046.4347	3179.3428	1503.8	625.35
1046.5387	3180.2924	1495.25	617.95
1046.6427	3181.2415	1499.8	621.5
1046.7466	3182.1899	1488.95	608.65
1046.8504	3183.1377	1493.75	616.65
1046.9542	3184.0848	1491.85	608.4
1047.058	3185.0314	1478.55	600.4
1047.1617	3185.9773	1482.2	602.45
1047.2654	3186.9227	1477.15	597.4
1047.369	3187.8674	1469	591.2
1047.4726	3188.8115	1471.75	589.05
1047.5761	3189.755	1472.2	595.25
1047.6796	3190.6979	1469.1	590
1047.783	3191.6402	1461.35	584
1047.8864	3192.5818	1455.45	579.6
1047.9898	3193.5229	1467.05	572.8
1048.0931	3194.4633	1447.2	570.6
1048.1963	3195.4031	1454.15	574.05
1048.2995	3196.3423	1446.65	568.9
1048.4027	3197.2809	1442.35	562.75
1048.5058	3198.2189	1444.7	567.3
1048.6089	3199.1563	1456.6	561.05
1048.7119	3200.0931	1432.1	555.3
1048.8148	3201.0292	1425.85	548.25
1048.9178	3201.9648	1426.85	548.05
1049.0206	3202.8997	1432.4	553.5
1049.1235	3203.834	1417.45	538.8
1049.2262	3204.7677	1418.7	541.3
1049.329	3205.7008	1418.9	538.5
1049.4317	3206.6333	1418.85	542.65
1049.5343	3207.5652	1416.6	535.9
1049.6369	3208.4964	1411.3	534.25
1049.7394	3209.4271	1402.9	525
1049.8419	3210.3571	1402.25	525.1
1049.9444	3211.2865	1401.7	520.55
1050.0468	3212.2154	1402.6	523.8
1050.1491	3213.1436	1400.1	519.75
1050.2514	3214.0712	1400.9	517.5
1050.3537	3214.9982	1383.7	504.8
1050.4559	3215.9246	1388.6	509.45
1050.5581	3216.8503	1389.5	512.45
1050.6602	3217.7755	1385.7	507.3
1050.7623	3218.7001	1391.55	512.5
1050.8643	3219.624	1383.7	505.65
1050.9663	3220.5473	1375.4	496.25
1051.0682	3221.4701	1371.9	493
1051.1701	3222.3922	1371.4	492.3
1051.2719	3223.3137	1368.55	492.25
1051.3737	3224.2346	1364.85	485.25
1051.4754	3225.1549	1362.75	484.3
1051.5771	3226.0746	1360.25	482.3
1051.6788	3226.9937	1358.65	480.65
1051.7804	3227.9121	1358.4	481.85
1051.8819	3228.83	1352.95	474.2
1051.9834	3229.7473	1349.85	472.15
1052.0849	3230.6639	1344.55	466.95
1052.1863	3231.5799	1346.65	467.95
1052.2876	3232.4954	1348.35	468.7
1052.3889	3233.4102	1336.8	458.75
1052.4902	3234.3244	1331.25	455.2
1052.5914	3235.238	1330.15	453.7
1052.6926	3236.151	1352.85	449.95
1052.7937	3237.0634	1329.7	454.8
1052.8948	3237.9752	1324.8	447.35
1052.9958	3238.8864	1315.55	437.95
1053.0968	3239.797	1316.55	437.9
1053.1977	3240.7069	1321.5	442.25
1053.2986	3241.6163	1317.65	437.65
1053.3994	3242.5251	1311.9	433.95
1053.5002	3243.4332	1310.65	433.9
1053.6009	3244.3408	1307.35	428.8
1053.7016	3245.2477	1303	425.3
1053.8022	3246.154	1298.35	420.15
1053.9028	3247.0598	1303.5	424.65
1054.0034	3247.9649	1297.15	418.15
1054.1039	3248.8694	1298.1	420.6
1054.2043	3249.7733	1286.75	408.5
1054.3047	3250.6766	1289.85	410.5
1054.4051	3251.5793	1286.15	409.3
1054.5054	3252.4814	1282.65	405.25
1054.6056	3253.3829	1281.5	404.5
1054.7058	3254.2838	1283.1	403.7
1054.806	3255.1841	1274	395.9
1054.9061	3256.0838	1273.3	396.1
1055.0061	3256.9829	1267.45	388.65
1055.1062	3257.8814	1271.15	391.25
1055.2061	3258.7792	1264.7	385.3
1055.306	3259.6765	1259.9	381.75
1055.4059	3260.5731	1253.6	375.25
1055.5057	3261.4692	1249.55	371.05
1055.6055	3262.3647	1245.4	367.15
1055.7052	3263.2595	1237.75	360.05
1055.8049	3264.1538	1238.85	361.15
1055.9045	3265.0474	1227.95	349.45
1056.0041	3265.9404	1225.45	347.65
1056.1036	3266.8329	1227.05	350.05
1056.2031	3267.7247	1225.15	336.55
1056.3025	3268.616	1198	319.5
1056.4019	3269.5066	1195.25	316.9
1056.5013	3270.3966	1188.2	308
1056.6005	3271.286	1179.85	301.45
