Software Version:	3.9.2.0
Unit SN:	10000200
Spectrometer SN:	6960
Date:	3/6/2024 10:51:38 AM
Data Line Index:	25
Spectral Points:	2048
Integration time (ms):	125
Averages:	20
Delay (ms):	30
Sequence Number:	1
Processing:	dark subtract
Laser Power (mW):	295
Laser Current (mA):	822
Laser Diode Temp (C):	25
Laser Case Temp (C):	27.7
System Temp (C):	27.5
Spectrometer Temp (C):	24.9
CCD Temp (C):	0.005
Secondary Temp (C):	20.008
Heatsink Temp (C):	23.169
CCDPCB Temp (C):	36.918
SecondaryPCB Temp (C):	34.317

Wavelength	RamanShift	Raw Counts	Dark Subtracted
787.061	30.1047	1126.05	710.15
787.2016	32.3739	1155.5	742.6
787.3422	34.6426	1199.05	786.65
787.4828	36.9109	1247.35	831.5
787.6235	39.1787	1312.05	893.8
787.7642	41.4461	1370.05	945.9
787.9049	43.7131	1432.3	1006.15
788.0456	45.9796	1496.65	1068.85
788.1863	48.2456	1564.15	1130.95
788.3271	50.5112	1633.75	1198.15
788.4679	52.7764	1697.65	1258.75
788.6087	55.0411	1790.5	1346.4
788.7496	57.3054	1870.45	1422.65
788.8904	59.5692	1962.7	1510.3
789.0313	61.8326	2064.8	1608.7
789.1722	64.0955	2174.45	1713.65
789.3132	66.3579	2303.65	1839.25
789.4541	68.6199	2448.85	1983.6
789.5951	70.8815	2704.4	2233.25
789.7361	73.1426	3200.85	2726.9
789.8771	75.4032	4499.25	4020.65
790.0181	77.6634	7785.1	7300.9
790.1592	79.9231	16336.1	15847.2
790.3003	82.1824	53599.65	53099.65
790.4414	84.4412	65535	65019.85
790.5825	86.6995	65535	64993.6
790.7237	88.9574	65535	64974.6
790.8648	91.2148	65535	64960.7
791.006	93.4717	65535	64946.15
791.1472	95.7282	65535	64940.6
791.2885	97.9842	65535	64937.45
791.4297	100.2398	65535	64935.2
791.571	102.4949	65535	64930.1
791.7123	104.7495	65535	64927.1
791.8536	107.0036	65535	64928
791.9949	109.2573	65535	64929.2
792.1363	111.5105	65535	64925.1
792.2777	113.7632	65535	64929.65
792.4191	116.0154	65535	64910.25
792.5605	118.2672	65535	64922.85
792.7019	120.5185	65535	64922.85
792.8434	122.7693	65535	64913.55
792.9849	125.0197	65535	64913.15
793.1264	127.2696	65535	64908.25
793.2679	129.519	65535	64906.25
793.4094	131.7679	65535	64899.05
793.551	134.0163	65535	64899.55
793.6926	136.2642	65535	64897
793.8342	138.5117	65535	64884.45
793.9758	140.7587	65535	64893.35
794.1175	143.0052	65535	64891.6
794.2591	145.2512	65535	64887.35
794.4008	147.4967	65535	64885.9
794.5425	149.7417	65535	64888.4
794.6842	151.9863	65535	64882.2
794.826	154.2304	65535	64877
794.9677	156.4739	65535	64873.8
795.1095	158.717	65535	64873.75
795.2513	160.9596	65535	64869.6
795.3931	163.2017	65535	64867.45
795.535	165.4433	65535	64866.55
795.6768	167.6844	65535	64862.05
795.8187	169.925	65535	64861.1
795.9606	172.1651	65535	64858.8
796.1025	174.4047	65535	64854.2
796.2445	176.6439	65535	64853.05
796.3864	178.8825	65535	64850.8
796.5284	181.1206	65535	64844.8
796.6704	183.3582	65535	64841.95
796.8124	185.5954	65535	64844.6
796.9544	187.832	65535	64836.8
797.0965	190.0681	65535	64835.35
797.2386	192.3037	65535	64830
797.3806	194.5388	65535	64828.75
797.5228	196.7734	65535	64825.95
797.6649	199.0075	65535	64822.4
797.807	201.2411	65535	64818.9
797.9492	203.4742	65535	64819.6
798.0914	205.7068	65535	64819.3
798.2336	207.9389	65535	64818.15
798.3758	210.1704	65535	64811.6
798.518	212.4015	65535	64810.5
798.6603	214.632	65535	64823.05
798.8025	216.862	65535	64833.3
798.9448	219.0915	65535	64832
799.0871	221.3205	65535	64834.1
799.2294	223.549	65535	64834.25
799.3718	225.777	65535	64838.45
799.5141	228.0044	65535	64834.25
799.6565	230.2314	65535	64833.65
799.7989	232.4578	65535	64832.75
799.9413	234.6837	65535	64824.45
800.0837	236.909	65535	64819.75
800.2262	239.1339	65535	64795.3
800.3687	241.3582	65535	64811.75
800.5111	243.582	65535	64778.75
800.6536	245.8053	65535	64792.25
800.7961	248.0281	65535	64794.6
800.9387	250.2503	65535	64793.4
801.0812	252.472	65535	64789.65
801.2238	254.6932	65535	64789.3
801.3664	256.9139	65535	64784.9
801.509	259.134	65535	64778.75
801.6516	261.3536	65535	64782.4
801.7942	263.5727	65535	64782.4
801.9369	265.7912	65535	64783.55
802.0795	268.0092	65535	64782.35
802.2222	270.2267	65535	64779.35
802.3649	272.4436	65535	64778.95
802.5076	274.6601	65535	64776.2
802.6504	276.8759	65535	64777.85
802.7931	279.0913	65535	64774.65
802.9359	281.3061	65535	64773.35
803.0787	283.5204	65535	64768.25
803.2215	285.7341	65535	64765.45
803.3643	287.9473	65535	64752.7
803.5071	290.16	65535	64763.15
803.6499	292.3721	65535	64769.9
803.7928	294.5837	65535	64766.35
803.9357	296.7947	65535	64768.6
804.0786	299.0052	65535	64764.2
804.2215	301.2152	65535	64763.5
804.3644	303.4246	65535	64768.5
804.5074	305.6334	65535	64767
804.6503	307.8418	65535	64761.85
804.7933	310.0495	65535	64761.2
804.9363	312.2568	65535	64762.75
805.0793	314.4635	65535	64760.25
805.2223	316.6696	65535	64758.45
805.3653	318.8752	65535	64751.5
805.5084	321.0802	65535	64754.8
805.6514	323.2847	65535	64755.15
805.7945	325.4887	65535	64754.35
805.9376	327.692	65535	64757.5
806.0807	329.8949	65535	64753.05
806.2238	332.0972	65535	64751.6
806.367	334.2989	65535	64748.3
806.5101	336.5001	65535	64745.2
806.6533	338.7007	65535	64744.45
806.7965	340.9008	65535	64744.05
806.9397	343.1003	65535	64743.45
807.0829	345.2992	65535	64743.05
807.2261	347.4976	65535	64743.45
807.3693	349.6955	65535	64735.75
807.5126	351.8927	65535	64738.2
807.6559	354.0895	65535	64727.8
807.7991	356.2856	65535	64737.2
807.9424	358.4812	65535	64736.3
808.0857	360.6763	65535	64733.7
808.2291	362.8707	65535	64733.55
808.3724	365.0646	65535	64730.5
808.5158	367.258	65535	64727
808.6591	369.4508	65535	64722.8
808.8025	371.643	65535	64728.25
808.9459	373.8346	65535	64721.7
809.0893	376.0257	65535	64716.5
809.2327	378.2162	65535	64718.3
809.3762	380.4062	65535	64715.6
809.5196	382.5956	65535	64718.6
809.6631	384.7844	65535	64721.6
809.8066	386.9726	65535	64720.95
809.9501	389.1603	65535	64722.5
810.0936	391.3474	65535	64679.25
810.2371	393.5339	65535	64725.2
810.3806	395.7199	65535	64723.35
810.5241	397.9052	65535	64727.25
810.6677	400.09	65535	64724.95
810.8113	402.2743	65535	64725.65
810.9548	404.4579	65535	64725.05
811.0984	406.641	65535	64727.05
811.2421	408.8235	65535	64722.45
811.3857	411.0054	65535	64724.6
811.5293	413.1868	65535	64715.95
811.673	415.3675	65535	64716.4
811.8166	417.5477	65535	64715.9
811.9603	419.7273	65535	64711.1
812.104	421.9064	65535	64709.1
812.2477	424.0848	65535	64708.95
812.3914	426.2627	65535	64708.8
812.5351	428.4399	65535	64704.45
812.6788	430.6166	65535	64704.95
812.8226	432.7928	65535	64704.05
812.9663	434.9683	65535	64703.2
813.1101	437.1432	65535	64698.9
813.2539	439.3176	65535	64702.25
813.3977	441.4914	65535	64701.3
813.5415	443.6645	65535	64699.2
813.6853	445.8371	65535	64700.6
813.8291	448.0091	65535	64699.35
813.973	450.1806	65535	64701
814.1168	452.3514	65535	64696.3
814.2607	454.5216	65535	64692.25
814.4046	456.6913	65535	64695.35
814.5485	458.8603	65535	64696.3
814.6924	461.0288	65535	64697.8
814.8363	463.1967	65535	64696.1
814.9802	465.3639	65535	64695.2
815.1241	467.5306	65535	64698.55
815.2681	469.6967	65535	64696.7
815.412	471.8622	65535	64697.3
815.556	474.0271	65535	64697.65
815.7	476.1914	65535	64690.75
815.844	478.3551	65535	64695.25
815.988	480.5182	65535	64693.85
816.132	482.6807	65535	64691.5
816.276	484.8426	65535	64694.1
816.4201	487.0039	65535	64695.35
816.5641	489.1647	65535	64691.1
816.7082	491.3248	65535	64692.6
816.8522	493.4843	65535	64690.4
816.9963	495.6432	65535	64692.8
817.1404	497.8015	65535	64686.45
817.2845	499.9592	65535	64689.95
817.4286	502.1163	65535	64687.25
817.5727	504.2728	65535	64687.65
817.7168	506.4287	65535	64688.6
817.861	508.5839	65535	64688.1
818.0051	510.7386	65535	64688.1
818.1493	512.8927	65535	64684.15
818.2935	515.0461	65535	64680.15
818.4377	517.199	65535	64683.55
818.5818	519.3512	65535	64683.25
818.726	521.5029	65535	64679.35
818.8703	523.6539	65535	64682.45
819.0145	525.8043	65535	64686.25
819.1587	527.9541	65535	64682.05
819.303	530.1033	65535	64678.5
819.4472	532.2519	65535	64681.3
819.5915	534.3999	65535	64677.9
819.7357	536.5472	65535	64678.15
819.88	538.694	65535	64680.1
820.0243	540.8401	65535	64677.2
820.1686	542.9856	65535	64676.15
820.3129	545.1305	65535	64674.35
820.4572	547.2748	65535	64673.3
820.6016	549.4185	65535	64672.9
820.7459	551.5615	65535	64673.55
820.8902	553.704	65535	64675.35
821.0346	555.8458	65535	64673.85
821.1789	557.987	65535	64677.7
821.3233	560.1276	65535	64673.75
821.4677	562.2675	65535	64672.4
821.6121	564.4069	65535	64673.55
821.7565	566.5456	65535	64677.95
821.9009	568.6837	65535	64677.1
822.0453	570.8212	65535	64673.55
822.1897	572.958	65535	64672.25
822.3342	575.0942	65535	64676.55
822.4786	577.2299	65535	64674.7
822.6231	579.3648	65535	64676.95
822.7675	581.4992	65535	64677.4
822.912	583.6329	65535	64678.5
823.0565	585.766	65535	64675.8
823.201	587.8985	65535	64674.45
823.3454	590.0304	65535	64649.05
823.4899	592.1616	65535	64670.9
823.6345	594.2922	65535	64670.45
823.779	596.4222	65535	64668.35
823.9235	598.5515	65535	64668.15
824.068	600.6802	65535	64669.75
824.2126	602.8083	65535	64671.55
824.3571	604.9358	65535	64662.5
824.5017	607.0626	65535	64668.3
824.6462	609.1888	65535	64663.05
824.7908	611.3144	65535	64664.95
824.9354	613.4393	65535	64667.65
825.08	615.5636	65535	64667.25
825.2246	617.6873	65535	64666.6
825.3692	619.8103	65535	64665.65
825.5138	621.9327	65535	64661.2
825.6584	624.0544	65535	64669.95
825.803	626.1756	65535	64666.25
825.9477	628.2961	65535	64664.65
826.0923	630.4159	65535	64664.4
826.237	632.5351	65535	64664.4
826.3816	634.6537	65535	64661.5
826.5263	636.7716	65535	64660.2
826.6709	638.8889	65535	64663.8
826.8156	641.0056	65535	64662.5
826.9603	643.1216	65535	64660
827.105	645.237	65535	64660.45
827.2497	647.3518	65535	64660.05
827.3944	649.4659	65535	64661.55
827.5391	651.5793	65535	64661.85
827.6838	653.6922	65535	64660.65
827.8285	655.8043	65535	64661
827.9733	657.9159	65535	64661.65
828.118	660.0268	65535	64659.9
828.2627	662.137	65535	64659.6
828.4075	664.2466	65535	64657.45
828.5522	666.3556	65535	64660.9
828.697	668.4639	65535	64657.25
828.8418	670.5716	65535	64657.95
828.9865	672.6786	65535	64658.5
829.1313	674.785	65535	64654.75
829.2761	676.8907	65535	64657.75
829.4209	678.9958	65535	64658.45
829.5657	681.1002	65535	64657.15
829.7105	683.204	65535	64653.55
829.8553	685.3072	65535	64656.6
830.0001	687.4097	65535	64655.8
830.1449	689.5115	65535	64653.45
830.2898	691.6127	65535	64655.4
830.4346	693.7132	65535	64653.65
830.5794	695.8131	65535	64647.95
830.7243	697.9123	65535	64655
830.8691	700.0109	65535	64654.45
831.014	702.1089	65535	64654.55
831.1588	704.2061	65535	64653.95
831.3037	706.3028	65535	64651.05
831.4486	708.3987	65535	64653.2
831.5935	710.4941	65535	64654.25
831.7383	712.5887	65535	64654.15
831.8832	714.6827	65535	64650.65
832.0281	716.7761	65535	64651.9
832.173	718.8688	65535	64651.35
832.3179	720.9608	65535	64649.75
832.4628	723.0522	65535	64648.4
832.6077	725.1429	65535	64651.35
832.7527	727.233	65535	64652.2
832.8976	729.3224	65535	64650.45
833.0425	731.4112	65535	64648.25
833.1874	733.4993	65535	64648.6
833.3324	735.5867	65535	64648.2
833.4773	737.6735	65535	64647.85
833.6222	739.7596	65535	64648.05
833.7672	741.845	65535	64647.6
833.9122	743.9298	65535	64647.7
834.0571	746.014	65535	64649.5
834.2021	748.0974	65535	64646.9
834.347	750.1802	65535	64648.1
834.492	752.2624	65535	64649.8
834.637	754.3439	65535	64646.75
834.782	756.4247	65535	64637.6
834.9269	758.5048	65535	64649.75
835.0719	760.5843	65535	64649.75
835.2169	762.6631	65535	64649.95
835.3619	764.7413	65535	64649.8
835.5069	766.8188	65535	64645.5
835.6519	768.8956	65535	64648.6
835.7969	770.9718	65535	64648.05
835.9419	773.0473	65535	64648.15
836.0869	775.1221	65535	64648.35
836.232	777.1962	65535	64646.7
836.377	779.2697	65535	64644.55
836.522	781.3426	65535	64625.75
836.667	783.4147	65535	64644.75
836.8121	785.4862	65535	64647.35
836.9571	787.557	65535	64649.55
837.1021	789.6271	65535	64645.45
837.2472	791.6966	65535	64647.8
837.3922	793.7654	65535	64644.8
837.5373	795.8335	65535	64646
837.6823	797.901	65535	64644.35
837.8274	799.9678	65535	64641.4
837.9724	802.0339	65535	64645.9
838.1175	804.0993	65535	64633.45
838.2626	806.1641	65535	64646.25
838.4076	808.2282	65535	64642.7
838.5527	810.2916	65535	64642.9
838.6978	812.3544	65535	64646
838.8428	814.4164	65535	64645.6
838.9879	816.4778	65535	64646.1
839.133	818.5385	65535	64645.7
839.2781	820.5986	65535	64645.65
839.4232	822.658	65535	64640.6
839.5682	824.7166	65535	64645.95
839.7133	826.7747	65535	64646.4
839.8584	828.832	65535	64643.5
840.0035	830.8886	65535	64645.1
840.1486	832.9446	65535	64643.9
840.2937	834.9999	65535	64643.6
840.4388	837.0545	65535	64637.25
840.5839	839.1085	65535	64645.1
840.729	841.1618	65535	64640.35
840.8741	843.2143	65535	64643.65
841.0192	845.2662	65535	64643.8
841.1643	847.3175	65535	64646.4
841.3095	849.368	65535	64645.25
841.4546	851.4179	65535	64642.95
841.5997	853.467	65535	64641.8
841.7448	855.5155	65535	64643.6
841.8899	857.5633	65535	64641.15
842.0351	859.6105	65535	64642.6
842.1802	861.6569	65535	64643.9
842.3253	863.7027	65535	64642.8
842.4704	865.7478	65535	64641
842.6156	867.7922	65535	64644.95
842.7607	869.8359	65535	64639.95
842.9058	871.8789	65535	64641.35
843.0509	873.9212	65535	64610.25
843.1961	875.9629	65535	64641.7
843.3412	878.0039	65535	64641.25
843.4863	880.0441	65535	64640.5
843.6315	882.0837	65535	64643
843.7766	884.1226	65535	64638.4
843.9218	886.1609	65535	64642.35
844.0669	888.1984	65535	64639.55
844.212	890.2352	65535	64640.6
844.3572	892.2714	65535	64638.8
844.5023	894.3069	65535	64637.85
844.6475	896.3416	65535	64637.4
844.7926	898.3757	65535	64638.95
844.9377	900.4091	65535	64636.9
845.0829	902.4418	65535	64636.55
845.228	904.4739	65535	64637.3
845.3732	906.5052	65535	64639.25
845.5183	908.5358	65535	64641
845.6635	910.5658	65535	64637.35
845.8086	912.595	65535	64642.05
845.9538	914.6236	65535	64638.7
846.0989	916.6515	65535	64639.6
846.2441	918.6786	65535	64641.1
846.3892	920.7051	65535	64638.4
846.5344	922.7309	65535	64638.15
846.6795	924.756	65535	64636.8
846.8246	926.7804	65535	64636.2
846.9698	928.8041	65535	64631.85
847.1149	930.8272	65535	64639.55
847.2601	932.8495	65535	64637.8
847.4052	934.8711	65535	64637.9
847.5504	936.892	65535	64637.2
847.6955	938.9123	65535	64636.7
847.8407	940.9318	65535	64634.75
847.9858	942.9506	65535	64636.35
848.131	944.9688	65535	64638.15
848.2761	946.9862	65535	64634.8
848.4213	949.003	65535	64638
848.5664	951.019	65535	64638.7
848.7115	953.0344	65535	64636.8
848.8567	955.0491	65535	64637.85
849.0018	957.063	65535	64638.1
849.147	959.0763	65535	64639.6
849.2921	961.0888	65535	64636.75
849.4373	963.1007	65535	64638.45
849.5824	965.1119	65535	64638.65
849.7275	967.1223	65535	64638.5
849.8727	969.1321	65535	64641.55
850.0178	971.1412	65535	64637.3
850.1629	973.1495	65535	64638.95
850.3081	975.1572	65535	64603.05
850.4532	977.1641	65535	64635.95
850.5983	979.1704	65535	64638.15
850.7435	981.1759	65535	64632.85
850.8886	983.1808	65535	64637.05
851.0337	985.1849	65535	64625.8
851.1788	987.1884	65535	64634.35
851.324	989.1911	65535	64634.15
851.4691	991.1932	65535	64637
851.6142	993.1945	65535	64637.4
851.7593	995.1951	65535	64636.85
851.9045	997.1951	65535	64629.5
852.0496	999.1943	65535	64636.45
852.1947	1001.1928	65535	64636.5
852.3398	1003.1906	65535	64637.45
852.4849	1005.1877	65535	64637.9
852.63	1007.1841	65535	64635.5
852.7751	1009.1798	65535	64637.65
852.9202	1011.1748	65535	64636.85
853.0653	1013.1691	65535	64636.5
853.2104	1015.1627	65535	64634.9
853.3555	1017.1556	65535	64638.6
853.5006	1019.1477	65535	64636.9
853.6457	1021.1392	65535	64639.35
853.7908	1023.1299	65535	64639.05
853.9359	1025.12	65535	64637.65
854.081	1027.1093	65535	64640.1
854.2261	1029.0979	65535	64641.25
854.3712	1031.0859	65535	64638.75
854.5163	1033.0731	65535	64635.95
854.6613	1035.0596	65535	64638.7
854.8064	1037.0454	65535	64638.75
854.9515	1039.0304	65535	64637.35
855.0965	1041.0148	65535	64638.65
855.2416	1042.9985	65535	64635.8
855.3867	1044.9814	65535	64635.05
855.5317	1046.9636	65535	64635.8
855.6768	1048.9452	65535	64637.6
855.8219	1050.926	65535	64637.9
855.9669	1052.9061	65535	64638.5
856.112	1054.8855	65535	64634.95
856.257	1056.8642	65535	64635.4
856.4021	1058.8421	65535	64632.4
856.5471	1060.8194	65535	64636.65
856.6921	1062.7959	65535	64636.75
856.8372	1064.7717	65535	64637.1
856.9822	1066.7469	65535	64634.95
857.1272	1068.7213	65535	64634.35
857.2723	1070.695	65535	64636.9
857.4173	1072.6679	65535	64635.45
857.5623	1074.6402	65535	64638.8
857.7073	1076.6117	65535	64630.7
857.8523	1078.5826	65535	64635.7
857.9973	1080.5527	65535	64633.9
858.1423	1082.5221	65535	64635.1
858.2873	1084.4908	65535	64635.8
858.4323	1086.4587	65535	64635.15
858.5773	1088.426	65535	64635.9
858.7223	1090.3925	65535	64631.2
858.8673	1092.3584	65535	64635.15
859.0123	1094.3235	65535	64638
859.1573	1096.2879	65535	64634.75
859.3022	1098.2515	65535	64636.55
859.4472	1100.2145	65535	64636.6
859.5922	1102.1767	65535	64632.7
859.7371	1104.1382	65535	64636.05
859.8821	1106.099	65535	64635.5
860.027	1108.0591	65535	64636.15
860.172	1110.0185	65535	64634.25
860.3169	1111.9771	65535	64635.6
860.4619	1113.9351	65535	64635.85
860.6068	1115.8923	65535	64635.6
860.7517	1117.8488	65535	64632.65
860.8967	1119.8045	65535	64636.95
861.0416	1121.7596	65535	64636.3
861.1865	1123.7139	65535	64636.55
861.3314	1125.6675	65535	64636.35
861.4763	1127.6204	65535	64633.05
861.6212	1129.5726	65535	64633.9
861.7661	1131.524	65535	64637.35
861.911	1133.4748	65535	64634.8
862.0559	1135.4248	65535	64634.7
862.2008	1137.3741	65535	64635.55
862.3457	1139.3226	65535	64634.65
862.4905	1141.2705	65535	64638.05
862.6354	1143.2176	65535	64629.75
862.7803	1145.164	65535	64634
862.9251	1147.1097	65535	64637.7
863.07	1149.0546	65535	64634.4
863.2148	1150.9989	65535	64635.85
863.3597	1152.9424	65535	64635.1
863.5045	1154.8852	65535	64638
863.6493	1156.8272	65535	64633.75
863.7942	1158.7686	65535	64629.2
863.939	1160.7092	65535	64634.6
864.0838	1162.6491	65535	64635.8
864.2286	1164.5883	65535	64636.25
864.3734	1166.5267	65535	64633.6
864.5182	1168.4644	65535	64634.1
864.663	1170.4014	65535	64630.3
864.8078	1172.3377	65535	64636.5
864.9526	1174.2732	65535	64637.6
865.0974	1176.2081	65535	64634.65
865.2421	1178.1421	65535	64632.5
865.3869	1180.0755	65535	64635.2
865.5317	1182.0082	65535	64634.15
865.6764	1183.9401	65535	64634.6
865.8212	1185.8713	65535	64635.95
865.9659	1187.8017	65535	64638.7
866.1106	1189.7315	65535	64640.25
866.2554	1191.6605	65535	64608.4
866.4001	1193.5888	65535	64635.4
866.5448	1195.5163	65535	64637.2
866.6895	1197.4432	65535	64636.85
866.8342	1199.3693	65535	64636.25
866.9789	1201.2947	65535	64631.95
867.1236	1203.2193	65535	64636.4
867.2683	1205.1432	65535	64635.6
867.413	1207.0664	65535	64634.5
867.5576	1208.9889	65535	64633.55
867.7023	1210.9106	65535	64636.75
867.847	1212.8316	65535	64637.25
867.9916	1214.7519	65535	64627.25
868.1363	1216.6715	65535	64635.7
868.2809	1218.5903	65535	64636.25
868.4255	1220.5084	65535	64634.8
868.5701	1222.4257	65535	64637.55
868.7148	1224.3424	65535	64635.55
868.8594	1226.2583	65535	64632
869.004	1228.1735	65535	64636.1
869.1486	1230.0879	65535	64636.2
869.2932	1232.0016	65535	64635.5
869.4377	1233.9146	65535	64632.45
869.5823	1235.8269	65535	64635.35
869.7269	1237.7384	65535	64636.65
869.8715	1239.6492	65535	64638.45
870.016	1241.5592	65535	64635.1
870.1606	1243.4686	65535	64635.65
870.3051	1245.3772	65535	64635.55
870.4496	1247.285	65535	64633.4
870.5941	1249.1922	65535	64634.75
870.7387	1251.0986	65535	64636.8
870.8832	1253.0042	65535	64636.05
871.0277	1254.9092	65535	64635.9
871.1722	1256.8134	65535	64637.45
871.3167	1258.7169	65535	64637.8
871.4611	1260.6196	65535	64635.35
871.6056	1262.5216	65535	64633.35
871.7501	1264.4229	65535	64635.6
871.8945	1266.3234	65535	64634.8
872.039	1268.2232	65535	64633.3
872.1834	1270.1223	65535	64636.2
872.3278	1272.0207	65535	64635.2
872.4723	1273.9183	65535	64628.9
872.6167	1275.8151	65535	64633.3
872.7611	1277.7113	65535	64632.9
872.9055	1279.6067	65535	64637.6
873.0499	1281.5014	65535	64633.55
873.1943	1283.3953	65535	64631.05
873.3386	1285.2885	65535	64637.45
873.483	1287.181	65535	64634.05
873.6274	1289.0727	65535	64636.4
873.7717	1290.9637	65535	64635.75
873.9161	1292.854	65535	64634.55
874.0604	1294.7435	65535	64636.85
874.2047	1296.6323	65535	64636.25
874.349	1298.5204	65535	64631.8
874.4933	1300.4077	65535	64634.75
874.6376	1302.2943	65535	64633.2
874.7819	1304.1802	65535	64637.9
874.9262	1306.0653	65535	64634.4
875.0705	1307.9497	65535	64635.65
875.2147	1309.8333	65535	64637.55
875.359	1311.7162	65535	64633.95
875.5032	1313.5984	65535	64633.3
875.6475	1315.4798	65535	64624.2
875.7917	1317.3605	65535	64619.15
875.9359	1319.2405	65535	64635.55
876.0801	1321.1197	65535	64632.3
876.2243	1322.9982	65535	64632.8
876.3685	1324.876	65535	64636.8
876.5127	1326.753	65535	64636.55
876.6569	1328.6293	65535	64634.45
876.801	1330.5048	65535	64632.15
876.9452	1332.3796	65535	64637.8
877.0893	1334.2537	65535	64611.3
877.2335	1336.127	65535	64633.75
877.3776	1337.9996	65535	64634.75
877.5217	1339.8714	65535	64634.95
877.6658	1341.7426	65535	64591.65
877.8099	1343.6129	65535	64634.2
877.954	1345.4826	65535	64637.25
878.0981	1347.3515	65535	64632.35
878.2422	1349.2196	65535	64635.3
878.3862	1351.087	65535	64636
878.5303	1352.9537	65535	64633.1
878.6743	1354.8197	65535	64635.6
878.8184	1356.6849	65535	64635.75
878.9624	1358.5493	65535	64633.95
879.1064	1360.4131	65535	64637.05
879.2504	1362.276	65535	64636.7
879.3944	1364.1383	65535	64633.8
879.5384	1365.9998	65535	64629.95
879.6823	1367.8606	65535	64634.2
879.8263	1369.7206	65535	64634.35
879.9702	1371.5799	65535	64633.65
880.1142	1373.4384	65535	64634.25
880.2581	1375.2962	65535	64634.45
880.402	1377.1533	65535	64634.7
880.5459	1379.0096	65535	64634.8
880.6898	1380.8652	65535	64636.3
880.8337	1382.7201	65535	64634.6
880.9776	1384.5742	65535	64634.6
881.1215	1386.4275	65535	64634.6
881.2653	1388.2802	65535	64635.55
881.4092	1390.132	65535	64635.5
881.553	1391.9832	65535	64635.1
881.6968	1393.8336	65535	64636.65
881.8406	1395.6832	65535	64634.1
881.9844	1397.5322	65535	64634.2
882.1282	1399.3803	65535	64631.55
882.272	1401.2278	65535	64633.8
882.4158	1403.0745	65535	64634.8
882.5595	1404.9204	65535	64635.6
882.7033	1406.7656	65535	64634.05
882.847	1408.6101	65535	64633.75
882.9908	1410.4538	65535	64634.8
883.1345	1412.2968	65535	64636.15
883.2782	1414.139	65535	64635.35
883.4219	1415.9805	65535	64635.75
883.5656	1417.8213	65535	64627.9
883.7092	1419.6613	65535	64634.55
883.8529	1421.5006	65535	64634.55
883.9965	1423.3391	65535	64635.25
884.1402	1425.1769	65535	64634.8
884.2838	1427.0139	65535	64636.4
884.4274	1428.8502	65535	64633.75
884.571	1430.6858	65535	64634.75
884.7146	1432.5206	65535	64636.85
884.8582	1434.3547	65535	64636.5
885.0018	1436.188	65535	64639.05
885.1453	1438.0206	65535	64635.25
885.2889	1439.8524	65535	64635.45
885.4324	1441.6835	65535	64634.5
885.5759	1443.5139	65535	64632.8
885.7194	1445.3435	65535	64635.75
885.8629	1447.1724	65535	64637.6
886.0064	1449.0005	65535	64635.3
886.1499	1450.8279	65535	64634.15
886.2933	1452.6545	65535	64636.9
886.4368	1454.4804	65535	64637.65
886.5802	1456.3056	65535	64627.05
886.7237	1458.13	65535	64634.65
886.8671	1459.9536	65535	64638
887.0105	1461.7766	65535	64634.55
887.1539	1463.5987	65535	64636.7
887.2972	1465.4202	65535	64636.45
887.4406	1467.2409	65535	64633.2
887.584	1469.0608	65535	64635.75
887.7273	1470.88	65535	64633.7
887.8706	1472.6984	65535	64636
888.0139	1474.5161	65535	64631.25
888.1572	1476.3331	65535	64634.95
888.3005	1478.1493	65535	64637.15
888.4438	1479.9648	65535	64636.3
888.5871	1481.7795	65535	64636.85
888.7303	1483.5935	65535	64637.6
888.8736	1485.4067	65535	64634.2
889.0168	1487.2192	65535	64636.45
889.16	1489.031	65535	64632.4
889.3032	1490.842	65535	64637.05
889.4464	1492.6522	65535	64638.25
889.5896	1494.4618	65535	64635.25
889.7327	1496.2705	65535	64637.25
889.8759	1498.0785	65535	64637
890.019	1499.8858	65535	64635.95
890.1622	1501.6924	65535	64637.2
890.3053	1503.4981	65535	64634
890.4484	1505.3032	65535	64634.85
890.5914	1507.1075	65535	64634.6
890.7345	1508.911	65535	64638.8
890.8776	1510.7138	65535	64636.2
891.0206	1512.5159	65535	64633.65
891.1637	1514.3172	65535	64636.95
891.3067	1516.1178	65535	64637.9
891.4497	1517.9176	65535	64635.5
891.5927	1519.7166	65535	64637.95
891.7357	1521.515	65535	64629.6
891.8786	1523.3126	65535	64635.45
892.0216	1525.1094	65535	64636.05
892.1645	1526.9055	65535	64639.55
892.3074	1528.7008	65535	64637.25
892.4503	1530.4954	65535	64630.45
892.5932	1532.2893	65535	64639.85
892.7361	1534.0824	65535	64632.45
892.879	1535.8747	65535	64635.95
893.0218	1537.6663	65535	64635.65
893.1647	1539.4572	65535	64635.7
893.3075	1541.2473	65535	64636
893.4503	1543.0367	65535	64639.25
893.5931	1544.8253	65535	64632.55
893.7359	1546.6132	65535	64633.85
893.8787	1548.4003	65535	64626.65
894.0214	1550.1867	65535	64627.95
894.1642	1551.9723	65535	64633.6
894.3069	1553.7572	65535	64634.3
894.4496	1555.5414	65535	64636.95
894.5923	1557.3247	65531.2	64634.8
894.735	1559.1074	65535	64638.4
894.8777	1560.8893	65535	64639.5
895.0204	1562.6705	65535	64637.5
895.163	1564.4509	65533.7	64637.1
895.3056	1566.2305	65535	64638.25
895.4482	1568.0094	65535	64639.55
895.5908	1569.7876	65535	64638.6
895.7334	1571.565	65533.65	64634.5
895.876	1573.3417	65535	64640.95
896.0186	1575.1176	65535	64638.95
896.1611	1576.8928	65534.3	64636.5
896.3036	1578.6672	65499.65	64606.35
896.4461	1580.4409	65524.75	64628.5
896.5886	1582.2138	65440.3	64542.85
896.7311	1583.986	65483.8	64586.85
896.8736	1585.7575	65343.8	64448.1
897.0161	1587.5282	65407.4	64513.05
897.1585	1589.2981	65401.35	64506.8
897.3009	1591.0673	65183.2	64289.35
897.4433	1592.8358	64923.55	64027.7
897.5857	1594.6035	65172.95	64273.8
897.7281	1596.3704	65226.4	64332.05
897.8705	1598.1366	64638.2	63742.45
898.0128	1599.9021	64303.2	63406.75
898.1551	1601.6668	64902.75	64004.5
898.2975	1603.4308	64555.8	63658.75
898.4398	1605.194	64556.6	63655.6
898.5821	1606.9564	63780.9	62884.25
898.7243	1608.7182	64236.55	63337.65
898.8666	1610.4791	63805.3	62911.1
899.0088	1612.2394	64282.65	63387.35
899.1511	1613.9988	63656.8	62764
899.2933	1615.7576	64296.95	63400.05
899.4355	1617.5156	64245.1	63345.55
899.5776	1619.2728	64874.35	63978.2
899.7198	1621.0293	63877.7	62980.1
899.862	1622.785	63877.4	62979.75
900.0041	1624.54	64217.35	63320.8
900.1462	1626.2942	63591.75	62696.35
900.2883	1628.0477	62624.9	61726.7
900.4304	1629.8005	61887.15	60989.6
900.5725	1631.5525	62689.1	61794.05
900.7145	1633.3037	61405.1	60510.8
900.8566	1635.0542	61306.85	60412.1
900.9986	1636.804	61829.65	60934.3
901.1406	1638.553	60691.75	59687.75
901.2826	1640.3013	61018.5	60122.4
901.4245	1642.0488	60273.65	59377.5
901.5665	1643.7955	60831.2	59939.1
901.7085	1645.5416	60209.15	59314.85
901.8504	1647.2868	59721.85	58827.6
901.9923	1649.0313	60488.25	59595
902.1342	1650.7751	60064.75	59166.15
902.2761	1652.5181	59694.35	58800.1
902.4179	1654.2604	59777	58882.2
902.5598	1656.0019	60200.15	59306.7
902.7016	1657.7427	59953.5	59060.5
902.8434	1659.4828	60592.6	59697.1
902.9852	1661.222	60112.75	59218.85
903.127	1662.9606	60639.55	59745.45
903.2687	1664.6984	59813.1	58918.7
903.4105	1666.4354	59959.05	59062
903.5522	1668.1717	58808.2	57913.85
903.6939	1669.9072	58019.8	57125.2
903.8356	1671.642	57731.35	56837.25
903.9773	1673.3761	57400.35	56506.25
904.119	1675.1094	57034.3	56140.65
904.2606	1676.8419	56496.8	55601.95
904.4022	1678.5737	56305.35	55410.15
904.5439	1680.3048	55998	55103.5
904.6855	1682.0351	55708.3	54813.65
904.827	1683.7646	55386.55	54488.95
904.9686	1685.4934	55448.15	54554.55
905.1101	1687.2215	54493.35	53595.85
905.2517	1688.9488	54950.45	54058.65
905.3932	1690.6754	53741.15	52848.05
905.5347	1692.4012	54219.95	53328.25
905.6761	1694.1263	54056.55	53163.1
905.8176	1695.8506	53707.1	52812.35
905.9591	1697.5742	53511	52617.35
906.1005	1699.297	53276.6	52382.35
906.2419	1701.0191	53093.75	52201.95
906.3833	1702.7404	52692.95	51801
906.5246	1704.461	52431.15	51537.8
906.666	1706.1808	52357.9	51460.95
906.8073	1707.8999	52165.9	51270.8
906.9487	1709.6182	51945.9	51051.65
907.09	1711.3358	51863.4	50969.7
907.2313	1713.0527	51653.4	50760.8
907.3725	1714.7688	51554.65	50655.75
907.5138	1716.4841	51046	50151.55
907.655	1718.1987	51132	50233.2
907.7962	1719.9126	50861.05	49969.15
907.9374	1721.6257	50701.65	49804.4
908.0786	1723.338	50693.7	49799.7
908.2198	1725.0496	50116.75	49222.85
908.3609	1726.7605	50057.85	49164.45
908.502	1728.4706	49941.1	49048
908.6431	1730.18	49701.75	48805.35
908.7842	1731.8886	49538.05	48644.1
908.9253	1733.5964	49401.95	48487.7
909.0664	1735.3036	49272.6	48376.4
909.2074	1737.0099	49067.1	48174.8
909.3484	1738.7156	48880.05	47988.7
909.4894	1740.4204	48621.85	47725.35
909.6304	1742.1246	48565.1	47671.2
909.7714	1743.8279	48458.4	47564.75
909.9123	1745.5306	48362.7	47467.65
910.0532	1747.2325	48066.75	47172.85
910.1941	1748.9336	47912.2	47018.5
910.335	1750.634	47688.85	46795.2
910.4759	1752.3336	47664.9	46770.9
910.6168	1754.0325	47533.55	46643.4
910.7576	1755.7307	47441.45	46549.6
910.8984	1757.4281	47379.85	46489
911.0392	1759.1247	47282.85	46381.85
911.18	1760.8206	47088.5	46190.5
911.3208	1762.5158	47066.05	46167.35
911.4615	1764.2102	46776.6	45882.75
911.6022	1765.9039	46625.15	45733.05
911.7429	1767.5968	46507.85	45615.45
911.8836	1769.289	46309.45	45414.5
912.0243	1770.9804	46219.05	45327.5
912.1649	1772.6711	46089.95	45195.95
912.3056	1774.361	46011.5	45117.3
912.4462	1776.0502	45871.85	44977.25
912.5868	1777.7386	45741.65	44845.9
912.7274	1779.4263	45523.7	44631.85
912.8679	1781.1132	45512.05	44621.05
913.0084	1782.7994	45317.6	44422.8
913.149	1784.4849	45243.2	44350.2
913.2895	1786.1696	45069	44170.1
913.4299	1787.8535	44944.45	44052.2
913.5704	1789.5367	44760.8	43870.3
913.7108	1791.2192	44703	43811.6
913.8513	1792.9009	44429	43509
913.9917	1794.5818	44390.65	43496.9
914.132	1796.2621	44280.5	43389.95
914.2724	1797.9415	44120.5	43225.9
914.4128	1799.6202	43924.95	43031.95
914.5531	1801.2982	43819.9	42926.45
914.6934	1802.9755	43782.9	42887.3
914.8337	1804.6519	43672.95	42779.85
914.9739	1806.3277	43449.1	42557.65
915.1142	1808.0027	43189.55	42297.95
915.2544	1809.6769	43155.4	42263.8
915.3946	1811.3504	43070.2	42177.35
915.5348	1813.0231	42934.1	42038.75
915.675	1814.6951	42890.25	41999.45
915.8151	1816.3664	42851.55	41954.5
915.9553	1818.0369	42617.5	41725.7
916.0954	1819.7067	42509.75	41617.3
916.2355	1821.3757	42401.1	41508.25
916.3755	1823.044	42328.5	41435.05
916.5156	1824.7115	42222.55	41327.75
916.6556	1826.3783	41907.1	41015.25
916.7956	1828.0443	41832.45	40940.05
916.9356	1829.7096	41715.8	40822.55
917.0756	1831.3741	41688.35	40793.8
917.2155	1833.0379	41590.55	40697.4
917.3555	1834.701	41345.65	40449.1
917.4954	1836.3633	41336.75	40442.55
917.6353	1838.0248	41145.7	40251.05
917.7751	1839.6856	41068.5	40176.15
917.915	1841.3457	41047.95	40157.8
918.0548	1843.005	40897.7	40008.2
918.1946	1844.6636	40826.7	39932.85
918.3344	1846.3214	40652.05	39760.05
918.4742	1847.9785	40616	39723.75
918.6139	1849.6349	40418.65	39524.9
918.7537	1851.2904	40376.2	39474
918.8934	1852.9453	40204.3	39310.25
919.0331	1854.5994	40134.15	39239.2
919.1727	1856.2528	40090.5	39194.2
919.3124	1857.9054	39940.65	39047.85
919.452	1859.5572	39858.7	38969
919.5916	1861.2083	39750.85	38859.1
919.7312	1862.8587	39746.3	38854.75
919.8708	1864.5084	39600	38709.3
920.0103	1866.1572	39401.75	38510.05
920.1498	1867.8054	39241	38347.5
920.2893	1869.4528	39187.75	38294.35
920.4288	1871.0994	39044.25	38151
920.5683	1872.7453	38987.2	38092.7
920.7077	1874.3905	38901.8	38001.55
920.8471	1876.0349	38733.25	37839.05
920.9865	1877.6786	38767.3	37873.1
921.1259	1879.3215	38646.6	37753.2
921.2653	1880.9637	38532.75	37638.75
921.4046	1882.6051	38475.2	37583.15
921.5439	1884.2458	38362.95	37467.7
921.6832	1885.8858	38147.2	37253.2
921.8225	1887.525	38132.2	37239.15
921.9617	1889.1634	37865.05	36975.05
922.101	1890.8011	37775.65	36881.55
922.2402	1892.4381	37663.45	36769.75
922.3794	1894.0743	37600.15	36708.15
922.5185	1895.7098	37479.8	36586.85
922.6577	1897.3446	37358.8	36466.25
922.7968	1898.9786	37265.4	36369.25
922.9359	1900.6118	37160.75	36268.55
923.075	1902.2443	37012.7	36117.7
923.214	1903.8761	36883.2	35990.45
923.3531	1905.5071	36633.9	35742.35
923.4921	1907.1374	36518.4	35623.9
923.6311	1908.7669	36490.2	35597.75
923.77	1910.3957	36411.4	35518.95
923.909	1912.0237	36191.15	35297.85
924.0479	1913.651	36112	35220.4
924.1868	1915.2776	35988.95	35098.05
924.3257	1916.9034	35795.25	34903.25
924.4646	1918.5285	35630	34739.6
924.6034	1920.1528	35465.35	34569.75
924.7422	1921.7764	35408.6	34515.2
924.881	1923.3992	35273.95	34381
925.0198	1925.0213	35042.35	34150.75
925.1586	1926.6427	34889.65	33998.5
925.2973	1928.2633	34858.1	33861
925.436	1929.8832	34692.55	33800.2
925.5747	1931.5023	34541	33649.65
925.7134	1933.1207	34426.1	33533.75
925.852	1934.7383	34355.3	33463.65
925.9906	1936.3552	34210.35	33319.1
926.1292	1937.9714	34128.3	33236.8
926.2678	1939.5868	33947.7	33052.1
926.4064	1941.2015	33754.2	32862.9
926.5449	1942.8154	33676.55	32784.6
926.6834	1944.4286	33478.55	32585
926.8219	1946.041	33373.05	32462.9
926.9604	1947.6528	33154.45	32257.8
927.0988	1949.2637	33092.4	32199.45
927.2372	1950.8739	32930.75	32039.05
927.3756	1952.4834	32887.35	31996.05
927.514	1954.0921	32818.35	31925.45
927.6523	1955.7001	32625.95	31730.05
927.7907	1957.3074	32595.85	31704.55
927.929	1958.9139	32401.45	31509.6
928.0673	1960.5197	32322.55	31427.3
928.2055	1962.1247	32176.2	31285.5
928.3438	1963.729	31979.95	31089.4
928.482	1965.3325	31863.8	30949.65
928.6202	1966.9353	31728.25	30837.2
928.7584	1968.5374	31652.8	30760.1
928.8965	1970.1387	31569.05	30677.75
929.0346	1971.7393	31449.4	30557.6
929.1727	1973.3392	31327.3	30435.75
929.3108	1974.9383	31180.8	30291
929.4489	1976.5366	31014.4	30123.3
929.5869	1978.1342	30958.45	30066.95
929.7249	1979.7311	30903.95	30012.4
929.8629	1981.3273	30842.5	29949.65
930.0009	1982.9227	30705.25	29813.35
930.1388	1984.5173	30557.65	29667
930.2767	1986.1112	30420.85	29531.1
930.4146	1987.7044	30340.65	29449.95
930.5525	1989.2968	30223.05	29330.25
930.6904	1990.8885	30184.7	29291.25
930.8282	1992.4795	30088.3	29195.6
930.966	1994.0697	29950.15	29058.4
931.1038	1995.6592	29840.05	28950.8
931.2415	1997.2479	29697.55	28806.15
931.3793	1998.8359	29640.25	28750.05
931.517	2000.4232	29482.05	28590.8
931.6547	2002.0097	29429.2	28539.1
931.7923	2003.5955	29257.5	28367.7
931.93	2005.1805	29196.9	28304.5
932.0676	2006.7648	29100.7	28210.6
932.2052	2008.3484	29016.85	28124.85
932.3427	2009.9312	29009.85	28116.75
932.4803	2011.5133	28802.6	27912.05
932.6178	2013.0946	28772.1	27880.35
932.7553	2014.6752	28678.2	27790.45
932.8928	2016.2551	28569.75	27677.85
933.0302	2017.8342	28447.25	27557.45
933.1676	2019.4126	28311.15	27419.45
933.305	2020.9902	28196.7	27305
933.4424	2022.5672	28165.35	27273.7
933.5798	2024.1433	28083.4	27187.65
933.7171	2025.7188	27969.05	27076.3
933.8544	2027.2935	27925.05	27034.2
933.9917	2028.8674	27766.7	26877
934.129	2030.4406	27648.25	26758.7
934.2662	2032.0131	27550.05	26660.25
934.4034	2033.5849	27478.7	26582.85
934.5406	2035.1559	27390.25	26501.4
934.6778	2036.7261	27351.9	26458.7
934.8149	2038.2957	27198.7	26309.05
934.952	2039.8645	27152.9	26263.65
935.0891	2041.4325	27164.85	26270.2
935.2262	2042.9998	26999.65	26107.9
935.3632	2044.5664	26946.4	26053.35
935.5002	2046.1323	26845.9	25955.55
935.6372	2047.6974	26756.7	25867.85
935.7742	2049.2617	26657.6	25765.25
935.9111	2050.8254	26675.35	25764.95
936.048	2052.3883	26600.7	25707.45
936.1849	2053.9504	26489.65	25598.65
936.3218	2055.5118	26357.3	25465.6
936.4586	2057.0725	26218.05	25321.25
936.5955	2058.6325	26153.15	25260.9
936.7323	2060.1917	26073.6	25184
936.869	2061.7502	26025.1	25132.25
937.0058	2063.3079	25917.2	25026.35
937.1425	2064.8649	25816.7	24921.25
937.2792	2066.4212	25748.8	24858.1
937.4159	2067.9767	25667.75	24778.7
937.5525	2069.5315	25575.55	24685.3
937.6891	2071.0856	25439.35	24549.85
937.8257	2072.6389	25368.85	24477.95
937.9623	2074.1915	25226.95	24339.9
938.0989	2075.7433	25096.75	24202.15
938.2354	2077.2945	25069.3	24179.05
938.3719	2078.8448	24947.6	24058.8
938.5084	2080.3945	24889.4	23997.6
938.6448	2081.9434	24808.3	23917.65
938.7812	2083.4916	24748.35	23856.2
938.9176	2085.039	24602.5	23710.95
939.054	2086.5857	24584.6	23693.1
939.1903	2088.1317	24530.8	23637.1
939.3267	2089.677	24439.6	23548.05
939.463	2091.2215	24360.55	23469.4
939.5992	2092.7652	24249.2	23356.05
939.7355	2094.3083	24220.05	23327.9
939.8717	2095.8506	24143.95	23253.45
940.0079	2097.3921	24130.75	23240.55
940.1441	2098.933	23995.55	23106.05
940.2802	2100.4731	23953.65	23065.2
940.4163	2102.0124	23926.2	23025.55
940.5524	2103.5511	23809.1	22918.4
940.6885	2105.089	23756.05	22863.8
940.8245	2106.6261	23699.2	22807.4
940.9606	2108.1626	23620.35	22727.35
941.0965	2109.6983	23626.05	22704.1
941.2325	2111.2332	23475.9	22585
941.3684	2112.7675	23383.1	22491.55
941.5044	2114.301	23291.75	22397.75
941.6403	2115.8337	23294.2	22402.4
941.7761	2117.3657	23199.25	22307.45
941.912	2118.897	23157.55	22265
942.0478	2120.4276	23090.55	22192.2
942.1835	2121.9575	22938.65	22047.7
942.3193	2123.4866	22919.2	22011.65
942.455	2125.0149	22887.9	21993.25
942.5907	2126.5426	22712.45	21819.3
942.7264	2128.0695	22660.1	21766.75
942.8621	2129.5956	22636.05	21745.4
942.9977	2131.1211	22536.45	21643.75
943.1333	2132.6458	22479.35	21588.85
943.2689	2134.1698	22413.8	21521.75
943.4044	2135.693	22364.15	21469.5
943.54	2137.2155	22278.5	21384.15
943.6755	2138.7373	22233	21340.05
943.8109	2140.2584	22142.25	21250.2
943.9464	2141.7787	22093.45	21199.1
944.0818	2143.2983	22006.1	21116.5
944.2172	2144.8171	21848.1	20960.55
944.3526	2146.3353	21810.65	20916
944.4879	2147.8527	21641.15	20751.65
944.6232	2149.3693	21688.25	20797.05
944.7585	2150.8853	21588.05	20694.75
944.8938	2152.4005	21488.75	20597.1
945.029	2153.9149	21456.35	20563.1
945.1642	2155.4287	21375.8	20485.15
945.2994	2156.9417	21323.6	20431.9
945.4346	2158.454	21248.4	20353.3
945.5697	2159.9655	21155.7	20263.35
945.7048	2161.4764	21175.2	20283.9
945.8399	2162.9865	21069.6	20178.8
945.9749	2164.4958	21015.45	20123.3
946.1099	2166.0045	20957.1	20061.2
946.2449	2167.5124	20930.65	20037.65
946.3799	2169.0195	20805.2	19915
946.5148	2170.526	20800.6	19909.3
946.6498	2172.0317	20729.65	19839.15
946.7846	2173.5367	20686.15	19793.05
946.9195	2175.0409	20607.05	19717.05
947.0543	2176.5445	20582.75	19691.15
947.1891	2178.0473	20457.45	19564.7
947.3239	2179.5494	20399.8	19505.9
947.4587	2181.0507	20286.45	19394.45
947.5934	2182.5513	20245.2	19353.4
947.7281	2184.0512	20188.5	19297
947.8628	2185.5504	20115.65	19223.15
947.9974	2187.0488	19985.45	19095.75
948.132	2188.5465	19918.75	19028.35
948.2666	2190.0435	19868.05	18975.85
948.4012	2191.5397	19808.55	18915.7
948.5357	2193.0353	19733.7	18841.45
948.6702	2194.5301	19633.55	18740
948.8047	2196.0241	19556.45	18664.25
948.9392	2197.5175	19485.85	18594.6
949.0736	2199.0101	19362.3	18468.15
949.208	2200.502	19275.9	18384.95
949.3424	2201.9931	19207.65	18316.35
949.4767	2203.4835	19139.65	18247.25
949.611	2204.9733	19108.45	18213.1
949.7453	2206.4622	19041.85	18150.75
949.8796	2207.9505	18970.35	18076.25
950.0138	2209.438	18896.05	18007.4
950.148	2210.9248	18815.95	17924.55
950.2822	2212.4109	18750.15	17859.95
950.4164	2213.8962	18694.05	17798.4
950.5505	2215.3809	18661.8	17767.6
950.6846	2216.8648	18576.15	17683.55
950.8186	2218.3479	18530.3	17634.65
950.9527	2219.8304	18470.6	17574.5
951.0867	2221.3121	18386	17491.3
951.2207	2222.7931	18312.15	17420.65
951.3546	2224.2733	18258.7	17365.5
951.4886	2225.7529	18193.15	17298.4
951.6225	2227.2317	18121.9	17227.65
951.7563	2228.7098	18071.2	17180.3
951.8902	2230.1872	17987.4	17094.4
952.024	2231.6638	17917.8	17028.5
952.1578	2233.1397	17850.15	16951.75
952.2916	2234.6149	17839.55	16948.15
952.4253	2236.0894	17753.1	16859.8
952.559	2237.5632	17754.2	16853.8
952.6927	2239.0362	17640	16748.7
952.8263	2240.5085	17587.3	16694.85
952.9599	2241.9801	17523.8	16632.6
953.0935	2243.4509	17441.3	16552.9
953.2271	2244.921	17390	16498.95
953.3606	2246.3904	17303.85	16409
953.4941	2247.8591	17244.2	16353.85
953.6276	2249.3271	17224.35	16333.45
953.7611	2250.7943	17154	16261.7
953.8945	2252.2608	17036.2	16144.85
954.0279	2253.7266	17007.95	16117.4
954.1612	2255.1917	16963.05	16071.1
954.2946	2256.656	16912.25	16017.35
954.4279	2258.1197	16840	15949.9
954.5612	2259.5826	16786.8	15893.8
954.6944	2261.0447	16759.7	15868.6
954.8276	2262.5062	16648.45	15753.6
954.9608	2263.9669	16641.15	15745.2
955.094	2265.4269	16588.3	15697.45
955.2271	2266.8862	16536.5	15646.05
955.3602	2268.3448	16466.45	15576.3
955.4933	2269.8026	16441.15	15551.15
955.6264	2271.2598	16403.8	15512.8
955.7594	2272.7162	16343.7	15451.1
955.8924	2274.1719	16272.6	15379.15
956.0253	2275.6268	16207.75	15314.9
956.1583	2277.0811	16193.6	15300.15
956.2912	2278.5346	16142.55	15250.7
956.4241	2279.9874	16111.3	15218.45
956.5569	2281.4395	16082.95	15193.05
956.6897	2282.8908	15966	15071.7
956.8225	2284.3414	15927.7	15033.15
956.9553	2285.7914	15897.85	15007.75
957.088	2287.2406	15823.7	14928.25
957.2207	2288.689	15797.05	14904.5
957.3534	2290.1368	15712.85	14821.4
957.486	2291.5838	15671.4	14777.8
957.6186	2293.0302	15618.8	14725.7
957.7512	2294.4758	15535.7	14643.1
957.8838	2295.9206	15487	14593.7
958.0163	2297.3648	15436.9	14544.5
958.1488	2298.8082	15446.55	14553.1
958.2813	2300.251	15372.6	14480.75
958.4137	2301.693	15323.05	14429.5
958.5461	2303.1343	15317.1	14423.8
958.6785	2304.5748	15229.2	14337.95
958.8108	2306.0147	15158.35	14265.5
958.9432	2307.4538	15113.5	14220.25
959.0754	2308.8922	15073.75	14181.9
959.2077	2310.3299	15040.85	14149.5
959.3399	2311.7669	14959.7	14068.9
959.4721	2313.2031	14930.6	14039.2
959.6043	2314.6387	14868.8	13978.75
959.7365	2316.0735	14776	13883.7
959.8686	2317.5076	14744.85	13852.2
960.0006	2318.941	14691.45	13797.6
960.1327	2320.3737	14699.75	13806.95
960.2647	2321.8056	14640.75	13745.85
960.3967	2323.2369	14580.8	13689.25
960.5287	2324.6674	14559.7	13666.75
960.6606	2326.0972	14479.5	13587.4
960.7925	2327.5263	14417.4	13527.5
960.9244	2328.9547	14373.25	13481.35
961.0562	2330.3823	14339	13447.9
961.1881	2331.8092	14327.05	13432.55
961.3198	2333.2355	14253.85	13360.85
961.4516	2334.661	14225.3	13334.2
961.5833	2336.0858	14179.5	13287.55
961.715	2337.5098	14134.95	13243.15
961.8467	2338.9332	14098.55	13206.35
961.9783	2340.3558	14053.5	13159.15
962.1099	2341.7778	13981.25	13091.7
962.2415	2343.199	13954.95	13062.15
962.373	2344.6195	13904.65	13012.25
962.5045	2346.0393	13872.05	12981.75
962.636	2347.4583	13841.15	12945.65
962.7675	2348.8767	13753.85	12861.7
962.8989	2350.2943	13752.8	12859.85
963.0303	2351.7113	13704.9	12810.75
963.1617	2353.1275	13647.35	12754.6
963.293	2354.543	13620.75	12704.85
963.4243	2355.9578	13572.85	12680.25
963.5556	2357.3718	13479.05	12585.65
963.6868	2358.7852	13433.65	12539.05
963.818	2360.1978	13377.7	12486.45
963.9492	2361.6098	13334.2	12441
964.0803	2363.021	13291.85	12396.7
964.2114	2364.4315	13242.75	12349.95
964.3425	2365.8413	13190.5	12301.65
964.4736	2367.2504	13138.5	12248.85
964.6046	2368.6587	13072.65	12182.55
964.7356	2370.0664	12984.5	12094.1
964.8666	2371.4733	12970.05	12076.5
964.9975	2372.8795	12947.5	12057.1
965.1284	2374.285	12881.2	11988.7
965.2593	2375.6899	12787.2	11896.45
965.3901	2377.0939	12731.1	11839.4
965.5209	2378.4973	12700.5	11810.8
965.6517	2379.9	12669.25	11778.45
965.7825	2381.3019	12607.2	11716.05
965.9132	2382.7032	12567.4	11677.05
966.0439	2384.1037	12529.3	11639.85
966.1745	2385.5035	12506.55	11615.1
966.3051	2386.9027	12451.2	11562.5
966.4357	2388.3011	12406.2	11513.05
966.5663	2389.6987	12374.85	11484.4
966.6968	2391.0957	12311	11419.55
966.8273	2392.492	12236.9	11347.55
966.9578	2393.8876	12152.25	11260.6
967.0882	2395.2824	12117.75	11225.55
967.2186	2396.6765	12095.6	11203.05
967.349	2398.07	12054.2	11164.45
967.4793	2399.4627	12021.1	11129.75
967.6097	2400.8547	11979.65	11090.45
967.7399	2402.246	11939.15	11040.95
967.8702	2403.6366	11844.15	10954.5
968.0004	2405.0265	11787.8	10897.4
968.1306	2406.4156	11768.5	10875.2
968.2607	2407.8041	11727.1	10834.75
968.3909	2409.1918	11657	10763.15
968.521	2410.5789	11650.45	10759.65
968.651	2411.9652	11573.2	10679.35
968.781	2413.3508	11527.55	10636.35
968.911	2414.7358	11461.1	10570.95
969.041	2416.12	11447.65	10556.45
969.1709	2417.5035	11412.35	10521.15
969.3008	2418.8863	11381.85	10490
969.4307	2420.2684	11345.1	10455.9
969.5606	2421.6497	11263.05	10371.75
969.6904	2423.0304	11212.6	10323.45
969.8201	2424.4104	11189.55	10298.8
969.9499	2425.7896	11157	10258.95
970.0796	2427.1682	11126.15	10234.9
970.2093	2428.546	11102.6	10209.55
970.3389	2429.9232	11061.65	10171.2
970.4685	2431.2996	11040.6	10151.65
970.5981	2432.6753	10989	10099.9
970.7277	2434.0503	10979.2	10088.9
970.8572	2435.4246	10912.9	10020.85
970.9867	2436.7982	10892.45	9998.25
971.1161	2438.1711	10863.4	9972.3
971.2456	2439.5433	10808.1	9917.75
971.375	2440.9148	10745	9852.45
971.5043	2442.2856	10706.1	9814.3
971.6336	2443.6557	10679.55	9787.5
971.7629	2445.025	10645.25	9753.25
971.8922	2446.3937	10617.1	9725.3
972.0214	2447.7617	10570.2	9678.6
972.1506	2449.1289	10551.95	9660.75
972.2798	2450.4955	10515.2	9621.5
972.4089	2451.8613	10490.3	9600.4
972.538	2453.2265	10436.95	9546.35
972.6671	2454.5909	10420.15	9528.6
972.7961	2455.9546	10403.65	9511.55
972.9251	2457.3177	10359.95	9468.3
973.0541	2458.68	10317.15	9423.35
973.1831	2460.0416	10285.55	9392.3
973.312	2461.4025	10273.7	9381.65
973.4408	2462.7627	10248.45	9345.8
973.5697	2464.1222	10212	9324.3
973.6985	2465.4811	10190.95	9298.95
973.8273	2466.8392	10142.95	9251.35
973.956	2468.1966	10114.65	9221.2
974.0847	2469.5533	10119.85	9227.6
974.2134	2470.9093	10097.45	9206.2
974.3421	2472.2645	10059.85	9166.35
974.4707	2473.6191	10011.8	9121.15
974.5993	2474.973	9953.4	9061.6
974.7278	2476.3262	9918.3	9026.8
974.8563	2477.6787	9886.15	8994.75
974.9848	2479.0305	9831.65	8939.15
975.1132	2480.3816	9810.2	8917.3
975.2417	2481.7319	9772.15	8879.45
975.37	2483.0816	9728.05	8834.95
975.4984	2484.4306	9699.4	8809
975.6267	2485.7789	9678.25	8787.6
975.755	2487.1264	9632	8738.5
975.8833	2488.4733	9574.45	8684.55
976.0115	2489.8195	9558.05	8658.75
976.1397	2491.165	9509.15	8612.8
976.2678	2492.5097	9493.85	8602.15
976.3959	2493.8538	9435.4	8544.55
976.524	2495.1972	9373.8	8485.25
976.6521	2496.5398	9340.85	8448.15
976.7801	2497.8818	9345.2	8450.7
976.9081	2499.2231	9281.65	8389.3
977.036	2500.5637	9266.8	8372.85
977.164	2501.9035	9215.85	8324.2
977.2918	2503.2427	9197.05	8302.1
977.4197	2504.5812	9156.8	8264.7
977.5475	2505.919	9134.8	8243.3
977.6753	2507.256	9118	8228.05
977.8031	2508.5924	9086.2	8195.2
977.9308	2509.9281	9043	8144.8
978.0585	2511.2631	8996.6	8105.65
978.1861	2512.5974	8989.25	8097.4
978.3137	2513.9309	8942.2	8051.05
978.4413	2515.2638	8943.1	8015.65
978.5689	2516.596	8902.55	8011.9
978.6964	2517.9275	8843.95	7952.1
978.8239	2519.2583	8820.65	7928
978.9513	2520.5884	8782	7887.9
979.0788	2521.9178	8766.7	7873.85
979.2062	2523.2465	8732.65	7842.55
979.3335	2524.5745	8700.3	7810.4
979.4608	2525.9018	8649.4	7758.4
979.5881	2527.2284	8639.8	7749.65
979.7154	2528.5543	8611.9	7721.25
979.8426	2529.8796	8575.2	7683.8
979.9698	2531.2041	8558.2	7667.05
980.0969	2532.5279	8537.25	7645.65
980.224	2533.851	8504.85	7613.4
980.3511	2535.1735	8498.2	7605.65
980.4781	2536.4952	8472.1	7581.6
980.6052	2537.8163	8444.85	7553
980.7321	2539.1366	8409.9	7518.35
980.8591	2540.4562	8388.05	7496.6
980.986	2541.7752	8365.55	7475.55
981.1129	2543.0935	8351.6	7459.3
981.2397	2544.411	8334.8	7441.7
981.3665	2545.7279	8307.8	7417.75
981.4933	2547.0441	8281.85	7388.6
981.62	2548.3596	8270.55	7375.85
981.7467	2549.6744	8262.1	7370.1
981.8734	2550.9885	8228	7335.8
982.0001	2552.3019	8203.25	7311
982.1267	2553.6146	8187.05	7295.3
982.2532	2554.9266	8143.75	7251.65
982.3798	2556.2379	8120.6	7226.8
982.5063	2557.5485	8114.95	7226.2
982.6327	2558.8585	8094.85	7194.95
982.7592	2560.1677	8057.4	7161.55
982.8856	2561.4762	8041.5	7151.85
983.0119	2562.7841	8024.35	7129.6
983.1383	2564.0913	8009.65	7118.2
983.2646	2565.3977	7990.45	7099.7
983.3908	2566.7035	7962.85	7071.3
983.517	2568.0086	7960.1	7066.55
983.6432	2569.313	7944.3	7051.6
983.7694	2570.6167	7928.3	7032.25
983.8955	2571.9197	7892.65	7000.6
984.0216	2573.222	7904.7	7011.15
984.1476	2574.5236	7886.65	6994.1
984.2737	2575.8246	7844.6	6950.7
984.3996	2577.1248	7824.35	6931.2
984.5256	2578.4244	7815.8	6924.15
984.6515	2579.7232	7787.4	6895.1
984.7774	2581.0214	7788.9	6871.95
984.9032	2582.3189	7742	6849.55
985.029	2583.6157	7747.15	6851.45
985.1548	2584.9118	7714.55	6821.45
985.2806	2586.2072	7688.65	6796.5
985.4063	2587.5019	7651.85	6762.5
985.5319	2588.7959	7640.8	6747.95
985.6576	2590.0893	7641.8	6747.7
985.7832	2591.3819	7609.65	6718.05
985.9087	2592.6739	7592.8	6701.95
986.0343	2593.9652	7569.1	6675.6
986.1597	2595.2557	7530.8	6637.95
986.2852	2596.5456	7498.85	6605
986.4106	2597.8348	7488.2	6597.5
986.536	2599.1234	7462.15	6570.95
986.6614	2600.4112	7452	6560.15
986.7867	2601.6983	7424.25	6529.9
986.912	2602.9848	7383.9	6491.4
987.0372	2604.2705	7354.7	6454.6
987.1624	2605.5556	7321.4	6429.5
987.2876	2606.84	7293.05	6402.55
987.4128	2608.1237	7272.2	6380.15
987.5379	2609.4067	7262.55	6372.4
987.6629	2610.689	7224.4	6324.45
987.788	2611.9707	7205	6308.8
987.913	2613.2516	7178.55	6280.35
988.0379	2614.5319	7148	6258.2
988.1629	2615.8115	7120.25	6227.55
988.2878	2617.0903	7098.15	6206.4
988.4126	2618.3685	7058.1	6166.25
988.5375	2619.6461	7038.55	6148.35
988.6622	2620.9229	7006.85	6115.25
988.787	2622.199	6975.65	6082.6
988.9117	2623.4745	6976.4	6084.7
989.0364	2624.7493	6944.35	6053.45
989.161	2626.0234	6932.25	6041.4
989.2857	2627.2968	6900.05	6008.7
989.4102	2628.5695	6887.3	5993.4
989.5348	2629.8415	6828.45	5936.55
989.6593	2631.1128	6838.35	5946.5
989.7837	2632.3835	6821.95	5931.6
989.9082	2633.6535	6775.65	5885.7
990.0326	2634.9228	6741.1	5848.2
990.1569	2636.1914	6726.65	5835.7
990.2812	2637.4593	6726.9	5829.15
990.4055	2638.7265	6694.45	5803.55
990.5298	2639.9931	6672.45	5780.85
990.654	2641.259	6657.1	5764.3
990.7782	2642.5242	6627.2	5733.35
990.9023	2643.7887	6596.75	5705.1
991.0264	2645.0525	6597	5705.25
991.1505	2646.3156	6549.8	5656.05
991.2745	2647.5781	6514.3	5622.35
991.3985	2648.8398	6515.35	5624.3
991.5225	2650.1009	6498.85	5598.3
991.6464	2651.3613	6468.8	5578.15
991.7703	2652.6211	6469.5	5579.4
991.8942	2653.8801	6435.5	5543.3
992.018	2655.1385	6416.85	5522.45
992.1418	2656.3961	6407.85	5514.35
992.2655	2657.6531	6371.5	5481.55
992.3892	2658.9094	6358.5	5466.7
992.5129	2660.1651	6366.05	5473.8
992.6366	2661.42	6347.35	5458.2
992.7602	2662.6743	6326.7	5435
992.8837	2663.9279	6307.75	5416.8
993.0073	2665.1808	6282.8	5390.4
993.1307	2666.433	6257.35	5363.35
993.2542	2667.6846	6252.8	5358.75
993.3776	2668.9354	6246.2	5352.8
993.501	2670.1856	6220.6	5327.85
993.6244	2671.4351	6206.4	5315.35
993.7477	2672.6839	6204.5	5309.7
993.8709	2673.9321	6172.95	5279.45
993.9942	2675.1795	6153.3	5263.85
994.1174	2676.4263	6144.45	5252.25
994.2405	2677.6724	6117.7	5226.75
994.3637	2678.9179	6115.25	5223.45
994.4868	2680.1626	6085.7	5193.45
994.6098	2681.4067	6075.75	5183.7
994.7328	2682.6501	6063.75	5171.9
994.8558	2683.8928	6026.95	5134.8
994.9788	2685.1348	6009.4	5117.6
995.1017	2686.3761	5996.45	5104.8
995.2245	2687.6168	5963.65	5072.95
995.3474	2688.8568	5941.15	5049.9
995.4702	2690.0961	5923.8	5033.55
995.5929	2691.3348	5916.35	5024.35
995.7156	2692.5727	5888.75	4996.55
995.8383	2693.81	5854.3	4964.75
995.961	2695.0466	5833.05	4941.1
996.0836	2696.2826	5835.65	4941.15
996.2062	2697.5178	5830.55	4937.8
996.3287	2698.7524	5794.25	4902.65
996.4512	2699.9863	5776.25	4885
996.5737	2701.2195	5749.55	4859.15
996.6961	2702.452	5736.8	4845.3
996.8185	2703.6839	5734.4	4841.2
996.9408	2704.9151	5710.1	4819
997.0631	2706.1456	5700.65	4809.15
997.1854	2707.3755	5681.7	4789.15
997.3077	2708.6046	5696.4	4801.95
997.4299	2709.8331	5675.65	4782.2
997.552	2711.0609	5645.65	4752.8
997.6742	2712.2881	5649.65	4759.25
997.7963	2713.5145	5636.3	4742.8
997.9183	2714.7403	5627.9	4738.05
998.0403	2715.9654	5616.35	4724.85
998.1623	2717.1899	5600.5	4694.65
998.2842	2718.4136	5600.25	4709.65
998.4062	2719.6367	5570.95	4679.7
998.528	2720.8591	5592.95	4694.5
998.6498	2722.0809	5563.25	4671.6
998.7716	2723.3019	5570.1	4674.2
998.8934	2724.5223	5553.45	4661.05
999.0151	2725.7421	5543.3	4648.45
999.1368	2726.9611	5534.05	4638.3
999.2584	2728.1795	5505.4	4609.15
999.38	2729.3972	5476.05	4585.15
999.5016	2730.6142	5452.95	4554.65
999.6231	2731.8306	5420.25	4526.4
999.7446	2733.0462	5397.8	4502.9
999.8661	2734.2612	5363.3	4468.15
999.9875	2735.4756	5329.2	4434.3
1000.1089	2736.6892	5289	4398.1
1000.2302	2737.9022	5238.35	4349.1
1000.3515	2739.1145	5228.2	4337.35
1000.4728	2740.3262	5204.35	4304.95
1000.594	2741.5372	5166.6	4274.75
1000.7152	2742.7475	5147.65	4255.8
1000.8363	2743.9571	5124.75	4233.9
1000.9575	2745.1661	5107.6	4211.3
1001.0785	2746.3744	5085.2	4191.25
1001.1996	2747.582	5047.6	4157.4
1001.3206	2748.7889	5041.45	4147.75
1001.4415	2749.9952	5011.75	4121.45
1001.5625	2751.2008	4996.7	4104.1
1001.6833	2752.4057	4983.25	4088.35
1001.8042	2753.61	4954.25	4060.75
1001.925	2754.8136	4923.45	4029.85
1002.0458	2756.0165	4926.4	4034.3
1002.1665	2757.2188	4917.15	4025.05
1002.2872	2758.4204	4906.8	4016.55
1002.4078	2759.6213	4873.65	3978.65
1002.5285	2760.8215	4868.35	3973.1
1002.649	2762.0211	4844.95	3951.4
1002.7696	2763.22	4830.85	3934.4
1002.8901	2764.4182	4836.55	3943.75
1003.0106	2765.6158	4815.85	3923.7
1003.131	2766.8127	4794.4	3902.2
1003.2514	2768.009	4756.7	3865.3
1003.3717	2769.2045	4759.95	3868.05
1003.492	2770.3994	4743.4	3849.35
1003.6123	2771.5936	4718.55	3824.15
1003.7325	2772.7872	4696.55	3806.25
1003.8527	2773.9801	4666.75	3773.1
1003.9729	2775.1723	4691	3781.35
1004.093	2776.3639	4663.5	3772.6
1004.2131	2777.5548	4653.55	3759.4
1004.3331	2778.745	4624.05	3731.15
1004.4531	2779.9346	4617.25	3724.45
1004.5731	2781.1235	4615.8	3720.75
1004.693	2782.3117	4624.35	3732.35
1004.8129	2783.4992	4600.5	3708.9
1004.9328	2784.6861	4572.1	3680.55
1005.0526	2785.8723	4573.05	3679.75
1005.1723	2787.0579	4560.65	3668
1005.2921	2788.2428	4559.4	3667.55
1005.4118	2789.427	4552.35	3661.9
1005.5314	2790.6106	4531.95	3640.3
1005.651	2791.7935	4526.95	3635.4
1005.7706	2792.9757	4546.75	3656.3
1005.8902	2794.1573	4522.5	3629.1
1006.0097	2795.3382	4537.5	3647.2
1006.1291	2796.5184	4527.15	3637.75
1006.2485	2797.698	4522.7	3630.7
1006.3679	2798.8769	4534.25	3644.15
1006.4873	2800.0551	4543.9	3651.35
1006.6066	2801.2327	4537.8	3645.85
1006.7258	2802.4096	4531.9	3641.25
1006.8451	2803.5859	4548.8	3656.1
1006.9642	2804.7615	4567.85	3674.6
1007.0834	2805.9364	4580.25	3690.05
1007.2025	2807.1106	4582.3	3691.6
1007.3216	2808.2842	4605.6	3713.45
1007.4406	2809.4572	4626.2	3734.1
1007.5596	2810.6294	4641.45	3748.25
1007.6785	2811.801	4654.4	3763.5
1007.7975	2812.972	4704.45	3813.55
1007.9163	2814.1423	4738.05	3844.65
1008.0352	2815.3119	4767.65	3875.2
1008.154	2816.4808	4806.8	3915.3
1008.2727	2817.6491	4836.8	3945.45
1008.3914	2818.8167	4894.9	4004.3
1008.5101	2819.9837	4927.45	4032.2
1008.6288	2821.15	4947.15	4056.1
1008.7474	2822.3157	4977.2	4087.15
1008.8659	2823.4807	5015.4	4123.85
1008.9844	2824.645	5064.25	4171.2
1009.1029	2825.8086	5085.75	4194.8
1009.2214	2826.9716	5121.7	4231.75
1009.3398	2828.134	5158.3	4265.85
1009.4581	2829.2957	5162	4270.05
1009.5764	2830.4567	5196.6	4306.95
1009.6947	2831.617	5207	4315.85
1009.813	2832.7767	5220.35	4328.75
1009.9312	2833.9358	5210.65	4321.5
1010.0493	2835.0941	5180.9	4288.3
1010.1675	2836.2519	5176.8	4286.75
1010.2855	2837.4089	5154.75	4263.05
1010.4036	2838.5653	5139.1	4248.95
1010.5216	2839.7211	5122.3	4232.75
1010.6396	2840.8761	5127.65	4234.95
1010.7575	2842.0306	5144.65	4255
1010.8754	2843.1843	5185.95	4294.45
1010.9932	2844.3374	5236.35	4344.9
1011.111	2845.4899	5272.3	4380.45
1011.2288	2846.6417	5326.1	4434.65
1011.3465	2847.7928	5405.55	4515.45
1011.4642	2848.9433	5465.25	4574.6
1011.5818	2850.0931	5556.85	4668.2
1011.6995	2851.2422	5610.9	4718
1011.817	2852.3907	5673.45	4782.15
1011.9345	2853.5385	5729.6	4835.45
1012.052	2854.6857	5819	4901.8
1012.1695	2855.8323	5837.85	4946
1012.2869	2856.9781	5854.85	4964.65
1012.4042	2858.1233	5902.15	5011.05
1012.5216	2859.2679	5945.65	5056.65
1012.6389	2860.4118	5986.95	5095.25
1012.7561	2861.555	5986.95	5090.3
1012.8733	2862.6976	6028.5	5133.85
1012.9905	2863.8395	6054	5162.5
1013.1076	2864.9808	6067.6	5176.15
1013.2247	2866.1214	6066.55	5175.9
1013.3417	2867.2614	6075.05	5182.95
1013.4587	2868.4007	6057.05	5164.8
1013.5757	2869.5393	6064.35	5171.5
1013.6926	2870.6773	6076.1	5182.15
1013.8095	2871.8146	6075.9	5180.05
1013.9263	2872.9513	6072.1	5178.9
1014.0431	2874.0874	6041.05	5151.05
1014.1599	2875.2227	6023.4	5133.9
1014.2766	2876.3574	5988.8	5098.75
1014.3933	2877.4915	5945.75	5055.8
1014.51	2878.6249	5926.1	5034.7
1014.6266	2879.7577	5882.7	4990.05
1014.7431	2880.8898	5872	4972.8
1014.8596	2882.0212	5839.05	4948.75
1014.9761	2883.152	5812.45	4922
1015.0925	2884.2821	5788.4	4897.85
1015.2089	2885.4116	5781.45	4889.2
1015.3253	2886.5405	5764.25	4874.15
1015.4416	2887.6686	5740.75	4847.1
1015.5579	2888.7962	5737.95	4846.45
1015.6741	2889.923	5745.2	4853.3
1015.7903	2891.0493	5743.1	4853.45
1015.9065	2892.1748	5743.6	4853.2
1016.0226	2893.2997	5747.35	4855.65
1016.1387	2894.424	5745.65	4854.9
1016.2547	2895.5476	5762.85	4870.65
1016.3707	2896.6706	5771.3	4884.15
1016.4866	2897.7929	5777.4	4884.85
1016.6025	2898.9145	5817	4926.5
1016.7184	2900.0355	5835.9	4944.7
1016.8342	2901.1559	5859.2	4964.2
1016.95	2902.2756	5871.7	4981.55
1017.0658	2903.3946	5897.3	5005.55
1017.1815	2904.513	5918.55	5024.45
1017.2971	2905.6308	5932.45	5042.15
1017.4127	2906.7479	5943	5053.3
1017.5283	2907.8643	5955.25	5062.85
1017.6439	2908.9801	5962.5	5070.4
1017.7594	2910.0953	5961.85	5071.3
1017.8748	2911.2098	5963.5	5070.1
1017.9902	2912.3236	5945.8	5047.5
1018.1056	2913.4368	5916.35	5021.5
1018.2209	2914.5494	5899.45	5007.45
1018.3362	2915.6613	5843.55	4947.8
1018.4515	2916.7725	5841.9	4949.8
1018.5667	2917.8831	5790.7	4898.05
1018.6819	2918.9931	5741.55	4847.05
1018.797	2920.1024	5703.95	4810.45
1018.9121	2921.211	5684.9	4793.3
1019.0271	2922.319	5648.65	4757.75
1019.1421	2923.4264	5642.9	4752.6
1019.2571	2924.5331	5602.65	4714.4
1019.372	2925.6391	5572.15	4682.3
1019.4869	2926.7445	5587.05	4697.45
1019.6017	2927.8493	5576.05	4682.8
1019.7165	2928.9534	5550.8	4658.9
1019.8313	2930.0569	5522.4	4630.15
1019.946	2931.1597	5495.45	4602.15
1020.0606	2932.2619	5495.6	4604.75
1020.1753	2933.3634	5480.65	4589.4
1020.2899	2934.4643	5475.4	4577.1
1020.4044	2935.5645	5439.35	4541.85
1020.5189	2936.6641	5384.7	4488.95
1020.6334	2937.763	5330.8	4440.2
1020.7478	2938.8613	5272.75	4382.15
1020.8622	2939.959	5216	4319.25
1020.9765	2941.056	5132.4	4242.15
1021.0908	2942.1523	5053.45	4162.2
1021.2051	2943.248	4934.35	4041.85
1021.3193	2944.3431	4841.1	3951.4
1021.4334	2945.4375	4723.15	3831.75
1021.5476	2946.5313	4606.1	3716.75
1021.6617	2947.6244	4498.65	3607.6
1021.7757	2948.7169	4408.45	3516.6
1021.8897	2949.8087	4299.5	3408.45
1022.0037	2950.8999	4191.85	3299.5
1022.1176	2951.9904	4089.9	3199.05
1022.2315	2953.0803	4016.4	3123.7
1022.3453	2954.1696	3951.55	3059.9
1022.4591	2955.2582	3884.8	2993.95
1022.5728	2956.3462	3834.8	2945
1022.6865	2957.4335	3787.3	2895.6
1022.8002	2958.5202	3728.05	2834.75
1022.9138	2959.6062	3704.25	2812.35
1023.0274	2960.6916	3674.2	2785.2
1023.141	2961.7764	3655.8	2762.55
1023.2545	2962.8605	3628	2738.05
1023.3679	2963.9439	3610.5	2720.6
1023.4813	2965.0267	3583.5	2690.35
1023.5947	2966.1089	3581.35	2667.35
1023.708	2967.1905	3551.6	2658.45
1023.8213	2968.2714	3546	2655.45
1023.9346	2969.3516	3548.85	2660.35
1024.0478	2970.4312	3529.55	2632.55
1024.1609	2971.5102	3529.35	2639.95
1024.274	2972.5885	3509.45	2619.7
1024.3871	2973.6662	3514.25	2617
1024.5002	2974.7432	3500.15	2609.85
1024.6132	2975.8196	3477.15	2587.25
1024.7261	2976.8954	3467.5	2577.65
1024.839	2977.9705	3443	2552.7
1024.9519	2979.045	3421.45	2530.8
1025.0647	2980.1188	3412.45	2522.1
1025.1775	2981.192	3370.7	2481.5
1025.2902	2982.2645	3345.7	2454.45
1025.4029	2983.3364	3312.5	2421.1
1025.5156	2984.4077	3288.8	2397.9
1025.6282	2985.4783	3253.85	2357.6
1025.7407	2986.5483	3208.15	2317.15
1025.8532	2987.6177	3172.15	2281.9
1025.9657	2988.6864	3126.95	2236.1
1026.0782	2989.7545	3099.1	2208.05
1026.1906	2990.8219	3054.1	2162.85
1026.3029	2991.8887	3026.4	2131.6
1026.4152	2992.9548	2982.75	2091.35
1026.5275	2994.0204	2941.65	2052.15
1026.6397	2995.0852	2916.35	2027.6
1026.7519	2996.1495	2883.2	1991.65
1026.864	2997.2131	2854.85	1964.65
1026.9761	2998.276	2824	1931.95
1027.0882	2999.3383	2785.55	1895.85
1027.2002	3000.4	2783.05	1890.6
1027.3122	3001.4611	2757.3	1867.6
1027.4241	3002.5215	2739.1	1848.45
1027.536	3003.5812	2715.9	1825.45
1027.6478	3004.6404	2708.15	1817.05
1027.7596	3005.6989	2691.6	1797.45
1027.8714	3006.7567	2676.4	1787.35
1027.9831	3007.8139	2686.8	1774.35
1028.0947	3008.8705	2651.8	1759.3
1028.2064	3009.9264	2631.9	1738.8
1028.3179	3010.9818	2625.6	1735.85
1028.4295	3012.0364	2625.05	1733.65
1028.541	3013.0905	2607.4	1717.55
1028.6524	3014.1439	2604.4	1713.1
1028.7638	3015.1966	2599	1709.25
1028.8752	3016.2487	2591.15	1700.05
1028.9865	3017.3002	2591.2	1694.85
1029.0978	3018.3511	2573.8	1683.3
1029.209	3019.4013	2578.4	1689
1029.3202	3020.4509	2566.35	1677.3
1029.4314	3021.4998	2572.8	1682.55
1029.5425	3022.5481	2559.3	1667.35
1029.6535	3023.5958	2542.75	1651.6
1029.7645	3024.6428	2552.65	1661.2
1029.8755	3025.6892	2550.15	1661
1029.9864	3026.735	2547.6	1657.9
1030.0973	3027.7802	2543.65	1651.85
1030.2082	3028.8247	2536.35	1646.9
1030.319	3029.8685	2523.3	1633.35
1030.4297	3030.9118	2525.6	1634.95
1030.5404	3031.9544	2522.5	1632.1
1030.6511	3032.9963	2530.35	1640.1
1030.7617	3034.0376	2517.15	1628
1030.8723	3035.0783	2528.15	1634.8
1030.9829	3036.1184	2532.8	1639.5
1031.0934	3037.1578	2529.1	1640
1031.2038	3038.1966	2511.6	1621.15
1031.3142	3039.2348	2511.75	1622.6
1031.4246	3040.2723	2519.1	1619.9
1031.5349	3041.3092	2508.05	1618.65
1031.6452	3042.3455	2493.95	1602.45
1031.7554	3043.3811	2493.1	1601.7
1031.8656	3044.4161	2477.4	1585.35
1031.9758	3045.4505	2474.95	1585.2
1032.0859	3046.4842	2470.35	1578.85
1032.1959	3047.5173	2450.1	1560.8
1032.3059	3048.5498	2432.5	1541.15
1032.4159	3049.5816	2427.95	1538
1032.5258	3050.6128	2414.25	1522.65
1032.6357	3051.6434	2404.5	1512.05
1032.7455	3052.6734	2398.25	1505.4
1032.8553	3053.7027	2381	1489.6
1032.9651	3054.7314	2365.55	1473.3
1033.0748	3055.7594	2375.95	1485.25
1033.1845	3056.7868	2353.4	1462.1
1033.2941	3057.8136	2337	1448.05
1033.4037	3058.8398	2334.05	1444.45
1033.5132	3059.8653	2319.6	1430.9
1033.6227	3060.8902	2317.6	1428.35
1033.7321	3061.9145	2306	1415.55
1033.8415	3062.9381	2300.1	1408.5
1033.9509	3063.9612	2298.8	1391.55
1034.0602	3064.9835	2273.3	1384
1034.1694	3066.0053	2271.05	1378.85
1034.2787	3067.0264	2249.1	1359.75
1034.3878	3068.0469	2246.45	1356.5
1034.497	3069.0668	2230.75	1338.3
1034.6061	3070.086	2217.9	1328.6
1034.7151	3071.1046	2211.7	1321.95
1034.8241	3072.1226	2204.5	1312.5
1034.9331	3073.1399	2182	1290.95
1035.042	3074.1567	2168.85	1276.55
1035.1508	3075.1727	2146.25	1255.3
1035.2597	3076.1882	2134.45	1244.3
1035.3684	3077.203	2128.7	1239.1
1035.4772	3078.2173	2116.75	1227.15
1035.5859	3079.2308	2101.25	1208.15
1035.6945	3080.2438	2094.6	1200.7
1035.8031	3081.2561	2083.95	1194.35
1035.9117	3082.2678	2072	1180.1
1036.0202	3083.2789	2065.55	1176.55
1036.1286	3084.2893	2057.95	1167.1
1036.2371	3085.2991	2038.95	1148.2
1036.3454	3086.3083	2031.1	1138.05
1036.4538	3087.3169	2026.05	1133.1
1036.562	3088.3248	2023.4	1132.8
1036.6703	3089.3321	1996.6	1105.3
1036.7785	3090.3388	1997.3	1108.3
1036.8866	3091.3449	1980.6	1091.75
1036.9948	3092.3503	1982.95	1088.5
1037.1028	3093.3551	1966.5	1077.1
1037.2108	3094.3593	1969.8	1081.25
1037.3188	3095.3629	1959	1071.1
1037.4267	3096.3658	1946.7	1055.55
1037.5346	3097.3681	1941	1049.35
1037.6425	3098.3698	1942.4	1049.15
1037.7503	3099.3708	1936	1040.15
1037.858	3100.3713	1910.45	1019.8
1037.9657	3101.3711	1917.05	1027.45
1038.0734	3102.3702	2018.5	1011.05
1038.181	3103.3688	1916.1	1024.55
1038.2886	3104.3667	1895.45	1006.3
1038.3961	3105.364	1898.25	1008
1038.5036	3106.3607	1887.9	995.85
1038.611	3107.3568	1870.35	978.55
1038.7184	3108.3522	1871.15	983.25
1038.8257	3109.347	1864.1	975
1038.933	3110.3412	1868.95	975.6
1039.0403	3111.3348	1854.85	964.05
1039.1475	3112.3277	1849.8	959.7
1039.2547	3113.32	1839.9	950
1039.3618	3114.3117	1844.35	955.05
1039.4689	3115.3028	1824.55	934.15
1039.5759	3116.2932	1828.4	938.1
1039.6829	3117.2831	1834.2	940.05
1039.7898	3118.2723	1818.55	926.5
1039.8967	3119.2608	1802.9	913.75
1040.0035	3120.2488	1803.95	911.3
1040.1103	3121.2361	1794	903.45
1040.2171	3122.2229	1788.9	898.85
1040.3238	3123.209	1788.15	897.2
1040.4305	3124.1944	1787.55	897.85
1040.5371	3125.1793	1778.4	886.65
1040.6437	3126.1635	1769.8	879.45
1040.7502	3127.1471	1773.25	884.15
1040.8567	3128.1301	1759.85	870.9
1040.9631	3129.1125	1755.05	865.9
1041.0695	3130.0942	1755.35	865.95
1041.1759	3131.0753	1761.05	861.6
1041.2822	3132.0558	1743.7	851
1041.3884	3133.0357	1748	856.7
1041.4946	3134.015	1739.3	848.2
1041.6008	3134.9936	1742	851.3
1041.7069	3135.9716	1746.2	838.65
1041.813	3136.949	1724.45	836.55
1041.919	3137.9258	1719.95	823.45
1042.025	3138.902	1722.5	828.4
1042.1309	3139.8775	1712.65	822.55
1042.2368	3140.8524	1712.95	822.95
1042.3427	3141.8267	1709.05	817.85
1042.4485	3142.8004	1705.45	813.4
1042.5542	3143.7735	1707.2	808.85
1042.6599	3144.7459	1695.95	805.05
1042.7656	3145.7178	1690.45	799.35
1042.8712	3146.689	1682	793.05
1042.9768	3147.6596	1684.25	793.45
1043.0823	3148.6295	1685.6	794.9
1043.1878	3149.5989	1669.05	778.15
1043.2932	3150.5676	1665.15	776.6
1043.3986	3151.5357	1664.05	774.9
1043.5039	3152.5032	1657.75	767.6
1043.6092	3153.4701	1653.3	762.3
1043.7145	3154.4364	1647.6	755.05
1043.8197	3155.402	1641.5	752
1043.9248	3156.367	1645.25	753.5
1044.03	3157.3315	1679.4	746.55
1044.135	3158.2952	1624.55	733.5
1044.24	3159.2584	1629.9	739.9
1044.345	3160.221	1627.85	737.25
1044.4499	3161.1829	1622.7	732.35
1044.5548	3162.1442	1617.8	729.1
1044.6596	3163.105	1609.55	719.3
1044.7644	3164.065	1602.25	711.95
1044.8692	3165.0245	1600.1	707.45
1044.9739	3165.9834	1594.9	708.15
1045.0785	3166.9416	1584.25	695.55
1045.1831	3167.8993	1582	692.9
1045.2877	3168.8563	1588.8	699
1045.3922	3169.8127	1577.3	686.7
1045.4966	3170.7684	1572.2	681.65
1045.6011	3171.7236	1579.95	688.4
1045.7054	3172.6782	1574.9	684.55
1045.8098	3173.6321	1569.75	677.95
1045.914	3174.5854	1562.85	668
1046.0183	3175.5381	1548.65	659.35
1046.1224	3176.4902	1549.55	659.3
1046.2266	3177.4417	1549.75	661.85
1046.3307	3178.3926	1546.9	656.85
1046.4347	3179.3428	1543.75	653.65
1046.5387	3180.2924	1537.85	647.4
1046.6427	3181.2415	1537.9	646
1046.7466	3182.1899	1521.4	631.3
1046.8504	3183.1377	1522.6	634.25
1046.9542	3184.0848	1523.65	630.45
1047.058	3185.0314	1522.85	632.4
1047.1617	3185.9773	1516.8	629.25
1047.2654	3186.9227	1512.5	624.4
1047.369	3187.8674	1511.1	620.65
1047.4726	3188.8115	1518.6	625.85
1047.5761	3189.755	1503.7	616.15
1047.6796	3190.6979	1506.1	616.8
1047.783	3191.6402	1502.85	612.2
1047.8864	3192.5818	1493.3	603.85
1047.9898	3193.5229	1509.95	597.9
1048.0931	3194.4633	1494.05	604.15
1048.1963	3195.4031	1486.9	597.75
1048.2995	3196.3423	1488.1	600
1048.4027	3197.2809	1486.1	597.35
1048.5058	3198.2189	1475.3	585.9
1048.6089	3199.1563	1481.25	585.95
1048.7119	3200.0931	1475.05	584.05
1048.8148	3201.0292	1468	578.55
1048.9178	3201.9648	1461.65	571.45
1049.0206	3202.8997	1464.7	570.85
1049.1235	3203.834	1456	564.9
1049.2262	3204.7677	1460.65	571.5
1049.329	3205.7008	1455.9	563.5
1049.4317	3206.6333	1452.25	563.2
1049.5343	3207.5652	1455.5	563.45
1049.6369	3208.4964	1441.4	552.3
1049.7394	3209.4271	1441.65	551.95
1049.8419	3210.3571	1431.55	541.35
1049.9444	3211.2865	1440.95	550.6
1050.0468	3212.2154	1436.05	546.6
1050.1491	3213.1436	1434.95	541.35
1050.2514	3214.0712	1443.4	546.5
1050.3537	3214.9982	1427.7	537.6
1050.4559	3215.9246	1422.95	533.6
1050.5581	3216.8503	1418.8	530.95
1050.6602	3217.7755	1417.25	529.05
1050.7623	3218.7001	1423.15	533.45
1050.8643	3219.624	1412.25	523.05
1050.9663	3220.5473	1410.3	521.35
1051.0682	3221.4701	1414.85	523.6
1051.1701	3222.3922	1413.75	521.15
1051.2719	3223.3137	1399.85	509.8
1051.3737	3224.2346	1399.15	510.15
1051.4754	3225.1549	1397.35	509.3
1051.5771	3226.0746	1401.8	511.65
1051.6788	3226.9937	1393.6	503.8
1051.7804	3227.9121	1387.3	497.9
1051.8819	3228.83	1394.1	503.8
1051.9834	3229.7473	1386.7	498.85
1052.0849	3230.6639	1380.7	490.45
1052.1863	3231.5799	1371.9	482.25
1052.2876	3232.4954	1377.85	487.2
1052.3889	3233.4102	1380.05	490.95
1052.4902	3234.3244	1370.4	482
1052.5914	3235.238	1374.7	486.2
1052.6926	3236.151	1385.2	472.85
1052.7937	3237.0634	1356.55	467
1052.8948	3237.9752	1362.8	471.6
1052.9958	3238.8864	1362.85	472.95
1053.0968	3239.797	1357.85	467.55
1053.1977	3240.7069	1348.85	458.5
1053.2986	3241.6163	1349.1	458.3
1053.3994	3242.5251	1343.5	454.25
1053.5002	3243.4332	1335.4	445.9
1053.6009	3244.3408	1342.35	451.95
1053.7016	3245.2477	1341.3	453.5
1053.8022	3246.154	1332.45	442.1
1053.9028	3247.0598	1329.45	437.95
1054.0034	3247.9649	1328	439.05
1054.1039	3248.8694	1326.1	437.9
1054.2043	3249.7733	1322	432.75
1054.3047	3250.6766	1316.9	428
1054.4051	3251.5793	1311.75	421.6
1054.5054	3252.4814	1321.95	432.75
1054.6056	3253.3829	1314.25	426.8
1054.7058	3254.2838	1310	420.55
1054.806	3255.1841	1307.55	418.55
1054.9061	3256.0838	1299.2	409.25
1055.0061	3256.9829	1298.95	409.45
1055.1062	3257.8814	1304.45	411.7
1055.2061	3258.7792	1294.1	401.65
1055.306	3259.6765	1288.85	396.7
1055.4059	3260.5731	1286.9	397.35
1055.5057	3261.4692	1274.6	385.7
1055.6055	3262.3647	1268	379.1
1055.7052	3263.2595	1266.45	377.75
1055.8049	3264.1538	1260.1	371.75
1055.9045	3265.0474	1261.6	370.35
1056.0041	3265.9404	1256.25	368.95
1056.1036	3266.8329	1251.5	363.45
1056.2031	3267.7247	1252.65	351.5
1056.3025	3268.616	1227.1	339.25
1056.4019	3269.5066	1225.45	336.05
1056.5013	3270.3966	1218.7	328.5
1056.6005	3271.286	1207.6	320.2
