Software Version:	3.9.2.0
Unit SN:	10000200
Spectrometer SN:	6960
Date:	3/6/2024 9:41:17 AM
Data Line Index:	25
Spectral Points:	2048
Integration time (ms):	125
Averages:	20
Delay (ms):	30
Sequence Number:	1
Processing:	dark subtract
Laser Power (mW):	300
Laser Current (mA):	825
Laser Diode Temp (C):	25
Laser Case Temp (C):	24
System Temp (C):	23.8
Spectrometer Temp (C):	21.4
CCD Temp (C):	-0.02
Secondary Temp (C):	20.032
Heatsink Temp (C):	17.305
CCDPCB Temp (C):	30.126
SecondaryPCB Temp (C):	25.191

Wavelength	RamanShift	Raw Counts	Dark Subtracted
787.061	30.1047	457.2	49.9
787.2016	32.3739	462	56.2
787.3422	34.6426	464.6	58.2
787.4828	36.9109	470.6	61.35
787.6235	39.1787	480.15	69.4
787.7642	41.4461	486.9	69.6
787.9049	43.7131	492.1	72.8
788.0456	45.9796	502.6	81.8
788.1863	48.2456	510.7	85.55
788.3271	50.5112	519.05	88.45
788.4679	52.7764	524.8	91.1
788.6087	55.0411	533.7	96.2
788.7496	57.3054	548.55	106.45
788.8904	59.5692	553.3	110.4
789.0313	61.8326	561.6	115.35
789.1722	64.0955	576.7	127.9
789.3132	66.3579	587.75	134.05
789.4541	68.6199	606.25	147.15
789.5951	70.8815	633.9	171.25
789.7361	73.1426	691.95	226.65
789.8771	75.4032	838.5	368.65
790.0181	77.6634	1194.95	722.75
790.1592	79.9231	2068.35	1593.75
790.3003	82.1824	3874.15	3395.45
790.4414	84.4412	7087.6	6600.65
790.5825	86.6995	11427.75	10930.5
790.7237	88.9574	15677.35	15174.75
790.8648	91.2148	18849.7	18342
791.006	93.4717	20540.15	20028.5
791.1472	95.7282	21312.1	20799.65
791.2885	97.9842	21715.6	21198.7
791.4297	100.2398	21848.7	21329.2
791.571	102.4949	21946.45	21425.5
791.7123	104.7495	21910.85	21385.1
791.8536	107.0036	21909.15	21381.4
791.9949	109.2573	21955.7	21431.9
792.1363	111.5105	21940.4	21411.7
792.2777	113.7632	21941.95	21412.15
792.4191	116.0154	21964.15	21423.2
792.5605	118.2672	22023.5	21490.45
792.7019	120.5185	22056.45	21522.05
792.8434	122.7693	22105.6	21564.1
792.9849	125.0197	22100.4	21554.4
793.1264	127.2696	22142.45	21595
793.2679	129.519	22212.65	21662.6
793.4094	131.7679	22295.2	21742.9
793.551	134.0163	22317.15	21762.4
793.6926	136.2642	22346.85	21788.65
793.8342	138.5117	22409.7	21848.45
793.9758	140.7587	22433.55	21870.65
794.1175	143.0052	22453.85	21888.05
794.2591	145.2512	22407.95	21839.8
794.4008	147.4967	22402.05	21835.1
794.5425	149.7417	22383.3	21813.1
794.6842	151.9863	22363.6	21786.95
794.826	154.2304	22421.1	21842.95
794.9677	156.4739	22381	21796.35
795.1095	158.717	22417.35	21832.5
795.2513	160.9596	22465.2	21873.35
795.3931	163.2017	22437.3	21844.9
795.535	165.4433	22470.6	21878.5
795.6768	167.6844	22481.7	21883.1
795.8187	169.925	22471.7	21870.75
795.9606	172.1651	22448.45	21845.8
796.1025	174.4047	22429.7	21822.45
796.2445	176.6439	22461.55	21853.1
796.3864	178.8825	22447.6	21836.4
796.5284	181.1206	22504.1	21891.85
796.6704	183.3582	22533.1	21914.1
796.8124	185.5954	22542.85	21923.3
796.9544	187.832	22540.95	21918.45
797.0965	190.0681	22609.25	21980.95
797.2386	192.3037	22692.1	22059.95
797.3806	194.5388	22696.2	22063.05
797.5228	196.7734	22746.6	22112.3
797.6649	199.0075	22807	22172.15
797.807	201.2411	22921.2	22285.75
797.9492	203.4742	22957.45	22319.35
798.0914	205.7068	23048.2	22405
798.2336	207.9389	23089.05	22444.9
798.3758	210.1704	23136.35	22501.5
798.518	212.4015	23086.45	22464.75
798.6603	214.632	23188.3	22565.55
798.8025	216.862	23195.65	22575.2
798.9448	219.0915	23227.4	22604.8
799.0871	221.3205	23267.2	22642.05
799.2294	223.549	23318.5	22699.8
799.3718	225.777	23388.1	22766.25
799.5141	228.0044	23399.3	22766.9
799.6565	230.2314	23451.1	22817.8
799.7989	232.4578	23449.55	22812.4
799.9413	234.6837	23458.85	22812.1
800.0837	236.909	23508.8	22861.15
800.2262	239.1339	23534.1	22864.55
800.3687	241.3582	23554.8	22898.1
800.5111	243.582	23528.45	22840.25
800.6536	245.8053	23560.5	22885.05
800.7961	248.0281	23565.85	22899.35
800.9387	250.2503	23641.35	22969.2
801.0812	252.472	23649.95	22976.1
801.2238	254.6932	23685.6	23011.45
801.3664	256.9139	23639.8	22964.4
801.509	259.134	23674.45	22997.15
801.6516	261.3536	23695.65	23018.55
801.7942	263.5727	23748.3	23068.8
801.9369	265.7912	23774.15	23096.35
802.0795	268.0092	23815.95	23138.4
802.2222	270.2267	23840.2	23160.75
802.3649	272.4436	23902.65	23218.65
802.5076	274.6601	23905.7	23214.1
802.6504	276.8759	23888.25	23201.85
802.7931	279.0913	23959.95	23269.75
802.9359	281.3061	23937.95	23245.35
803.0787	283.5204	24020.05	23327.15
803.2215	285.7341	24038.6	23344.75
803.3643	287.9473	24113.65	23410.8
803.5071	290.16	24075.15	23374.2
803.6499	292.3721	24040.9	23349.1
803.7928	294.5837	24036.05	23342.5
803.9357	296.7947	24015.4	23319.4
804.0786	299.0052	23990.35	23294.4
804.2215	301.2152	23917	23216.9
804.3644	303.4246	23964.45	23268.15
804.5074	305.6334	23952.25	23255.15
804.6503	307.8418	23970.2	23269.05
804.7933	310.0495	23946.6	23244.5
804.9363	312.2568	23902.95	23198.8
805.0793	314.4635	23815.25	23109
805.2223	316.6696	23789.75	23079.25
805.3653	318.8752	23701.95	22983
805.5084	321.0802	23669.7	22958.9
805.6514	323.2847	23732	23021.25
805.7945	325.4887	23685.9	22974.3
805.9376	327.692	23663.65	22950.95
806.0807	329.8949	23730.6	23015.25
806.2238	332.0972	23741.1	23022.95
806.367	334.2989	23809.6	23088.3
806.5101	336.5001	23754.75	23034.8
806.6533	338.7007	23771.8	23050
806.7965	340.9008	23813.15	23091.55
806.9397	343.1003	23708.95	22985.65
807.0829	345.2992	23704.05	22979.85
807.2261	347.4976	23668.15	22940.9
807.3693	349.6955	23607.9	22877.55
807.5126	351.8927	23694.3	22962.3
807.6559	354.0895	23633.4	22889.15
807.7991	356.2856	23628.1	22890.9
807.9424	358.4812	23612.4	22878.85
808.0857	360.6763	23633.65	22897.85
808.2291	362.8707	23581.3	22843.85
808.3724	365.0646	23631.75	22889.4
808.5158	367.258	23568.65	22824.55
808.6591	369.4508	23570.65	22825.4
808.8025	371.643	23625.4	22882.35
808.9459	373.8346	23528.4	22782.4
809.0893	376.0257	23530.9	22781.2
809.2327	378.2162	23537.7	22790.05
809.3762	380.4062	23547.9	22798.85
809.5196	382.5956	23462.05	22712.45
809.6631	384.7844	23449.45	22708.5
809.8066	386.9726	23361.15	22621.7
809.9501	389.1603	23318.2	22579.05
810.0936	391.3474	23342	22560.6
810.2371	393.5339	23292.1	22548.4
810.3806	395.7199	23222.5	22481.8
810.5241	397.9052	23229.8	22487.45
810.6677	400.09	23234.3	22488.35
810.8113	402.2743	23233.5	22484.9
810.9548	404.4579	23226	22477.6
811.0984	406.641	23283.15	22533.55
811.2421	408.8235	23351.2	22598.45
811.3857	411.0054	23323.1	22567.1
811.5293	413.1868	23468.15	22711.65
811.673	415.3675	23438	22675.6
811.8166	417.5477	23465.55	22705.15
811.9603	419.7273	23363.45	22598.1
812.104	421.9064	23264.65	22491.9
812.2477	424.0848	23182.8	22416.5
812.3914	426.2627	23070.3	22304.5
812.5351	428.4399	23096.2	22326.85
812.6788	430.6166	22968.2	22196.1
812.8226	432.7928	22907.8	22134.6
812.9663	434.9683	22827.1	22053.95
813.1101	437.1432	22800.4	22025.9
813.2539	439.3176	22692.45	21922.55
813.3977	441.4914	22622.4	21851.6
813.5415	443.6645	22608.25	21834.45
813.6853	445.8371	22508.2	21732.7
813.8291	448.0091	22441.3	21667.6
813.973	450.1806	22379.65	21603.8
814.1168	452.3514	22351.1	21573
814.2607	454.5216	22366.5	21581.3
814.4046	456.6913	22214.4	21435.7
814.5485	458.8603	22233	21455
814.6924	461.0288	22223.15	21445.95
814.8363	463.1967	22210.6	21434.65
814.9802	465.3639	22230.9	21451.9
815.1241	467.5306	22146.25	21365.25
815.2681	469.6967	22119.15	21342.05
815.412	471.8622	22025.7	21245.45
815.556	474.0271	22036.6	21256.85
815.7	476.1914	22049.55	21267.15
815.844	478.3551	22019.85	21234.75
815.988	480.5182	22037.4	21253.45
816.132	482.6807	22025.6	21243.25
816.276	484.8426	22088.85	21306.2
816.4201	487.0039	22083.8	21299.05
816.5641	489.1647	22146.65	21362.15
816.7082	491.3248	22175.35	21388.6
816.8522	493.4843	22175.5	21389.65
816.9963	495.6432	22142.75	21355.9
817.1404	497.8015	22046.1	21254.95
817.2845	499.9592	22026.85	21237.6
817.4286	502.1163	21981.3	21189.7
817.5727	504.2728	21963.5	21169.2
817.7168	506.4287	21945	21153.1
817.861	508.5839	21896.9	21104.3
818.0051	510.7386	21853.55	21061.7
818.1493	512.8927	21916	21120.1
818.2935	515.0461	21864.3	21070.75
818.4377	517.199	21854.9	21061
818.5818	519.3512	21859.8	21063.35
818.726	521.5029	21872.25	21070.25
818.8703	523.6539	21894.65	21096.7
819.0145	525.8043	21885.2	21087.25
819.1587	527.9541	21828.85	21027.35
819.303	530.1033	21758.85	20959.45
819.4472	532.2519	21679.55	20879.9
819.5915	534.3999	21692.45	20890.95
819.7357	536.5472	21637.55	20835.6
819.88	538.694	21633.7	20835.45
820.0243	540.8401	21661.2	20859.1
820.1686	542.9856	21662.2	20857.75
820.3129	545.1305	21634.05	20829.65
820.4572	547.2748	21702.85	20900.1
820.6016	549.4185	21667.75	20861.85
820.7459	551.5615	21628.65	20822.45
820.8902	553.704	21617	20816.8
821.0346	555.8458	21555.3	20751
821.1789	557.987	21567.55	20764.65
821.3233	560.1276	21553.6	20746.2
821.4677	562.2675	21604.45	20802.15
821.6121	564.4069	21537.3	20732.75
821.7565	566.5456	21580.85	20776.15
821.9009	568.6837	21575.85	20768.7
822.0453	570.8212	21467.6	20661.5
822.1897	572.958	21407.75	20599.1
822.3342	575.0942	21339.3	20534.4
822.4786	577.2299	21276.2	20468.9
822.6231	579.3648	21198.5	20392.2
822.7675	581.4992	21099.55	20291.45
822.912	583.6329	21031.15	20225.7
823.0565	585.766	21013.15	20204.55
823.201	587.8985	21016.1	20206.25
823.3454	590.0304	20976.85	20155
823.4899	592.1616	20916.2	20101.5
823.6345	594.2922	20877.45	20066.9
823.779	596.4222	20828.1	20012.75
823.9235	598.5515	20751.65	19938.3
824.068	600.6802	20710.9	19897.1
824.2126	602.8083	20561.15	19747.6
824.3571	604.9358	20566	19748
824.5017	607.0626	20542.7	19728.6
824.6462	609.1888	20491.35	19673.5
824.7908	611.3144	20459.85	19640.75
824.9354	613.4393	20456.85	19641.3
825.08	615.5636	20433.6	19614.7
825.2246	617.6873	20495.75	19679.2
825.3692	619.8103	20559.25	19740.45
825.5138	621.9327	20488.75	19668.15
825.6584	624.0544	20456.2	19637.55
825.803	626.1756	20374	19555.95
825.9477	628.2961	20324.6	19503.85
826.0923	630.4159	20310.3	19488.45
826.237	632.5351	20293.5	19468.75
826.3816	634.6537	20228.85	19407.3
826.5263	636.7716	20218.95	19394.2
826.6709	638.8889	20217.2	19394.85
826.8156	641.0056	20252.6	19428.8
826.9603	643.1216	20196.7	19373.5
827.105	645.237	20285.1	19461.2
827.2497	647.3518	20156.65	19332.65
827.3944	649.4659	20170.95	19347.45
827.5391	651.5793	20116.7	19292.35
827.6838	653.6922	20042.55	19219.1
827.8285	655.8043	20042.3	19217.7
827.9733	657.9159	20008.8	19182.6
828.118	660.0268	19974.5	19146.95
828.2627	662.137	19909.35	19084.25
828.4075	664.2466	19922.85	19094.35
828.5522	666.3556	19908.25	19080.7
828.697	668.4639	19833.8	19002.45
828.8418	670.5716	19836.6	19007.85
828.9865	672.6786	19855.5	19029.2
829.1313	674.785	19757.65	18927.5
829.2761	676.8907	19692.4	18861.55
829.4209	678.9958	19680.8	18849.75
829.5657	681.1002	19607.6	18775.1
829.7105	683.204	19579.85	18743.15
829.8553	685.3072	19574.2	18739.1
830.0001	687.4097	19543.55	18714.4
830.1449	689.5115	19555.4	18723.35
830.2898	691.6127	19535.45	18705.1
830.4346	693.7132	19493.35	18660.45
830.5794	695.8131	19522.6	18681.1
830.7243	697.9123	19495.3	18659.35
830.8691	700.0109	19421.4	18589
831.014	702.1089	19436.8	18604.15
831.1588	704.2061	19392.55	18558.55
831.3037	706.3028	19444.5	18609.1
831.4486	708.3987	19405.95	18571.05
831.5935	710.4941	19414.95	18578.95
831.7383	712.5887	19387.2	18549.75
831.8832	714.6827	19369.7	18529.2
832.0281	716.7761	19376.6	18541.8
832.173	718.8688	19356.35	18518.2
832.3179	720.9608	19296.9	18455.85
832.4628	723.0522	19319.3	18476.45
832.6077	725.1429	19265.35	18428.3
832.7527	727.233	19261.05	18421.4
832.8976	729.3224	19334.8	18495.6
833.0425	731.4112	19281.05	18440.3
833.1874	733.4993	19249.65	18407.4
833.3324	735.5867	19192.15	18351.45
833.4773	737.6735	19127.85	18284.85
833.6222	739.7596	19100.05	18255.9
833.7672	741.845	19039.25	18197.6
833.9122	743.9298	19009.75	18164.85
834.0571	746.014	18966.95	18124.3
834.2021	748.0974	18934.9	18091.4
834.347	750.1802	18899.35	18056.25
834.492	752.2624	18847.4	18007.65
834.637	754.3439	18758.5	17915.9
834.782	756.4247	18704.55	17853.05
834.9269	758.5048	18667.45	17823.9
835.0719	760.5843	18624.25	17779.1
835.2169	762.6631	18560.1	17717.25
835.3619	764.7413	18554.6	17711.8
835.5069	766.8188	18607.3	17762.25
835.6519	768.8956	18561	17716.75
835.7969	770.9718	18618.95	17774.2
835.9419	773.0473	18552.1	17708
836.0869	775.1221	18528.5	17683.9
836.232	777.1962	18409	17564.7
836.377	779.2697	18460.55	17614.85
836.522	781.3426	18466.85	17601.5
836.667	783.4147	18451.4	17603.4
836.8121	785.4862	18426.85	17581.8
836.9571	787.557	18358.4	17512.1
837.1021	789.6271	18254.75	17408
837.2472	791.6966	18168.2	17321
837.3922	793.7654	18074.6	17227.15
837.5373	795.8335	18020.75	17174
837.6823	797.901	17974.35	17127.65
837.8274	799.9678	17933	17084.45
837.9724	802.0339	17864.45	17016.75
838.1175	804.0993	17872.65	17016.3
838.2626	806.1641	17828.05	16978.3
838.4076	808.2282	17764.7	16916.05
838.5527	810.2916	17761.75	16911.35
838.6978	812.3544	17754.7	16908.95
838.8428	814.4164	17690.25	16843.7
838.9879	816.4778	17713.15	16862.6
839.133	818.5385	17652.45	16804.25
839.2781	820.5986	17666.7	16816.65
839.4232	822.658	17656.1	16804.45
839.5682	824.7166	17657.1	16807.5
839.7133	826.7747	17751.2	16901.35
839.8584	828.832	17746	16897
840.0035	830.8886	17682.9	16831.9
840.1486	832.9446	17689.15	16834.65
840.2937	834.9999	17646.8	16797.75
840.4388	837.0545	17603.35	16748.05
840.5839	839.1085	17520.05	16667.75
840.729	841.1618	17465.8	16610.6
840.8741	843.2143	17426.25	16576.2
841.0192	845.2662	17340.45	16488.85
841.1643	847.3175	17345.55	16493.55
841.3095	849.368	17243.9	16391.15
841.4546	851.4179	17239.4	16385.25
841.5997	853.467	17196.8	16346.25
841.7448	855.5155	17174.45	16321.35
841.8899	857.5633	17155.65	16303.05
842.0351	859.6105	17076.05	16219.4
842.1802	861.6569	17055.95	16203
842.3253	863.7027	17031.7	16176.7
842.4704	865.7478	17036	16181.9
842.6156	867.7922	16982.05	16127.75
842.7607	869.8359	16952.8	16096.95
842.9058	871.8789	16935.3	16080.2
843.0509	873.9212	16954.95	16066.65
843.1961	875.9629	16874	16020.25
843.3412	878.0039	16865.8	16009.7
843.4863	880.0441	16861.15	16007.55
843.6315	882.0837	16894.6	16041
843.7766	884.1226	16878.2	16021
843.9218	886.1609	16853.75	15999.15
844.0669	888.1984	16885.9	16032.15
844.212	890.2352	16941.35	16088.95
844.3572	892.2714	16887.55	16028
844.5023	894.3069	16903.35	16047.85
844.6475	896.3416	16809.9	15953.7
844.7926	898.3757	16755.35	15897.5
844.9377	900.4091	16726.35	15866.85
845.0829	902.4418	16682.3	15820.9
845.228	904.4739	16658.9	15798.2
845.3732	906.5052	16650	15791.45
845.5183	908.5358	16615.55	15759.25
845.6635	910.5658	16573.9	15713.25
845.8086	912.595	16503.6	15645.35
845.9538	914.6236	16439.8	15583.5
846.0989	916.6515	16437.05	15580.4
846.2441	918.6786	16372.45	15512.25
846.3892	920.7051	16373.1	15512
846.5344	922.7309	16369.55	15509.8
846.6795	924.756	16304.4	15445.55
846.8246	926.7804	16308.5	15449.05
846.9698	928.8041	16206.4	15343.55
847.1149	930.8272	16224.3	15364.2
847.2601	932.8495	16152.75	15290.05
847.4052	934.8711	16171.15	15310
847.5504	936.892	16071.75	15213.3
847.6955	938.9123	16039.8	15177.75
847.8407	940.9318	16057.35	15197.25
847.9858	942.9506	15979.35	15116.65
848.131	944.9688	15942.15	15081.65
848.2761	946.9862	15902.45	15039.75
848.4213	949.003	15834.3	14973
848.5664	951.019	15733.5	14872.75
848.7115	953.0344	15703.4	14842.35
848.8567	955.0491	15703.5	14839.5
849.0018	957.063	15688.5	14827.05
849.147	959.0763	15721.5	14861
849.2921	961.0888	15639.2	14775.55
849.4373	963.1007	15629.7	14769.9
849.5824	965.1119	15602.15	14742
849.7275	967.1223	15601.3	14741.6
849.8727	969.1321	15569.9	14709.85
850.0178	971.1412	15593.3	14731.2
850.1629	973.1495	15470.5	14608.35
850.3081	975.1572	15501.9	14591.55
850.4532	977.1641	15470.95	14607.35
850.5983	979.1704	15422.2	14556.6
850.7435	981.1759	15377.15	14512.3
850.8886	983.1808	15347.25	14482.3
851.0337	985.1849	15345.15	14470.5
851.1788	987.1884	15286.6	14420.55
851.324	989.1911	15283.1	14417.05
851.4691	991.1932	15256.95	14391.15
851.6142	993.1945	15150.1	14286.45
851.7593	995.1951	15093.25	14229.2
851.9045	997.1951	15064.95	14193.75
852.0496	999.1943	15007.6	14144.5
852.1947	1001.1928	14949.6	14085.55
852.3398	1003.1906	14916.85	14052.85
852.4849	1005.1877	14914.45	14047.85
852.63	1007.1841	14855.65	13991.8
852.7751	1009.1798	14846.4	13982.95
852.9202	1011.1748	14787.3	13922.7
853.0653	1013.1691	14730.8	13864.25
853.2104	1015.1627	14687.55	13823.3
853.3555	1017.1556	14553.95	13690.6
853.5006	1019.1477	14533.75	13667.7
853.6457	1021.1392	14439.75	13576.1
853.7908	1023.1299	14412.35	13546.35
853.9359	1025.12	14342.05	13476.95
854.081	1027.1093	14269.05	13406.45
854.2261	1029.0979	14261.7	13400.85
854.3712	1031.0859	14245.2	13382.3
854.5163	1033.0731	14218.35	13352.25
854.6613	1035.0596	14153.05	13288.3
854.8064	1037.0454	14058.5	13193.25
854.9515	1039.0304	14047.7	13181.3
855.0965	1041.0148	14004.7	13141.2
855.2416	1042.9985	13967.55	13099.95
855.3867	1044.9814	13943.3	13081.35
855.5317	1046.9636	13867.9	13000.2
855.6768	1048.9452	13821.4	12955.7
855.8219	1050.926	13823.35	12959.6
855.9669	1052.9061	13810.7	12944.6
856.112	1054.8855	13761.75	12894.35
856.257	1056.8642	13736.05	12867.7
856.4021	1058.8421	13725.3	12851.85
856.5471	1060.8194	13673.05	12806.65
856.6921	1062.7959	13678.75	12811.5
856.8372	1064.7717	13618.85	12752
856.9822	1066.7469	13608.65	12738.9
857.1272	1068.7213	13574.5	12703.5
857.2723	1070.695	13537.9	12670.55
857.4173	1072.6679	13489.9	12620.45
857.5623	1074.6402	13534.3	12666.9
857.7073	1076.6117	13471.05	12597.4
857.8523	1078.5826	13503.65	12635.35
857.9973	1080.5527	13428.6	12556.6
858.1423	1082.5221	13389.45	12519.85
858.2873	1084.4908	13348.65	12482.65
858.4323	1086.4587	13277.9	12408.8
858.5773	1088.426	13244.3	12373.8
858.7223	1090.3925	13233.1	12361.85
858.8673	1092.3584	13227.55	12360.55
859.0123	1094.3235	13141.1	12271.85
859.1573	1096.2879	13149	12279.3
859.3022	1098.2515	13138.8	12267.75
859.4472	1100.2145	13121.45	12251.85
859.5922	1102.1767	13092.75	12219.55
859.7371	1104.1382	13089.05	12217.8
859.8821	1106.099	13104.35	12233
860.027	1108.0591	13099.35	12231.35
860.172	1110.0185	13095.65	12225.7
860.3169	1111.9771	13097.1	12230.25
860.4619	1113.9351	13078.5	12207.9
860.6068	1115.8923	13094.15	12224.5
860.7517	1117.8488	13066.25	12192.45
860.8967	1119.8045	13010.85	12141.8
861.0416	1121.7596	12942.6	12071.35
861.1865	1123.7139	12862.1	11991.45
861.3314	1125.6675	12782.75	11913.1
861.4763	1127.6204	12773.9	11904.35
861.6212	1129.5726	12729.8	11858.5
861.7661	1131.524	12720.25	11850.9
861.911	1133.4748	12714.95	11843.85
862.0559	1135.4248	12641.85	11769.95
862.2008	1137.3741	12581.1	11708.35
862.3457	1139.3226	12501.15	11627.8
862.4905	1141.2705	12522.65	11652.6
862.6354	1143.2176	12452.55	11573.65
862.7803	1145.164	12484.3	11612
862.9251	1147.1097	12429.15	11558.2
863.07	1149.0546	12419.65	11547.9
863.2148	1150.9989	12382.75	11512.9
863.3597	1152.9424	12389.7	11519.9
863.5045	1154.8852	12374.15	11503.55
863.6493	1156.8272	12315.4	11445.2
863.7942	1158.7686	12327	11450.55
863.939	1160.7092	12234.9	11363.75
864.0838	1162.6491	12247.3	11371.4
864.2286	1164.5883	12214.8	11343.95
864.3734	1166.5267	12194.65	11322.65
864.5182	1168.4644	12224.25	11351.05
864.663	1170.4014	12203.15	11326.8
864.8078	1172.3377	12239.7	11367.1
864.9526	1174.2732	12233.3	11363.35
865.0974	1176.2081	12296.75	11424.95
865.2421	1178.1421	12328.15	11451.05
865.3869	1180.0755	12397.7	11526.85
865.5317	1182.0082	12395.5	11522.5
865.6764	1183.9401	12347.65	11475
865.8212	1185.8713	12271.85	11400.45
865.9659	1187.8017	12177.95	11306.15
866.1106	1189.7315	12129.8	11260.2
866.2554	1191.6605	12008.65	11137
866.4001	1193.5888	11920	11049.1
866.5448	1195.5163	11876.95	11006.6
866.6895	1197.4432	11822.9	10950.35
866.8342	1199.3693	11791.2	10919.75
866.9789	1201.2947	11724.25	10850.5
867.1236	1203.2193	11707.2	10835.3
867.2683	1205.1432	11687	10816.35
867.413	1207.0664	11649.3	10776.2
867.5576	1208.9889	11607.65	10730.95
867.7023	1210.9106	11551.5	10678.55
867.847	1212.8316	11518.65	10647
867.9916	1214.7519	11508.3	10626.45
868.1363	1216.6715	11498.65	10626.85
868.2809	1218.5903	11459.85	10587.75
868.4255	1220.5084	11441.65	10569.2
868.5701	1222.4257	11436.9	10563.85
868.7148	1224.3424	11410.75	10536.65
868.8594	1226.2583	11410.65	10531.15
869.004	1228.1735	11409.5	10533
869.1486	1230.0879	11367.95	10495.6
869.2932	1232.0016	11358	10486.55
869.4377	1233.9146	11357.9	10484.05
869.5823	1235.8269	11341.35	10468.65
869.7269	1237.7384	11346.6	10471.5
869.8715	1239.6492	11287.1	10415
870.016	1241.5592	11293.55	10417.4
870.1606	1243.4686	11296.05	10423.05
870.3051	1245.3772	11324.7	10448.7
870.4496	1247.285	11350.55	10474.9
870.5941	1249.1922	11355.2	10481.3
870.7387	1251.0986	11378.95	10504.9
870.8832	1253.0042	11387.45	10512.6
871.0277	1254.9092	11441.4	10566.3
871.1722	1256.8134	11475.6	10603.65
871.3167	1258.7169	11530.7	10656.2
871.4611	1260.6196	11513.8	10639.8
871.6056	1262.5216	11508	10631.65
871.7501	1264.4229	11467.3	10594.55
871.8945	1266.3234	11469.9	10597.5
872.039	1268.2232	11417.55	10542.15
872.1834	1270.1223	11398.75	10522.4
872.3278	1272.0207	11340.3	10465.4
872.4723	1273.9183	11331.85	10451.85
872.6167	1275.8151	11268.6	10394.95
872.7611	1277.7113	11273.8	10397.25
872.9055	1279.6067	11289.7	10416.85
873.0499	1281.5014	11373.15	10496.55
873.1943	1283.3953	11477.85	10600.25
873.3386	1285.2885	11601.5	10726.4
873.483	1287.181	11703.8	10830.4
873.6274	1289.0727	11726.95	10852.95
873.7717	1290.9637	11674.1	10798.65
873.9161	1292.854	11608.35	10734.55
874.0604	1294.7435	11503	10628.25
874.2047	1296.6323	11440.25	10566.15
874.349	1298.5204	11345.45	10470
874.4933	1300.4077	11291.7	10416.75
874.6376	1302.2943	11238.6	10363.25
874.7819	1304.1802	11225.75	10349.85
874.9262	1306.0653	11186.75	10308.5
875.0705	1307.9497	11131.2	10255.5
875.2147	1309.8333	11126.9	10253.9
875.359	1311.7162	11093.85	10217.65
875.5032	1313.5984	11081.6	10202.45
875.6475	1315.4798	11028.8	10141.75
875.7917	1317.3605	11012.05	10121.6
875.9359	1319.2405	11014.35	10137.9
876.0801	1321.1197	10956.3	10077.95
876.2243	1322.9982	10910.75	10032.75
876.3685	1324.876	10886.85	10012.6
876.5127	1326.753	10778.05	9902.75
876.6569	1328.6293	10734.15	9856.35
876.801	1330.5048	10694.65	9815.15
876.9452	1332.3796	10593.6	9719.65
877.0893	1334.2537	10570.1	9669.7
877.2335	1336.127	10506.75	9631.6
877.3776	1337.9996	10485.2	9607.6
877.5217	1339.8714	10439.25	9563.3
877.6658	1341.7426	10435.3	9516.9
877.8099	1343.6129	10387.55	9513.5
877.954	1345.4826	10376.4	9500.65
878.0981	1347.3515	10344.25	9466.65
878.2422	1349.2196	10308.15	9429.6
878.3862	1351.087	10305.15	9428.85
878.5303	1352.9537	10316.1	9440.65
878.6743	1354.8197	10313.7	9437.7
878.8184	1356.6849	10316.45	9440
878.9624	1358.5493	10269.6	9392.35
879.1064	1360.4131	10291.85	9417.85
879.2504	1362.276	10277.95	9402
879.3944	1364.1383	10260.75	9384.75
879.5384	1365.9998	10272.45	9390.95
879.6823	1367.8606	10241.75	9366.5
879.8263	1369.7206	10225.45	9349.65
879.9702	1371.5799	10201.85	9323.35
880.1142	1373.4384	10138.7	9260.8
880.2581	1375.2962	10131.45	9254.5
880.402	1377.1533	10075.2	9201
880.5459	1379.0096	9992.05	9114.7
880.6898	1380.8652	9957	9080.75
880.8337	1382.7201	9909.3	9032.4
880.9776	1384.5742	9854.95	8980.1
881.1215	1386.4275	9800.8	8924.55
881.2653	1388.2802	9753.05	8878.8
881.4092	1390.132	9709.45	8833.2
881.553	1391.9832	9707.7	8830
881.6968	1393.8336	9667.1	8791.25
881.8406	1395.6832	9641.3	8763.2
881.9844	1397.5322	9601.05	8724.3
882.1282	1399.3803	9567.7	8687.7
882.272	1401.2278	9501.95	8623.7
882.4158	1403.0745	9457.8	8581.8
882.5595	1404.9204	9413.85	8538
882.7033	1406.7656	9425.25	8548.7
882.847	1408.6101	9408.65	8531.2
882.9908	1410.4538	9371.3	8494.4
883.1345	1412.2968	9337	8463.05
883.2782	1414.139	9303.55	8428.25
883.4219	1415.9805	9303.2	8427.15
883.5656	1417.8213	9307.7	8411.8
883.7092	1419.6613	9275.3	8399.15
883.8529	1421.5006	9269.1	8390.65
883.9965	1423.3391	9248.25	8369.8
884.1402	1425.1769	9241.65	8362.95
884.2838	1427.0139	9285.9	8408.4
884.4274	1428.8502	9320.2	8441.85
884.571	1430.6858	9323.2	8446.6
884.7146	1432.5206	9307.05	8430.5
884.8582	1434.3547	9319.2	8441
885.0018	1436.188	9309.05	8429.85
885.1453	1438.0206	9279.25	8400
885.2889	1439.8524	9235.4	8361.4
885.4324	1441.6835	9236.7	8360.2
885.5759	1443.5139	9254.05	8373.6
885.7194	1445.3435	9190.6	8311.6
885.8629	1447.1724	9175.25	8300.1
886.0064	1449.0005	9157.8	8281.65
886.1499	1450.8279	9149.5	8270.05
886.2933	1452.6545	9118.55	8240
886.4368	1454.4804	9136.2	8260.3
886.5802	1456.3056	9124.2	8239.6
886.7237	1458.13	9076.5	8202.4
886.8671	1459.9536	9064.4	8187.85
887.0105	1461.7766	9039.3	8162.7
887.1539	1463.5987	8971.85	8094.1
887.2972	1465.4202	8935.5	8056.05
887.4406	1467.2409	8871.55	7994.15
887.584	1469.0608	8856.6	7980.65
887.7273	1470.88	8821.2	7942.7
887.8706	1472.6984	8792.4	7915.45
888.0139	1474.5161	8748.65	7868.05
888.1572	1476.3331	8714.4	7835.1
888.3005	1478.1493	8710.35	7832.6
888.4438	1479.9648	8708.55	7831.05
888.5871	1481.7795	8670.6	7792.65
888.7303	1483.5935	8652.15	7776.15
888.8736	1485.4067	8629.3	7753.25
889.0168	1487.2192	8610.45	7734.45
889.16	1489.031	8622.45	7742
889.3032	1490.842	8608.9	7732.4
889.4464	1492.6522	8603.7	7728.35
889.5896	1494.4618	8568.85	7688.45
889.7327	1496.2705	8547.85	7671.95
889.8759	1498.0785	8533.4	7655.9
890.019	1499.8858	8490.6	7613.25
890.1622	1501.6924	8499.5	7623.35
890.3053	1503.4981	8483.65	7605.1
890.4484	1505.3032	8434.9	7557.45
890.5914	1507.1075	8420.05	7542.75
890.7345	1508.911	8423.75	7545.95
890.8776	1510.7138	8370.5	7494.1
891.0206	1512.5159	8342.3	7463.1
891.1637	1514.3172	8295.15	7417.85
891.3067	1516.1178	8281.6	7404.85
891.4497	1517.9176	8277.1	7396.4
891.5927	1519.7166	8241.35	7363.6
891.7357	1521.515	8208.6	7323.55
891.8786	1523.3126	8200.2	7322.95
892.0216	1525.1094	8160.45	7282
892.1645	1526.9055	8138.8	7261.15
892.3074	1528.7008	8102.9	7226.25
892.4503	1530.4954	8082.55	7204.65
892.5932	1532.2893	8049.5	7175
892.7361	1534.0824	8003.6	7122.35
892.879	1535.8747	8005.4	7127.55
893.0218	1537.6663	7945.95	7068.75
893.1647	1539.4572	7941.1	7062.45
893.3075	1541.2473	7913.25	7034
893.4503	1543.0367	7886.4	7010.85
893.5931	1544.8253	7849.8	6967.8
893.7359	1546.6132	7849	6968.4
893.8787	1548.4003	7810.75	6923.1
894.0214	1550.1867	7823.4	6937.15
894.1642	1551.9723	7798.25	6916.85
894.3069	1553.7572	7810.8	6932.9
894.4496	1555.5414	7781.85	6906.85
894.5923	1557.3247	7769.15	6892.15
894.735	1559.1074	7752.75	6876.4
894.8777	1560.8893	7755.1	6878.8
895.0204	1562.6705	7758.3	6884.3
895.163	1564.4509	7745.9	6871.8
895.3056	1566.2305	7726.15	6848.95
895.4482	1568.0094	7738.25	6859.1
895.5908	1569.7876	7718.15	6843.4
895.7334	1571.565	7704.45	6825.9
895.876	1573.3417	7689	6812.3
896.0186	1575.1176	7664.05	6785.8
896.1611	1576.8928	7663.2	6785.5
896.3036	1578.6672	7619.25	6745.15
896.4461	1580.4409	7619.25	6746.1
896.5886	1582.2138	7605.15	6725.9
896.7311	1583.986	7613.05	6735.95
896.8736	1585.7575	7640.25	6764.05
897.0161	1587.5282	7643	6768.05
897.1585	1589.2981	7649.8	6775.65
897.3009	1591.0673	7615.45	6737.65
897.4433	1592.8358	7620.9	6744.85
897.5857	1594.6035	7591.15	6712.05
897.7281	1596.3704	7552.3	6675.1
897.8705	1598.1366	7524	6647.95
898.0128	1599.9021	7467.8	6592.6
898.1551	1601.6668	7414.65	6534.75
898.2975	1603.4308	7398.75	6520.45
898.4398	1605.194	7382.9	6502.6
898.5821	1606.9564	7380.75	6504.25
898.7243	1608.7182	7407.5	6528.1
898.8666	1610.4791	7419	6544.05
899.0088	1612.2394	7451.9	6577.3
899.1511	1613.9988	7500.8	6624.55
899.2933	1615.7576	7535.2	6660.7
899.4355	1617.5156	7588.65	6707
899.5776	1619.2728	7559.8	6683.15
899.7198	1621.0293	7459.1	6582.9
899.862	1622.785	7361.75	6482.65
900.0041	1624.54	7263.3	6383.5
900.1462	1626.2942	7176.05	6298.25
900.2883	1628.0477	7070.5	6190.15
900.4304	1629.8005	6973.95	6094.85
900.5725	1631.5525	6905.1	6029.9
900.7145	1633.3037	6855.45	5978.8
900.8566	1635.0542	6807.25	5930.75
900.9986	1636.804	6745.2	5868.95
901.1406	1638.553	6799.3	5843
901.2826	1640.3013	6728.6	5853.65
901.4245	1642.0488	6671.75	5793.75
901.5665	1643.7955	6632.4	5755.85
901.7085	1645.5416	6612.45	5733.9
901.8504	1647.2868	6587.7	5710.7
901.9923	1649.0313	6559.2	5681.3
902.1342	1650.7751	6533.9	5653.25
902.2761	1652.5181	6516.65	5641.9
902.4179	1654.2604	6479	5601.4
902.5598	1656.0019	6471.05	5594.05
902.7016	1657.7427	6459.55	5583.25
902.8434	1659.4828	6455.4	5581.8
902.9852	1661.222	6465.65	5587.6
903.127	1662.9606	6448.2	5572.9
903.2687	1664.6984	6467.7	5590.65
903.4105	1666.4354	6451.1	5572.7
903.5522	1668.1717	6428.15	5551.45
903.6939	1669.9072	6365.4	5488.6
903.8356	1671.642	6316.05	5437.15
903.9773	1673.3761	6278.55	5401.9
904.119	1675.1094	6248.25	5371.7
904.2606	1676.8419	6212.85	5336.3
904.4022	1678.5737	6172.5	5296.1
904.5439	1680.3048	6154.3	5278.25
904.6855	1682.0351	6115.95	5239.6
904.827	1683.7646	6081.35	5202.45
904.9686	1685.4934	6037.9	5162.5
905.1101	1687.2215	6016.35	5139.85
905.2517	1688.9488	5994	5118.15
905.3932	1690.6754	5977.75	5102.4
905.5347	1692.4012	5954	5078.1
905.6761	1694.1263	5944.9	5068.6
905.8176	1695.8506	5925.65	5046.25
905.9591	1697.5742	5918.2	5040.4
906.1005	1699.297	5888.65	5012.35
906.2419	1701.0191	5853.4	4975.15
906.3833	1702.7404	5831.15	4957.1
906.5246	1704.461	5778.5	4902.5
906.666	1706.1808	5772.7	4896.55
906.8073	1707.8999	5763.95	4886.35
906.9487	1709.6182	5749.45	4872.05
907.09	1711.3358	5734	4856.7
907.2313	1713.0527	5712.1	4836.95
907.3725	1714.7688	5694.45	4812.55
907.5138	1716.4841	5683.8	4805.75
907.655	1718.1987	5663.35	4781.55
907.7962	1719.9126	5644.15	4770.15
907.9374	1721.6257	5622.05	4744.15
908.0786	1723.338	5635.45	4756.95
908.2198	1725.0496	5603.7	4727.25
908.3609	1726.7605	5596	4717.45
908.502	1728.4706	5592.7	4715.45
908.6431	1730.18	5556.35	4677.35
908.7842	1731.8886	5553.05	4678.3
908.9253	1733.5964	5537.45	4655.1
909.0664	1735.3036	5522.35	4641.35
909.2074	1737.0099	5516.6	4641.05
909.3484	1738.7156	5521.55	4647.85
909.4894	1740.4204	5484.8	4606.3
909.6304	1742.1246	5473.9	4594.05
909.7714	1743.8279	5479	4601.65
909.9123	1745.5306	5467.25	4591
910.0532	1747.2325	5462.1	4587.1
910.1941	1748.9336	5468.6	4592
910.335	1750.634	5430	4549.2
910.4759	1752.3336	5450.75	4573.55
910.6168	1754.0325	5439.9	4566
910.7576	1755.7307	5410.4	4534.5
910.8984	1757.4281	5414	4537.4
911.0392	1759.1247	5431	4545.9
911.18	1760.8206	5413.3	4530.8
911.3208	1762.5158	5400.65	4519.2
911.4615	1764.2102	5371.35	4496.2
911.6022	1765.9039	5368.25	4490.35
911.7429	1767.5968	5366.2	4488.6
911.8836	1769.289	5349.3	4472.85
912.0243	1770.9804	5336.85	4458.05
912.1649	1772.6711	5316.7	4439.8
912.3056	1774.361	5322.55	4442.4
912.4462	1776.0502	5297.2	4422.2
912.5868	1777.7386	5296.2	4415.45
912.7274	1779.4263	5293.45	4416.95
912.8679	1781.1132	5272.85	4394.65
913.0084	1782.7994	5254.5	4375.55
913.149	1784.4849	5271.7	4394.2
913.2895	1786.1696	5263.6	4367.35
913.4299	1787.8535	5235.9	4360.85
913.5704	1789.5367	5206.5	4329.35
913.7108	1791.2192	5196.8	4319.15
913.8513	1792.9009	5202.1	4294
913.9917	1794.5818	5177.3	4299.65
914.132	1796.2621	5163.05	4287.95
914.2724	1797.9415	5147.85	4268.85
914.4128	1799.6202	5135.9	4258.8
914.5531	1801.2982	5131.95	4256.6
914.6934	1802.9755	5123.7	4245.6
914.8337	1804.6519	5105.3	4229.6
914.9739	1806.3277	5093	4218.3
915.1142	1808.0027	5088.75	4214.2
915.2544	1809.6769	5066.8	4190.35
915.3946	1811.3504	5072.2	4193.3
915.5348	1813.0231	5062.05	4185.05
915.675	1814.6951	5058.5	4180.95
915.8151	1816.3664	5041.75	4163.45
915.9553	1818.0369	5039.8	4162
916.0954	1819.7067	5009.35	4134.15
916.2355	1821.3757	5007.95	4130.25
916.3755	1823.044	5016.05	4140.35
916.5156	1824.7115	4998.55	4120.55
916.6556	1826.3783	4968.7	4092.6
916.7956	1828.0443	4961.4	4085.8
916.9356	1829.7096	4947.55	4069.05
917.0756	1831.3741	4960.55	4080.55
917.2155	1833.0379	4952.2	4075.15
917.3555	1834.701	4925.2	4047
917.4954	1836.3633	4908.9	4033.2
917.6353	1838.0248	4898.95	4018.95
917.7751	1839.6856	4901.3	4025.4
917.915	1841.3457	4899.4	4023.25
918.0548	1843.005	4889.25	4012.9
918.1946	1844.6636	4876.5	3998.15
918.3344	1846.3214	4859.05	3981.8
918.4742	1847.9785	4864.6	3989.65
918.6139	1849.6349	4847.2	3966.85
918.7537	1851.2904	4837.9	3951.6
918.8934	1852.9453	4838.55	3960.75
919.0331	1854.5994	4822.05	3943.7
919.1727	1856.2528	4822.6	3939.35
919.3124	1857.9054	4803.6	3927.15
919.452	1859.5572	4795.85	3920.45
919.5916	1861.2083	4784.05	3905.2
919.7312	1862.8587	4787.35	3909.3
919.8708	1864.5084	4777.65	3901.7
920.0103	1866.1572	4753.15	3878.1
920.1498	1867.8054	4739.55	3862.6
920.2893	1869.4528	4758.35	3880.75
920.4288	1871.0994	4718.2	3840.3
920.5683	1872.7453	4706.4	3828.75
920.7077	1874.3905	4717.25	3834.5
920.8471	1876.0349	4692.15	3815.65
920.9865	1877.6786	4695.4	3817.45
921.1259	1879.3215	4701	3824.95
921.2653	1880.9637	4683.5	3805.4
921.4046	1882.6051	4672.75	3796.4
921.5439	1884.2458	4674.45	3794.25
921.6832	1885.8858	4649.95	3773.65
921.8225	1887.525	4651.35	3773.85
921.9617	1889.1634	4631.7	3755.95
922.101	1890.8011	4602.6	3725.1
922.2402	1892.4381	4618.5	3742.25
922.3794	1894.0743	4604.7	3728.6
922.5185	1895.7098	4598.85	3720.45
922.6577	1897.3446	4582.25	3703.05
922.7968	1898.9786	4588.3	3706.4
922.9359	1900.6118	4581.4	3704.65
923.075	1902.2443	4564.9	3686.15
923.214	1903.8761	4552.05	3676.85
923.3531	1905.5071	4526.75	3649.05
923.4921	1907.1374	4520.75	3643.2
923.6311	1908.7669	4511.8	3634.2
923.77	1910.3957	4497.05	3620.1
923.909	1912.0237	4479.55	3601.8
924.0479	1913.651	4479.8	3603.35
924.1868	1915.2776	4476.4	3601.8
924.3257	1916.9034	4450	3574.5
924.4646	1918.5285	4447.8	3570.55
924.6034	1920.1528	4438.4	3560.25
924.7422	1921.7764	4427.9	3550.3
924.881	1923.3992	4401.15	3524.55
925.0198	1925.0213	4368.15	3491.9
925.1586	1926.6427	4376.85	3500.25
925.2973	1928.2633	4533.85	3436.9
925.436	1929.8832	4394.9	3514.25
925.5747	1931.5023	4333.25	3458.85
925.7134	1933.1207	4343.75	3465.1
925.852	1934.7383	4330.9	3453.25
925.9906	1936.3552	4298.25	3422.85
926.1292	1937.9714	4317.2	3439.05
926.2678	1939.5868	4298.75	3421.65
926.4064	1941.2015	4279.1	3401.1
926.5449	1942.8154	4268.9	3393.35
926.6834	1944.4286	4248.85	3369.4
926.8219	1946.041	4264.9	3365.15
926.9604	1947.6528	4235.65	3355.2
927.0988	1949.2637	4224.65	3346.8
927.2372	1950.8739	4212.05	3334.65
927.3756	1952.4834	4213.8	3335.75
927.514	1954.0921	4211.45	3332.55
927.6523	1955.7001	4200.8	3319.4
927.7907	1957.3074	4181.8	3307.15
927.929	1958.9139	4158.9	3283.3
928.0673	1960.5197	4172.65	3295.8
928.2055	1962.1247	4160.4	3283.35
928.3438	1963.729	4132.4	3256.45
928.482	1965.3325	4139.55	3240.65
928.6202	1966.9353	4115.4	3238.85
928.7584	1968.5374	4109.15	3231.7
928.8965	1970.1387	4101	3221.3
929.0346	1971.7393	4090.15	3213.05
929.1727	1973.3392	4081.75	3207.3
929.3108	1974.9383	4076.8	3202
929.4489	1976.5366	4058.4	3182.4
929.5869	1978.1342	4062.35	3184.75
929.7249	1979.7311	4056.6	3178.95
929.8629	1981.3273	4033.95	3158.9
930.0009	1982.9227	4035.1	3157.95
930.1388	1984.5173	4016.2	3140.5
930.2767	1986.1112	4001	3123.75
930.4146	1987.7044	4018.1	3142.7
930.5525	1989.2968	3990.8	3112.95
930.6904	1990.8885	3980.15	3100.9
930.8282	1992.4795	3986.4	3107.5
930.966	1994.0697	3992.4	3118.1
931.1038	1995.6592	3972.8	3097.1
931.2415	1997.2479	3962.85	3088.2
931.3793	1998.8359	3945.05	3070
931.517	2000.4232	3950.25	3076.3
931.6547	2002.0097	3933.9	3059.3
931.7923	2003.5955	3915.5	3039.1
931.93	2005.1805	3903.25	3026.7
932.0676	2006.7648	3912.2	3034.7
932.2052	2008.3484	3896.8	3019.45
932.3427	2009.9312	3917.95	3040.6
932.4803	2011.5133	3889.9	3015
932.6178	2013.0946	3889.5	3014.8
932.7553	2014.6752	3877.55	3005.2
932.8928	2016.2551	3882.7	3005.5
933.0302	2017.8342	3857.45	2980.6
933.1676	2019.4126	3847.8	2973.25
933.305	2020.9902	3839.5	2963.9
933.4424	2022.5672	3844.75	2966
933.5798	2024.1433	3838.3	2959.2
933.7171	2025.7188	3814.95	2940.25
933.8544	2027.2935	3809.2	2932.65
933.9917	2028.8674	3798.55	2922.6
934.129	2030.4406	3792.7	2917.8
934.2662	2032.0131	3783.3	2907.1
934.4034	2033.5849	3770.75	2891.6
934.5406	2035.1559	3781.2	2908.3
934.6778	2036.7261	3763.2	2888.35
934.8149	2038.2957	3777.55	2902.9
934.952	2039.8645	3767.1	2892.1
935.0891	2041.4325	3764	2884.2
935.2262	2042.9998	3734.1	2859.15
935.3632	2044.5664	3749.95	2873.25
935.5002	2046.1323	3732	2855.65
935.6372	2047.6974	3726.85	2852.5
935.7742	2049.2617	3730.6	2857
935.9111	2050.8254	3732.5	2851.15
936.048	2052.3883	3723	2845.9
936.1849	2053.9504	3708.25	2831.25
936.3218	2055.5118	3711.8	2835.7
936.4586	2057.0725	3697.9	2817.55
936.5955	2058.6325	3689.25	2814.75
936.7323	2060.1917	3669.45	2796.75
936.869	2061.7502	3692.2	2814.6
937.0058	2063.3079	3681	2806.35
937.1425	2064.8649	3675.85	2795.8
937.2792	2066.4212	3665.85	2789
937.4159	2067.9767	3672.45	2797.75
937.5525	2069.5315	3648.8	2772.75
937.6891	2071.0856	3640.1	2764.2
937.8257	2072.6389	3634.8	2758.6
937.9623	2074.1915	3624.25	2750.5
938.0989	2075.7433	3618.15	2740.3
938.2354	2077.2945	3611.9	2738
938.3719	2078.8448	3598.35	2722.95
938.5084	2080.3945	3588.75	2714.05
938.6448	2081.9434	3583.4	2709.55
938.7812	2083.4916	3593.6	2719.05
938.9176	2085.039	3583.15	2704.95
939.054	2086.5857	3579.65	2703.2
939.1903	2088.1317	3579.35	2701.25
939.3267	2089.677	3555.2	2678.75
939.463	2091.2215	3546.7	2669.05
939.5992	2092.7652	3557.55	2681
939.7355	2094.3083	3555.4	2680.15
939.8717	2095.8506	3561.35	2686.2
940.0079	2097.3921	3551.3	2676.8
940.1441	2098.933	3539.25	2666.05
940.2802	2100.4731	3534.2	2659.1
940.4163	2102.0124	3546.2	2652.7
940.5524	2103.5511	3530.1	2655.95
940.6885	2105.089	3513.3	2635.9
940.8245	2106.6261	3521.9	2646.15
940.9606	2108.1626	3509	2632.2
941.0965	2109.6983	3547.15	2641.35
941.2325	2111.2332	3513.3	2638.2
941.3684	2112.7675	3513.15	2637.45
941.5044	2114.301	3492.1	2616.45
941.6403	2115.8337	3497.4	2620.5
941.7761	2117.3657	3494.1	2618.85
941.912	2118.897	3495.55	2619.25
942.0478	2120.4276	3495.2	2611.6
942.1835	2121.9575	3477.4	2603.2
942.3193	2123.4866	3478.8	2599.9
942.455	2125.0149	3468.2	2589.8
942.5907	2126.5426	3450.95	2574.3
942.7264	2128.0695	3447.9	2567.8
942.8621	2129.5956	3439.85	2566.35
942.9977	2131.1211	3433.5	2553.65
943.1333	2132.6458	3435.8	2560.4
943.2689	2134.1698	3438.25	2564.15
943.4044	2135.693	3418.6	2539.85
943.54	2137.2155	3417.6	2540.8
943.6755	2138.7373	3405.45	2528.85
943.8109	2140.2584	3407.3	2530.65
943.9464	2141.7787	3402.5	2523.4
944.0818	2143.2983	3383.7	2509.95
944.2172	2144.8171	3385.55	2511.45
944.3526	2146.3353	3365.75	2488.8
944.4879	2147.8527	3361.25	2484.3
944.6232	2149.3693	3359.8	2482.55
944.7585	2150.8853	3351.95	2474.8
944.8938	2152.4005	3347.45	2472.65
945.029	2153.9149	3343.9	2468.55
945.1642	2155.4287	3334.55	2458.2
945.2994	2156.9417	3338.05	2461.65
945.4346	2158.454	3333.45	2455
945.5697	2159.9655	3337.85	2462.1
945.7048	2161.4764	3313.1	2436.75
945.8399	2162.9865	3313.65	2437.15
945.9749	2164.4958	3307.1	2428.6
946.1099	2166.0045	3295.7	2415.7
946.2449	2167.5124	3283.5	2407.45
946.3799	2169.0195	3280.7	2403.25
946.5148	2170.526	3282.95	2406.35
946.6498	2172.0317	3269.6	2391.8
946.7846	2173.5367	3277.2	2400.85
946.9195	2175.0409	3274.45	2400.55
947.0543	2176.5445	3266.6	2390.75
947.1891	2178.0473	3262.7	2387.8
947.3239	2179.5494	3245.3	2365.25
947.4587	2181.0507	3247.65	2371.25
947.5934	2182.5513	3234.2	2358.95
947.7281	2184.0512	3245.35	2370
947.8628	2185.5504	3223.2	2347.15
947.9974	2187.0488	3207.45	2332
948.132	2188.5465	3199.8	2323.35
948.2666	2190.0435	3193.3	2318.25
948.4012	2191.5397	3193.2	2317.8
948.5357	2193.0353	3197.4	2322.3
948.6702	2194.5301	3175.75	2299.05
948.8047	2196.0241	3167.95	2292.25
948.9392	2197.5175	3158.75	2281.8
949.0736	2199.0101	3153.25	2275.3
949.208	2200.502	3141.8	2266.95
949.3424	2201.9931	3133	2256
949.4767	2203.4835	3137.5	2261.4
949.611	2204.9733	3135.45	2253.95
949.7453	2206.4622	3126.35	2253.45
949.8796	2207.9505	3117	2239.3
950.0138	2209.438	3092.2	2217.2
950.148	2210.9248	3087.85	2209.8
950.2822	2212.4109	3078.95	2203.3
950.4164	2213.8962	3081.1	2201.95
950.5505	2215.3809	3089.25	2211.65
950.6846	2216.8648	3070.95	2194.4
950.8186	2218.3479	3068.4	2187.55
950.9527	2219.8304	3065.15	2186.6
951.0867	2221.3121	3056.5	2178.85
951.2207	2222.7931	3046.85	2170.6
951.3546	2224.2733	3028.5	2151.25
951.4886	2225.7529	3019.05	2142.05
951.6225	2227.2317	3015.05	2137.1
951.7563	2228.7098	3028.25	2154.4
951.8902	2230.1872	3022.8	2146.95
952.024	2231.6638	3006.1	2129.9
952.1578	2233.1397	3002.45	2122.15
952.2916	2234.6149	3004.8	2129.8
952.4253	2236.0894	2985.85	2109.3
952.559	2237.5632	2991.55	2106.15
952.6927	2239.0362	2973.7	2098.35
952.8263	2240.5085	2977.3	2102.55
952.9599	2241.9801	2962.6	2086.4
953.0935	2243.4509	2947.6	2071.9
953.2271	2244.921	2938.6	2063.4
953.3606	2246.3904	2934.35	2057
953.4941	2247.8591	2928.1	2055.55
953.6276	2249.3271	2914.9	2040.4
953.7611	2250.7943	2919.3	2043.45
953.8945	2252.2608	2920.85	2046.75
954.0279	2253.7266	2906.6	2030.8
954.1612	2255.1917	2907.2	2030.7
954.2946	2256.656	2900.15	2023.45
954.4279	2258.1197	2880.25	2005.6
954.5612	2259.5826	2886.55	2009.1
954.6944	2261.0447	2878.65	2002.3
954.8276	2262.5062	2871.2	1992.9
954.9608	2263.9669	2874.2	1994.9
955.094	2265.4269	2867.9	1992.75
955.2271	2266.8862	2859.8	1986.4
955.3602	2268.3448	2861.4	1985.05
955.4933	2269.8026	2855.2	1978.9
955.6264	2271.2598	2842.35	1966.1
955.7594	2272.7162	2842.1	1967.4
955.8924	2274.1719	2839.1	1965.6
956.0253	2275.6268	2821.7	1948.15
956.1583	2277.0811	2818.15	1941.05
956.2912	2278.5346	2819.1	1943.95
956.4241	2279.9874	2823.55	1947.1
956.5569	2281.4395	2809.65	1935.25
956.6897	2282.8908	2799.3	1920
956.8225	2284.3414	2792.75	1915.5
956.9553	2285.7914	2786.1	1910.5
957.088	2287.2406	2777.65	1900.45
957.2207	2288.689	2777.1	1900.95
957.3534	2290.1368	2775.2	1898.45
957.486	2291.5838	2759.3	1881.2
957.6186	2293.0302	2769.45	1894.2
957.7512	2294.4758	2749.35	1873.75
957.8838	2295.9206	2755.75	1876.35
958.0163	2297.3648	2743.15	1868.45
958.1488	2298.8082	2744.9	1868.95
958.2813	2300.251	2725.45	1851.35
958.4137	2301.693	2720.8	1843.9
958.5461	2303.1343	2727	1849.75
958.6785	2304.5748	2718.15	1842.6
958.8108	2306.0147	2701.85	1825.75
958.9432	2307.4538	2705.1	1828.5
959.0754	2308.8922	2689.1	1814.75
959.2077	2310.3299	2691.95	1816.85
959.3399	2311.7669	2681.3	1806.2
959.4721	2313.2031	2675.6	1799.8
959.6043	2314.6387	2668.25	1791.75
959.7365	2316.0735	2669.75	1795.4
959.8686	2317.5076	2673.4	1795.05
960.0006	2318.941	2660.45	1783.05
960.1327	2320.3737	2651.8	1775.8
960.2647	2321.8056	2655.35	1778.6
960.3967	2323.2369	2647.3	1770.8
960.5287	2324.6674	2646.55	1770.75
960.6606	2326.0972	2642.85	1767.05
960.7925	2327.5263	2622.7	1747.8
960.9244	2328.9547	2634.65	1757.05
961.0562	2330.3823	2624.9	1748.45
961.1881	2331.8092	2623.25	1744.75
961.3198	2333.2355	2597.5	1721.85
961.4516	2334.661	2610.8	1733.55
961.5833	2336.0858	2597.95	1718.5
961.715	2337.5098	2594	1717.6
961.8467	2338.9332	2585.8	1711.05
961.9783	2340.3558	2587.6	1707.3
962.1099	2341.7778	2580.55	1704.1
962.2415	2343.199	2569.7	1692.2
962.373	2344.6195	2568.95	1692.9
962.5045	2346.0393	2555.55	1677.6
962.636	2347.4583	2557.55	1681.9
962.7675	2348.8767	2548.05	1669.15
962.8989	2350.2943	2554.75	1677.25
963.0303	2351.7113	2539.5	1662.05
963.1617	2353.1275	2526.4	1648.8
963.293	2354.543	2537.95	1653.7
963.4243	2355.9578	2521.55	1645.2
963.5556	2357.3718	2510.65	1635.1
963.6868	2358.7852	2507.45	1629
963.818	2360.1978	2495.9	1620.15
963.9492	2361.6098	2496.4	1621.2
964.0803	2363.021	2478.6	1597.85
964.2114	2364.4315	2480.2	1605.25
964.3425	2365.8413	2487.1	1602.95
964.4736	2367.2504	2474.45	1599
964.6046	2368.6587	2455.1	1578.3
964.7356	2370.0664	2453.45	1577.15
964.8666	2371.4733	2453.5	1578.15
964.9975	2372.8795	2447.6	1570.65
965.1284	2374.285	2442.3	1564.85
965.2593	2375.6899	2434.3	1558.75
965.3901	2377.0939	2428.7	1552.65
965.5209	2378.4973	2422.6	1547.8
965.6517	2379.9	2405.3	1527.7
965.7825	2381.3019	2413.55	1538.55
965.9132	2382.7032	2384.9	1507.6
966.0439	2384.1037	2399.3	1524.2
966.1745	2385.5035	2395.8	1519.35
966.3051	2386.9027	2390.55	1513.05
966.4357	2388.3011	2377.05	1496.5
966.5663	2389.6987	2373.8	1496.3
966.6968	2391.0957	2363.1	1486.5
966.8273	2392.492	2359.1	1481.9
966.9578	2393.8876	2353.4	1476.8
967.0882	2395.2824	2344.35	1469.2
967.2186	2396.6765	2343.5	1468
967.349	2398.07	2342.1	1465.95
967.4793	2399.4627	2327.8	1450.55
967.6097	2400.8547	2322.35	1444.85
967.7399	2402.246	2320.25	1436.05
967.8702	2403.6366	2323.75	1448.45
968.0004	2405.0265	2308.35	1432.75
968.1306	2406.4156	2310.25	1426.55
968.2607	2407.8041	2296.85	1417.05
968.3909	2409.1918	2288.55	1410.3
968.521	2410.5789	2283.65	1406.85
968.651	2411.9652	2269.9	1391.05
968.781	2413.3508	2271.4	1393.6
968.911	2414.7358	2256.95	1380.9
969.041	2416.12	2263.55	1388.45
969.1709	2417.5035	2264.1	1387.8
969.3008	2418.8863	2244.2	1366.1
969.4307	2420.2684	2248.65	1371.3
969.5606	2421.6497	2242.85	1366.3
969.6904	2423.0304	2230.3	1354.75
969.8201	2424.4104	2223.95	1347.1
969.9499	2425.7896	2230.35	1351
970.0796	2427.1682	2210.8	1333.9
970.2093	2428.546	2217.6	1339.65
970.3389	2429.9232	2211.2	1334.15
970.4685	2431.2996	2206	1330.75
970.5981	2432.6753	2202.35	1326.8
970.7277	2434.0503	2204.7	1327.1
970.8572	2435.4246	2196.4	1320.45
970.9867	2436.7982	2188.3	1307.2
971.1161	2438.1711	2188.85	1313.5
971.2456	2439.5433	2179.4	1302.7
971.375	2440.9148	2174.8	1293.25
971.5043	2442.2856	2164.95	1288.45
971.6336	2443.6557	2163.65	1284.45
971.7629	2445.025	2159.65	1283.85
971.8922	2446.3937	2158.9	1281.85
972.0214	2447.7617	2155.45	1279
972.1506	2449.1289	2146.05	1268.9
972.2798	2450.4955	2139.45	1256.85
972.4089	2451.8613	2147.2	1273.65
972.538	2453.2265	2133.55	1257.9
972.6671	2454.5909	2130.7	1252.1
972.7961	2455.9546	2127	1250.35
972.9251	2457.3177	2127	1248.95
973.0541	2458.68	2124.45	1245
973.1831	2460.0416	2123	1246.75
973.312	2461.4025	2121.05	1242.6
973.4408	2462.7627	2125.6	1238.7
973.5697	2464.1222	2103.8	1229.25
973.6985	2465.4811	2096.25	1217.1
973.8273	2466.8392	2100	1222.75
973.956	2468.1966	2093.25	1213.5
974.0847	2469.5533	2108.45	1230.3
974.2134	2470.9093	2094.55	1216.7
974.3421	2472.2645	2086.75	1207.45
974.4707	2473.6191	2085.4	1210
974.5993	2474.973	2072.8	1196.25
974.7278	2476.3262	2073.1	1193.95
974.8563	2477.6787	2079.55	1203.7
974.9848	2479.0305	2063.6	1187.35
975.1132	2480.3816	2055.55	1177.8
975.2417	2481.7319	2050.5	1173.4
975.37	2483.0816	2042.85	1163.6
975.4984	2484.4306	2043.95	1166.6
975.6267	2485.7789	2036.95	1159.7
975.755	2487.1264	2038.9	1161
975.8833	2488.4733	2032.05	1155.85
976.0115	2489.8195	2030.45	1147.25
976.1397	2491.165	2029.45	1151.7
976.2678	2492.5097	2024	1146.9
976.3959	2493.8538	2011.9	1136.2
976.524	2495.1972	2000.45	1123.95
976.6521	2496.5398	2006.65	1127.95
976.7801	2497.8818	2001.85	1124.75
976.9081	2499.2231	2004.05	1127.35
977.036	2500.5637	1990.85	1113.25
977.164	2501.9035	1990.2	1112.65
977.2918	2503.2427	1988.2	1107.05
977.4197	2504.5812	1979.15	1101.25
977.5475	2505.919	1968.15	1089.1
977.6753	2507.256	1971.2	1094.65
977.8031	2508.5924	1970.7	1094.6
977.9308	2509.9281	1968	1084.85
978.0585	2511.2631	1973.2	1096.65
978.1861	2512.5974	1956.2	1079.5
978.3137	2513.9309	1962.9	1086.7
978.4413	2515.2638	1967	1061.35
978.5689	2516.596	1933.95	1059.5
978.6964	2517.9275	1938.6	1059.4
978.8239	2519.2583	1934.1	1055.9
978.9513	2520.5884	1930.15	1049.85
979.0788	2521.9178	1929.25	1052.2
979.2062	2523.2465	1921.15	1046.9
979.3335	2524.5745	1910.7	1036.35
979.4608	2525.9018	1912.55	1035.25
979.5881	2527.2284	1910.5	1036.95
979.7154	2528.5543	1918.6	1042.6
979.8426	2529.8796	1905.65	1028.8
979.9698	2531.2041	1901.1	1024.65
980.0969	2532.5279	1901.3	1024.4
980.224	2533.851	1891.65	1015.95
980.3511	2535.1735	1881.6	1006.65
980.4781	2536.4952	1885.5	1010.3
980.6052	2537.8163	1887.65	1012.8
980.7321	2539.1366	1880.35	1007.25
980.8591	2540.4562	1869.05	991.85
980.986	2541.7752	1876	999.95
981.1129	2543.0935	1878.6	1001
981.2397	2544.411	1877.9	1001
981.3665	2545.7279	1872.75	997.8
981.4933	2547.0441	1860.6	984.65
981.62	2548.3596	1869.35	990.1
981.7467	2549.6744	1869.25	992.2
981.8734	2550.9885	1859.15	975.65
982.0001	2552.3019	1858.75	980.7
982.1267	2553.6146	1848.6	973.7
982.2532	2554.9266	1851	973.75
982.3798	2556.2379	1839.8	963.1
982.5063	2557.5485	1845.3	968.35
982.6327	2558.8585	1841.8	958.7
982.7592	2560.1677	1851.4	970.05
982.8856	2561.4762	1836.15	960.75
983.0119	2562.7841	1833.25	951.7
983.1383	2564.0913	1827.55	953.35
983.2646	2565.3977	1819.4	942.5
983.3908	2566.7035	1817.25	941.05
983.517	2568.0086	1820.5	940.65
983.6432	2569.313	1822.75	946.25
983.7694	2570.6167	1815.4	935.8
983.8955	2571.9197	1817.9	942.25
984.0216	2573.222	1813.5	933.4
984.1476	2574.5236	1805.6	929.2
984.2737	2575.8246	1801.75	923.85
984.3996	2577.1248	1805.3	926.25
984.5256	2578.4244	1800.9	924.85
984.6515	2579.7232	1789.8	914.55
984.7774	2581.0214	1817.15	915.9
984.9032	2582.3189	1804.7	928.3
985.029	2583.6157	1792.65	911.25
985.1548	2584.9118	1795.4	917.4
985.2806	2586.2072	1784.35	908
985.4063	2587.5019	1792	918.05
985.5319	2588.7959	1781.9	905.35
985.6576	2590.0893	1773.7	896.5
985.7832	2591.3819	1778.65	904.2
985.9087	2592.6739	1774.2	899.9
986.0343	2593.9652	1765.1	888.25
986.1597	2595.2557	1761.95	886.6
986.2852	2596.5456	1769.45	889.5
986.4106	2597.8348	1762.45	885.35
986.536	2599.1234	1743.95	867.85
986.6614	2600.4112	1747.4	870.95
986.7867	2601.6983	1750.4	870.55
986.912	2602.9848	1739.7	866.05
987.0372	2604.2705	1741.65	856.4
987.1624	2605.5556	1730.9	853.75
987.2876	2606.84	1727.9	850.95
987.4128	2608.1237	1730.55	849.3
987.5379	2609.4067	1725.55	847
987.6629	2610.689	1726.05	840.85
987.788	2611.9707	1719.75	838
987.913	2613.2516	1715.5	834.4
988.0379	2614.5319	1701.4	824.05
988.1629	2615.8115	1704.2	828.6
988.2878	2617.0903	1694.5	818.5
988.4126	2618.3685	1697.15	820.3
988.5375	2619.6461	1690.6	814
988.6622	2620.9229	1684.45	806.3
988.787	2622.199	1694.35	817.1
988.9117	2623.4745	1686.05	807.65
989.0364	2624.7493	1678.75	802.8
989.161	2626.0234	1670.5	797.7
989.2857	2627.2968	1669.1	792.55
989.4102	2628.5695	1674.45	797.4
989.5348	2629.8415	1660.7	783.75
989.6593	2631.1128	1669.2	790.1
989.7837	2632.3835	1661.2	785.45
989.9082	2633.6535	1655.1	778.9
990.0326	2634.9228	1656.05	778.6
990.1569	2636.1914	1649.6	772.4
990.2812	2637.4593	1652.1	769.65
990.4055	2638.7265	1640.75	764.25
990.5298	2639.9931	1642.45	765.35
990.654	2641.259	1634.85	757.1
990.7782	2642.5242	1637.3	759.25
990.9023	2643.7887	1632.95	757.5
991.0264	2645.0525	1631.85	755.95
991.1505	2646.3156	1625	747.05
991.2745	2647.5781	1617.3	740.25
991.3985	2648.8398	1624	748.75
991.5225	2650.1009	1621.1	737.1
991.6464	2651.3613	1620.05	745
991.7703	2652.6211	1615.55	739.45
991.8942	2653.8801	1602.95	726.6
992.018	2655.1385	1603.3	724.9
992.1418	2656.3961	1600.65	723.7
992.2655	2657.6531	1601	725.7
992.3892	2658.9094	1604.15	728.1
992.5129	2660.1651	1598.7	724.05
992.6366	2661.42	1599.3	722.85
992.7602	2662.6743	1593.5	716.8
992.8837	2663.9279	1590.6	713.8
993.0073	2665.1808	1594.4	715.9
993.1307	2666.433	1585.55	706.15
993.2542	2667.6846	1580.2	705
993.3776	2668.9354	1573.75	694.25
993.501	2670.1856	1571.55	694.35
993.6244	2671.4351	1572.2	697
993.7477	2672.6839	1578.15	700.25
993.8709	2673.9321	1568.85	692.2
993.9942	2675.1795	1569.85	692.5
994.1174	2676.4263	1570.1	693.2
994.2405	2677.6724	1565.5	689.6
994.3637	2678.9179	1560.35	684.35
994.4868	2680.1626	1554.4	679.7
994.6098	2681.4067	1554.9	676.9
994.7328	2682.6501	1551.6	675.9
994.8558	2683.8928	1555.4	680.1
994.9788	2685.1348	1550.4	675.6
995.1017	2686.3761	1537.3	661.75
995.2245	2687.6168	1542.05	666.5
995.3474	2688.8568	1535.45	658.9
995.4702	2690.0961	1539	662.45
995.5929	2691.3348	1532.6	655.05
995.7156	2692.5727	1528.15	650.35
995.8383	2693.81	1530.45	654.55
995.961	2695.0466	1528.2	651.85
996.0836	2696.2826	1536.3	658.4
996.2062	2697.5178	1539.3	643.75
996.3287	2698.7524	1514.25	639.05
996.4512	2699.9863	1513.45	635.85
996.5737	2701.2195	1508.45	632.6
996.6961	2702.452	1521.45	643.35
996.8185	2703.6839	1512.7	636.85
996.9408	2704.9151	1500.6	624.65
997.0631	2706.1456	1506.4	628.3
997.1854	2707.3755	1501.25	622.9
997.3077	2708.6046	1501.25	623.4
997.4299	2709.8331	1499.45	622.9
997.552	2711.0609	1502.6	625.55
997.6742	2712.2881	1489.5	612.85
997.7963	2713.5145	1489.2	611.6
997.9183	2714.7403	1486.5	611.3
998.0403	2715.9654	1484.4	607.9
998.1623	2717.1899	1507.35	615.8
998.2842	2718.4136	1490.25	615.3
998.4062	2719.6367	1485.8	608.25
998.528	2720.8591	1488.25	607.05
998.6498	2722.0809	1485.35	608.75
998.7716	2723.3019	1477.45	597.5
998.8934	2724.5223	1472.8	596.15
999.0151	2725.7421	1471.85	595.4
999.1368	2726.9611	1460.3	583.85
999.2584	2728.1795	1464	581.65
999.38	2729.3972	1459.8	585.55
999.5016	2730.6142	1466.1	575.2
999.6231	2731.8306	1452.55	573.65
999.7446	2733.0462	1451.4	572.5
999.8661	2734.2612	1460.3	578.55
999.9875	2735.4756	1448.05	570.5
1000.1089	2736.6892	1441.25	563.65
1000.2302	2737.9022	1440.75	565.9
1000.3515	2739.1145	1435.1	561.25
1000.4728	2740.3262	1437.4	554.1
1000.594	2741.5372	1430.05	555.8
1000.7152	2742.7475	1428.6	552.3
1000.8363	2743.9571	1423.75	547.6
1000.9575	2745.1661	1421.05	540.4
1001.0785	2746.3744	1421.7	543.9
1001.1996	2747.582	1420.5	544.2
1001.3206	2748.7889	1418.35	541.35
1001.4415	2749.9952	1412.15	535.7
1001.5625	2751.2008	1411.35	534.5
1001.6833	2752.4057	1398.8	519.05
1001.8042	2753.61	1411.1	533.5
1001.925	2754.8136	1403.45	525.8
1002.0458	2756.0165	1400.9	525.05
1002.1665	2757.2188	1400.15	526.3
1002.2872	2758.4204	1393.65	518.3
1002.4078	2759.6213	1398.2	521.05
1002.5285	2760.8215	1396.9	517.7
1002.649	2762.0211	1391.5	513.75
1002.7696	2763.22	1384.8	504.75
1002.8901	2764.4182	1381.85	503.4
1003.0106	2765.6158	1383	506.6
1003.131	2766.8127	1390.25	513.85
1003.2514	2768.009	1375.05	500.95
1003.3717	2769.2045	1386.55	509.7
1003.492	2770.3994	1376.75	497.85
1003.6123	2771.5936	1374.25	499.85
1003.7325	2772.7872	1376.85	501.45
1003.8527	2773.9801	1360.3	482.5
1003.9729	2775.1723	1387.6	494
1004.093	2776.3639	1359.45	484.55
1004.2131	2777.5548	1359.5	481.5
1004.3331	2778.745	1363.85	486.45
1004.4531	2779.9346	1362.5	487.8
1004.5731	2781.1235	1358.9	481.1
1004.693	2782.3117	1352.9	477.15
1004.8129	2783.4992	1357.95	481.8
1004.9328	2784.6861	1341.4	465.3
1005.0526	2785.8723	1354.4	477
1005.1723	2787.0579	1348.05	472.5
1005.2921	2788.2428	1348.45	473.35
1005.4118	2789.427	1343.35	467.9
1005.5314	2790.6106	1335.25	459.75
1005.651	2791.7935	1340.3	463
1005.7706	2792.9757	1332.9	457.95
1005.8902	2794.1573	1345.15	466.9
1006.0097	2795.3382	1338.85	463.25
1006.1291	2796.5184	1327.2	452.45
1006.2485	2797.698	1335.5	458.15
1006.3679	2798.8769	1327.55	451.5
1006.4873	2800.0551	1333.1	457.85
1006.6066	2801.2327	1330.55	454
1006.7258	2802.4096	1323.45	447.1
1006.8451	2803.5859	1321.15	442.85
1006.9642	2804.7615	1316.2	439.3
1007.0834	2805.9364	1319.7	444.5
1007.2025	2807.1106	1316.65	441.35
1007.3216	2808.2842	1319.05	441.6
1007.4406	2809.4572	1315.2	440.3
1007.5596	2810.6294	1310.2	432.85
1007.6785	2811.801	1313.35	439.6
1007.7975	2812.972	1309.5	432.9
1007.9163	2814.1423	1310.35	434.4
1008.0352	2815.3119	1317.65	440.85
1008.154	2816.4808	1308.2	431.85
1008.2727	2817.6491	1316.65	438.6
1008.3914	2818.8167	1308.65	433.5
1008.5101	2819.9837	1316	433.05
1008.6288	2821.15	1318.65	442.35
1008.7474	2822.3157	1319.9	443.85
1008.8659	2823.4807	1327.1	449.65
1008.9844	2824.645	1326.85	449.3
1009.1029	2825.8086	1329.95	454.2
1009.2214	2826.9716	1340.75	465.35
1009.3398	2828.134	1342.65	464.95
1009.4581	2829.2957	1342.65	467.45
1009.5764	2830.4567	1348.25	472.4
1009.6947	2831.617	1348.6	472.1
1009.813	2832.7767	1352.3	477.05
1009.9312	2833.9358	1353.15	479.55
1010.0493	2835.0941	1352.65	474.1
1010.1675	2836.2519	1345.7	470.35
1010.2855	2837.4089	1341.3	464.85
1010.4036	2838.5653	1336.05	460.1
1010.5216	2839.7211	1337.85	462.95
1010.6396	2840.8761	1332.9	456.8
1010.7575	2842.0306	1331.5	457.35
1010.8754	2843.1843	1326.3	452.6
1010.9932	2844.3374	1329.1	453.3
1011.111	2845.4899	1330.7	454.2
1011.2288	2846.6417	1329.05	452.65
1011.3465	2847.7928	1328.7	450.85
1011.4642	2848.9433	1330.25	454.85
1011.5818	2850.0931	1322.3	446.9
1011.6995	2851.2422	1327.9	450.8
1011.817	2852.3907	1324.65	451.75
1011.9345	2853.5385	1332.15	456.4
1012.052	2854.6857	1334.3	447.05
1012.1695	2855.8323	1323.75	448.95
1012.2869	2856.9781	1331.35	455.25
1012.4042	2858.1233	1327	450.7
1012.5216	2859.2679	1323.55	448.5
1012.6389	2860.4118	1330.15	452.9
1012.7561	2861.555	1332.15	452.65
1012.8733	2862.6976	1332.75	455.05
1012.9905	2863.8395	1327.7	452.95
1013.1076	2864.9808	1324.85	449
1013.2247	2866.1214	1328	452.85
1013.3417	2867.2614	1330.25	455.1
1013.4587	2868.4007	1325.35	448.6
1013.5757	2869.5393	1324.95	446.75
1013.6926	2870.6773	1334.65	454.9
1013.8095	2871.8146	1335.6	455.7
1013.9263	2872.9513	1330.15	450.4
1014.0431	2874.0874	1332.2	456
1014.1599	2875.2227	1326.45	449.9
1014.2766	2876.3574	1329.6	454.5
1014.3933	2877.4915	1323.6	449
1014.51	2878.6249	1321.4	447.55
1014.6266	2879.7577	1328.25	450.75
1014.7431	2880.8898	1338.55	451.4
1014.8596	2882.0212	1326.1	449.1
1014.9761	2883.152	1332.65	455.8
1015.0925	2884.2821	1328.95	454.1
1015.2089	2885.4116	1328.9	454.45
1015.3253	2886.5405	1329.1	453.8
1015.4416	2887.6686	1326.55	447.75
1015.5579	2888.7962	1318.75	445.4
1015.6741	2889.923	1321.65	447.95
1015.7903	2891.0493	1322.1	446.95
1015.9065	2892.1748	1322.75	446.65
1016.0226	2893.2997	1321.05	445.25
1016.1387	2894.424	1312.25	437.15
1016.2547	2895.5476	1309.1	433.95
1016.3707	2896.6706	1316.15	440
1016.4866	2897.7929	1312.05	436.7
1016.6025	2898.9145	1316.65	442.2
1016.7184	2900.0355	1310.4	432.1
1016.8342	2901.1559	1312.5	437.55
1016.95	2902.2756	1300.85	424.05
1017.0658	2903.3946	1309	433.25
1017.1815	2904.513	1308.85	429.4
1017.2971	2905.6308	1303.2	427.5
1017.4127	2906.7479	1298.35	424
1017.5283	2907.8643	1296.5	421.15
1017.6439	2908.9801	1290.3	415.05
1017.7594	2910.0953	1295.7	419.7
1017.8748	2911.2098	1293.5	415.35
1017.9902	2912.3236	1303.7	416.25
1018.1056	2913.4368	1299.85	422.6
1018.2209	2914.5494	1293.35	416.7
1018.3362	2915.6613	1290.4	409.15
1018.4515	2916.7725	1287.05	408.7
1018.5667	2917.8831	1282.85	405.8
1018.6819	2918.9931	1282.35	401.35
1018.797	2920.1024	1275.35	398.95
1018.9121	2921.211	1274.8	400.35
1019.0271	2922.319	1273.95	396.95
1019.1421	2923.4264	1266.35	392.75
1019.2571	2924.5331	1265.3	391.05
1019.372	2925.6391	1267	392.4
1019.4869	2926.7445	1266.7	392.35
1019.6017	2927.8493	1263.35	385.85
1019.7165	2928.9534	1265.3	388.2
1019.8313	2930.0569	1270.35	389.8
1019.946	2931.1597	1266.05	389.85
1020.0606	2932.2619	1266.1	390.45
1020.1753	2933.3634	1264.85	391.6
1020.2899	2934.4643	1274.65	391.65
1020.4044	2935.5645	1265.5	382.65
1020.5189	2936.6641	1270.15	389.45
1020.6334	2937.763	1260.55	386.8
1020.7478	2938.8613	1262.5	386.15
1020.8622	2939.959	1263.05	382.1
1020.9765	2941.056	1253.4	377.6
1021.0908	2942.1523	1247.35	370.3
1021.2051	2943.248	1239.05	363.2
1021.3193	2944.3431	1236.55	361.35
1021.4334	2945.4375	1224.75	348.95
1021.5476	2946.5313	1224.4	350.25
1021.6617	2947.6244	1209.15	334.45
1021.7757	2948.7169	1209.2	333.4
1021.8897	2949.8087	1199.85	323.95
1022.0037	2950.8999	1195.7	319.4
1022.1176	2951.9904	1188.95	313.7
1022.2315	2953.0803	1184.75	309.1
1022.3453	2954.1696	1175.45	300.2
1022.4591	2955.2582	1178.85	302.1
1022.5728	2956.3462	1178.05	304.5
1022.6865	2957.4335	1167.5	291.7
1022.8002	2958.5202	1173.05	295.9
1022.9138	2959.6062	1168.95	293.65
1023.0274	2960.6916	1167.35	291.95
1023.141	2961.7764	1162.4	285.8
1023.2545	2962.8605	1161.9	285.3
1023.3679	2963.9439	1162.1	287.05
1023.4813	2965.0267	1161.25	284.05
1023.5947	2966.1089	1182.2	282.8
1023.708	2967.1905	1153.55	279.7
1023.8213	2968.2714	1154.8	280.85
1023.9346	2969.3516	1155.2	280.25
1024.0478	2970.4312	1163.5	280.7
1024.1609	2971.5102	1153.5	278.55
1024.274	2972.5885	1146.4	270.2
1024.3871	2973.6662	1153.7	272.65
1024.5002	2974.7432	1148.2	272.45
1024.6132	2975.8196	1148.6	274.25
1024.7261	2976.8954	1145.3	271.15
1024.839	2977.9705	1147.65	272.75
1024.9519	2979.045	1145.85	271.7
1025.0647	2980.1188	1141	264.7
1025.1775	2981.192	1136	263.15
1025.2902	2982.2645	1143.7	267.1
1025.4029	2983.3364	1139.65	263.3
1025.5156	2984.4077	1141.3	266.6
1025.6282	2985.4783	1143.4	261.75
1025.7407	2986.5483	1134.9	260
1025.8532	2987.6177	1136.9	263.2
1025.9657	2988.6864	1127.8	253.4
1026.0782	2989.7545	1123.95	248.1
1026.1906	2990.8219	1117.75	242.2
1026.3029	2991.8887	1123.15	246.3
1026.4152	2992.9548	1118	242.75
1026.5275	2994.0204	1111.9	237.5
1026.6397	2995.0852	1108.8	235.2
1026.7519	2996.1495	1107.25	227.5
1026.864	2997.2131	1104.9	230.1
1026.9761	2998.276	1100.6	223.85
1027.0882	2999.3383	1099.05	222.25
1027.2002	3000.4	1098.8	223.35
1027.3122	3001.4611	1094.1	217.95
1027.4241	3002.5215	1092.2	218.05
1027.536	3003.5812	1093	218.25
1027.6478	3004.6404	1093.85	217.75
1027.7596	3005.6989	1093.65	216.35
1027.8714	3006.7567	1088.3	213.65
1027.9831	3007.8139	1103.35	205.85
1028.0947	3008.8705	1088.05	212.65
1028.2064	3009.9264	1088.85	209.2
1028.3179	3010.9818	1084.8	208.35
1028.4295	3012.0364	1081.5	204.7
1028.541	3013.0905	1078.05	202.2
1028.6524	3014.1439	1081.9	205.45
1028.7638	3015.1966	1075.7	200.05
1028.8752	3016.2487	1073.8	198.35
1028.9865	3017.3002	1081.5	197.45
1029.0978	3018.3511	1079.35	205.4
1029.209	3019.4013	1074.9	197.6
1029.3202	3020.4509	1068.5	194.15
1029.4314	3021.4998	1069.9	193.6
1029.5425	3022.5481	1065.4	188.25
1029.6535	3023.5958	1070.25	194.8
1029.7645	3024.6428	1071.3	195.15
1029.8755	3025.6892	1065.5	190.5
1029.9864	3026.735	1065.3	190.55
1030.0973	3027.7802	1067.5	191.4
1030.2082	3028.8247	1065.7	191.9
1030.319	3029.8685	1062.4	184.65
1030.4297	3030.9118	1065.05	189.5
1030.5404	3031.9544	1059.65	185.35
1030.6511	3032.9963	1060.6	185.1
1030.7617	3034.0376	1060.3	186.65
1030.8723	3035.0783	1063.95	186.5
1030.9829	3036.1184	1064.2	186.6
1031.0934	3037.1578	1058.75	186
1031.2038	3038.1966	1061.85	184
1031.3142	3039.2348	1056.55	181.4
1031.4246	3040.2723	1062.25	179.65
1031.5349	3041.3092	1053.65	177.2
1031.6452	3042.3455	1056.25	181.05
1031.7554	3043.3811	1055.1	176.9
1031.8656	3044.4161	1057.65	179.25
1031.9758	3045.4505	1055.85	180.35
1032.0859	3046.4842	1052.65	176.5
1032.1959	3047.5173	1049.85	174.85
1032.3059	3048.5498	1054.75	178.95
1032.4159	3049.5816	1050.25	174.3
1032.5258	3050.6128	1053.05	177.2
1032.6357	3051.6434	1049.9	172.85
1032.7455	3052.6734	1053.25	176
1032.8553	3053.7027	1050.6	175.9
1032.9651	3054.7314	1046.95	174.3
1033.0748	3055.7594	1045.75	173.55
1033.1845	3056.7868	1049.25	172.95
1033.2941	3057.8136	1041.85	167.95
1033.4037	3058.8398	1048.25	173.05
1033.5132	3059.8653	1043.7	168.65
1033.6227	3060.8902	1044.35	170.15
1033.7321	3061.9145	1043.7	166.95
1033.8415	3062.9381	1041.2	166.1
1033.9509	3063.9612	1057.15	165.1
1034.0602	3064.9835	1044.7	168.55
1034.1694	3066.0053	1044.8	167.2
1034.2787	3067.0264	1039.25	163.65
1034.3878	3068.0469	1036.85	161.4
1034.497	3069.0668	1045.85	168.55
1034.6061	3070.086	1039.15	164.45
1034.7151	3071.1046	1037.75	162.95
1034.8241	3072.1226	1038.7	163.25
1034.9331	3073.1399	1038.25	163.15
1035.042	3074.1567	1037.9	163.05
1035.1508	3075.1727	1039.1	160.25
1035.2597	3076.1882	1029.85	154.5
1035.3684	3077.203	1035.75	160.05
1035.4772	3078.2173	1031	157
1035.5859	3079.2308	1037.4	157.85
1035.6945	3080.2438	1033.5	155.1
1035.8031	3081.2561	1028.05	150.95
1035.9117	3082.2678	1024.95	149.7
1036.0202	3083.2789	1027.85	152.8
1036.1286	3084.2893	1028.4	153.65
1036.2371	3085.2991	1025.95	150.6
1036.3454	3086.3083	1033.1	153.05
1036.4538	3087.3169	1023.5	147.7
1036.562	3088.3248	1025.2	149.8
1036.6703	3089.3321	1020.05	144.5
1036.7785	3090.3388	1018.95	143.75
1036.8866	3091.3449	1020.15	146.55
1036.9948	3092.3503	1025.75	149.2
1037.1028	3093.3551	1020.95	145.8
1037.2108	3094.3593	1016.85	144
1037.3188	3095.3629	1014.95	141
1037.4267	3096.3658	1019.45	143.4
1037.5346	3097.3681	1016.2	141.65
1037.6425	3098.3698	1019.05	140.95
1037.7503	3099.3708	1017.85	137.25
1037.858	3100.3713	1016.7	141.55
1037.9657	3101.3711	1012.75	136.45
1038.0734	3102.3702	1149.65	135.3
1038.181	3103.3688	1015.05	137.3
1038.2886	3104.3667	1011.3	137.8
1038.3961	3105.364	1009.4	134.45
1038.5036	3106.3607	1007.95	131
1038.611	3107.3568	1011.4	136.9
1038.7184	3108.3522	1007.75	131.8
1038.8257	3109.347	1006.1	128.9
1038.933	3110.3412	1003.9	123.25
1039.0403	3111.3348	1006.65	131.1
1039.1475	3112.3277	1004.45	128.95
1039.2547	3113.32	1003.3	131.2
1039.3618	3114.3117	1005.1	130.65
1039.4689	3115.3028	1000.8	125.25
1039.5759	3116.2932	1002.65	125.45
1039.6829	3117.2831	1007.1	124.7
1039.7898	3118.2723	1003.3	127.25
1039.8967	3119.2608	1000.35	125.85
1040.0035	3120.2488	996.1	122.1
1040.1103	3121.2361	995.5	119.5
1040.2171	3122.2229	995.35	121.75
1040.3238	3123.209	995.2	117.7
1040.4305	3124.1944	994.5	119.6
1040.5371	3125.1793	998.95	120.65
1040.6437	3126.1635	996.5	122.05
1040.7502	3127.1471	992.5	116.05
1040.8567	3128.1301	990.6	114.7
1040.9631	3129.1125	989.7	114.9
1041.0695	3130.0942	995.3	119.7
1041.1759	3131.0753	1003	118.4
1041.2822	3132.0558	996.25	119.35
1041.3884	3133.0357	988.65	112.35
1041.4946	3134.015	990.95	113.7
1041.6008	3134.9936	991.8	117.1
1041.7069	3135.9716	1008.05	110.85
1041.813	3136.949	989.25	114.05
1041.919	3137.9258	990.4	109.95
1042.025	3138.902	992.25	112.25
1042.1309	3139.8775	982.65	108.3
1042.2368	3140.8524	982.75	106.6
1042.3427	3141.8267	986.55	109.05
1042.4485	3142.8004	984.75	106.6
1042.5542	3143.7735	991.9	109.2
1042.6599	3144.7459	984.95	107.9
1042.7656	3145.7178	984.75	109.1
1042.8712	3146.689	978.75	106.95
1042.9768	3147.6596	987.05	108.75
1043.0823	3148.6295	981.1	104.85
1043.1878	3149.5989	981.2	105
1043.2932	3150.5676	977.15	103
1043.3986	3151.5357	976.35	103.1
1043.5039	3152.5032	982.2	108.25
1043.6092	3153.4701	980.7	106.55
1043.7145	3154.4364	983.95	106.75
1043.8197	3155.402	976.4	102.35
1043.9248	3156.367	976.55	98.5
1044.03	3157.3315	1015.05	102.75
1044.135	3158.2952	975.35	99.8
1044.24	3159.2584	973.55	95.65
1044.345	3160.221	973.1	97.6
1044.4499	3161.1829	974.15	97.35
1044.5548	3162.1442	975.05	100.1
1044.6596	3163.105	971.8	94.95
1044.7644	3164.065	976.9	99.65
1044.8692	3165.0245	970.45	92.55
1044.9739	3165.9834	970.6	96.95
1045.0785	3166.9416	967.95	94
1045.1831	3167.8993	969	94.8
1045.2877	3168.8563	971.85	95.65
1045.3922	3169.8127	969.2	93.8
1045.4966	3170.7684	969.75	93.9
1045.6011	3171.7236	968.35	92.4
1045.7054	3172.6782	966.25	90.45
1045.8098	3173.6321	969.05	92.75
1045.914	3174.5854	970.75	91.45
1046.0183	3175.5381	969.75	95
1046.1224	3176.4902	964.45	89.6
1046.2266	3177.4417	962.95	88.9
1046.3307	3178.3926	963.5	89.45
1046.4347	3179.3428	966.95	93.2
1046.5387	3180.2924	963.75	89.95
1046.6427	3181.2415	963.4	87.95
1046.7466	3182.1899	963.15	85.45
1046.8504	3183.1377	963.1	87.65
1046.9542	3184.0848	966.5	88.05
1047.058	3185.0314	960.5	84.7
1047.1617	3185.9773	962.85	87.3
1047.2654	3186.9227	960.25	84.95
1047.369	3187.8674	960.6	85.4
1047.4726	3188.8115	964.5	86.15
1047.5761	3189.755	960.45	84.55
1047.6796	3190.6979	960.5	86.15
1047.783	3191.6402	955.2	81.05
1047.8864	3192.5818	961.95	85.7
1047.9898	3193.5229	966	83.5
1048.0931	3194.4633	955.8	81.05
1048.1963	3195.4031	961.9	85.55
1048.2995	3196.3423	955.8	82.25
1048.4027	3197.2809	956.55	81.75
1048.5058	3198.2189	956.85	81.4
1048.6089	3199.1563	961.15	78.9
1048.7119	3200.0931	953.95	79.35
1048.8148	3201.0292	951.35	76.6
1048.9178	3201.9648	953.05	77.7
1049.0206	3202.8997	957.7	81.15
1049.1235	3203.834	952.2	76.65
1049.2262	3204.7677	952.8	77.1
1049.329	3205.7008	952.8	74.25
1049.4317	3206.6333	947.3	73.8
1049.5343	3207.5652	952.65	75.15
1049.6369	3208.4964	949.9	74.7
1049.7394	3209.4271	949.6	75.1
1049.8419	3210.3571	950	75.6
1049.9444	3211.2865	948.6	73.75
1050.0468	3212.2154	947.6	72
1050.1491	3213.1436	954.6	76.7
1050.2514	3214.0712	955.6	73.85
1050.3537	3214.9982	951.1	75.55
1050.4559	3215.9246	945.3	69.45
1050.5581	3216.8503	949.5	73.65
1050.6602	3217.7755	946.4	71.7
1050.7623	3218.7001	943.3	68.65
1050.8643	3219.624	945.65	70.25
1050.9663	3220.5473	949	72.45
1051.0682	3221.4701	947.2	70.65
1051.1701	3222.3922	950.4	73.85
1051.2719	3223.3137	948.4	73.95
1051.3737	3224.2346	945.15	70.05
1051.4754	3225.1549	942.75	68.1
1051.5771	3226.0746	944.25	70.45
1051.6788	3226.9937	941.45	66.85
1051.7804	3227.9121	942.1	66.9
1051.8819	3228.83	939.2	63
1051.9834	3229.7473	940.1	64.9
1052.0849	3230.6639	944.1	69.95
1052.1863	3231.5799	941.3	65.7
1052.2876	3232.4954	940.75	66.05
1052.3889	3233.4102	939.8	64.6
1052.4902	3234.3244	943.6	69.8
1052.5914	3235.238	939.55	65.25
1052.6926	3236.151	962.4	65.15
1052.7937	3237.0634	939.65	67.5
1052.8948	3237.9752	937.35	62.55
1052.9958	3238.8864	938.2	61.3
1053.0968	3239.797	937.1	60.5
1053.1977	3240.7069	936.65	61.35
1053.2986	3241.6163	937.15	62.15
1053.3994	3242.5251	936.35	61.8
1053.5002	3243.4332	935.9	62.95
1053.6009	3244.3408	935.4	60.15
1053.7016	3245.2477	934.85	59.15
1053.8022	3246.154	936.4	58.95
1053.9028	3247.0598	938.2	60.5
1054.0034	3247.9649	936.3	61.15
1054.1039	3248.8694	933.4	58.15
1054.2043	3249.7733	935.5	61.8
1054.3047	3250.6766	934.1	60.2
1054.4051	3251.5793	937.2	60.35
1054.5054	3252.4814	933.8	59.9
1054.6056	3253.3829	931.15	57.05
1054.7058	3254.2838	934.6	59.8
1054.806	3255.1841	932.55	55.25
1054.9061	3256.0838	934.35	58.85
1055.0061	3256.9829	931.65	56.3
1055.1062	3257.8814	934.95	56
1055.2061	3258.7792	933.8	55.35
1055.306	3259.6765	931.45	55.8
1055.4059	3260.5731	928	52.85
1055.5057	3261.4692	929.7	51.5
1055.6055	3262.3647	928.9	53.4
1055.7052	3263.2595	928.65	52.4
1055.8049	3264.1538	926.1	51.3
1055.9045	3265.0474	928.1	52.8
1056.0041	3265.9404	923.75	50.1
1056.1036	3266.8329	921.25	48.05
1056.2031	3267.7247	933.85	48.9
1056.3025	3268.616	923.9	50.8
1056.4019	3269.5066	921.25	44.4
1056.5013	3270.3966	922.25	45.45
1056.6005	3271.286	915.5	42.9
