Software Version:	3.9.2.0
Unit SN:	10000200
Spectrometer SN:	6960
Date:	3/6/2024 10:14:17 AM
Data Line Index:	25
Spectral Points:	2048
Integration time (ms):	125
Averages:	20
Delay (ms):	30
Sequence Number:	1
Processing:	dark subtract
Laser Power (mW):	305
Laser Current (mA):	825
Laser Diode Temp (C):	25.1
Laser Case Temp (C):	25
System Temp (C):	24.8
Spectrometer Temp (C):	22.3
CCD Temp (C):	-0.002
Secondary Temp (C):	20.036
Heatsink Temp (C):	18.855
CCDPCB Temp (C):	31.638
SecondaryPCB Temp (C):	26.069

Wavelength	RamanShift	Raw Counts	Dark Subtracted
787.061	30.1047	1009.05	600.2
787.2016	32.3739	1029.8	622.05
787.3422	34.6426	1068.45	660.15
787.4828	36.9109	1110.9	701.9
787.6235	39.1787	1159.85	746.5
787.7642	41.4461	1203.15	785.1
787.9049	43.7131	1258.5	838.5
788.0456	45.9796	1314.6	890.4
788.1863	48.2456	1359.4	931.3
788.3271	50.5112	1422.4	991.3
788.4679	52.7764	1487.45	1054.2
788.6087	55.0411	1544.85	1106.5
788.7496	57.3054	1617.25	1173.85
788.8904	59.5692	1696.8	1250.8
789.0313	61.8326	1771.75	1322.25
789.1722	64.0955	1852.15	1401.65
789.3132	66.3579	1965	1507.9
789.4541	68.6199	2096.45	1634.15
789.5951	70.8815	2313.65	1847.7
789.7361	73.1426	2813	2343.5
789.8771	75.4032	4024.15	3551
790.0181	77.6634	7169.35	6691.2
790.1592	79.9231	15311.2	14829.25
790.3003	82.1824	47054.7	46562.35
790.4414	84.4412	65535	65023.6
790.5825	86.6995	65535	65000.65
790.7237	88.9574	65535	64983.8
790.8648	91.2148	65535	64968.85
791.006	93.4717	65535	64961.2
791.1472	95.7282	65535	64953.05
791.2885	97.9842	65535	64956.8
791.4297	100.2398	65535	64950.35
791.571	102.4949	65535	64951.2
791.7123	104.7495	65535	64942.2
791.8536	107.0036	65535	64943.7
791.9949	109.2573	65535	64947
792.1363	111.5105	65535	64943.2
792.2777	113.7632	65535	64939.95
792.4191	116.0154	65535	64927.2
792.5605	118.2672	65535	64934.5
792.7019	120.5185	65535	64930.05
792.8434	122.7693	65535	64931.45
792.9849	125.0197	65535	64928.35
793.1264	127.2696	65535	64923.65
793.2679	129.519	65535	64920.2
793.4094	131.7679	65535	64916.15
793.551	134.0163	65535	64915.05
793.6926	136.2642	65535	64909.25
793.8342	138.5117	65535	64907.1
793.9758	140.7587	65535	64907.2
794.1175	143.0052	65535	64904.8
794.2591	145.2512	65535	64907.1
794.4008	147.4967	65535	64904
794.5425	149.7417	65535	64897.1
794.6842	151.9863	65535	64894.1
794.826	154.2304	65535	64891.2
794.9677	156.4739	65535	64883.65
795.1095	158.717	65535	64888.35
795.2513	160.9596	65535	64883.7
795.3931	163.2017	65535	64879.35
795.535	165.4433	65535	64878.75
795.6768	167.6844	65535	64878.25
795.8187	169.925	65535	64872.05
795.9606	172.1651	65535	64871.95
796.1025	174.4047	65535	64865.25
796.2445	176.6439	65535	64863.2
796.3864	178.8825	65535	64863.55
796.5284	181.1206	65535	64859.15
796.6704	183.3582	65535	64856.15
796.8124	185.5954	65535	64856.9
796.9544	187.832	65535	64848.6
797.0965	190.0681	65535	64844.25
797.2386	192.3037	65535	64842.9
797.3806	194.5388	65535	64840.35
797.5228	196.7734	65535	64838.1
797.6649	199.0075	65535	64838.6
797.807	201.2411	65535	64835.45
797.9492	203.4742	65535	64838.4
798.0914	205.7068	65535	64829.3
798.2336	207.9389	65535	64826.8
798.3758	210.1704	65535	64831.45
798.518	212.4015	65535	64842.25
798.6603	214.632	65535	64852.3
798.8025	216.862	65535	64855.4
798.9448	219.0915	65535	64852.6
799.0871	221.3205	65535	64847.4
799.2294	223.549	65535	64854.7
799.3718	225.777	65535	64853.35
799.5141	228.0044	65535	64845.5
799.6565	230.2314	65535	64844.7
799.7989	232.4578	65535	64841.3
799.9413	234.6837	65535	64832.15
800.0837	236.909	65535	64829.2
800.2262	239.1339	65535	64807.85
800.3687	241.3582	65535	64820.55
800.5111	243.582	65535	64791.8
800.6536	245.8053	65535	64802.2
800.7961	248.0281	65535	64807.75
800.9387	250.2503	65535	64801.05
801.0812	252.472	65535	64802.35
801.2238	254.6932	65535	64800.2
801.3664	256.9139	65535	64799.85
801.509	259.134	65535	64796.65
801.6516	261.3536	65535	64797.75
801.7942	263.5727	65535	64800.25
801.9369	265.7912	65535	64800
802.0795	268.0092	65535	64800.8
802.2222	270.2267	65535	64796.55
802.3649	272.4436	65535	64795.55
802.5076	274.6601	65535	64781.05
802.6504	276.8759	65535	64788.2
802.7931	279.0913	65535	64787.95
802.9359	281.3061	65535	64792.1
803.0787	283.5204	65535	64785.8
803.2215	285.7341	65535	64783.3
803.3643	287.9473	65535	64772.3
803.5071	290.16	65535	64776.9
803.6499	292.3721	65535	64782.5
803.7928	294.5837	65535	64784.7
803.9357	296.7947	65535	64782.2
804.0786	299.0052	65535	64780.3
804.2215	301.2152	65535	64780.75
804.3644	303.4246	65535	64780
804.5074	305.6334	65535	64780.65
804.6503	307.8418	65535	64778.5
804.7933	310.0495	65535	64774.3
804.9363	312.2568	65535	64775.6
805.0793	314.4635	65535	64776
805.2223	316.6696	65535	64771.55
805.3653	318.8752	65535	64763.5
805.5084	321.0802	65535	64770.45
805.6514	323.2847	65535	64767.05
805.7945	325.4887	65535	64769.35
805.9376	327.692	65535	64766.4
806.0807	329.8949	65535	64764.65
806.2238	332.0972	65535	64763.4
806.367	334.2989	65535	64758.25
806.5101	336.5001	65535	64760.5
806.6533	338.7007	65535	64758.9
806.7965	340.9008	65535	64762
806.9397	343.1003	65535	64758.2
807.0829	345.2992	65535	64756.2
807.2261	347.4976	65535	64754.3
807.3693	349.6955	65535	64748.1
807.5126	351.8927	65535	64747.25
807.6559	354.0895	65535	64741.1
807.7991	356.2856	65535	64748.6
807.9424	358.4812	65535	64747.1
808.0857	360.6763	65535	64745.15
808.2291	362.8707	65535	64743.75
808.3724	365.0646	65535	64741.05
808.5158	367.258	65535	64739.2
808.6591	369.4508	65535	64737.3
808.8025	371.643	65535	64733.05
808.9459	373.8346	65535	64735.8
809.0893	376.0257	65535	64729.75
809.2327	378.2162	65535	64729.7
809.3762	380.4062	65535	64731.85
809.5196	382.5956	65535	64734.25
809.6631	384.7844	65535	64741.4
809.8066	386.9726	65535	64739.95
809.9501	389.1603	65535	64743.1
810.0936	391.3474	65535	64702.1
810.2371	393.5339	65535	64738.6
810.3806	395.7199	65535	64741.7
810.5241	397.9052	65535	64741.9
810.6677	400.09	65535	64740.25
810.8113	402.2743	65535	64739.6
810.9548	404.4579	65535	64738.9
811.0984	406.641	65535	64735.3
811.2421	408.8235	65535	64732.45
811.3857	411.0054	65535	64727.95
811.5293	413.1868	65535	64731.9
811.673	415.3675	65535	64726.35
811.8166	417.5477	65535	64722.9
811.9603	419.7273	65535	64720.4
812.104	421.9064	65535	64713.5
812.2477	424.0848	65535	64718.75
812.3914	426.2627	65535	64720.65
812.5351	428.4399	65535	64719.8
812.6788	430.6166	65535	64714.7
812.8226	432.7928	65535	64715.85
812.9663	434.9683	65535	64712.5
813.1101	437.1432	65535	64713
813.2539	439.3176	65535	64713.8
813.3977	441.4914	65535	64714.15
813.5415	443.6645	65535	64714.7
813.6853	445.8371	65535	64715.15
813.8291	448.0091	65535	64713.45
813.973	450.1806	65535	64715.1
814.1168	452.3514	65535	64713.7
814.2607	454.5216	65535	64703.7
814.4046	456.6913	65535	64710.05
814.5485	458.8603	65535	64709.75
814.6924	461.0288	65535	64711.5
814.8363	463.1967	65535	64709.8
814.9802	465.3639	65535	64706.6
815.1241	467.5306	65535	64712.1
815.2681	469.6967	65535	64710.3
815.412	471.8622	65535	64713
815.556	474.0271	65535	64709
815.7	476.1914	65535	64706.8
815.844	478.3551	65535	64707.6
815.988	480.5182	65535	64707.45
816.132	482.6807	65535	64706.05
816.276	484.8426	65535	64706.3
816.4201	487.0039	65535	64706.3
816.5641	489.1647	65535	64705.3
816.7082	491.3248	65535	64705.15
816.8522	493.4843	65535	64703.9
816.9963	495.6432	65535	64704.95
817.1404	497.8015	65535	64700.1
817.2845	499.9592	65535	64698.45
817.4286	502.1163	65535	64701.3
817.5727	504.2728	65535	64699.7
817.7168	506.4287	65535	64697.85
817.861	508.5839	65535	64701.05
818.0051	510.7386	65535	64699
818.1493	512.8927	65535	64697.55
818.2935	515.0461	65535	64696.25
818.4377	517.199	65535	64697.55
818.5818	519.3512	65535	64695.95
818.726	521.5029	65535	64687.2
818.8703	523.6539	65535	64691.55
819.0145	525.8043	65535	64693.55
819.1587	527.9541	65535	64692
819.303	530.1033	65535	64692.6
819.4472	532.2519	65535	64693.25
819.5915	534.3999	65535	64690.95
819.7357	536.5472	65535	64690.7
819.88	538.694	65535	64691.65
820.0243	540.8401	65535	64692.5
820.1686	542.9856	65535	64688.45
820.3129	545.1305	65535	64691.3
820.4572	547.2748	65535	64690.55
820.6016	549.4185	65535	64688.8
820.7459	551.5615	65535	64692.85
820.8902	553.704	65535	64687.05
821.0346	555.8458	65535	64689.35
821.1789	557.987	65535	64689
821.3233	560.1276	65535	64688.15
821.4677	562.2675	65535	64688.25
821.6121	564.4069	65535	64690.3
821.7565	566.5456	65535	64690.65
821.9009	568.6837	65535	64686.85
822.0453	570.8212	65535	64685.05
822.1897	572.958	65535	64688.05
822.3342	575.0942	65535	64686.4
822.4786	577.2299	65535	64683.9
822.6231	579.3648	65535	64687.15
822.7675	581.4992	65535	64685.95
822.912	583.6329	65535	64686.5
823.0565	585.766	65535	64687.85
823.201	587.8985	65535	64685.4
823.3454	590.0304	65535	64662.45
823.4899	592.1616	65535	64680.25
823.6345	594.2922	65535	64678.75
823.779	596.4222	65535	64680.7
823.9235	598.5515	65535	64679.15
824.068	600.6802	65535	64681.7
824.2126	602.8083	65535	64681.65
824.3571	604.9358	65535	64684.15
824.5017	607.0626	65535	64679.5
824.6462	609.1888	65535	64679.65
824.7908	611.3144	65535	64678.7
824.9354	613.4393	65535	64681.25
825.08	615.5636	65535	64677.15
825.2246	617.6873	65535	64682.35
825.3692	619.8103	65535	64675.35
825.5138	621.9327	65535	64675.8
825.6584	624.0544	65535	64678.75
825.803	626.1756	65535	64679.35
825.9477	628.2961	65535	64680.1
826.0923	630.4159	65535	64678
826.237	632.5351	65535	64678.6
826.3816	634.6537	65535	64674.25
826.5263	636.7716	65535	64672.15
826.6709	638.8889	65535	64675.35
826.8156	641.0056	65535	64673.45
826.9603	643.1216	65535	64674.65
827.105	645.237	65535	64670.25
827.2497	647.3518	65535	64674.85
827.3944	649.4659	65535	64675.8
827.5391	651.5793	65535	64675.45
827.6838	653.6922	65535	64674.05
827.8285	655.8043	65535	64676
827.9733	657.9159	65535	64670.4
828.118	660.0268	65535	64668.95
828.2627	662.137	65535	64671.9
828.4075	664.2466	65535	64669.45
828.5522	666.3556	65535	64671.9
828.697	668.4639	65535	64669.05
828.8418	670.5716	65535	64670.4
828.9865	672.6786	65535	64669.4
829.1313	674.785	65535	64666.95
829.2761	676.8907	65535	64670.6
829.4209	678.9958	65535	64672
829.5657	681.1002	65535	64670.55
829.7105	683.204	65535	64664.55
829.8553	685.3072	65535	64666.05
830.0001	687.4097	65535	64669.35
830.1449	689.5115	65535	64664.95
830.2898	691.6127	65535	64668.45
830.4346	693.7132	65535	64668.05
830.5794	695.8131	65535	64644.25
830.7243	697.9123	65535	64665.55
830.8691	700.0109	65535	64664.35
831.014	702.1089	65535	64668.45
831.1588	704.2061	65535	64666.6
831.3037	706.3028	65535	64666.55
831.4486	708.3987	65535	64665.75
831.5935	710.4941	65535	64662.5
831.7383	712.5887	65535	64666.1
831.8832	714.6827	65535	64659.1
832.0281	716.7761	65535	64665.7
832.173	718.8688	65535	64662.9
832.3179	720.9608	65535	64659.2
832.4628	723.0522	65535	64659.8
832.6077	725.1429	65535	64663.65
832.7527	727.233	65535	64664.25
832.8976	729.3224	65535	64665.95
833.0425	731.4112	65535	64660.4
833.1874	733.4993	65535	64663.05
833.3324	735.5867	65535	64663.45
833.4773	737.6735	65535	64660.5
833.6222	739.7596	65535	64662.45
833.7672	741.845	65535	64660.5
833.9122	743.9298	65535	64658.15
834.0571	746.014	65535	64662.5
834.2021	748.0974	65535	64659.7
834.347	750.1802	65535	64660.2
834.492	752.2624	65535	64661.05
834.637	754.3439	65535	64657.8
834.782	756.4247	65535	64650
834.9269	758.5048	65535	64660.95
835.0719	760.5843	65535	64658.45
835.2169	762.6631	65535	64658.1
835.3619	764.7413	65535	64660.4
835.5069	766.8188	65535	64658.6
835.6519	768.8956	65535	64635.05
835.7969	770.9718	65535	64616.6
835.9419	773.0473	65535	64644.15
836.0869	775.1221	65535	64660.3
836.232	777.1962	65535	64658.95
836.377	779.2697	65535	64657.35
836.522	781.3426	65535	64640.95
836.667	783.4147	65535	64656.5
836.8121	785.4862	65535	64660.7
836.9571	787.557	65535	64657.85
837.1021	789.6271	65535	64657.55
837.2472	791.6966	65535	64659.85
837.3922	793.7654	65535	64657.1
837.5373	795.8335	65535	64655.65
837.6823	797.901	65535	64656.95
837.8274	799.9678	65535	64656.2
837.9724	802.0339	65535	64657.7
838.1175	804.0993	65535	64648.5
838.2626	806.1641	65535	64656.5
838.4076	808.2282	65535	64657.6
838.5527	810.2916	65535	64655.35
838.6978	812.3544	65535	64660.15
838.8428	814.4164	65535	64657.75
838.9879	816.4778	65535	64654.3
839.133	818.5385	65535	64658.1
839.2781	820.5986	65535	64656.35
839.4232	822.658	65535	64652.8
839.5682	824.7166	65535	64659.4
839.7133	826.7747	65535	64659.4
839.8584	828.832	65535	64654.4
840.0035	830.8886	65535	64652.8
840.1486	832.9446	65535	64654.6
840.2937	834.9999	65535	64656.9
840.4388	837.0545	65535	64652.65
840.5839	839.1085	65535	64655.45
840.729	841.1618	65535	64650.5
840.8741	843.2143	65535	64656.2
841.0192	845.2662	65535	64656
841.1643	847.3175	65535	64656.45
841.3095	849.368	65535	64655.8
841.4546	851.4179	65535	64656.65
841.5997	853.467	65535	64652.1
841.7448	855.5155	65535	64655.05
841.8899	857.5633	65535	64654.5
842.0351	859.6105	65535	64657.75
842.1802	861.6569	65535	64655.6
842.3253	863.7027	65535	64650.7
842.4704	865.7478	65535	64653
842.6156	867.7922	65535	64653.3
842.7607	869.8359	65535	64652.8
842.9058	871.8789	65535	64651.85
843.0509	873.9212	65535	64620.65
843.1961	875.9629	65535	64654.2
843.3412	878.0039	65535	64655.15
843.4863	880.0441	65535	64654.75
843.6315	882.0837	65535	64653.4
843.7766	884.1226	65535	64649.15
843.9218	886.1609	65535	64655.05
844.0669	888.1984	65535	64654.65
844.212	890.2352	65535	64653.85
844.3572	892.2714	65535	64648.6
844.5023	894.3069	65535	64650.15
844.6475	896.3416	65535	64654.85
844.7926	898.3757	65535	64653.6
844.9377	900.4091	65535	64652.85
845.0829	902.4418	65535	64647.4
845.228	904.4739	65535	64650.4
845.3732	906.5052	65535	64646.6
845.5183	908.5358	65535	64649.7
845.6635	910.5658	65535	64650
845.8086	912.595	65535	64649.95
845.9538	914.6236	65535	64652.35
846.0989	916.6515	65535	64652.75
846.2441	918.6786	65535	64649.05
846.3892	920.7051	65535	64647.4
846.5344	922.7309	65535	64649.6
846.6795	924.756	65535	64650.15
846.8246	926.7804	65535	64650.45
846.9698	928.8041	65535	64649.1
847.1149	930.8272	65535	64646.8
847.2601	932.8495	65535	64650.35
847.4052	934.8711	65535	64647.85
847.5504	936.892	65535	64651.05
847.6955	938.9123	65535	64647.35
847.8407	940.9318	65535	64650.8
847.9858	942.9506	65535	64652.2
848.131	944.9688	65535	64649.5
848.2761	946.9862	65535	64649.2
848.4213	949.003	65535	64651
848.5664	951.019	65535	64649.25
848.7115	953.0344	65535	64648
848.8567	955.0491	65535	64649.25
849.0018	957.063	65535	64652.1
849.147	959.0763	65535	64648.95
849.2921	961.0888	65535	64648.95
849.4373	963.1007	65535	64651.35
849.5824	965.1119	65535	64652
849.7275	967.1223	65535	64651
849.8727	969.1321	65535	64649.2
850.0178	971.1412	65535	64652.7
850.1629	973.1495	65535	64649.85
850.3081	975.1572	65535	64616.45
850.4532	977.1641	65535	64652.25
850.5983	979.1704	65535	64650
850.7435	981.1759	65535	64647.65
850.8886	983.1808	65535	64646.15
851.0337	985.1849	65535	64637.45
851.1788	987.1884	65535	64650.35
851.324	989.1911	65535	64644.75
851.4691	991.1932	65535	64647.85
851.6142	993.1945	65535	64648.05
851.7593	995.1951	65535	64649.2
851.9045	997.1951	65535	64640.95
852.0496	999.1943	65535	64651.4
852.1947	1001.1928	65535	64649.05
852.3398	1003.1906	65535	64648.45
852.4849	1005.1877	65535	64646.9
852.63	1007.1841	65535	64650
852.7751	1009.1798	65535	64649.5
852.9202	1011.1748	65535	64647.3
853.0653	1013.1691	65535	64650.6
853.2104	1015.1627	65535	64646.7
853.3555	1017.1556	65535	64649.35
853.5006	1019.1477	65535	64650.35
853.6457	1021.1392	65535	64652
853.7908	1023.1299	65535	64647.25
853.9359	1025.12	65535	64646.95
854.081	1027.1093	65535	64652.15
854.2261	1029.0979	65535	64651.85
854.3712	1031.0859	65535	64650.9
854.5163	1033.0731	65535	64648.85
854.6613	1035.0596	65535	64649.95
854.8064	1037.0454	65535	64648.1
854.9515	1039.0304	65535	64648.75
855.0965	1041.0148	65535	64650.9
855.2416	1042.9985	65535	64649.4
855.3867	1044.9814	65535	64647.65
855.5317	1046.9636	65535	64647.6
855.6768	1048.9452	65535	64650.85
855.8219	1050.926	65535	64651.2
855.9669	1052.9061	65535	64650.05
856.112	1054.8855	65535	64648.85
856.257	1056.8642	65535	64648.95
856.4021	1058.8421	65535	64644.6
856.5471	1060.8194	65535	64646.9
856.6921	1062.7959	65535	64650.25
856.8372	1064.7717	65535	64647.95
856.9822	1066.7469	65535	64646.4
857.1272	1068.7213	65535	64648.65
857.2723	1070.695	65535	64649.2
857.4173	1072.6679	65535	64650.05
857.5623	1074.6402	65535	64649.45
857.7073	1076.6117	65535	64643.45
857.8523	1078.5826	65535	64648.7
857.9973	1080.5527	65535	64644.65
858.1423	1082.5221	65535	64648.5
858.2873	1084.4908	65535	64649.05
858.4323	1086.4587	65535	64647.7
858.5773	1088.426	65535	64648.6
858.7223	1090.3925	65535	64644
858.8673	1092.3584	65535	64649.35
859.0123	1094.3235	65535	64650.5
859.1573	1096.2879	65535	64648.7
859.3022	1098.2515	65535	64649.8
859.4472	1100.2145	65535	64649.15
859.5922	1102.1767	65535	64644.9
859.7371	1104.1382	65535	64647.6
859.8821	1106.099	65535	64644.45
860.027	1108.0591	65535	64649.25
860.172	1110.0185	65535	64646.4
860.3169	1111.9771	65535	64650.1
860.4619	1113.9351	65535	64647.85
860.6068	1115.8923	65535	64647.6
860.7517	1117.8488	65535	64648.15
860.8967	1119.8045	65535	64645.85
861.0416	1121.7596	65535	64646.3
861.1865	1123.7139	65535	64649.6
861.3314	1125.6675	65535	64647.7
861.4763	1127.6204	65535	64648.9
861.6212	1129.5726	65535	64647.5
861.7661	1131.524	65535	64649.4
861.911	1133.4748	65535	64649.9
862.0559	1135.4248	65535	64645.15
862.2008	1137.3741	65535	64649.65
862.3457	1139.3226	65535	64645.95
862.4905	1141.2705	65535	64650.45
862.6354	1143.2176	65535	64641.65
862.7803	1145.164	65535	64645.7
862.9251	1147.1097	65535	64650.5
863.07	1149.0546	65535	64645.2
863.2148	1150.9989	65535	64648
863.3597	1152.9424	65535	64648.65
863.5045	1154.8852	65535	64645.35
863.6493	1156.8272	65535	64650.25
863.7942	1158.7686	65535	64639.25
863.939	1160.7092	65535	64648.15
864.0838	1162.6491	65535	64646.7
864.2286	1164.5883	65535	64648.6
864.3734	1166.5267	65535	64646.65
864.5182	1168.4644	65535	64649.75
864.663	1170.4014	65535	64642.05
864.8078	1172.3377	65535	64649.85
864.9526	1174.2732	65535	64648.5
865.0974	1176.2081	65535	64647.6
865.2421	1178.1421	65535	64644.15
865.3869	1180.0755	65535	64647.25
865.5317	1182.0082	65535	64647.15
865.6764	1183.9401	65535	64646.5
865.8212	1185.8713	65535	64649.7
865.9659	1187.8017	65535	64649.1
866.1106	1189.7315	65535	64650.4
866.2554	1191.6605	65535	64620.75
866.4001	1193.5888	65535	64648.2
866.5448	1195.5163	65535	64648.9
866.6895	1197.4432	65535	64647.15
866.8342	1199.3693	65535	64649.5
866.9789	1201.2947	65535	64643.9
867.1236	1203.2193	65535	64648.6
867.2683	1205.1432	65535	64645.7
867.413	1207.0664	65535	64647.8
867.5576	1208.9889	65535	64647.25
867.7023	1210.9106	65535	64648.1
867.847	1212.8316	65535	64650.1
867.9916	1214.7519	65535	64636.1
868.1363	1216.6715	65535	64648.6
868.2809	1218.5903	65535	64647.4
868.4255	1220.5084	65535	64647.65
868.5701	1222.4257	65535	64650.25
868.7148	1224.3424	65535	64648.9
868.8594	1226.2583	65535	64642.05
869.004	1228.1735	65535	64644.9
869.1486	1230.0879	65535	64646.75
869.2932	1232.0016	65535	64648.85
869.4377	1233.9146	65535	64644.15
869.5823	1235.8269	65535	64650.55
869.7269	1237.7384	65535	64647.6
869.8715	1239.6492	65535	64648.45
870.016	1241.5592	65535	64647.1
870.1606	1243.4686	65535	64648.1
870.3051	1245.3772	65535	64647.7
870.4496	1247.285	65535	64645.1
870.5941	1249.1922	65535	64650.2
870.7387	1251.0986	65535	64646.05
870.8832	1253.0042	65535	64647.7
871.0277	1254.9092	65535	64647.95
871.1722	1256.8134	65535	64649.55
871.3167	1258.7169	65535	64646.9
871.4611	1260.6196	65535	64647.3
871.6056	1262.5216	65535	64644.8
871.7501	1264.4229	65535	64648.45
871.8945	1266.3234	65535	64647.45
872.039	1268.2232	65535	64646.4
872.1834	1270.1223	65535	64647.95
872.3278	1272.0207	65535	64647.75
872.4723	1273.9183	65535	64644.15
872.6167	1275.8151	65535	64648.8
872.7611	1277.7113	65535	64645.5
872.9055	1279.6067	65535	64648.9
873.0499	1281.5014	65535	64646.55
873.1943	1283.3953	65535	64646
873.3386	1285.2885	65535	64647.85
873.483	1287.181	65535	64646.8
873.6274	1289.0727	65535	64650.95
873.7717	1290.9637	65535	64647.15
873.9161	1292.854	65535	64647.8
874.0604	1294.7435	65535	64648.8
874.2047	1296.6323	65535	64646.8
874.349	1298.5204	65535	64645.4
874.4933	1300.4077	65535	64646.05
874.6376	1302.2943	65535	64646.6
874.7819	1304.1802	65535	64649.45
874.9262	1306.0653	65535	64647.8
875.0705	1307.9497	65535	64649.6
875.2147	1309.8333	65535	64648.45
875.359	1311.7162	65535	64647.4
875.5032	1313.5984	65535	64646.35
875.6475	1315.4798	65535	64636.6
875.7917	1317.3605	65535	64632.6
875.9359	1319.2405	65535	64646.3
876.0801	1321.1197	65535	64644.95
876.2243	1322.9982	65535	64644.15
876.3685	1324.876	65535	64647.5
876.5127	1326.753	65535	64648.95
876.6569	1328.6293	65535	64647.9
876.801	1330.5048	65535	64644.6
876.9452	1332.3796	65535	64646.85
877.0893	1334.2537	65535	64621.9
877.2335	1336.127	65535	64647.85
877.3776	1337.9996	65535	64645.9
877.5217	1339.8714	65535	64646.7
877.6658	1341.7426	65535	64604.95
877.8099	1343.6129	65535	64645.85
877.954	1345.4826	65535	64648.55
878.0981	1347.3515	65535	64644.85
878.2422	1349.2196	65535	64645.25
878.3862	1351.087	65535	64646.8
878.5303	1352.9537	65535	64646.15
878.6743	1354.8197	65535	64647.15
878.8184	1356.6849	65535	64646.85
878.9624	1358.5493	65535	64646.8
879.1064	1360.4131	65535	64649.7
879.2504	1362.276	65535	64648.05
879.3944	1364.1383	65535	64647.65
879.5384	1365.9998	65535	64643.65
879.6823	1367.8606	65535	64646.2
879.8263	1369.7206	65535	64647.8
879.9702	1371.5799	65535	64644.65
880.1142	1373.4384	65535	64647.2
880.2581	1375.2962	65535	64647.3
880.402	1377.1533	65535	64647.8
880.5459	1379.0096	65535	64647.5
880.6898	1380.8652	65535	64647.45
880.8337	1382.7201	65535	64648.3
880.9776	1384.5742	65535	64646.75
881.1215	1386.4275	65535	64646.35
881.2653	1388.2802	65535	64649.9
881.4092	1390.132	65535	64647.1
881.553	1391.9832	65535	64646.2
881.6968	1393.8336	65535	64647.2
881.8406	1395.6832	65535	64648.05
881.9844	1397.5322	65535	64647.2
882.1282	1399.3803	65535	64639.95
882.272	1401.2278	65535	64647.75
882.4158	1403.0745	65535	64647.65
882.5595	1404.9204	65535	64647
882.7033	1406.7656	65535	64648.05
882.847	1408.6101	65535	64646
882.9908	1410.4538	65535	64646.6
883.1345	1412.2968	65535	64646.8
883.2782	1414.139	65535	64647.7
883.4219	1415.9805	65535	64650
883.5656	1417.8213	65535	64641.75
883.7092	1419.6613	65535	64645.65
883.8529	1421.5006	65535	64646.9
883.9965	1423.3391	65535	64647.4
884.1402	1425.1769	65535	64647.85
884.2838	1427.0139	65535	64647.8
884.4274	1428.8502	65535	64646.9
884.571	1430.6858	65535	64647.55
884.7146	1432.5206	65535	64646.3
884.8582	1434.3547	65535	64648.55
885.0018	1436.188	65535	64649.75
885.1453	1438.0206	65535	64646.5
885.2889	1439.8524	65535	64649.95
885.4324	1441.6835	65535	64645.25
885.5759	1443.5139	65535	64645.35
885.7194	1445.3435	65535	64647
885.8629	1447.1724	65535	64646.8
886.0064	1449.0005	65535	64649.65
886.1499	1450.8279	65535	64645.65
886.2933	1452.6545	65535	64648.15
886.4368	1454.4804	65535	64649.5
886.5802	1456.3056	65535	64641.55
886.7237	1458.13	65535	64648.6
886.8671	1459.9536	65535	64646.65
887.0105	1461.7766	65535	64649.6
887.1539	1463.5987	65535	64646.65
887.2972	1465.4202	65535	64649.5
887.4406	1467.2409	65535	64648.4
887.584	1469.0608	65535	64648.7
887.7273	1470.88	65535	64647
887.8706	1472.6984	65535	64645.65
888.0139	1474.5161	65535	64644.7
888.1572	1476.3331	65535	64648.2
888.3005	1478.1493	65535	64646.95
888.4438	1479.9648	65535	64650.1
888.5871	1481.7795	65535	64650.15
888.7303	1483.5935	65535	64649.2
888.8736	1485.4067	65535	64647.75
889.0168	1487.2192	65535	64646.75
889.16	1489.031	65535	64647.8
889.3032	1490.842	65535	64649.35
889.4464	1492.6522	65535	64647.9
889.5896	1494.4618	65535	64646.3
889.7327	1496.2705	65535	64649.2
889.8759	1498.0785	65535	64646.7
890.019	1499.8858	65535	64647.8
890.1622	1501.6924	65535	64650.15
890.3053	1503.4981	65535	64648.4
890.4484	1505.3032	65535	64648.1
890.5914	1507.1075	65535	64647.1
890.7345	1508.911	65535	64648.1
890.8776	1510.7138	65535	64647.6
891.0206	1512.5159	65535	64649.2
891.1637	1514.3172	65535	64648.6
891.3067	1516.1178	65535	64647.5
891.4497	1517.9176	65535	64645.9
891.5927	1519.7166	65535	64649.8
891.7357	1521.515	65535	64640.75
891.8786	1523.3126	65535	64648.55
892.0216	1525.1094	65535	64643.8
892.1645	1526.9055	65535	64652.75
892.3074	1528.7008	65535	64647.7
892.4503	1530.4954	65535	64648.9
892.5932	1532.2893	65535	64652.05
892.7361	1534.0824	65535	64644.4
892.879	1535.8747	65535	64649.3
893.0218	1537.6663	65535	64647.15
893.1647	1539.4572	65535	64648.85
893.3075	1541.2473	65535	64649.45
893.4503	1543.0367	65535	64648.55
893.5931	1544.8253	65535	64644.9
893.7359	1546.6132	65535	64647.65
893.8787	1548.4003	65535	64639.45
894.0214	1550.1867	65534.7	64640.8
894.1642	1551.9723	65531.8	64640.3
894.3069	1553.7572	65535	64649.05
894.4496	1555.5414	65535	64650.8
894.5923	1557.3247	65509.25	64625.9
894.735	1559.1074	65535	64651
894.8777	1560.8893	65530.75	64648.15
895.0204	1562.6705	65535	64650.3
895.163	1564.4509	65515.75	64632.7
895.3056	1566.2305	65526.15	64642.3
895.4482	1568.0094	65535	64652.1
895.5908	1569.7876	65527.1	64642.45
895.7334	1571.565	65518.55	64633.8
895.876	1573.3417	65520.7	64636.5
896.0186	1575.1176	65519.7	64636.75
896.1611	1576.8928	65517.8	64634.6
896.3036	1578.6672	65486.3	64603.5
896.4461	1580.4409	65510.25	64629.6
896.5886	1582.2138	65464.4	64579.6
896.7311	1583.986	65489	64605.5
896.8736	1585.7575	65444.5	64560.3
897.0161	1587.5282	65479.95	64596.7
897.1585	1589.2981	65478.75	64596.4
897.3009	1591.0673	65435.05	64552.8
897.4433	1592.8358	65396	64511.5
897.5857	1594.6035	65440.7	64555.75
897.7281	1596.3704	65453.4	64567.75
897.8705	1598.1366	65371.9	64488.05
898.0128	1599.9021	65331	64448.35
898.1551	1601.6668	65414.25	64529
898.2975	1603.4308	65383.4	64499.15
898.4398	1605.194	65383.55	64495.75
898.5821	1606.9564	65264.8	64381.3
898.7243	1608.7182	65349.7	64462.8
898.8666	1610.4791	65285.4	64404.6
899.0088	1612.2394	65356.55	64473.3
899.1511	1613.9988	65239.45	64356.15
899.2933	1615.7576	65360.45	64475.15
899.4355	1617.5156	65356.5	64467.95
899.5776	1619.2728	65401.35	64518.2
899.7198	1621.0293	65241.35	64359.7
899.862	1622.785	65228.4	64339.6
900.0041	1624.54	65304.9	64417.15
900.1462	1626.2942	65175.3	64293.05
900.2883	1628.0477	65025.3	64138.55
900.4304	1629.8005	64863.75	63977
900.5725	1631.5525	65068	64183.9
900.7145	1633.3037	64790.1	63906.65
900.8566	1635.0542	64770.85	63889.15
900.9986	1636.804	64945.75	64061.15
901.1406	1638.553	64649	63685.6
901.2826	1640.3013	64763.4	63880.95
901.4245	1642.0488	64589.95	63705.45
901.5665	1643.7955	64753.2	63871.25
901.7085	1645.5416	64607.85	63724.6
901.8504	1647.2868	64485.6	63604.25
901.9923	1649.0313	64743.7	63860.5
902.1342	1650.7751	64575.55	63690.25
902.2761	1652.5181	64459	63579.2
902.4179	1654.2604	64453.5	63571.05
902.5598	1656.0019	64496.7	63614.4
902.7016	1657.7427	64400.35	63518.6
902.8434	1659.4828	64534.65	63650.75
902.9852	1661.222	64387.8	63504
903.127	1662.9606	64579.1	63696.5
903.2687	1664.6984	64304.8	63424.2
903.4105	1666.4354	64398.05	63515.85
903.5522	1668.1717	64135.1	63252.3
903.6939	1669.9072	63891.55	63008.95
903.8356	1671.642	63885.05	63000.9
903.9773	1673.3761	63814.3	62935.25
904.119	1675.1094	63747.05	62865.25
904.2606	1676.8419	63491.25	62609.35
904.4022	1678.5737	63509.35	62624.25
904.5439	1680.3048	63418.35	62536.35
904.6855	1682.0351	63321.9	62438.25
904.827	1683.7646	63226.55	62341.55
904.9686	1685.4934	63287.95	62405.85
905.1101	1687.2215	62817.15	61937.1
905.2517	1688.9488	63176.1	62291.75
905.3932	1690.6754	62388.6	61504.85
905.5347	1692.4012	62806.9	61925
905.6761	1694.1263	62824.1	61940.95
905.8176	1695.8506	62529.5	61648.6
905.9591	1697.5742	62605.45	61724
906.1005	1699.297	62478.85	61596.55
906.2419	1701.0191	62491.35	61609.95
906.3833	1702.7404	62044.65	61162.8
906.5246	1704.461	61899.2	61015.6
906.666	1706.1808	62155.75	61271.95
906.8073	1707.8999	61987.25	61106.4
906.9487	1709.6182	61778.4	60895.9
907.09	1711.3358	61741.4	60860.45
907.2313	1713.0527	61681.45	60802.1
907.3725	1714.7688	61744.2	60856.55
907.5138	1716.4841	61167.55	60284.9
907.655	1718.1987	61350.15	60462.65
907.7962	1719.9126	61178.8	60297.2
907.9374	1721.6257	61262.85	60378.8
908.0786	1723.338	61310.65	60429.4
908.2198	1725.0496	60568.85	59687.2
908.3609	1726.7605	60639.1	59758.2
908.502	1728.4706	60406.95	59524.8
908.6431	1730.18	60636.45	59753.25
908.7842	1731.8886	60283.75	59402.05
908.9253	1733.5964	60118.5	59231.3
909.0664	1735.3036	60448.5	59566.5
909.2074	1737.0099	60183.4	59301.8
909.3484	1738.7156	59831	58950.4
909.4894	1740.4204	59744.55	58859.95
909.6304	1742.1246	59843.95	58962.55
909.7714	1743.8279	59936.85	59056.6
909.9123	1745.5306	59854.95	58973.45
910.0532	1747.2325	59016.05	58134.5
910.1941	1748.9336	59025.85	58145.2
910.335	1750.634	59182.1	58298.3
910.4759	1752.3336	59383.95	58504.6
910.6168	1754.0325	58798.7	57918.8
910.7576	1755.7307	59302.8	58421.95
910.8984	1757.4281	58602	57722.15
911.0392	1759.1247	59045.6	58155.95
911.18	1760.8206	58271.3	57385.4
911.3208	1762.5158	58317.8	57430.85
911.4615	1764.2102	58449.3	57571.05
911.6022	1765.9039	58302.6	57422
911.7429	1767.5968	58117.15	57236.35
911.8836	1769.289	57985.45	57104
912.0243	1770.9804	58051	57169.8
912.1649	1772.6711	57914.4	57032.35
912.3056	1774.361	57719.6	56837.7
912.4462	1776.0502	57705.05	56822
912.5868	1777.7386	57075.15	56190.8
912.7274	1779.4263	57365.8	56484.65
912.8679	1781.1132	57367.05	56484.25
913.0084	1782.7994	57174.75	56290.05
913.149	1784.4849	57223.95	56343.9
913.2895	1786.1696	56395.85	55508.85
913.4299	1787.8535	56807.35	55926.65
913.5704	1789.5367	56902.8	56021.75
913.7108	1791.2192	56354.5	55475.85
913.8513	1792.9009	56082.45	55171.2
913.9917	1794.5818	56368.1	55485.4
914.132	1796.2621	55945.2	55065.1
914.2724	1797.9415	55963.2	55081.05
914.4128	1799.6202	55854.35	54973.85
914.5531	1801.2982	55841.7	54958.85
914.6934	1802.9755	55396.7	54514.6
914.8337	1804.6519	55225.25	54344.35
914.9739	1806.3277	55778.4	54899
915.1142	1808.0027	54746.6	53866.3
915.2544	1809.6769	55110.9	54229.45
915.3946	1811.3504	55172.7	54289.7
915.5348	1813.0231	54363.1	53482.3
915.675	1814.6951	54886.65	54006.95
915.8151	1816.3664	54555.8	53671.5
915.9553	1818.0369	54505.85	53624.3
916.0954	1819.7067	54275.2	53396.9
916.2355	1821.3757	54649.1	53766.55
916.3755	1823.044	53964.15	53082.75
916.5156	1824.7115	53708.3	52826.65
916.6556	1826.3783	53796.3	52915.95
916.7956	1828.0443	53746.5	52866.95
916.9356	1829.7096	53509.2	52627.25
917.0756	1831.3741	53098.1	52215.85
917.2155	1833.0379	53270.8	52391.5
917.3555	1834.701	53215.95	52332.35
917.4954	1836.3633	52834.6	51951.8
917.6353	1838.0248	53000.6	52118.3
917.7751	1839.6856	52846.6	51964.75
917.915	1841.3457	52501.1	51620.6
918.0548	1843.005	52834.45	51954.7
918.1946	1844.6636	52473.5	51593
918.3344	1846.3214	52049.1	51170.5
918.4742	1847.9785	52171.9	51293.35
918.6139	1849.6349	52044.6	51163.25
918.7537	1851.2904	52280.75	51391.3
918.8934	1852.9453	51701.55	50821.75
919.0331	1854.5994	51826.7	50942.15
919.1727	1856.2528	51860.7	50974
919.3124	1857.9054	51500.05	50618.65
919.452	1859.5572	51374.2	50495.15
919.5916	1861.2083	51433.75	50552.1
919.7312	1862.8587	51733.9	50852.9
919.8708	1864.5084	50861.4	49977.25
920.0103	1866.1572	51113.15	50233.15
920.1498	1867.8054	50610.8	49729.95
920.2893	1869.4528	50831.8	49952.8
920.4288	1871.0994	50413.2	49531.35
920.5683	1872.7453	50475.65	49593.95
920.7077	1874.3905	50451.1	49562.95
920.8471	1876.0349	50062	49180
920.9865	1877.6786	50322.35	49440.3
921.1259	1879.3215	50065.4	49184.25
921.2653	1880.9637	50267.25	49385.95
921.4046	1882.6051	49932.2	49052.15
921.5439	1884.2458	49692.2	48809.6
921.6832	1885.8858	49443.95	48564.35
921.8225	1887.525	49549.8	48668.55
921.9617	1889.1634	49310.85	48428.85
922.101	1890.8011	49170.6	48289.25
922.2402	1892.4381	48813.8	47933.1
922.3794	1894.0743	49124.05	48244.75
922.5185	1895.7098	48799.85	47920.45
922.6577	1897.3446	48638.75	47755.55
922.7968	1898.9786	48624	47738.95
922.9359	1900.6118	48419.5	47540.05
923.075	1902.2443	48118.25	47232.5
923.214	1903.8761	48214.85	47336.65
923.3531	1905.5071	47925.7	47042.9
923.4921	1907.1374	47597.2	46716
923.6311	1908.7669	47677.55	46796.85
923.77	1910.3957	47718.05	46837
923.909	1912.0237	47289.9	46408.3
924.0479	1913.651	47106.05	46224.05
924.1868	1915.2776	47028.7	46150.65
924.3257	1916.9034	46899.05	46019.95
924.4646	1918.5285	46701.45	45820.9
924.6034	1920.1528	46546	45664.45
924.7422	1921.7764	46476.3	45596.55
924.881	1923.3992	46309.55	45429.4
925.0198	1925.0213	46002.15	45121.45
925.1586	1926.6427	45771.3	44894.05
925.2973	1928.2633	45926.05	44837.7
925.436	1929.8832	45646.4	44763.75
925.5747	1931.5023	45384.75	44502.95
925.7134	1933.1207	45251.45	44370.3
925.852	1934.7383	45258.55	44375.75
925.9906	1936.3552	45001.6	44119.95
926.1292	1937.9714	44925.55	44044.3
926.2678	1939.5868	44756.2	43873.25
926.4064	1941.2015	44479.85	43600.4
926.5449	1942.8154	44305.05	43423.6
926.6834	1944.4286	44140.3	43259.65
926.8219	1946.041	44070.95	43170.8
926.9604	1947.6528	43796.65	42912.5
927.0988	1949.2637	43685.05	42805.55
927.2372	1950.8739	43559.05	42677.95
927.3756	1952.4834	43471.75	42589.8
927.514	1954.0921	43449.05	42568.9
927.6523	1955.7001	43183.2	42299.6
927.7907	1957.3074	43113.35	42233.75
927.929	1958.9139	42887.65	42005.7
928.0673	1960.5197	42762.5	41880.85
928.2055	1962.1247	42502.3	41621.9
928.3438	1963.729	42374.4	41493.4
928.482	1965.3325	42239.35	41335.4
928.6202	1966.9353	42106.8	41227.95
928.7584	1968.5374	41956.65	41075.75
928.8965	1970.1387	41790.5	40910.15
929.0346	1971.7393	41642.9	40762.2
929.1727	1973.3392	41500.1	40620.35
929.3108	1974.9383	41336.7	40457.6
929.4489	1976.5366	41167.5	40287.35
929.5869	1978.1342	41177.35	40297.75
929.7249	1979.7311	41025.9	40146.95
929.8629	1981.3273	40925.7	40048.15
930.0009	1982.9227	40764.55	39881.2
930.1388	1984.5173	40641	39761.25
930.2767	1986.1112	40460.75	39582.75
930.4146	1987.7044	40390.7	39508.65
930.5525	1989.2968	40229.3	39348.35
930.6904	1990.8885	40135.85	39253.6
930.8282	1992.4795	40085.95	39204.85
930.966	1994.0697	39930.9	39049.55
931.1038	1995.6592	39790.05	38910.95
931.2415	1997.2479	39632.1	38750.75
931.3793	1998.8359	39531.4	38651.2
931.517	2000.4232	39363.05	38483.85
931.6547	2002.0097	39269.65	38390.3
931.7923	2003.5955	39063.2	38183.15
931.93	2005.1805	39077.15	38196.2
932.0676	2006.7648	38894.1	38014.3
932.2052	2008.3484	38819.45	37938.95
932.3427	2009.9312	38891.75	38010.25
932.4803	2011.5133	38636.9	37758.2
932.6178	2013.0946	38489.55	37611.7
932.7553	2014.6752	38423.05	37544
932.8928	2016.2551	38300.7	37420.25
933.0302	2017.8342	38164.85	37285.9
933.1676	2019.4126	38012	37134.65
933.305	2020.9902	37838.35	36959.25
933.4424	2022.5672	37791.1	36909.1
933.5798	2024.1433	37704.4	36820.15
933.7171	2025.7188	37559.5	36681.25
933.8544	2027.2935	37425.4	36544.95
933.9917	2028.8674	37259.25	36380.1
934.129	2030.4406	37164.55	36287.75
934.2662	2032.0131	36982.45	36103.75
934.4034	2033.5849	36881.05	35993.15
934.5406	2035.1559	36796.5	35917.6
934.6778	2036.7261	36767.05	35887.55
934.8149	2038.2957	36658.55	35780.9
934.952	2039.8645	36596.55	35716.85
935.0891	2041.4325	36523.95	35641.35
935.2262	2042.9998	36386.2	35506.85
935.3632	2044.5664	36283.45	35401.7
935.5002	2046.1323	36161.65	35282.7
935.6372	2047.6974	36043.5	35165.65
935.7742	2049.2617	35954	35074.8
935.9111	2050.8254	35922.9	35038.3
936.048	2052.3883	35892.8	35013.1
936.1849	2053.9504	35714.9	34835.45
936.3218	2055.5118	35626.9	34746.35
936.4586	2057.0725	35435.75	34552.45
936.5955	2058.6325	35345.15	34464.1
936.7323	2060.1917	35197.75	34318.45
936.869	2061.7502	35125.9	34243.75
937.0058	2063.3079	35011.9	34132.35
937.1425	2064.8649	34896.2	34012.1
937.2792	2066.4212	34819.65	33940.85
937.4159	2067.9767	34692.55	33815.4
937.5525	2069.5315	34546.35	33668.75
937.6891	2071.0856	34380.75	33501.45
937.8257	2072.6389	34273.25	33391.65
937.9623	2074.1915	34103.4	33226.5
938.0989	2075.7433	33906.3	33023.75
938.2354	2077.2945	33903	33024.15
938.3719	2078.8448	33807.75	32928.25
938.5084	2080.3945	33682	32801.35
938.6448	2081.9434	33630	32752.1
938.7812	2083.4916	33511.4	32630.35
938.9176	2085.039	33327.65	32446.3
939.054	2086.5857	33259	32379.8
939.1903	2088.1317	33214.65	32334.1
939.3267	2089.677	33122.6	32241.85
939.463	2091.2215	33022.55	32142.55
939.5992	2092.7652	32942.1	32059.5
939.7355	2094.3083	32837.5	31958.1
939.8717	2095.8506	32806.9	31927.15
940.0079	2097.3921	32832.05	31954.2
940.1441	2098.933	32682.2	31803.75
940.2802	2100.4731	32550.3	31671.35
940.4163	2102.0124	32516.5	31619.2
940.5524	2103.5511	32405.7	31525.4
940.6885	2105.089	32353.9	31474.45
940.8245	2106.6261	32261.7	31382.4
940.9606	2108.1626	32199.7	31320.2
941.0965	2109.6983	32123.25	31213.35
941.2325	2111.2332	32003.05	31123.8
941.3684	2112.7675	31916.65	31037.8
941.5044	2114.301	31840.1	30958.95
941.6403	2115.8337	31760.65	30880.65
941.7761	2117.3657	31655.15	30776.05
941.912	2118.897	31573.35	30692.65
942.0478	2120.4276	31443.8	30558.15
942.1835	2121.9575	31317.25	30438
942.3193	2123.4866	31398.1	30503.15
942.455	2125.0149	31265.25	30383.65
942.5907	2126.5426	31012.25	30130.85
942.7264	2128.0695	30992.3	30107.75
942.8621	2129.5956	30930.05	30051.95
942.9977	2131.1211	30846.25	29961.4
943.1333	2132.6458	30745.75	29866.45
943.2689	2134.1698	30680.7	29799.65
943.4044	2135.693	30601.7	29720.2
943.54	2137.2155	30519.45	29636.35
943.6755	2138.7373	30476.25	29594.9
943.8109	2140.2584	30357.45	29475.85
943.9464	2141.7787	30261.4	29376.1
944.0818	2143.2983	30117.85	29240.65
944.2172	2144.8171	29953.9	29078.05
944.3526	2146.3353	29915.1	29034.4
944.4879	2147.8527	29743.6	28864.95
944.6232	2149.3693	29772.5	28891.85
944.7585	2150.8853	29627.2	28747.65
944.8938	2152.4005	29484.5	28606
945.029	2153.9149	29469.9	28590
945.1642	2155.4287	29341.05	28462.7
945.2994	2156.9417	29297.45	28415.9
945.4346	2158.454	29175.85	28292.65
945.5697	2159.9655	29114.35	28233.95
945.7048	2161.4764	29070.8	28191.35
945.8399	2162.9865	28937.05	28057.15
945.9749	2164.4958	28866.9	27983.55
946.1099	2166.0045	28762.7	27881.3
946.2449	2167.5124	28691.9	27811.7
946.3799	2169.0195	28664.85	27786
946.5148	2170.526	28615.55	27735.4
946.6498	2172.0317	28527.15	27648.2
946.7846	2173.5367	28421.55	27541.55
946.9195	2175.0409	28341.6	27461.65
947.0543	2176.5445	28301.5	27423.2
947.1891	2178.0473	28176.55	27296.7
947.3239	2179.5494	28039.95	27155.6
947.4587	2181.0507	27905	27026.05
947.5934	2182.5513	27856.5	26976.95
947.7281	2184.0512	27809.3	26930.45
947.8628	2185.5504	27738.3	26858.7
947.9974	2187.0488	27558.65	26679.15
948.132	2188.5465	27470.9	26591.75
948.2666	2190.0435	27350.9	26470.45
948.4012	2191.5397	27330.4	26451.55
948.5357	2193.0353	27219.3	26342.9
948.6702	2194.5301	27042.85	26160
948.8047	2196.0241	26960.3	26079.4
948.9392	2197.5175	26947	26066.25
949.0736	2199.0101	26832.75	25952.75
949.208	2200.502	26650.95	25774.95
949.3424	2201.9931	26578.1	25697.7
949.4767	2203.4835	26466.65	25583.45
949.611	2204.9733	26423.2	25538.5
949.7453	2206.4622	26390.75	25511.4
949.8796	2207.9505	26271.7	25391.15
950.0138	2209.438	26120.6	25243.65
950.148	2210.9248	26072.9	25192.85
950.2822	2212.4109	25971.3	25092.65
950.4164	2213.8962	25856.3	24973.15
950.5505	2215.3809	25830.45	24951.3
950.6846	2216.8648	25780.05	24900.75
950.8186	2218.3479	25673.15	24788.9
950.9527	2219.8304	25566.85	24683.05
951.0867	2221.3121	25461.95	24579.7
951.2207	2222.7931	25380.2	24502.55
951.3546	2224.2733	25273.1	24392.75
951.4886	2225.7529	25170.75	24288.95
951.6225	2227.2317	25096.2	24212.9
951.7563	2228.7098	25073.35	24193.65
951.8902	2230.1872	24911.75	24033.25
952.024	2231.6638	24906.1	24026.6
952.1578	2233.1397	24791.55	23905.7
952.2916	2234.6149	24742.75	23865.55
952.4253	2236.0894	24662.5	23781.85
952.559	2237.5632	24592.7	23712.35
952.6927	2239.0362	24475.75	23595.25
952.8263	2240.5085	24380.7	23500.1
952.9599	2241.9801	24321	23440.25
953.0935	2243.4509	24233.45	23352.45
953.2271	2244.921	24144.55	23267
953.3606	2246.3904	24019.05	23137.75
953.4941	2247.8591	23978.25	23097.85
953.6276	2249.3271	23918.15	23039.55
953.7611	2250.7943	23819.85	22941.15
953.8945	2252.2608	23728.3	22849
954.0279	2253.7266	23689.45	22810
954.1612	2255.1917	23627.1	22746.75
954.2946	2256.656	23514.85	22632.9
954.4279	2258.1197	23446.25	22568.1
954.5612	2259.5826	23415.75	22535.4
954.6944	2261.0447	23376.75	22498.45
954.8276	2262.5062	23232.35	22350.05
954.9608	2263.9669	23188	22307.35
955.094	2265.4269	23133.55	22253.65
955.2271	2266.8862	23048.75	22167.95
955.3602	2268.3448	22988.2	22108.9
955.4933	2269.8026	23004.55	22124.6
955.6264	2271.2598	22904.3	22023.8
955.7594	2272.7162	22789.4	21909.9
955.8924	2274.1719	22718.55	21838.35
956.0253	2275.6268	22651.9	21771.05
956.1583	2277.0811	22611.75	21729.35
956.2912	2278.5346	22507.3	21629.25
956.4241	2279.9874	22478.65	21598.8
956.5569	2281.4395	22419.15	21541
956.6897	2282.8908	22337.8	21453.3
956.8225	2284.3414	22272.55	21391.2
956.9553	2285.7914	22214.2	21335.7
957.088	2287.2406	22125.35	21242.05
957.2207	2288.689	22086.75	21206.25
957.3534	2290.1368	22021.7	21140.7
957.486	2291.5838	21938.5	21056.25
957.6186	2293.0302	21828.55	20947.4
957.7512	2294.4758	21731.5	20852.25
957.8838	2295.9206	21661.5	20780.85
958.0163	2297.3648	21630.3	20751.6
958.1488	2298.8082	21606.9	20727.9
958.2813	2300.251	21541.6	20663.3
958.4137	2301.693	21454.35	20572.4
958.5461	2303.1343	21396.7	20516.2
958.6785	2304.5748	21309.9	20429.4
958.8108	2306.0147	21258.8	20378.4
958.9432	2307.4538	21214.1	20330.3
959.0754	2308.8922	21145.9	20267.65
959.2077	2310.3299	21085	20206.85
959.3399	2311.7669	20991.75	20113.65
959.4721	2313.2031	20917.95	20037
959.6043	2314.6387	20831.2	19950.65
959.7365	2316.0735	20770.15	19889.7
959.8686	2317.5076	20744.75	19863.85
960.0006	2318.941	20695.95	19816.2
960.1327	2320.3737	20623.35	19741.2
960.2647	2321.8056	20589.85	19708.75
960.3967	2323.2369	20502.05	19623.95
960.5287	2324.6674	20424.75	19542.35
960.6606	2326.0972	20351	19470.45
960.7925	2327.5263	20276.35	19396
960.9244	2328.9547	20230.1	19352.65
961.0562	2330.3823	20127.95	19248.05
961.1881	2331.8092	20142.35	19260.15
961.3198	2333.2355	20001.45	19121.35
961.4516	2334.661	20020.7	19142.4
961.5833	2336.0858	19968.9	19086.3
961.715	2337.5098	19874.4	18993.7
961.8467	2338.9332	19839.25	18957.8
961.9783	2340.3558	19762.85	18880.1
962.1099	2341.7778	19689.15	18808.6
962.2415	2343.199	19612.25	18728.95
962.373	2344.6195	19577.25	18697.45
962.5045	2346.0393	19535.85	18658.4
962.636	2347.4583	19471.35	18592
962.7675	2348.8767	19399.35	18519.75
962.8989	2350.2943	19354.7	18473.85
963.0303	2351.7113	19322.5	18440.9
963.1617	2353.1275	19249.2	18370
963.293	2354.543	19179.1	18288.95
963.4243	2355.9578	19149.3	18270.45
963.5556	2357.3718	18998.25	18118.35
963.6868	2358.7852	18929.7	18046.3
963.818	2360.1978	18875.45	17996.5
963.9492	2361.6098	18837.45	17957.75
964.0803	2363.021	18743.35	17859.5
964.2114	2364.4315	18695.5	17816.75
964.3425	2365.8413	18614.1	17732.5
964.4736	2367.2504	18562.15	17681.65
964.6046	2368.6587	18474.1	17594.75
964.7356	2370.0664	18439.65	17558.65
964.8666	2371.4733	18411.7	17532.5
964.9975	2372.8795	18298.1	17417.4
965.1284	2374.285	18222	17342.4
965.2593	2375.6899	18101.2	17224.45
965.3901	2377.0939	18074.7	17196.3
965.5209	2378.4973	18002.2	17122.75
965.6517	2379.9	17956.8	17077.85
965.7825	2381.3019	17895.9	17015.1
965.9132	2382.7032	17836.25	16957.15
966.0439	2384.1037	17818.8	16941.3
966.1745	2385.5035	17723.85	16844.8
966.3051	2386.9027	17665.15	16788.45
966.4357	2388.3011	17614.85	16733.2
966.5663	2389.6987	17623.2	16744.3
966.6968	2391.0957	17531.15	16653.05
966.8273	2392.492	17434.3	16556.5
966.9578	2393.8876	17311.6	16432.8
967.0882	2395.2824	17265.25	16385.5
967.2186	2396.6765	17215.95	16337.3
967.349	2398.07	17121.35	16241.95
967.4793	2399.4627	17139.25	16257.5
967.6097	2400.8547	17068.95	16190.25
967.7399	2402.246	16990.1	16104
967.8702	2403.6366	16871.5	15991.3
968.0004	2405.0265	16797.35	15917.3
968.1306	2406.4156	16736.9	15852.65
968.2607	2407.8041	16675.9	15794.1
968.3909	2409.1918	16611	15728.5
968.521	2410.5789	16544.95	15665.5
968.651	2411.9652	16514	15631.45
968.781	2413.3508	16442.35	15560.7
968.911	2414.7358	16386.5	15505.55
969.041	2416.12	16321	15442.05
969.1709	2417.5035	16275	15396.45
969.3008	2418.8863	16186.85	15309.4
969.4307	2420.2684	16180.25	15299.35
969.5606	2421.6497	16086.25	15207.15
969.6904	2423.0304	15987.15	15110.15
969.8201	2424.4104	15941.8	15062.8
969.9499	2425.7896	15879.35	14997.5
970.0796	2427.1682	15837.35	14956.9
970.2093	2428.546	15819.65	14939.3
970.3389	2429.9232	15789.25	14907.65
970.4685	2431.2996	15724.1	14843.8
970.5981	2432.6753	15677.15	14800.05
970.7277	2434.0503	15669.95	14791.5
970.8572	2435.4246	15570.25	14691.3
970.9867	2436.7982	15501.05	14620.2
971.1161	2438.1711	15455.45	14577.55
971.2456	2439.5433	15406.1	14526.1
971.375	2440.9148	15321.65	14441.6
971.5043	2442.2856	15245.3	14367.4
971.6336	2443.6557	15224	14342.15
971.7629	2445.025	15181.8	14304.25
971.8922	2446.3937	15152.75	14272.15
972.0214	2447.7617	15070.65	14189.4
972.1506	2449.1289	15094.5	14215.4
972.2798	2450.4955	15030.05	14147.35
972.4089	2451.8613	14976.85	14098.2
972.538	2453.2265	14927.1	14047.45
972.6671	2454.5909	14900.4	14019.65
972.7961	2455.9546	14845.2	13966.45
972.9251	2457.3177	14750	13870.35
973.0541	2458.68	14728.45	13848.05
973.1831	2460.0416	14693.5	13816
973.312	2461.4025	14690.85	13810.55
973.4408	2462.7627	14658.1	13766.85
973.5697	2464.1222	14570.05	13691.2
973.6985	2465.4811	14529.5	13647.9
973.8273	2466.8392	14484.5	13605.6
973.956	2468.1966	14467.25	13583.75
974.0847	2469.5533	14454.5	13572.55
974.2134	2470.9093	14387.95	13506.9
974.3421	2472.2645	14320.5	13438.35
974.4707	2473.6191	14285.25	13406.05
974.5993	2474.973	14201.05	13323.8
974.7278	2476.3262	14158.05	13275.85
974.8563	2477.6787	14103.95	13226.75
974.9848	2479.0305	14037.35	13155.5
975.1132	2480.3816	13989.35	13109.2
975.2417	2481.7319	13930.8	13049.3
975.37	2483.0816	13883.9	13002.7
975.4984	2484.4306	13825.3	12945.9
975.6267	2485.7789	13786.65	12906.85
975.755	2487.1264	13728.35	12846.65
975.8833	2488.4733	13673.15	12795.4
976.0115	2489.8195	13632.75	12747.5
976.1397	2491.165	13549.8	12669.25
976.2678	2492.5097	13507.75	12627.05
976.3959	2493.8538	13467.25	12589.7
976.524	2495.1972	13388.35	12508.3
976.6521	2496.5398	13369.65	12487.7
976.7801	2497.8818	13314.8	12433.9
976.9081	2499.2231	13284	12402.95
977.036	2500.5637	13220.1	12339.3
977.164	2501.9035	13186.3	12305.55
977.2918	2503.2427	13149.25	12265.45
977.4197	2504.5812	13069.9	12191.35
977.5475	2505.919	13095.6	12212.85
977.6753	2507.256	13057.45	12178.3
977.8031	2508.5924	12949.65	12071.95
977.9308	2509.9281	12953.7	12068.45
978.0585	2511.2631	12876.15	11996.1
978.1861	2512.5974	12864.05	11984.35
978.3137	2513.9309	12799.2	11920.5
978.4413	2515.2638	12801.5	11894.5
978.5689	2516.596	12717.25	11839.25
978.6964	2517.9275	12635.85	11754.85
978.8239	2519.2583	12617	11737
978.9513	2520.5884	12558.4	11676.95
979.0788	2521.9178	12498.55	11620.05
979.2062	2523.2465	12475.3	11597.05
979.3335	2524.5745	12402.25	11523.9
979.4608	2525.9018	12381.1	11501.55
979.5881	2527.2284	12319.05	11441.85
979.7154	2528.5543	12314.4	11435.4
979.8426	2529.8796	12273.1	11391.95
979.9698	2531.2041	12249.2	11368.65
980.0969	2532.5279	12211.05	11331.5
980.224	2533.851	12164.15	11284.95
980.3511	2535.1735	12177.4	11299.85
980.4781	2536.4952	12118.8	11239.3
980.6052	2537.8163	12086.6	11207.05
980.7321	2539.1366	12039.15	11161.15
980.8591	2540.4562	12002.25	11122.45
980.986	2541.7752	11992.4	11113.15
981.1129	2543.0935	11942.55	11061.1
981.2397	2544.411	11934	11055.8
981.3665	2545.7279	11911.6	11033.1
981.4933	2547.0441	11870.4	10991.3
981.62	2548.3596	11841.85	10960.8
981.7467	2549.6744	11819.8	10940.65
981.8734	2550.9885	11799.6	10913.75
982.0001	2552.3019	11745.1	10866.15
982.1267	2553.6146	11735.95	10856.05
982.2532	2554.9266	11672.05	10791.2
982.3798	2556.2379	11643.5	10763.95
982.5063	2557.5485	11627.4	10751.45
982.6327	2558.8585	11596.4	10709.8
982.7592	2560.1677	11577.85	10694.6
982.8856	2561.4762	11531.4	10652.15
983.0119	2562.7841	11521.15	10638.3
983.1383	2564.0913	11485.15	10606
983.2646	2565.3977	11454.5	10575.4
983.3908	2566.7035	11441.05	10563
983.517	2568.0086	11418.4	10535.7
983.6432	2569.313	11396.4	10515.2
983.7694	2570.6167	11367.15	10484.05
983.8955	2571.9197	11314.9	10437.2
984.0216	2573.222	11309.35	10427.35
984.1476	2574.5236	11287.15	10408.55
984.2737	2575.8246	11225.05	10342.1
984.3996	2577.1248	11218.4	10336.45
984.5256	2578.4244	11209.85	10330.6
984.6515	2579.7232	11198	10319.8
984.7774	2581.0214	11179.5	10276.45
984.9032	2582.3189	11130.9	10253
985.029	2583.6157	11093.9	10209.7
985.1548	2584.9118	11062.5	10183.1
985.2806	2586.2072	11047.95	10170.8
985.4063	2587.5019	11001.3	10120.85
985.5319	2588.7959	10961.75	10081.05
985.6576	2590.0893	10951.8	10069.75
985.7832	2591.3819	10919.35	10042.85
985.9087	2592.6739	10886.7	10007.85
986.0343	2593.9652	10841.8	9961.1
986.1597	2595.2557	10812.45	9932.6
986.2852	2596.5456	10772.55	9891.55
986.4106	2597.8348	10744.45	9867.5
986.536	2599.1234	10659.7	9781.4
986.6614	2600.4112	10624.3	9744.95
986.7867	2601.6983	10611.3	9727.7
986.912	2602.9848	10562.3	9682.8
987.0372	2604.2705	10508.4	9621.85
987.1624	2605.5556	10508.15	9629.2
987.2876	2606.84	10426.45	9548.65
987.4128	2608.1237	10424.05	9542.05
987.5379	2609.4067	10384.6	9505.25
987.6629	2610.689	10330.35	9441.35
987.788	2611.9707	10288.35	9405.5
987.913	2613.2516	10247.7	9367.3
988.0379	2614.5319	10214.15	9336.05
988.1629	2615.8115	10180.25	9301.2
988.2878	2617.0903	10121.3	9241.95
988.4126	2618.3685	10073.15	9194.85
988.5375	2619.6461	10051.45	9173.4
988.6622	2620.9229	10025.25	9146.75
988.787	2622.199	10010.05	9129.45
988.9117	2623.4745	9977.3	9097.5
989.0364	2624.7493	9916.6	9038.25
989.161	2626.0234	9884.7	9005.55
989.2857	2627.2968	9853.65	8974.85
989.4102	2628.5695	9805.8	8925.75
989.5348	2629.8415	9772.95	8895.4
989.6593	2631.1128	9738.4	8856.75
989.7837	2632.3835	9699.5	8819.95
989.9082	2633.6535	9640.6	8761.15
990.0326	2634.9228	9617.1	8736.85
990.1569	2636.1914	9587.9	8710.75
990.2812	2637.4593	9585.3	8702.6
990.4055	2638.7265	9520.8	8641.6
990.5298	2639.9931	9509.45	8632.6
990.654	2641.259	9480.7	8600.6
990.7782	2642.5242	9450.6	8572.45
990.9023	2643.7887	9416.5	8536.4
991.0264	2645.0525	9425.35	8545.45
991.1505	2646.3156	9367.65	8489.85
991.2745	2647.5781	9322.05	8442.4
991.3985	2648.8398	9270.2	8392.8
991.5225	2650.1009	9277.75	8360.9
991.6464	2651.3613	9235.2	8356.5
991.7703	2652.6211	9211.75	8335.15
991.8942	2653.8801	9162.15	8285.3
992.018	2655.1385	9162.6	8278.8
992.1418	2656.3961	9140.2	8261
992.2655	2657.6531	9109.55	8229.8
992.3892	2658.9094	9078.75	8199.35
992.5129	2660.1651	9043.65	8167.25
992.6366	2661.42	9020.2	8142
992.7602	2662.6743	9010.35	8130.55
992.8837	2663.9279	9010.95	8132.4
993.0073	2665.1808	8934.65	8055.7
993.1307	2666.433	8932.7	8052.35
993.2542	2667.6846	8886.2	8008.15
993.3776	2668.9354	8888.6	8005.9
993.501	2670.1856	8851.55	7970.85
993.6244	2671.4351	8827	7948.65
993.7477	2672.6839	8831.4	7949.95
993.8709	2673.9321	8783.75	7905.1
993.9942	2675.1795	8744.6	7864.85
994.1174	2676.4263	8718.65	7838.3
994.2405	2677.6724	8678.35	7798.95
994.3637	2678.9179	8654.7	7775.25
994.4868	2680.1626	8615.7	7736.1
994.6098	2681.4067	8620.15	7742.85
994.7328	2682.6501	8601.65	7723.75
994.8558	2683.8928	8557.55	7680.3
994.9788	2685.1348	8519.5	7640.9
995.1017	2686.3761	8490.05	7609.85
995.2245	2687.6168	8457.05	7578.95
995.3474	2688.8568	8421	7540.9
995.4702	2690.0961	8411.65	7535.15
995.5929	2691.3348	8390.3	7509.6
995.7156	2692.5727	8360.8	7480.7
995.8383	2693.81	8331.1	7452.7
995.961	2695.0466	8301.8	7422.8
996.0836	2696.2826	8293.5	7414
996.2062	2697.5178	8233.25	7352.15
996.3287	2698.7524	8242.5	7364.65
996.4512	2699.9863	8218.85	7337.2
996.5737	2701.2195	8191.6	7314.35
996.6961	2702.452	8173.65	7293.7
996.8185	2703.6839	8125.4	7244.4
996.9408	2704.9151	8115.35	7237.65
997.0631	2706.1456	8085.3	7208.05
997.1854	2707.3755	8039.7	7161.75
997.3077	2708.6046	8028.6	7146.25
997.4299	2709.8331	8014.3	7134.55
997.552	2711.0609	7988.65	7108.1
997.6742	2712.2881	7963.6	7083.9
997.7963	2713.5145	7930.5	7049.45
997.9183	2714.7403	7901.5	7025.1
998.0403	2715.9654	7881.4	7003.9
998.1623	2717.1899	7844.7	6962.7
998.2842	2718.4136	7856.7	6978.7
998.4062	2719.6367	7826.7	6948.25
998.528	2720.8591	7819.45	6932.65
998.6498	2722.0809	7755.8	6878.15
998.7716	2723.3019	7738.05	6854.35
998.8934	2724.5223	7719.5	6839.55
999.0151	2725.7421	7704.3	6822.35
999.1368	2726.9611	7687.7	6809.05
999.2584	2728.1795	7673.15	6788.35
999.38	2729.3972	7605.85	6727.8
999.5016	2730.6142	7613.45	6726.45
999.6231	2731.8306	7533.6	6654
999.7446	2733.0462	7512.55	6631.55
999.8661	2734.2612	7468.7	6587.4
999.9875	2735.4756	7422.35	6539.55
1000.1089	2736.6892	7392.4	6514.3
1000.2302	2737.9022	7349.75	6471.15
1000.3515	2739.1145	7309.35	6430.5
1000.4728	2740.3262	7307.15	6420.55
1000.594	2741.5372	7253.4	6376.4
1000.7152	2742.7475	7225.65	6347.2
1000.8363	2743.9571	7204.25	6323.5
1000.9575	2745.1661	7185.85	6300.95
1001.0785	2746.3744	7174.1	6295.6
1001.1996	2747.582	7120.65	6242
1001.3206	2748.7889	7113	6233.3
1001.4415	2749.9952	7057.4	6178.5
1001.5625	2751.2008	7025.65	6144.95
1001.6833	2752.4057	7013.1	6132.35
1001.8042	2753.61	6994.05	6113.25
1001.925	2754.8136	6970.45	6089.6
1002.0458	2756.0165	6926.55	6047.4
1002.1665	2757.2188	6931.75	6052.95
1002.2872	2758.4204	6905	6026.1
1002.4078	2759.6213	6866.05	5983.45
1002.5285	2760.8215	6843.4	5961.65
1002.649	2762.0211	6824.75	5944.85
1002.7696	2763.22	6804.65	5921
1002.8901	2764.4182	6777.9	5898.7
1003.0106	2765.6158	6773.4	5893.7
1003.131	2766.8127	6734.95	5854.5
1003.2514	2768.009	6712.85	5834.05
1003.3717	2769.2045	6713.1	5833.7
1003.492	2770.3994	6695.1	5815.35
1003.6123	2771.5936	6655.85	5777.4
1003.7325	2772.7872	6609.4	5730.35
1003.8527	2773.9801	6573.95	5692.5
1003.9729	2775.1723	6579.7	5683.2
1004.093	2776.3639	6553.2	5675.55
1004.2131	2777.5548	6531.55	5649.8
1004.3331	2778.745	6511.3	5630.65
1004.4531	2779.9346	6498.15	5620.35
1004.5731	2781.1235	6472.75	5592.7
1004.693	2782.3117	6452.45	5573.1
1004.8129	2783.4992	6451.95	5573.65
1004.9328	2784.6861	6398.8	5518.15
1005.0526	2785.8723	6399.75	5521.2
1005.1723	2787.0579	6375.1	5494.85
1005.2921	2788.2428	6362.55	5484.6
1005.4118	2789.427	6333.35	5455.7
1005.5314	2790.6106	6323.3	5445.1
1005.651	2791.7935	6294.4	5415.45
1005.7706	2792.9757	6262.25	5385.2
1005.8902	2794.1573	6244.95	5362.9
1006.0097	2795.3382	6251.1	5374.15
1006.1291	2796.5184	6231	5351.35
1006.2485	2797.698	6217.45	5336.6
1006.3679	2798.8769	6195.65	5317.25
1006.4873	2800.0551	6185.05	5305.55
1006.6066	2801.2327	6173.25	5294
1006.7258	2802.4096	6147.8	5270.3
1006.8451	2803.5859	6137.25	5259.4
1006.9642	2804.7615	6148.85	5270.25
1007.0834	2805.9364	6139.6	5260.9
1007.2025	2807.1106	6124.9	5246.3
1007.3216	2808.2842	6124.85	5244.4
1007.4406	2809.4572	6103.2	5224.7
1007.5596	2810.6294	6122.4	5243.1
1007.6785	2811.801	6146.55	5268.35
1007.7975	2812.972	6160.85	5283.85
1007.9163	2814.1423	6177.85	5300.35
1008.0352	2815.3119	6170.05	5291.3
1008.154	2816.4808	6170.35	5293.7
1008.2727	2817.6491	6193.8	5313.85
1008.3914	2818.8167	6222.85	5345.3
1008.5101	2819.9837	6248.5	5366.15
1008.6288	2821.15	6269.1	5392.9
1008.7474	2822.3157	6306.4	5428.8
1008.8659	2823.4807	6339.15	5460.6
1008.9844	2824.645	6354.85	5475.35
1009.1029	2825.8086	6379.45	5502.75
1009.2214	2826.9716	6392.95	5515.55
1009.3398	2828.134	6445.55	5568.15
1009.4581	2829.2957	6448.95	5569.55
1009.5764	2830.4567	6449.95	5574.7
1009.6947	2831.617	6458.2	5579.45
1009.813	2832.7767	6441.35	5562.35
1009.9312	2833.9358	6438.05	5560.55
1010.0493	2835.0941	6424.1	5542.45
1010.1675	2836.2519	6409.45	5532.3
1010.2855	2837.4089	6372.4	5493.9
1010.4036	2838.5653	6357.25	5479.65
1010.5216	2839.7211	6334.1	5456.2
1010.6396	2840.8761	6319.5	5439.6
1010.7575	2842.0306	6333.6	5455.8
1010.8754	2843.1843	6327.5	5447.7
1010.9932	2844.3374	6334.85	5457.4
1011.111	2845.4899	6368.2	5489.15
1011.2288	2846.6417	6369.5	5490.45
1011.3465	2847.7928	6395.7	5517.75
1011.4642	2848.9433	6442.55	5564.4
1011.5818	2850.0931	6486.05	5605.9
1011.6995	2851.2422	6506.4	5628.2
1011.817	2852.3907	6547.6	5668.75
1011.9345	2853.5385	6569.9	5690.25
1012.052	2854.6857	6624.1	5735.85
1012.1695	2855.8323	6619.15	5741.55
1012.2869	2856.9781	6645.9	5768.65
1012.4042	2858.1233	6665.1	5785.6
1012.5216	2859.2679	6689.15	5809.1
1012.6389	2860.4118	6701.15	5821.7
1012.7561	2861.555	6710.1	5827.05
1012.8733	2862.6976	6726.3	5847.4
1012.9905	2863.8395	6741.7	5863.45
1013.1076	2864.9808	6742.1	5864.1
1013.2247	2866.1214	6738.75	5862.4
1013.3417	2867.2614	6737.2	5856.7
1013.4587	2868.4007	6732.05	5853
1013.5757	2869.5393	6724	5842.5
1013.6926	2870.6773	6716.55	5836.45
1013.8095	2871.8146	6705	5822.5
1013.9263	2872.9513	6688.1	5807.25
1014.0431	2874.0874	6660.9	5783.5
1014.1599	2875.2227	6641.45	5762.5
1014.2766	2876.3574	6599.95	5720.9
1014.3933	2877.4915	6562.2	5686.2
1014.51	2878.6249	6541.8	5662.6
1014.6266	2879.7577	6516.65	5636.95
1014.7431	2880.8898	6456.5	5567
1014.8596	2882.0212	6420.7	5545
1014.9761	2883.152	6414.6	5533.65
1015.0925	2884.2821	6396.3	5519.15
1015.2089	2885.4116	6364.25	5485.85
1015.3253	2886.5405	6328.5	5450.6
1015.4416	2887.6686	6315.9	5432.95
1015.5579	2888.7962	6315.35	5438
1015.6741	2889.923	6292.5	5414.9
1015.7903	2891.0493	6294.15	5416.9
1015.9065	2892.1748	6270.15	5392.2
1016.0226	2893.2997	6270.8	5391.2
1016.1387	2894.424	6256.1	5378.35
1016.2547	2895.5476	6256.95	5377.5
1016.3707	2896.6706	6272.5	5393.65
1016.4866	2897.7929	6267.35	5388.3
1016.6025	2898.9145	6262.2	5384.7
1016.7184	2900.0355	6269.25	5389.65
1016.8342	2901.1559	6276.65	5398.25
1016.95	2902.2756	6282.85	5406.05
1017.0658	2903.3946	6278.45	5400
1017.1815	2904.513	6278.65	5396.9
1017.2971	2905.6308	6282.5	5408.1
1017.4127	2906.7479	6283.45	5404.2
1017.5283	2907.8643	6285.35	5407.9
1017.6439	2908.9801	6295.3	5415.75
1017.7594	2910.0953	6274.9	5397.65
1017.8748	2911.2098	6265.7	5383.95
1017.9902	2912.3236	6224.25	5338.15
1018.1056	2913.4368	6225.2	5345.3
1018.2209	2914.5494	6185.25	5307.35
1018.3362	2915.6613	6141.75	5257.95
1018.4515	2916.7725	6127.1	5245.8
1018.5667	2917.8831	6063.45	5183.55
1018.6819	2918.9931	6063.45	5182.3
1018.797	2920.1024	6013.2	5133.65
1018.9121	2921.211	6000	5121.05
1019.0271	2922.319	5968.5	5090
1019.1421	2923.4264	5938.35	5060.65
1019.2571	2924.5331	5936.8	5058.8
1019.372	2925.6391	5903.95	5027.75
1019.4869	2926.7445	5877.25	4999.2
1019.6017	2927.8493	5859.15	4980.55
1019.7165	2928.9534	5851.3	4972.95
1019.8313	2930.0569	5843.55	4961.85
1019.946	2931.1597	5840.5	4962.45
1020.0606	2932.2619	5819.4	4941.4
1020.1753	2933.3634	5810.9	4933
1020.2899	2934.4643	5801.05	4917.55
1020.4044	2935.5645	5784.15	4898.05
1020.5189	2936.6641	5772.25	4892.6
1020.6334	2937.763	5725.55	4847.35
1020.7478	2938.8613	5678.95	4801
1020.8622	2939.959	5644.7	4760.75
1020.9765	2941.056	5566.85	4689.8
1021.0908	2942.1523	5489.75	4608.95
1021.2051	2943.248	5431.85	4554.45
1021.3193	2944.3431	5352.25	4475.25
1021.4334	2945.4375	5264.55	4386.15
1021.5476	2946.5313	5176.35	4298.15
1021.6617	2947.6244	5091.05	4213.25
1021.7757	2948.7169	5006.85	4128.05
1021.8897	2949.8087	4925.55	4047.3
1022.0037	2950.8999	4821.7	3941.95
1022.1176	2951.9904	4764.25	3887.8
1022.2315	2953.0803	4697.1	3816.25
1022.3453	2954.1696	4639.4	3760.6
1022.4591	2955.2582	4595.65	3718.3
1022.5728	2956.3462	4549.55	3671.65
1022.6865	2957.4335	4500.1	3621.3
1022.8002	2958.5202	4448.4	3567.5
1022.9138	2959.6062	4416.7	3539.05
1023.0274	2960.6916	4393.75	3513.6
1023.141	2961.7764	4383.35	3505.8
1023.2545	2962.8605	4340.7	3460.85
1023.3679	2963.9439	4327.85	3450.65
1023.4813	2965.0267	4289.85	3412.15
1023.5947	2966.1089	4302.95	3402.3
1023.708	2967.1905	4265.05	3388.25
1023.8213	2968.2714	4237.7	3358.65
1023.9346	2969.3516	4241.85	3363.8
1024.0478	2970.4312	4241	3355.45
1024.1609	2971.5102	4217.25	3339.05
1024.274	2972.5885	4202.15	3326
1024.3871	2973.6662	4215.45	3331.25
1024.5002	2974.7432	4185.45	3308.45
1024.6132	2975.8196	4172.95	3294.55
1024.7261	2976.8954	4150.35	3273.65
1024.839	2977.9705	4132.8	3254.15
1024.9519	2979.045	4117.95	3239.85
1025.0647	2980.1188	4090.1	3213.3
1025.1775	2981.192	4081.85	3204.35
1025.2902	2982.2645	4034.05	3154.8
1025.4029	2983.3364	4011.9	3131.85
1025.5156	2984.4077	3988.6	3112.6
1025.6282	2985.4783	3958.45	3075.15
1025.7407	2986.5483	3932.7	3056.65
1025.8532	2987.6177	3901.75	3023.25
1025.9657	2988.6864	3855.05	2975.25
1026.0782	2989.7545	3827.2	2948.7
1026.1906	2990.8219	3770.25	2891.5
1026.3029	2991.8887	3743.8	2864.15
1026.4152	2992.9548	3720.15	2840.45
1026.5275	2994.0204	3693.1	2816.4
1026.6397	2995.0852	3653.95	2776.4
1026.7519	2996.1495	3632.55	2753.2
1026.864	2997.2131	3602.3	2723.1
1026.9761	2998.276	3567.5	2688.45
1027.0882	2999.3383	3559.85	2682.4
1027.2002	3000.4	3536.1	2657.3
1027.3122	3001.4611	3502.45	2624.75
1027.4241	3002.5215	3491.45	2614.75
1027.536	3003.5812	3453.7	2576.6
1027.6478	3004.6404	3444.4	2566.7
1027.7596	3005.6989	3423.5	2542.35
1027.8714	3006.7567	3417.15	2540.25
1027.9831	3007.8139	3430.25	2520.1
1028.0947	3008.8705	3372.6	2494.95
1028.2064	3009.9264	3365.1	2483.5
1028.3179	3010.9818	3358.9	2480.5
1028.4295	3012.0364	3339.65	2460.2
1028.541	3013.0905	3314.85	2437.1
1028.6524	3014.1439	3299.15	2419.9
1028.7638	3015.1966	3290.15	2412.15
1028.8752	3016.2487	3285.2	2406.7
1028.9865	3017.3002	3277.75	2396.35
1029.0978	3018.3511	3267.3	2390.85
1029.209	3019.4013	3252.9	2374.35
1029.3202	3020.4509	3257	2380.2
1029.4314	3021.4998	3237.95	2359.4
1029.5425	3022.5481	3237.7	2360.35
1029.6535	3023.5958	3218.95	2342.55
1029.7645	3024.6428	3210.85	2330.55
1029.8755	3025.6892	3191.25	2313.75
1029.9864	3026.735	3199.9	2322.35
1030.0973	3027.7802	3187.85	2308.5
1030.2082	3028.8247	3167	2291.05
1030.319	3029.8685	3155.35	2274.6
1030.4297	3030.9118	3158.35	2278.5
1030.5404	3031.9544	3143.4	2266.15
1030.6511	3032.9963	3145.5	2265.7
1030.7617	3034.0376	3135.65	2260.45
1030.8723	3035.0783	3133.05	2251.8
1030.9829	3036.1184	3112.25	2234.1
1031.0934	3037.1578	3105.05	2227.7
1031.2038	3038.1966	3095.5	2215.2
1031.3142	3039.2348	3079.8	2202.1
1031.4246	3040.2723	3093.8	2204.85
1031.5349	3041.3092	3072.85	2194.65
1031.6452	3042.3455	3068.25	2190.05
1031.7554	3043.3811	3048.2	2169.25
1031.8656	3044.4161	3041.55	2164.45
1031.9758	3045.4505	3050.15	2172.95
1032.0859	3046.4842	3037	2158.9
1032.1959	3047.5173	3012.65	2136.1
1032.3059	3048.5498	3007.15	2128.3
1032.4159	3049.5816	3006.45	2130.5
1032.5258	3050.6128	2985.9	2106.95
1032.6357	3051.6434	2973	2093.8
1032.7455	3052.6734	2972.05	2093.95
1032.8553	3053.7027	2966.95	2088.25
1032.9651	3054.7314	2932.85	2056.15
1033.0748	3055.7594	2941.05	2063.4
1033.1845	3056.7868	2932.2	2053.75
1033.2941	3057.8136	2914.05	2036.9
1033.4037	3058.8398	2922.35	2046.65
1033.5132	3059.8653	2914.3	2037.55
1033.6227	3060.8902	2882.7	2004.35
1033.7321	3061.9145	2872	1996.05
1033.8415	3062.9381	2863.75	1985.25
1033.9509	3063.9612	2869.95	1973.95
1034.0602	3064.9835	2851.05	1973.8
1034.1694	3066.0053	2827.6	1947.15
1034.2787	3067.0264	2815.25	1937.45
1034.3878	3068.0469	2817.35	1937.85
1034.497	3069.0668	2810.55	1929.2
1034.6061	3070.086	2793.95	1916.95
1034.7151	3071.1046	2792.3	1914.9
1034.8241	3072.1226	2771.75	1892.35
1034.9331	3073.1399	2758.85	1882.1
1035.042	3074.1567	2736.25	1857.75
1035.1508	3075.1727	2740.1	1860.8
1035.2597	3076.1882	2712.7	1834.85
1035.3684	3077.203	2710.05	1831.7
1035.4772	3078.2173	2708.5	1827.6
1035.5859	3079.2308	2687.7	1808.5
1035.6945	3080.2438	2679.25	1800
1035.8031	3081.2561	2666.9	1788.95
1035.9117	3082.2678	2651.7	1774.1
1036.0202	3083.2789	2638.6	1759.95
1036.1286	3084.2893	2632.9	1756.5
1036.2371	3085.2991	2623.75	1744.4
1036.3454	3086.3083	2603.75	1721.4
1036.4538	3087.3169	2598.9	1718.9
1036.562	3088.3248	2602	1722.5
1036.6703	3089.3321	2585.75	1706.15
1036.7785	3090.3388	2558.8	1679.95
1036.8866	3091.3449	2554.65	1676.95
1036.9948	3092.3503	2547.15	1666.95
1037.1028	3093.3551	2551.15	1673.85
1037.2108	3094.3593	2536.4	1659.25
1037.3188	3095.3629	2518.55	1640.6
1037.4267	3096.3658	2515.25	1637
1037.5346	3097.3681	2508.6	1630.5
1037.6425	3098.3698	2490.6	1607.9
1037.7503	3099.3708	2501.25	1617.75
1037.858	3100.3713	2485.75	1608.65
1037.9657	3101.3711	2478.95	1600.25
1038.0734	3102.3702	2576.35	1561.8
1038.181	3103.3688	2476.65	1597.2
1038.2886	3104.3667	2444.55	1567.1
1038.3961	3105.364	2428.55	1551.85
1038.5036	3106.3607	2425.5	1546.75
1038.611	3107.3568	2422.45	1542.25
1038.7184	3108.3522	2419.35	1544.8
1038.8257	3109.347	2390.55	1511.85
1038.933	3110.3412	2393.75	1512.5
1039.0403	3111.3348	2378.25	1501.2
1039.1475	3112.3277	2359.55	1484.15
1039.2547	3113.32	2367.55	1490.4
1039.3618	3114.3117	2348.95	1469.05
1039.4689	3115.3028	2340.35	1461
1039.5759	3116.2932	2333.9	1455.6
1039.6829	3117.2831	2328.4	1443.1
1039.7898	3118.2723	2307.35	1428.8
1039.8967	3119.2608	2301.55	1421.75
1040.0035	3120.2488	2290.75	1414.5
1040.1103	3121.2361	2290.55	1412.1
1040.2171	3122.2229	2290.6	1413.35
1040.3238	3123.209	2279.75	1399.85
1040.4305	3124.1944	2273.45	1395.1
1040.5371	3125.1793	2258.05	1377.05
1040.6437	3126.1635	2249.65	1373.75
1040.7502	3127.1471	2244	1366.35
1040.8567	3128.1301	2228.6	1350.05
1040.9631	3129.1125	2228.45	1349.65
1041.0695	3130.0942	2223.8	1346.3
1041.1759	3131.0753	2225.9	1338.85
1041.2822	3132.0558	2211.85	1330.65
1041.3884	3133.0357	2217.3	1338.55
1041.4946	3134.015	2199.35	1319.3
1041.6008	3134.9936	2203.4	1325
1041.7069	3135.9716	2205.8	1304.4
1041.813	3136.949	2184.25	1306.4
1041.919	3137.9258	2180.6	1296.4
1042.025	3138.902	2175.65	1295.85
1042.1309	3139.8775	2176.3	1299.5
1042.2368	3140.8524	2161.95	1284.2
1042.3427	3141.8267	2156.95	1278.65
1042.4485	3142.8004	2153.8	1275.2
1042.5542	3143.7735	2147.9	1262.6
1042.6599	3144.7459	2141	1261.4
1042.7656	3145.7178	2145.1	1265.35
1042.8712	3146.689	2125.15	1248.6
1042.9768	3147.6596	2125.2	1244.1
1043.0823	3148.6295	2113.7	1234.45
1043.1878	3149.5989	2106.9	1229.55
1043.2932	3150.5676	2097.65	1220.9
1043.3986	3151.5357	2079.25	1200
1043.5039	3152.5032	2085.4	1206.95
1043.6092	3153.4701	2074.05	1197.95
1043.7145	3154.4364	2076.2	1193.15
1043.8197	3155.402	2062.05	1185.15
1043.9248	3156.367	2071.25	1192.5
1044.03	3157.3315	2091.65	1175.75
1044.135	3158.2952	2035.4	1156.75
1044.24	3159.2584	2038.8	1163.55
1044.345	3160.221	2026.65	1149.3
1044.4499	3161.1829	2027.05	1150.1
1044.5548	3162.1442	2022.15	1144.1
1044.6596	3163.105	2010.4	1131.3
1044.7644	3164.065	1990.9	1112.75
1044.8692	3165.0245	2003.25	1121.25
1044.9739	3165.9834	1998.35	1121.95
1045.0785	3166.9416	1996.95	1119.45
1045.1831	3167.8993	1980.15	1102.05
1045.2877	3168.8563	1970.05	1091.6
1045.3922	3169.8127	1961.55	1084.25
1045.4966	3170.7684	1954.3	1076.5
1045.6011	3171.7236	1955.55	1077.5
1045.7054	3172.6782	1953.85	1075.7
1045.8098	3173.6321	1946.65	1066.35
1045.914	3174.5854	1940.85	1059.4
1046.0183	3175.5381	1937.4	1057.45
1046.1224	3176.4902	1929.5	1051.7
1046.2266	3177.4417	1920.55	1044.8
1046.3307	3178.3926	1917.65	1041.5
1046.4347	3179.3428	1910.55	1032.65
1046.5387	3180.2924	1907.85	1029.75
1046.6427	3181.2415	1890.25	1011.95
1046.7466	3182.1899	1887.55	1008.8
1046.8504	3183.1377	1885.95	1007.6
1046.9542	3184.0848	1883.75	1002.55
1047.058	3185.0314	1871	991.15
1047.1617	3185.9773	1866.1	987.1
1047.2654	3186.9227	1869.4	992.3
1047.369	3187.8674	1857.7	980.65
1047.4726	3188.8115	1860.6	980.15
1047.5761	3189.755	1839.75	962.5
1047.6796	3190.6979	1835.35	957.65
1047.783	3191.6402	1838.2	961.8
1047.8864	3192.5818	1834.85	956.9
1047.9898	3193.5229	1852.8	959.95
1048.0931	3194.4633	1828.2	951
1048.1963	3195.4031	1822.1	943.55
1048.2995	3196.3423	1818.45	941.05
1048.4027	3197.2809	1819.25	942.35
1048.5058	3198.2189	1809.35	929.25
1048.6089	3199.1563	1824.6	926.55
1048.7119	3200.0931	1806.95	929.75
1048.8148	3201.0292	1793.65	916.85
1048.9178	3201.9648	1789.25	912.3
1049.0206	3202.8997	1783.05	902.8
1049.1235	3203.834	1777.1	901
1049.2262	3204.7677	1769.7	891.4
1049.329	3205.7008	1766	887.8
1049.4317	3206.6333	1765.65	887.7
1049.5343	3207.5652	1766.8	887
1049.6369	3208.4964	1752.85	873.95
1049.7394	3209.4271	1750.85	874.35
1049.8419	3210.3571	1744.35	866.6
1049.9444	3211.2865	1746.85	868
1050.0468	3212.2154	1736.85	858.8
1050.1491	3213.1436	1736.05	855.7
1050.2514	3214.0712	1730.5	847.8
1050.3537	3214.9982	1726.65	850.05
1050.4559	3215.9246	1725.1	846.1
1050.5581	3216.8503	1715.35	836.65
1050.6602	3217.7755	1715.8	836.35
1050.7623	3218.7001	1706.95	830.15
1050.8643	3219.624	1711.65	834.8
1050.9663	3220.5473	1698.3	819.3
1051.0682	3221.4701	1702.2	824.25
1051.1701	3222.3922	1689.1	809.1
1051.2719	3223.3137	1684.45	807.9
1051.3737	3224.2346	1688.8	810.05
1051.4754	3225.1549	1672.7	796.1
1051.5771	3226.0746	1673.15	795.85
1051.6788	3226.9937	1671.85	792.5
1051.7804	3227.9121	1666.5	788.75
1051.8819	3228.83	1660.85	784.9
1051.9834	3229.7473	1655.1	777.15
1052.0849	3230.6639	1642.85	765.3
1052.1863	3231.5799	1642.75	765.65
1052.2876	3232.4954	1644.15	766.55
1052.3889	3233.4102	1632.4	755.6
1052.4902	3234.3244	1629.7	750
1052.5914	3235.238	1630.15	752
1052.6926	3236.151	1647.7	745
1052.7937	3237.0634	1618.4	743.9
1052.8948	3237.9752	1619.1	741.95
1052.9958	3238.8864	1616.65	735.1
1053.0968	3239.797	1599.05	722.3
1053.1977	3240.7069	1601.2	722.9
1053.2986	3241.6163	1599.55	719.5
1053.3994	3242.5251	1595.25	717.35
1053.5002	3243.4332	1590.5	713.9
1053.6009	3244.3408	1594.6	715.25
1053.7016	3245.2477	1572.35	693.6
1053.8022	3246.154	1572.8	694.15
1053.9028	3247.0598	1567.95	690.3
1054.0034	3247.9649	1564.45	687.65
1054.1039	3248.8694	1568.4	689.8
1054.2043	3249.7733	1567.2	689.15
1054.3047	3250.6766	1554.45	675.2
1054.4051	3251.5793	1556.1	678.05
1054.5054	3252.4814	1542.8	665.85
1054.6056	3253.3829	1542.55	665.6
1054.7058	3254.2838	1536.35	657.35
1054.806	3255.1841	1537.3	661.05
1054.9061	3256.0838	1527.45	649.2
1055.0061	3256.9829	1512.8	636.15
1055.1062	3257.8814	1515.5	635.8
1055.2061	3258.7792	1514.1	633.95
1055.306	3259.6765	1512.75	633.8
1055.4059	3260.5731	1501.2	623.55
1055.5057	3261.4692	1492	614.05
1055.6055	3262.3647	1483.1	604.35
1055.7052	3263.2595	1480.5	603.75
1055.8049	3264.1538	1469.3	592.8
1055.9045	3265.0474	1457.35	578.9
1056.0041	3265.9404	1455.8	579.25
1056.1036	3266.8329	1438.2	560.35
1056.2031	3267.7247	1437.75	548.75
1056.3025	3268.616	1420.2	544.75
1056.4019	3269.5066	1400.55	523.8
1056.5013	3270.3966	1398.65	519.45
1056.6005	3271.286	1374.8	497.6
