Software Version:	3.9.2.0
Unit SN:	10000200
Spectrometer SN:	6960
Date:	3/6/2024 9:56:33 AM
Data Line Index:	25
Spectral Points:	2048
Integration time (ms):	125
Averages:	20
Delay (ms):	30
Sequence Number:	1
Processing:	dark subtract
Laser Power (mW):	300
Laser Current (mA):	825
Laser Diode Temp (C):	25.1
Laser Case Temp (C):	24.5
System Temp (C):	24.4
Spectrometer Temp (C):	22
CCD Temp (C):	-0.002
Secondary Temp (C):	20.004
Heatsink Temp (C):	18.277
CCDPCB Temp (C):	30.905
SecondaryPCB Temp (C):	26.225

Wavelength	RamanShift	Raw Counts	Dark Subtracted
787.061	30.1047	559.15	152.9
787.2016	32.3739	563.45	157.5
787.3422	34.6426	575.2	169
787.4828	36.9109	588.85	181.15
787.6235	39.1787	603.4	190.35
787.7642	41.4461	621.2	205.25
787.9049	43.7131	635.2	215.4
788.0456	45.9796	646.85	222.9
788.1863	48.2456	665.7	239
788.3271	50.5112	683.95	253.4
788.4679	52.7764	700.45	268.05
788.6087	55.0411	720.05	281.3
788.7496	57.3054	741.9	296.9
788.8904	59.5692	766.3	319.9
789.0313	61.8326	780.3	331.7
789.1722	64.0955	807.5	357.2
789.3132	66.3579	841.75	387
789.4541	68.6199	885	426
789.5951	70.8815	947	482.55
789.7361	73.1426	1096.75	629.55
789.8771	75.4032	1473.95	1003.1
790.0181	77.6634	2392	1918.7
790.1592	79.9231	4641	4161.6
790.3003	82.1824	9625.4	9138.8
790.4414	84.4412	18496.15	17997.65
790.5825	86.6995	31689.35	31172.8
790.7237	88.9574	43137.3	42608.8
790.8648	91.2148	51193.75	50657
791.006	93.4717	53647.25	53105.15
791.1472	95.7282	54881.65	54337.45
791.2885	97.9842	55584.35	55034.6
791.4297	100.2398	55607.3	55054.35
791.571	102.4949	55579.55	55026.5
791.7123	104.7495	55718.6	55158.25
791.8536	107.0036	55371.95	54813.9
791.9949	109.2573	56073.55	55515.25
792.1363	111.5105	55608.85	55047.8
792.2777	113.7632	55852.15	55290.25
792.4191	116.0154	56134.8	55560.8
792.5605	118.2672	56579.95	56012.15
792.7019	120.5185	56633.9	56063.65
792.8434	122.7693	56668.6	56093.2
792.9849	125.0197	56034.95	55455.2
793.1264	127.2696	57346.25	56765.5
793.2679	129.519	57168.9	56582.15
793.4094	131.7679	57697.95	57111.65
793.551	134.0163	56522.2	55934.95
793.6926	136.2642	57081.7	56490.55
793.8342	138.5117	57838.35	57237.2
793.9758	140.7587	57583.6	56988.15
794.1175	143.0052	57568.05	56965.6
794.2591	145.2512	56946.65	56347.2
794.4008	147.4967	57814.65	57213.4
794.5425	149.7417	57624.15	57018.85
794.6842	151.9863	57633.05	57025.85
794.826	154.2304	57179.9	56567.6
794.9677	156.4739	57539.5	56919.55
795.1095	158.717	58070.8	57451.25
795.2513	160.9596	57777.6	57153.55
795.3931	163.2017	57238.35	56615.65
795.535	165.4433	57928.7	57303.65
795.6768	167.6844	57596.3	56967.85
795.8187	169.925	57910.55	57280.3
795.9606	172.1651	57632.5	56995.15
796.1025	174.4047	57813.9	57177.35
796.2445	176.6439	57824.85	57186.4
796.3864	178.8825	57687.65	57045.8
796.5284	181.1206	58261.45	57613.3
796.6704	183.3582	58196.5	57544.7
796.8124	185.5954	57973.15	57320.2
796.9544	187.832	58089.15	57430.1
797.0965	190.0681	57699.95	57041.9
797.2386	192.3037	58361.7	57696.15
797.3806	194.5388	59050.25	58381.75
797.5228	196.7734	57454.65	56785.5
797.6649	199.0075	58987.55	58319
797.807	201.2411	58455.75	57785.95
797.9492	203.4742	59309.1	58637.25
798.0914	205.7068	59098.15	58421.5
798.2336	207.9389	59051.4	58374.95
798.3758	210.1704	58992.85	58320.7
798.518	212.4015	59612.05	58946.25
798.6603	214.632	58865.7	58209
798.8025	216.862	59636.25	58978.45
798.9448	219.0915	59262.05	58603.95
799.0871	221.3205	59222.05	58563.95
799.2294	223.549	59877.75	59223.35
799.3718	225.777	59738.4	59080.55
799.5141	228.0044	60004.4	59338.2
799.6565	230.2314	59759	59092.5
799.7989	232.4578	59762.95	59091.9
799.9413	234.6837	59893.55	59215.1
800.0837	236.909	60781.15	60101.7
800.2262	239.1339	59448.8	58745.1
800.3687	241.3582	60137.15	59446.9
800.5111	243.582	60177.65	59457.7
800.6536	245.8053	60186.45	59479.4
800.7961	248.0281	60232.4	59531.45
800.9387	250.2503	60431.35	59721.35
801.0812	252.472	60033.7	59324.85
801.2238	254.6932	60351.4	59643.65
801.3664	256.9139	60209.05	59503.8
801.509	259.134	60997.55	60283.55
801.6516	261.3536	60094.8	59384.9
801.7942	263.5727	60618.65	59905.85
801.9369	265.7912	60368.55	59656.8
802.0795	268.0092	60517.8	59803
802.2222	270.2267	60656.1	59940.1
802.3649	272.4436	60254	59538.05
802.5076	274.6601	60657.15	59932.8
802.6504	276.8759	60836.15	60115.2
802.7931	279.0913	60645.35	59924.2
802.9359	281.3061	60729.9	60006.75
803.0787	283.5204	60760.8	60032.95
803.2215	285.7341	60714	59983.3
803.3643	287.9473	61087.5	60348.15
803.5071	290.16	60798.7	60064.85
803.6499	292.3721	61006.1	60277.55
803.7928	294.5837	60657.2	59926.45
803.9357	296.7947	60431.6	59701.3
804.0786	299.0052	61012.3	60280.45
804.2215	301.2152	60741.2	60008.55
804.3644	303.4246	61064.9	60337.55
804.5074	305.6334	61056.85	60325.1
804.6503	307.8418	60603.9	59868.75
804.7933	310.0495	60684.3	59949.95
804.9363	312.2568	60640.55	59904.2
805.0793	314.4635	60631.95	59890.55
805.2223	316.6696	60807.65	60065.05
805.3653	318.8752	61014	60260.4
805.5084	321.0802	60174.1	59430.7
805.6514	323.2847	60582.95	59839.2
805.7945	325.4887	60590.25	59842.5
805.9376	327.692	60421.75	59673.7
806.0807	329.8949	60626.15	59875.85
806.2238	332.0972	60492.05	59741.45
806.367	334.2989	60621.1	59866.3
806.5101	336.5001	60932.25	60177.8
806.6533	338.7007	60299.85	59544.85
806.7965	340.9008	60628.9	59872.5
806.9397	343.1003	60656.2	59896.25
807.0829	345.2992	60851.7	60090.3
807.2261	347.4976	60540.6	59780.95
807.3693	349.6955	60667.5	59902.9
807.5126	351.8927	60405.2	59638.95
807.6559	354.0895	60704.55	59929.05
807.7991	356.2856	60648.4	59879.85
807.9424	358.4812	60922.25	60155.7
808.0857	360.6763	60442.95	59673.75
808.2291	362.8707	60844.15	60073.8
808.3724	365.0646	60593.75	59819.1
808.5158	367.258	60616.8	59839.9
808.6591	369.4508	60307	59528.55
808.8025	371.643	60794.65	60014.35
808.9459	373.8346	60593.7	59811.6
809.0893	376.0257	60614	59828.75
809.2327	378.2162	60517.95	59736.8
809.3762	380.4062	60158.4	59374.15
809.5196	382.5956	60471.15	59693.4
809.6631	384.7844	60467.85	59690.45
809.8066	386.9726	60629.9	59853.3
809.9501	389.1603	60617.8	59839.3
810.0936	391.3474	60258.7	59450.95
810.2371	393.5339	60547.35	59768.1
810.3806	395.7199	60031.6	59255.75
810.5241	397.9052	60147.65	59369.7
810.6677	400.09	60298.1	59520.4
810.8113	402.2743	60559.4	59779.15
810.9548	404.4579	60228.55	59450.6
811.0984	406.641	60198	59414.55
811.2421	408.8235	60375.2	59587.9
811.3857	411.0054	60405.4	59619.2
811.5293	413.1868	60441.85	59651.65
811.673	415.3675	60322.55	59529
811.8166	417.5477	60324.15	59528.55
811.9603	419.7273	60311.8	59516.15
812.104	421.9064	60177.55	59375.05
812.2477	424.0848	60258	59461.45
812.3914	426.2627	60475.95	59679.45
812.5351	428.4399	60060.05	59261.4
812.6788	430.6166	59674	58871.1
812.8226	432.7928	60191.95	59388.95
812.9663	434.9683	59823.95	59021.45
813.1101	437.1432	59798.6	58993.15
813.2539	439.3176	60072	59271.3
813.3977	441.4914	59439.15	58638.15
813.5415	443.6645	59534.75	58734.25
813.6853	445.8371	59595.7	58790.8
813.8291	448.0091	59313.1	58511.9
813.973	450.1806	59169.95	58367.15
814.1168	452.3514	59303.45	58495.5
814.2607	454.5216	58941.7	58129.7
814.4046	456.6913	59263.75	58455
814.5485	458.8603	59353.65	58546.25
814.6924	461.0288	58826.25	58019.4
814.8363	463.1967	59254.2	58449.6
814.9802	465.3639	59196.45	58388.45
815.1241	467.5306	58401.9	57594.45
815.2681	469.6967	58868.1	58060.45
815.412	471.8622	59078.2	58272.35
815.556	474.0271	58745.2	57937.25
815.7	476.1914	58846	58032.45
815.844	478.3551	58876.45	58063.85
815.988	480.5182	59350.6	58540.4
816.132	482.6807	58647.9	57838.65
816.276	484.8426	58725.7	57918
816.4201	487.0039	59299.1	58488.7
816.5641	489.1647	59243.4	58430.75
816.7082	491.3248	58579.8	57765.5
816.8522	493.4843	59252	58433.6
816.9963	495.6432	59291.35	58478.65
817.1404	497.8015	58534.6	57714.25
817.2845	499.9592	58992.3	58170.3
817.4286	502.1163	58921.85	58100.8
817.5727	504.2728	58841.3	58019.5
817.7168	506.4287	58846.45	58029.65
817.861	508.5839	58502.7	57685.5
818.0051	510.7386	58764.55	57947.8
818.1493	512.8927	58865.95	58041.65
818.2935	515.0461	58731	57909.5
818.4377	517.199	59052.25	58230.7
818.5818	519.3512	58702.25	57877.65
818.726	521.5029	58657.8	57826.5
818.8703	523.6539	58735.4	57908.05
819.0145	525.8043	58211.25	57384.75
819.1587	527.9541	58630.1	57803.1
819.303	530.1033	58591.45	57763.25
819.4472	532.2519	58347.9	57522.75
819.5915	534.3999	58680.5	57849.8
819.7357	536.5472	58803.1	57976.55
819.88	538.694	58108.8	57281.95
820.0243	540.8401	58444.35	57618
820.1686	542.9856	58424.75	57592.1
820.3129	545.1305	58716.75	57878.3
820.4572	547.2748	58323.2	57487.15
820.6016	549.4185	58272.05	57434.55
820.7459	551.5615	58636.6	57803.2
820.8902	553.704	58504.65	57670.45
821.0346	555.8458	58208	57375.65
821.1789	557.987	58349.6	57517.7
821.3233	560.1276	58438.35	57603.85
821.4677	562.2675	58232.5	57398.65
821.6121	564.4069	58328.7	57495.1
821.7565	566.5456	58586.35	57752.45
821.9009	568.6837	58112.35	57273.3
822.0453	570.8212	58270.2	57433.7
822.1897	572.958	57625.2	56785.5
822.3342	575.0942	58111.75	57276.25
822.4786	577.2299	57752.35	56917.55
822.6231	579.3648	57641.7	56813.7
822.7675	581.4992	57442.75	56613.15
822.912	583.6329	57378.95	56549.4
823.0565	585.766	57383.2	56551.2
823.201	587.8985	57525.95	56693.5
823.3454	590.0304	56838.8	55989.5
823.4899	592.1616	57328.25	56486.1
823.6345	594.2922	57044.95	56202.8
823.779	596.4222	56699	55853.75
823.9235	598.5515	56799.75	55954.55
824.068	600.6802	56978.4	56134.5
824.2126	602.8083	56482.4	55639.4
824.3571	604.9358	56450.5	55604.7
824.5017	607.0626	56781.4	55937.45
824.6462	609.1888	56113.75	55266.05
824.7908	611.3144	56559.05	55710.9
824.9354	613.4393	56296.9	55449.4
825.08	615.5636	55990.55	55143.95
825.2246	617.6873	56384.65	55536.4
825.3692	619.8103	55955.1	55103.9
825.5138	621.9327	56331.6	55482.8
825.6584	624.0544	56404.05	55556.05
825.803	626.1756	56103.35	55257.4
825.9477	628.2961	56059.3	55209.6
826.0923	630.4159	55737.45	54885.1
826.237	632.5351	55690.05	54841.1
826.3816	634.6537	56376.95	55524.95
826.5263	636.7716	55540.1	54686.55
826.6709	638.8889	55753.4	54900.55
826.8156	641.0056	55705.15	54849
826.9603	643.1216	55816	54962.9
827.105	645.237	55945.1	55087.25
827.2497	647.3518	55478.35	54624.65
827.3944	649.4659	55637.9	54789.25
827.5391	651.5793	55644.85	54795.35
827.6838	653.6922	55720.85	54870.95
827.8285	655.8043	55141.8	54287.7
827.9733	657.9159	55894.5	55041.75
828.118	660.0268	54556.25	53701.4
828.2627	662.137	55255.65	54397.55
828.4075	664.2466	55361.85	54502
828.5522	666.3556	55060.25	54202.25
828.697	668.4639	55214.85	54356.8
828.8418	670.5716	54890.65	54038.95
828.9865	672.6786	55201.6	54345.05
829.1313	674.785	54596.5	53736.75
829.2761	676.8907	54683.25	53827.05
829.4209	678.9958	54842.9	53988.55
829.5657	681.1002	54866.45	54007.65
829.7105	683.204	54377.05	53511.85
829.8553	685.3072	54165.85	53303.55
830.0001	687.4097	54345.85	53483.8
830.1449	689.5115	54240.5	53377.15
830.2898	691.6127	54577.4	53718.45
830.4346	693.7132	54146.85	53287.85
830.5794	695.8131	54226.4	53345.05
830.7243	697.9123	54297.1	53432.65
830.8691	700.0109	54368.35	53502.75
831.014	702.1089	53794.05	52930
831.1588	704.2061	53970.8	53106.5
831.3037	706.3028	54006.3	53139.45
831.4486	708.3987	54026.6	53161.95
831.5935	710.4941	53752.8	52889.55
831.7383	712.5887	54025.4	53162.45
831.8832	714.6827	53743.45	52877.2
832.0281	716.7761	53918.55	53054.65
832.173	718.8688	53957.85	53092.65
832.3179	720.9608	53583.7	52715.05
832.4628	723.0522	53657.35	52783.65
832.6077	725.1429	53304.05	52435.8
832.7527	727.233	54186.8	53317.75
832.8976	729.3224	52948.9	52081.75
833.0425	731.4112	53323.2	52454.25
833.1874	733.4993	53340.6	52470
833.3324	735.5867	53315.75	52446.95
833.4773	737.6735	53002.85	52133.7
833.6222	739.7596	52652.1	51780.75
833.7672	741.845	52619.75	51752
833.9122	743.9298	52922	52050.6
834.0571	746.014	52510.7	51642.25
834.2021	748.0974	52185.45	51312.35
834.347	750.1802	52739.5	51867.75
834.492	752.2624	51854.9	50983.5
834.637	754.3439	51957.1	51082.3
834.782	756.4247	52035.65	51151.95
834.9269	758.5048	51643.65	50771.1
835.0719	760.5843	51726.05	50853.55
835.2169	762.6631	51678	50802.85
835.3619	764.7413	51530.6	50659.9
835.5069	766.8188	51568.7	50690.45
835.6519	768.8956	51687.35	50810.85
835.7969	770.9718	51644.95	50770.15
835.9419	773.0473	51426.45	50551.1
836.0869	775.1221	51168.2	50294.9
836.232	777.1962	51082.45	50207
836.377	779.2697	50759.4	49884.2
836.522	781.3426	50873.9	49978.55
836.667	783.4147	50807.5	49932.15
836.8121	785.4862	50688.65	49814.6
836.9571	787.557	50447.1	49571.3
837.1021	789.6271	50615.75	49736.75
837.2472	791.6966	50213.15	49335.5
837.3922	793.7654	49914.85	49038.25
837.5373	795.8335	49968.75	49093.1
837.6823	797.901	49924.2	49050.45
837.8274	799.9678	49744.15	48864.4
837.9724	802.0339	49664.65	48787.35
838.1175	804.0993	49627	48740.05
838.2626	806.1641	49413.5	48533.3
838.4076	808.2282	49329.1	48450.2
838.5527	810.2916	49229.2	48348
838.6978	812.3544	49320.55	48440
838.8428	814.4164	49003.65	48125
838.9879	816.4778	49136.2	48256.85
839.133	818.5385	49016.85	48135.4
839.2781	820.5986	48972.05	48091.65
839.4232	822.658	48961.4	48077.5
839.5682	824.7166	48897.1	48016.85
839.7133	826.7747	48787.8	47909.75
839.8584	828.832	48880.15	48000.8
840.0035	830.8886	48858.3	47977
840.1486	832.9446	48852.55	47970.9
840.2937	834.9999	48376.9	47496.35
840.4388	837.0545	48543.15	47659.1
840.5839	839.1085	48490.4	47610.1
840.729	841.1618	48342.9	47457.7
840.8741	843.2143	47959.75	47078.85
841.0192	845.2662	47858.35	46977.5
841.1643	847.3175	47946.85	47062.4
841.3095	849.368	47604.7	46724.05
841.4546	851.4179	47767.6	46885.8
841.5997	853.467	47422.6	46540.55
841.7448	855.5155	47481.6	46598.1
841.8899	857.5633	47262.55	46379.95
842.0351	859.6105	47077.75	46194.25
842.1802	861.6569	47164.2	46282.7
842.3253	863.7027	46938.55	46052.15
842.4704	865.7478	46972.85	46088.95
842.6156	867.7922	46913.75	46032.85
842.7607	869.8359	46885.8	45999.45
842.9058	871.8789	46627.6	45741.2
843.0509	873.9212	46746.2	45829.6
843.1961	875.9629	46541.55	45652.95
843.3412	878.0039	46583.75	45697.3
843.4863	880.0441	46468.2	45582.2
843.6315	882.0837	46491	45607.8
843.7766	884.1226	46459.75	45575.5
843.9218	886.1609	46464.2	45581.4
844.0669	888.1984	46410.75	45526.95
844.212	890.2352	46589.65	45704.25
844.3572	892.2714	46249.8	45361.15
844.5023	894.3069	46344.5	45457.65
844.6475	896.3416	46112.45	45226.7
844.7926	898.3757	46032.85	45146.55
844.9377	900.4091	45846.55	44957.9
845.0829	902.4418	45978.35	45087.7
845.228	904.4739	45742	44853.4
845.3732	906.5052	45703.15	44813.5
845.5183	908.5358	45601.85	44715.6
845.6635	910.5658	45395.7	44506.35
845.8086	912.595	45429.15	44540.75
845.9538	914.6236	45161.15	44272.85
846.0989	916.6515	45320.65	44432.25
846.2441	918.6786	44943.25	44051.15
846.3892	920.7051	44956.6	44067
846.5344	922.7309	44926.05	44037.45
846.6795	924.756	44814.15	43926.85
846.8246	926.7804	44789.85	43901
846.9698	928.8041	44364.15	43473.3
847.1149	930.8272	44482.35	43593.05
847.2601	932.8495	44282.55	43392.85
847.4052	934.8711	44185.75	43295.15
847.5504	936.892	44011.8	43122.7
847.6955	938.9123	43920.55	43031.25
847.8407	940.9318	43824.55	42933.8
847.9858	942.9506	43682.35	42795.35
848.131	944.9688	43627.95	42738.9
848.2761	946.9862	43350.8	42463.25
848.4213	949.003	43167.4	42276.95
848.5664	951.019	43043.1	42154.65
848.7115	953.0344	42986.65	42098.4
848.8567	955.0491	42864.3	41973.95
849.0018	957.063	42927.4	42037.65
849.147	959.0763	42964.8	42072.7
849.2921	961.0888	42689.6	41794.85
849.4373	963.1007	42726.55	41838.85
849.5824	965.1119	42670.05	41782.05
849.7275	967.1223	42597.35	41710.3
849.8727	969.1321	42526.7	41641.8
850.0178	971.1412	42463.6	41576.15
850.1629	973.1495	42278.9	41389.95
850.3081	975.1572	42273.35	41352
850.4532	977.1641	42191.65	41299.5
850.5983	979.1704	42032.25	41142.25
850.7435	981.1759	41991.25	41094.65
850.8886	983.1808	41960.3	41066.4
851.0337	985.1849	41829.65	40927.4
851.1788	987.1884	41721.3	40825.75
851.324	989.1911	41603.45	40713.5
851.4691	991.1932	41552	40659.65
851.6142	993.1945	41412.35	40525.25
851.7593	995.1951	41180.2	40288.8
851.9045	997.1951	41147.45	40250.45
852.0496	999.1943	40987.95	40095.15
852.1947	1001.1928	40805.1	39911.85
852.3398	1003.1906	40637.6	39744
852.4849	1005.1877	40647.7	39754.65
852.63	1007.1841	40425.2	39531.15
852.7751	1009.1798	40338.3	39448
852.9202	1011.1748	40122.45	39231.35
853.0653	1013.1691	40043.4	39151.3
853.2104	1015.1627	39898.35	39006.6
853.3555	1017.1556	39609.55	38717.9
853.5006	1019.1477	39498.85	38607
853.6457	1021.1392	39271.75	38382.75
853.7908	1023.1299	39158.05	38269.15
853.9359	1025.12	39033.55	38143.75
854.081	1027.1093	38813.65	37932.15
854.2261	1029.0979	38743.1	37864
854.3712	1031.0859	38633.85	37751.3
854.5163	1033.0731	38532.9	37643.25
854.6613	1035.0596	38344.55	37456.4
854.8064	1037.0454	38082.6	37188.45
854.9515	1039.0304	38074.55	37182.6
855.0965	1041.0148	37899.2	37006.95
855.2416	1042.9985	37789	36896.4
855.3867	1044.9814	37788.7	36895.75
855.5317	1046.9636	37613.5	36720.15
855.6768	1048.9452	37467.6	36576.25
855.8219	1050.926	37427.75	36535.1
855.9669	1052.9061	37280.45	36387.8
856.112	1054.8855	37156.55	36262.5
856.257	1056.8642	37110.45	36218.85
856.4021	1058.8421	37109.45	36215.7
856.5471	1060.8194	37006.25	36111.45
856.6921	1062.7959	36897	36002.8
856.8372	1064.7717	36845.25	35951.15
856.9822	1066.7469	36810.35	35916.65
857.1272	1068.7213	36704.3	35808.6
857.2723	1070.695	36661.8	35765.8
857.4173	1072.6679	36477.95	35585.5
857.5623	1074.6402	36455.5	35560.65
857.7073	1076.6117	36428.55	35530.9
857.8523	1078.5826	36364.5	35471.2
857.9973	1080.5527	36188.3	35290.6
858.1423	1082.5221	36095.9	35203.85
858.2873	1084.4908	36084.55	35188.95
858.4323	1086.4587	35951.7	35059.5
858.5773	1088.426	35869.2	34973.45
858.7223	1090.3925	35720.9	34819.9
858.8673	1092.3584	35684.25	34792.45
859.0123	1094.3235	35494.15	34603.5
859.1573	1096.2879	35441.65	34548.35
859.3022	1098.2515	35460	34565.1
859.4472	1100.2145	35434.55	34539.9
859.5922	1102.1767	35313.55	34418.8
859.7371	1104.1382	35268.05	34373.65
859.8821	1106.099	35243.7	34348
860.027	1108.0591	35127.05	34232.6
860.172	1110.0185	35071.75	34174.25
860.3169	1111.9771	35043.7	34148.2
860.4619	1113.9351	34867.4	33971.45
860.6068	1115.8923	34800.05	33905.55
860.7517	1117.8488	34703.05	33805
860.8967	1119.8045	34525.25	33629.05
861.0416	1121.7596	34458.2	33564
861.1865	1123.7139	34298.05	33403.35
861.3314	1125.6675	34193.45	33299.25
861.4763	1127.6204	34237.35	33341.85
861.6212	1129.5726	34073.55	33179.75
861.7661	1131.524	34014.95	33120.9
861.911	1133.4748	34036.65	33139.25
862.0559	1135.4248	33842.95	32948.3
862.2008	1137.3741	33764.15	32870.65
862.3457	1139.3226	33641.1	32744.6
862.4905	1141.2705	33614.75	32720.55
862.6354	1143.2176	33448.95	32546.3
862.7803	1145.164	33446.1	32549.6
862.9251	1147.1097	33348.95	32453.8
863.07	1149.0546	33272.05	32375.9
863.2148	1150.9989	33225.95	32329.05
863.3597	1152.9424	33116.8	32221.35
863.5045	1154.8852	33066.9	32170.2
863.6493	1156.8272	33093.9	32197.45
863.7942	1158.7686	33049.45	32145.8
863.939	1160.7092	32916.35	32018.75
864.0838	1162.6491	32786.65	31888.45
864.2286	1164.5883	32794.05	31899.75
864.3734	1166.5267	32719.15	31822.15
864.5182	1168.4644	32731.5	31837.3
864.663	1170.4014	32707.9	31808.3
864.8078	1172.3377	32742.25	31849.4
864.9526	1174.2732	32735.5	31839.5
865.0974	1176.2081	32779.95	31883.75
865.2421	1178.1421	32837.65	31936.45
865.3869	1180.0755	32852	31960.05
865.5317	1182.0082	32744.25	31851.35
865.6764	1183.9401	32684.7	31789.2
865.8212	1185.8713	32544	31652.7
865.9659	1187.8017	32377.7	31485.5
866.1106	1189.7315	32333.55	31445.2
866.2554	1191.6605	32027.4	31137.7
866.4001	1193.5888	31857.5	30966.95
866.5448	1195.5163	31833.3	30941.05
866.6895	1197.4432	31679.45	30784.75
866.8342	1199.3693	31572.15	30679.1
866.9789	1201.2947	31426.1	30525.2
867.1236	1203.2193	31318.25	30420.35
867.2683	1205.1432	31315.4	30418.3
867.413	1207.0664	31199.8	30304.5
867.5576	1208.9889	31157.4	30256.85
867.7023	1210.9106	30971.85	30076.65
867.847	1212.8316	30841.55	29948.2
867.9916	1214.7519	30860.6	29954.95
868.1363	1216.6715	30719.9	29826.35
868.2809	1218.5903	30722.55	29830.65
868.4255	1220.5084	30630.3	29734.85
868.5701	1222.4257	30664.3	29770.3
868.7148	1224.3424	30498.1	29606.4
868.8594	1226.2583	30462.95	29566.7
869.004	1228.1735	30439.5	29541.8
869.1486	1230.0879	30344.15	29447.75
869.2932	1232.0016	30244.75	29348.05
869.4377	1233.9146	30156.5	29259.8
869.5823	1235.8269	30105.55	29209.6
869.7269	1237.7384	30101	29206
869.8715	1239.6492	29967	29074.3
870.016	1241.5592	29953.95	29057.6
870.1606	1243.4686	29890.2	28997.15
870.3051	1245.3772	29884.35	28990.5
870.4496	1247.285	29868	28970.5
870.5941	1249.1922	29843.4	28948.5
870.7387	1251.0986	29828.45	28934.15
870.8832	1253.0042	29712.45	28817
871.0277	1254.9092	29714.85	28821.2
871.1722	1256.8134	29660.9	28767.85
871.3167	1258.7169	29624.2	28729.7
871.4611	1260.6196	29555.75	28663.45
871.6056	1262.5216	29567.45	28668.5
871.7501	1264.4229	29490.4	28596.95
871.8945	1266.3234	29472.45	28576.9
872.039	1268.2232	29477.9	28579.5
872.1834	1270.1223	29375.35	28477.45
872.3278	1272.0207	29319.6	28422.7
872.4723	1273.9183	29276.4	28374.4
872.6167	1275.8151	29194	28300
872.7611	1277.7113	29149.5	28254.9
872.9055	1279.6067	29129.5	28234.15
873.0499	1281.5014	29128.25	28231.85
873.1943	1283.3953	29149.8	28252.4
873.3386	1285.2885	29305.1	28409.35
873.483	1287.181	29389.1	28492.25
873.6274	1289.0727	29420.55	28526.8
873.7717	1290.9637	29381.85	28485.8
873.9161	1292.854	29361.35	28465.35
874.0604	1294.7435	29240.35	28344.4
874.2047	1296.6323	29148.75	28251.6
874.349	1298.5204	29069.75	28169.15
874.4933	1300.4077	28982.4	28084.1
874.6376	1302.2943	28852.3	27955.25
874.7819	1304.1802	28790.5	27895.4
874.9262	1306.0653	28663.6	27766.65
875.0705	1307.9497	28554.8	27657.7
875.2147	1309.8333	28435.35	27543
875.359	1311.7162	28366.3	27468.2
875.5032	1313.5984	28273.2	27376
875.6475	1315.4798	28120.35	27222.85
875.7917	1317.3605	28093.05	27180.6
875.9359	1319.2405	28052.05	27153.6
876.0801	1321.1197	27924.15	27028.1
876.2243	1322.9982	27797.75	26896.65
876.3685	1324.876	27752.85	26856.2
876.5127	1326.753	27629.35	26732.2
876.6569	1328.6293	27568.65	26671.25
876.801	1330.5048	27495.7	26594.4
876.9452	1332.3796	27394.4	26498.4
877.0893	1334.2537	27359.4	26436.1
877.2335	1336.127	27240.3	26345
877.3776	1337.9996	27191.8	26297.15
877.5217	1339.8714	27113.65	26216.85
877.6658	1341.7426	27055.6	26118.4
877.8099	1343.6129	27029.35	26129.7
877.954	1345.4826	26985.85	26087.35
878.0981	1347.3515	26949.75	26052.55
878.2422	1349.2196	26837.25	25941.55
878.3862	1351.087	26890.8	25992.45
878.5303	1352.9537	26833.15	25935.55
878.6743	1354.8197	26834.85	25939.7
878.8184	1356.6849	26833.6	25939.05
878.9624	1358.5493	26814.8	25916.05
879.1064	1360.4131	26719.6	25823.75
879.2504	1362.276	26713.8	25816.8
879.3944	1364.1383	26669.85	25774.25
879.5384	1365.9998	26556.45	25656.35
879.6823	1367.8606	26485.5	25586.6
879.8263	1369.7206	26406.55	25509.25
879.9702	1371.5799	26295.05	25396.6
880.1142	1373.4384	26156.95	25262.05
880.2581	1375.2962	26115.7	25217.7
880.402	1377.1533	25935.1	25038.3
880.5459	1379.0096	25761.7	24865.8
880.6898	1380.8652	25672.65	24779.3
880.8337	1382.7201	25563.25	24668.6
880.9776	1384.5742	25380.45	24484.35
881.1215	1386.4275	25251.4	24355.45
881.2653	1388.2802	25143.25	24246.1
881.4092	1390.132	25051.1	24155.05
881.553	1391.9832	25044.9	24146.95
881.6968	1393.8336	24873.7	23978.8
881.8406	1395.6832	24839.1	23941.25
881.9844	1397.5322	24752.85	23857.6
882.1282	1399.3803	24630.85	23730
882.272	1401.2278	24527.25	23628.75
882.4158	1403.0745	24483	23587.85
882.5595	1404.9204	24344.8	23451.4
882.7033	1406.7656	24316.05	23420.85
882.847	1408.6101	24181.25	23284.2
882.9908	1410.4538	24136.65	23239.85
883.1345	1412.2968	24054.6	23158.65
883.2782	1414.139	23946.1	23050.35
883.4219	1415.9805	23967.45	23073.25
883.5656	1417.8213	23850.8	22948
883.7092	1419.6613	23791.85	22897.05
883.8529	1421.5006	23792.35	22895.95
883.9965	1423.3391	23776.35	22879.05
884.1402	1425.1769	23689.2	22791.7
884.2838	1427.0139	23723.65	22827.15
884.4274	1428.8502	23753.95	22856.35
884.571	1430.6858	23790.2	22893.35
884.7146	1432.5206	23757.3	22859.25
884.8582	1434.3547	23737.8	22842.6
885.0018	1436.188	23733.55	22837.45
885.1453	1438.0206	23693.6	22796.7
885.2889	1439.8524	23594.75	22697.15
885.4324	1441.6835	23536	22638.75
885.5759	1443.5139	23461	22560.9
885.7194	1445.3435	23358.55	22462.9
885.8629	1447.1724	23366.65	22470.6
886.0064	1449.0005	23321	22426.25
886.1499	1450.8279	23251.2	22352.9
886.2933	1452.6545	23261.35	22365.55
886.4368	1454.4804	23231.15	22337.1
886.5802	1456.3056	23184.2	22281.8
886.7237	1458.13	23166.45	22272.8
886.8671	1459.9536	23089.5	22192.9
887.0105	1461.7766	23019.4	22124.4
887.1539	1463.5987	22892.25	21996.7
887.2972	1465.4202	22812.65	21916.85
887.4406	1467.2409	22670.35	21775.05
887.584	1469.0608	22636.3	21742.25
887.7273	1470.88	22543.3	21646.95
887.8706	1472.6984	22531.85	21636.6
888.0139	1474.5161	22383.35	21485.3
888.1572	1476.3331	22310.3	21416.3
888.3005	1478.1493	22267.6	21372.75
888.4438	1479.9648	22217.3	21319.9
888.5871	1481.7795	22178.4	21283.45
888.7303	1483.5935	22176.2	21280.6
888.8736	1485.4067	22078.7	21183
889.0168	1487.2192	22068.7	21172.75
889.16	1489.031	22043.3	21147.15
889.3032	1490.842	21983.75	21090.3
889.4464	1492.6522	21927.95	21032.95
889.5896	1494.4618	21867.25	20972.15
889.7327	1496.2705	21843.15	20948.5
889.8759	1498.0785	21814.25	20918.85
890.019	1499.8858	21734.85	20839.45
890.1622	1501.6924	21674.45	20780.9
890.3053	1503.4981	21648.45	20756.15
890.4484	1505.3032	21634	20739.35
890.5914	1507.1075	21529.45	20634.25
890.7345	1508.911	21540.15	20646.5
890.8776	1510.7138	21462.3	20567.55
891.0206	1512.5159	21399.4	20505.75
891.1637	1514.3172	21350.25	20458.35
891.3067	1516.1178	21220.15	20327.4
891.4497	1517.9176	21192.5	20294.6
891.5927	1519.7166	21133.2	20239.45
891.7357	1521.515	21078.25	20177.7
891.8786	1523.3126	21005.1	20110.75
892.0216	1525.1094	20995.85	20100.1
892.1645	1526.9055	20900.4	20008.75
892.3074	1528.7008	20802.05	19908.6
892.4503	1530.4954	20700.1	19802.55
892.5932	1532.2893	20681.85	19790.05
892.7361	1534.0824	20581.65	19685.1
892.879	1535.8747	20556.35	19664
893.0218	1537.6663	20479.35	19584.05
893.1647	1539.4572	20415.5	19520.7
893.3075	1541.2473	20365.75	19473.1
893.4503	1543.0367	20306.05	19415.6
893.5931	1544.8253	20201.65	19303.9
893.7359	1546.6132	20218.35	19322.35
893.8787	1548.4003	20115.95	19213.65
894.0214	1550.1867	20122.4	19221.05
894.1642	1551.9723	20075.2	19178.45
894.3069	1553.7572	20054.75	19162.9
894.4496	1555.5414	20003.1	19110
894.5923	1557.3247	19984.05	19093.2
894.735	1559.1074	19922.6	19032
894.8777	1560.8893	19937.65	19044.95
895.0204	1562.6705	19872.9	18983.15
895.163	1564.4509	19839.75	18949
895.3056	1566.2305	19827.75	18940.45
895.4482	1568.0094	19835.15	18945
895.5908	1569.7876	19793.65	18905.55
895.7334	1571.565	19719.6	18830.05
895.876	1573.3417	19711.3	18819.75
896.0186	1575.1176	19666.85	18778.2
896.1611	1576.8928	19611.95	18720.85
896.3036	1578.6672	19534.9	18647.45
896.4461	1580.4409	19504.8	18619.7
896.5886	1582.2138	19464.55	18574.85
896.7311	1583.986	19408.8	18520.15
896.8736	1585.7575	19402.6	18510.7
897.0161	1587.5282	19355	18469.95
897.1585	1589.2981	19353.05	18468.5
897.3009	1591.0673	19269.9	18383.75
897.4433	1592.8358	19315.85	18430.55
897.5857	1594.6035	19307.7	18416.2
897.7281	1596.3704	19229.85	18340.85
897.8705	1598.1366	19140.3	18252.2
898.0128	1599.9021	19096.2	18208.25
898.1551	1601.6668	19058.9	18169.25
898.2975	1603.4308	19016.45	18127.9
898.4398	1605.194	18975.9	18084.2
898.5821	1606.9564	18956.65	18070.55
898.7243	1608.7182	18981.95	18093.45
898.8666	1610.4791	19012.7	18127.85
899.0088	1612.2394	19036.25	18151.55
899.1511	1613.9988	19013.25	18127.75
899.2933	1615.7576	19017.8	18133.2
899.4355	1617.5156	19047.15	18152.15
899.5776	1619.2728	19048.95	18161.3
899.7198	1621.0293	18921.25	18034.45
899.862	1622.785	18822.25	17933.8
900.0041	1624.54	18689.55	17802.3
900.1462	1626.2942	18553.55	17666.1
900.2883	1628.0477	18367.65	17478.65
900.4304	1629.8005	18277.55	17388.2
900.5725	1631.5525	18134.5	17247.15
900.7145	1633.3037	18024.75	17138.95
900.8566	1635.0542	17996.45	17109.15
900.9986	1636.804	17902.95	17016.95
901.1406	1638.553	17862.35	16930.1
901.2826	1640.3013	17735.8	16848.45
901.4245	1642.0488	17645.05	16759.85
901.5665	1643.7955	17629.4	16745.25
901.7085	1645.5416	17584.05	16699.95
901.8504	1647.2868	17558.55	16673
901.9923	1649.0313	17489.95	16604.1
902.1342	1650.7751	17506.35	16621.2
902.2761	1652.5181	17472.3	16587.65
902.4179	1654.2604	17405.8	16519.6
902.5598	1656.0019	17402.1	16517.75
902.7016	1657.7427	17375.15	16488.45
902.8434	1659.4828	17380.7	16493.75
902.9852	1661.222	17376.85	16487.75
903.127	1662.9606	17356.9	16470.55
903.2687	1664.6984	17325.25	16440.45
903.4105	1666.4354	17218.1	16330.45
903.5522	1668.1717	17091.75	16204.75
903.6939	1669.9072	16948.65	16060.9
903.8356	1671.642	16854.35	15965.55
903.9773	1673.3761	16753.15	15867.15
904.119	1675.1094	16671.5	15786.05
904.2606	1676.8419	16574.8	15688.1
904.4022	1678.5737	16474.6	15590.6
904.5439	1680.3048	16413.2	15526.7
904.6855	1682.0351	16306.95	15421.05
904.827	1683.7646	16255.6	15365.7
904.9686	1685.4934	16202.65	15315.95
905.1101	1687.2215	16120.35	15232.3
905.2517	1688.9488	16057.8	15173.45
905.3932	1690.6754	15960	15074
905.5347	1692.4012	15962.7	15076.8
905.6761	1694.1263	15898.1	15013.6
905.8176	1695.8506	15836.45	14949.5
905.9591	1697.5742	15818.2	14932.55
906.1005	1699.297	15710.7	14827.5
906.2419	1701.0191	15661.05	14777.1
906.3833	1702.7404	15605.95	14721.45
906.5246	1704.461	15494.15	14608.35
906.666	1706.1808	15470.65	14583.9
906.8073	1707.8999	15384.45	14498.3
906.9487	1709.6182	15337.35	14454.85
907.09	1711.3358	15338.55	14453.95
907.2313	1713.0527	15279.7	14397.25
907.3725	1714.7688	15261	14372.8
907.5138	1716.4841	15189.25	14303.15
907.655	1718.1987	15141.9	14250.25
907.7962	1719.9126	15132.7	14248.65
907.9374	1721.6257	15062.05	14175.75
908.0786	1723.338	15023.8	14138.15
908.2198	1725.0496	14923.6	14039.3
908.3609	1726.7605	14935.1	14049.25
908.502	1728.4706	14894.85	14010.85
908.6431	1730.18	14794.6	13909.1
908.7842	1731.8886	14772.1	13889.4
908.9253	1733.5964	14748.3	13860.6
909.0664	1735.3036	14698.25	13813.1
909.2074	1737.0099	14690.5	13806.4
909.3484	1738.7156	14661.4	13777
909.4894	1740.4204	14575.6	13690.6
909.6304	1742.1246	14581.55	13696.8
909.7714	1743.8279	14519.75	13636.85
909.9123	1745.5306	14520.75	13636.25
910.0532	1747.2325	14451.5	13570.2
910.1941	1748.9336	14421.75	13539.1
910.335	1750.634	14353.1	13465.9
910.4759	1752.3336	14315.75	13431.85
910.6168	1754.0325	14324.7	13445.4
910.7576	1755.7307	14283.65	13401.45
910.8984	1757.4281	14260.65	13374.4
911.0392	1759.1247	14256.55	13363.8
911.18	1760.8206	14239.9	13349.4
911.3208	1762.5158	14227.4	13340.6
911.4615	1764.2102	14158.15	13275.95
911.6022	1765.9039	14089.45	13205.9
911.7429	1767.5968	14064.7	13182
911.8836	1769.289	14016.35	13133.6
912.0243	1770.9804	13996.8	13111.95
912.1649	1772.6711	13990.45	13105
912.3056	1774.361	13935.35	13048.85
912.4462	1776.0502	13942.1	13060.4
912.5868	1777.7386	13889.7	13002.15
912.7274	1779.4263	13845.6	12960.9
912.8679	1781.1132	13806.35	12923.95
913.0084	1782.7994	13769.2	12886.25
913.149	1784.4849	13772.8	12890.2
913.2895	1786.1696	13722.45	12819.75
913.4299	1787.8535	13691.15	12808.7
913.5704	1789.5367	13646.45	12762.8
913.7108	1791.2192	13612.35	12729.65
913.8513	1792.9009	13556.9	12640.5
913.9917	1794.5818	13541.8	12656.6
914.132	1796.2621	13525.9	12642.5
914.2724	1797.9415	13492.7	12610.75
914.4128	1799.6202	13445.5	12562
914.5531	1801.2982	13429.8	12546.55
914.6934	1802.9755	13404	12517.8
914.8337	1804.6519	13375.45	12490.15
914.9739	1806.3277	13306.7	12425.3
915.1142	1808.0027	13254	12373.05
915.2544	1809.6769	13277.85	12397.3
915.3946	1811.3504	13216.7	12334.35
915.5348	1813.0231	13184.2	12301.7
915.675	1814.6951	13161.05	12275.6
915.8151	1816.3664	13186	12299.8
915.9553	1818.0369	13128.15	12243.95
916.0954	1819.7067	13106.55	12223.2
916.2355	1821.3757	13093.8	12209.25
916.3755	1823.044	13067.5	12184.2
916.5156	1824.7115	13020.95	12137
916.6556	1826.3783	12974.2	12091.45
916.7956	1828.0443	12929.65	12048.6
916.9356	1829.7096	12897.9	12012.9
917.0756	1831.3741	12884.35	11999.4
917.2155	1833.0379	12866.25	11984.45
917.3555	1834.701	12829.4	11945.05
917.4954	1836.3633	12810.1	11925.75
917.6353	1838.0248	12757.7	11874.15
917.7751	1839.6856	12771.5	11888.2
917.915	1841.3457	12720.85	11837.45
918.0548	1843.005	12711.95	11827.8
918.1946	1844.6636	12655.6	11774.15
918.3344	1846.3214	12639.2	11755.5
918.4742	1847.9785	12633.2	11749.3
918.6139	1849.6349	12557.1	11670.45
918.7537	1851.2904	12550.85	11655.65
918.8934	1852.9453	12532.75	11646.15
919.0331	1854.5994	12494.7	11609.2
919.1727	1856.2528	12502.8	11614
919.3124	1857.9054	12463.85	11580.15
919.452	1859.5572	12469.1	11587.55
919.5916	1861.2083	12428.3	11543.55
919.7312	1862.8587	12429.1	11544.55
919.8708	1864.5084	12383.25	11498.5
920.0103	1866.1572	12366.15	11480.9
920.1498	1867.8054	12301.6	11418.05
920.2893	1869.4528	12266.95	11382.6
920.4288	1871.0994	12261.75	11377.25
920.5683	1872.7453	12245.3	11361
920.7077	1874.3905	12214.45	11324.75
920.8471	1876.0349	12143.35	11260.7
920.9865	1877.6786	12173.1	11287.1
921.1259	1879.3215	12147.25	11265.4
921.2653	1880.9637	12123.5	11239.05
921.4046	1882.6051	12099.35	11216.8
921.5439	1884.2458	12062.5	11176.2
921.6832	1885.8858	12011.25	11126.65
921.8225	1887.525	11970.6	11085.45
921.9617	1889.1634	11927.1	11041.8
922.101	1890.8011	11903.05	11018.6
922.2402	1892.4381	11906.4	11022.75
922.3794	1894.0743	11878.85	10997.9
922.5185	1895.7098	11840.45	10958.45
922.6577	1897.3446	11835.5	10951.8
922.7968	1898.9786	11772.8	10885.3
922.9359	1900.6118	11760.9	10877.9
923.075	1902.2443	11714.45	10826.7
923.214	1903.8761	11686.4	10802.8
923.3531	1905.5071	11620.85	10734.75
923.4921	1907.1374	11606.7	10722.6
923.6311	1908.7669	11559.8	10677.8
923.77	1910.3957	11561.25	10678.45
923.909	1912.0237	11470.95	10589.55
924.0479	1913.651	11452.1	10567.6
924.1868	1915.2776	11435.2	10552.8
924.3257	1916.9034	11411.85	10530.25
924.4646	1918.5285	11349.6	10466.5
924.6034	1920.1528	11291.4	10407.45
924.7422	1921.7764	11298.15	10416.1
924.881	1923.3992	11232.55	10349.35
925.0198	1925.0213	11184.9	10302.15
925.1586	1926.6427	11181.95	10298.25
925.2973	1928.2633	11304.95	10173.95
925.436	1929.8832	11115.85	10227.4
925.5747	1931.5023	11065	10182.45
925.7134	1933.1207	11033.75	10149.4
925.852	1934.7383	11011.45	10128.55
925.9906	1936.3552	10959.85	10078.95
926.1292	1937.9714	10956.8	10073.2
926.2678	1939.5868	10919.4	10034.75
926.4064	1941.2015	10838.9	9956.05
926.5449	1942.8154	10829.15	9946.5
926.6834	1944.4286	10778.75	9893.9
926.8219	1946.041	10772.5	9865.6
926.9604	1947.6528	10691.75	9802.4
927.0988	1949.2637	10686.95	9803.75
927.2372	1950.8739	10636.35	9752.85
927.3756	1952.4834	10625.55	9742.5
927.514	1954.0921	10609.6	9726
927.6523	1955.7001	10554.5	9668.25
927.7907	1957.3074	10532.3	9651.1
927.929	1958.9139	10486.3	9604.55
928.0673	1960.5197	10471.7	9587.55
928.2055	1962.1247	10415	9533.55
928.3438	1963.729	10385.4	9499.1
928.482	1965.3325	10362.45	9457.25
928.6202	1966.9353	10338.75	9458.05
928.7584	1968.5374	10289.9	9407.6
928.8965	1970.1387	10270.5	9387.6
929.0346	1971.7393	10232.4	9348.95
929.1727	1973.3392	10179.55	9297.8
929.3108	1974.9383	10164.9	9282.6
929.4489	1976.5366	10115.3	9233.9
929.5869	1978.1342	10132.55	9250.15
929.7249	1979.7311	10048.65	9165.7
929.8629	1981.3273	10081.8	9200.1
930.0009	1982.9227	10031.4	9147.7
930.1388	1984.5173	9994.5	9113.15
930.2767	1986.1112	9940.95	9060.6
930.4146	1987.7044	9947.5	9065.8
930.5525	1989.2968	9922.2	9038.35
930.6904	1990.8885	9897.6	9012
930.8282	1992.4795	9855.05	8973
930.966	1994.0697	9838.3	8958.75
931.1038	1995.6592	9790.75	8910.15
931.2415	1997.2479	9788.8	8907.8
931.3793	1998.8359	9763.75	8881.15
931.517	2000.4232	9709.6	8828.8
931.6547	2002.0097	9692.65	8815.15
931.7923	2003.5955	9634.75	8753.65
931.93	2005.1805	9644	8762.6
932.0676	2006.7648	9616.2	8733.3
932.2052	2008.3484	9595.45	8712.9
932.3427	2009.9312	9570.45	8687.8
932.4803	2011.5133	9523.65	8644.15
932.6178	2013.0946	9500.8	8621.6
932.7553	2014.6752	9484.7	8603.85
932.8928	2016.2551	9459.15	8576.05
933.0302	2017.8342	9418.15	8539.7
933.1676	2019.4126	9396.9	8516.75
933.305	2020.9902	9350	8469.3
933.4424	2022.5672	9353.15	8471.75
933.5798	2024.1433	9327.95	8443.65
933.7171	2025.7188	9304.45	8425.35
933.8544	2027.2935	9293.5	8411.9
933.9917	2028.8674	9249.65	8370.55
934.129	2030.4406	9208.35	8329.05
934.2662	2032.0131	9156.05	8277.3
934.4034	2033.5849	9138.3	8255.2
934.5406	2035.1559	9144.2	8265.9
934.6778	2036.7261	9105.95	8225.85
934.8149	2038.2957	9088.7	8208.15
934.952	2039.8645	9053.5	8172.1
935.0891	2041.4325	9069.75	8184.5
935.2262	2042.9998	9034.9	8155.1
935.3632	2044.5664	9021.85	8139.05
935.5002	2046.1323	8982.4	8104.3
935.6372	2047.6974	8950.45	8070.85
935.7742	2049.2617	8959.75	8079.9
935.9111	2050.8254	8923.55	8038.85
936.048	2052.3883	8910.35	8030.1
936.1849	2053.9504	8874.4	7993.45
936.3218	2055.5118	8859.55	7976.5
936.4586	2057.0725	8829.2	7946.75
936.5955	2058.6325	8824.1	7943.65
936.7323	2060.1917	8799.3	7920.65
936.869	2061.7502	8762.15	7880.5
937.0058	2063.3079	8725.5	7846.3
937.1425	2064.8649	8715.75	7832.8
937.2792	2066.4212	8700.75	7821.1
937.4159	2067.9767	8680.45	7800.1
937.5525	2069.5315	8662.75	7783.45
937.6891	2071.0856	8606.75	7725.9
937.8257	2072.6389	8579.15	7700.8
937.9623	2074.1915	8535.15	7654.65
938.0989	2075.7433	8518.4	7637.2
938.2354	2077.2945	8498.2	7619.8
938.3719	2078.8448	8456.1	7575.55
938.5084	2080.3945	8435.3	7553.3
938.6448	2081.9434	8447	7566.45
938.7812	2083.4916	8420.25	7539.1
938.9176	2085.039	8374.45	7493.2
939.054	2086.5857	8355.7	7473.95
939.1903	2088.1317	8344.75	7462.5
939.3267	2089.677	8319.65	7437.2
939.463	2091.2215	8295.35	7413.8
939.5992	2092.7652	8286.1	7401.45
939.7355	2094.3083	8261.15	7379.05
939.8717	2095.8506	8248.5	7368.1
940.0079	2097.3921	8248	7367.75
940.1441	2098.933	8191.75	7309.2
940.2802	2100.4731	8211.6	7331.75
940.4163	2102.0124	8218.05	7317.7
940.5524	2103.5511	8184.5	7304.45
940.6885	2105.089	8174.35	7294.8
940.8245	2106.6261	8132.7	7252.25
940.9606	2108.1626	8118.6	7238.5
941.0965	2109.6983	8125.1	7215.5
941.2325	2111.2332	8084.7	7202.9
941.3684	2112.7675	8065.65	7182.35
941.5044	2114.301	8041.95	7159.25
941.6403	2115.8337	8016	7134.95
941.7761	2117.3657	7997.45	7116.5
941.912	2118.897	7973.9	7091.7
942.0478	2120.4276	7972.95	7087.05
942.1835	2121.9575	7930	7046
942.3193	2123.4866	7944.45	7050
942.455	2125.0149	7910	7027.45
942.5907	2126.5426	7861.15	6979.75
942.7264	2128.0695	7870.1	6985.4
942.8621	2129.5956	7849.15	6969.25
942.9977	2131.1211	7836.1	6951.35
943.1333	2132.6458	7798.05	6918
943.2689	2134.1698	7784.15	6900.35
943.4044	2135.693	7776.75	6891.9
943.54	2137.2155	7761.45	6876.2
943.6755	2138.7373	7745	6864.35
943.8109	2140.2584	7713.2	6832.25
943.9464	2141.7787	7696.3	6810.25
944.0818	2143.2983	7647.85	6768.9
944.2172	2144.8171	7619.9	6741.25
944.3526	2146.3353	7625.25	6743.55
944.4879	2147.8527	7569.6	6691.65
944.6232	2149.3693	7572.75	6689.7
944.7585	2150.8853	7551.95	6668.6
944.8938	2152.4005	7521	6638.45
945.029	2153.9149	7519	6636.95
945.1642	2155.4287	7503.1	6622.05
945.2994	2156.9417	7464.7	6583.2
945.4346	2158.454	7443.6	6560.55
945.5697	2159.9655	7429.75	6548.2
945.7048	2161.4764	7417.2	6537.7
945.8399	2162.9865	7397.15	6517.65
945.9749	2164.4958	7378.65	6496
946.1099	2166.0045	7352.4	6468.05
946.2449	2167.5124	7354.05	6471.05
946.3799	2169.0195	7328.5	6447.2
946.5148	2170.526	7303.65	6422.2
946.6498	2172.0317	7282.05	6400.25
946.7846	2173.5367	7290.25	6410.05
946.9195	2175.0409	7249.35	6367.65
947.0543	2176.5445	7244.1	6364.45
947.1891	2178.0473	7227.3	6344.05
947.3239	2179.5494	7191.3	6307.75
947.4587	2181.0507	7163.8	6283.3
947.5934	2182.5513	7149.25	6267.3
947.7281	2184.0512	7141.05	6258.25
947.8628	2185.5504	7113.95	6232.35
947.9974	2187.0488	7052.55	6172.05
948.132	2188.5465	7057.9	6176.75
948.2666	2190.0435	7058.85	6177.3
948.4012	2191.5397	7013.3	6132.75
948.5357	2193.0353	7024.2	6143
948.6702	2194.5301	6982.15	6097.85
948.8047	2196.0241	6952.75	6070.7
948.9392	2197.5175	6935.2	6052.1
949.0736	2199.0101	6916.7	6030.4
949.208	2200.502	6881.5	6000.3
949.3424	2201.9931	6871.15	5989.75
949.4767	2203.4835	6840.5	5958.2
949.611	2204.9733	6829.1	5942.4
949.7453	2206.4622	6808.5	5928.75
949.8796	2207.9505	6782.35	5898.6
950.0138	2209.438	6748.1	5869.3
950.148	2210.9248	6742.1	5859.35
950.2822	2212.4109	6727.1	5849.65
950.4164	2213.8962	6690.65	5804.9
950.5505	2215.3809	6683.15	5799.55
950.6846	2216.8648	6670.5	5786.65
950.8186	2218.3479	6661.6	5773.3
950.9527	2219.8304	6619.9	5735.05
951.0867	2221.3121	6611.35	5726.6
951.2207	2222.7931	6578.55	5697.25
951.3546	2224.2733	6559.5	5676.85
951.4886	2225.7529	6527.9	5644.3
951.6225	2227.2317	6514.3	5630.65
951.7563	2228.7098	6513.7	5630.95
951.8902	2230.1872	6483.7	5604.6
952.024	2231.6638	6487.35	5606.3
952.1578	2233.1397	6453.8	5566.8
952.2916	2234.6149	6435.3	5556.6
952.4253	2236.0894	6427.05	5543.1
952.559	2237.5632	6414.8	5522.5
952.6927	2239.0362	6385.55	5503
952.8263	2240.5085	6362.1	5479.85
952.9599	2241.9801	6343.55	5460.85
953.0935	2243.4509	6328.1	5446.1
953.2271	2244.921	6294.25	5412.5
953.3606	2246.3904	6286.1	5403.35
953.4941	2247.8591	6255.45	5374
953.6276	2249.3271	6232.25	5350.45
953.7611	2250.7943	6214.1	5330.85
953.8945	2252.2608	6210.5	5328.85
954.0279	2253.7266	6194.5	5310.95
954.1612	2255.1917	6165.6	5282.4
954.2946	2256.656	6163.85	5283.3
954.4279	2258.1197	6135.65	5253.95
954.5612	2259.5826	6125.85	5242.05
954.6944	2261.0447	6121.95	5238.9
954.8276	2262.5062	6103	5219.25
954.9608	2263.9669	6083.15	5201.1
955.094	2265.4269	6089.7	5207.15
955.2271	2266.8862	6064.35	5184.15
955.3602	2268.3448	6054.1	5171.4
955.4933	2269.8026	6028.95	5148.2
955.6264	2271.2598	6012.7	5132.65
955.7594	2272.7162	6005.55	5124.45
955.8924	2274.1719	5981.45	5098.55
956.0253	2275.6268	5961.75	5081.3
956.1583	2277.0811	5946.5	5063.7
956.2912	2278.5346	5937.5	5055.65
956.4241	2279.9874	5907.45	5026.65
956.5569	2281.4395	5901.65	5020.1
956.6897	2282.8908	5894.15	5008.75
956.8225	2284.3414	5893.6	5010.7
956.9553	2285.7914	5863.1	4983.15
957.088	2287.2406	5850.35	4967.05
957.2207	2288.689	5821.5	4937.5
957.3534	2290.1368	5815.3	4931.5
957.486	2291.5838	5791.55	4904.65
957.6186	2293.0302	5797.05	4912.35
957.7512	2294.4758	5768.15	4886.15
957.8838	2295.9206	5738.3	4850.9
958.0163	2297.3648	5721.5	4839.1
958.1488	2298.8082	5728.2	4845.3
958.2813	2300.251	5701.8	4819.35
958.4137	2301.693	5698.5	4813.15
958.5461	2303.1343	5700.6	4817.8
958.6785	2304.5748	5661.65	4779.2
958.8108	2306.0147	5623.4	4741.6
958.9432	2307.4538	5638.65	4755.45
959.0754	2308.8922	5625.8	4745.8
959.2077	2310.3299	5619.4	4737.75
959.3399	2311.7669	5581.45	4700.85
959.4721	2313.2031	5560.85	4678.45
959.6043	2314.6387	5553.7	4671.3
959.7365	2316.0735	5526.95	4644.3
959.8686	2317.5076	5535.3	4652.35
960.0006	2318.941	5517.3	4636.9
960.1327	2320.3737	5509.65	4626
960.2647	2321.8056	5484.1	4599.8
960.3967	2323.2369	5471.25	4589.7
960.5287	2324.6674	5460.1	4574.25
960.6606	2326.0972	5441.75	4557.35
960.7925	2327.5263	5415	4533.35
960.9244	2328.9547	5397.45	4514.3
961.0562	2330.3823	5381.8	4497.4
961.1881	2331.8092	5386.9	4498.6
961.3198	2333.2355	5357.35	4471.5
961.4516	2334.661	5338	4454.7
961.5833	2336.0858	5333.45	4448.55
961.715	2337.5098	5321.3	4436.9
961.8467	2338.9332	5318	4434.9
961.9783	2340.3558	5302.55	4418.4
962.1099	2341.7778	5263.9	4382.75
962.2415	2343.199	5256.75	4373.1
962.373	2344.6195	5241.1	4358.5
962.5045	2346.0393	5223.25	4339.85
962.636	2347.4583	5246.4	4364.65
962.7675	2348.8767	5176.5	4292.65
962.8989	2350.2943	5196.75	4313.2
963.0303	2351.7113	5177.35	4295.25
963.1617	2353.1275	5160.35	4275.55
963.293	2354.543	5146.35	4255.5
963.4243	2355.9578	5127.3	4245
963.5556	2357.3718	5098.85	4214.5
963.6868	2358.7852	5067.35	4184.9
963.818	2360.1978	5064.4	4180.85
963.9492	2361.6098	5044.85	4164.55
964.0803	2363.021	5040.8	4156.3
964.2114	2364.4315	5008.75	4125.1
964.3425	2365.8413	5000.5	4117.55
964.4736	2367.2504	4995.85	4111.9
964.6046	2368.6587	4970.05	4088.3
964.7356	2370.0664	4954.85	4072.5
964.8666	2371.4733	4943.5	4058.9
964.9975	2372.8795	4936.3	4053.25
965.1284	2374.285	4927.15	4044.9
965.2593	2375.6899	4886.15	4002.15
965.3901	2377.0939	4861.75	3980.05
965.5209	2378.4973	4848.6	3965.9
965.6517	2379.9	4844.85	3960.65
965.7825	2381.3019	4822.15	3940.9
965.9132	2382.7032	4806.95	3924.2
966.0439	2384.1037	4792.45	3913.65
966.1745	2385.5035	4795.3	3913.95
966.3051	2386.9027	4770.6	3891
966.4357	2388.3011	4755.4	3869.5
966.5663	2389.6987	4745.4	3864.1
966.6968	2391.0957	4729.7	3849.6
966.8273	2392.492	4716.05	3832.55
966.9578	2393.8876	4694.45	3812.3
967.0882	2395.2824	4664.75	3783.2
967.2186	2396.6765	4654.1	3773.35
967.349	2398.07	4634.15	3752.5
967.4793	2399.4627	4637.85	3752.35
967.6097	2400.8547	4633.2	3750.05
967.7399	2402.246	4593.95	3705.4
967.8702	2403.6366	4587.45	3703.85
968.0004	2405.0265	4560.6	3679.85
968.1306	2406.4156	4555.5	3667.35
968.2607	2407.8041	4545.7	3662.4
968.3909	2409.1918	4518.05	3632.9
968.521	2410.5789	4510.6	3626.55
968.651	2411.9652	4510.5	3625.75
968.781	2413.3508	4468.15	3582.35
968.911	2414.7358	4453.55	3570.65
969.041	2416.12	4461.65	3581.05
969.1709	2417.5035	4444.2	3561.85
969.3008	2418.8863	4421.8	3538.3
969.4307	2420.2684	4411.85	3530.6
969.5606	2421.6497	4387.3	3503.35
969.6904	2423.0304	4375.45	3491.3
969.8201	2424.4104	4351.7	3469.2
969.9499	2425.7896	4349.2	3466.65
970.0796	2427.1682	4356.9	3474.45
970.2093	2428.546	4322.6	3437.45
970.3389	2429.9232	4320.4	3434.75
970.4685	2431.2996	4319.3	3436.6
970.5981	2432.6753	4302.3	3420.1
970.7277	2434.0503	4274.9	3392.25
970.8572	2435.4246	4270.9	3388.95
970.9867	2436.7982	4266.3	3381.65
971.1161	2438.1711	4255.6	3372
971.2456	2439.5433	4239.35	3355.5
971.375	2440.9148	4238.65	3347.45
971.5043	2442.2856	4213.5	3332.5
971.6336	2443.6557	4202.4	3320.6
971.7629	2445.025	4192.25	3308.6
971.8922	2446.3937	4173.05	3289.2
972.0214	2447.7617	4178.65	3295.5
972.1506	2449.1289	4167.7	3284.6
972.2798	2450.4955	4161.75	3275.65
972.4089	2451.8613	4147.6	3265.35
972.538	2453.2265	4127.1	3243.8
972.6671	2454.5909	4114.65	3231.2
972.7961	2455.9546	4111.25	3230.15
972.9251	2457.3177	4101.3	3218.2
973.0541	2458.68	4097.85	3215.25
973.1831	2460.0416	4094.7	3212.6
973.312	2461.4025	4075.1	3189.2
973.4408	2462.7627	4079.55	3187.25
973.5697	2464.1222	4048.05	3167.05
973.6985	2465.4811	4037.4	3154.7
973.8273	2466.8392	4048.4	3165.95
973.956	2468.1966	4026.4	3141.95
974.0847	2469.5533	4036.55	3152.05
974.2134	2470.9093	3995.95	3113.4
974.3421	2472.2645	3999.05	3112.35
974.4707	2473.6191	3982.8	3100.35
974.5993	2474.973	3975.2	3091.95
974.7278	2476.3262	3964.25	3081.45
974.8563	2477.6787	3945.75	3064.7
974.9848	2479.0305	3939.6	3056.15
975.1132	2480.3816	3927.8	3045
975.2417	2481.7319	3912.35	3029.1
975.37	2483.0816	3894.3	3010.2
975.4984	2484.4306	3883.65	3001.75
975.6267	2485.7789	3871.7	2990.25
975.755	2487.1264	3861.55	2978.75
975.8833	2488.4733	3845.75	2965.3
976.0115	2489.8195	3845.05	2956.2
976.1397	2491.165	3829.45	2943.75
976.2678	2492.5097	3811.7	2928.4
976.3959	2493.8538	3805.3	2923.05
976.524	2495.1972	3780.95	2897.75
976.6521	2496.5398	3778.55	2893.35
976.7801	2497.8818	3776.35	2892.3
976.9081	2499.2231	3766.6	2882.65
977.036	2500.5637	3753.15	2869.75
977.164	2501.9035	3741.2	2859.4
977.2918	2503.2427	3722.35	2835.2
977.4197	2504.5812	3717.7	2836.2
977.5475	2505.919	3721.4	2836.15
977.6753	2507.256	3706.95	2823.7
977.8031	2508.5924	3686.25	2803.1
977.9308	2509.9281	3692.7	2803.1
978.0585	2511.2631	3666.25	2784.25
978.1861	2512.5974	3655.3	2774.15
978.3137	2513.9309	3653.85	2770.95
978.4413	2515.2638	3669.45	2751.85
978.5689	2516.596	3640.75	2756.85
978.6964	2517.9275	3610.85	2730.55
978.8239	2519.2583	3599.75	2715.35
978.9513	2520.5884	3614.65	2728.5
979.0788	2521.9178	3596.3	2711
979.2062	2523.2465	3583.6	2701.35
979.3335	2524.5745	3563.7	2681.75
979.4608	2525.9018	3540.55	2657.1
979.5881	2527.2284	3552.6	2671.4
979.7154	2528.5543	3534.65	2654
979.8426	2529.8796	3539.85	2656.55
979.9698	2531.2041	3542.4	2659.65
980.0969	2532.5279	3513.3	2632.65
980.224	2533.851	3504.05	2620.55
980.3511	2535.1735	3508.05	2627.2
980.4781	2536.4952	3505.25	2619.55
980.6052	2537.8163	3494.05	2612.55
980.7321	2539.1366	3482.55	2600.55
980.8591	2540.4562	3464.65	2579.55
980.986	2541.7752	3466.3	2583.95
981.1129	2543.0935	3462.6	2580.3
981.2397	2544.411	3469	2584.05
981.3665	2545.7279	3440.55	2559
981.4933	2547.0441	3430.8	2547.45
981.62	2548.3596	3452.9	2566.85
981.7467	2549.6744	3423.5	2539.75
981.8734	2550.9885	3422.7	2530.95
982.0001	2552.3019	3404.65	2522.9
982.1267	2553.6146	3415.65	2531.95
982.2532	2554.9266	3397.1	2513.75
982.3798	2556.2379	3402.85	2518.1
982.5063	2557.5485	3390.35	2511.5
982.6327	2558.8585	3380.3	2491.65
982.7592	2560.1677	3372.9	2485.2
982.8856	2561.4762	3371.5	2488.25
983.0119	2562.7841	3360	2473.95
983.1383	2564.0913	3343.45	2463.65
983.2646	2565.3977	3324.65	2442.3
983.3908	2566.7035	3322.6	2439.7
983.517	2568.0086	3335.7	2452.85
983.6432	2569.313	3327.35	2442.9
983.7694	2570.6167	3314.85	2426.7
983.8955	2571.9197	3307.15	2426.85
984.0216	2573.222	3305.35	2417.4
984.1476	2574.5236	3291.75	2409.55
984.2737	2575.8246	3281.55	2393.6
984.3996	2577.1248	3284.8	2399.55
984.5256	2578.4244	3287.45	2406.15
984.6515	2579.7232	3273.5	2389.9
984.7774	2581.0214	3283.85	2375.9
984.9032	2582.3189	3254.1	2371.45
985.029	2583.6157	3262.6	2373.55
985.1548	2584.9118	3250.95	2368.75
985.2806	2586.2072	3252.2	2368.15
985.4063	2587.5019	3232.65	2351.4
985.5319	2588.7959	3231.2	2348.25
985.6576	2590.0893	3217.9	2332.55
985.7832	2591.3819	3214.85	2332.1
985.9087	2592.6739	3203.65	2322.8
986.0343	2593.9652	3199.8	2316.55
986.1597	2595.2557	3184.95	2302.2
986.2852	2596.5456	3170.6	2284.15
986.4106	2597.8348	3176.35	2294.6
986.536	2599.1234	3159.8	2277.4
986.6614	2600.4112	3146.85	2264.05
986.7867	2601.6983	3154.75	2270.4
986.912	2602.9848	3129.05	2244.65
987.0372	2604.2705	3130.15	2242.4
987.1624	2605.5556	3106.55	2223.4
987.2876	2606.84	3101.2	2219.85
987.4128	2608.1237	3099.05	2215.15
987.5379	2609.4067	3081.55	2197.8
987.6629	2610.689	3084.65	2193.95
987.788	2611.9707	3064.65	2180.1
987.913	2613.2516	3054.1	2165.55
988.0379	2614.5319	3047.25	2167.2
988.1629	2615.8115	3026	2141.65
988.2878	2617.0903	3027.4	2144.55
988.4126	2618.3685	3030.45	2147.15
988.5375	2619.6461	3002.8	2119.65
988.6622	2620.9229	3001.8	2121.65
988.787	2622.199	2998.75	2114.25
988.9117	2623.4745	2993.35	2111.3
989.0364	2624.7493	2982.65	2100.2
989.161	2626.0234	2965.95	2085.15
989.2857	2627.2968	2958.05	2076.45
989.4102	2628.5695	2950.35	2067.2
989.5348	2629.8415	2949.2	2068.25
989.6593	2631.1128	2925.2	2040.65
989.7837	2632.3835	2929.15	2045.8
989.9082	2633.6535	2914.75	2031.65
990.0326	2634.9228	2901.2	2018.55
990.1569	2636.1914	2900.35	2018.6
990.2812	2637.4593	2892.6	2004.2
990.4055	2638.7265	2892.1	2009.7
990.5298	2639.9931	2891.9	2009.65
990.654	2641.259	2875.8	1993.6
990.7782	2642.5242	2862.35	1979.1
990.9023	2643.7887	2856.5	1974.85
991.0264	2645.0525	2848.25	1966.35
991.1505	2646.3156	2829.4	1946.9
991.2745	2647.5781	2837.2	1956.15
991.3985	2648.8398	2828.85	1948
991.5225	2650.1009	2822.9	1932.85
991.6464	2651.3613	2814.85	1933.7
991.7703	2652.6211	2817.85	1937.1
991.8942	2653.8801	2808.2	1924.95
992.018	2655.1385	2806.4	1922.05
992.1418	2656.3961	2792.8	1910.55
992.2655	2657.6531	2773	1890.35
992.3892	2658.9094	2778.9	1897
992.5129	2660.1651	2766.75	1885.1
992.6366	2661.42	2760.9	1879.3
992.7602	2662.6743	2756.6	1873.45
992.8837	2663.9279	2753.25	1871.7
993.0073	2665.1808	2751.4	1868.6
993.1307	2666.433	2749.4	1866.25
993.2542	2667.6846	2733.05	1851.75
993.3776	2668.9354	2736.45	1849.75
993.501	2670.1856	2718.45	1834.75
993.6244	2671.4351	2715.8	1834.75
993.7477	2672.6839	2720.45	1838.85
993.8709	2673.9321	2696.85	1815.25
993.9942	2675.1795	2708.65	1827.8
994.1174	2676.4263	2690.5	1808.8
994.2405	2677.6724	2688.25	1807.5
994.3637	2678.9179	2684	1800.8
994.4868	2680.1626	2681.95	1800.65
994.6098	2681.4067	2676.15	1794.6
994.7328	2682.6501	2673.15	1792.05
994.8558	2683.8928	2650.35	1768.45
994.9788	2685.1348	2643.8	1762.5
995.1017	2686.3761	2634.85	1753.6
995.2245	2687.6168	2636.2	1754.65
995.3474	2688.8568	2625.9	1742.25
995.4702	2690.0961	2622.1	1741.55
995.5929	2691.3348	2620.05	1737.15
995.7156	2692.5727	2606.05	1723.2
995.8383	2693.81	2604.6	1724.3
995.961	2695.0466	2601.25	1720.45
996.0836	2696.2826	2597.05	1713.6
996.2062	2697.5178	2598.25	1713.75
996.3287	2698.7524	2581.05	1700.2
996.4512	2699.9863	2579.3	1693.95
996.5737	2701.2195	2564.05	1685.35
996.6961	2702.452	2567.15	1683.95
996.8185	2703.6839	2564	1681.95
996.9408	2704.9151	2547.7	1664.95
997.0631	2706.1456	2543.4	1660.45
997.1854	2707.3755	2535.5	1654.05
997.3077	2708.6046	2553.2	1667.55
997.4299	2709.8331	2532.95	1650.4
997.552	2711.0609	2518.7	1637.15
997.6742	2712.2881	2523.75	1643.4
997.7963	2713.5145	2508.35	1625.2
997.9183	2714.7403	2508.4	1627.1
998.0403	2715.9654	2500.55	1620
998.1623	2717.1899	2510.5	1615.5
998.2842	2718.4136	2488.75	1606.6
998.4062	2719.6367	2478.65	1595.45
998.528	2720.8591	2487.9	1597.65
998.6498	2722.0809	2467	1585.55
998.7716	2723.3019	2466.6	1581
998.8934	2724.5223	2462.9	1578.7
999.0151	2725.7421	2455.25	1573.9
999.1368	2726.9611	2450.15	1565.05
999.2584	2728.1795	2456.25	1569.75
999.38	2729.3972	2443.2	1561.2
999.5016	2730.6142	2445.35	1551.05
999.6231	2731.8306	2429.5	1546.65
999.7446	2733.0462	2404.1	1520.75
999.8661	2734.2612	2417.4	1530.25
999.9875	2735.4756	2383.95	1500.05
1000.1089	2736.6892	2377.7	1498
1000.2302	2737.9022	2385.65	1506.2
1000.3515	2739.1145	2367.65	1484.45
1000.4728	2740.3262	2374.35	1484.85
1000.594	2741.5372	2350.8	1471.4
1000.7152	2742.7475	2347.15	1464.25
1000.8363	2743.9571	2352.35	1468.7
1000.9575	2745.1661	2342	1454.7
1001.0785	2746.3744	2342.55	1461.4
1001.1996	2747.582	2324.5	1444.05
1001.3206	2748.7889	2320.6	1435.2
1001.4415	2749.9952	2305.8	1422.95
1001.5625	2751.2008	2312.6	1429.15
1001.6833	2752.4057	2305.15	1422.4
1001.8042	2753.61	2299.45	1415.6
1001.925	2754.8136	2291.75	1408.35
1002.0458	2756.0165	2285.85	1405.25
1002.1665	2757.2188	2276.2	1396.45
1002.2872	2758.4204	2280.75	1400.9
1002.4078	2759.6213	2264.7	1380.45
1002.5285	2760.8215	2267.9	1383.15
1002.649	2762.0211	2258.5	1375.05
1002.7696	2763.22	2261.35	1376.7
1002.8901	2764.4182	2251	1366.4
1003.0106	2765.6158	2251.15	1368.05
1003.131	2766.8127	2235.6	1354.3
1003.2514	2768.009	2230	1348.95
1003.3717	2769.2045	2238.8	1355.85
1003.492	2770.3994	2228	1346.65
1003.6123	2771.5936	2212.65	1330.4
1003.7325	2772.7872	2211.95	1332.15
1003.8527	2773.9801	2202.85	1321.1
1003.9729	2775.1723	2213.3	1315.1
1004.093	2776.3639	2191.8	1311.65
1004.2131	2777.5548	2191.1	1306.6
1004.3331	2778.745	2178.75	1297.1
1004.4531	2779.9346	2188.6	1308.25
1004.5731	2781.1235	2181.1	1298.1
1004.693	2782.3117	2172.25	1291.2
1004.8129	2783.4992	2160.2	1279.85
1004.9328	2784.6861	2159.6	1278.35
1005.0526	2785.8723	2150.8	1269.3
1005.1723	2787.0579	2152.65	1269.25
1005.2921	2788.2428	2148.9	1268.05
1005.4118	2789.427	2139.65	1257.35
1005.5314	2790.6106	2139.7	1258.5
1005.651	2791.7935	2134.45	1254.3
1005.7706	2792.9757	2116.8	1235.6
1005.8902	2794.1573	2124.85	1241.2
1006.0097	2795.3382	2114.7	1234
1006.1291	2796.5184	2111.35	1230.8
1006.2485	2797.698	2118.1	1233.85
1006.3679	2798.8769	2108.9	1228.6
1006.4873	2800.0551	2087.2	1205.35
1006.6066	2801.2327	2098.15	1215
1006.7258	2802.4096	2090.7	1210.75
1006.8451	2803.5859	2082.4	1201.95
1006.9642	2804.7615	2084.9	1203.8
1007.0834	2805.9364	2079.5	1200.85
1007.2025	2807.1106	2085.8	1206.4
1007.3216	2808.2842	2080.45	1196.7
1007.4406	2809.4572	2084.6	1203.8
1007.5596	2810.6294	2072.15	1190.25
1007.6785	2811.801	2072.55	1193.25
1007.7975	2812.972	2096.5	1216.75
1007.9163	2814.1423	2080.85	1198.85
1008.0352	2815.3119	2088.2	1207.4
1008.154	2816.4808	2079.5	1197.95
1008.2727	2817.6491	2086.1	1204.4
1008.3914	2818.8167	2092.6	1212.25
1008.5101	2819.9837	2098.6	1212.85
1008.6288	2821.15	2095.7	1215.5
1008.7474	2822.3157	2109.8	1230.35
1008.8659	2823.4807	2111.05	1228.6
1008.9844	2824.645	2120.25	1238.35
1009.1029	2825.8086	2124.2	1244.3
1009.2214	2826.9716	2129.9	1250.2
1009.3398	2828.134	2130.25	1250.05
1009.4581	2829.2957	2143.55	1263.05
1009.5764	2830.4567	2136.35	1257.4
1009.6947	2831.617	2145.85	1263.55
1009.813	2832.7767	2140.55	1262.1
1009.9312	2833.9358	2133.6	1253.05
1010.0493	2835.0941	2140.45	1258
1010.1675	2836.2519	2122.2	1243.45
1010.2855	2837.4089	2116	1232.35
1010.4036	2838.5653	2112.8	1231.65
1010.5216	2839.7211	2111.65	1231.5
1010.6396	2840.8761	2107.85	1225.9
1010.7575	2842.0306	2102.7	1224.25
1010.8754	2843.1843	2093.5	1214.5
1010.9932	2844.3374	2105.4	1224
1011.111	2845.4899	2111	1229.9
1011.2288	2846.6417	2112.85	1231.7
1011.3465	2847.7928	2123.4	1242.9
1011.4642	2848.9433	2111.4	1231.05
1011.5818	2850.0931	2121.05	1238.8
1011.6995	2851.2422	2130.65	1250.35
1011.817	2852.3907	2136.15	1253.9
1011.9345	2853.5385	2136	1252.7
1012.052	2854.6857	2142.45	1252.2
1012.1695	2855.8323	2146.4	1268.1
1012.2869	2856.9781	2142.25	1262
1012.4042	2858.1233	2149.25	1266.05
1012.5216	2859.2679	2148.5	1268.35
1012.6389	2860.4118	2154.95	1275.35
1012.7561	2861.555	2153.45	1269.55
1012.8733	2862.6976	2164.25	1282.85
1012.9905	2863.8395	2153.35	1272.95
1013.1076	2864.9808	2156.6	1277
1013.2247	2866.1214	2159.55	1279.45
1013.3417	2867.2614	2162.1	1279.35
1013.4587	2868.4007	2159.35	1278.5
1013.5757	2869.5393	2145.8	1262.9
1013.6926	2870.6773	2153.9	1271.6
1013.8095	2871.8146	2140.9	1256.05
1013.9263	2872.9513	2150.35	1268.45
1014.0431	2874.0874	2149.2	1271.1
1014.1599	2875.2227	2135.95	1254.55
1014.2766	2876.3574	2124.6	1243.8
1014.3933	2877.4915	2119.2	1239.95
1014.51	2878.6249	2106	1225.4
1014.6266	2879.7577	2112.5	1230.35
1014.7431	2880.8898	2111.75	1222.15
1014.8596	2882.0212	2097.1	1217.85
1014.9761	2883.152	2091.75	1208.6
1015.0925	2884.2821	2079.1	1200.25
1015.2089	2885.4116	2077.6	1197.85
1015.3253	2886.5405	2073.55	1193.1
1015.4416	2887.6686	2069.65	1184.95
1015.5579	2888.7962	2077.1	1201.35
1015.6741	2889.923	2062.6	1183.4
1015.7903	2891.0493	2063.6	1184.6
1015.9065	2892.1748	2059.05	1178.35
1016.0226	2893.2997	2066.35	1185.75
1016.1387	2894.424	2062.4	1183.85
1016.2547	2895.5476	2049.85	1167.15
1016.3707	2896.6706	2043.85	1164.9
1016.4866	2897.7929	2044.3	1165.55
1016.6025	2898.9145	2047	1166.65
1016.7184	2900.0355	2044.45	1163.9
1016.8342	2901.1559	2044.95	1164.55
1016.95	2902.2756	2053.7	1175.5
1017.0658	2903.3946	2044.8	1164.75
1017.1815	2904.513	2049.55	1166.5
1017.2971	2905.6308	2047.15	1165.45
1017.4127	2906.7479	2037.55	1155.9
1017.5283	2907.8643	2040.8	1161.4
1017.6439	2908.9801	2039.55	1159.8
1017.7594	2910.0953	2035.25	1156.3
1017.8748	2911.2098	2037.6	1156.4
1017.9902	2912.3236	2039.5	1151
1018.1056	2913.4368	2032.4	1149.6
1018.2209	2914.5494	2015.75	1135.85
1018.3362	2915.6613	2016.3	1128.95
1018.4515	2916.7725	2012.7	1132.35
1018.5667	2917.8831	2003.45	1121.85
1018.6819	2918.9931	1995.75	1113.9
1018.797	2920.1024	1985.15	1104.2
1018.9121	2921.211	1981.9	1100.75
1019.0271	2922.319	1962.15	1080.45
1019.1421	2923.4264	1960.35	1080.5
1019.2571	2924.5331	1959.05	1080.05
1019.372	2925.6391	1962.95	1083.65
1019.4869	2926.7445	1959.45	1079.85
1019.6017	2927.8493	1955.1	1074.2
1019.7165	2928.9534	1951.95	1073.35
1019.8313	2930.0569	1945.2	1064.4
1019.946	2931.1597	1950.3	1069.8
1020.0606	2932.2619	1938	1059.2
1020.1753	2933.3634	1945.45	1067.95
1020.2899	2934.4643	1953.2	1067.05
1020.4044	2935.5645	1951.75	1064.3
1020.5189	2936.6641	1946.3	1061.85
1020.6334	2937.763	1930.55	1051.35
1020.7478	2938.8613	1928.25	1047.95
1020.8622	2939.959	1922.55	1035.3
1020.9765	2941.056	1900.45	1022.4
1021.0908	2942.1523	1888.5	1006.35
1021.2051	2943.248	1879.95	999
1021.3193	2944.3431	1857.7	978.15
1021.4334	2945.4375	1842.05	961.85
1021.5476	2946.5313	1817.45	939.25
1021.6617	2947.6244	1805.8	925.45
1021.7757	2948.7169	1786.65	905.75
1021.8897	2949.8087	1774.55	892.8
1022.0037	2950.8999	1748.6	867.85
1022.1176	2951.9904	1741.65	861.4
1022.2315	2953.0803	1731.25	851.25
1022.3453	2954.1696	1709.85	831.85
1022.4591	2955.2582	1700.75	820.7
1022.5728	2956.3462	1691.45	809.6
1022.6865	2957.4335	1696.05	816.75
1022.8002	2958.5202	1689.75	807.4
1022.9138	2959.6062	1679.75	799.2
1023.0274	2960.6916	1674.75	795.05
1023.141	2961.7764	1661.3	779.75
1023.2545	2962.8605	1656.95	776.25
1023.3679	2963.9439	1656.15	776.95
1023.4813	2965.0267	1654.85	774.6
1023.5947	2966.1089	1673.55	773.2
1023.708	2967.1905	1641	761.55
1023.8213	2968.2714	1638.35	758.35
1023.9346	2969.3516	1633.6	753.75
1024.0478	2970.4312	1635.4	747.2
1024.1609	2971.5102	1629.55	748.5
1024.274	2972.5885	1637.5	758.6
1024.3871	2973.6662	1634.55	749.85
1024.5002	2974.7432	1630.6	752.5
1024.6132	2975.8196	1626.3	746.55
1024.7261	2976.8954	1623.8	745.35
1024.839	2977.9705	1611.4	732.05
1024.9519	2979.045	1619.9	741.4
1025.0647	2980.1188	1606.6	727
1025.1775	2981.192	1599.8	721.3
1025.2902	2982.2645	1595.75	712.35
1025.4029	2983.3364	1590.4	709.85
1025.5156	2984.4077	1588.8	708.15
1025.6282	2985.4783	1593.1	706.55
1025.7407	2986.5483	1571.7	694.1
1025.8532	2987.6177	1562.85	685.35
1025.9657	2988.6864	1557	678.1
1026.0782	2989.7545	1553	673.9
1026.1906	2990.8219	1539.5	660.1
1026.3029	2991.8887	1532.8	650.45
1026.4152	2992.9548	1539.4	658.4
1026.5275	2994.0204	1514.65	637.25
1026.6397	2995.0852	1517.7	637.25
1026.7519	2996.1495	1511.15	629.95
1026.864	2997.2131	1509.05	629.6
1026.9761	2998.276	1499.9	619.75
1027.0882	2999.3383	1496.95	616.5
1027.2002	3000.4	1483.65	603.55
1027.3122	3001.4611	1479.75	600.05
1027.4241	3002.5215	1474.25	594.7
1027.536	3003.5812	1466.6	588.05
1027.6478	3004.6404	1462.5	582.35
1027.7596	3005.6989	1462.5	582.35
1027.8714	3006.7567	1455.85	574.4
1027.9831	3007.8139	1473.75	572.05
1028.0947	3008.8705	1452.2	573.9
1028.2064	3009.9264	1457.5	573.45
1028.3179	3010.9818	1447.4	568.65
1028.4295	3012.0364	1450.45	570.15
1028.541	3013.0905	1442.7	563.75
1028.6524	3014.1439	1437.55	557.65
1028.7638	3015.1966	1435.65	556.35
1028.8752	3016.2487	1430.6	553.35
1028.9865	3017.3002	1424.5	543.65
1029.0978	3018.3511	1423.95	545.15
1029.209	3019.4013	1424.7	544.8
1029.3202	3020.4509	1422.55	543.95
1029.4314	3021.4998	1416.75	535.85
1029.5425	3022.5481	1412.5	534
1029.6535	3023.5958	1413.3	532.6
1029.7645	3024.6428	1412	530.15
1029.8755	3025.6892	1411.9	532.25
1029.9864	3026.735	1405.6	525.85
1030.0973	3027.7802	1408.85	530.05
1030.2082	3028.8247	1405.35	525.55
1030.319	3029.8685	1397.9	516.5
1030.4297	3030.9118	1405.15	526.45
1030.5404	3031.9544	1396.9	518.1
1030.6511	3032.9963	1396.1	517.6
1030.7617	3034.0376	1390.95	510.9
1030.8723	3035.0783	1394.85	510.65
1030.9829	3036.1184	1395.2	514.3
1031.0934	3037.1578	1390.5	513.05
1031.2038	3038.1966	1392.3	512.05
1031.3142	3039.2348	1379.3	501.95
1031.4246	3040.2723	1390.4	502.85
1031.5349	3041.3092	1377.65	499.5
1031.6452	3042.3455	1380.1	498.95
1031.7554	3043.3811	1374.2	494.55
1031.8656	3044.4161	1371.35	491.25
1031.9758	3045.4505	1371.95	494.5
1032.0859	3046.4842	1372.8	490.75
1032.1959	3047.5173	1357.15	478.2
1032.3059	3048.5498	1362.4	482.4
1032.4159	3049.5816	1358.8	478.6
1032.5258	3050.6128	1362.05	482.3
1032.6357	3051.6434	1356.6	476
1032.7455	3052.6734	1357.55	475.75
1032.8553	3053.7027	1352.6	472.8
1032.9651	3054.7314	1354.55	476.5
1033.0748	3055.7594	1343.15	465.15
1033.1845	3056.7868	1349.15	470.45
1033.2941	3057.8136	1343.65	464.25
1033.4037	3058.8398	1348.7	470.4
1033.5132	3059.8653	1341.65	460.85
1033.6227	3060.8902	1342.7	464.2
1033.7321	3061.9145	1340.85	460.35
1033.8415	3062.9381	1337.2	456.85
1033.9509	3063.9612	1354.25	460.65
1034.0602	3064.9835	1329.95	452.3
1034.1694	3066.0053	1330	448.95
1034.2787	3067.0264	1328.35	449.6
1034.3878	3068.0469	1331.25	450.85
1034.497	3069.0668	1319.35	437.55
1034.6061	3070.086	1322.95	443.7
1034.7151	3071.1046	1320.35	440.7
1034.8241	3072.1226	1321.1	441.9
1034.9331	3073.1399	1312.2	434.25
1035.042	3074.1567	1312.6	432.6
1035.1508	3075.1727	1311.2	431.05
1035.2597	3076.1882	1301.35	421.85
1035.3684	3077.203	1311.05	432
1035.4772	3078.2173	1305.9	425.1
1035.5859	3079.2308	1301.3	417.8
1035.6945	3080.2438	1301.15	420.3
1035.8031	3081.2561	1294.85	415.6
1035.9117	3082.2678	1287.55	408.55
1036.0202	3083.2789	1296.1	415.85
1036.1286	3084.2893	1289.9	412.35
1036.2371	3085.2991	1284.85	402.5
1036.3454	3086.3083	1280.6	399.7
1036.4538	3087.3169	1287.2	408.2
1036.562	3088.3248	1280.8	399
1036.6703	3089.3321	1279.9	398.9
1036.7785	3090.3388	1274.75	394.3
1036.8866	3091.3449	1273.95	394.05
1036.9948	3092.3503	1269.15	385.8
1037.1028	3093.3551	1275.5	396.6
1037.2108	3094.3593	1263.85	388.4
1037.3188	3095.3629	1262.55	384
1037.4267	3096.3658	1261.6	381.3
1037.5346	3097.3681	1261.4	382.2
1037.6425	3098.3698	1259.4	378.55
1037.7503	3099.3708	1262.9	377.45
1037.858	3100.3713	1254.55	376.8
1037.9657	3101.3711	1255.35	376.65
1038.0734	3102.3702	1376.35	359.85
1038.181	3103.3688	1252.8	372.05
1038.2886	3104.3667	1245.45	367.4
1038.3961	3105.364	1241.15	361.2
1038.5036	3106.3607	1239.5	358.7
1038.611	3107.3568	1236.85	357.4
1038.7184	3108.3522	1242.2	364.35
1038.8257	3109.347	1226.15	346.35
1038.933	3110.3412	1233.35	349
1039.0403	3111.3348	1229.95	351.15
1039.1475	3112.3277	1228.15	351.55
1039.2547	3113.32	1226.5	347.55
1039.3618	3114.3117	1221.1	341.3
1039.4689	3115.3028	1215.35	336.8
1039.5759	3116.2932	1226.1	343.55
1039.6829	3117.2831	1219.05	334.4
1039.7898	3118.2723	1215.8	336.1
1039.8967	3119.2608	1213.65	334.85
1040.0035	3120.2488	1207.7	329.45
1040.1103	3121.2361	1206.3	327.35
1040.2171	3122.2229	1208.95	329.7
1040.3238	3123.209	1207	326.95
1040.4305	3124.1944	1200.95	322.25
1040.5371	3125.1793	1207.25	324.85
1040.6437	3126.1635	1195.9	316.85
1040.7502	3127.1471	1200.3	321.5
1040.8567	3128.1301	1199.4	320.65
1040.9631	3129.1125	1193.05	315.2
1041.0695	3130.0942	1190.7	310.65
1041.1759	3131.0753	1200.1	312.7
1041.2822	3132.0558	1191.3	310.6
1041.3884	3133.0357	1186.75	308.5
1041.4946	3134.015	1185.15	303.55
1041.6008	3134.9936	1186.3	305.4
1041.7069	3135.9716	1208.6	305.2
1041.813	3136.949	1182.45	302.85
1041.919	3137.9258	1184.35	299.3
1042.025	3138.902	1184	298
1042.1309	3139.8775	1178.45	298.5
1042.2368	3140.8524	1179.2	298.45
1042.3427	3141.8267	1182	299.5
1042.4485	3142.8004	1177	297.2
1042.5542	3143.7735	1183.6	296.95
1042.6599	3144.7459	1171.75	290.8
1042.7656	3145.7178	1171.35	291.9
1042.8712	3146.689	1169.25	291.65
1042.9768	3147.6596	1171.05	291.5
1043.0823	3148.6295	1166.5	288.3
1043.1878	3149.5989	1167.85	288.75
1043.2932	3150.5676	1163.9	287.5
1043.3986	3151.5357	1159.45	281.4
1043.5039	3152.5032	1161.65	283.4
1043.6092	3153.4701	1163	282.3
1043.7145	3154.4364	1161.55	277.65
1043.8197	3155.402	1154.55	276.35
1043.9248	3156.367	1151.95	271.1
1044.03	3157.3315	1192.8	277.6
1044.135	3158.2952	1153.35	272.9
1044.24	3159.2584	1153.85	273.65
1044.345	3160.221	1152.05	272.8
1044.4499	3161.1829	1141.95	261.85
1044.5548	3162.1442	1142.45	263.95
1044.6596	3163.105	1142.5	264.15
1044.7644	3164.065	1143.05	262.85
1044.8692	3165.0245	1146.8	266.4
1044.9739	3165.9834	1137.4	258.2
1045.0785	3166.9416	1139.1	260.55
1045.1831	3167.8993	1135.15	255.85
1045.2877	3168.8563	1133.85	252.95
1045.3922	3169.8127	1129.15	249.05
1045.4966	3170.7684	1131.3	252.15
1045.6011	3171.7236	1132.45	251.8
1045.7054	3172.6782	1128.35	249
1045.8098	3173.6321	1125.2	244.75
1045.914	3174.5854	1129.3	248.2
1046.0183	3175.5381	1123.35	244.45
1046.1224	3176.4902	1123.65	244.3
1046.2266	3177.4417	1121.45	241.7
1046.3307	3178.3926	1120.9	242.75
1046.4347	3179.3428	1120	242.75
1046.5387	3180.2924	1123.55	245.25
1046.6427	3181.2415	1114.4	235.35
1046.7466	3182.1899	1118.35	239.2
1046.8504	3183.1377	1113.25	237.4
1046.9542	3184.0848	1120.65	236.65
1047.058	3185.0314	1112.35	233.2
1047.1617	3185.9773	1108.85	229.05
1047.2654	3186.9227	1111.65	232.55
1047.369	3187.8674	1108	227.15
1047.4726	3188.8115	1107.75	222.95
1047.5761	3189.755	1103.6	225.9
1047.6796	3190.6979	1103.15	224.05
1047.783	3191.6402	1107.9	229.45
1047.8864	3192.5818	1104.05	225.85
1047.9898	3193.5229	1116.6	222.3
1048.0931	3194.4633	1102	224.25
1048.1963	3195.4031	1095.15	215.45
1048.2995	3196.3423	1100.65	222.05
1048.4027	3197.2809	1096.15	215
1048.5058	3198.2189	1097.75	217.95
1048.6089	3199.1563	1109.2	211.3
1048.7119	3200.0931	1095.2	216.8
1048.8148	3201.0292	1091.8	214.5
1048.9178	3201.9648	1094.65	215.35
1049.0206	3202.8997	1094.5	214.55
1049.1235	3203.834	1090.95	213
1049.2262	3204.7677	1089.1	210.55
1049.329	3205.7008	1091.25	209.95
1049.4317	3206.6333	1085.1	206.5
1049.5343	3207.5652	1085.5	203.05
1049.6369	3208.4964	1083.7	204.6
1049.7394	3209.4271	1084.85	205.3
1049.8419	3210.3571	1081.9	203.9
1049.9444	3211.2865	1083.4	204.25
1050.0468	3212.2154	1081.3	203
1050.1491	3213.1436	1082.35	200.5
1050.2514	3214.0712	1084.95	198.9
1050.3537	3214.9982	1077.45	199.35
1050.4559	3215.9246	1074.7	194.3
1050.5581	3216.8503	1077.6	199.55
1050.6602	3217.7755	1073.35	194.85
1050.7623	3218.7001	1066.2	189
1050.8643	3219.624	1074	196.15
1050.9663	3220.5473	1073.6	195.8
1051.0682	3221.4701	1071.9	190.35
1051.1701	3222.3922	1071.4	189.75
1051.2719	3223.3137	1067.95	190.6
1051.3737	3224.2346	1069.15	190
1051.4754	3225.1549	1067.4	187.85
1051.5771	3226.0746	1063.75	185.05
1051.6788	3226.9937	1063.5	186
1051.7804	3227.9121	1063.35	185.9
1051.8819	3228.83	1060.7	181.8
1051.9834	3229.7473	1060.75	181.25
1052.0849	3230.6639	1061	181
1052.1863	3231.5799	1061.1	182.8
1052.2876	3232.4954	1059.15	179.85
1052.3889	3233.4102	1053.8	175.9
1052.4902	3234.3244	1055.05	177.05
1052.5914	3235.238	1053.75	176.2
1052.6926	3236.151	1079.25	176.15
1052.7937	3237.0634	1049.75	172.3
1052.8948	3237.9752	1054.75	177.45
1052.9958	3238.8864	1054.25	174.25
1053.0968	3239.797	1048.3	169.9
1053.1977	3240.7069	1049.65	169.4
1053.2986	3241.6163	1047.8	167.15
1053.3994	3242.5251	1048.1	170.15
1053.5002	3243.4332	1048.2	169.55
1053.6009	3244.3408	1041.35	161.25
1053.7016	3245.2477	1047.5	168.75
1053.8022	3246.154	1038.6	159.8
1053.9028	3247.0598	1043.1	163.8
1054.0034	3247.9649	1038	160.55
1054.1039	3248.8694	1036.6	158.45
1054.2043	3249.7733	1039.2	159.75
1054.3047	3250.6766	1036.25	157.4
1054.4051	3251.5793	1035.15	155.65
1054.5054	3252.4814	1037.85	158.75
1054.6056	3253.3829	1034.3	154.6
1054.7058	3254.2838	1031	152.5
1054.806	3255.1841	1032.4	155.35
1054.9061	3256.0838	1032.65	155.3
1055.0061	3256.9829	1027.3	148.85
1055.1062	3257.8814	1033.25	152.5
1055.2061	3258.7792	1030	148.75
1055.306	3259.6765	1027.15	149.3
1055.4059	3260.5731	1025.7	147.35
1055.5057	3261.4692	1021.55	143.25
1055.6055	3262.3647	1023.55	145.3
1055.7052	3263.2595	1019.6	142.15
1055.8049	3264.1538	1022.2	142.95
1055.9045	3265.0474	1019.7	140.4
1056.0041	3265.9404	1010.95	132.6
1056.1036	3266.8329	1007.3	127.9
1056.2031	3267.7247	1017.15	128.35
1056.3025	3268.616	1006.2	129.05
1056.4019	3269.5066	1002.5	123.65
1056.5013	3270.3966	998.85	119.7
1056.6005	3271.286	988.05	110.05
