Software Version:	3.9.2.0
Unit SN:	10000200
Spectrometer SN:	6960
Date:	3/6/2024 10:57:49 AM
Data Line Index:	25
Spectral Points:	2048
Integration time (ms):	125
Averages:	20
Delay (ms):	30
Sequence Number:	1
Processing:	dark subtract
Laser Power (mW):	305
Laser Current (mA):	822
Laser Diode Temp (C):	25.1
Laser Case Temp (C):	28
System Temp (C):	27.8
Spectrometer Temp (C):	25.4
CCD Temp (C):	-0.002
Secondary Temp (C):	20.007
Heatsink Temp (C):	23.599
CCDPCB Temp (C):	37.152
SecondaryPCB Temp (C):	34.584

Wavelength	RamanShift	Raw Counts	Dark Subtracted
787.061	30.1047	1087.2	673.6
787.2016	32.3739	1131.4	719.25
787.3422	34.6426	1169.55	754.2
787.4828	36.9109	1208.55	793.75
787.6235	39.1787	1260.25	839.9
787.7642	41.4461	1325.25	902.4
787.9049	43.7131	1381.55	953.9
788.0456	45.9796	1438.9	1008.7
788.1863	48.2456	1514.65	1079.75
788.3271	50.5112	1581.95	1144.1
788.4679	52.7764	1649.35	1207.9
788.6087	55.0411	1723.65	1280.35
788.7496	57.3054	1807.25	1357.5
788.8904	59.5692	1872.75	1421.2
789.0313	61.8326	1981.1	1525.05
789.1722	64.0955	2088.75	1629.8
789.3132	66.3579	2206.2	1741.65
789.4541	68.6199	2357.9	1892.05
789.5951	70.8815	2585.05	2114.15
789.7361	73.1426	3082.6	2608.65
789.8771	75.4032	4301.7	3822.05
790.0181	77.6634	7396.85	6911.45
790.1592	79.9231	15349.35	14859.45
790.3003	82.1824	49752.45	49253.6
790.4414	84.4412	65535	65018.85
790.5825	86.6995	65535	64997.65
790.7237	88.9574	65535	64975.6
790.8648	91.2148	65535	64956.7
791.006	93.4717	65535	64944.55
791.1472	95.7282	65535	64943.65
791.2885	97.9842	65535	64940.55
791.4297	100.2398	65535	64934.35
791.571	102.4949	65535	64935.65
791.7123	104.7495	65535	64929.85
791.8536	107.0036	65535	64925.05
791.9949	109.2573	65535	64931.1
792.1363	111.5105	65535	64930.15
792.2777	113.7632	65535	64923.45
792.4191	116.0154	65535	64914.35
792.5605	118.2672	65535	64920.8
792.7019	120.5185	65535	64919.3
792.8434	122.7693	65535	64916.55
792.9849	125.0197	65535	64912.9
793.1264	127.2696	65535	64913.55
793.2679	129.519	65535	64903.15
793.4094	131.7679	65535	64903.25
793.551	134.0163	65535	64899.95
793.6926	136.2642	65535	64895.6
793.8342	138.5117	65535	64886.2
793.9758	140.7587	65535	64894.4
794.1175	143.0052	65535	64891.95
794.2591	145.2512	65535	64892.5
794.4008	147.4967	65535	64894.4
794.5425	149.7417	65535	64886.55
794.6842	151.9863	65535	64884.1
794.826	154.2304	65535	64879.5
794.9677	156.4739	65535	64874.3
795.1095	158.717	65535	64875.55
795.2513	160.9596	65535	64870.25
795.3931	163.2017	65535	64867.25
795.535	165.4433	65535	64866.9
795.6768	167.6844	65535	64864
795.8187	169.925	65535	64864.25
795.9606	172.1651	65535	64863.85
796.1025	174.4047	65535	64854.25
796.2445	176.6439	65535	64854.25
796.3864	178.8825	65535	64852.3
796.5284	181.1206	65535	64849
796.6704	183.3582	65535	64840.4
796.8124	185.5954	65535	64844.2
796.9544	187.832	65535	64835.6
797.0965	190.0681	65535	64836.45
797.2386	192.3037	65535	64833.5
797.3806	194.5388	65535	64830.15
797.5228	196.7734	65535	64829.3
797.6649	199.0075	65535	64821.25
797.807	201.2411	65535	64819.3
797.9492	203.4742	65535	64822.9
798.0914	205.7068	65535	64819.5
798.2336	207.9389	65535	64818.15
798.3758	210.1704	65535	64813
798.518	212.4015	65535	64813.25
798.6603	214.632	65535	64819.15
798.8025	216.862	65535	64830.2
798.9448	219.0915	65535	64834.8
799.0871	221.3205	65535	64832.9
799.2294	223.549	65535	64834.75
799.3718	225.777	65535	64836.1
799.5141	228.0044	65535	64836
799.6565	230.2314	65535	64835.7
799.7989	232.4578	65535	64830.7
799.9413	234.6837	65535	64821.95
800.0837	236.909	65535	64822
800.2262	239.1339	65535	64797.65
800.3687	241.3582	65535	64808.55
800.5111	243.582	65535	64779
800.6536	245.8053	65535	64792.6
800.7961	248.0281	65535	64798.45
800.9387	250.2503	65535	64791.6
801.0812	252.472	65535	64787.15
801.2238	254.6932	65535	64788.5
801.3664	256.9139	65535	64785.95
801.509	259.134	65535	64785.45
801.6516	261.3536	65535	64786
801.7942	263.5727	65535	64784.8
801.9369	265.7912	65535	64788.3
802.0795	268.0092	65535	64785.3
802.2222	270.2267	65535	64783.8
802.3649	272.4436	65535	64780.7
802.5076	274.6601	65535	64771.25
802.6504	276.8759	65535	64775.55
802.7931	279.0913	65535	64774.85
802.9359	281.3061	65535	64773.4
803.0787	283.5204	65535	64770.5
803.2215	285.7341	65535	64767.6
803.3643	287.9473	65535	64753.9
803.5071	290.16	65535	64761.1
803.6499	292.3721	65535	64768.2
803.7928	294.5837	65535	64768.05
803.9357	296.7947	65535	64767.6
804.0786	299.0052	65535	64765.95
804.2215	301.2152	65535	64765.25
804.3644	303.4246	65535	64769.65
804.5074	305.6334	65535	64765.75
804.6503	307.8418	65535	64763.65
804.7933	310.0495	65535	64762.35
804.9363	312.2568	65535	64762.65
805.0793	314.4635	65535	64761.25
805.2223	316.6696	65535	64760.65
805.3653	318.8752	65535	64750.1
805.5084	321.0802	65535	64758.35
805.6514	323.2847	65535	64750.85
805.7945	325.4887	65535	64757.5
805.9376	327.692	65535	64754.25
806.0807	329.8949	65535	64752.55
806.2238	332.0972	65535	64752.15
806.367	334.2989	65535	64748.2
806.5101	336.5001	65535	64748.35
806.6533	338.7007	65535	64748.5
806.7965	340.9008	65535	64744.85
806.9397	343.1003	65535	64742.45
807.0829	345.2992	65535	64746.4
807.2261	347.4976	65535	64737
807.3693	349.6955	65535	64736.35
807.5126	351.8927	65535	64738
807.6559	354.0895	65535	64725.8
807.7991	356.2856	65535	64736.45
807.9424	358.4812	65535	64737.05
808.0857	360.6763	65535	64736
808.2291	362.8707	65535	64736.15
808.3724	365.0646	65535	64730.35
808.5158	367.258	65535	64727.45
808.6591	369.4508	65535	64725.15
808.8025	371.643	65535	64724.6
808.9459	373.8346	65535	64724.5
809.0893	376.0257	65535	64720.55
809.2327	378.2162	65535	64722.45
809.3762	380.4062	65535	64717.9
809.5196	382.5956	65535	64717.65
809.6631	384.7844	65535	64719.55
809.8066	386.9726	65535	64716.7
809.9501	389.1603	65535	64719.15
810.0936	391.3474	65535	64681.35
810.2371	393.5339	65535	64719.2
810.3806	395.7199	65535	64726.3
810.5241	397.9052	65535	64726.9
810.6677	400.09	65535	64726.5
810.8113	402.2743	65535	64727.15
810.9548	404.4579	65535	64724.9
811.0984	406.641	65535	64724.35
811.2421	408.8235	65535	64725.5
811.3857	411.0054	65535	64723.9
811.5293	413.1868	65535	64721.05
811.673	415.3675	65535	64718.25
811.8166	417.5477	65535	64718.85
811.9603	419.7273	65535	64713.45
812.104	421.9064	65535	64707.05
812.2477	424.0848	65535	64711.6
812.3914	426.2627	65535	64707.45
812.5351	428.4399	65535	64707.75
812.6788	430.6166	65535	64703.25
812.8226	432.7928	65535	64702.4
812.9663	434.9683	65535	64702.95
813.1101	437.1432	65535	64700.15
813.2539	439.3176	65535	64703.8
813.3977	441.4914	65535	64704.9
813.5415	443.6645	65535	64700.45
813.6853	445.8371	65535	64701.75
813.8291	448.0091	65535	64702.4
813.973	450.1806	65535	64699.9
814.1168	452.3514	65535	64698.45
814.2607	454.5216	65535	64690.15
814.4046	456.6913	65535	64696.65
814.5485	458.8603	65535	64699.95
814.6924	461.0288	65535	64696.9
814.8363	463.1967	65535	64702.4
814.9802	465.3639	65535	64697.05
815.1241	467.5306	65535	64696.2
815.2681	469.6967	65535	64695.5
815.412	471.8622	65535	64697.35
815.556	474.0271	65535	64696.45
815.7	476.1914	65535	64692.85
815.844	478.3551	65535	64694.65
815.988	480.5182	65535	64691
816.132	482.6807	65535	64692.25
816.276	484.8426	65535	64692.75
816.4201	487.0039	65535	64691.35
816.5641	489.1647	65535	64691.4
816.7082	491.3248	65535	64694
816.8522	493.4843	65535	64691.2
816.9963	495.6432	65535	64693.05
817.1404	497.8015	65535	64687.35
817.2845	499.9592	65535	64692.3
817.4286	502.1163	65535	64687.25
817.5727	504.2728	65535	64685.85
817.7168	506.4287	65535	64689.05
817.861	508.5839	65535	64687.6
818.0051	510.7386	65535	64689.8
818.1493	512.8927	65535	64686.2
818.2935	515.0461	65535	64687.6
818.4377	517.199	65535	64686
818.5818	519.3512	65535	64684.85
818.726	521.5029	65535	64679.8
818.8703	523.6539	65535	64684.65
819.0145	525.8043	65535	64680.45
819.1587	527.9541	65535	64679.85
819.303	530.1033	65535	64680.7
819.4472	532.2519	65535	64680.95
819.5915	534.3999	65535	64680.1
819.7357	536.5472	65535	64682.5
819.88	538.694	65535	64681
820.0243	540.8401	65535	64679.85
820.1686	542.9856	65535	64676.3
820.3129	545.1305	65535	64673.3
820.4572	547.2748	65535	64673.65
820.6016	549.4185	65535	64674.25
820.7459	551.5615	65535	64675
820.8902	553.704	65535	64673.75
821.0346	555.8458	65535	64675.05
821.1789	557.987	65535	64677.45
821.3233	560.1276	65535	64677.8
821.4677	562.2675	65535	64674.55
821.6121	564.4069	65535	64675.3
821.7565	566.5456	65535	64677.8
821.9009	568.6837	65535	64676.55
822.0453	570.8212	65535	64676.6
822.1897	572.958	65535	64674.65
822.3342	575.0942	65535	64674.5
822.4786	577.2299	65535	64678.45
822.6231	579.3648	65535	64676.05
822.7675	581.4992	65535	64677
822.912	583.6329	65535	64676.65
823.0565	585.766	65535	64673.7
823.201	587.8985	65535	64675.6
823.3454	590.0304	65535	64647.5
823.4899	592.1616	65535	64670.35
823.6345	594.2922	65535	64668.7
823.779	596.4222	65535	64668.65
823.9235	598.5515	65535	64670.3
824.068	600.6802	65535	64669.15
824.2126	602.8083	65535	64672.05
824.3571	604.9358	65535	64670.4
824.5017	607.0626	65535	64667.15
824.6462	609.1888	65535	64667.35
824.7908	611.3144	65535	64669.15
824.9354	613.4393	65535	64666.05
825.08	615.5636	65535	64664.15
825.2246	617.6873	65535	64668.05
825.3692	619.8103	65535	64663.45
825.5138	621.9327	65535	64663.95
825.6584	624.0544	65535	64667.2
825.803	626.1756	65535	64669.1
825.9477	628.2961	65535	64664
826.0923	630.4159	65535	64666.75
826.237	632.5351	65535	64663.9
826.3816	634.6537	65535	64664.35
826.5263	636.7716	65535	64663.3
826.6709	638.8889	65535	64661.5
826.8156	641.0056	65535	64662.95
826.9603	643.1216	65535	64662.6
827.105	645.237	65535	64660.95
827.2497	647.3518	65535	64663.95
827.3944	649.4659	65535	64665.05
827.5391	651.5793	65535	64660.65
827.6838	653.6922	65535	64664.1
827.8285	655.8043	65535	64661.25
827.9733	657.9159	65535	64662.5
828.118	660.0268	65535	64658.7
828.2627	662.137	65535	64660.7
828.4075	664.2466	65535	64657
828.5522	666.3556	65535	64660.5
828.697	668.4639	65535	64659
828.8418	670.5716	65535	64657.95
828.9865	672.6786	65535	64656.9
829.1313	674.785	65535	64657
829.2761	676.8907	65535	64656
829.4209	678.9958	65535	64662.9
829.5657	681.1002	65535	64659.7
829.7105	683.204	65535	64652.25
829.8553	685.3072	65535	64656.75
830.0001	687.4097	65535	64654.35
830.1449	689.5115	65535	64655.3
830.2898	691.6127	65535	64654.1
830.4346	693.7132	65535	64657.75
830.5794	695.8131	65535	64645.2
830.7243	697.9123	65535	64651.35
830.8691	700.0109	65535	64655.25
831.014	702.1089	65535	64654.9
831.1588	704.2061	65535	64651.8
831.3037	706.3028	65535	64651.15
831.4486	708.3987	65535	64652.75
831.5935	710.4941	65535	64655.65
831.7383	712.5887	65535	64651.65
831.8832	714.6827	65535	64647
832.0281	716.7761	65535	64651.75
832.173	718.8688	65535	64650.1
832.3179	720.9608	65535	64649
832.4628	723.0522	65535	64650.6
832.6077	725.1429	65535	64654.85
832.7527	727.233	65535	64651.7
832.8976	729.3224	65535	64653.1
833.0425	731.4112	65535	64649.2
833.1874	733.4993	65535	64649.65
833.3324	735.5867	65535	64648.65
833.4773	737.6735	65535	64651.75
833.6222	739.7596	65535	64652.85
833.7672	741.845	65535	64648.25
833.9122	743.9298	65535	64647.65
834.0571	746.014	65535	64650.6
834.2021	748.0974	65535	64647
834.347	750.1802	65535	64649.9
834.492	752.2624	65535	64649.35
834.637	754.3439	65535	64648
834.782	756.4247	65535	64642.1
834.9269	758.5048	65535	64650.4
835.0719	760.5843	65535	64646.65
835.2169	762.6631	65535	64649.15
835.3619	764.7413	65535	64648.85
835.5069	766.8188	65535	64647.4
835.6519	768.8956	65535	64646.2
835.7969	770.9718	65535	64649.7
835.9419	773.0473	65535	64646.95
836.0869	775.1221	65535	64649.25
836.232	777.1962	65535	64649.95
836.377	779.2697	65535	64646.15
836.522	781.3426	65535	64629.65
836.667	783.4147	65535	64650.9
836.8121	785.4862	65535	64646.05
836.9571	787.557	65535	64648.15
837.1021	789.6271	65535	64648.8
837.2472	791.6966	65535	64644.85
837.3922	793.7654	65535	64646.45
837.5373	795.8335	65535	64644.8
837.6823	797.901	65535	64646.6
837.8274	799.9678	65535	64646.3
837.9724	802.0339	65535	64645.15
838.1175	804.0993	65535	64638.2
838.2626	806.1641	65535	64644
838.4076	808.2282	65535	64647.15
838.5527	810.2916	65535	64644.35
838.6978	812.3544	65535	64647.9
838.8428	814.4164	65535	64647
838.9879	816.4778	65535	64643.7
839.133	818.5385	65535	64643.95
839.2781	820.5986	65535	64643.05
839.4232	822.658	65535	64642.95
839.5682	824.7166	65535	64648
839.7133	826.7747	65535	64645.85
839.8584	828.832	65535	64641.85
840.0035	830.8886	65535	64644.15
840.1486	832.9446	65535	64643.7
840.2937	834.9999	65535	64644.95
840.4388	837.0545	65535	64640.85
840.5839	839.1085	65535	64644.25
840.729	841.1618	65535	64638.95
840.8741	843.2143	65535	64642.65
841.0192	845.2662	65535	64641.45
841.1643	847.3175	65535	64643.4
841.3095	849.368	65535	64642.5
841.4546	851.4179	65535	64644.75
841.5997	853.467	65535	64642.95
841.7448	855.5155	65535	64642.95
841.8899	857.5633	65535	64643.3
842.0351	859.6105	65535	64643.05
842.1802	861.6569	65535	64643.95
842.3253	863.7027	65535	64641.8
842.4704	865.7478	65535	64642.25
842.6156	867.7922	65535	64642.45
842.7607	869.8359	65535	64639.45
842.9058	871.8789	65535	64640.5
843.0509	873.9212	65535	64607.35
843.1961	875.9629	65535	64641
843.3412	878.0039	65535	64640.5
843.4863	880.0441	65535	64644.25
843.6315	882.0837	65535	64641.9
843.7766	884.1226	65535	64640.05
843.9218	886.1609	65535	64640.85
844.0669	888.1984	65535	64642.6
844.212	890.2352	65535	64641.6
844.3572	892.2714	65535	64637.35
844.5023	894.3069	65535	64638.45
844.6475	896.3416	65535	64640
844.7926	898.3757	65535	64640.2
844.9377	900.4091	65535	64641.8
845.0829	902.4418	65535	64634.15
845.228	904.4739	65535	64637.1
845.3732	906.5052	65535	64639.5
845.5183	908.5358	65535	64641.3
845.6635	910.5658	65535	64636.6
845.8086	912.595	65535	64639.6
845.9538	914.6236	65535	64641.95
846.0989	916.6515	65535	64640
846.2441	918.6786	65535	64639.15
846.3892	920.7051	65535	64637.9
846.5344	922.7309	65535	64638.25
846.6795	924.756	65535	64640.2
846.8246	926.7804	65535	64639.35
846.9698	928.8041	65535	64633.95
847.1149	930.8272	65535	64640.55
847.2601	932.8495	65535	64637.25
847.4052	934.8711	65535	64639.65
847.5504	936.892	65535	64637.2
847.6955	938.9123	65535	64638.85
847.8407	940.9318	65535	64640.35
847.9858	942.9506	65535	64637.15
848.131	944.9688	65535	64638.9
848.2761	946.9862	65535	64639.3
848.4213	949.003	65535	64637.55
848.5664	951.019	65535	64638.2
848.7115	953.0344	65535	64635.4
848.8567	955.0491	65535	64637.95
849.0018	957.063	65535	64637.6
849.147	959.0763	65535	64637.75
849.2921	961.0888	65535	64637.05
849.4373	963.1007	65535	64637.95
849.5824	965.1119	65535	64640.2
849.7275	967.1223	65535	64639.7
849.8727	969.1321	65535	64639.45
850.0178	971.1412	65535	64640.5
850.1629	973.1495	65535	64636
850.3081	975.1572	65535	64605.25
850.4532	977.1641	65535	64636.9
850.5983	979.1704	65535	64638.7
850.7435	981.1759	65535	64635.7
850.8886	983.1808	65535	64636.3
851.0337	985.1849	65535	64628.1
851.1788	987.1884	65535	64635.75
851.324	989.1911	65535	64632
851.4691	991.1932	65535	64635.65
851.6142	993.1945	65535	64635.35
851.7593	995.1951	65535	64636.3
851.9045	997.1951	65535	64632.8
852.0496	999.1943	65535	64637.35
852.1947	1001.1928	65535	64638.3
852.3398	1003.1906	65535	64636.55
852.4849	1005.1877	65535	64637.75
852.63	1007.1841	65535	64636.65
852.7751	1009.1798	65535	64635.6
852.9202	1011.1748	65535	64637.1
853.0653	1013.1691	65535	64636.55
853.2104	1015.1627	65535	64639.85
853.3555	1017.1556	65535	64638.05
853.5006	1019.1477	65535	64637.5
853.6457	1021.1392	65535	64640.7
853.7908	1023.1299	65535	64638
853.9359	1025.12	65535	64636.4
854.081	1027.1093	65535	64640.15
854.2261	1029.0979	65535	64642.85
854.3712	1031.0859	65535	64642.75
854.5163	1033.0731	65535	64639.1
854.6613	1035.0596	65535	64640.3
854.8064	1037.0454	65535	64639.7
854.9515	1039.0304	65535	64637.5
855.0965	1041.0148	65535	64639.65
855.2416	1042.9985	65535	64636.3
855.3867	1044.9814	65535	64639.4
855.5317	1046.9636	65535	64633.6
855.6768	1048.9452	65535	64638.15
855.8219	1050.926	65535	64638.55
855.9669	1052.9061	65535	64641.95
856.112	1054.8855	65535	64635.35
856.257	1056.8642	65535	64637.6
856.4021	1058.8421	65535	64633.4
856.5471	1060.8194	65535	64636.45
856.6921	1062.7959	65535	64638.05
856.8372	1064.7717	65535	64637.5
856.9822	1066.7469	65535	64635.25
857.1272	1068.7213	65535	64635
857.2723	1070.695	65535	64635.6
857.4173	1072.6679	65535	64635.15
857.5623	1074.6402	65535	64637.3
857.7073	1076.6117	65535	64634.5
857.8523	1078.5826	65535	64636.45
857.9973	1080.5527	65535	64632.85
858.1423	1082.5221	65535	64636.7
858.2873	1084.4908	65535	64636.65
858.4323	1086.4587	65535	64634.7
858.5773	1088.426	65535	64636.35
858.7223	1090.3925	65535	64632.45
858.8673	1092.3584	65535	64637.05
859.0123	1094.3235	65535	64638.15
859.1573	1096.2879	65535	64636.7
859.3022	1098.2515	65535	64635.5
859.4472	1100.2145	65535	64634.2
859.5922	1102.1767	65535	64633.95
859.7371	1104.1382	65535	64636.65
859.8821	1106.099	65535	64634.7
860.027	1108.0591	65535	64638.45
860.172	1110.0185	65535	64634.4
860.3169	1111.9771	65535	64637.65
860.4619	1113.9351	65535	64638.3
860.6068	1115.8923	65535	64635.4
860.7517	1117.8488	65535	64633.8
860.8967	1119.8045	65535	64636.45
861.0416	1121.7596	65535	64633.95
861.1865	1123.7139	65535	64635.6
861.3314	1125.6675	65535	64637.65
861.4763	1127.6204	65535	64636.25
861.6212	1129.5726	65535	64632
861.7661	1131.524	65535	64637.4
861.911	1133.4748	65535	64634.2
862.0559	1135.4248	65535	64635.65
862.2008	1137.3741	65535	64637.55
862.3457	1139.3226	65535	64633.85
862.4905	1141.2705	65535	64636.25
862.6354	1143.2176	65535	64629.2
862.7803	1145.164	65535	64633.7
862.9251	1147.1097	65535	64635.2
863.07	1149.0546	65535	64634.35
863.2148	1150.9989	65535	64636.25
863.3597	1152.9424	65535	64633.75
863.5045	1154.8852	65535	64637.1
863.6493	1156.8272	65535	64637.05
863.7942	1158.7686	65535	64629.35
863.939	1160.7092	65535	64635.85
864.0838	1162.6491	65535	64633.75
864.2286	1164.5883	65535	64636.3
864.3734	1166.5267	65535	64634.55
864.5182	1168.4644	65535	64635.9
864.663	1170.4014	65535	64629.05
864.8078	1172.3377	65535	64636.1
864.9526	1174.2732	65535	64639.4
865.0974	1176.2081	65535	64635.8
865.2421	1178.1421	65535	64631.85
865.3869	1180.0755	65535	64638.55
865.5317	1182.0082	65535	64637.05
865.6764	1183.9401	65535	64635.8
865.8212	1185.8713	65535	64638.4
865.9659	1187.8017	65535	64636.25
866.1106	1189.7315	65535	64638.55
866.2554	1191.6605	65535	64610.65
866.4001	1193.5888	65535	64637.5
866.5448	1195.5163	65535	64636.9
866.6895	1197.4432	65535	64633.9
866.8342	1199.3693	65535	64638.55
866.9789	1201.2947	65535	64634.5
867.1236	1203.2193	65535	64635
867.2683	1205.1432	65535	64633.1
867.413	1207.0664	65535	64637.75
867.5576	1208.9889	65535	64634.95
867.7023	1210.9106	65535	64637.05
867.847	1212.8316	65535	64638.05
867.9916	1214.7519	65535	64626.25
868.1363	1216.6715	65535	64636.1
868.2809	1218.5903	65535	64636.65
868.4255	1220.5084	65535	64637.65
868.5701	1222.4257	65535	64637.3
868.7148	1224.3424	65535	64637.85
868.8594	1226.2583	65535	64632.9
869.004	1228.1735	65535	64635.05
869.1486	1230.0879	65535	64633.85
869.2932	1232.0016	65535	64637.35
869.4377	1233.9146	65535	64633.5
869.5823	1235.8269	65535	64637.65
869.7269	1237.7384	65535	64635.45
869.8715	1239.6492	65535	64638.65
870.016	1241.5592	65535	64632.5
870.1606	1243.4686	65535	64638.2
870.3051	1245.3772	65535	64635.6
870.4496	1247.285	65535	64635.9
870.5941	1249.1922	65535	64633.85
870.7387	1251.0986	65535	64637.45
870.8832	1253.0042	65535	64637
871.0277	1254.9092	65535	64634.85
871.1722	1256.8134	65535	64638.85
871.3167	1258.7169	65535	64635.5
871.4611	1260.6196	65535	64637.4
871.6056	1262.5216	65535	64633.75
871.7501	1264.4229	65535	64636.25
871.8945	1266.3234	65535	64636.35
872.039	1268.2232	65535	64632.4
872.1834	1270.1223	65535	64636.2
872.3278	1272.0207	65535	64635.95
872.4723	1273.9183	65535	64629.05
872.6167	1275.8151	65535	64636.7
872.7611	1277.7113	65535	64635.9
872.9055	1279.6067	65535	64637.9
873.0499	1281.5014	65535	64633.65
873.1943	1283.3953	65535	64634.9
873.3386	1285.2885	65535	64635.6
873.483	1287.181	65535	64635.35
873.6274	1289.0727	65535	64635.95
873.7717	1290.9637	65535	64636.3
873.9161	1292.854	65535	64637.4
874.0604	1294.7435	65535	64635.4
874.2047	1296.6323	65535	64637.45
874.349	1298.5204	65535	64630.3
874.4933	1300.4077	65535	64634.9
874.6376	1302.2943	65535	64635.7
874.7819	1304.1802	65535	64639
874.9262	1306.0653	65535	64635.9
875.0705	1307.9497	65535	64635.25
875.2147	1309.8333	65535	64637.8
875.359	1311.7162	65535	64637.7
875.5032	1313.5984	65535	64630.6
875.6475	1315.4798	65535	64626.2
875.7917	1317.3605	65535	64617.2
875.9359	1319.2405	65535	64634.3
876.0801	1321.1197	65535	64633.35
876.2243	1322.9982	65535	64631.75
876.3685	1324.876	65535	64634.85
876.5127	1326.753	65535	64637.55
876.6569	1328.6293	65535	64635
876.801	1330.5048	65535	64632.9
876.9452	1332.3796	65535	64634.55
877.0893	1334.2537	65535	64611.35
877.2335	1336.127	65535	64632.1
877.3776	1337.9996	65535	64634.3
877.5217	1339.8714	65535	64634.6
877.6658	1341.7426	65535	64592.6
877.8099	1343.6129	65535	64637.45
877.954	1345.4826	65535	64635.8
878.0981	1347.3515	65535	64633.65
878.2422	1349.2196	65535	64635.65
878.3862	1351.087	65535	64634.65
878.5303	1352.9537	65535	64634.75
878.6743	1354.8197	65535	64636.1
878.8184	1356.6849	65535	64636.2
878.9624	1358.5493	65535	64634.9
879.1064	1360.4131	65535	64634.1
879.2504	1362.276	65535	64637.7
879.3944	1364.1383	65535	64635.3
879.5384	1365.9998	65535	64631.4
879.6823	1367.8606	65535	64635.4
879.8263	1369.7206	65535	64636.2
879.9702	1371.5799	65535	64634.8
880.1142	1373.4384	65535	64634.75
880.2581	1375.2962	65535	64632.7
880.402	1377.1533	65535	64635.05
880.5459	1379.0096	65535	64637.55
880.6898	1380.8652	65535	64636.7
880.8337	1382.7201	65535	64636.25
880.9776	1384.5742	65535	64636.15
881.1215	1386.4275	65535	64634.7
881.2653	1388.2802	65535	64636.75
881.4092	1390.132	65535	64634.8
881.553	1391.9832	65535	64635.95
881.6968	1393.8336	65535	64633.55
881.8406	1395.6832	65535	64634.4
881.9844	1397.5322	65535	64635
882.1282	1399.3803	65535	64631.05
882.272	1401.2278	65535	64636.1
882.4158	1403.0745	65535	64634.55
882.5595	1404.9204	65535	64636
882.7033	1406.7656	65535	64635.85
882.847	1408.6101	65535	64634
882.9908	1410.4538	65535	64637
883.1345	1412.2968	65535	64635.1
883.2782	1414.139	65535	64638.05
883.4219	1415.9805	65535	64636.4
883.5656	1417.8213	65535	64629.35
883.7092	1419.6613	65535	64634.15
883.8529	1421.5006	65535	64635.35
883.9965	1423.3391	65535	64636.5
884.1402	1425.1769	65535	64635.4
884.2838	1427.0139	65535	64636.15
884.4274	1428.8502	65535	64632.45
884.571	1430.6858	65535	64636.9
884.7146	1432.5206	65535	64636.65
884.8582	1434.3547	65535	64634.9
885.0018	1436.188	65535	64634.9
885.1453	1438.0206	65535	64637.25
885.2889	1439.8524	65535	64634.75
885.4324	1441.6835	65535	64637.3
885.5759	1443.5139	65535	64633.65
885.7194	1445.3435	65535	64636
885.8629	1447.1724	65535	64637.9
886.0064	1449.0005	65535	64636.1
886.1499	1450.8279	65535	64637.5
886.2933	1452.6545	65535	64634.8
886.4368	1454.4804	65535	64636.8
886.5802	1456.3056	65535	64629.85
886.7237	1458.13	65535	64638.95
886.8671	1459.9536	65535	64635.4
887.0105	1461.7766	65535	64636.45
887.1539	1463.5987	65535	64633.95
887.2972	1465.4202	65535	64639.05
887.4406	1467.2409	65535	64636.7
887.584	1469.0608	65535	64636.2
887.7273	1470.88	65535	64635.25
887.8706	1472.6984	65535	64635.6
888.0139	1474.5161	65535	64635.25
888.1572	1476.3331	65535	64637.4
888.3005	1478.1493	65535	64636.9
888.4438	1479.9648	65535	64636.55
888.5871	1481.7795	65535	64634.95
888.7303	1483.5935	65535	64637.3
888.8736	1485.4067	65535	64635.7
889.0168	1487.2192	65535	64634.55
889.16	1489.031	65535	64632.7
889.3032	1490.842	65535	64637.4
889.4464	1492.6522	65535	64636.9
889.5896	1494.4618	65535	64633.8
889.7327	1496.2705	65535	64635.35
889.8759	1498.0785	65535	64636.95
890.019	1499.8858	65535	64637.6
890.1622	1501.6924	65535	64636.6
890.3053	1503.4981	65535	64635.85
890.4484	1505.3032	65535	64635.5
890.5914	1507.1075	65535	64635.3
890.7345	1508.911	65535	64638.6
890.8776	1510.7138	65535	64638.2
891.0206	1512.5159	65535	64638.5
891.1637	1514.3172	65535	64636.65
891.3067	1516.1178	65535	64637.6
891.4497	1517.9176	65535	64633.4
891.5927	1519.7166	65535	64637.35
891.7357	1521.515	65535	64632.5
891.8786	1523.3126	65526.8	64627.8
892.0216	1525.1094	65535	64634.1
892.1645	1526.9055	65533.2	64635.85
892.3074	1528.7008	65533.05	64636.5
892.4503	1530.4954	65518.95	64615.2
892.5932	1532.2893	65533.8	64636.45
892.7361	1534.0824	65518.25	64616.4
892.879	1535.8747	65490.05	64592.9
893.0218	1537.6663	65535	64637.55
893.1647	1539.4572	65370.9	64472.25
893.3075	1541.2473	65479.2	64579.4
893.4503	1543.0367	65449.85	64553.9
893.5931	1544.8253	65426.8	64522.55
893.7359	1546.6132	65457.75	64558.3
893.8787	1548.4003	65367.75	64462.5
894.0214	1550.1867	65322.6	64416.05
894.1642	1551.9723	65263.5	64362.5
894.3069	1553.7572	65265.3	64365.65
894.4496	1555.5414	65375.8	64477.5
894.5923	1557.3247	64412.1	63515.1
894.735	1559.1074	65311.65	64415.6
894.8777	1560.8893	65035.05	64139.25
895.0204	1562.6705	65164.95	64267.8
895.163	1564.4509	64489.9	63593.55
895.3056	1566.2305	64857.55	63963.25
895.4482	1568.0094	65198.6	64303.3
895.5908	1569.7876	64893.3	63997.55
895.7334	1571.565	64430.95	63535
895.876	1573.3417	64726.35	63829.35
896.0186	1575.1176	64609	63713
896.1611	1576.8928	64328.3	63431.85
896.3036	1578.6672	63801.95	62904.65
896.4461	1580.4409	64114.8	63220.75
896.5886	1582.2138	63326.3	62428.55
896.7311	1583.986	63533.95	62634.35
896.8736	1585.7575	62863.75	61968.3
897.0161	1587.5282	63048.4	62153.75
897.1585	1589.2981	63081.2	62186.95
897.3009	1591.0673	62412.95	61519.05
897.4433	1592.8358	61953.7	61058.95
897.5857	1594.6035	62389	61491
897.7281	1596.3704	62431.2	61534.1
897.8705	1598.1366	61510	60614.35
898.0128	1599.9021	61031.6	60137.2
898.1551	1601.6668	61760.95	60861.35
898.2975	1603.4308	61327.9	60430
898.4398	1605.194	61533.25	60636.15
898.5821	1606.9564	60411.15	59514.35
898.7243	1608.7182	61030.15	60132.2
898.8666	1610.4791	60435.95	59541.8
899.0088	1612.2394	60880.5	59986.1
899.1511	1613.9988	60345.85	59452.7
899.2933	1615.7576	61080.45	60185.75
899.4355	1617.5156	61018.05	60118.6
899.5776	1619.2728	61776.75	60883.05
899.7198	1621.0293	60629.5	59734.45
899.862	1622.785	60657.9	59761.3
900.0041	1624.54	61017.95	60122.2
900.1462	1626.2942	60397.1	59501.5
900.2883	1628.0477	59407.85	58511.7
900.4304	1629.8005	58779.95	57881.15
900.5725	1631.5525	59237.7	58342.5
900.7145	1633.3037	58211.05	57316.8
900.8566	1635.0542	58085.25	57190.65
900.9986	1636.804	58290.95	57396.6
901.1406	1638.553	57506.85	56502.45
901.2826	1640.3013	57633.55	56738.7
901.4245	1642.0488	57087.55	56193.25
901.5665	1643.7955	57344.3	56451.15
901.7085	1645.5416	56905.05	56009.1
901.8504	1647.2868	56554.5	55659
901.9923	1649.0313	57096.65	56202.4
902.1342	1650.7751	56743.7	55844.8
902.2761	1652.5181	56483.75	55588.5
902.4179	1654.2604	56484.85	55588.45
902.5598	1656.0019	56991.2	56097.3
902.7016	1657.7427	56809.4	55913.8
902.8434	1659.4828	57321.35	56428.15
902.9852	1661.222	57079.5	56183.45
903.127	1662.9606	57239.45	56347
903.2687	1664.6984	56699.5	55804.8
903.4105	1666.4354	56622.3	55727.85
903.5522	1668.1717	55668	54771.35
903.6939	1669.9072	55014.25	54117.7
903.8356	1671.642	54579.25	53680.8
903.9773	1673.3761	54333.85	53438.85
904.119	1675.1094	53946.25	53050.15
904.2606	1676.8419	53470.6	52577.4
904.4022	1678.5737	53216.05	52321.1
904.5439	1680.3048	52919.15	52026.4
904.6855	1682.0351	52618.55	51725.95
904.827	1683.7646	52299.4	51400.75
904.9686	1685.4934	52242.8	51349.25
905.1101	1687.2215	51572.55	50675.05
905.2517	1688.9488	51764.85	50870.25
905.3932	1690.6754	50983.1	50090.05
905.5347	1692.4012	51162.95	50269.15
905.6761	1694.1263	50962.8	50067.95
905.8176	1695.8506	50777.45	49882.5
905.9591	1697.5742	50583.7	49690.35
906.1005	1699.297	50412.85	49519
906.2419	1701.0191	50111.15	49218.1
906.3833	1702.7404	49880.8	48990.15
906.5246	1704.461	49566.8	48671.6
906.666	1706.1808	49423.45	48528.9
906.8073	1707.8999	49276.35	48380.65
906.9487	1709.6182	49070	48174.6
907.09	1711.3358	48951.4	48057.25
907.2313	1713.0527	48760.55	47867.6
907.3725	1714.7688	48603.85	47703.5
907.5138	1716.4841	48311.95	47416.7
907.655	1718.1987	48304.4	47405.8
907.7962	1719.9126	48060.8	47170.15
907.9374	1721.6257	47841.75	46947.1
908.0786	1723.338	47876.35	46982.85
908.2198	1725.0496	47403.85	46509.5
908.3609	1726.7605	47374.65	46478.35
908.502	1728.4706	47172.6	46278.5
908.6431	1730.18	46943.3	46046.55
908.7842	1731.8886	46805.1	45912.95
908.9253	1733.5964	46657	45741.9
909.0664	1735.3036	46545.45	45649.5
909.2074	1737.0099	46393.2	45501
909.3484	1738.7156	46219.85	45327.55
909.4894	1740.4204	45997.25	45100.65
909.6304	1742.1246	45920.7	45026.35
909.7714	1743.8279	45843.95	44949.3
909.9123	1745.5306	45748.3	44856.35
910.0532	1747.2325	45489.5	44597.95
910.1941	1748.9336	45319	44425.45
910.335	1750.634	45106.8	44212.3
910.4759	1752.3336	45038.45	44145.2
910.6168	1754.0325	44920.2	44031.45
910.7576	1755.7307	44771.55	43880.25
910.8984	1757.4281	44699.45	43806.6
911.0392	1759.1247	44627.55	43726.45
911.18	1760.8206	44466.15	43568.05
911.3208	1762.5158	44386.35	43490.95
911.4615	1764.2102	44173.1	43279.05
911.6022	1765.9039	44006.1	43114
911.7429	1767.5968	43914.1	43022.8
911.8836	1769.289	43731.35	42838.8
912.0243	1770.9804	43662.5	42770.15
912.1649	1772.6711	43583.85	42688.4
912.3056	1774.361	43392.3	42498.2
912.4462	1776.0502	43296.1	42403.5
912.5868	1777.7386	43241.4	42345.85
912.7274	1779.4263	43011.45	42116.8
912.8679	1781.1132	43033.45	42138.7
913.0084	1782.7994	42837.65	41944.1
913.149	1784.4849	42735.5	41844.4
913.2895	1786.1696	42520.15	41621
913.4299	1787.8535	42420.6	41529.4
913.5704	1789.5367	42230.9	41338.05
913.7108	1791.2192	42239.65	41346
913.8513	1792.9009	42038.35	41112.1
913.9917	1794.5818	41880.9	40985.9
914.132	1796.2621	41749.35	40858.15
914.2724	1797.9415	41684.1	40793.75
914.4128	1799.6202	41536.7	40642.65
914.5531	1801.2982	41455.75	40563.2
914.6934	1802.9755	41353.45	40458.7
914.8337	1804.6519	41232.4	40338.8
914.9739	1806.3277	41017.35	40126
915.1142	1808.0027	40861.75	39972.9
915.2544	1809.6769	40794.8	39901.95
915.3946	1811.3504	40602.2	39707.85
915.5348	1813.0231	40538.45	39644.7
915.675	1814.6951	40489.8	39599.3
915.8151	1816.3664	40519.9	39622.95
915.9553	1818.0369	40329.8	39439.25
916.0954	1819.7067	40156.95	39265.15
916.2355	1821.3757	40085.45	39191.75
916.3755	1823.044	39965.8	39073.65
916.5156	1824.7115	39888.95	38995.2
916.6556	1826.3783	39643.1	38750.6
916.7956	1828.0443	39558.3	38666.85
916.9356	1829.7096	39428.6	38534.7
917.0756	1831.3741	39393.55	38498.3
917.2155	1833.0379	39296.05	38406.65
917.3555	1834.701	39107.3	38211.4
917.4954	1836.3633	39013.25	38120.65
917.6353	1838.0248	38912.4	38017.5
917.7751	1839.6856	38827	37934.75
917.915	1841.3457	38788.35	37896.95
918.0548	1843.005	38632.6	37741.3
918.1946	1844.6636	38563.4	37672.9
918.3344	1846.3214	38474.3	37582
918.4742	1847.9785	38406.5	37516
918.6139	1849.6349	38242.3	37348.9
918.7537	1851.2904	38173.95	37272.8
918.8934	1852.9453	38079.85	37186.9
919.0331	1854.5994	37920.2	37025.35
919.1727	1856.2528	37904.8	37008.55
919.3124	1857.9054	37754.95	36860.95
919.452	1859.5572	37683.8	36790.35
919.5916	1861.2083	37591.9	36699.1
919.7312	1862.8587	37578.05	36688.9
919.8708	1864.5084	37407.6	36515
920.0103	1866.1572	37289.15	36396.65
920.1498	1867.8054	37067.15	36175.1
920.2893	1869.4528	37041.25	36148.6
920.4288	1871.0994	36917.3	36025
920.5683	1872.7453	36836.2	35943.7
920.7077	1874.3905	36772.2	35873.45
920.8471	1876.0349	36589.5	35697.35
920.9865	1877.6786	36577.25	35682.45
921.1259	1879.3215	36546.05	35652
921.2653	1880.9637	36432.65	35539
921.4046	1882.6051	36383.65	35492.2
921.5439	1884.2458	36252.25	35357.65
921.6832	1885.8858	36044.4	35151.8
921.8225	1887.525	35986.75	35093.5
921.9617	1889.1634	35788.1	34896.2
922.101	1890.8011	35673.05	34781.95
922.2402	1892.4381	35615.3	34722.05
922.3794	1894.0743	35582.25	34690.75
922.5185	1895.7098	35450.15	34559.05
922.6577	1897.3446	35371.25	34477.05
922.7968	1898.9786	35223.8	34327.3
922.9359	1900.6118	35137.7	34245.6
923.075	1902.2443	34947.35	34052.9
923.214	1903.8761	34887.7	33995.25
923.3531	1905.5071	34680.1	33786.1
923.4921	1907.1374	34556	33664.35
923.6311	1908.7669	34500.75	33608.6
923.77	1910.3957	34436.4	33545.6
923.909	1912.0237	34218.3	33324.95
924.0479	1913.651	34112.15	33219.25
924.1868	1915.2776	34037.1	33146.05
924.3257	1916.9034	33881.6	32991.55
924.4646	1918.5285	33697.7	32808.7
924.6034	1920.1528	33476.55	32582.55
924.7422	1921.7764	33466.15	32574.7
924.881	1923.3992	33372.1	32480.7
925.0198	1925.0213	33136.95	32244
925.1586	1926.6427	33011.55	32120.05
925.2973	1928.2633	33039.4	32041.25
925.436	1929.8832	32827.95	31932.2
925.5747	1931.5023	32675.95	31783.15
925.7134	1933.1207	32607.95	31716.4
925.852	1934.7383	32540.9	31647.75
925.9906	1936.3552	32375.4	31484.3
926.1292	1937.9714	32295.5	31401.95
926.2678	1939.5868	32152.85	31259.6
926.4064	1941.2015	31945	31052.4
926.5449	1942.8154	31791.85	30899.75
926.6834	1944.4286	31715.9	30824.9
926.8219	1946.041	31556.4	30645.65
926.9604	1947.6528	31345.75	30448.6
927.0988	1949.2637	31275.25	30383.7
927.2372	1950.8739	31101.7	30209.7
927.3756	1952.4834	31130.25	30236.75
927.514	1954.0921	31087.45	30193.95
927.6523	1955.7001	30924.2	30028.05
927.7907	1957.3074	30805.25	29914.9
927.929	1958.9139	30659.3	29769.9
928.0673	1960.5197	30539.25	29646.9
928.2055	1962.1247	30419.75	29527.05
928.3438	1963.729	30238.75	29346.95
928.482	1965.3325	30161.95	29246.95
928.6202	1966.9353	30005.55	29114.2
928.7584	1968.5374	29936	29043.95
928.8965	1970.1387	29842	28949.5
929.0346	1971.7393	29723.85	28831.45
929.1727	1973.3392	29603.6	28712.75
929.3108	1974.9383	29506.35	28615.35
929.4489	1976.5366	29367.3	28476.85
929.5869	1978.1342	29323	28430.85
929.7249	1979.7311	29233.45	28341.05
929.8629	1981.3273	29129.45	28238.25
930.0009	1982.9227	29022.85	28129.5
930.1388	1984.5173	28905.55	28014.35
930.2767	1986.1112	28828.35	27937.65
930.4146	1987.7044	28713.8	27823.5
930.5525	1989.2968	28620.75	27727.7
930.6904	1990.8885	28533.6	27637.65
930.8282	1992.4795	28453.85	27560.6
930.966	1994.0697	28300.85	27408.05
931.1038	1995.6592	28227.95	27336.1
931.2415	1997.2479	28070.9	27179.8
931.3793	1998.8359	28036.55	27144
931.517	2000.4232	27860.4	26970.05
931.6547	2002.0097	27753.25	26862.55
931.7923	2003.5955	27602.35	26711.3
931.93	2005.1805	27604.55	26710.15
932.0676	2006.7648	27579.5	26687.85
932.2052	2008.3484	27415.9	26522.55
932.3427	2009.9312	27488.2	26594.9
932.4803	2011.5133	27310.55	26422.15
932.6178	2013.0946	27209	26318.3
932.7553	2014.6752	27138.4	26247.85
932.8928	2016.2551	27069.9	26176.9
933.0302	2017.8342	26915.25	26024.05
933.1676	2019.4126	26825.4	25935.45
933.305	2020.9902	26703.6	25812.65
933.4424	2022.5672	26698.5	25807.25
933.5798	2024.1433	26582.4	25683.9
933.7171	2025.7188	26437.25	25547.9
933.8544	2027.2935	26380.9	25488.6
933.9917	2028.8674	26248.55	25357.5
934.129	2030.4406	26178.35	25286.55
934.2662	2032.0131	26095.8	25205.7
934.4034	2033.5849	25993.45	25093.15
934.5406	2035.1559	25919.8	25030.55
934.6778	2036.7261	25848	24957.05
934.8149	2038.2957	25766.4	24875.45
934.952	2039.8645	25716.8	24827.1
935.0891	2041.4325	25718	24823.45
935.2262	2042.9998	25549.1	24659.25
935.3632	2044.5664	25499.45	24605.7
935.5002	2046.1323	25406.75	24515.3
935.6372	2047.6974	25310.05	24421.4
935.7742	2049.2617	25242.5	24352.6
935.9111	2050.8254	25222.25	24310.15
936.048	2052.3883	25166.95	24273.75
936.1849	2053.9504	25062.45	24170.7
936.3218	2055.5118	24942.05	24050.7
936.4586	2057.0725	24805.15	23910.75
936.5955	2058.6325	24759.45	23868.15
936.7323	2060.1917	24691.25	23799.25
936.869	2061.7502	24657.95	23764.6
937.0058	2063.3079	24524.35	23632.95
937.1425	2064.8649	24433.35	23539.5
937.2792	2066.4212	24400.95	23507.65
937.4159	2067.9767	24319.35	23426.8
937.5525	2069.5315	24208	23317.9
937.6891	2071.0856	24057.05	23166.8
937.8257	2072.6389	23974.1	23081.7
937.9623	2074.1915	23912.95	23023.05
938.0989	2075.7433	23741.75	22847.9
938.2354	2077.2945	23680.7	22791
938.3719	2078.8448	23649.05	22758.4
938.5084	2080.3945	23508.85	22617.45
938.6448	2081.9434	23521.1	22631.5
938.7812	2083.4916	23406.5	22516
938.9176	2085.039	23269.45	22377.9
939.054	2086.5857	23234.45	22341.85
939.1903	2088.1317	23208.4	22317.8
939.3267	2089.677	23141.05	22250.1
939.463	2091.2215	23028.35	22138
939.5992	2092.7652	22930.3	22036.9
939.7355	2094.3083	22892.95	22000.45
939.8717	2095.8506	22896.25	22005.35
940.0079	2097.3921	22844.2	21954.05
940.1441	2098.933	22737.65	21844.95
940.2802	2100.4731	22675.4	21784.55
940.4163	2102.0124	22631.8	21732.15
940.5524	2103.5511	22568.3	21676.9
940.6885	2105.089	22511.05	21620.3
940.8245	2106.6261	22446	21554.3
940.9606	2108.1626	22352.8	21459.7
941.0965	2109.6983	22325.2	21404.75
941.2325	2111.2332	22218.75	21326.2
941.3684	2112.7675	22126.95	21234.15
941.5044	2114.301	22048.8	21155.65
941.6403	2115.8337	22022.75	21131.35
941.7761	2117.3657	21953.65	21063.2
941.912	2118.897	21906.65	21014.8
942.0478	2120.4276	21818	20920.75
942.1835	2121.9575	21712.5	20819.65
942.3193	2123.4866	21748.75	20844.45
942.455	2125.0149	21649.7	20756.4
942.5907	2126.5426	21516.05	20625.4
942.7264	2128.0695	21454.7	20558.7
942.8621	2129.5956	21420.1	20529.35
942.9977	2131.1211	21379	20483.9
943.1333	2132.6458	21289.35	20397.9
943.2689	2134.1698	21224.75	20331.9
943.4044	2135.693	21182.95	20287.2
943.54	2137.2155	21163.95	20269.8
943.6755	2138.7373	21039.2	20146.3
943.8109	2140.2584	20949.1	20056.75
943.9464	2141.7787	20898.25	20002.45
944.0818	2143.2983	20792.5	19902.4
944.2172	2144.8171	20685.55	19795.6
944.3526	2146.3353	20629.4	19735.35
944.4879	2147.8527	20546.8	19658.85
944.6232	2149.3693	20518.05	19625.65
944.7585	2150.8853	20453.2	19560.4
944.8938	2152.4005	20301.5	19409.4
945.029	2153.9149	20285.45	19392.7
945.1642	2155.4287	20226.55	19333.3
945.2994	2156.9417	20205.1	19313.2
945.4346	2158.454	20127.05	19232.25
945.5697	2159.9655	20046.9	19155.3
945.7048	2161.4764	20053.1	19160.75
945.8399	2162.9865	19940.4	19048.05
945.9749	2164.4958	19930.75	19038.35
946.1099	2166.0045	19834.85	18940.05
946.2449	2167.5124	19779.05	18889.05
946.3799	2169.0195	19732.3	18840.35
946.5148	2170.526	19733.15	18842.25
946.6498	2172.0317	19626.3	18734.35
946.7846	2173.5367	19554.4	18663.15
946.9195	2175.0409	19505.55	18614.65
947.0543	2176.5445	19493.25	18601.9
947.1891	2178.0473	19403.25	18511.4
947.3239	2179.5494	19338.3	18444.1
947.4587	2181.0507	19246.2	18352.5
947.5934	2182.5513	19191.4	18299.3
947.7281	2184.0512	19135.9	18244.65
947.8628	2185.5504	19051.8	18160.8
947.9974	2187.0488	18914.45	18024
948.132	2188.5465	18903.05	18011.1
948.2666	2190.0435	18809.45	17916.55
948.4012	2191.5397	18743.65	17852.95
948.5357	2193.0353	18707.3	17813.5
948.6702	2194.5301	18593.85	17702
948.8047	2196.0241	18527.75	17635.1
948.9392	2197.5175	18475.35	17587.15
949.0736	2199.0101	18370.25	17475.05
949.208	2200.502	18291.45	17400.5
949.3424	2201.9931	18231.55	17339.4
949.4767	2203.4835	18159.1	17265.3
949.611	2204.9733	18114.5	17216.95
949.7453	2206.4622	18074.45	17183.65
949.8796	2207.9505	17992.85	17096.95
950.0138	2209.438	17912.3	17023.1
950.148	2210.9248	17849.95	16958.15
950.2822	2212.4109	17783.4	16891.2
950.4164	2213.8962	17739.35	16846
950.5505	2215.3809	17679.1	16786.25
950.6846	2216.8648	17640.9	16748.2
950.8186	2218.3479	17554.2	16656.85
950.9527	2219.8304	17477.05	16583.25
951.0867	2221.3121	17406.4	16513.3
951.2207	2222.7931	17387.8	16497.1
951.3546	2224.2733	17295.8	16404.5
951.4886	2225.7529	17270	16379.2
951.6225	2227.2317	17162.85	16266.75
951.7563	2228.7098	17145.4	16252.65
951.8902	2230.1872	17047.55	16153.6
952.024	2231.6638	16994.55	16105
952.1578	2233.1397	16954.15	16057.4
952.2916	2234.6149	16906.65	16015.25
952.4253	2236.0894	16818.75	15926.5
952.559	2237.5632	16805.95	15903.85
952.6927	2239.0362	16706.6	15815.5
952.8263	2240.5085	16665.4	15772.7
952.9599	2241.9801	16583	15690.4
953.0935	2243.4509	16538.25	15648.85
953.2271	2244.921	16462.4	15569.75
953.3606	2246.3904	16396.45	15503.2
953.4941	2247.8591	16355.05	15465
953.6276	2249.3271	16292.4	15399.6
953.7611	2250.7943	16231.15	15338.9
953.8945	2252.2608	16181.4	15289.6
954.0279	2253.7266	16130.9	15240.7
954.1612	2255.1917	16085.4	15193.6
954.2946	2256.656	16006.25	15112.05
954.4279	2258.1197	15972.15	15082.5
954.5612	2259.5826	15914.3	15018.6
954.6944	2261.0447	15885.35	14993.15
954.8276	2262.5062	15820.85	14926.9
954.9608	2263.9669	15786.4	14893
955.094	2265.4269	15760.9	14870.3
955.2271	2266.8862	15694.45	14803.3
955.3602	2268.3448	15660.3	14767.4
955.4933	2269.8026	15616.15	14723.55
955.6264	2271.2598	15561.55	14669.65
955.7594	2272.7162	15491.5	14599.75
955.8924	2274.1719	15438.3	14545.85
956.0253	2275.6268	15380.5	14489.5
956.1583	2277.0811	15361.35	14470.35
956.2912	2278.5346	15307.1	14413.45
956.4241	2279.9874	15289.25	14398.7
956.5569	2281.4395	15245.5	14355.35
956.6897	2282.8908	15153.55	14256.75
956.8225	2284.3414	15150.75	14256.45
956.9553	2285.7914	15065.85	14173.55
957.088	2287.2406	15022.85	14130.8
957.2207	2288.689	15009.9	14117.85
957.3534	2290.1368	14925.9	14033.05
957.486	2291.5838	14861.05	13966.3
957.6186	2293.0302	14835.55	13942.55
957.7512	2294.4758	14732.4	13840.55
957.8838	2295.9206	14686.25	13791.25
958.0163	2297.3648	14661.45	13769.45
958.1488	2298.8082	14650.75	13757.8
958.2813	2300.251	14601.95	13711.15
958.4137	2301.693	14566.55	13671.1
958.5461	2303.1343	14560.85	13668.55
958.6785	2304.5748	14485.55	13595.35
958.8108	2306.0147	14397.75	13506.45
958.9432	2307.4538	14377.2	13482.7
959.0754	2308.8922	14338.5	13447
959.2077	2310.3299	14261.3	13371.1
959.3399	2311.7669	14211.7	13320.4
959.4721	2313.2031	14153.95	13262.7
959.6043	2314.6387	14115.1	13225.4
959.7365	2316.0735	14052.15	13161.2
959.8686	2317.5076	14003.55	13109.5
960.0006	2318.941	14004.75	13112.85
960.1327	2320.3737	13934.55	13042.45
960.2647	2321.8056	13898.5	13005.4
960.3967	2323.2369	13853.45	12959
960.5287	2324.6674	13798.5	12903.5
960.6606	2326.0972	13753.4	12859.65
960.7925	2327.5263	13716.75	12827
960.9244	2328.9547	13628.65	12736.45
961.0562	2330.3823	13604.25	12712.2
961.1881	2331.8092	13606.05	12712.95
961.3198	2333.2355	13529.3	12637
961.4516	2334.661	13494.15	12600
961.5833	2336.0858	13477.25	12581.75
961.715	2337.5098	13427.25	12534.5
961.8467	2338.9332	13397.45	12507.3
961.9783	2340.3558	13326.2	12431.65
962.1099	2341.7778	13286.8	12395.85
962.2415	2343.199	13229.35	12336.85
962.373	2344.6195	13186.25	12294.1
962.5045	2346.0393	13148.3	12257.4
962.636	2347.4583	13138.9	12245.55
962.7675	2348.8767	13077.25	12185.75
962.8989	2350.2943	13015.3	12121.55
963.0303	2351.7113	13009.7	12116.5
963.1617	2353.1275	12942.7	12051.85
963.293	2354.543	12948.6	12033.35
963.4243	2355.9578	12896.05	12003.05
963.5556	2357.3718	12798.95	11907.85
963.6868	2358.7852	12742.15	11848.6
963.818	2360.1978	12703.45	11811.25
963.9492	2361.6098	12674.45	11784.5
964.0803	2363.021	12615.15	11719.45
964.2114	2364.4315	12567	11674.6
964.3425	2365.8413	12512.9	11616.35
964.4736	2367.2504	12472.15	11581.75
964.6046	2368.6587	12408.7	11517.75
964.7356	2370.0664	12355.55	11464.05
964.8666	2371.4733	12350.5	11458.5
964.9975	2372.8795	12279.65	11389
965.1284	2374.285	12228.65	11336.95
965.2593	2375.6899	12180.1	11288.65
965.3901	2377.0939	12103.6	11213.7
965.5209	2378.4973	12053.7	11164.75
965.6517	2379.9	12028.7	11137.3
965.7825	2381.3019	11974.35	11081.75
965.9132	2382.7032	11931.6	11041.75
966.0439	2384.1037	11934.6	11046
966.1745	2385.5035	11866.2	10974.25
966.3051	2386.9027	11821.95	10930.9
966.4357	2388.3011	11788.95	10893.75
966.5663	2389.6987	11731.7	10839.45
966.6968	2391.0957	11688.25	10797.3
966.8273	2392.492	11650.35	10760.1
966.9578	2393.8876	11591.4	10699.9
967.0882	2395.2824	11511.65	10621.9
967.2186	2396.6765	11480.05	10589.5
967.349	2398.07	11437.75	10548.05
967.4793	2399.4627	11412.8	10521.9
967.6097	2400.8547	11384.15	10492.75
967.7399	2402.246	11317.3	10419.4
967.8702	2403.6366	11260.95	10368.9
968.0004	2405.0265	11221.25	10329.55
968.1306	2406.4156	11206.05	10311.7
968.2607	2407.8041	11150.6	10256.8
968.3909	2409.1918	11087.5	10195
968.521	2410.5789	11071.4	10178.2
968.651	2411.9652	11009.95	10113.8
968.781	2413.3508	10979.9	10087.85
968.911	2414.7358	10923.85	10034.6
969.041	2416.12	10878.55	9988.05
969.1709	2417.5035	10854.25	9963.6
969.3008	2418.8863	10782.3	9888.85
969.4307	2420.2684	10756.9	9866.7
969.5606	2421.6497	10718.55	9828.55
969.6904	2423.0304	10686.55	9796.05
969.8201	2424.4104	10658.7	9768.25
969.9499	2425.7896	10603.1	9705.3
970.0796	2427.1682	10572.6	9683.85
970.2093	2428.546	10541.7	9648.65
970.3389	2429.9232	10511.35	9616.9
970.4685	2431.2996	10488.95	9599.4
970.5981	2432.6753	10476.25	9586.4
970.7277	2434.0503	10426.4	9534.6
970.8572	2435.4246	10380.65	9489.5
970.9867	2436.7982	10333.85	9440.05
971.1161	2438.1711	10315.75	9426.25
971.2456	2439.5433	10254.9	9363.05
971.375	2440.9148	10230.5	9338.15
971.5043	2442.2856	10171.15	9279.6
971.6336	2443.6557	10147.75	9255.35
971.7629	2445.025	10095.4	9202.15
971.8922	2446.3937	10091.85	9201.2
972.0214	2447.7617	10051.05	9158.1
972.1506	2449.1289	10025.15	9133.8
972.2798	2450.4955	10011.65	9117.4
972.4089	2451.8613	9958.15	9067.25
972.538	2453.2265	9964.05	9072.45
972.6671	2454.5909	9912.85	9020.5
972.7961	2455.9546	9872.35	8980.6
972.9251	2457.3177	9879.45	8988.95
973.0541	2458.68	9837.7	8947
973.1831	2460.0416	9800.25	8910.55
973.312	2461.4025	9751.5	8859.4
973.4408	2462.7627	9745.5	8842.05
973.5697	2464.1222	9716.05	8825.15
973.6985	2465.4811	9708.25	8815.5
973.8273	2466.8392	9667.2	8775.65
973.956	2468.1966	9633.7	8741.05
974.0847	2469.5533	9625	8730.55
974.2134	2470.9093	9603.8	8712.05
974.3421	2472.2645	9541.25	8649.1
974.4707	2473.6191	9515.9	8626.8
974.5993	2474.973	9480.1	8587.2
974.7278	2476.3262	9453.7	8561.05
974.8563	2477.6787	9418.8	8527
974.9848	2479.0305	9365.35	8474.35
975.1132	2480.3816	9314.25	8421.4
975.2417	2481.7319	9284.55	8393.4
975.37	2483.0816	9255.25	8363.2
975.4984	2484.4306	9228.25	8335.25
975.6267	2485.7789	9185.9	8296.1
975.755	2487.1264	9150.25	8258.6
975.8833	2488.4733	9098.65	8207.95
976.0115	2489.8195	9069.3	8169.4
976.1397	2491.165	9036.95	8141.2
976.2678	2492.5097	9019.2	8125.2
976.3959	2493.8538	8997.55	8106.85
976.524	2495.1972	8925.95	8033.55
976.6521	2496.5398	8917.5	8026.45
976.7801	2497.8818	8891.85	7998.4
976.9081	2499.2231	8841.35	7949.15
977.036	2500.5637	8821.25	7926.85
977.164	2501.9035	8780.7	7887.9
977.2918	2503.2427	8771.45	7876.5
977.4197	2504.5812	8701.45	7809.35
977.5475	2505.919	8701.35	7809.4
977.6753	2507.256	8688.85	7798.7
977.8031	2508.5924	8632.9	7741.25
977.9308	2509.9281	8612.85	7716
978.0585	2511.2631	8578.25	7685.8
978.1861	2512.5974	8564.75	7674.7
978.3137	2513.9309	8502.65	7611.4
978.4413	2515.2638	8491.05	7565.35
978.5689	2516.596	8458.8	7567.35
978.6964	2517.9275	8431	7537.75
978.8239	2519.2583	8417.65	7525.35
978.9513	2520.5884	8358	7467.45
979.0788	2521.9178	8319.7	7426.35
979.2062	2523.2465	8316.1	7425.15
979.3335	2524.5745	8278.9	7385.8
979.4608	2525.9018	8235.3	7342.75
979.5881	2527.2284	8202.95	7313.95
979.7154	2528.5543	8231.1	7340.15
979.8426	2529.8796	8176.1	7282.85
979.9698	2531.2041	8163.75	7271.2
980.0969	2532.5279	8163.15	7272.85
980.224	2533.851	8135.45	7243.55
980.3511	2535.1735	8093.4	7200.7
980.4781	2536.4952	8066.65	7176.1
980.6052	2537.8163	8053.9	7161.7
980.7321	2539.1366	8008.3	7117.7
980.8591	2540.4562	7977.75	7086.1
980.986	2541.7752	7979.85	7088
981.1129	2543.0935	7959.2	7069.35
981.2397	2544.411	7972	7079.9
981.3665	2545.7279	7926.9	7035.7
981.4933	2547.0441	7908.45	7015.85
981.62	2548.3596	7894.4	6999.65
981.7467	2549.6744	7875.8	6984
981.8734	2550.9885	7847.4	6955.05
982.0001	2552.3019	7805.1	6915.5
982.1267	2553.6146	7779.75	6886.7
982.2532	2554.9266	7770.75	6881.45
982.3798	2556.2379	7719.5	6829.8
982.5063	2557.5485	7712.75	6821.2
982.6327	2558.8585	7697.65	6799.15
982.7592	2560.1677	7700.15	6803.6
982.8856	2561.4762	7666.9	6773
983.0119	2562.7841	7649.25	6754.15
983.1383	2564.0913	7630.3	6738
983.2646	2565.3977	7612.1	6721.25
983.3908	2566.7035	7585.9	6695.4
983.517	2568.0086	7569.6	6676.55
983.6432	2569.313	7569.45	6678.3
983.7694	2570.6167	7552.5	6656.8
983.8955	2571.9197	7520.35	6629
984.0216	2573.222	7505.2	6611.2
984.1476	2574.5236	7493.6	6600.15
984.2737	2575.8246	7476.15	6582.15
984.3996	2577.1248	7455.05	6559.75
984.5256	2578.4244	7442.4	6550.15
984.6515	2579.7232	7413.6	6521.5
984.7774	2581.0214	7439.45	6524.65
984.9032	2582.3189	7408.5	6517.85
985.029	2583.6157	7393.1	6496.85
985.1548	2584.9118	7374	6481.65
985.2806	2586.2072	7320.35	6430.5
985.4063	2587.5019	7292.9	6402.7
985.5319	2588.7959	7296.3	6403.25
985.6576	2590.0893	7274.45	6381.4
985.7832	2591.3819	7255.2	6362.25
985.9087	2592.6739	7221.1	6328.2
986.0343	2593.9652	7204.4	6312.05
986.1597	2595.2557	7197.35	6306
986.2852	2596.5456	7157.05	6262.5
986.4106	2597.8348	7127.85	6238.3
986.536	2599.1234	7108.3	6218
986.6614	2600.4112	7105.7	6214.2
986.7867	2601.6983	7078.5	6183.45
986.912	2602.9848	7048.9	6156.7
987.0372	2604.2705	7015	6116.2
987.1624	2605.5556	7013.75	6122.25
987.2876	2606.84	6969.35	6077.2
987.4128	2608.1237	6956.6	6063.75
987.5379	2609.4067	6919.95	6025.65
987.6629	2610.689	6889	5986.2
987.788	2611.9707	6871.6	5976.1
987.913	2613.2516	6849.05	5951.8
988.0379	2614.5319	6797.85	5904.6
988.1629	2615.8115	6778.35	5886.2
988.2878	2617.0903	6757.95	5864.7
988.4126	2618.3685	6753.8	5861.1
988.5375	2619.6461	6708.85	5817
988.6622	2620.9229	6705.7	5815.7
988.787	2622.199	6711.7	5817.35
988.9117	2623.4745	6678.45	5786.2
989.0364	2624.7493	6633.2	5741.85
989.161	2626.0234	6629.25	5737.95
989.2857	2627.2968	6590.1	5698.35
989.4102	2628.5695	6572.05	5680.75
989.5348	2629.8415	6542.3	5650.1
989.6593	2631.1128	6514.9	5622.7
989.7837	2632.3835	6486.2	5596.8
989.9082	2633.6535	6449.15	5558.6
990.0326	2634.9228	6447.45	5557
990.1569	2636.1914	6414	5523.4
990.2812	2637.4593	6415.95	5517.55
990.4055	2638.7265	6396.1	5499.45
990.5298	2639.9931	6349.9	5457.6
990.654	2641.259	6347.95	5454.2
990.7782	2642.5242	6314.3	5423.2
990.9023	2643.7887	6301.75	5411.75
991.0264	2645.0525	6301.5	5411.65
991.1505	2646.3156	6257.6	5367.5
991.2745	2647.5781	6233.5	5340.5
991.3985	2648.8398	6208	5316.7
991.5225	2650.1009	6197.85	5295.15
991.6464	2651.3613	6171.95	5280.35
991.7703	2652.6211	6158.45	5266.85
991.8942	2653.8801	6149.7	5260.3
992.018	2655.1385	6119.9	5226
992.1418	2656.3961	6114.8	5221.55
992.2655	2657.6531	6111.75	5221.75
992.3892	2658.9094	6091.5	5199.7
992.5129	2660.1651	6069.35	5177.75
992.6366	2661.42	6073.3	5180.05
992.7602	2662.6743	6057.85	5165.7
992.8837	2663.9279	6010.9	5117.6
993.0073	2665.1808	6000.6	5106.45
993.1307	2666.433	5989.8	5096.15
993.2542	2667.6846	5971.45	5081.5
993.3776	2668.9354	5971.6	5075.15
993.501	2670.1856	5953.5	5062.15
993.6244	2671.4351	5928.9	5037.55
993.7477	2672.6839	5921.75	5027.7
993.8709	2673.9321	5911.5	5019.3
993.9942	2675.1795	5893.35	5002.6
994.1174	2676.4263	5873.8	4983.35
994.2405	2677.6724	5856	4964.6
994.3637	2678.9179	5851.3	4957.5
994.4868	2680.1626	5816.45	4926.8
994.6098	2681.4067	5810.9	4918.4
994.7328	2682.6501	5799.75	4909.2
994.8558	2683.8928	5776.45	4883.75
994.9788	2685.1348	5740.25	4848.45
995.1017	2686.3761	5713.9	4823.3
995.2245	2687.6168	5697.35	4805.15
995.3474	2688.8568	5689.8	4799.55
995.4702	2690.0961	5661.1	4771.25
995.5929	2691.3348	5653.25	4759.15
995.7156	2692.5727	5630.2	4740.15
995.8383	2693.81	5619.15	4727.85
995.961	2695.0466	5593.35	4703.95
996.0836	2696.2826	5583.8	4692.1
996.2062	2697.5178	5575.6	4681.15
996.3287	2698.7524	5556.35	4665.15
996.4512	2699.9863	5551.95	4659.85
996.5737	2701.2195	5527.45	4636.6
996.6961	2702.452	5515.95	4624.55
996.8185	2703.6839	5471.95	4580.35
996.9408	2704.9151	5448.2	4557.5
997.0631	2706.1456	5435.5	4544
997.1854	2707.3755	5446.35	4554.55
997.3077	2708.6046	5434.45	4539.85
997.4299	2709.8331	5417.2	4524.8
997.552	2711.0609	5416.9	4527.15
997.6742	2712.2881	5413.65	4521.6
997.7963	2713.5145	5408.1	4513.05
997.9183	2714.7403	5394.55	4502.4
998.0403	2715.9654	5383.8	4491
998.1623	2717.1899	5375.75	4467.75
998.2842	2718.4136	5383.45	4493.25
998.4062	2719.6367	5365.5	4476.65
998.528	2720.8591	5356	4456.55
998.6498	2722.0809	5323.55	4430.7
998.7716	2723.3019	5331.45	4435.8
998.8934	2724.5223	5335.1	4442.3
999.0151	2725.7421	5324.65	4430.65
999.1368	2726.9611	5308.15	4415.2
999.2584	2728.1795	5295.9	4401.7
999.38	2729.3972	5265.85	4373.45
999.5016	2730.6142	5235.2	4335.5
999.6231	2731.8306	5200.05	4306.3
999.7446	2733.0462	5173.35	4279.35
999.8661	2734.2612	5137.55	4243.85
999.9875	2735.4756	5103.7	4209.55
1000.1089	2736.6892	5066.15	4174.95
1000.2302	2737.9022	5036.65	4146.8
1000.3515	2739.1145	5007.55	4117.35
1000.4728	2740.3262	5014	4115.8
1000.594	2741.5372	4968.65	4076.5
1000.7152	2742.7475	4924.15	4032.55
1000.8363	2743.9571	4916.95	4022.4
1000.9575	2745.1661	4896.9	3999.2
1001.0785	2746.3744	4866.6	3974.65
1001.1996	2747.582	4849.7	3959.75
1001.3206	2748.7889	4817.85	3926
1001.4415	2749.9952	4808.35	3917.1
1001.5625	2751.2008	4781.55	3888.6
1001.6833	2752.4057	4776.75	3882.35
1001.8042	2753.61	4746.8	3852.95
1001.925	2754.8136	4741.4	3847.35
1002.0458	2756.0165	4718.55	3825.75
1002.1665	2757.2188	4697.35	3804.3
1002.2872	2758.4204	4683.05	3790.65
1002.4078	2759.6213	4658.45	3764.45
1002.5285	2760.8215	4671	3775.6
1002.649	2762.0211	4650.1	3756.1
1002.7696	2763.22	4643.3	3748.15
1002.8901	2764.4182	4618.4	3724.7
1003.0106	2765.6158	4600.45	3707.65
1003.131	2766.8127	4583.15	3691.9
1003.2514	2768.009	4557.5	3667.8
1003.3717	2769.2045	4564.3	3670.2
1003.492	2770.3994	4557	3664
1003.6123	2771.5936	4537.4	3645.2
1003.7325	2772.7872	4513.85	3623.55
1003.8527	2773.9801	4499.35	3607.5
1003.9729	2775.1723	4491.6	3581.7
1004.093	2776.3639	4456.75	3566.9
1004.2131	2777.5548	4453.25	3558.7
1004.3331	2778.745	4458.2	3564.9
1004.4531	2779.9346	4452.4	3561.65
1004.5731	2781.1235	4431.55	3538.7
1004.693	2782.3117	4416.1	3525.9
1004.8129	2783.4992	4403.6	3512.45
1004.9328	2784.6861	4375.25	3483.1
1005.0526	2785.8723	4387.05	3493.05
1005.1723	2787.0579	4406.45	3512.5
1005.2921	2788.2428	4376.25	3484.55
1005.4118	2789.427	4376.75	3485.1
1005.5314	2790.6106	4368.9	3477.65
1005.651	2791.7935	4353.55	3461.2
1005.7706	2792.9757	4351.1	3460.3
1005.8902	2794.1573	4347.4	3454.3
1006.0097	2795.3382	4358.3	3467.45
1006.1291	2796.5184	4359.85	3469.15
1006.2485	2797.698	4360.25	3467.9
1006.3679	2798.8769	4348.4	3457.45
1006.4873	2800.0551	4355.2	3463.6
1006.6066	2801.2327	4365.45	3471
1006.7258	2802.4096	4368.9	3477
1006.8451	2803.5859	4378.3	3486.55
1006.9642	2804.7615	4378.1	3485.9
1007.0834	2805.9364	4394.95	3505.05
1007.2025	2807.1106	4408.85	3516.45
1007.3216	2808.2842	4439.9	3548.85
1007.4406	2809.4572	4443.2	3550.8
1007.5596	2810.6294	4482.4	3589.4
1007.6785	2811.801	4511.45	3621.7
1007.7975	2812.972	4541.55	3651.25
1007.9163	2814.1423	4570.5	3677.9
1008.0352	2815.3119	4618.95	3728.85
1008.154	2816.4808	4644.85	3752.65
1008.2727	2817.6491	4688.05	3795.65
1008.3914	2818.8167	4708.25	3817.25
1008.5101	2819.9837	4764.05	3867.4
1008.6288	2821.15	4789.2	3897.5
1008.7474	2822.3157	4833	3941.9
1008.8659	2823.4807	4864.4	3973
1008.9844	2824.645	4914.05	4021.7
1009.1029	2825.8086	4940	4049.75
1009.2214	2826.9716	4959.1	4067
1009.3398	2828.134	5006.35	4115.75
1009.4581	2829.2957	5011.3	4118.45
1009.5764	2830.4567	5038.35	4148
1009.6947	2831.617	5052.6	4159.25
1009.813	2832.7767	5065.8	4173.7
1009.9312	2833.9358	5049.15	4157.5
1010.0493	2835.0941	5045.9	4153.1
1010.1675	2836.2519	5043.4	4153.2
1010.2855	2837.4089	5002.15	4108.55
1010.4036	2838.5653	4977.5	4087.5
1010.5216	2839.7211	4974.65	4086.3
1010.6396	2840.8761	4986.8	4094.1
1010.7575	2842.0306	4990.9	4100.75
1010.8754	2843.1843	5006.75	4114.7
1010.9932	2844.3374	5077.85	4186.3
1011.111	2845.4899	5101.25	4207.7
1011.2288	2846.6417	5173.15	4280.55
1011.3465	2847.7928	5258.15	4369.1
1011.4642	2848.9433	5325.05	4434.4
1011.5818	2850.0931	5393.3	4501.55
1011.6995	2851.2422	5484.85	4592.35
1011.817	2852.3907	5535.05	4641.95
1011.9345	2853.5385	5587.55	4693.35
1012.052	2854.6857	5659	4743.3
1012.1695	2855.8323	5671.2	4781.75
1012.2869	2856.9781	5709.45	4819.35
1012.4042	2858.1233	5757.2	4865.85
1012.5216	2859.2679	5783.75	4891.65
1012.6389	2860.4118	5827.15	4934.85
1012.7561	2861.555	5865.2	4971.75
1012.8733	2862.6976	5891.35	4998.3
1012.9905	2863.8395	5904.3	5013.45
1013.1076	2864.9808	5898.95	5007.6
1013.2247	2866.1214	5938.2	5047.8
1013.3417	2867.2614	5921.95	5031.65
1013.4587	2868.4007	5925.05	5031.9
1013.5757	2869.5393	5917.3	5024.4
1013.6926	2870.6773	5921.75	5027.7
1013.8095	2871.8146	5935.75	5040.15
1013.9263	2872.9513	5926.55	5030.35
1014.0431	2874.0874	5895.7	5004.65
1014.1599	2875.2227	5890.6	4998.55
1014.2766	2876.3574	5857.1	4965.9
1014.3933	2877.4915	5831.25	4941.35
1014.51	2878.6249	5797.25	4907.1
1014.6266	2879.7577	5771.4	4878.1
1014.7431	2880.8898	5755.6	4854.7
1014.8596	2882.0212	5718.8	4827.85
1014.9761	2883.152	5694.2	4801.35
1015.0925	2884.2821	5669.4	4778.5
1015.2089	2885.4116	5648.95	4758.6
1015.3253	2886.5405	5630.5	4738.15
1015.4416	2887.6686	5631.55	4738.3
1015.5579	2888.7962	5624.45	4734
1015.6741	2889.923	5634.05	4740.25
1015.7903	2891.0493	5623.8	4733.35
1015.9065	2892.1748	5626.5	4734.35
1016.0226	2893.2997	5618.8	4729.15
1016.1387	2894.424	5631.35	4742.15
1016.2547	2895.5476	5639.1	4748.4
1016.3707	2896.6706	5671.65	4782.9
1016.4866	2897.7929	5677.95	4785.4
1016.6025	2898.9145	5694.1	4802.8
1016.7184	2900.0355	5725.25	4833.05
1016.8342	2901.1559	5739.4	4847.4
1016.95	2902.2756	5757.95	4862.7
1017.0658	2903.3946	5778	4888.8
1017.1815	2904.513	5805.75	4913.05
1017.2971	2905.6308	5835.25	4944.4
1017.4127	2906.7479	5817.65	4926.25
1017.5283	2907.8643	5850.9	4957.9
1017.6439	2908.9801	5861.2	4970.5
1017.7594	2910.0953	5855.4	4964.15
1017.8748	2911.2098	5846.25	4952.75
1017.9902	2912.3236	5827.95	4928.85
1018.1056	2913.4368	5817.85	4923.45
1018.2209	2914.5494	5783.65	4891
1018.3362	2915.6613	5744.6	4847.95
1018.4515	2916.7725	5714.65	4820.25
1018.5667	2917.8831	5697.5	4804.5
1018.6819	2918.9931	5663.8	4767.8
1018.797	2920.1024	5611.05	4719.3
1018.9121	2921.211	5589.05	4697.5
1019.0271	2922.319	5552.6	4662.55
1019.1421	2923.4264	5526.25	4636.3
1019.2571	2924.5331	5507.55	4617.45
1019.372	2925.6391	5491.6	4598.55
1019.4869	2926.7445	5481.5	4590.35
1019.6017	2927.8493	5461.55	4571.6
1019.7165	2928.9534	5440.7	4547.9
1019.8313	2930.0569	5426	4531.15
1019.946	2931.1597	5413.7	4522.95
1020.0606	2932.2619	5385.9	4494.25
1020.1753	2933.3634	5383.7	4493.85
1020.2899	2934.4643	5348.85	4449.8
1020.4044	2935.5645	5350.6	4454.1
1020.5189	2936.6641	5300.4	4405.25
1020.6334	2937.763	5239.4	4348.55
1020.7478	2938.8613	5204.2	4312.7
1020.8622	2939.959	5129.7	4232.95
1020.9765	2941.056	5035.65	4145.55
1021.0908	2942.1523	4939.15	4048.4
1021.2051	2943.248	4852.9	3961.15
1021.3193	2944.3431	4762.3	3871.9
1021.4334	2945.4375	4642.75	3750.1
1021.5476	2946.5313	4528.25	3637.5
1021.6617	2947.6244	4408.8	3517.85
1021.7757	2948.7169	4297.3	3404.7
1021.8897	2949.8087	4220.75	3329
1022.0037	2950.8999	4104.25	3213.3
1022.1176	2951.9904	3996.05	3105.45
1022.2315	2953.0803	3926.3	3036.45
1022.3453	2954.1696	3852.7	2962.7
1022.4591	2955.2582	3793.6	2901.9
1022.5728	2956.3462	3738.65	2847.9
1022.6865	2957.4335	3682	2787.6
1022.8002	2958.5202	3652.9	2759.15
1022.9138	2959.6062	3631.8	2739.6
1023.0274	2960.6916	3591.95	2701.05
1023.141	2961.7764	3558.15	2665.45
1023.2545	2962.8605	3520.7	2629.45
1023.3679	2963.9439	3515.1	2624.55
1023.4813	2965.0267	3490.3	2598.8
1023.5947	2966.1089	3506.9	2593.1
1023.708	2967.1905	3465.6	2575.9
1023.8213	2968.2714	3446.75	2556
1023.9346	2969.3516	3445.4	2557
1024.0478	2970.4312	3451.9	2552.1
1024.1609	2971.5102	3437.55	2547.95
1024.274	2972.5885	3431.1	2539.85
1024.3871	2973.6662	3438.6	2543.1
1024.5002	2974.7432	3429.75	2538.5
1024.6132	2975.8196	3403.45	2513.2
1024.7261	2976.8954	3371	2480.2
1024.839	2977.9705	3371.05	2480.3
1024.9519	2979.045	3356.7	2466.1
1025.0647	2980.1188	3329.35	2439.3
1025.1775	2981.192	3290.35	2402.25
1025.2902	2982.2645	3269.15	2377.3
1025.4029	2983.3364	3236.4	2345.45
1025.5156	2984.4077	3190.65	2300.3
1025.6282	2985.4783	3169	2271.5
1025.7407	2986.5483	3134.85	2243.55
1025.8532	2987.6177	3092.55	2202.8
1025.9657	2988.6864	3059.9	2169.25
1026.0782	2989.7545	3013.8	2124.05
1026.1906	2990.8219	2976.9	2086.7
1026.3029	2991.8887	2937.5	2043.75
1026.4152	2992.9548	2906.75	2013.6
1026.5275	2994.0204	2864.75	1974.85
1026.6397	2995.0852	2834.1	1944.2
1026.7519	2996.1495	2795.05	1902.75
1026.864	2997.2131	2775.05	1885.35
1026.9761	2998.276	2753.15	1862.05
1027.0882	2999.3383	2724	1831.4
1027.2002	3000.4	2686.1	1794.15
1027.3122	3001.4611	2677.45	1786.2
1027.4241	3002.5215	2663.05	1772.15
1027.536	3003.5812	2641.55	1752.95
1027.6478	3004.6404	2621.1	1729.8
1027.7596	3005.6989	2614.7	1721.65
1027.8714	3006.7567	2591.65	1701.45
1027.9831	3007.8139	2588.6	1675.95
1028.0947	3008.8705	2572.4	1680.9
1028.2064	3009.9264	2566.1	1671.7
1028.3179	3010.9818	2554	1663.65
1028.4295	3012.0364	2555.1	1663.9
1028.541	3013.0905	2544.65	1654.05
1028.6524	3014.1439	2531.4	1641.1
1028.7638	3015.1966	2522.45	1633.5
1028.8752	3016.2487	2512.65	1621.65
1028.9865	3017.3002	2504.5	1608.9
1029.0978	3018.3511	2510.2	1620.65
1029.209	3019.4013	2503.65	1613.05
1029.3202	3020.4509	2497.95	1608.4
1029.4314	3021.4998	2497.5	1607.35
1029.5425	3022.5481	2481.2	1591.7
1029.6535	3023.5958	2479.75	1591.2
1029.7645	3024.6428	2489.55	1598.9
1029.8755	3025.6892	2479	1588.85
1029.9864	3026.735	2476.55	1586.9
1030.0973	3027.7802	2478.45	1587.25
1030.2082	3028.8247	2467.85	1578.7
1030.319	3029.8685	2469.95	1579.55
1030.4297	3030.9118	2460.4	1569.75
1030.5404	3031.9544	2465.5	1574.9
1030.6511	3032.9963	2455.3	1565.55
1030.7617	3034.0376	2452.8	1560.95
1030.8723	3035.0783	2463.9	1569.55
1030.9829	3036.1184	2454.4	1561.9
1031.0934	3037.1578	2466.8	1576.55
1031.2038	3038.1966	2462.85	1571.4
1031.3142	3039.2348	2445.55	1555.8
1031.4246	3040.2723	2446.5	1547.65
1031.5349	3041.3092	2443.7	1554.2
1031.6452	3042.3455	2425.2	1536.8
1031.7554	3043.3811	2427.6	1536.8
1031.8656	3044.4161	2419.6	1527.6
1031.9758	3045.4505	2410.1	1521.3
1032.0859	3046.4842	2401.8	1510.75
1032.1959	3047.5173	2385.45	1494.35
1032.3059	3048.5498	2375.2	1483.55
1032.4159	3049.5816	2353.4	1463.4
1032.5258	3050.6128	2356.35	1464.5
1032.6357	3051.6434	2345.8	1453.65
1032.7455	3052.6734	2338.4	1445
1032.8553	3053.7027	2329.55	1438.8
1032.9651	3054.7314	2319.2	1430.4
1033.0748	3055.7594	2298.75	1408.9
1033.1845	3056.7868	2289.45	1398.65
1033.2941	3057.8136	2284.75	1395.6
1033.4037	3058.8398	2278.55	1389.15
1033.5132	3059.8653	2256.85	1366.3
1033.6227	3060.8902	2246.15	1356.1
1033.7321	3061.9145	2235.25	1346
1033.8415	3062.9381	2231.9	1342.4
1033.9509	3063.9612	2233.6	1326.5
1034.0602	3064.9835	2215.55	1325.2
1034.1694	3066.0053	2214.1	1322.8
1034.2787	3067.0264	2191.55	1300.05
1034.3878	3068.0469	2171.65	1281.2
1034.497	3069.0668	2170.6	1277.35
1034.6061	3070.086	2166.1	1277.1
1034.7151	3071.1046	2143.5	1255.25
1034.8241	3072.1226	2149.15	1256.9
1034.9331	3073.1399	2116.8	1227.9
1035.042	3074.1567	2119.2	1227.35
1035.1508	3075.1727	2105.35	1211.8
1035.2597	3076.1882	2095.35	1204.35
1035.3684	3077.203	2078.9	1189.1
1035.4772	3078.2173	2058.25	1166.35
1035.5859	3079.2308	2044.15	1149.75
1035.6945	3080.2438	2028.8	1137.35
1035.8031	3081.2561	2034.9	1144.15
1035.9117	3082.2678	2018.05	1129.35
1036.0202	3083.2789	2002.55	1113.45
1036.1286	3084.2893	2002.55	1112
1036.2371	3085.2991	1987.35	1098.65
1036.3454	3086.3083	1983.95	1091.6
1036.4538	3087.3169	1976.95	1084.65
1036.562	3088.3248	1960.15	1068.35
1036.6703	3089.3321	1952.7	1060.45
1036.7785	3090.3388	1944.15	1054.75
1036.8866	3091.3449	1930.8	1041.05
1036.9948	3092.3503	1929.2	1035.85
1037.1028	3093.3551	1911.8	1022.8
1037.2108	3094.3593	1913.55	1024.7
1037.3188	3095.3629	1909.6	1019.15
1037.4267	3096.3658	1897.3	1004.9
1037.5346	3097.3681	1900.1	1009.55
1037.6425	3098.3698	1891.4	999.35
1037.7503	3099.3708	1883.65	985
1037.858	3100.3713	1864.2	973.7
1037.9657	3101.3711	1870.1	979.25
1038.0734	3102.3702	1964	961.35
1038.181	3103.3688	1862.05	970.15
1038.2886	3104.3667	1846.7	957.8
1038.3961	3105.364	1841.85	952
1038.5036	3106.3607	1836.8	944.95
1038.611	3107.3568	1824.4	931.9
1038.7184	3108.3522	1819.1	931.05
1038.8257	3109.347	1815.3	923.35
1038.933	3110.3412	1818.1	925.5
1039.0403	3111.3348	1805.6	915.2
1039.1475	3112.3277	1804.05	914.7
1039.2547	3113.32	1791.1	903.5
1039.3618	3114.3117	1796.85	905.15
1039.4689	3115.3028	1788.9	899.5
1039.5759	3116.2932	1785.7	893.4
1039.6829	3117.2831	1772.75	876.1
1039.7898	3118.2723	1770.35	880.15
1039.8967	3119.2608	1761	871.8
1040.0035	3120.2488	1756.1	865.05
1040.1103	3121.2361	1752.7	862.05
1040.2171	3122.2229	1743.3	853.5
1040.3238	3123.209	1746.55	855.35
1040.4305	3124.1944	1729.55	839.1
1040.5371	3125.1793	1729.75	838.85
1040.6437	3126.1635	1723.8	834.7
1040.7502	3127.1471	1722.4	832.35
1040.8567	3128.1301	1715.05	826.75
1040.9631	3129.1125	1706.9	816.9
1041.0695	3130.0942	1712.8	822.95
1041.1759	3131.0753	1722.05	822.9
1041.2822	3132.0558	1714.2	820.9
1041.3884	3133.0357	1699.95	809.75
1041.4946	3134.015	1693.2	802.45
1041.6008	3134.9936	1696.55	805.5
1041.7069	3135.9716	1712.25	802.15
1041.813	3136.949	1684.15	793.25
1041.919	3137.9258	1681.7	787.8
1042.025	3138.902	1675.2	780.85
1042.1309	3139.8775	1666.65	777.1
1042.2368	3140.8524	1666.25	777.9
1042.3427	3141.8267	1662.65	771.7
1042.4485	3142.8004	1665.05	772.9
1042.5542	3143.7735	1661.25	764.65
1042.6599	3144.7459	1654.2	762.3
1042.7656	3145.7178	1655.55	765.75
1042.8712	3146.689	1641.65	753.15
1042.9768	3147.6596	1645.95	754.15
1043.0823	3148.6295	1627.2	737.55
1043.1878	3149.5989	1631.55	740.5
1043.2932	3150.5676	1625.1	736.05
1043.3986	3151.5357	1616.7	728.05
1043.5039	3152.5032	1618.55	728.9
1043.6092	3153.4701	1621.15	732.3
1043.7145	3154.4364	1612.15	719.85
1043.8197	3155.402	1600	712.4
1043.9248	3156.367	1604.6	712.4
1044.03	3157.3315	1640.1	705.45
1044.135	3158.2952	1595.15	704.25
1044.24	3159.2584	1583.65	694
1044.345	3160.221	1578.4	688.85
1044.4499	3161.1829	1585.6	695.1
1044.5548	3162.1442	1576.2	685.7
1044.6596	3163.105	1574.6	685.3
1044.7644	3164.065	1565.55	673.9
1044.8692	3165.0245	1569.6	677.95
1044.9739	3165.9834	1565.45	677.4
1045.0785	3166.9416	1555	665.25
1045.1831	3167.8993	1552.3	662.35
1045.2877	3168.8563	1546.8	654.55
1045.3922	3169.8127	1540.6	652.3
1045.4966	3170.7684	1535.9	646.2
1045.6011	3171.7236	1531.4	638.7
1045.7054	3172.6782	1535.2	645.05
1045.8098	3173.6321	1529.8	638.2
1045.914	3174.5854	1530.7	633.1
1046.0183	3175.5381	1528.35	639.2
1046.1224	3176.4902	1518.45	629.7
1046.2266	3177.4417	1515.05	626.85
1046.3307	3178.3926	1508.5	618.05
1046.4347	3179.3428	1511.45	622.2
1046.5387	3180.2924	1506.45	618.4
1046.6427	3181.2415	1503.95	614.3
1046.7466	3182.1899	1503.45	613.3
1046.8504	3183.1377	1495	605.45
1046.9542	3184.0848	1493.95	599.95
1047.058	3185.0314	1487.05	596.1
1047.1617	3185.9773	1483.6	592.7
1047.2654	3186.9227	1478.65	588.15
1047.369	3187.8674	1478.15	590.1
1047.4726	3188.8115	1477.85	583.75
1047.5761	3189.755	1478.75	588.5
1047.6796	3190.6979	1469.75	580.9
1047.783	3191.6402	1463.05	574.3
1047.8864	3192.5818	1465.75	575.85
1047.9898	3193.5229	1488.8	575.55
1048.0931	3194.4633	1469.8	577.25
1048.1963	3195.4031	1455.35	566
1048.2995	3196.3423	1451.75	561.9
1048.4027	3197.2809	1455.2	565.3
1048.5058	3198.2189	1448.35	558.15
1048.6089	3199.1563	1453.25	559.25
1048.7119	3200.0931	1439.4	549.8
1048.8148	3201.0292	1436.05	547.15
1048.9178	3201.9648	1442.2	551.95
1049.0206	3202.8997	1437.55	545.7
1049.1235	3203.834	1430.7	541.65
1049.2262	3204.7677	1426.65	536.95
1049.329	3205.7008	1424.75	533.9
1049.4317	3206.6333	1419.95	531
1049.5343	3207.5652	1420.2	527.1
1049.6369	3208.4964	1417	528.3
1049.7394	3209.4271	1406.4	518.3
1049.8419	3210.3571	1410.15	521.05
1049.9444	3211.2865	1418.35	527.05
1050.0468	3212.2154	1410.35	519.4
1050.1491	3213.1436	1408	516.1
1050.2514	3214.0712	1407.9	511.05
1050.3537	3214.9982	1402.9	512.5
1050.4559	3215.9246	1392.2	501.9
1050.5581	3216.8503	1389.2	500.35
1050.6602	3217.7755	1394.75	504.65
1050.7623	3218.7001	1392	501.7
1050.8643	3219.624	1387.7	497.35
1050.9663	3220.5473	1381.6	491.2
1051.0682	3221.4701	1384.9	492.85
1051.1701	3222.3922	1385.3	493.3
1051.2719	3223.3137	1378.55	488.55
1051.3737	3224.2346	1375	483.8
1051.4754	3225.1549	1373.55	484.35
1051.5771	3226.0746	1367.75	478.45
1051.6788	3226.9937	1370.3	480.6
1051.7804	3227.9121	1358.05	470.7
1051.8819	3228.83	1363.1	472.95
1051.9834	3229.7473	1360.5	470.95
1052.0849	3230.6639	1355.7	466
1052.1863	3231.5799	1345.7	457.95
1052.2876	3232.4954	1350.15	459.4
1052.3889	3233.4102	1348.7	459.75
1052.4902	3234.3244	1345.65	456.1
1052.5914	3235.238	1342.55	452.35
1052.6926	3236.151	1354.95	444.75
1052.7937	3237.0634	1334.45	445.45
1052.8948	3237.9752	1331.95	442.1
1052.9958	3238.8864	1333.55	443.65
1053.0968	3239.797	1328.2	437.3
1053.1977	3240.7069	1326.3	436
1053.2986	3241.6163	1325.25	435.75
1053.3994	3242.5251	1320.85	431
1053.5002	3243.4332	1321.8	433.65
1053.6009	3244.3408	1321.4	431.3
1053.7016	3245.2477	1312.5	425.1
1053.8022	3246.154	1301.9	410.8
1053.9028	3247.0598	1308.3	417.75
1054.0034	3247.9649	1308.15	417.45
1054.1039	3248.8694	1297.05	408
1054.2043	3249.7733	1302.75	413.25
1054.3047	3250.6766	1302.55	411.65
1054.4051	3251.5793	1301.3	409.85
1054.5054	3252.4814	1293.45	404.1
1054.6056	3253.3829	1289	399.45
1054.7058	3254.2838	1285.25	395
1054.806	3255.1841	1287.8	399.55
1054.9061	3256.0838	1280	389.5
1055.0061	3256.9829	1272.85	385.5
1055.1062	3257.8814	1275.65	384.55
1055.2061	3258.7792	1270.75	378.4
1055.306	3259.6765	1268.4	377.95
1055.4059	3260.5731	1259.15	369.35
1055.5057	3261.4692	1259.65	369.55
1055.6055	3262.3647	1252.2	364.45
1055.7052	3263.2595	1253.95	365.3
1055.8049	3264.1538	1241.7	352
1055.9045	3265.0474	1238.9	349.5
1056.0041	3265.9404	1233.4	344
1056.1036	3266.8329	1233.75	345.6
1056.2031	3267.7247	1230.35	332.35
1056.3025	3268.616	1213.25	325.5
1056.4019	3269.5066	1207.2	318.8
1056.5013	3270.3966	1202.9	312.05
1056.6005	3271.286	1184.8	296.6
