Software Version:	3.9.2.0
Unit SN:	10000200
Spectrometer SN:	6960
Date:	3/6/2024 10:20:23 AM
Data Line Index:	25
Spectral Points:	2048
Integration time (ms):	125
Averages:	20
Delay (ms):	30
Sequence Number:	1
Processing:	dark subtract
Laser Power (mW):	305
Laser Current (mA):	826
Laser Diode Temp (C):	25.1
Laser Case Temp (C):	25.4
System Temp (C):	25.2
Spectrometer Temp (C):	22.7
CCD Temp (C):	-0.006
Secondary Temp (C):	20.008
Heatsink Temp (C):	20.575
CCDPCB Temp (C):	33.061
SecondaryPCB Temp (C):	26.903

Wavelength	RamanShift	Raw Counts	Dark Subtracted
787.061	30.1047	1059.7	650.5
787.2016	32.3739	1085.9	677.2
787.3422	34.6426	1125	715.95
787.4828	36.9109	1161	748.35
787.6235	39.1787	1212.55	796.45
787.7642	41.4461	1256.25	837.5
787.9049	43.7131	1327.55	905
788.0456	45.9796	1374	946.6
788.1863	48.2456	1439.8	1009.8
788.3271	50.5112	1499.8	1064.95
788.4679	52.7764	1566.45	1130.15
788.6087	55.0411	1637	1195.25
788.7496	57.3054	1706.25	1261.2
788.8904	59.5692	1784.6	1337.55
789.0313	61.8326	1867.8	1415.25
789.1722	64.0955	1979.4	1525.65
789.3132	66.3579	2081.35	1621.45
789.4541	68.6199	2219.55	1757.85
789.5951	70.8815	2443.05	1978.2
789.7361	73.1426	2942.9	2471.45
789.8771	75.4032	4254.2	3779.55
790.0181	77.6634	7540.35	7060.85
790.1592	79.9231	16231.05	15744.4
790.3003	82.1824	50637.25	50139.15
790.4414	84.4412	65535	65015.3
790.5825	86.6995	65535	64990.25
790.7237	88.9574	65535	64964.4
790.8648	91.2148	65535	64949.35
791.006	93.4717	65535	64936.55
791.1472	95.7282	65535	64933.85
791.2885	97.9842	65535	64929.2
791.4297	100.2398	65535	64925.8
791.571	102.4949	65535	64923.25
791.7123	104.7495	65535	64920.8
791.8536	107.0036	65535	64915.8
791.9949	109.2573	65535	64921.4
792.1363	111.5105	65535	64917.6
792.2777	113.7632	65535	64914.9
792.4191	116.0154	65535	64906.4
792.5605	118.2672	65535	64914.25
792.7019	120.5185	65535	64912
792.8434	122.7693	65535	64907.65
792.9849	125.0197	65535	64904.35
793.1264	127.2696	65535	64897.1
793.2679	129.519	65535	64894
793.4094	131.7679	65535	64898.35
793.551	134.0163	65535	64888.45
793.6926	136.2642	65535	64884.15
793.8342	138.5117	65535	64878.2
793.9758	140.7587	65535	64883.15
794.1175	143.0052	65535	64883.3
794.2591	145.2512	65535	64883.65
794.4008	147.4967	65535	64880.95
794.5425	149.7417	65535	64880.1
794.6842	151.9863	65535	64870.95
794.826	154.2304	65535	64873.05
794.9677	156.4739	65535	64865.3
795.1095	158.717	65535	64866.25
795.2513	160.9596	65535	64859.25
795.3931	163.2017	65535	64856.05
795.535	165.4433	65535	64856.35
795.6768	167.6844	65535	64853.9
795.8187	169.925	65535	64851.8
795.9606	172.1651	65535	64849.35
796.1025	174.4047	65535	64843.6
796.2445	176.6439	65535	64841.2
796.3864	178.8825	65535	64840.8
796.5284	181.1206	65535	64837.8
796.6704	183.3582	65535	64833.35
796.8124	185.5954	65535	64832.65
796.9544	187.832	65535	64828.75
797.0965	190.0681	65535	64825.55
797.2386	192.3037	65535	64824.85
797.3806	194.5388	65535	64822.1
797.5228	196.7734	65535	64815.55
797.6649	199.0075	65535	64815
797.807	201.2411	65535	64812.85
797.9492	203.4742	65535	64812.55
798.0914	205.7068	65535	64810.25
798.2336	207.9389	65535	64808.55
798.3758	210.1704	65535	64804.3
798.518	212.4015	65535	64812.35
798.6603	214.632	65535	64823.75
798.8025	216.862	65535	64827.9
798.9448	219.0915	65535	64825.7
799.0871	221.3205	65535	64824.3
799.2294	223.549	65535	64829
799.3718	225.777	65535	64826.25
799.5141	228.0044	65535	64823.1
799.6565	230.2314	65535	64825.65
799.7989	232.4578	65535	64818.65
799.9413	234.6837	65535	64811.7
800.0837	236.909	65535	64812
800.2262	239.1339	65535	64784.8
800.3687	241.3582	65535	64799.5
800.5111	243.582	65535	64768.85
800.6536	245.8053	65535	64777.6
800.7961	248.0281	65535	64784.5
800.9387	250.2503	65535	64780.6
801.0812	252.472	65535	64777.7
801.2238	254.6932	65535	64779.15
801.3664	256.9139	65535	64778.15
801.509	259.134	65535	64775.15
801.6516	261.3536	65535	64773.95
801.7942	263.5727	65535	64773.6
801.9369	265.7912	65535	64774.95
802.0795	268.0092	65535	64773.8
802.2222	270.2267	65535	64772.15
802.3649	272.4436	65535	64776.85
802.5076	274.6601	65535	64763.85
802.6504	276.8759	65535	64768
802.7931	279.0913	65535	64764.85
802.9359	281.3061	65535	64763
803.0787	283.5204	65535	64763.25
803.2215	285.7341	65535	64756.55
803.3643	287.9473	65535	64745.55
803.5071	290.16	65535	64753.3
803.6499	292.3721	65535	64758.9
803.7928	294.5837	65535	64759.95
803.9357	296.7947	65535	64763.35
804.0786	299.0052	65535	64759.9
804.2215	301.2152	65535	64756.95
804.3644	303.4246	65535	64761.35
804.5074	305.6334	65535	64758.35
804.6503	307.8418	65535	64752.65
804.7933	310.0495	65535	64754.9
804.9363	312.2568	65535	64752.55
805.0793	314.4635	65535	64753.3
805.2223	316.6696	65535	64749.95
805.3653	318.8752	65535	64739
805.5084	321.0802	65535	64750
805.6514	323.2847	65535	64747.75
805.7945	325.4887	65535	64748.85
805.9376	327.692	65535	64747.6
806.0807	329.8949	65535	64742.7
806.2238	332.0972	65535	64743.75
806.367	334.2989	65535	64736.95
806.5101	336.5001	65535	64739.85
806.6533	338.7007	65535	64738.9
806.7965	340.9008	65535	64733.7
806.9397	343.1003	65535	64735.85
807.0829	345.2992	65535	64735.95
807.2261	347.4976	65535	64734.3
807.3693	349.6955	65535	64726.4
807.5126	351.8927	65535	64725.6
807.6559	354.0895	65535	64716.25
807.7991	356.2856	65535	64726.7
807.9424	358.4812	65535	64725
808.0857	360.6763	65535	64724.85
808.2291	362.8707	65535	64726.85
808.3724	365.0646	65535	64719.5
808.5158	367.258	65535	64716.35
808.6591	369.4508	65535	64712.7
808.8025	371.643	65535	64719.05
808.9459	373.8346	65535	64716.75
809.0893	376.0257	65535	64710.2
809.2327	378.2162	65535	64712.35
809.3762	380.4062	65535	64708.55
809.5196	382.5956	65535	64707.75
809.6631	384.7844	65535	64713
809.8066	386.9726	65535	64712.6
809.9501	389.1603	65535	64716.45
810.0936	391.3474	65535	64677.4
810.2371	393.5339	65535	64715.4
810.3806	395.7199	65535	64719.4
810.5241	397.9052	65535	64718.6
810.6677	400.09	65535	64716.05
810.8113	402.2743	65535	64720.75
810.9548	404.4579	65535	64718.2
811.0984	406.641	65535	64716.6
811.2421	408.8235	65535	64713.7
811.3857	411.0054	65535	64711.75
811.5293	413.1868	65535	64706.75
811.673	415.3675	65535	64703.5
811.8166	417.5477	65535	64706.8
811.9603	419.7273	65535	64701.6
812.104	421.9064	65535	64695.95
812.2477	424.0848	65535	64696.85
812.3914	426.2627	65535	64697.05
812.5351	428.4399	65535	64701.1
812.6788	430.6166	65535	64693.75
812.8226	432.7928	65535	64692.35
812.9663	434.9683	65535	64695
813.1101	437.1432	65535	64687.75
813.2539	439.3176	65535	64694.9
813.3977	441.4914	65535	64695.2
813.5415	443.6645	65535	64691.7
813.6853	445.8371	65535	64693.35
813.8291	448.0091	65535	64693.8
813.973	450.1806	65535	64692
814.1168	452.3514	65535	64690.1
814.2607	454.5216	65535	64681.15
814.4046	456.6913	65535	64688.75
814.5485	458.8603	65535	64691.6
814.6924	461.0288	65535	64691.95
814.8363	463.1967	65535	64690.55
814.9802	465.3639	65535	64686.3
815.1241	467.5306	65535	64690.6
815.2681	469.6967	65535	64689.05
815.412	471.8622	65535	64691.65
815.556	474.0271	65535	64689.95
815.7	476.1914	65535	64684.5
815.844	478.3551	65535	64690.75
815.988	480.5182	65535	64688.85
816.132	482.6807	65535	64686.45
816.276	484.8426	65535	64687.8
816.4201	487.0039	65535	64686.7
816.5641	489.1647	65535	64684
816.7082	491.3248	65535	64681.65
816.8522	493.4843	65535	64683.4
816.9963	495.6432	65535	64685.3
817.1404	497.8015	65535	64681.75
817.2845	499.9592	65535	64680.85
817.4286	502.1163	65535	64679
817.5727	504.2728	65535	64678
817.7168	506.4287	65535	64684.15
817.861	508.5839	65535	64679.7
818.0051	510.7386	65535	64682.8
818.1493	512.8927	65535	64679.3
818.2935	515.0461	65535	64678.45
818.4377	517.199	65535	64677.5
818.5818	519.3512	65535	64677.45
818.726	521.5029	65535	64668.95
818.8703	523.6539	65535	64676.8
819.0145	525.8043	65535	64675.65
819.1587	527.9541	65535	64675.7
819.303	530.1033	65535	64671.05
819.4472	532.2519	65535	64673.9
819.5915	534.3999	65535	64669.7
819.7357	536.5472	65535	64670.5
819.88	538.694	65535	64670.55
820.0243	540.8401	65535	64669.15
820.1686	542.9856	65535	64666.5
820.3129	545.1305	65535	64664.95
820.4572	547.2748	65535	64662.05
820.6016	549.4185	65535	64662.95
820.7459	551.5615	65535	64665.35
820.8902	553.704	65535	64665.1
821.0346	555.8458	65535	64665.95
821.1789	557.987	65535	64668.4
821.3233	560.1276	65535	64667.9
821.4677	562.2675	65535	64668.3
821.6121	564.4069	65535	64668.9
821.7565	566.5456	65535	64666.95
821.9009	568.6837	65535	64665.1
822.0453	570.8212	65535	64667.6
822.1897	572.958	65535	64663.7
822.3342	575.0942	65535	64668.75
822.4786	577.2299	65535	64670.9
822.6231	579.3648	65535	64668.25
822.7675	581.4992	65535	64673.15
822.912	583.6329	65535	64670.3
823.0565	585.766	65535	64673.05
823.201	587.8985	65535	64669.85
823.3454	590.0304	65535	64642.9
823.4899	592.1616	65535	64663.8
823.6345	594.2922	65535	64663.45
823.779	596.4222	65535	64661.3
823.9235	598.5515	65535	64660.5
824.068	600.6802	65535	64660.7
824.2126	602.8083	65535	64661.4
824.3571	604.9358	65535	64663.15
824.5017	607.0626	65535	64658.45
824.6462	609.1888	65535	64659.7
824.7908	611.3144	65535	64658.2
824.9354	613.4393	65535	64660.4
825.08	615.5636	65535	64657.85
825.2246	617.6873	65535	64662
825.3692	619.8103	65535	64656.35
825.5138	621.9327	65535	64654.3
825.6584	624.0544	65535	64657.95
825.803	626.1756	65535	64659.65
825.9477	628.2961	65535	64655
826.0923	630.4159	65535	64655.8
826.237	632.5351	65535	64655.55
826.3816	634.6537	65535	64652.9
826.5263	636.7716	65535	64654.85
826.6709	638.8889	65535	64654.3
826.8156	641.0056	65535	64656.45
826.9603	643.1216	65535	64653.55
827.105	645.237	65535	64652.65
827.2497	647.3518	65535	64656.25
827.3944	649.4659	65535	64654.65
827.5391	651.5793	65535	64653.9
827.6838	653.6922	65535	64655.9
827.8285	655.8043	65535	64653.15
827.9733	657.9159	65535	64651.3
828.118	660.0268	65535	64649.25
828.2627	662.137	65535	64654.05
828.4075	664.2466	65535	64649.45
828.5522	666.3556	65535	64652.45
828.697	668.4639	65535	64649.25
828.8418	670.5716	65535	64651.15
828.9865	672.6786	65535	64650.15
829.1313	674.785	65535	64648.85
829.2761	676.8907	65535	64651.85
829.4209	678.9958	65535	64651.8
829.5657	681.1002	65535	64649.95
829.7105	683.204	65535	64644.4
829.8553	685.3072	65535	64648.5
830.0001	687.4097	65535	64647.8
830.1449	689.5115	65535	64647.75
830.2898	691.6127	65535	64649.3
830.4346	693.7132	65535	64648.85
830.5794	695.8131	65535	64624.6
830.7243	697.9123	65535	64645.6
830.8691	700.0109	65535	64646.15
831.014	702.1089	65535	64650.35
831.1588	704.2061	65535	64650.2
831.3037	706.3028	65535	64646.6
831.4486	708.3987	65535	64644.75
831.5935	710.4941	65535	64645.75
831.7383	712.5887	65535	64643.65
831.8832	714.6827	65535	64640.4
832.0281	716.7761	65535	64645
832.173	718.8688	65535	64641.85
832.3179	720.9608	65535	64642.8
832.4628	723.0522	65535	64641.55
832.6077	725.1429	65535	64643.8
832.7527	727.233	65535	64643.9
832.8976	729.3224	65535	64640.75
833.0425	731.4112	65535	64643.65
833.1874	733.4993	65535	64639.9
833.3324	735.5867	65535	64642.6
833.4773	737.6735	65535	64642.55
833.6222	739.7596	65535	64642.7
833.7672	741.845	65535	64641.65
833.9122	743.9298	65535	64638.2
834.0571	746.014	65535	64642.2
834.2021	748.0974	65535	64641.45
834.347	750.1802	65535	64639.8
834.492	752.2624	65535	64640.7
834.637	754.3439	65535	64639.6
834.782	756.4247	65535	64634.25
834.9269	758.5048	65535	64639.8
835.0719	760.5843	65535	64643.5
835.2169	762.6631	65535	64640.8
835.3619	764.7413	65535	64642.25
835.5069	766.8188	65535	64640.75
835.6519	768.8956	65535	64637.1
835.7969	770.9718	65535	64641.1
835.9419	773.0473	65535	64642.4
836.0869	775.1221	65535	64644.35
836.232	777.1962	65535	64640.55
836.377	779.2697	65535	64638.5
836.522	781.3426	65535	64622.35
836.667	783.4147	65535	64637.25
836.8121	785.4862	65535	64642.9
836.9571	787.557	65535	64638.2
837.1021	789.6271	65535	64637.8
837.2472	791.6966	65535	64641.9
837.3922	793.7654	65535	64637
837.5373	795.8335	65535	64639.25
837.6823	797.901	65535	64639.4
837.8274	799.9678	65535	64635.95
837.9724	802.0339	65535	64638.5
838.1175	804.0993	65535	64627.7
838.2626	806.1641	65535	64635
838.4076	808.2282	65535	64636.5
838.5527	810.2916	65535	64636.1
838.6978	812.3544	65535	64640.9
838.8428	814.4164	65535	64638.3
838.9879	816.4778	65535	64637.95
839.133	818.5385	65535	64637.25
839.2781	820.5986	65535	64637
839.4232	822.658	65535	64636.85
839.5682	824.7166	65535	64637.35
839.7133	826.7747	65535	64638.3
839.8584	828.832	65535	64636.65
840.0035	830.8886	65535	64633.8
840.1486	832.9446	65535	64634.95
840.2937	834.9999	65535	64638.05
840.4388	837.0545	65535	64631.85
840.5839	839.1085	65535	64635.95
840.729	841.1618	65535	64633
840.8741	843.2143	65535	64638.25
841.0192	845.2662	65535	64636.3
841.1643	847.3175	65535	64638.25
841.3095	849.368	65535	64637.45
841.4546	851.4179	65535	64634.4
841.5997	853.467	65535	64639.6
841.7448	855.5155	65535	64636.85
841.8899	857.5633	65535	64636.15
842.0351	859.6105	65535	64635.8
842.1802	861.6569	65535	64636.1
842.3253	863.7027	65535	64635.3
842.4704	865.7478	65535	64634.1
842.6156	867.7922	65535	64636.25
842.7607	869.8359	65535	64630.9
842.9058	871.8789	65535	64634.6
843.0509	873.9212	65535	64598.5
843.1961	875.9629	65535	64632.85
843.3412	878.0039	65535	64634.85
843.4863	880.0441	65535	64635.15
843.6315	882.0837	65535	64636.25
843.7766	884.1226	65535	64635.5
843.9218	886.1609	65535	64636.45
844.0669	888.1984	65535	64634.45
844.212	890.2352	65535	64635.65
844.3572	892.2714	65535	64629.85
844.5023	894.3069	65535	64633.25
844.6475	896.3416	65535	64632.25
844.7926	898.3757	65535	64633.65
844.9377	900.4091	65535	64632.8
845.0829	902.4418	65535	64627.7
845.228	904.4739	65535	64630.1
845.3732	906.5052	65535	64631
845.5183	908.5358	65535	64632.75
845.6635	910.5658	65535	64631.5
845.8086	912.595	65535	64635
845.9538	914.6236	65535	64634.7
846.0989	916.6515	65535	64634.3
846.2441	918.6786	65535	64631
846.3892	920.7051	65535	64630.15
846.5344	922.7309	65535	64634.35
846.6795	924.756	65535	64633.7
846.8246	926.7804	65535	64631.8
846.9698	928.8041	65535	64629.05
847.1149	930.8272	65535	64634.55
847.2601	932.8495	65535	64631.1
847.4052	934.8711	65535	64632.25
847.5504	936.892	65535	64633.35
847.6955	938.9123	65535	64630.65
847.8407	940.9318	65535	64631.75
847.9858	942.9506	65535	64628.6
848.131	944.9688	65535	64633.45
848.2761	946.9862	65535	64631.25
848.4213	949.003	65535	64632.45
848.5664	951.019	65535	64631.9
848.7115	953.0344	65535	64632.15
848.8567	955.0491	65535	64633.75
849.0018	957.063	65535	64633.1
849.147	959.0763	65535	64634.65
849.2921	961.0888	65535	64629.55
849.4373	963.1007	65535	64634.6
849.5824	965.1119	65535	64632.2
849.7275	967.1223	65535	64631.4
849.8727	969.1321	65535	64634.35
850.0178	971.1412	65535	64632.6
850.1629	973.1495	65535	64634.7
850.3081	975.1572	65535	64600.05
850.4532	977.1641	65535	64632.9
850.5983	979.1704	65535	64632.9
850.7435	981.1759	65535	64628.15
850.8886	983.1808	65535	64631
851.0337	985.1849	65535	64620.65
851.1788	987.1884	65535	64628.25
851.324	989.1911	65535	64631.3
851.4691	991.1932	65535	64631.5
851.6142	993.1945	65535	64632.2
851.7593	995.1951	65535	64630.25
851.9045	997.1951	65535	64627.55
852.0496	999.1943	65535	64630
852.1947	1001.1928	65535	64629.05
852.3398	1003.1906	65535	64635.35
852.4849	1005.1877	65535	64629.55
852.63	1007.1841	65535	64631.35
852.7751	1009.1798	65535	64631.9
852.9202	1011.1748	65535	64632.85
853.0653	1013.1691	65535	64630.75
853.2104	1015.1627	65535	64631.35
853.3555	1017.1556	65535	64635.15
853.5006	1019.1477	65535	64630.8
853.6457	1021.1392	65535	64631.65
853.7908	1023.1299	65535	64630.75
853.9359	1025.12	65535	64631.35
854.081	1027.1093	65535	64635.45
854.2261	1029.0979	65535	64637.9
854.3712	1031.0859	65535	64637.15
854.5163	1033.0731	65535	64634.1
854.6613	1035.0596	65535	64634.9
854.8064	1037.0454	65535	64633.55
854.9515	1039.0304	65535	64630.05
855.0965	1041.0148	65535	64633.05
855.2416	1042.9985	65535	64632.8
855.3867	1044.9814	65535	64630.1
855.5317	1046.9636	65535	64630.2
855.6768	1048.9452	65535	64631.65
855.8219	1050.926	65535	64635.8
855.9669	1052.9061	65535	64634.45
856.112	1054.8855	65535	64632.2
856.257	1056.8642	65535	64631
856.4021	1058.8421	65535	64626.1
856.5471	1060.8194	65535	64631.8
856.6921	1062.7959	65535	64632.9
856.8372	1064.7717	65535	64631.15
856.9822	1066.7469	65535	64631
857.1272	1068.7213	65535	64628.4
857.2723	1070.695	65535	64632.7
857.4173	1072.6679	65535	64631.2
857.5623	1074.6402	65535	64631.55
857.7073	1076.6117	65535	64626.8
857.8523	1078.5826	65535	64629.35
857.9973	1080.5527	65535	64630.45
858.1423	1082.5221	65535	64633.8
858.2873	1084.4908	65535	64635.4
858.4323	1086.4587	65535	64631.1
858.5773	1088.426	65535	64629.8
858.7223	1090.3925	65535	64627.85
858.8673	1092.3584	65535	64631.55
859.0123	1094.3235	65535	64632.2
859.1573	1096.2879	65535	64631.9
859.3022	1098.2515	65535	64632
859.4472	1100.2145	65535	64630.15
859.5922	1102.1767	65535	64631.9
859.7371	1104.1382	65535	64630.95
859.8821	1106.099	65535	64631
860.027	1108.0591	65535	64631.2
860.172	1110.0185	65535	64630.15
860.3169	1111.9771	65535	64632.1
860.4619	1113.9351	65535	64631.5
860.6068	1115.8923	65535	64632.7
860.7517	1117.8488	65535	64630.1
860.8967	1119.8045	65535	64632.35
861.0416	1121.7596	65535	64633.05
861.1865	1123.7139	65535	64635.3
861.3314	1125.6675	65535	64633.35
861.4763	1127.6204	65535	64631.35
861.6212	1129.5726	65535	64629.25
861.7661	1131.524	65535	64634.35
861.911	1133.4748	65535	64632.65
862.0559	1135.4248	65535	64632
862.2008	1137.3741	65535	64631.4
862.3457	1139.3226	65535	64629.8
862.4905	1141.2705	65535	64629.95
862.6354	1143.2176	65535	64624.55
862.7803	1145.164	65535	64631.45
862.9251	1147.1097	65535	64631.1
863.07	1149.0546	65535	64630.6
863.2148	1150.9989	65535	64632.95
863.3597	1152.9424	65535	64630.7
863.5045	1154.8852	65535	64634.4
863.6493	1156.8272	65535	64632
863.7942	1158.7686	65535	64622.6
863.939	1160.7092	65535	64631.75
864.0838	1162.6491	65535	64630.4
864.2286	1164.5883	65535	64632.75
864.3734	1166.5267	65535	64631.9
864.5182	1168.4644	65535	64631.7
864.663	1170.4014	65535	64628.65
864.8078	1172.3377	65535	64636.05
864.9526	1174.2732	65535	64634.5
865.0974	1176.2081	65535	64633.8
865.2421	1178.1421	65535	64628.95
865.3869	1180.0755	65535	64633.5
865.5317	1182.0082	65535	64631.45
865.6764	1183.9401	65535	64633.3
865.8212	1185.8713	65535	64633.9
865.9659	1187.8017	65535	64634.1
866.1106	1189.7315	65535	64637.85
866.2554	1191.6605	65535	64608.25
866.4001	1193.5888	65535	64634.65
866.5448	1195.5163	65535	64635.95
866.6895	1197.4432	65535	64630.85
866.8342	1199.3693	65535	64633.9
866.9789	1201.2947	65535	64630.35
867.1236	1203.2193	65535	64634
867.2683	1205.1432	65535	64630.85
867.413	1207.0664	65535	64633.8
867.5576	1208.9889	65535	64631.25
867.7023	1210.9106	65535	64632.45
867.847	1212.8316	65535	64633.15
867.9916	1214.7519	65535	64624.35
868.1363	1216.6715	65535	64633.6
868.2809	1218.5903	65535	64635.15
868.4255	1220.5084	65535	64634.05
868.5701	1222.4257	65535	64635.05
868.7148	1224.3424	65535	64633.45
868.8594	1226.2583	65535	64630.8
869.004	1228.1735	65535	64631.25
869.1486	1230.0879	65535	64631.9
869.2932	1232.0016	65535	64631.6
869.4377	1233.9146	65535	64629
869.5823	1235.8269	65535	64634.2
869.7269	1237.7384	65535	64633.85
869.8715	1239.6492	65535	64634.1
870.016	1241.5592	65535	64632.05
870.1606	1243.4686	65535	64632.7
870.3051	1245.3772	65535	64633.3
870.4496	1247.285	65535	64632.75
870.5941	1249.1922	65535	64632.8
870.7387	1251.0986	65535	64633.2
870.8832	1253.0042	65535	64635.55
871.0277	1254.9092	65535	64632.45
871.1722	1256.8134	65535	64635
871.3167	1258.7169	65535	64632.25
871.4611	1260.6196	65535	64634.55
871.6056	1262.5216	65535	64633.95
871.7501	1264.4229	65535	64633.45
871.8945	1266.3234	65535	64635.95
872.039	1268.2232	65535	64630.7
872.1834	1270.1223	65535	64629.25
872.3278	1272.0207	65535	64632.1
872.4723	1273.9183	65535	64628.4
872.6167	1275.8151	65535	64635.6
872.7611	1277.7113	65535	64632.3
872.9055	1279.6067	65535	64634.8
873.0499	1281.5014	65535	64632.8
873.1943	1283.3953	65535	64629.8
873.3386	1285.2885	65535	64634.3
873.483	1287.181	65535	64631.8
873.6274	1289.0727	65535	64635
873.7717	1290.9637	65535	64634.9
873.9161	1292.854	65535	64634.6
874.0604	1294.7435	65535	64633.45
874.2047	1296.6323	65535	64631.85
874.349	1298.5204	65535	64629.6
874.4933	1300.4077	65535	64632.1
874.6376	1302.2943	65535	64635.55
874.7819	1304.1802	65535	64633.6
874.9262	1306.0653	65535	64630.05
875.0705	1307.9497	65535	64633.05
875.2147	1309.8333	65535	64635.15
875.359	1311.7162	65535	64633.5
875.5032	1313.5984	65535	64630.2
875.6475	1315.4798	65535	64624.15
875.7917	1317.3605	65535	64616.7
875.9359	1319.2405	65535	64632.55
876.0801	1321.1197	65535	64631.5
876.2243	1322.9982	65535	64628.85
876.3685	1324.876	65535	64636.1
876.5127	1326.753	65535	64632.45
876.6569	1328.6293	65535	64634
876.801	1330.5048	65535	64633.15
876.9452	1332.3796	65535	64633.75
877.0893	1334.2537	65535	64607.55
877.2335	1336.127	65535	64632.8
877.3776	1337.9996	65535	64633.75
877.5217	1339.8714	65535	64633.2
877.6658	1341.7426	65535	64589.35
877.8099	1343.6129	65535	64633.4
877.954	1345.4826	65535	64634.75
878.0981	1347.3515	65535	64631.95
878.2422	1349.2196	65535	64632.35
878.3862	1351.087	65535	64635.05
878.5303	1352.9537	65535	64633.1
878.6743	1354.8197	65535	64635.2
878.8184	1356.6849	65535	64636
878.9624	1358.5493	65535	64631.25
879.1064	1360.4131	65535	64635.2
879.2504	1362.276	65535	64633.3
879.3944	1364.1383	65535	64632.2
879.5384	1365.9998	65535	64627.75
879.6823	1367.8606	65535	64632.05
879.8263	1369.7206	65535	64631.4
879.9702	1371.5799	65535	64632.35
880.1142	1373.4384	65535	64631.9
880.2581	1375.2962	65535	64630.9
880.402	1377.1533	65535	64634.15
880.5459	1379.0096	65535	64633.5
880.6898	1380.8652	65535	64633.05
880.8337	1382.7201	65535	64633.9
880.9776	1384.5742	65535	64633.4
881.1215	1386.4275	65535	64631.85
881.2653	1388.2802	65535	64634.4
881.4092	1390.132	65535	64632.8
881.553	1391.9832	65535	64632.9
881.6968	1393.8336	65535	64634.05
881.8406	1395.6832	65535	64631.5
881.9844	1397.5322	65535	64634.05
882.1282	1399.3803	65535	64630
882.272	1401.2278	65535	64632.65
882.4158	1403.0745	65535	64634.3
882.5595	1404.9204	65535	64635.15
882.7033	1406.7656	65535	64631.45
882.847	1408.6101	65535	64634.6
882.9908	1410.4538	65535	64634.65
883.1345	1412.2968	65535	64635.45
883.2782	1414.139	65535	64635.7
883.4219	1415.9805	65535	64632.1
883.5656	1417.8213	65535	64627.2
883.7092	1419.6613	65535	64634.7
883.8529	1421.5006	65535	64632.7
883.9965	1423.3391	65535	64633
884.1402	1425.1769	65535	64633.55
884.2838	1427.0139	65535	64632.85
884.4274	1428.8502	65535	64633.4
884.571	1430.6858	65535	64635.95
884.7146	1432.5206	65535	64634.1
884.8582	1434.3547	65535	64633.85
885.0018	1436.188	65535	64634.5
885.1453	1438.0206	65535	64634.35
885.2889	1439.8524	65535	64635.7
885.4324	1441.6835	65535	64632.5
885.5759	1443.5139	65535	64630.7
885.7194	1445.3435	65535	64633.55
885.8629	1447.1724	65535	64635.6
886.0064	1449.0005	65535	64634.55
886.1499	1450.8279	65535	64634.5
886.2933	1452.6545	65535	64636.85
886.4368	1454.4804	65535	64634.6
886.5802	1456.3056	65535	64628.4
886.7237	1458.13	65535	64634.15
886.8671	1459.9536	65535	64634.15
887.0105	1461.7766	65535	64636.75
887.1539	1463.5987	65535	64631.35
887.2972	1465.4202	65535	64634
887.4406	1467.2409	65535	64632.65
887.584	1469.0608	65535	64635.15
887.7273	1470.88	65535	64635.6
887.8706	1472.6984	65535	64634.8
888.0139	1474.5161	65535	64630.85
888.1572	1476.3331	65535	64636.45
888.3005	1478.1493	65535	64633.85
888.4438	1479.9648	65535	64634.2
888.5871	1481.7795	65535	64635.15
888.7303	1483.5935	65535	64636.75
888.8736	1485.4067	65535	64634.7
889.0168	1487.2192	65535	64635.8
889.16	1489.031	65535	64633.15
889.3032	1490.842	65535	64634.05
889.4464	1492.6522	65535	64633.95
889.5896	1494.4618	65535	64634.15
889.7327	1496.2705	65535	64635.55
889.8759	1498.0785	65535	64633.85
890.019	1499.8858	65535	64633.9
890.1622	1501.6924	65535	64637.4
890.3053	1503.4981	65535	64635.55
890.4484	1505.3032	65535	64636.1
890.5914	1507.1075	65535	64633.75
890.7345	1508.911	65535	64636.4
890.8776	1510.7138	65535	64634.6
891.0206	1512.5159	65535	64636.35
891.1637	1514.3172	65535	64635.15
891.3067	1516.1178	65535	64635.85
891.4497	1517.9176	65535	64632.55
891.5927	1519.7166	65535	64635.5
891.7357	1521.515	65535	64628.05
891.8786	1523.3126	65535	64634.05
892.0216	1525.1094	65535	64632.05
892.1645	1526.9055	65535	64637.85
892.3074	1528.7008	65535	64637.75
892.4503	1530.4954	65535	64632.9
892.5932	1532.2893	65535	64637
892.7361	1534.0824	65535	64633.45
892.879	1535.8747	65535	64636.55
893.0218	1537.6663	65535	64637.45
893.1647	1539.4572	65527.1	64627.05
893.3075	1541.2473	65535	64636.6
893.4503	1543.0367	65535	64638.15
893.5931	1544.8253	65535	64634.5
893.7359	1546.6132	65535	64633.75
893.8787	1548.4003	65534.55	64626.95
894.0214	1550.1867	65531.25	64625.8
894.1642	1551.9723	65528.85	64625.85
894.3069	1553.7572	65527.7	64629.8
894.4496	1555.5414	65535	64638.05
894.5923	1557.3247	65460.6	64563.3
894.735	1559.1074	65534.8	64638.35
894.8777	1560.8893	65522.2	64625.65
895.0204	1562.6705	65526.8	64629.2
895.163	1564.4509	65483.7	64586.1
895.3056	1566.2305	65516.3	64620.2
895.4482	1568.0094	65528.1	64632.05
895.5908	1569.7876	65518.3	64621.55
895.7334	1571.565	65477	64580.6
895.876	1573.3417	65494.1	64598
896.0186	1575.1176	65487.9	64590.2
896.1611	1576.8928	65466.7	64570.95
896.3036	1578.6672	65396	64501.8
896.4461	1580.4409	65470.75	64575.15
896.5886	1582.2138	65359.2	64462.35
896.7311	1583.986	65415.8	64518.8
896.8736	1585.7575	65338.6	64442.95
897.0161	1587.5282	65394.25	64501.2
897.1585	1589.2981	65405.35	64511.5
897.3009	1591.0673	65332	64436.95
897.4433	1592.8358	65259.5	64364.65
897.5857	1594.6035	65342.65	64443.95
897.7281	1596.3704	65359.4	64461.2
897.8705	1598.1366	65206.9	64310.45
898.0128	1599.9021	65133.1	64238.55
898.1551	1601.6668	65289.45	64390
898.2975	1603.4308	65225.6	64328.95
898.4398	1605.194	65215.2	64315.3
898.5821	1606.9564	65064.65	64169.25
898.7243	1608.7182	65162.1	64265.65
898.8666	1610.4791	65085.55	64191.9
899.0088	1612.2394	65158.5	64263.85
899.1511	1613.9988	65033.55	64139.85
899.2933	1615.7576	65163.7	64269.05
899.4355	1617.5156	65144.85	64244.65
899.5776	1619.2728	65264.45	64366.5
899.7198	1621.0293	65040.05	64146.45
899.862	1622.785	65033.5	64136.45
900.0041	1624.54	65106.05	64211.35
900.1462	1626.2942	64993.9	64099.65
900.2883	1628.0477	64871.5	63977.55
900.4304	1629.8005	64780.25	63881.7
900.5725	1631.5525	64914	64019.2
900.7145	1633.3037	64755.35	63861.1
900.8566	1635.0542	64728.05	63833.95
900.9986	1636.804	64806.7	63910.3
901.1406	1638.553	64638.35	63660.7
901.2826	1640.3013	64713.25	63820.8
901.4245	1642.0488	64607.25	63711.3
901.5665	1643.7955	64682.55	63788.8
901.7085	1645.5416	64643.65	63750.75
901.8504	1647.2868	64554.7	63659.85
901.9923	1649.0313	64666.75	63773.85
902.1342	1650.7751	64601.4	63703.05
902.2761	1652.5181	64521.1	63627.2
902.4179	1654.2604	64518.75	63625.2
902.5598	1656.0019	64577.6	63684.2
902.7016	1657.7427	64535.55	63640.5
902.8434	1659.4828	64600.9	63706.5
902.9852	1661.222	64523.7	63629
903.127	1662.9606	64580.1	63687.85
903.2687	1664.6984	64477.75	63583.35
903.4105	1666.4354	64505.15	63611.15
903.5522	1668.1717	64362.75	63469
903.6939	1669.9072	64240.5	63343.85
903.8356	1671.642	64206.45	63311.85
903.9773	1673.3761	64185.25	63290.55
904.119	1675.1094	64148.25	63257.25
904.2606	1676.8419	64023.4	63130.35
904.4022	1678.5737	64057.75	63165.25
904.5439	1680.3048	63985.95	63091.55
904.6855	1682.0351	63912.45	63018.9
904.827	1683.7646	63859.8	62963.55
904.9686	1685.4934	63912.4	63019.05
905.1101	1687.2215	63667.75	62773.35
905.2517	1688.9488	63801.35	62907.65
905.3932	1690.6754	63459.25	62566
905.5347	1692.4012	63624.35	62732.1
905.6761	1694.1263	63644.35	62750.95
905.8176	1695.8506	63480.75	62585.1
905.9591	1697.5742	63528.65	62636.7
906.1005	1699.297	63453.8	62560.35
906.2419	1701.0191	63438.7	62547.05
906.3833	1702.7404	63217.85	62325.7
906.5246	1704.461	63111.15	62216.85
906.666	1706.1808	63278.35	62382.9
906.8073	1707.8999	63141.3	62247.85
906.9487	1709.6182	63095.6	62203.65
907.09	1711.3358	63056.8	62164.95
907.2313	1713.0527	62987.3	62097.8
907.3725	1714.7688	63041	62144.4
907.5138	1716.4841	62739.7	61843.85
907.655	1718.1987	62832.45	61934.6
907.7962	1719.9126	62760.95	61869.65
907.9374	1721.6257	62773.95	61879.85
908.0786	1723.338	62767.4	61877.05
908.2198	1725.0496	62411.2	61518.25
908.3609	1726.7605	62443.4	61546.7
908.502	1728.4706	62320.25	61427.7
908.6431	1730.18	62455.4	61560.55
908.7842	1731.8886	62302.9	61411.5
908.9253	1733.5964	62174.8	61277.95
909.0664	1735.3036	62336.8	61442.1
909.2074	1737.0099	62207.8	61316.25
909.3484	1738.7156	62035.8	61145.1
909.4894	1740.4204	61994	61099.85
909.6304	1742.1246	62028.05	61134.35
909.7714	1743.8279	62039.95	61148.45
909.9123	1745.5306	62019.55	61127.65
910.0532	1747.2325	61679.25	60785.8
910.1941	1748.9336	61658.25	60765.9
910.335	1750.634	61729.95	60836
910.4759	1752.3336	61823.9	60930.75
910.6168	1754.0325	61611.75	60722.3
910.7576	1755.7307	61768.6	60877.05
910.8984	1757.4281	61501.25	60608.35
911.0392	1759.1247	61667.75	60768.15
911.18	1760.8206	61365.65	60467.05
911.3208	1762.5158	61409.5	60515.25
911.4615	1764.2102	61422.9	60532.15
911.6022	1765.9039	61330.35	60437.15
911.7429	1767.5968	61291.65	60403.85
911.8836	1769.289	61206.1	60316.3
912.0243	1770.9804	61219.6	60327.65
912.1649	1772.6711	61170.85	60278.95
912.3056	1774.361	61105.9	60213.05
912.4462	1776.0502	61104.25	60210.95
912.5868	1777.7386	60809.2	59913.7
912.7274	1779.4263	60944.7	60053.8
912.8679	1781.1132	60913.8	60023.5
913.0084	1782.7994	60833.7	59942.35
913.149	1784.4849	60881.1	59991.9
913.2895	1786.1696	60355.15	59457.3
913.4299	1787.8535	60677.85	59787.45
913.5704	1789.5367	60677.75	59785.55
913.7108	1791.2192	60332.5	59441
913.8513	1792.9009	60081.6	59160.5
913.9917	1794.5818	60400.55	59506.95
914.132	1796.2621	60107.6	59216.35
914.2724	1797.9415	60111.15	59220.5
914.4128	1799.6202	60071	59180.65
914.5531	1801.2982	59991	59100.1
914.6934	1802.9755	59663.1	58771.05
914.8337	1804.6519	59522.6	58629.15
914.9739	1806.3277	60061.6	59170.95
915.1142	1808.0027	59134.55	58244.4
915.2544	1809.6769	59452.15	58562.25
915.3946	1811.3504	59510	58618.85
915.5348	1813.0231	58864.35	57972
915.675	1814.6951	59271.4	58381.1
915.8151	1816.3664	59000.5	58108.05
915.9553	1818.0369	58997.85	58106.3
916.0954	1819.7067	58766.65	57877.55
916.2355	1821.3757	59099.45	58208.6
916.3755	1823.044	58627.65	57738
916.5156	1824.7115	58284.7	57393.2
916.6556	1826.3783	58497.05	57606.75
916.7956	1828.0443	58485.65	57594.6
916.9356	1829.7096	58257.9	57366.3
917.0756	1831.3741	57770	56876.2
917.2155	1833.0379	58068.75	57176.75
917.3555	1834.701	58014.2	57121.45
917.4954	1836.3633	57675	56782.35
917.6353	1838.0248	57828.95	56935.85
917.7751	1839.6856	57715.5	56824.7
917.915	1841.3457	57299.65	56410.3
918.0548	1843.005	57776.2	56884.05
918.1946	1844.6636	57489.7	56598.75
918.3344	1846.3214	56874.15	55982.65
918.4742	1847.9785	57016.85	56124.65
918.6139	1849.6349	56936.7	56043.1
918.7537	1851.2904	57410	56508.3
918.8934	1852.9453	56656	55764.25
919.0331	1854.5994	56993	56101.15
919.1727	1856.2528	56898.3	56002.45
919.3124	1857.9054	56421.3	55529.1
919.452	1859.5572	56255.6	55364.4
919.5916	1861.2083	56448.95	55556.6
919.7312	1862.8587	56887.2	55995.85
919.8708	1864.5084	55641.9	54748.9
920.0103	1866.1572	56151.7	55259.55
920.1498	1867.8054	55467.85	54576.1
920.2893	1869.4528	55837.1	54948.85
920.4288	1871.0994	55362.25	54469.65
920.5683	1872.7453	55260.3	54366.8
920.7077	1874.3905	55547.75	54648.75
920.8471	1876.0349	54984.45	54092.45
920.9865	1877.6786	55335.25	54443.85
921.1259	1879.3215	54841	53949.5
921.2653	1880.9637	55367.15	54474.05
921.4046	1882.6051	54793.2	53903.05
921.5439	1884.2458	54547.7	53653.6
921.6832	1885.8858	54237.1	53346.2
921.8225	1887.525	54498.8	53605.6
921.9617	1889.1634	54338.35	53447.4
922.101	1890.8011	54018.45	53126.1
922.2402	1892.4381	53475.75	52583.8
922.3794	1894.0743	54108.7	53217.45
922.5185	1895.7098	53646.9	52755.15
922.6577	1897.3446	53274.6	52381.85
922.7968	1898.9786	53414.55	52519.9
922.9359	1900.6118	53122.2	52231.3
923.075	1902.2443	52843.25	51949.3
923.214	1903.8761	53163.95	52273
923.3531	1905.5071	52713.15	51824.3
923.4921	1907.1374	52001.3	51108.65
923.6311	1908.7669	52271.75	51380.4
923.77	1910.3957	52521.2	51630.35
923.909	1912.0237	51895.65	51004.35
924.0479	1913.651	51653.2	50760.75
924.1868	1915.2776	51535.25	50647.25
924.3257	1916.9034	51553.1	50661.95
924.4646	1918.5285	51218.7	50327.65
924.6034	1920.1528	51287.5	50396.6
924.7422	1921.7764	51065.15	50175
924.881	1923.3992	50869	49978.8
925.0198	1925.0213	50540.3	49648.85
925.1586	1926.6427	50133.75	49244.4
925.2973	1928.2633	50296.3	49325
925.436	1929.8832	50150.75	49259.15
925.5747	1931.5023	49926.65	49036.6
925.7134	1933.1207	49510.1	48620.45
925.852	1934.7383	49723.15	48832.45
925.9906	1936.3552	49393.75	48504.95
926.1292	1937.9714	49326.35	48437.8
926.2678	1939.5868	49241.9	48349.1
926.4064	1941.2015	48817.95	47925
926.5449	1942.8154	48527.95	47636.25
926.6834	1944.4286	48553.65	47661.2
926.8219	1946.041	48471.2	47562.35
926.9604	1947.6528	48159.5	47262.95
927.0988	1949.2637	48021.55	47131.25
927.2372	1950.8739	47765.25	46875.5
927.3756	1952.4834	47856.15	46965.95
927.514	1954.0921	47698.3	46807.8
927.6523	1955.7001	47361.1	46465.5
927.7907	1957.3074	47394.2	46503.8
927.929	1958.9139	46999.7	46110.25
928.0673	1960.5197	47025.45	46133.6
928.2055	1962.1247	46830.8	45940.95
928.3438	1963.729	46621.9	45734.1
928.482	1965.3325	46397.2	45484.3
928.6202	1966.9353	46376.35	45486.55
928.7584	1968.5374	46034.6	45144.65
928.8965	1970.1387	45925.8	45034.3
929.0346	1971.7393	45807.55	44917.5
929.1727	1973.3392	45664	44773.7
929.3108	1974.9383	45386.75	44497.6
929.4489	1976.5366	45195.15	44304.3
929.5869	1978.1342	45231.5	44340.95
929.7249	1979.7311	45105.05	44214.2
929.8629	1981.3273	44964.65	44073.95
930.0009	1982.9227	44780.65	43888.75
930.1388	1984.5173	44697.7	43808.3
930.2767	1986.1112	44456.45	43566.65
930.4146	1987.7044	44481.3	43592.4
930.5525	1989.2968	44097.85	43207.45
930.6904	1990.8885	44165.9	43272.5
930.8282	1992.4795	43998.65	43107.95
930.966	1994.0697	43826.05	42937.3
931.1038	1995.6592	43692.3	42803.3
931.2415	1997.2479	43529.5	42639.85
931.3793	1998.8359	43389.4	42499.7
931.517	2000.4232	43219.1	42330.2
931.6547	2002.0097	43146.9	42257.9
931.7923	2003.5955	42922	42032.4
931.93	2005.1805	42851.95	41960.5
932.0676	2006.7648	42757.9	41870.2
932.2052	2008.3484	42627.4	41738.7
932.3427	2009.9312	42609.4	41719.4
932.4803	2011.5133	42458.85	41570.9
932.6178	2013.0946	42309.7	41424.45
932.7553	2014.6752	42200.75	41316.1
932.8928	2016.2551	42103.8	41214.35
933.0302	2017.8342	41889.35	41000.65
933.1676	2019.4126	41737.65	40851.05
933.305	2020.9902	41537.6	40647.9
933.4424	2022.5672	41496.5	40606.65
933.5798	2024.1433	41396.6	40502.25
933.7171	2025.7188	41208.1	40321.1
933.8544	2027.2935	41081.6	40194.35
933.9917	2028.8674	40932.7	40043.95
934.129	2030.4406	40839.3	39950.05
934.2662	2032.0131	40635.9	39747.7
934.4034	2033.5849	40520.8	39626.85
934.5406	2035.1559	40425.75	39536.8
934.6778	2036.7261	40399	39509.95
934.8149	2038.2957	40223.4	39334.9
934.952	2039.8645	40183.75	39295
935.0891	2041.4325	40159.65	39266.85
935.2262	2042.9998	39955.65	39069.2
935.3632	2044.5664	39861.85	38971.05
935.5002	2046.1323	39768.25	38881.1
935.6372	2047.6974	39591.5	38705.75
935.7742	2049.2617	39516	38626
935.9111	2050.8254	39534.3	38640.2
936.048	2052.3883	39365.6	38475.85
936.1849	2053.9504	39243.55	38355
936.3218	2055.5118	39115.55	38226.3
936.4586	2057.0725	38954.1	38061.15
936.5955	2058.6325	38866.4	37979.05
936.7323	2060.1917	38720.8	37831.7
936.869	2061.7502	38623.95	37733.25
937.0058	2063.3079	38481	37592.7
937.1425	2064.8649	38354.75	37462.6
937.2792	2066.4212	38290.85	37401.25
937.4159	2067.9767	38172.2	37283.75
937.5525	2069.5315	37993.7	37104.05
937.6891	2071.0856	37795.95	36908.65
937.8257	2072.6389	37670.65	36779.85
937.9623	2074.1915	37491.05	36604.55
938.0989	2075.7433	37320.1	36429.4
938.2354	2077.2945	37254.6	36367.55
938.3719	2078.8448	37118.25	36230.05
938.5084	2080.3945	37012.2	36122.4
938.6448	2081.9434	36974.1	36084.25
938.7812	2083.4916	36842.1	35953.5
938.9176	2085.039	36684.6	35793.65
939.054	2086.5857	36604.7	35715.45
939.1903	2088.1317	36526.25	35635.25
939.3267	2089.677	36475.6	35585.75
939.463	2091.2215	36268.3	35380.2
939.5992	2092.7652	36243.85	35350.8
939.7355	2094.3083	36153.9	35264.55
939.8717	2095.8506	36034.2	35145.95
940.0079	2097.3921	36010.05	35121.7
940.1441	2098.933	35874.75	34987.35
940.2802	2100.4731	35834.95	34945.8
940.4163	2102.0124	35772.35	34877.2
940.5524	2103.5511	35611.6	34722.45
940.6885	2105.089	35549.15	34659.35
940.8245	2106.6261	35449.1	34561.35
940.9606	2108.1626	35385.65	34493.6
941.0965	2109.6983	35317.2	34399
941.2325	2111.2332	35148.5	34256.2
941.3684	2112.7675	35039.4	34148.1
941.5044	2114.301	34962.05	34072.1
941.6403	2115.8337	34969.85	34078.1
941.7761	2117.3657	34810.45	33921.1
941.912	2118.897	34715.95	33825.8
942.0478	2120.4276	34571.6	33675.15
942.1835	2121.9575	34438.9	33548.7
942.3193	2123.4866	34458.7	33555.75
942.455	2125.0149	34290.6	33397.9
942.5907	2126.5426	34103.25	33215.3
942.7264	2128.0695	34040.9	33147.6
942.8621	2129.5956	33990.05	33101.7
942.9977	2131.1211	33885.5	32992.1
943.1333	2132.6458	33793.15	32904.25
943.2689	2134.1698	33642.15	32751.9
943.4044	2135.693	33611.3	32719.6
943.54	2137.2155	33514.4	32621.15
943.6755	2138.7373	33463.55	32572.95
943.8109	2140.2584	33333.8	32446.15
943.9464	2141.7787	33203.3	32307.4
944.0818	2143.2983	33028.05	32141.5
944.2172	2144.8171	32890.35	32002.85
944.3526	2146.3353	32801.8	31909.9
944.4879	2147.8527	32699.6	31812.8
944.6232	2149.3693	32698.8	31810.9
944.7585	2150.8853	32523.2	31632.1
944.8938	2152.4005	32375.7	31485.55
945.029	2153.9149	32319.95	31429.55
945.1642	2155.4287	32212.45	31321.1
945.2994	2156.9417	32198.15	31305.55
945.4346	2158.454	32064.4	31172.45
945.5697	2159.9655	31987.4	31099.65
945.7048	2161.4764	31917.4	31029
945.8399	2162.9865	31833.05	30944.05
945.9749	2164.4958	31762.25	30873.9
946.1099	2166.0045	31593.1	30699.75
946.2449	2167.5124	31603.55	30712.75
946.3799	2169.0195	31471.9	30582.55
946.5148	2170.526	31434.15	30544.05
946.6498	2172.0317	31338.85	30451.1
946.7846	2173.5367	31229.2	30339.45
946.9195	2175.0409	31138.7	30249.8
947.0543	2176.5445	31102.2	30214.1
947.1891	2178.0473	30983.35	30093.6
947.3239	2179.5494	30864.05	29971.75
947.4587	2181.0507	30764.8	29873.85
947.5934	2182.5513	30641.6	29752.95
947.7281	2184.0512	30540.9	29652.6
947.8628	2185.5504	30461.75	29571.45
947.9974	2187.0488	30280.15	29391.1
948.132	2188.5465	30179.05	29289.4
948.2666	2190.0435	30056.5	29167.25
948.4012	2191.5397	29939.75	29053.05
948.5357	2193.0353	29902.6	29015.05
948.6702	2194.5301	29713.55	28823.05
948.8047	2196.0241	29640.8	28750.6
948.9392	2197.5175	29560.7	28671.65
949.0736	2199.0101	29475.1	28582.75
949.208	2200.502	29262.75	28374.6
949.3424	2201.9931	29212.35	28324.6
949.4767	2203.4835	29109.55	28219.3
949.611	2204.9733	29046.65	28151.6
949.7453	2206.4622	29001.2	28113.65
949.8796	2207.9505	28863.15	27970.4
950.0138	2209.438	28716.15	27827.25
950.148	2210.9248	28646.15	27758.6
950.2822	2212.4109	28561.6	27671.9
950.4164	2213.8962	28431.55	27538.2
950.5505	2215.3809	28383.4	27491.8
950.6846	2216.8648	28307.65	27417.4
950.8186	2218.3479	28172.9	27278.4
950.9527	2219.8304	28070.2	27177.35
951.0867	2221.3121	27982.95	27092.55
951.2207	2222.7931	27911.55	27021.8
951.3546	2224.2733	27800.35	26908.7
951.4886	2225.7529	27689.5	26799.75
951.6225	2227.2317	27597.8	26705.4
951.7563	2228.7098	27541.85	26655.1
951.8902	2230.1872	27383.15	26496
952.024	2231.6638	27333.4	26445.75
952.1578	2233.1397	27227.4	26331.85
952.2916	2234.6149	27139.25	26251.1
952.4253	2236.0894	27070.4	26180.9
952.559	2237.5632	26987.4	26096.4
952.6927	2239.0362	26847.4	25958.65
952.8263	2240.5085	26786.1	25897.2
952.9599	2241.9801	26693.15	25804
953.0935	2243.4509	26637.35	25749.5
953.2271	2244.921	26519.5	25628.75
953.3606	2246.3904	26422.25	25529.4
953.4941	2247.8591	26329.9	25441.5
953.6276	2249.3271	26236.15	25347.55
953.7611	2250.7943	26157.1	25267.3
953.8945	2252.2608	26068.4	25180.45
954.0279	2253.7266	26008.15	25118.5
954.1612	2255.1917	25920.45	25030.9
954.2946	2256.656	25795.7	24905.75
954.4279	2258.1197	25742.05	24853.85
954.5612	2259.5826	25719.55	24829.55
954.6944	2261.0447	25666.95	24776.75
954.8276	2262.5062	25496	24603.75
954.9608	2263.9669	25464.3	24570.3
955.094	2265.4269	25432.1	24544.45
955.2271	2266.8862	25356.8	24468.9
955.3602	2268.3448	25264	24375.5
955.4933	2269.8026	25233.95	24345.45
955.6264	2271.2598	25130.3	24242.45
955.7594	2272.7162	25020.55	24131.45
955.8924	2274.1719	24921.9	24032.85
956.0253	2275.6268	24906.85	24017.05
956.1583	2277.0811	24814.75	23924.7
956.2912	2278.5346	24774.15	23884.45
956.4241	2279.9874	24694.45	23803.7
956.5569	2281.4395	24647	23760.9
956.6897	2282.8908	24480.15	23585.3
956.8225	2284.3414	24488.2	23599.15
956.9553	2285.7914	24397.75	23510.15
957.088	2287.2406	24314.25	23424.05
957.2207	2288.689	24274.2	23385.1
957.3534	2290.1368	24165.45	23273.55
957.486	2291.5838	24096.9	23205.6
957.6186	2293.0302	24050.6	23158.45
957.7512	2294.4758	23903.35	23014.65
957.8838	2295.9206	23827.8	22936.95
958.0163	2297.3648	23739.7	22851.85
958.1488	2298.8082	23736.25	22847.65
958.2813	2300.251	23641.7	22753.7
958.4137	2301.693	23560.6	22669.4
958.5461	2303.1343	23544.3	22653.45
958.6785	2304.5748	23416.9	22529.6
958.8108	2306.0147	23373.05	22482.1
958.9432	2307.4538	23289.25	22398.8
959.0754	2308.8922	23193.6	22305.2
959.2077	2310.3299	23086.6	22197.2
959.3399	2311.7669	23058	22170.3
959.4721	2313.2031	22982.45	22095
959.6043	2314.6387	22906.3	22017.7
959.7365	2316.0735	22835	21945.3
959.8686	2317.5076	22752.7	21863.15
960.0006	2318.941	22704.1	21814.15
960.1327	2320.3737	22633.55	21744.7
960.2647	2321.8056	22566.25	21672.95
960.3967	2323.2369	22458.25	21567.85
960.5287	2324.6674	22406.25	21512.9
960.6606	2326.0972	22363.25	21473.9
960.7925	2327.5263	22217.8	21329.45
960.9244	2328.9547	22191.7	21301.8
961.0562	2330.3823	22121.9	21230.65
961.1881	2331.8092	22122.6	21228.55
961.3198	2333.2355	21966.8	21077.15
961.4516	2334.661	21967.4	21079.9
961.5833	2336.0858	21941.4	21050.9
961.715	2337.5098	21797.55	20909.45
961.8467	2338.9332	21794.4	20905.25
961.9783	2340.3558	21686.65	20793.7
962.1099	2341.7778	21645.95	20755.65
962.2415	2343.199	21574.2	20684.15
962.373	2344.6195	21480.45	20593.05
962.5045	2346.0393	21453.55	20565.7
962.636	2347.4583	21383.45	20493.95
962.7675	2348.8767	21300.2	20411.2
962.8989	2350.2943	21212.75	20322.5
963.0303	2351.7113	21206.9	20317.85
963.1617	2353.1275	21121.5	20232.15
963.293	2354.543	21079.25	20180.6
963.4243	2355.9578	20966.55	20076.45
963.5556	2357.3718	20852.9	19963.7
963.6868	2358.7852	20777.75	19884.4
963.818	2360.1978	20716.55	19827.95
963.9492	2361.6098	20681.5	19791.2
964.0803	2363.021	20602.75	19711.5
964.2114	2364.4315	20512.5	19622.3
964.3425	2365.8413	20492.4	19601.25
964.4736	2367.2504	20409.75	19520.25
964.6046	2368.6587	20294	19404.55
964.7356	2370.0664	20234.15	19345.15
964.8666	2371.4733	20140.75	19252.4
964.9975	2372.8795	20080.7	19192.05
965.1284	2374.285	20022.3	19132.1
965.2593	2375.6899	19922.65	19034.25
965.3901	2377.0939	19849.55	18962.05
965.5209	2378.4973	19794.4	18907.5
965.6517	2379.9	19706.7	18817.35
965.7825	2381.3019	19631.8	18741.65
965.9132	2382.7032	19573.35	18686.2
966.0439	2384.1037	19550.2	18662.25
966.1745	2385.5035	19427.55	18538.45
966.3051	2386.9027	19412.75	18524.6
966.4357	2388.3011	19366.65	18474.85
966.5663	2389.6987	19298.2	18410.4
966.6968	2391.0957	19203.85	18317
966.8273	2392.492	19126.55	18240.25
966.9578	2393.8876	19004.5	18115.4
967.0882	2395.2824	18927.65	18040.85
967.2186	2396.6765	18883.65	17997.15
967.349	2398.07	18807.2	17917.9
967.4793	2399.4627	18784.7	17893.3
967.6097	2400.8547	18736.5	17846.85
967.7399	2402.246	18640.7	17744.4
967.8702	2403.6366	18508.85	17621.4
968.0004	2405.0265	18452.3	17564.8
968.1306	2406.4156	18389.15	17495.5
968.2607	2407.8041	18271.95	17380.8
968.3909	2409.1918	18216.2	17323.5
968.521	2410.5789	18160.85	17270.65
968.651	2411.9652	18085.5	17194.05
968.781	2413.3508	18037.3	17147.55
968.911	2414.7358	17964.2	17075.3
969.041	2416.12	17914.95	17026.35
969.1709	2417.5035	17864.15	16976.25
969.3008	2418.8863	17797.95	16907.5
969.4307	2420.2684	17755.2	16870.05
969.5606	2421.6497	17646.6	16756.3
969.6904	2423.0304	17531.6	16644.1
969.8201	2424.4104	17498.55	16609.95
969.9499	2425.7896	17433.1	16543.65
970.0796	2427.1682	17366.7	16476.4
970.2093	2428.546	17352.35	16462.05
970.3389	2429.9232	17310.9	16420.15
970.4685	2431.2996	17237.55	16349.4
970.5981	2432.6753	17212.25	16325.5
970.7277	2434.0503	17150.1	16259.75
970.8572	2435.4246	17058.75	16169.9
970.9867	2436.7982	17010.3	16120.9
971.1161	2438.1711	16987.7	16099.65
971.2456	2439.5433	16938.5	16049.25
971.375	2440.9148	16822.4	15929.2
971.5043	2442.2856	16731	15841.2
971.6336	2443.6557	16723.05	15832.35
971.7629	2445.025	16653.6	15763.6
971.8922	2446.3937	16610.4	15720.65
972.0214	2447.7617	16548.35	15659.8
972.1506	2449.1289	16553.25	15665.75
972.2798	2450.4955	16480.4	15587.95
972.4089	2451.8613	16397.95	15509.4
972.538	2453.2265	16347.6	15456.8
972.6671	2454.5909	16322.4	15431.55
972.7961	2455.9546	16263	15375.25
972.9251	2457.3177	16202.1	15313
973.0541	2458.68	16130.45	15240.65
973.1831	2460.0416	16151.45	15262.65
973.312	2461.4025	16119.85	15226.85
973.4408	2462.7627	16045.55	15146.2
973.5697	2464.1222	15989.3	15101
973.6985	2465.4811	15948.35	15060.5
973.8273	2466.8392	15879.7	14989.35
973.956	2468.1966	15822.45	14930.85
974.0847	2469.5533	15807.7	14916.8
974.2134	2470.9093	15772.85	14884.8
974.3421	2472.2645	15694.3	14804.7
974.4707	2473.6191	15654.3	14766.55
974.5993	2474.973	15560.9	14671.75
974.7278	2476.3262	15551.75	14660.8
974.8563	2477.6787	15467.25	14579.2
974.9848	2479.0305	15385.75	14496.15
975.1132	2480.3816	15352.35	14463.2
975.2417	2481.7319	15268.35	14379.85
975.37	2483.0816	15188.7	14299.6
975.4984	2484.4306	15141.75	14252.45
975.6267	2485.7789	15098	14210.25
975.755	2487.1264	15049.5	14157.75
975.8833	2488.4733	14989.2	14101.55
976.0115	2489.8195	14932	14036.85
976.1397	2491.165	14879.7	13989.05
976.2678	2492.5097	14840.5	13950.8
976.3959	2493.8538	14800.6	13912.25
976.524	2495.1972	14705.35	13817.4
976.6521	2496.5398	14650.45	13761.25
976.7801	2497.8818	14620.5	13728.4
976.9081	2499.2231	14563.15	13674.6
977.036	2500.5637	14501.8	13611.4
977.164	2501.9035	14462.65	13572.8
977.2918	2503.2427	14403.75	13510.85
977.4197	2504.5812	14334.1	13445.5
977.5475	2505.919	14322.9	13433.4
977.6753	2507.256	14313.7	13426.75
977.8031	2508.5924	14228.55	13339.75
977.9308	2509.9281	14165.5	13269.65
978.0585	2511.2631	14112.1	13223.15
978.1861	2512.5974	14121.6	13233.3
978.3137	2513.9309	14053.7	13164.3
978.4413	2515.2638	14011.85	13095.95
978.5689	2516.596	13947.35	13059.5
978.6964	2517.9275	13880.25	12990.45
978.8239	2519.2583	13804.15	12915.3
978.9513	2520.5884	13770.65	12879.85
979.0788	2521.9178	13705.35	12815.55
979.2062	2523.2465	13694.4	12807.5
979.3335	2524.5745	13623.1	12736.3
979.4608	2525.9018	13581.35	12691.65
979.5881	2527.2284	13532.45	12646.25
979.7154	2528.5543	13507.45	12620.95
979.8426	2529.8796	13468.05	12580.1
979.9698	2531.2041	13463.2	12573.6
980.0969	2532.5279	13401	12512.4
980.224	2533.851	13359.4	12470.85
980.3511	2535.1735	13310.9	12422.25
980.4781	2536.4952	13282.85	12394
980.6052	2537.8163	13268.65	12379.9
980.7321	2539.1366	13197.55	12311.9
980.8591	2540.4562	13158.7	12268.05
980.986	2541.7752	13174	12285
981.1129	2543.0935	13139.15	12251.2
981.2397	2544.411	13071.2	12182.25
981.3665	2545.7279	13044.45	12155.15
981.4933	2547.0441	12993.75	12105.5
981.62	2548.3596	12973.65	12081.15
981.7467	2549.6744	12940.85	12052.4
981.8734	2550.9885	12917.1	12019.9
982.0001	2552.3019	12857.8	11971.2
982.1267	2553.6146	12848.9	11959.35
982.2532	2554.9266	12786	11897.25
982.3798	2556.2379	12758.55	11868.9
982.5063	2557.5485	12730.95	11843.05
982.6327	2558.8585	12706.55	11811.65
982.7592	2560.1677	12687.25	11794.3
982.8856	2561.4762	12639.95	11751.05
983.0119	2562.7841	12630.3	11737.05
983.1383	2564.0913	12580.45	11692.4
983.2646	2565.3977	12572.7	11684.2
983.3908	2566.7035	12524.25	11634.85
983.517	2568.0086	12513.95	11622.7
983.6432	2569.313	12484.4	11594.6
983.7694	2570.6167	12442.65	11550.7
983.8955	2571.9197	12415.9	11527.05
984.0216	2573.222	12396.4	11505.95
984.1476	2574.5236	12344.3	11455.15
984.2737	2575.8246	12291.05	11399.45
984.3996	2577.1248	12315.35	11422.45
984.5256	2578.4244	12284.65	11394.65
984.6515	2579.7232	12235.8	11348.9
984.7774	2581.0214	12219.6	11305.25
984.9032	2582.3189	12180.6	11292.2
985.029	2583.6157	12142.7	11249.3
985.1548	2584.9118	12117.75	11227.8
985.2806	2586.2072	12088.3	11200.5
985.4063	2587.5019	12048.1	11159.5
985.5319	2588.7959	12009.7	11119.6
985.6576	2590.0893	11995.6	11106.65
985.7832	2591.3819	11975.35	11087.05
985.9087	2592.6739	11892.3	11005.2
986.0343	2593.9652	11857.45	10966.5
986.1597	2595.2557	11810.4	10920.6
986.2852	2596.5456	11755.05	10866.5
986.4106	2597.8348	11752.15	10863.4
986.536	2599.1234	11675.9	10788.15
986.6614	2600.4112	11645.5	10756.1
986.7867	2601.6983	11602.6	10711.8
986.912	2602.9848	11568.3	10677.85
987.0372	2604.2705	11499.45	10603.5
987.1624	2605.5556	11486.2	10598.75
987.2876	2606.84	11466.1	10578.35
987.4128	2608.1237	11411.3	10522.7
987.5379	2609.4067	11383.85	10494.3
987.6629	2610.689	11344.2	10448
987.788	2611.9707	11284.6	10391.8
987.913	2613.2516	11232.55	10340.9
988.0379	2614.5319	11160.9	10272.7
988.1629	2615.8115	11137.2	10248.95
988.2878	2617.0903	11099.35	10209.05
988.4126	2618.3685	11046.85	10156.3
988.5375	2619.6461	11033.5	10142.7
988.6622	2620.9229	10989.9	10100.2
988.787	2622.199	10950.25	10062.7
988.9117	2623.4745	10919.5	10030.8
989.0364	2624.7493	10891.9	10002.95
989.161	2626.0234	10828.9	9941.6
989.2857	2627.2968	10794.05	9904.6
989.4102	2628.5695	10734.75	9846.4
989.5348	2629.8415	10690.2	9803.3
989.6593	2631.1128	10670.6	9780.25
989.7837	2632.3835	10605.25	9716.75
989.9082	2633.6535	10552.2	9663.35
990.0326	2634.9228	10523.2	9635
990.1569	2636.1914	10476.55	9588.2
990.2812	2637.4593	10469.3	9576.05
990.4055	2638.7265	10424.05	9535
990.5298	2639.9931	10392.4	9503.45
990.654	2641.259	10369.1	9479.85
990.7782	2642.5242	10338.85	9450.3
990.9023	2643.7887	10299.1	9410.5
991.0264	2645.0525	10282.95	9394.4
991.1505	2646.3156	10240.95	9351.15
991.2745	2647.5781	10189.1	9302.55
991.3985	2648.8398	10149.55	9261.65
991.5225	2650.1009	10130.35	9204.35
991.6464	2651.3613	10099.55	9210.9
991.7703	2652.6211	10090	9199.8
991.8942	2653.8801	10036.55	9149
992.018	2655.1385	10041.2	9149.75
992.1418	2656.3961	9979.8	9090.1
992.2655	2657.6531	9958.85	9072.55
992.3892	2658.9094	9929.65	9040.15
992.5129	2660.1651	9912.85	9026.05
992.6366	2661.42	9889.05	9001.5
992.7602	2662.6743	9858.9	8968.05
992.8837	2663.9279	9842.1	8955.35
993.0073	2665.1808	9790.15	8900.1
993.1307	2666.433	9747.8	8858.3
993.2542	2667.6846	9738.05	8850.55
993.3776	2668.9354	9741.55	8848.95
993.501	2670.1856	9691.15	8803.6
993.6244	2671.4351	9676.2	8787.9
993.7477	2672.6839	9640.7	8750.65
993.8709	2673.9321	9620.9	8734.15
993.9942	2675.1795	9565.2	8677.35
994.1174	2676.4263	9524.75	8638.5
994.2405	2677.6724	9503.8	8615.65
994.3637	2678.9179	9485.45	8594.6
994.4868	2680.1626	9452.4	8564.2
994.6098	2681.4067	9435.8	8548.45
994.7328	2682.6501	9378.7	8491.35
994.8558	2683.8928	9356.55	8468.05
994.9788	2685.1348	9322.8	8435.45
995.1017	2686.3761	9273.6	8386.95
995.2245	2687.6168	9247.75	8359.85
995.3474	2688.8568	9235.55	8348.85
995.4702	2690.0961	9181.15	8292.25
995.5929	2691.3348	9162.05	8273.6
995.7156	2692.5727	9142.95	8253
995.8383	2693.81	9087	8198.1
995.961	2695.0466	9084	8197.45
996.0836	2696.2826	9064.65	8177.3
996.2062	2697.5178	9050.7	8158.7
996.3287	2698.7524	8980.3	8093.7
996.4512	2699.9863	8964.3	8072.7
996.5737	2701.2195	8941.6	8054.85
996.6961	2702.452	8915.2	8026.6
996.8185	2703.6839	8889.1	7999.85
996.9408	2704.9151	8855.45	7966.95
997.0631	2706.1456	8825.35	7937.4
997.1854	2707.3755	8789.45	7900.3
997.3077	2708.6046	8780.7	7889.2
997.4299	2709.8331	8751.5	7861.5
997.552	2711.0609	8719.4	7830.6
997.6742	2712.2881	8681.85	7795.65
997.7963	2713.5145	8678.7	7790.5
997.9183	2714.7403	8661.35	7773.55
998.0403	2715.9654	8607.5	7719.15
998.1623	2717.1899	8605.45	7717.25
998.2842	2718.4136	8569.9	7683.65
998.4062	2719.6367	8555	7668
998.528	2720.8591	8543.55	7648.3
998.6498	2722.0809	8500.15	7612.35
998.7716	2723.3019	8469.95	7578.85
998.8934	2724.5223	8449.2	7561.75
999.0151	2725.7421	8423.85	7535.15
999.1368	2726.9611	8412.9	7523
999.2584	2728.1795	8364.35	7472.65
999.38	2729.3972	8357.4	7469.75
999.5016	2730.6142	8287.85	7392.85
999.6231	2731.8306	8241.25	7351.9
999.7446	2733.0462	8205.95	7315.5
999.8661	2734.2612	8162.7	7268.85
999.9875	2735.4756	8122.5	7232.9
1000.1089	2736.6892	8081.15	7193.25
1000.2302	2737.9022	8017.95	7131.8
1000.3515	2739.1145	7980.2	7091
1000.4728	2740.3262	7973.7	7078.05
1000.594	2741.5372	7921.3	7033.05
1000.7152	2742.7475	7855.85	6965.65
1000.8363	2743.9571	7860.6	6969.65
1000.9575	2745.1661	7835.15	6942.55
1001.0785	2746.3744	7806.8	6917.6
1001.1996	2747.582	7776.8	6889.75
1001.3206	2748.7889	7758.9	6868.9
1001.4415	2749.9952	7727.8	6840.55
1001.5625	2751.2008	7696.25	6807.65
1001.6833	2752.4057	7667.3	6778.7
1001.8042	2753.61	7627.45	6739.15
1001.925	2754.8136	7607.1	6716.95
1002.0458	2756.0165	7598.45	6709.4
1002.1665	2757.2188	7558.2	6671.95
1002.2872	2758.4204	7537.2	6649.8
1002.4078	2759.6213	7477.05	6587.7
1002.5285	2760.8215	7513.9	6621.7
1002.649	2762.0211	7457.55	6565.85
1002.7696	2763.22	7444.55	6555.8
1002.8901	2764.4182	7396.25	6507.55
1003.0106	2765.6158	7402.25	6513.6
1003.131	2766.8127	7367.1	6478.35
1003.2514	2768.009	7336.65	6446.85
1003.3717	2769.2045	7313.1	6424.4
1003.492	2770.3994	7271.6	6382.45
1003.6123	2771.5936	7254.15	6365.3
1003.7325	2772.7872	7218.35	6332.45
1003.8527	2773.9801	7178.15	6288.15
1003.9729	2775.1723	7199.4	6294.45
1004.093	2776.3639	7126.15	6238.5
1004.2131	2777.5548	7102.65	6213.75
1004.3331	2778.745	7091.15	6202.4
1004.4531	2779.9346	7092.65	6204.6
1004.5731	2781.1235	7055.85	6166.05
1004.693	2782.3117	7028.4	6140
1004.8129	2783.4992	6990.05	6101.85
1004.9328	2784.6861	6973.3	6086.7
1005.0526	2785.8723	6962.15	6072.25
1005.1723	2787.0579	6977.85	6087.65
1005.2921	2788.2428	6917.05	6030.6
1005.4118	2789.427	6905.1	6017.2
1005.5314	2790.6106	6904.6	6018.75
1005.651	2791.7935	6872.95	5984.85
1005.7706	2792.9757	6841.45	5954.9
1005.8902	2794.1573	6819.6	5929.4
1006.0097	2795.3382	6800.65	5913.95
1006.1291	2796.5184	6782.15	5895.45
1006.2485	2797.698	6775.6	5887.6
1006.3679	2798.8769	6764.15	5874.95
1006.4873	2800.0551	6751.65	5863.2
1006.6066	2801.2327	6737.55	5846.7
1006.7258	2802.4096	6735.25	5848.4
1006.8451	2803.5859	6698.45	5810.45
1006.9642	2804.7615	6695.5	5807.2
1007.0834	2805.9364	6687.5	5799.5
1007.2025	2807.1106	6680.05	5793.3
1007.3216	2808.2842	6697.35	5808.35
1007.4406	2809.4572	6701.05	5813.35
1007.5596	2810.6294	6711.4	5822.05
1007.6785	2811.801	6706.15	5818.85
1007.7975	2812.972	6724.35	5838.55
1007.9163	2814.1423	6728.45	5839.65
1008.0352	2815.3119	6741.3	5854.7
1008.154	2816.4808	6766.95	5880.75
1008.2727	2817.6491	6797.55	5910
1008.3914	2818.8167	6795.75	5906.8
1008.5101	2819.9837	6828.05	5934.15
1008.6288	2821.15	6878.55	5989.7
1008.7474	2822.3157	6883.75	5998.15
1008.8659	2823.4807	6927.4	6041.2
1008.9844	2824.645	6965.85	6077.8
1009.1029	2825.8086	6973.5	6087.1
1009.2214	2826.9716	6986.1	6099.35
1009.3398	2828.134	7030.95	6143.8
1009.4581	2829.2957	7048.85	6160.4
1009.5764	2830.4567	7054.05	6167.15
1009.6947	2831.617	7049.9	6160.95
1009.813	2832.7767	7064.05	6176.95
1009.9312	2833.9358	7028.95	6141.35
1010.0493	2835.0941	7025.5	6135.7
1010.1675	2836.2519	7012.5	6125.95
1010.2855	2837.4089	6962.25	6073.85
1010.4036	2838.5653	6943.5	6057.4
1010.5216	2839.7211	6926.5	6038.75
1010.6396	2840.8761	6894.8	6006.9
1010.7575	2842.0306	6908	6020.35
1010.8754	2843.1843	6937.2	6051.4
1010.9932	2844.3374	6953.6	6065.9
1011.111	2845.4899	6965.75	6077.95
1011.2288	2846.6417	7010.4	6122.15
1011.3465	2847.7928	7035	6146.95
1011.4642	2848.9433	7059.6	6171.5
1011.5818	2850.0931	7085.1	6197.25
1011.6995	2851.2422	7160.35	6273.15
1011.817	2852.3907	7207.65	6316.85
1011.9345	2853.5385	7246.55	6357.25
1012.052	2854.6857	7259.75	6361.75
1012.1695	2855.8323	7263	6375.9
1012.2869	2856.9781	7298.4	6412.65
1012.4042	2858.1233	7308.8	6421.3
1012.5216	2859.2679	7304.65	6417.65
1012.6389	2860.4118	7356.6	6469.35
1012.7561	2861.555	7381.35	6489.35
1012.8733	2862.6976	7374.75	6487
1012.9905	2863.8395	7375.15	6487.5
1013.1076	2864.9808	7375.95	6486.95
1013.2247	2866.1214	7401.6	6516.95
1013.3417	2867.2614	7394.85	6506.25
1013.4587	2868.4007	7370.5	6482.15
1013.5757	2869.5393	7365.85	6477.15
1013.6926	2870.6773	7397.3	6506.65
1013.8095	2871.8146	7357.95	6468.05
1013.9263	2872.9513	7347.65	6458
1014.0431	2874.0874	7298	6410.75
1014.1599	2875.2227	7302.75	6416.65
1014.2766	2876.3574	7246.85	6357.9
1014.3933	2877.4915	7231.2	6344.5
1014.51	2878.6249	7173	6284.25
1014.6266	2879.7577	7140.85	6253.05
1014.7431	2880.8898	7092.9	6196.4
1014.8596	2882.0212	7053.75	6167.6
1014.9761	2883.152	7026.05	6137.9
1015.0925	2884.2821	6989.95	6103.05
1015.2089	2885.4116	6985.9	6098.3
1015.3253	2886.5405	6948.8	6062.25
1015.4416	2887.6686	6935.35	6046.1
1015.5579	2888.7962	6904.75	6019.45
1015.6741	2889.923	6916.4	6028.4
1015.7903	2891.0493	6914.35	6027.85
1015.9065	2892.1748	6901.7	6013.65
1016.0226	2893.2997	6880.9	5993.3
1016.1387	2894.424	6889.25	6003.85
1016.2547	2895.5476	6858.55	5970.95
1016.3707	2896.6706	6860.65	5974.65
1016.4866	2897.7929	6853.05	5965.1
1016.6025	2898.9145	6865.5	5978
1016.7184	2900.0355	6874.7	5986.55
1016.8342	2901.1559	6887.2	5997.9
1016.95	2902.2756	6907.05	6020.45
1017.0658	2903.3946	6908.3	6020.05
1017.1815	2904.513	6909.05	6019.9
1017.2971	2905.6308	6904.95	6017.55
1017.4127	2906.7479	6908.75	6021.65
1017.5283	2907.8643	6912.55	6023.65
1017.6439	2908.9801	6902.65	6015.9
1017.7594	2910.0953	6892.25	6006.25
1017.8748	2911.2098	6870.35	5980.7
1017.9902	2912.3236	6849.5	5955.65
1018.1056	2913.4368	6818.6	5926.2
1018.2209	2914.5494	6806	5917.05
1018.3362	2915.6613	6748.3	5854.35
1018.4515	2916.7725	6703.2	5813
1018.5667	2917.8831	6687.15	5799.15
1018.6819	2918.9931	6651.95	5762.6
1018.797	2920.1024	6604.4	5717.3
1018.9121	2921.211	6589.55	5701.85
1019.0271	2922.319	6557.05	5668.45
1019.1421	2923.4264	6500.1	5613.2
1019.2571	2924.5331	6503.9	5617.6
1019.372	2925.6391	6470.1	5583.15
1019.4869	2926.7445	6466.35	5581.95
1019.6017	2927.8493	6448.4	5561.3
1019.7165	2928.9534	6435.35	5546.85
1019.8313	2930.0569	6420	5531.55
1019.946	2931.1597	6391.8	5502.95
1020.0606	2932.2619	6381.9	5493.4
1020.1753	2933.3634	6375.7	5488.5
1020.2899	2934.4643	6380.3	5485.85
1020.4044	2935.5645	6335.25	5440.95
1020.5189	2936.6641	6331.3	5438.9
1020.6334	2937.763	6283.1	5396.6
1020.7478	2938.8613	6245	5357.2
1020.8622	2939.959	6166.7	5274.9
1020.9765	2941.056	6091.15	5204.95
1021.0908	2942.1523	6027.85	5139.6
1021.2051	2943.248	5936.55	5047.6
1021.3193	2944.3431	5840.5	4954.3
1021.4334	2945.4375	5744.2	4855.25
1021.5476	2946.5313	5668.05	4783.15
1021.6617	2947.6244	5563.5	4675.7
1021.7757	2948.7169	5468.8	4580.8
1021.8897	2949.8087	5373.45	4485.95
1022.0037	2950.8999	5288	4399.55
1022.1176	2951.9904	5188.4	4301.1
1022.2315	2953.0803	5109	4220.35
1022.3453	2954.1696	5045.7	4158.4
1022.4591	2955.2582	5001.85	4114.5
1022.5728	2956.3462	4942.9	4055.05
1022.6865	2957.4335	4884.55	3997.3
1022.8002	2958.5202	4849.25	3962.35
1022.9138	2959.6062	4822.25	3934.95
1023.0274	2960.6916	4774.65	3887.15
1023.141	2961.7764	4768.8	3881.25
1023.2545	2962.8605	4733.05	3842.9
1023.3679	2963.9439	4697.55	3810.5
1023.4813	2965.0267	4676.9	3788.4
1023.5947	2966.1089	4678.75	3767.8
1023.708	2967.1905	4625.55	3739.6
1023.8213	2968.2714	4620.35	3734
1023.9346	2969.3516	4602.6	3715.95
1024.0478	2970.4312	4613.5	3718.1
1024.1609	2971.5102	4580.6	3691.55
1024.274	2972.5885	4575.3	3687.3
1024.3871	2973.6662	4552.65	3660.45
1024.5002	2974.7432	4543.1	3654.45
1024.6132	2975.8196	4519.3	3633.2
1024.7261	2976.8954	4499.7	3613.9
1024.839	2977.9705	4477.5	3588.45
1024.9519	2979.045	4464.7	3578.8
1025.0647	2980.1188	4437.6	3550.4
1025.1775	2981.192	4410.95	3524.9
1025.2902	2982.2645	4386.45	3500.3
1025.4029	2983.3364	4356.5	3470.2
1025.5156	2984.4077	4329.85	3442.45
1025.6282	2985.4783	4288.3	3393.3
1025.7407	2986.5483	4250.15	3362.05
1025.8532	2987.6177	4214.9	3326.8
1025.9657	2988.6864	4184.3	3297.45
1026.0782	2989.7545	4146.85	3259.05
1026.1906	2990.8219	4106.85	3219.7
1026.3029	2991.8887	4069.3	3179.55
1026.4152	2992.9548	4018.55	3129.2
1026.5275	2994.0204	3994.6	3107.85
1026.6397	2995.0852	3951.1	3064.4
1026.7519	2996.1495	3930.45	3043.35
1026.864	2997.2131	3899.65	3011.7
1026.9761	2998.276	3877.8	2988.7
1027.0882	2999.3383	3831.35	2944.15
1027.2002	3000.4	3804.4	2915.75
1027.3122	3001.4611	3787.9	2901.2
1027.4241	3002.5215	3766.7	2877.95
1027.536	3003.5812	3723.75	2837.35
1027.6478	3004.6404	3714	2827.3
1027.7596	3005.6989	3708.2	2820.6
1027.8714	3006.7567	3682.7	2794.8
1027.9831	3007.8139	3689	2779
1028.0947	3008.8705	3656.9	2767.9
1028.2064	3009.9264	3629.9	2739.15
1028.3179	3010.9818	3621.2	2734.65
1028.4295	3012.0364	3612.65	2725.8
1028.541	3013.0905	3596.65	2710.7
1028.6524	3014.1439	3565.7	2678.75
1028.7638	3015.1966	3558.7	2672.3
1028.8752	3016.2487	3543.4	2656.6
1028.9865	3017.3002	3536.55	2645.85
1029.0978	3018.3511	3531.35	2644.85
1029.209	3019.4013	3505.35	2617.85
1029.3202	3020.4509	3511.25	2624.05
1029.4314	3021.4998	3493.4	2606.55
1029.5425	3022.5481	3481.7	2596.15
1029.6535	3023.5958	3477.3	2590.15
1029.7645	3024.6428	3464.1	2576
1029.8755	3025.6892	3459.5	2571.15
1029.9864	3026.735	3451.4	2563.9
1030.0973	3027.7802	3430.4	2543.65
1030.2082	3028.8247	3411.15	2523.75
1030.319	3029.8685	3401.45	2514.3
1030.4297	3030.9118	3402	2513.8
1030.5404	3031.9544	3392.55	2506.4
1030.6511	3032.9963	3377.4	2492.1
1030.7617	3034.0376	3379.1	2491.85
1030.8723	3035.0783	3370.2	2481.3
1030.9829	3036.1184	3362.1	2471.9
1031.0934	3037.1578	3351.45	2466.45
1031.2038	3038.1966	3337.95	2450.05
1031.3142	3039.2348	3325.35	2442
1031.4246	3040.2723	3338.95	2441.75
1031.5349	3041.3092	3331.65	2444.55
1031.6452	3042.3455	3318.55	2431.8
1031.7554	3043.3811	3285.95	2397.75
1031.8656	3044.4161	3288.75	2400.9
1031.9758	3045.4505	3280.6	2395.9
1032.0859	3046.4842	3283.5	2397.5
1032.1959	3047.5173	3250.1	2363
1032.3059	3048.5498	3249	2361.8
1032.4159	3049.5816	3227.2	2339.95
1032.5258	3050.6128	3218.35	2331.35
1032.6357	3051.6434	3202.8	2313.65
1032.7455	3052.6734	3192.55	2303.85
1032.8553	3053.7027	3185.05	2298.45
1032.9651	3054.7314	3175.35	2289.55
1033.0748	3055.7594	3157.15	2271.9
1033.1845	3056.7868	3153.75	2265.5
1033.2941	3057.8136	3130.9	2243.9
1033.4037	3058.8398	3124.4	2238.5
1033.5132	3059.8653	3098.8	2212.05
1033.6227	3060.8902	3100.5	2214.1
1033.7321	3061.9145	3082.5	2195
1033.8415	3062.9381	3076.45	2188.6
1033.9509	3063.9612	3073.8	2170.2
1034.0602	3064.9835	3062.85	2177.25
1034.1694	3066.0053	3044.6	2155.4
1034.2787	3067.0264	3039	2153.15
1034.3878	3068.0469	3033.9	2145.75
1034.497	3069.0668	3016.65	2126.75
1034.6061	3070.086	3004.75	2118.85
1034.7151	3071.1046	2984.75	2097.65
1034.8241	3072.1226	2981.6	2092.25
1034.9331	3073.1399	2961.95	2076.05
1035.042	3074.1567	2945	2057.25
1035.1508	3075.1727	2932.5	2045.6
1035.2597	3076.1882	2933.75	2046.85
1035.3684	3077.203	2913.15	2026.3
1035.4772	3078.2173	2900.1	2013.6
1035.5859	3079.2308	2888.5	1999.05
1035.6945	3080.2438	2864.3	1975.55
1035.8031	3081.2561	2855.9	1968.35
1035.9117	3082.2678	2841.2	1954.45
1036.0202	3083.2789	2824.55	1938.1
1036.1286	3084.2893	2825.7	1939.75
1036.2371	3085.2991	2810.05	1922.5
1036.3454	3086.3083	2797	1905.95
1036.4538	3087.3169	2788.65	1900.4
1036.562	3088.3248	2778.15	1890.05
1036.6703	3089.3321	2765	1874.4
1036.7785	3090.3388	2764.5	1879.3
1036.8866	3091.3449	2733.1	1846.5
1036.9948	3092.3503	2726.85	1836.9
1037.1028	3093.3551	2725	1840.9
1037.2108	3094.3593	2720.9	1834.8
1037.3188	3095.3629	2701.6	1814.8
1037.4267	3096.3658	2689.45	1803.05
1037.5346	3097.3681	2678.25	1792.95
1037.6425	3098.3698	2671.75	1784.65
1037.7503	3099.3708	2665.3	1771.3
1037.858	3100.3713	2656.6	1770.15
1037.9657	3101.3711	2644.15	1755.9
1038.0734	3102.3702	2738.5	1710.75
1038.181	3103.3688	2630.85	1743.7
1038.2886	3104.3667	2611.25	1726.5
1038.3961	3105.364	2605.1	1720.4
1038.5036	3106.3607	2577.4	1689.35
1038.611	3107.3568	2577.3	1687.4
1038.7184	3108.3522	2557.35	1670.45
1038.8257	3109.347	2560.45	1673.5
1038.933	3110.3412	2548.75	1658.15
1039.0403	3111.3348	2535.8	1650.35
1039.1475	3112.3277	2531.5	1644.85
1039.2547	3113.32	2512.1	1626.95
1039.3618	3114.3117	2514.3	1627.7
1039.4689	3115.3028	2504.45	1618.45
1039.5759	3116.2932	2482.85	1595.15
1039.6829	3117.2831	2489.75	1597.25
1039.7898	3118.2723	2460.4	1574.05
1039.8967	3119.2608	2468.4	1582.3
1040.0035	3120.2488	2448.7	1562.95
1040.1103	3121.2361	2452.25	1564.95
1040.2171	3122.2229	2439.15	1552.25
1040.3238	3123.209	2426.45	1538.15
1040.4305	3124.1944	2417.35	1532.45
1040.5371	3125.1793	2404.35	1516.7
1040.6437	3126.1635	2411.4	1525.75
1040.7502	3127.1471	2382.3	1495.35
1040.8567	3128.1301	2375.65	1490.65
1040.9631	3129.1125	2371.45	1486.85
1041.0695	3130.0942	2377.75	1491.8
1041.1759	3131.0753	2364.65	1468.4
1041.2822	3132.0558	2356.6	1467.75
1041.3884	3133.0357	2350.05	1462.7
1041.4946	3134.015	2348.2	1461.6
1041.6008	3134.9936	2332.8	1443.7
1041.7069	3135.9716	2339	1430.45
1041.813	3136.949	2320.75	1433.75
1041.919	3137.9258	2329	1437.05
1042.025	3138.902	2316.05	1424.55
1042.1309	3139.8775	2305.9	1419.95
1042.2368	3140.8524	2294.7	1409.95
1042.3427	3141.8267	2301.3	1412.5
1042.4485	3142.8004	2283	1395.4
1042.5542	3143.7735	2291.45	1399.05
1042.6599	3144.7459	2282.6	1393.5
1042.7656	3145.7178	2262.8	1374.2
1042.8712	3146.689	2260.65	1374.25
1042.9768	3147.6596	2265.2	1375.7
1043.0823	3148.6295	2245.25	1359.15
1043.1878	3149.5989	2236.25	1348.6
1043.2932	3150.5676	2234.15	1349.4
1043.3986	3151.5357	2215.3	1330.25
1043.5039	3152.5032	2219.55	1332.1
1043.6092	3153.4701	2208.85	1324.3
1043.7145	3154.4364	2193.85	1304.35
1043.8197	3155.402	2191.15	1305.1
1043.9248	3156.367	2188.95	1302.95
1044.03	3157.3315	2217.35	1287.5
1044.135	3158.2952	2177.1	1289.85
1044.24	3159.2584	2165.3	1278.65
1044.345	3160.221	2156.6	1271.5
1044.4499	3161.1829	2148.75	1262.45
1044.5548	3162.1442	2147	1260.6
1044.6596	3163.105	2141.6	1255.9
1044.7644	3164.065	2126.45	1240.8
1044.8692	3165.0245	2130.9	1242.25
1044.9739	3165.9834	2121.65	1236.35
1045.0785	3166.9416	2110.8	1222.95
1045.1831	3167.8993	2095.3	1208.1
1045.2877	3168.8563	2085.7	1198.45
1045.3922	3169.8127	2079.75	1194
1045.4966	3170.7684	2085.7	1200.45
1045.6011	3171.7236	2071.1	1183.05
1045.7054	3172.6782	2066.05	1178.4
1045.8098	3173.6321	2061.15	1173.65
1045.914	3174.5854	2056.35	1162.1
1046.0183	3175.5381	2054.65	1167.25
1046.1224	3176.4902	2050.8	1165.25
1046.2266	3177.4417	2040.65	1154.65
1046.3307	3178.3926	2022.15	1136.6
1046.4347	3179.3428	2013.6	1129.45
1046.5387	3180.2924	2007.65	1122
1046.6427	3181.2415	2009.5	1121.65
1046.7466	3182.1899	2003.75	1116.75
1046.8504	3183.1377	1993.75	1108.15
1046.9542	3184.0848	2002.2	1112.4
1047.058	3185.0314	1982.95	1094
1047.1617	3185.9773	1986.55	1099.5
1047.2654	3186.9227	1980.75	1091.85
1047.369	3187.8674	1963.7	1076.95
1047.4726	3188.8115	1970.25	1078.45
1047.5761	3189.755	1962.6	1076.3
1047.6796	3190.6979	1951.65	1066.65
1047.783	3191.6402	1956.9	1070.6
1047.8864	3192.5818	1938.5	1053.5
1047.9898	3193.5229	1960.3	1054.6
1048.0931	3194.4633	1936.95	1048.7
1048.1963	3195.4031	1927.45	1041
1048.2995	3196.3423	1921.85	1035.95
1048.4027	3197.2809	1914.35	1026.1
1048.5058	3198.2189	1919.75	1034.55
1048.6089	3199.1563	1922.3	1019.35
1048.7119	3200.0931	1892.4	1006.75
1048.8148	3201.0292	1884.1	997.65
1048.9178	3201.9648	1886	998.4
1049.0206	3202.8997	1881.1	991.55
1049.1235	3203.834	1873.15	985.4
1049.2262	3204.7677	1875.45	989.85
1049.329	3205.7008	1868.3	979.75
1049.4317	3206.6333	1862.1	978.2
1049.5343	3207.5652	1855.55	967.35
1049.6369	3208.4964	1847.3	960.9
1049.7394	3209.4271	1843.4	957.9
1049.8419	3210.3571	1844.65	958.25
1049.9444	3211.2865	1833.6	946.45
1050.0468	3212.2154	1827.05	939.1
1050.1491	3213.1436	1834.15	944.75
1050.2514	3214.0712	1835.15	942.45
1050.3537	3214.9982	1827.3	941.9
1050.4559	3215.9246	1803.55	918.25
1050.5581	3216.8503	1810.15	925.3
1050.6602	3217.7755	1808.8	921.4
1050.7623	3218.7001	1805.45	919.2
1050.8643	3219.624	1804.1	916.15
1050.9663	3220.5473	1785.65	899.45
1051.0682	3221.4701	1794.25	908.8
1051.1701	3222.3922	1778.7	889.5
1051.2719	3223.3137	1775.25	888.45
1051.3737	3224.2346	1770.7	883.25
1051.4754	3225.1549	1771.4	886.25
1051.5771	3226.0746	1764.5	881.05
1051.6788	3226.9937	1756.25	870.25
1051.7804	3227.9121	1756.35	870.55
1051.8819	3228.83	1746.85	862.25
1051.9834	3229.7473	1742.85	856.5
1052.0849	3230.6639	1743.65	856.65
1052.1863	3231.5799	1734.65	848.5
1052.2876	3232.4954	1728.5	842.55
1052.3889	3233.4102	1721.4	835.5
1052.4902	3234.3244	1720.6	833.25
1052.5914	3235.238	1714.35	829.35
1052.6926	3236.151	1728.4	818.45
1052.7937	3237.0634	1708.7	823.65
1052.8948	3237.9752	1696.4	809.5
1052.9958	3238.8864	1689.8	803.35
1053.0968	3239.797	1692.55	806.55
1053.1977	3240.7069	1679.6	791.8
1053.2986	3241.6163	1677.4	787.95
1053.3994	3242.5251	1678.9	793.25
1053.5002	3243.4332	1675.3	790.35
1053.6009	3244.3408	1667.75	781.4
1053.7016	3245.2477	1666.8	780.8
1053.8022	3246.154	1653.9	767.2
1053.9028	3247.0598	1659.3	771.55
1054.0034	3247.9649	1644.75	758.7
1054.1039	3248.8694	1637.1	751.3
1054.2043	3249.7733	1641.5	755.65
1054.3047	3250.6766	1639.5	752.3
1054.4051	3251.5793	1620.45	732.35
1054.5054	3252.4814	1625.25	739.3
1054.6056	3253.3829	1621	734.25
1054.7058	3254.2838	1614.7	727.35
1054.806	3255.1841	1611.25	725.4
1054.9061	3256.0838	1596.25	709.8
1055.0061	3256.9829	1595.15	710.95
1055.1062	3257.8814	1594.95	706
1055.2061	3258.7792	1594.55	705.1
1055.306	3259.6765	1578.3	688.5
1055.4059	3260.5731	1568.85	683.3
1055.5057	3261.4692	1571.05	685.4
1055.6055	3262.3647	1552.3	664.45
1055.7052	3263.2595	1545.35	658.7
1055.8049	3264.1538	1533.15	646.2
1055.9045	3265.0474	1525.55	638.2
1056.0041	3265.9404	1515.25	630.3
1056.1036	3266.8329	1502.25	616.9
1056.2031	3267.7247	1500.85	604.8
1056.3025	3268.616	1483.9	597.7
1056.4019	3269.5066	1463.85	576.5
1056.5013	3270.3966	1455.45	567.8
1056.6005	3271.286	1432.55	547.6
