Software Version:	3.9.2.0
Unit SN:	10000200
Spectrometer SN:	6960
Date:	3/6/2024 10:35:52 AM
Data Line Index:	25
Spectral Points:	2048
Integration time (ms):	125
Averages:	20
Delay (ms):	30
Sequence Number:	1
Processing:	dark subtract
Laser Power (mW):	305
Laser Current (mA):	824
Laser Diode Temp (C):	25.1
Laser Case Temp (C):	26.7
System Temp (C):	26.4
Spectrometer Temp (C):	23.9
CCD Temp (C):	0.002
Secondary Temp (C):	20.011
Heatsink Temp (C):	22.095
CCDPCB Temp (C):	36.396
SecondaryPCB Temp (C):	31.861

Wavelength	RamanShift	Raw Counts	Dark Subtracted
787.061	30.1047	1174.55	760.75
787.2016	32.3739	1210.3	798.3
787.3422	34.6426	1253.8	842.3
787.4828	36.9109	1299.9	884.35
787.6235	39.1787	1360	942.3
787.7642	41.4461	1429.85	1006.05
787.9049	43.7131	1491.35	1064.55
788.0456	45.9796	1569.4	1140.8
788.1863	48.2456	1633.1	1199.05
788.3271	50.5112	1712.65	1275.45
788.4679	52.7764	1773.8	1334.15
788.6087	55.0411	1856.15	1414.15
788.7496	57.3054	1944.15	1495.6
788.8904	59.5692	2047.1	1595.15
789.0313	61.8326	2158.75	1706.25
789.1722	64.0955	2259.1	1800.65
789.3132	66.3579	2400	1937.4
789.4541	68.6199	2560.25	2093.35
789.5951	70.8815	2831.15	2361.45
789.7361	73.1426	3391.2	2917.8
789.8771	75.4032	4788.3	4310.05
790.0181	77.6634	8425.95	7941.45
790.1592	79.9231	18257	17768.05
790.3003	82.1824	59153.45	58653.15
790.4414	84.4412	65535	65013
790.5825	86.6995	65535	64982.1
790.7237	88.9574	65535	64955.1
790.8648	91.2148	65535	64943.35
791.006	93.4717	65535	64924.95
791.1472	95.7282	65535	64916.65
791.2885	97.9842	65535	64916.3
791.4297	100.2398	65535	64911.95
791.571	102.4949	65535	64910.65
791.7123	104.7495	65535	64905.45
791.8536	107.0036	65535	64906.05
791.9949	109.2573	65535	64907.35
792.1363	111.5105	65535	64907.4
792.2777	113.7632	65535	64905.9
792.4191	116.0154	65535	64892.05
792.5605	118.2672	65535	64902.5
792.7019	120.5185	65535	64898.7
792.8434	122.7693	65535	64894.45
792.9849	125.0197	65535	64889.8
793.1264	127.2696	65535	64887.5
793.2679	129.519	65535	64881.25
793.4094	131.7679	65535	64880.05
793.551	134.0163	65535	64880.5
793.6926	136.2642	65535	64873.9
793.8342	138.5117	65535	64863.85
793.9758	140.7587	65535	64871.9
794.1175	143.0052	65535	64867.8
794.2591	145.2512	65535	64868.15
794.4008	147.4967	65535	64865.9
794.5425	149.7417	65535	64860.15
794.6842	151.9863	65535	64862.95
794.826	154.2304	65535	64855.2
794.9677	156.4739	65535	64852.65
795.1095	158.717	65535	64851.15
795.2513	160.9596	65535	64849.45
795.3931	163.2017	65535	64848.2
795.535	165.4433	65535	64842.75
795.6768	167.6844	65535	64841.7
795.8187	169.925	65535	64837.25
795.9606	172.1651	65535	64834.1
796.1025	174.4047	65535	64833.8
796.2445	176.6439	65535	64829.15
796.3864	178.8825	65535	64831.4
796.5284	181.1206	65535	64824.45
796.6704	183.3582	65535	64823.45
796.8124	185.5954	65535	64820.65
796.9544	187.832	65535	64816.9
797.0965	190.0681	65535	64813.8
797.2386	192.3037	65535	64807.05
797.3806	194.5388	65535	64807
797.5228	196.7734	65535	64806.05
797.6649	199.0075	65535	64804.3
797.807	201.2411	65535	64802.9
797.9492	203.4742	65535	64801.05
798.0914	205.7068	65535	64796.9
798.2336	207.9389	65535	64794.8
798.3758	210.1704	65535	64794.3
798.518	212.4015	65535	64793
798.6603	214.632	65535	64802.25
798.8025	216.862	65535	64814.35
798.9448	219.0915	65535	64814.85
799.0871	221.3205	65535	64810.65
799.2294	223.549	65535	64819.05
799.3718	225.777	65535	64819
799.5141	228.0044	65535	64812.35
799.6565	230.2314	65535	64812.8
799.7989	232.4578	65535	64810.65
799.9413	234.6837	65535	64798.8
800.0837	236.909	65535	64795.7
800.2262	239.1339	65535	64775.75
800.3687	241.3582	65535	64787.1
800.5111	243.582	65535	64758.3
800.6536	245.8053	65535	64771.45
800.7961	248.0281	65535	64774.25
800.9387	250.2503	65535	64772.75
801.0812	252.472	65535	64769.45
801.2238	254.6932	65535	64765.8
801.3664	256.9139	65535	64766.45
801.509	259.134	65535	64763.55
801.6516	261.3536	65535	64761.6
801.7942	263.5727	65535	64764.35
801.9369	265.7912	65535	64766.3
802.0795	268.0092	65535	64762.3
802.2222	270.2267	65535	64762.45
802.3649	272.4436	65535	64761.95
802.5076	274.6601	65535	64752.05
802.6504	276.8759	65535	64751.5
802.7931	279.0913	65535	64752.25
802.9359	281.3061	65535	64755.65
803.0787	283.5204	65535	64751.35
803.2215	285.7341	65535	64747.3
803.3643	287.9473	65535	64738.65
803.5071	290.16	65535	64743.75
803.6499	292.3721	65535	64750
803.7928	294.5837	65535	64749
803.9357	296.7947	65535	64748.75
804.0786	299.0052	65535	64747.85
804.2215	301.2152	65535	64744.9
804.3644	303.4246	65535	64748.3
804.5074	305.6334	65535	64744.45
804.6503	307.8418	65535	64743.05
804.7933	310.0495	65535	64746.55
804.9363	312.2568	65535	64746.05
805.0793	314.4635	65535	64741.6
805.2223	316.6696	65535	64737.8
805.3653	318.8752	65535	64734.4
805.5084	321.0802	65535	64736.75
805.6514	323.2847	65535	64735
805.7945	325.4887	65535	64733.5
805.9376	327.692	65535	64733.8
806.0807	329.8949	65535	64730.7
806.2238	332.0972	65535	64733.7
806.367	334.2989	65535	64729.35
806.5101	336.5001	65535	64725.5
806.6533	338.7007	65535	64725.3
806.7965	340.9008	65535	64725.7
806.9397	343.1003	65535	64724.15
807.0829	345.2992	65535	64723.7
807.2261	347.4976	65535	64723.45
807.3693	349.6955	65535	64716.8
807.5126	351.8927	65535	64715.25
807.6559	354.0895	65535	64710.2
807.7991	356.2856	65535	64717.65
807.9424	358.4812	65535	64716.05
808.0857	360.6763	65535	64710.85
808.2291	362.8707	65535	64715.7
808.3724	365.0646	65535	64709.9
808.5158	367.258	65535	64707.5
808.6591	369.4508	65535	64703.45
808.8025	371.643	65535	64705.4
808.9459	373.8346	65535	64704.5
809.0893	376.0257	65535	64702.45
809.2327	378.2162	65535	64704.55
809.3762	380.4062	65535	64701.15
809.5196	382.5956	65535	64697.9
809.6631	384.7844	65535	64703.35
809.8066	386.9726	65535	64704.15
809.9501	389.1603	65535	64706.5
810.0936	391.3474	65535	64666.25
810.2371	393.5339	65535	64705.25
810.3806	395.7199	65535	64706.25
810.5241	397.9052	65535	64711
810.6677	400.09	65535	64709.6
810.8113	402.2743	65535	64707.8
810.9548	404.4579	65535	64706.5
811.0984	406.641	65535	64708.8
811.2421	408.8235	65535	64706.65
811.3857	411.0054	65535	64700.95
811.5293	413.1868	65535	64701.4
811.673	415.3675	65535	64699.95
811.8166	417.5477	65535	64696.65
811.9603	419.7273	65535	64695.9
812.104	421.9064	65535	64682.9
812.2477	424.0848	65535	64690
812.3914	426.2627	65535	64689.4
812.5351	428.4399	65535	64693
812.6788	430.6166	65535	64686.25
812.8226	432.7928	65535	64688.15
812.9663	434.9683	65535	64683.9
813.1101	437.1432	65535	64684.75
813.2539	439.3176	65535	64682.4
813.3977	441.4914	65535	64687.45
813.5415	443.6645	65535	64685.55
813.6853	445.8371	65535	64682.05
813.8291	448.0091	65535	64686.3
813.973	450.1806	65535	64684.45
814.1168	452.3514	65535	64682.7
814.2607	454.5216	65535	64674.35
814.4046	456.6913	65535	64681
814.5485	458.8603	65535	64683.05
814.6924	461.0288	65535	64683.7
814.8363	463.1967	65535	64684
814.9802	465.3639	65535	64680.5
815.1241	467.5306	65535	64679.8
815.2681	469.6967	65535	64681.7
815.412	471.8622	65535	64679.55
815.556	474.0271	65535	64680.35
815.7	476.1914	65535	64676.2
815.844	478.3551	65535	64676.85
815.988	480.5182	65535	64677
816.132	482.6807	65535	64679.8
816.276	484.8426	65535	64679.6
816.4201	487.0039	65535	64680.4
816.5641	489.1647	65535	64678.5
816.7082	491.3248	65535	64674.7
816.8522	493.4843	65535	64674.4
816.9963	495.6432	65535	64675.95
817.1404	497.8015	65535	64672.4
817.2845	499.9592	65535	64674.65
817.4286	502.1163	65535	64672.85
817.5727	504.2728	65535	64673.1
817.7168	506.4287	65535	64678.25
817.861	508.5839	65535	64676.1
818.0051	510.7386	65535	64675.4
818.1493	512.8927	65535	64666.65
818.2935	515.0461	65535	64667.95
818.4377	517.199	65535	64669.55
818.5818	519.3512	65535	64670.8
818.726	521.5029	65535	64663.2
818.8703	523.6539	65535	64669.9
819.0145	525.8043	65535	64666.75
819.1587	527.9541	65535	64665
819.303	530.1033	65535	64667.55
819.4472	532.2519	65535	64665.35
819.5915	534.3999	65535	64657.6
819.7357	536.5472	65535	64666.15
819.88	538.694	65535	64666.2
820.0243	540.8401	65535	64664.65
820.1686	542.9856	65535	64663.5
820.3129	545.1305	65535	64657.6
820.4572	547.2748	65535	64657.05
820.6016	549.4185	65535	64658
820.7459	551.5615	65535	64662.4
820.8902	553.704	65535	64658.6
821.0346	555.8458	65535	64664.1
821.1789	557.987	65535	64659.5
821.3233	560.1276	65535	64659.5
821.4677	562.2675	65535	64664.15
821.6121	564.4069	65535	64661.5
821.7565	566.5456	65535	64660.55
821.9009	568.6837	65535	64661.4
822.0453	570.8212	65535	64662.8
822.1897	572.958	65535	64660.4
822.3342	575.0942	65535	64661.45
822.4786	577.2299	65535	64660.85
822.6231	579.3648	65535	64663.1
822.7675	581.4992	65535	64663.75
822.912	583.6329	65535	64666.85
823.0565	585.766	65535	64663.75
823.201	587.8985	65535	64661.65
823.3454	590.0304	65535	64634.55
823.4899	592.1616	65535	64658.5
823.6345	594.2922	65535	64656.5
823.779	596.4222	65535	64656.25
823.9235	598.5515	65535	64655.7
824.068	600.6802	65535	64654.05
824.2126	602.8083	65535	64658.45
824.3571	604.9358	65535	64654.95
824.5017	607.0626	65535	64654.65
824.6462	609.1888	65535	64653.3
824.7908	611.3144	65535	64649.05
824.9354	613.4393	65535	64654.1
825.08	615.5636	65535	64652.25
825.2246	617.6873	65535	64654
825.3692	619.8103	65535	64653.8
825.5138	621.9327	65535	64650.95
825.6584	624.0544	65535	64652
825.803	626.1756	65535	64650.45
825.9477	628.2961	65535	64654.1
826.0923	630.4159	65535	64651.5
826.237	632.5351	65535	64651.6
826.3816	634.6537	65535	64649.75
826.5263	636.7716	65535	64649.4
826.6709	638.8889	65535	64648.8
826.8156	641.0056	65535	64645.35
826.9603	643.1216	65535	64647.7
827.105	645.237	65535	64647.3
827.2497	647.3518	65535	64649.75
827.3944	649.4659	65535	64649
827.5391	651.5793	65535	64650.3
827.6838	653.6922	65535	64649.4
827.8285	655.8043	65535	64652
827.9733	657.9159	65535	64645.65
828.118	660.0268	65535	64648.1
828.2627	662.137	65535	64645.1
828.4075	664.2466	65535	64648.15
828.5522	666.3556	65535	64644.65
828.697	668.4639	65535	64642.55
828.8418	670.5716	65535	64645.55
828.9865	672.6786	65535	64642.5
829.1313	674.785	65535	64642.45
829.2761	676.8907	65535	64644.65
829.4209	678.9958	65535	64645.75
829.5657	681.1002	65535	64643.2
829.7105	683.204	65535	64639.5
829.8553	685.3072	65535	64642.15
830.0001	687.4097	65535	64643.9
830.1449	689.5115	65535	64640.55
830.2898	691.6127	65535	64644.35
830.4346	693.7132	65535	64643.65
830.5794	695.8131	65535	64634.2
830.7243	697.9123	65535	64640.8
830.8691	700.0109	65535	64639.35
831.014	702.1089	65535	64642.5
831.1588	704.2061	65535	64644.35
831.3037	706.3028	65535	64640
831.4486	708.3987	65535	64638.2
831.5935	710.4941	65535	64642.85
831.7383	712.5887	65535	64641.5
831.8832	714.6827	65535	64638.25
832.0281	716.7761	65535	64641.35
832.173	718.8688	65535	64642.8
832.3179	720.9608	65535	64636.1
832.4628	723.0522	65535	64635.75
832.6077	725.1429	65535	64636.45
832.7527	727.233	65535	64639
832.8976	729.3224	65535	64639.85
833.0425	731.4112	65535	64638
833.1874	733.4993	65535	64637.8
833.3324	735.5867	65535	64637.95
833.4773	737.6735	65535	64636.25
833.6222	739.7596	65535	64637
833.7672	741.845	65535	64639.65
833.9122	743.9298	65535	64633.45
834.0571	746.014	65535	64637.55
834.2021	748.0974	65535	64637.6
834.347	750.1802	65535	64634.75
834.492	752.2624	65535	64637.85
834.637	754.3439	65535	64635.95
834.782	756.4247	65535	64629.15
834.9269	758.5048	65535	64639.05
835.0719	760.5843	65535	64637.35
835.2169	762.6631	65535	64635.4
835.3619	764.7413	65535	64635.55
835.5069	766.8188	65535	64634.1
835.6519	768.8956	65535	64635.25
835.7969	770.9718	65535	64636.15
835.9419	773.0473	65535	64636.15
836.0869	775.1221	65535	64635.4
836.232	777.1962	65535	64636.6
836.377	779.2697	65535	64632.2
836.522	781.3426	65535	64618.4
836.667	783.4147	65535	64634.15
836.8121	785.4862	65535	64635.65
836.9571	787.557	65535	64635.4
837.1021	789.6271	65535	64636.45
837.2472	791.6966	65535	64634.8
837.3922	793.7654	65535	64635
837.5373	795.8335	65535	64635.85
837.6823	797.901	65535	64634.4
837.8274	799.9678	65535	64634.45
837.9724	802.0339	65535	64633.95
838.1175	804.0993	65535	64622.75
838.2626	806.1641	65535	64633.2
838.4076	808.2282	65535	64634.9
838.5527	810.2916	65535	64633.3
838.6978	812.3544	65535	64636.2
838.8428	814.4164	65535	64635.7
838.9879	816.4778	65535	64632.25
839.133	818.5385	65535	64637
839.2781	820.5986	65535	64635.5
839.4232	822.658	65535	64632.3
839.5682	824.7166	65535	64636.3
839.7133	826.7747	65535	64631.15
839.8584	828.832	65535	64633.1
840.0035	830.8886	65535	64630.15
840.1486	832.9446	65535	64633.6
840.2937	834.9999	65535	64635.75
840.4388	837.0545	65535	64627.35
840.5839	839.1085	65535	64632.9
840.729	841.1618	65535	64626.8
840.8741	843.2143	65535	64631.6
841.0192	845.2662	65535	64633.45
841.1643	847.3175	65535	64634.05
841.3095	849.368	65535	64632.55
841.4546	851.4179	65535	64633.25
841.5997	853.467	65535	64631.15
841.7448	855.5155	65535	64630.3
841.8899	857.5633	65535	64633.9
842.0351	859.6105	65535	64631
842.1802	861.6569	65535	64633.6
842.3253	863.7027	65535	64633.7
842.4704	865.7478	65535	64632.55
842.6156	867.7922	65535	64632.1
842.7607	869.8359	65535	64630.2
842.9058	871.8789	65535	64630.1
843.0509	873.9212	65535	64599.75
843.1961	875.9629	65535	64631.05
843.3412	878.0039	65535	64630.4
843.4863	880.0441	65535	64633.5
843.6315	882.0837	65535	64629.5
843.7766	884.1226	65535	64628.8
843.9218	886.1609	65535	64631.2
844.0669	888.1984	65535	64630.95
844.212	890.2352	65535	64632.6
844.3572	892.2714	65535	64625.15
844.5023	894.3069	65535	64627.8
844.6475	896.3416	65535	64628.75
844.7926	898.3757	65535	64629.7
844.9377	900.4091	65535	64626
845.0829	902.4418	65535	64625.65
845.228	904.4739	65535	64627.95
845.3732	906.5052	65535	64628.95
845.5183	908.5358	65535	64628.95
845.6635	910.5658	65535	64623.2
845.8086	912.595	65535	64630.5
845.9538	914.6236	65535	64629.65
846.0989	916.6515	65535	64630.55
846.2441	918.6786	65535	64624.85
846.3892	920.7051	65535	64627.4
846.5344	922.7309	65535	64629.95
846.6795	924.756	65535	64626.3
846.8246	926.7804	65535	64627.85
846.9698	928.8041	65535	64627.85
847.1149	930.8272	65535	64628.3
847.2601	932.8495	65535	64629.25
847.4052	934.8711	65535	64628.55
847.5504	936.892	65535	64627.2
847.6955	938.9123	65535	64629.35
847.8407	940.9318	65535	64629.1
847.9858	942.9506	65535	64627.55
848.131	944.9688	65535	64629.35
848.2761	946.9862	65535	64628.15
848.4213	949.003	65535	64627.7
848.5664	951.019	65535	64630.65
848.7115	953.0344	65535	64628.85
848.8567	955.0491	65535	64627.3
849.0018	957.063	65535	64630.5
849.147	959.0763	65535	64629
849.2921	961.0888	65535	64623.9
849.4373	963.1007	65535	64629.5
849.5824	965.1119	65535	64629.8
849.7275	967.1223	65535	64631.9
849.8727	969.1321	65535	64631.35
850.0178	971.1412	65535	64631
850.1629	973.1495	65535	64629.5
850.3081	975.1572	65535	64599.2
850.4532	977.1641	65535	64628.55
850.5983	979.1704	65535	64624.7
850.7435	981.1759	65535	64624.65
850.8886	983.1808	65535	64628.2
851.0337	985.1849	65535	64618.05
851.1788	987.1884	65535	64627.85
851.324	989.1911	65535	64626.15
851.4691	991.1932	65535	64626.4
851.6142	993.1945	65535	64627.85
851.7593	995.1951	65535	64626.3
851.9045	997.1951	65535	64621.4
852.0496	999.1943	65535	64628.25
852.1947	1001.1928	65535	64629.3
852.3398	1003.1906	65535	64628.2
852.4849	1005.1877	65535	64625.8
852.63	1007.1841	65535	64628.6
852.7751	1009.1798	65535	64628.25
852.9202	1011.1748	65535	64628.4
853.0653	1013.1691	65535	64628.6
853.2104	1015.1627	65535	64625.65
853.3555	1017.1556	65535	64630.55
853.5006	1019.1477	65535	64629.05
853.6457	1021.1392	65535	64629.5
853.7908	1023.1299	65535	64628.35
853.9359	1025.12	65535	64628.75
854.081	1027.1093	65535	64632
854.2261	1029.0979	65535	64633.5
854.3712	1031.0859	65535	64635.2
854.5163	1033.0731	65535	64629.65
854.6613	1035.0596	65535	64627.8
854.8064	1037.0454	65535	64630.15
854.9515	1039.0304	65535	64627.6
855.0965	1041.0148	65535	64630.45
855.2416	1042.9985	65535	64628.7
855.3867	1044.9814	65535	64628.65
855.5317	1046.9636	65535	64629
855.6768	1048.9452	65535	64633.25
855.8219	1050.926	65535	64628.55
855.9669	1052.9061	65535	64631.1
856.112	1054.8855	65535	64627
856.257	1056.8642	65535	64630.6
856.4021	1058.8421	65535	64623.85
856.5471	1060.8194	65535	64627.95
856.6921	1062.7959	65535	64628.65
856.8372	1064.7717	65535	64626.8
856.9822	1066.7469	65535	64627
857.1272	1068.7213	65535	64626.45
857.2723	1070.695	65535	64627.6
857.4173	1072.6679	65535	64627.1
857.5623	1074.6402	65535	64628.65
857.7073	1076.6117	65535	64623.9
857.8523	1078.5826	65535	64628
857.9973	1080.5527	65535	64627.1
858.1423	1082.5221	65535	64628.4
858.2873	1084.4908	65535	64629.4
858.4323	1086.4587	65535	64626.7
858.5773	1088.426	65535	64629.7
858.7223	1090.3925	65535	64623.55
858.8673	1092.3584	65535	64631.25
859.0123	1094.3235	65535	64629.65
859.1573	1096.2879	65535	64625.15
859.3022	1098.2515	65535	64627.9
859.4472	1100.2145	65535	64627.45
859.5922	1102.1767	65535	64625.35
859.7371	1104.1382	65535	64630.05
859.8821	1106.099	65535	64629.05
860.027	1108.0591	65535	64631.25
860.172	1110.0185	65535	64627
860.3169	1111.9771	65535	64629.5
860.4619	1113.9351	65535	64630.8
860.6068	1115.8923	65535	64627.8
860.7517	1117.8488	65535	64626.2
860.8967	1119.8045	65535	64628.75
861.0416	1121.7596	65535	64628.85
861.1865	1123.7139	65535	64632.85
861.3314	1125.6675	65535	64629.6
861.4763	1127.6204	65535	64629.75
861.6212	1129.5726	65535	64627.6
861.7661	1131.524	65535	64627.1
861.911	1133.4748	65535	64627.35
862.0559	1135.4248	65535	64629.75
862.2008	1137.3741	65535	64630.25
862.3457	1139.3226	65535	64628.9
862.4905	1141.2705	65535	64629.55
862.6354	1143.2176	65535	64624.55
862.7803	1145.164	65535	64627.5
862.9251	1147.1097	65535	64629.95
863.07	1149.0546	65535	64628.45
863.2148	1150.9989	65535	64628.85
863.3597	1152.9424	65535	64630.1
863.5045	1154.8852	65535	64628
863.6493	1156.8272	65535	64630.65
863.7942	1158.7686	65535	64623.2
863.939	1160.7092	65535	64625.35
864.0838	1162.6491	65535	64624.85
864.2286	1164.5883	65535	64630.25
864.3734	1166.5267	65535	64630.75
864.5182	1168.4644	65535	64629.3
864.663	1170.4014	65535	64623.85
864.8078	1172.3377	65535	64629.4
864.9526	1174.2732	65535	64630.75
865.0974	1176.2081	65535	64629.9
865.2421	1178.1421	65535	64624.2
865.3869	1180.0755	65535	64632
865.5317	1182.0082	65535	64627.95
865.6764	1183.9401	65535	64628.4
865.8212	1185.8713	65535	64629.75
865.9659	1187.8017	65535	64632.5
866.1106	1189.7315	65535	64633.9
866.2554	1191.6605	65535	64602.15
866.4001	1193.5888	65535	64630.1
866.5448	1195.5163	65535	64631.35
866.6895	1197.4432	65535	64628.65
866.8342	1199.3693	65535	64631
866.9789	1201.2947	65535	64627.95
867.1236	1203.2193	65535	64629.7
867.2683	1205.1432	65535	64628.6
867.413	1207.0664	65535	64627.8
867.5576	1208.9889	65535	64628.4
867.7023	1210.9106	65535	64630.25
867.847	1212.8316	65535	64629.6
867.9916	1214.7519	65535	64622.2
868.1363	1216.6715	65535	64630.9
868.2809	1218.5903	65535	64629.8
868.4255	1220.5084	65535	64628.9
868.5701	1222.4257	65535	64628.45
868.7148	1224.3424	65535	64631.9
868.8594	1226.2583	65535	64625.25
869.004	1228.1735	65535	64632.9
869.1486	1230.0879	65535	64628.8
869.2932	1232.0016	65535	64630.65
869.4377	1233.9146	65535	64629.35
869.5823	1235.8269	65535	64629.3
869.7269	1237.7384	65535	64630.95
869.8715	1239.6492	65535	64630.35
870.016	1241.5592	65535	64631.25
870.1606	1243.4686	65535	64629.4
870.3051	1245.3772	65535	64631.4
870.4496	1247.285	65535	64630.15
870.5941	1249.1922	65535	64630.55
870.7387	1251.0986	65535	64632.6
870.8832	1253.0042	65535	64630.55
871.0277	1254.9092	65535	64630.85
871.1722	1256.8134	65535	64631.85
871.3167	1258.7169	65535	64629.05
871.4611	1260.6196	65535	64632.3
871.6056	1262.5216	65535	64629.9
871.7501	1264.4229	65535	64631.7
871.8945	1266.3234	65535	64632.55
872.039	1268.2232	65535	64630.4
872.1834	1270.1223	65535	64628.2
872.3278	1272.0207	65535	64630.4
872.4723	1273.9183	65535	64624.45
872.6167	1275.8151	65535	64630.85
872.7611	1277.7113	65535	64627.25
872.9055	1279.6067	65535	64629.05
873.0499	1281.5014	65535	64628.6
873.1943	1283.3953	65535	64629.7
873.3386	1285.2885	65535	64630.5
873.483	1287.181	65535	64631
873.6274	1289.0727	65535	64631.25
873.7717	1290.9637	65535	64632.15
873.9161	1292.854	65535	64629.55
874.0604	1294.7435	65535	64631.6
874.2047	1296.6323	65535	64632.35
874.349	1298.5204	65535	64627.2
874.4933	1300.4077	65535	64630.95
874.6376	1302.2943	65535	64631.55
874.7819	1304.1802	65535	64630.95
874.9262	1306.0653	65535	64629.3
875.0705	1307.9497	65535	64628.85
875.2147	1309.8333	65535	64629.75
875.359	1311.7162	65535	64630.45
875.5032	1313.5984	65535	64629.65
875.6475	1315.4798	65535	64615.95
875.7917	1317.3605	65535	64612.15
875.9359	1319.2405	65535	64627.7
876.0801	1321.1197	65535	64629.85
876.2243	1322.9982	65535	64626.25
876.3685	1324.876	65535	64632.55
876.5127	1326.753	65535	64628.7
876.6569	1328.6293	65535	64628.6
876.801	1330.5048	65535	64629.55
876.9452	1332.3796	65535	64633.5
877.0893	1334.2537	65535	64604.35
877.2335	1336.127	65535	64629.85
877.3776	1337.9996	65535	64634.15
877.5217	1339.8714	65535	64629.45
877.6658	1341.7426	65535	64586.45
877.8099	1343.6129	65535	64629.05
877.954	1345.4826	65535	64630.3
878.0981	1347.3515	65535	64628.9
878.2422	1349.2196	65535	64630.55
878.3862	1351.087	65535	64630.95
878.5303	1352.9537	65535	64629.25
878.6743	1354.8197	65535	64629.75
878.8184	1356.6849	65535	64629.4
878.9624	1358.5493	65535	64633.25
879.1064	1360.4131	65535	64630.35
879.2504	1362.276	65535	64631.9
879.3944	1364.1383	65535	64633.25
879.5384	1365.9998	65535	64624.45
879.6823	1367.8606	65535	64632.55
879.8263	1369.7206	65535	64629.5
879.9702	1371.5799	65535	64627.8
880.1142	1373.4384	65535	64630.9
880.2581	1375.2962	65535	64629.55
880.402	1377.1533	65535	64632.05
880.5459	1379.0096	65535	64631.9
880.6898	1380.8652	65535	64629.6
880.8337	1382.7201	65535	64631.4
880.9776	1384.5742	65535	64629.8
881.1215	1386.4275	65535	64630.75
881.2653	1388.2802	65535	64630.6
881.4092	1390.132	65535	64631.45
881.553	1391.9832	65535	64628.4
881.6968	1393.8336	65535	64630.35
881.8406	1395.6832	65535	64628.45
881.9844	1397.5322	65535	64630.1
882.1282	1399.3803	65535	64626.8
882.272	1401.2278	65535	64632.2
882.4158	1403.0745	65535	64630.45
882.5595	1404.9204	65535	64631.35
882.7033	1406.7656	65535	64627.95
882.847	1408.6101	65535	64629.5
882.9908	1410.4538	65535	64630.3
883.1345	1412.2968	65535	64630.2
883.2782	1414.139	65535	64630.15
883.4219	1415.9805	65535	64632.9
883.5656	1417.8213	65535	64628.35
883.7092	1419.6613	65535	64632.1
883.8529	1421.5006	65535	64632.4
883.9965	1423.3391	65535	64633
884.1402	1425.1769	65535	64628.7
884.2838	1427.0139	65535	64631.9
884.4274	1428.8502	65535	64630.15
884.571	1430.6858	65535	64630.8
884.7146	1432.5206	65535	64629.4
884.8582	1434.3547	65535	64631.6
885.0018	1436.188	65535	64633.75
885.1453	1438.0206	65535	64632.5
885.2889	1439.8524	65535	64629.45
885.4324	1441.6835	65535	64631.5
885.5759	1443.5139	65535	64628
885.7194	1445.3435	65535	64633.55
885.8629	1447.1724	65535	64632.95
886.0064	1449.0005	65535	64629.5
886.1499	1450.8279	65535	64631.2
886.2933	1452.6545	65535	64629.85
886.4368	1454.4804	65535	64632.55
886.5802	1456.3056	65535	64627.8
886.7237	1458.13	65535	64631.35
886.8671	1459.9536	65535	64630.2
887.0105	1461.7766	65535	64631.7
887.1539	1463.5987	65535	64630.2
887.2972	1465.4202	65535	64632.25
887.4406	1467.2409	65535	64632.15
887.584	1469.0608	65535	64631.65
887.7273	1470.88	65535	64630.8
887.8706	1472.6984	65535	64631.15
888.0139	1474.5161	65535	64629.8
888.1572	1476.3331	65535	64632.35
888.3005	1478.1493	65535	64630
888.4438	1479.9648	65535	64633.4
888.5871	1481.7795	65535	64631.9
888.7303	1483.5935	65535	64633.4
888.8736	1485.4067	65535	64632.45
889.0168	1487.2192	65535	64631.35
889.16	1489.031	65535	64628.45
889.3032	1490.842	65535	64634.25
889.4464	1492.6522	65535	64632.45
889.5896	1494.4618	65535	64630.95
889.7327	1496.2705	65535	64631.5
889.8759	1498.0785	65535	64631.6
890.019	1499.8858	65535	64632.6
890.1622	1501.6924	65535	64632.45
890.3053	1503.4981	65535	64631.9
890.4484	1505.3032	65535	64630.1
890.5914	1507.1075	65535	64632.65
890.7345	1508.911	65535	64632.25
890.8776	1510.7138	65535	64633.85
891.0206	1512.5159	65535	64631.85
891.1637	1514.3172	65535	64632.15
891.3067	1516.1178	65535	64633.45
891.4497	1517.9176	65535	64629.3
891.5927	1519.7166	65535	64634.3
891.7357	1521.515	65535	64626.3
891.8786	1523.3126	65535	64632.35
892.0216	1525.1094	65535	64631.95
892.1645	1526.9055	65535	64632.6
892.3074	1528.7008	65535	64632.25
892.4503	1530.4954	65535	64627.25
892.5932	1532.2893	65535	64635
892.7361	1534.0824	65535	64630.55
892.879	1535.8747	65535	64632.65
893.0218	1537.6663	65535	64633.2
893.1647	1539.4572	65535	64632.3
893.3075	1541.2473	65535	64632.95
893.4503	1543.0367	65535	64634.6
893.5931	1544.8253	65535	64629.35
893.7359	1546.6132	65535	64629.4
893.8787	1548.4003	65535	64623.65
894.0214	1550.1867	65535	64624.75
894.1642	1551.9723	65535	64630.2
894.3069	1553.7572	65535	64633.35
894.4496	1555.5414	65535	64633.9
894.5923	1557.3247	65535	64634
894.735	1559.1074	65535	64635.6
894.8777	1560.8893	65535	64633.85
895.0204	1562.6705	65535	64633.85
895.163	1564.4509	65535	64637
895.3056	1566.2305	65535	64638.5
895.4482	1568.0094	65535	64637.05
895.5908	1569.7876	65535	64636.85
895.7334	1571.565	65535	64634.75
895.876	1573.3417	65535	64635
896.0186	1575.1176	65535	64637.2
896.1611	1576.8928	65535	64633.7
896.3036	1578.6672	65535	64638.1
896.4461	1580.4409	65535	64638.45
896.5886	1582.2138	65535	64633.9
896.7311	1583.986	65535	64636.8
896.8736	1585.7575	65535	64637.7
897.0161	1587.5282	65535	64637.15
897.1585	1589.2981	65535	64638.3
897.3009	1591.0673	65535	64635.7
897.4433	1592.8358	65535	64636.35
897.5857	1594.6035	65535	64634.5
897.7281	1596.3704	65535	64636.6
897.8705	1598.1366	65535	64637.15
898.0128	1599.9021	65535	64637.4
898.1551	1601.6668	65535	64637.65
898.2975	1603.4308	65535	64635.4
898.4398	1605.194	65535	64631.15
898.5821	1606.9564	65535	64637.35
898.7243	1608.7182	65535	64632.7
898.8666	1610.4791	65535	64640.7
899.0088	1612.2394	65535	64640
899.1511	1613.9988	65535	64640.65
899.2933	1615.7576	65535	64638.8
899.4355	1617.5156	65535	64632.2
899.5776	1619.2728	65535	64637.65
899.7198	1621.0293	65535	64637.45
899.862	1622.785	65535	64633.5
900.0041	1624.54	65535	64635.2
900.1462	1626.2942	65535	64638.05
900.2883	1628.0477	65535	64634.8
900.4304	1629.8005	65535	64632.35
900.5725	1631.5525	65535	64638
900.7145	1633.3037	65535	64638.8
900.8566	1635.0542	65535	64639.6
900.9986	1636.804	65535	64638.65
901.1406	1638.553	65535	64545.2
901.2826	1640.3013	65535	64638.9
901.4245	1642.0488	65535	64637.25
901.5665	1643.7955	65535	64639.7
901.7085	1645.5416	65535	64639.15
901.8504	1647.2868	65535	64639.7
901.9923	1649.0313	65535	64638.9
902.1342	1650.7751	65535	64635.1
902.2761	1652.5181	65535	64639.75
902.4179	1654.2604	65535	64639.1
902.5598	1656.0019	65535	64639.5
902.7016	1657.7427	65535	64637.1
902.8434	1659.4828	65535	64639.6
902.9852	1661.222	65535	64638.15
903.127	1662.9606	65535	64639.55
903.2687	1664.6984	65535	64638.9
903.4105	1666.4354	65535	64639.55
903.5522	1668.1717	65535	64638.2
903.6939	1669.9072	65535	64639.35
903.8356	1671.642	65535	64634.65
903.9773	1673.3761	65535	64638.7
904.119	1675.1094	65535	64639.85
904.2606	1676.8419	65535	64637.6
904.4022	1678.5737	65535	64636.8
904.5439	1680.3048	65535	64639.6
904.6855	1682.0351	65535	64639.65
904.827	1683.7646	65535	64633.8
904.9686	1685.4934	65535	64639.85
905.1101	1687.2215	65518.2	64621.3
905.2517	1688.9488	65535	64641
905.3932	1690.6754	65441.6	64549.1
905.5347	1692.4012	65519.35	64622.2
905.6761	1694.1263	65527.1	64632.6
905.8176	1695.8506	65470.9	64574.1
905.9591	1697.5742	65492.3	64597.2
906.1005	1699.297	65473.8	64577.4
906.2419	1701.0191	65498	64603.65
906.3833	1702.7404	65399.1	64504.05
906.5246	1704.461	65336.15	64440.55
906.666	1706.1808	65455.3	64561.55
906.8073	1707.8999	65402.35	64506.75
906.9487	1709.6182	65393.3	64497.3
907.09	1711.3358	65363.65	64472.15
907.2313	1713.0527	65329.9	64436.95
907.3725	1714.7688	65350.6	64450.4
907.5138	1716.4841	65060.9	64163.5
907.655	1718.1987	65173.65	64274.25
907.7962	1719.9126	65092.05	64199.5
907.9374	1721.6257	65211.45	64314.85
908.0786	1723.338	65199.65	64305.85
908.2198	1725.0496	64529.75	63636.1
908.3609	1726.7605	64735	63839.9
908.502	1728.4706	64390.9	63493.55
908.6431	1730.18	64792.15	63897.35
908.7842	1731.8886	64289.85	63395.4
908.9253	1733.5964	64080.5	63165
909.0664	1735.3036	64609.3	63712.3
909.2074	1737.0099	64185.7	63290.8
909.3484	1738.7156	63796.45	62905.05
909.4894	1740.4204	63688.95	62792.55
909.6304	1742.1246	63868.65	62971.7
909.7714	1743.8279	64052.4	63157.35
909.9123	1745.5306	63855.35	62959.6
910.0532	1747.2325	62472.15	61578
910.1941	1748.9336	62504.6	61609.2
910.335	1750.634	63014.05	62119.25
910.4759	1752.3336	63384.3	62489.4
910.6168	1754.0325	62323.55	61431.1
910.7576	1755.7307	63325.9	62434.15
910.8984	1757.4281	62004.45	61109.65
911.0392	1759.1247	62949.65	62046.2
911.18	1760.8206	61540	60639.95
911.3208	1762.5158	61677.7	60780.45
911.4615	1764.2102	62028.15	61135.8
911.6022	1765.9039	61739	60845.45
911.7429	1767.5968	61437.75	60544.7
911.8836	1769.289	61277.3	60383.15
912.0243	1770.9804	61536.85	60642.35
912.1649	1772.6711	61200.95	60305.6
912.3056	1774.361	60925	60028.6
912.4462	1776.0502	60994.85	60100.95
912.5868	1777.7386	59961.85	59064.65
912.7274	1779.4263	60545.6	59651.75
912.8679	1781.1132	60510.6	59617.45
913.0084	1782.7994	60257.4	59362.8
913.149	1784.4849	60356.25	59463.5
913.2895	1786.1696	59147.25	58249
913.4299	1787.8535	59763.65	58872.9
913.5704	1789.5367	59948.75	59055.7
913.7108	1791.2192	59185.5	58291.3
913.8513	1792.9009	58868.1	57945.45
913.9917	1794.5818	59263.45	58367.05
914.132	1796.2621	58617.95	57726.05
914.2724	1797.9415	58712.5	57820.3
914.4128	1799.6202	58594.2	57700.25
914.5531	1801.2982	58683	57790.35
914.6934	1802.9755	57991.1	57095.2
914.8337	1804.6519	57784.8	56889.95
914.9739	1806.3277	58611.8	57718.6
915.1142	1808.0027	57186.6	56293.25
915.2544	1809.6769	57587.05	56693.55
915.3946	1811.3504	57792.3	56897.9
915.5348	1813.0231	56728.35	55833.8
915.675	1814.6951	57369.5	56477.85
915.8151	1816.3664	56940.1	56043.05
915.9553	1818.0369	56991.35	56096.45
916.0954	1819.7067	56662.8	55770.7
916.2355	1821.3757	57169.85	56273.2
916.3755	1823.044	56230.3	55337.35
916.5156	1824.7115	56064.35	55168.95
916.6556	1826.3783	56170.85	55278.2
916.7956	1828.0443	56123.75	55232.8
916.9356	1829.7096	55780.45	54886.5
917.0756	1831.3741	55401.35	54506.45
917.2155	1833.0379	55578.55	54683.75
917.3555	1834.701	55456.2	54562.6
917.4954	1836.3633	55036.1	54144.25
917.6353	1838.0248	55241.1	54346.45
917.7751	1839.6856	55055.4	54163.95
917.915	1841.3457	54647.75	53755.25
918.0548	1843.005	55041.45	54149.5
918.1946	1844.6636	54723.65	53831.2
918.3344	1846.3214	54202.6	53309.8
918.4742	1847.9785	54317.1	53424.15
918.6139	1849.6349	54235.8	53341
918.7537	1851.2904	54401.7	53499.6
918.8934	1852.9453	53870.6	52978.2
919.0331	1854.5994	53921.75	53023.65
919.1727	1856.2528	53957.25	53059.1
919.3124	1857.9054	53598.2	52704.75
919.452	1859.5572	53405.85	52511.85
919.5916	1861.2083	53487.1	52593.7
919.7312	1862.8587	53801.05	52906.3
919.8708	1864.5084	52865.4	51974.35
920.0103	1866.1572	53106.8	52212.9
920.1498	1867.8054	52599.7	51706.4
920.2893	1869.4528	52894.55	52001.3
920.4288	1871.0994	52340.2	51446.5
920.5683	1872.7453	52317.95	51423.8
920.7077	1874.3905	52355.3	51457.3
920.8471	1876.0349	52022.05	51126.35
920.9865	1877.6786	52159.05	51264.45
921.1259	1879.3215	51959.5	51067.15
921.2653	1880.9637	52052.95	51160.15
921.4046	1882.6051	51739.3	50846.1
921.5439	1884.2458	51537.45	50641.85
921.6832	1885.8858	51295.5	50404.1
921.8225	1887.525	51346.2	50451.8
921.9617	1889.1634	51108.55	50216.4
922.101	1890.8011	50949.4	50053.35
922.2402	1892.4381	50546.3	49653.4
922.3794	1894.0743	50851	49956.8
922.5185	1895.7098	50622.65	49727.8
922.6577	1897.3446	50370.05	49476.15
922.7968	1898.9786	50313	49414.95
922.9359	1900.6118	50161.3	49267.6
923.075	1902.2443	49834.25	48937.95
923.214	1903.8761	49867.2	48974.95
923.3531	1905.5071	49555.6	48662.65
923.4921	1907.1374	49155.2	48260.3
923.6311	1908.7669	49250.35	48357.7
923.77	1910.3957	49295.85	48401.4
923.909	1912.0237	48828.55	47933
924.0479	1913.651	48721.85	47827.3
924.1868	1915.2776	48570.55	47680.7
924.3257	1916.9034	48377.35	47483.25
924.4646	1918.5285	48192.65	47301.5
924.6034	1920.1528	48024.35	47131.7
924.7422	1921.7764	47922.75	47031.6
924.881	1923.3992	47719.9	46829.65
925.0198	1925.0213	47335.35	46441.8
925.1586	1926.6427	47172.1	46279.15
925.2973	1928.2633	47212.4	46209.25
925.436	1929.8832	46977.9	46084.2
925.5747	1931.5023	46799.9	45908.45
925.7134	1933.1207	46670.35	45779.55
925.852	1934.7383	46591.75	45698.25
925.9906	1936.3552	46429.75	45536.7
926.1292	1937.9714	46279.85	45386.5
926.2678	1939.5868	46039.05	45144.4
926.4064	1941.2015	45806.5	44911.95
926.5449	1942.8154	45638.85	44747.6
926.6834	1944.4286	45436.8	44545.2
926.8219	1946.041	45288.15	44377.7
926.9604	1947.6528	45048	44152.3
927.0988	1949.2637	44937.7	44044
927.2372	1950.8739	44783.45	43888.8
927.3756	1952.4834	44714.45	43821.8
927.514	1954.0921	44584.85	43692.65
927.6523	1955.7001	44379.15	43483.1
927.7907	1957.3074	44215.95	43324.4
927.929	1958.9139	44063.5	43172.45
928.0673	1960.5197	43978.45	43084.65
928.2055	1962.1247	43760.45	42867.9
928.3438	1963.729	43551.25	42657.5
928.482	1965.3325	43365.95	42449.55
928.6202	1966.9353	43230.75	42339.05
928.7584	1968.5374	43031.6	42137.5
928.8965	1970.1387	42876.9	41986.15
929.0346	1971.7393	42749.45	41857.15
929.1727	1973.3392	42597.7	41704.1
929.3108	1974.9383	42440.85	41551.15
929.4489	1976.5366	42318.15	41426.8
929.5869	1978.1342	42238.2	41342.85
929.7249	1979.7311	42095.05	41204.45
929.8629	1981.3273	42036.9	41142.4
930.0009	1982.9227	41807.8	40914.9
930.1388	1984.5173	41632.45	40742.25
930.2767	1986.1112	41498.55	40607.95
930.4146	1987.7044	41425.45	40533.45
930.5525	1989.2968	41211.8	40319.05
930.6904	1990.8885	41132.65	40237
930.8282	1992.4795	41052.95	40160.65
930.966	1994.0697	40848.2	39954.25
931.1038	1995.6592	40749.05	39857.05
931.2415	1997.2479	40614.2	39723.7
931.3793	1998.8359	40441.8	39551.45
931.517	2000.4232	40271.7	39382.05
931.6547	2002.0097	40134.5	39244.4
931.7923	2003.5955	39931.55	39041.7
931.93	2005.1805	39892.9	38997.45
932.0676	2006.7648	39816.7	38923.6
932.2052	2008.3484	39639.75	38747.1
932.3427	2009.9312	39622.7	38730.4
932.4803	2011.5133	39407.6	38518.45
932.6178	2013.0946	39317.6	38427.85
932.7553	2014.6752	39232	38341.25
932.8928	2016.2551	39086.3	38196.5
933.0302	2017.8342	38916.2	38024.55
933.1676	2019.4126	38779.8	37888.5
933.305	2020.9902	38614.05	37724.2
933.4424	2022.5672	38537.85	37645.85
933.5798	2024.1433	38495.15	37600.15
933.7171	2025.7188	38338.65	37447.65
933.8544	2027.2935	38194.25	37302.85
933.9917	2028.8674	38024.35	37135.35
934.129	2030.4406	37898.4	37010.4
934.2662	2032.0131	37711.45	36821.2
934.4034	2033.5849	37630.35	36734.55
934.5406	2035.1559	37543.3	36652.25
934.6778	2036.7261	37465.45	36574.5
934.8149	2038.2957	37339.45	36448.25
934.952	2039.8645	37305.4	36413.95
935.0891	2041.4325	37263.75	36369.55
935.2262	2042.9998	37054.4	36162.5
935.3632	2044.5664	36976.55	36085.65
935.5002	2046.1323	36844.9	35955.65
935.6372	2047.6974	36728.35	35838.1
935.7742	2049.2617	36643.65	35753.05
935.9111	2050.8254	36584.25	35671.5
936.048	2052.3883	36470	35577.15
936.1849	2053.9504	36388.15	35496.05
936.3218	2055.5118	36241.65	35350.3
936.4586	2057.0725	36040.05	35145.35
936.5955	2058.6325	35995.85	35104.45
936.7323	2060.1917	35873.85	34985.9
936.869	2061.7502	35771.45	34878.3
937.0058	2063.3079	35684.45	34794.7
937.1425	2064.8649	35503.05	34608.5
937.2792	2066.4212	35407	34514.15
937.4159	2067.9767	35329	34439.2
937.5525	2069.5315	35168.95	34277.05
937.6891	2071.0856	34959.15	34068.25
937.8257	2072.6389	34858.2	33966.15
937.9623	2074.1915	34681.75	33793.7
938.0989	2075.7433	34474.45	33582.85
938.2354	2077.2945	34429.95	33540.5
938.3719	2078.8448	34290.95	33401.6
938.5084	2080.3945	34231.3	33342.2
938.6448	2081.9434	34152.85	33261.35
938.7812	2083.4916	34047.9	33155.7
938.9176	2085.039	33846.15	32953.15
939.054	2086.5857	33835.3	32939.8
939.1903	2088.1317	33749.2	32856.1
939.3267	2089.677	33623	32731.45
939.463	2091.2215	33551.15	32662.55
939.5992	2092.7652	33444.4	32551.3
939.7355	2094.3083	33339.05	32448
939.8717	2095.8506	33268.4	32375.9
940.0079	2097.3921	33254.7	32363.95
940.1441	2098.933	33101.35	32211
940.2802	2100.4731	32974.1	32082.55
940.4163	2102.0124	32941.5	32042.5
940.5524	2103.5511	32800.25	31911.55
940.6885	2105.089	32795.75	31903.95
940.8245	2106.6261	32707.85	31817.35
940.9606	2108.1626	32593.6	31702.8
941.0965	2109.6983	32557.65	31637.9
941.2325	2111.2332	32468.05	31576.45
941.3684	2112.7675	32297.85	31406.65
941.5044	2114.301	32172.25	31278.4
941.6403	2115.8337	32157.4	31265.5
941.7761	2117.3657	32052.15	31162.45
941.912	2118.897	32024.5	31133.8
942.0478	2120.4276	31883.4	30985.85
942.1835	2121.9575	31704.35	30813.7
942.3193	2123.4866	31685.9	30779.05
942.455	2125.0149	31583.15	30689.65
942.5907	2126.5426	31338.4	30448.15
942.7264	2128.0695	31371.15	30475.9
942.8621	2129.5956	31245.4	30356.7
942.9977	2131.1211	31193.95	30298.8
943.1333	2132.6458	31147.1	30257.1
943.2689	2134.1698	30976.4	30086.9
943.4044	2135.693	30922.35	30028.95
943.54	2137.2155	30838.35	29944.05
943.6755	2138.7373	30726.8	29833.45
943.8109	2140.2584	30669.25	29778.6
943.9464	2141.7787	30538.85	29644.4
944.0818	2143.2983	30372.4	29483
944.2172	2144.8171	30191.6	29301.45
944.3526	2146.3353	30184.3	29291.85
944.4879	2147.8527	30004.6	29114.75
944.6232	2149.3693	30020.9	29131.05
944.7585	2150.8853	29857.75	28966.05
944.8938	2152.4005	29706.25	28814.6
945.029	2153.9149	29671.15	28779.05
945.1642	2155.4287	29595.6	28704.95
945.2994	2156.9417	29525.7	28632.7
945.4346	2158.454	29430.4	28536.15
945.5697	2159.9655	29344.8	28454.85
945.7048	2161.4764	29297.4	28407.3
945.8399	2162.9865	29235.55	28344.55
945.9749	2164.4958	29115.75	28223.7
946.1099	2166.0045	29010.95	28117.95
946.2449	2167.5124	28958.05	28068.25
946.3799	2169.0195	28886.95	27996.8
946.5148	2170.526	28832.95	27940.85
946.6498	2172.0317	28759.9	27868.95
946.7846	2173.5367	28634.35	27742.1
946.9195	2175.0409	28581.55	27691.1
947.0543	2176.5445	28511.25	27619.8
947.1891	2178.0473	28335.4	27443.65
947.3239	2179.5494	28279.9	27384.6
947.4587	2181.0507	28186.85	27293.85
947.5934	2182.5513	28057.4	27164
947.7281	2184.0512	28019.8	27128.45
947.8628	2185.5504	27899.8	27008.15
947.9974	2187.0488	27757.5	26866.8
948.132	2188.5465	27690.1	26798.3
948.2666	2190.0435	27554.5	26661.85
948.4012	2191.5397	27449.65	26560.3
948.5357	2193.0353	27398.9	26508.45
948.6702	2194.5301	27256.25	26364.65
948.8047	2196.0241	27152.8	26259.9
948.9392	2197.5175	27088.35	26196.1
949.0736	2199.0101	26949.95	26055.05
949.208	2200.502	26844.75	25954.5
949.3424	2201.9931	26752.75	25862.1
949.4767	2203.4835	26649.05	25759.15
949.611	2204.9733	26590	25690.1
949.7453	2206.4622	26525.55	25635.7
949.8796	2207.9505	26395.3	25501.8
950.0138	2209.438	26263.2	25372.9
950.148	2210.9248	26173.2	25281
950.2822	2212.4109	26088.4	25197.45
950.4164	2213.8962	25990.1	25096.05
950.5505	2215.3809	25931.15	25040
950.6846	2216.8648	25890.55	24997.85
950.8186	2218.3479	25786.45	24891.2
950.9527	2219.8304	25683.6	24788.7
951.0867	2221.3121	25570.75	24677.35
951.2207	2222.7931	25527.6	24636.25
951.3546	2224.2733	25407.1	24517.75
951.4886	2225.7529	25304.45	24412.05
951.6225	2227.2317	25223.3	24328.1
951.7563	2228.7098	25193.1	24303.65
951.8902	2230.1872	25075.65	24184.9
952.024	2231.6638	24981.15	24090.65
952.1578	2233.1397	24889.15	23991.75
952.2916	2234.6149	24818.15	23928.1
952.4253	2236.0894	24714.2	23821.15
952.559	2237.5632	24661.6	23768.4
952.6927	2239.0362	24508.45	23618.05
952.8263	2240.5085	24462.95	23572.85
952.9599	2241.9801	24297.95	23406.7
953.0935	2243.4509	24265.25	23375.8
953.2271	2244.921	24168.85	23275.7
953.3606	2246.3904	24122.25	23226.05
953.4941	2247.8591	24025.4	23135.3
953.6276	2249.3271	24006.15	23115.6
953.7611	2250.7943	23882.35	22992.35
953.8945	2252.2608	23795.25	22904.5
954.0279	2253.7266	23706.95	22818.05
954.1612	2255.1917	23648.3	22756.6
954.2946	2256.656	23565.25	22671.55
954.4279	2258.1197	23506.35	22615.4
954.5612	2259.5826	23433.6	22541.55
954.6944	2261.0447	23373.15	22478.9
954.8276	2262.5062	23237	22345.1
954.9608	2263.9669	23207.7	22314.85
955.094	2265.4269	23162	22272.45
955.2271	2266.8862	23086.65	22196.6
955.3602	2268.3448	23029.45	22138.35
955.4933	2269.8026	22977	22086.05
955.6264	2271.2598	22904.8	22012.85
955.7594	2272.7162	22806.7	21916.05
955.8924	2274.1719	22709.15	21817
956.0253	2275.6268	22652.15	21760.85
956.1583	2277.0811	22628.7	21737.6
956.2912	2278.5346	22517.1	21627.05
956.4241	2279.9874	22470.2	21578.45
956.5569	2281.4395	22430.65	21540.6
956.6897	2282.8908	22310.5	21413.8
956.8225	2284.3414	22307.8	21415.7
956.9553	2285.7914	22211.1	21321.15
957.088	2287.2406	22130.1	21235.1
957.2207	2288.689	22071.05	21180.3
957.3534	2290.1368	21971.05	21080.4
957.486	2291.5838	21892.95	21001.2
957.6186	2293.0302	21836.9	20945.2
957.7512	2294.4758	21716.8	20824.75
957.8838	2295.9206	21635.5	20742.1
958.0163	2297.3648	21595.15	20705.1
958.1488	2298.8082	21584.25	20693.85
958.2813	2300.251	21525.8	20635.6
958.4137	2301.693	21449.05	20555.2
958.5461	2303.1343	21418.6	20525.35
958.6785	2304.5748	21308.1	20415.5
958.8108	2306.0147	21237.75	20345.9
958.9432	2307.4538	21187.85	20293.55
959.0754	2308.8922	21089.15	20200.1
959.2077	2310.3299	21013.1	20123.85
959.3399	2311.7669	20966.45	20074.3
959.4721	2313.2031	20894.3	20003.05
959.6043	2314.6387	20767	19875.45
959.7365	2316.0735	20736.3	19845.4
959.8686	2317.5076	20662.7	19771.85
960.0006	2318.941	20610.5	19718.7
960.1327	2320.3737	20549.15	19656.4
960.2647	2321.8056	20449.6	19554.4
960.3967	2323.2369	20414.55	19524.6
960.5287	2324.6674	20357.4	19464.4
960.6606	2326.0972	20266.15	19371.3
960.7925	2327.5263	20206.3	19315.8
960.9244	2328.9547	20107.65	19216.35
961.0562	2330.3823	20066.95	19174.75
961.1881	2331.8092	20060.7	19163.8
961.3198	2333.2355	19935.3	19042.75
961.4516	2334.661	19889.65	18994.5
961.5833	2336.0858	19889.55	18997.15
961.715	2337.5098	19834	18943.65
961.8467	2338.9332	19765.6	18873.7
961.9783	2340.3558	19681.7	18788.6
962.1099	2341.7778	19613.65	18722.65
962.2415	2343.199	19520.65	18627.25
962.373	2344.6195	19429.9	18539.7
962.5045	2346.0393	19410.3	18519.05
962.636	2347.4583	19362.45	18471.45
962.7675	2348.8767	19279.65	18387.35
962.8989	2350.2943	19226.5	18334.85
963.0303	2351.7113	19185.35	18293.55
963.1617	2353.1275	19116.05	18224.4
963.293	2354.543	19064.05	18163.55
963.4243	2355.9578	19006.15	18115.45
963.5556	2357.3718	18874.55	17983.5
963.6868	2358.7852	18793.4	17897.45
963.818	2360.1978	18777.4	17885.8
963.9492	2361.6098	18701.65	17811.85
964.0803	2363.021	18626.45	17730.35
964.2114	2364.4315	18563.5	17673.1
964.3425	2365.8413	18499.9	17609.3
964.4736	2367.2504	18417.75	17528.25
964.6046	2368.6587	18354.25	17463.25
964.7356	2370.0664	18233.25	17343.6
964.8666	2371.4733	18240.85	17350.2
964.9975	2372.8795	18158.25	17268.7
965.1284	2374.285	18070.85	17180.4
965.2593	2375.6899	18000.25	17108.75
965.3901	2377.0939	17936.2	17045
965.5209	2378.4973	17830.5	16941.8
965.6517	2379.9	17750.1	16858.75
965.7825	2381.3019	17702.95	16814.15
965.9132	2382.7032	17666.8	16775.9
966.0439	2384.1037	17604.85	16715.45
966.1745	2385.5035	17554	16664.4
966.3051	2386.9027	17468.55	16578.45
966.4357	2388.3011	17468.25	16573.25
966.5663	2389.6987	17387.75	16494.05
966.6968	2391.0957	17306.2	16417.55
966.8273	2392.492	17191.15	16301.7
966.9578	2393.8876	17108.75	16219
967.0882	2395.2824	17035.3	16145.2
967.2186	2396.6765	16986.1	16096.95
967.349	2398.07	16912.25	16024.05
967.4793	2399.4627	16865.9	15973.6
967.6097	2400.8547	16832.15	15941.1
967.7399	2402.246	16758.55	15860.15
967.8702	2403.6366	16654.3	15760
968.0004	2405.0265	16584.6	15695.15
968.1306	2406.4156	16536.65	15642.5
968.2607	2407.8041	16451.5	15558.6
968.3909	2409.1918	16418.45	15526.8
968.521	2410.5789	16315.7	15424.75
968.651	2411.9652	16255.6	15361.65
968.781	2413.3508	16212.85	15322.7
968.911	2414.7358	16144.3	15252.35
969.041	2416.12	16093.75	15204.1
969.1709	2417.5035	16033.6	15144.6
969.3008	2418.8863	16008.95	15117.65
969.4307	2420.2684	15964.85	15074.35
969.5606	2421.6497	15862.4	14971.9
969.6904	2423.0304	15715.35	14826.65
969.8201	2424.4104	15715.55	14826
969.9499	2425.7896	15642.6	14750.05
970.0796	2427.1682	15630.95	14739.3
970.2093	2428.546	15575.2	14683
970.3389	2429.9232	15517.25	14625.35
970.4685	2431.2996	15515.75	14626.3
970.5981	2432.6753	15453.45	14563.15
970.7277	2434.0503	15426.6	14536.75
970.8572	2435.4246	15308.2	14416.3
970.9867	2436.7982	15256.55	14364.95
971.1161	2438.1711	15254.35	14363.35
971.2456	2439.5433	15208	14315.6
971.375	2440.9148	15139.25	14244.1
971.5043	2442.2856	15022.5	14132
971.6336	2443.6557	14998.4	14105.25
971.7629	2445.025	14925.8	14034.4
971.8922	2446.3937	14919.3	14026.55
972.0214	2447.7617	14843.65	13951.3
972.1506	2449.1289	14853.7	13962.75
972.2798	2450.4955	14776.9	13881.75
972.4089	2451.8613	14722.7	13832.1
972.538	2453.2265	14692.65	13800.9
972.6671	2454.5909	14656.8	13765.75
972.7961	2455.9546	14631.1	13740.95
972.9251	2457.3177	14531.25	13642
973.0541	2458.68	14505.9	13615.1
973.1831	2460.0416	14494.8	13603.9
973.312	2461.4025	14468.65	13576
973.4408	2462.7627	14420.4	13520.2
973.5697	2464.1222	14340.9	13452.3
973.6985	2465.4811	14294.15	13403.35
973.8273	2466.8392	14239.1	13346.8
973.956	2468.1966	14196.95	13304.05
974.0847	2469.5533	14229.5	13336.55
974.2134	2470.9093	14188.15	13297.25
974.3421	2472.2645	14091.7	13200.3
974.4707	2473.6191	14054.1	13164.75
974.5993	2474.973	13999.55	13110.9
974.7278	2476.3262	13956.5	13065.3
974.8563	2477.6787	13876.65	12985.55
974.9848	2479.0305	13813.55	12924
975.1132	2480.3816	13785.15	12892.7
975.2417	2481.7319	13732.15	12842
975.37	2483.0816	13649	12755.25
975.4984	2484.4306	13633.85	12740.35
975.6267	2485.7789	13567	12677.3
975.755	2487.1264	13515.4	12624.25
975.8833	2488.4733	13452.1	12561.8
976.0115	2489.8195	13395.7	12487.9
976.1397	2491.165	13338.8	12445.7
976.2678	2492.5097	13299.8	12407.1
976.3959	2493.8538	13224.75	12335.15
976.524	2495.1972	13181.75	12291.25
976.6521	2496.5398	13137.2	12246.5
976.7801	2497.8818	13103.6	12210.05
976.9081	2499.2231	13054	12162.1
977.036	2500.5637	12995.4	12101.8
977.164	2501.9035	12971.45	12078.3
977.2918	2503.2427	12910.25	12014.65
977.4197	2504.5812	12871.45	11982.05
977.5475	2505.919	12844.3	11950.75
977.6753	2507.256	12821.35	11928.65
977.8031	2508.5924	12728.05	11837.9
977.9308	2509.9281	12697.6	11802.05
978.0585	2511.2631	12666.7	11775.05
978.1861	2512.5974	12649.3	11757.4
978.3137	2513.9309	12574.5	11683.25
978.4413	2515.2638	12541.8	11623.95
978.5689	2516.596	12523.6	11634.35
978.6964	2517.9275	12425.15	11534.5
978.8239	2519.2583	12403.05	11511.95
978.9513	2520.5884	12304.55	11411.65
979.0788	2521.9178	12287.45	11396.4
979.2062	2523.2465	12274.7	11384
979.3335	2524.5745	12181.7	11291.8
979.4608	2525.9018	12172.55	11281.1
979.5881	2527.2284	12113.4	11223.9
979.7154	2528.5543	12068.85	11178.8
979.8426	2529.8796	12047.6	11157
979.9698	2531.2041	12030.95	11139.8
980.0969	2532.5279	11997.6	11107.25
980.224	2533.851	11984.25	11091.2
980.3511	2535.1735	11915.75	11027.45
980.4781	2536.4952	11918.45	11027.85
980.6052	2537.8163	11870.4	10976.95
980.7321	2539.1366	11819.35	10929.3
980.8591	2540.4562	11778.5	10886.05
980.986	2541.7752	11744.65	10853.85
981.1129	2543.0935	11739.45	10846.65
981.2397	2544.411	11702.25	10809.05
981.3665	2545.7279	11691.15	10800.8
981.4933	2547.0441	11662.55	10773.05
981.62	2548.3596	11649.5	10757.35
981.7467	2549.6744	11608.75	10716.8
981.8734	2550.9885	11553.15	10654.15
982.0001	2552.3019	11514.4	10624.05
982.1267	2553.6146	11472.45	10581.65
982.2532	2554.9266	11449.4	10558.35
982.3798	2556.2379	11407.45	10514.1
982.5063	2557.5485	11408.55	10518.45
982.6327	2558.8585	11378.4	10480
982.7592	2560.1677	11338.8	10442.4
982.8856	2561.4762	11292.75	10402.15
983.0119	2562.7841	11260.7	10367.3
983.1383	2564.0913	11241.05	10353
983.2646	2565.3977	11248.4	10357.15
983.3908	2566.7035	11186.45	10296.2
983.517	2568.0086	11177.45	10286.65
983.6432	2569.313	11146.2	10252.95
983.7694	2570.6167	11132.95	10239
983.8955	2571.9197	11087.6	10196.5
984.0216	2573.222	11073.65	10180.6
984.1476	2574.5236	11030.05	10137.75
984.2737	2575.8246	11006.55	10113.3
984.3996	2577.1248	10996.75	10103.7
984.5256	2578.4244	10948.65	10059.35
984.6515	2579.7232	10932.35	10043.1
984.7774	2581.0214	10942.85	10028.55
984.9032	2582.3189	10901.9	10013.55
985.029	2583.6157	10887.25	9992.9
985.1548	2584.9118	10832.3	9942.25
985.2806	2586.2072	10826.05	9935.85
985.4063	2587.5019	10766.2	9874.7
985.5319	2588.7959	10751.95	9860.45
985.6576	2590.0893	10728.1	9836.4
985.7832	2591.3819	10687.35	9797.55
985.9087	2592.6739	10646.3	9756.4
986.0343	2593.9652	10602.55	9710.6
986.1597	2595.2557	10578.05	9688.55
986.2852	2596.5456	10516	9620.9
986.4106	2597.8348	10489	9597.65
986.536	2599.1234	10435.45	9545
986.6614	2600.4112	10416.75	9526.7
986.7867	2601.6983	10383.6	9488.8
986.912	2602.9848	10368.25	9479
987.0372	2604.2705	10300.75	9404.35
987.1624	2605.5556	10284.65	9393.5
987.2876	2606.84	10235.05	9345.45
987.4128	2608.1237	10197.25	9307.3
987.5379	2609.4067	10142.75	9252.1
987.6629	2610.689	10115.85	9214.45
987.788	2611.9707	10084.85	9190.45
987.913	2613.2516	10052.25	9157.15
988.0379	2614.5319	9982.85	9092.85
988.1629	2615.8115	9969.85	9079.35
988.2878	2617.0903	9915.55	9023.45
988.4126	2618.3685	9886.95	8996.55
988.5375	2619.6461	9860.1	8969.9
988.6622	2620.9229	9828.25	8938.85
988.787	2622.199	9788.15	8895.55
988.9117	2623.4745	9743.7	8850.55
989.0364	2624.7493	9717.7	8827.8
989.161	2626.0234	9695.25	8805.1
989.2857	2627.2968	9638.8	8748.95
989.4102	2628.5695	9619.1	8726.9
989.5348	2629.8415	9576.85	8688.45
989.6593	2631.1128	9524.05	8632
989.7837	2632.3835	9490.4	8599.3
989.9082	2633.6535	9459.25	8568.8
990.0326	2634.9228	9411.55	8520.75
990.1569	2636.1914	9414.5	8523.75
990.2812	2637.4593	9376.6	8481.95
990.4055	2638.7265	9321.55	8428.7
990.5298	2639.9931	9289.9	8399
990.654	2641.259	9287.25	8395.5
990.7782	2642.5242	9230.35	8337.8
990.9023	2643.7887	9212.7	8321.95
991.0264	2645.0525	9187	8299.35
991.1505	2646.3156	9166.1	8274.75
991.2745	2647.5781	9116.15	8226.35
991.3985	2648.8398	9101.3	8211.5
991.5225	2650.1009	9056	8156
991.6464	2651.3613	9016.45	8123.7
991.7703	2652.6211	9011.2	8120.75
991.8942	2653.8801	8971.25	8079.5
992.018	2655.1385	8946.3	8053.7
992.1418	2656.3961	8928.95	8038.75
992.2655	2657.6531	8935.75	8045.7
992.3892	2658.9094	8890.7	8001
992.5129	2660.1651	8835.4	7943.85
992.6366	2661.42	8830.2	7939.6
992.7602	2662.6743	8800.95	7908.8
992.8837	2663.9279	8793	7903.6
993.0073	2665.1808	8759.45	7867.8
993.1307	2666.433	8741.65	7849.45
993.2542	2667.6846	8698.2	7808.05
993.3776	2668.9354	8687.4	7793.55
993.501	2670.1856	8686	7795.5
993.6244	2671.4351	8641.3	7752.05
993.7477	2672.6839	8597	7704.5
993.8709	2673.9321	8580.8	7690.25
993.9942	2675.1795	8563	7674.4
994.1174	2676.4263	8550.25	7660.7
994.2405	2677.6724	8518.8	7629.45
994.3637	2678.9179	8481.45	7589.1
994.4868	2680.1626	8466.9	7577.4
994.6098	2681.4067	8450.6	7558
994.7328	2682.6501	8417.6	7527.55
994.8558	2683.8928	8370.2	7481.55
994.9788	2685.1348	8355.8	7465.1
995.1017	2686.3761	8312	7422.65
995.2245	2687.6168	8291.85	7400.6
995.3474	2688.8568	8279.6	7387.25
995.4702	2690.0961	8206.1	7315.05
995.5929	2691.3348	8202.65	7312.1
995.7156	2692.5727	8179.8	7289.15
995.8383	2693.81	8160.65	7270.25
995.961	2695.0466	8126.65	7239.1
996.0836	2696.2826	8088.05	7195.85
996.2062	2697.5178	8079.1	7185.95
996.3287	2698.7524	8041.15	7150.1
996.4512	2699.9863	8021.1	7127.95
996.5737	2701.2195	8000.05	7108.55
996.6961	2702.452	7984.65	7092.15
996.8185	2703.6839	7951.4	7059.65
996.9408	2704.9151	7935.25	7046.3
997.0631	2706.1456	7906.65	7015.9
997.1854	2707.3755	7872.95	6982.55
997.3077	2708.6046	7866.3	6973.4
997.4299	2709.8331	7855	6965.15
997.552	2711.0609	7793.9	6903.1
997.6742	2712.2881	7792.3	6901
997.7963	2713.5145	7781.75	6888.85
997.9183	2714.7403	7758.45	6870.4
998.0403	2715.9654	7716.7	6826.95
998.1623	2717.1899	7726.7	6822.45
998.2842	2718.4136	7694.1	6806.45
998.4062	2719.6367	7697.65	6807.6
998.528	2720.8591	7670.1	6772.65
998.6498	2722.0809	7658.1	6768.8
998.7716	2723.3019	7622.65	6727.65
998.8934	2724.5223	7610	6719.4
999.0151	2725.7421	7586.5	6696.4
999.1368	2726.9611	7568.7	6676.65
999.2584	2728.1795	7530.55	6637
999.38	2729.3972	7505.75	6616.25
999.5016	2730.6142	7483.7	6580.45
999.6231	2731.8306	7433.85	6542
999.7446	2733.0462	7384.15	6491.15
999.8661	2734.2612	7362.1	6467.65
999.9875	2735.4756	7333.7	6442
1000.1089	2736.6892	7271.1	6379.6
1000.2302	2737.9022	7216	6326.25
1000.3515	2739.1145	7182.4	6291.9
1000.4728	2740.3262	7160.15	6261.15
1000.594	2741.5372	7099.1	6208.5
1000.7152	2742.7475	7062	6171.7
1000.8363	2743.9571	7044.55	6152.4
1000.9575	2745.1661	7042.05	6146.85
1001.0785	2746.3744	6996.9	6108.2
1001.1996	2747.582	6966.2	6076.3
1001.3206	2748.7889	6920.05	6028.25
1001.4415	2749.9952	6899.25	6010.65
1001.5625	2751.2008	6877.45	5986.5
1001.6833	2752.4057	6864.55	5971.85
1001.8042	2753.61	6835.1	5943.45
1001.925	2754.8136	6811	5919.7
1002.0458	2756.0165	6785.85	5895.3
1002.1665	2757.2188	6762.95	5873.2
1002.2872	2758.4204	6738.8	5847.95
1002.4078	2759.6213	6718.15	5825.4
1002.5285	2760.8215	6698.65	5801.95
1002.649	2762.0211	6682.45	5791.5
1002.7696	2763.22	6642.2	5748.85
1002.8901	2764.4182	6636.7	5744.85
1003.0106	2765.6158	6618.35	5726.85
1003.131	2766.8127	6588.65	5698.2
1003.2514	2768.009	6564.55	5671.9
1003.3717	2769.2045	6536.3	5644.55
1003.492	2770.3994	6533.65	5642.85
1003.6123	2771.5936	6498.7	5606.05
1003.7325	2772.7872	6471.75	5582.3
1003.8527	2773.9801	6443.95	5554.45
1003.9729	2775.1723	6416.75	5508.85
1004.093	2776.3639	6385.75	5496.3
1004.2131	2777.5548	6375.95	5482.4
1004.3331	2778.745	6354.6	5462
1004.4531	2779.9346	6329.85	5440.6
1004.5731	2781.1235	6333.8	5441.7
1004.693	2782.3117	6312.95	5422.4
1004.8129	2783.4992	6281.9	5391
1004.9328	2784.6861	6254.8	5365.1
1005.0526	2785.8723	6258.15	5366.45
1005.1723	2787.0579	6257.25	5367.65
1005.2921	2788.2428	6201.6	5311.85
1005.4118	2789.427	6198.4	5308.9
1005.5314	2790.6106	6194.35	5303.8
1005.651	2791.7935	6180.75	5290.5
1005.7706	2792.9757	6164.2	5275.35
1005.8902	2794.1573	6154.8	5262.55
1006.0097	2795.3382	6157.3	5267.1
1006.1291	2796.5184	6141.3	5251.5
1006.2485	2797.698	6146.15	5254.35
1006.3679	2798.8769	6110	5220.2
1006.4873	2800.0551	6105.35	5215.5
1006.6066	2801.2327	6093.55	5201.4
1006.7258	2802.4096	6104.3	5215.55
1006.8451	2803.5859	6107.6	5217.7
1006.9642	2804.7615	6094.95	5204.4
1007.0834	2805.9364	6102.6	5213.55
1007.2025	2807.1106	6141.25	5252
1007.3216	2808.2842	6124.05	5233.55
1007.4406	2809.4572	6126.5	5233.7
1007.5596	2810.6294	6162.5	5271.7
1007.6785	2811.801	6184.35	5293.75
1007.7975	2812.972	6204.4	5316.85
1007.9163	2814.1423	6231	5342
1008.0352	2815.3119	6266.2	5378
1008.154	2816.4808	6299.35	5409.8
1008.2727	2817.6491	6315.5	5425.95
1008.3914	2818.8167	6350.45	5461.2
1008.5101	2819.9837	6389.35	5494.45
1008.6288	2821.15	6416.5	5526.05
1008.7474	2822.3157	6430.45	5542
1008.8659	2823.4807	6471.3	5580.9
1008.9844	2824.645	6503.5	5613.35
1009.1029	2825.8086	6517.6	5628.15
1009.2214	2826.9716	6569.45	5679.95
1009.3398	2828.134	6592.7	5702.45
1009.4581	2829.2957	6631.45	5739.55
1009.5764	2830.4567	6617.95	5728
1009.6947	2831.617	6617.6	5726.85
1009.813	2832.7767	6628.4	5737.5
1009.9312	2833.9358	6625.35	5736.55
1010.0493	2835.0941	6590.45	5700.3
1010.1675	2836.2519	6588.9	5699.8
1010.2855	2837.4089	6548.85	5658.25
1010.4036	2838.5653	6536.45	5644.5
1010.5216	2839.7211	6521.65	5633.6
1010.6396	2840.8761	6504.35	5610.5
1010.7575	2842.0306	6514.05	5625.35
1010.8754	2843.1843	6555.8	5667.05
1010.9932	2844.3374	6602.5	5712.7
1011.111	2845.4899	6628.25	5737.8
1011.2288	2846.6417	6691.2	5802.65
1011.3465	2847.7928	6730.6	5841.2
1011.4642	2848.9433	6806.4	5917.15
1011.5818	2850.0931	6849.5	5959
1011.6995	2851.2422	6937.85	6046.15
1011.817	2852.3907	6980.75	6088.35
1011.9345	2853.5385	7055.25	6165.25
1012.052	2854.6857	7084.25	6170.95
1012.1695	2855.8323	7096.2	6207.15
1012.2869	2856.9781	7142.75	6253.2
1012.4042	2858.1233	7178.8	6291
1012.5216	2859.2679	7210.8	6322.25
1012.6389	2860.4118	7245.4	6356.05
1012.7561	2861.555	7260.1	6365.6
1012.8733	2862.6976	7262.1	6369.15
1012.9905	2863.8395	7280.3	6390.25
1013.1076	2864.9808	7287.05	6397.7
1013.2247	2866.1214	7289.85	6402.45
1013.3417	2867.2614	7290.3	6400.55
1013.4587	2868.4007	7291.4	6400.8
1013.5757	2869.5393	7257.8	6365.3
1013.6926	2870.6773	7277.85	6386.65
1013.8095	2871.8146	7285.35	6392.25
1013.9263	2872.9513	7261.3	6370.1
1014.0431	2874.0874	7219.05	6329.6
1014.1599	2875.2227	7197.1	6306.75
1014.2766	2876.3574	7168.65	6277.95
1014.3933	2877.4915	7134.1	6243.9
1014.51	2878.6249	7072.1	6183.85
1014.6266	2879.7577	7043.75	6154.1
1014.7431	2880.8898	7001.25	6101.8
1014.8596	2882.0212	6961.1	6072.1
1014.9761	2883.152	6954.75	6064.75
1015.0925	2884.2821	6903.25	6014.6
1015.2089	2885.4116	6896.8	6009.05
1015.3253	2886.5405	6873.15	5982.75
1015.4416	2887.6686	6875.5	5981.25
1015.5579	2888.7962	6864.95	5975.1
1015.6741	2889.923	6852.9	5963.35
1015.7903	2891.0493	6837.75	5950.8
1015.9065	2892.1748	6838.2	5949.1
1016.0226	2893.2997	6829.15	5939.15
1016.1387	2894.424	6830.4	5943.1
1016.2547	2895.5476	6825.5	5935.2
1016.3707	2896.6706	6849.2	5960.35
1016.4866	2897.7929	6848.3	5957.6
1016.6025	2898.9145	6863.6	5972.7
1016.7184	2900.0355	6875.25	5984.25
1016.8342	2901.1559	6897.25	6007.9
1016.95	2902.2756	6897.8	6008.15
1017.0658	2903.3946	6912.95	6025.3
1017.1815	2904.513	6926.35	6034.25
1017.2971	2905.6308	6949.85	6061.1
1017.4127	2906.7479	6969.3	6079.8
1017.5283	2907.8643	6943	6054.9
1017.6439	2908.9801	6958.2	6069.35
1017.7594	2910.0953	6959.15	6070.5
1017.8748	2911.2098	6940.2	6047.75
1017.9902	2912.3236	6918.55	6021.5
1018.1056	2913.4368	6886.75	5992.65
1018.2209	2914.5494	6866.85	5978.1
1018.3362	2915.6613	6821.35	5927.6
1018.4515	2916.7725	6784.85	5892.45
1018.5667	2917.8831	6742.7	5852.5
1018.6819	2918.9931	6705.65	5812.65
1018.797	2920.1024	6669.15	5779
1018.9121	2921.211	6642.85	5752.1
1019.0271	2922.319	6603	5713.6
1019.1421	2923.4264	6570.6	5680.4
1019.2571	2924.5331	6542.4	5654
1019.372	2925.6391	6494.85	5604.9
1019.4869	2926.7445	6498.4	5610.5
1019.6017	2927.8493	6499.95	5610
1019.7165	2928.9534	6471.05	5581.05
1019.8313	2930.0569	6448.3	5554.8
1019.946	2931.1597	6423.05	5532.5
1020.0606	2932.2619	6419.5	5529.6
1020.1753	2933.3634	6404.3	5516.1
1020.2899	2934.4643	6380.8	5485.65
1020.4044	2935.5645	6359.35	5463.85
1020.5189	2936.6641	6309.6	5415.6
1020.6334	2937.763	6221.75	5332.75
1020.7478	2938.8613	6196.7	5307.2
1020.8622	2939.959	6125.8	5229.6
1020.9765	2941.056	6025.9	5137.75
1021.0908	2942.1523	5928.25	5038.2
1021.2051	2943.248	5840.8	4951.5
1021.3193	2944.3431	5703.05	4814.75
1021.4334	2945.4375	5634.95	4744.9
1021.5476	2946.5313	5535.1	4646.35
1021.6617	2947.6244	5410.15	4521
1021.7757	2948.7169	5313.1	4424.05
1021.8897	2949.8087	5172.6	4284.75
1022.0037	2950.8999	5079.45	4188.5
1022.1176	2951.9904	5000.25	4112.15
1022.2315	2953.0803	4911.2	4020.5
1022.3453	2954.1696	4839.75	3949.25
1022.4591	2955.2582	4782.55	3893.5
1022.5728	2956.3462	4709.4	3819.8
1022.6865	2957.4335	4646.2	3757.3
1022.8002	2958.5202	4609.45	3718.1
1022.9138	2959.6062	4578.2	3689.9
1023.0274	2960.6916	4541.3	3652.1
1023.141	2961.7764	4498.65	3608.1
1023.2545	2962.8605	4472.6	3581.4
1023.3679	2963.9439	4455.7	3566
1023.4813	2965.0267	4439.45	3548.6
1023.5947	2966.1089	4432.55	3520.65
1023.708	2967.1905	4390.1	3501.1
1023.8213	2968.2714	4380.35	3489.85
1023.9346	2969.3516	4350.95	3462.3
1024.0478	2970.4312	4345.9	3450.2
1024.1609	2971.5102	4349.5	3458.45
1024.274	2972.5885	4327.9	3437.85
1024.3871	2973.6662	4323.95	3429.5
1024.5002	2974.7432	4312.85	3424.8
1024.6132	2975.8196	4287.1	3398.3
1024.7261	2976.8954	4281.95	3394.7
1024.839	2977.9705	4246.05	3356.65
1024.9519	2979.045	4231.55	3342.95
1025.0647	2980.1188	4195.15	3306
1025.1775	2981.192	4175.6	3287.75
1025.2902	2982.2645	4141.05	3251.95
1025.4029	2983.3364	4101.8	3211.8
1025.5156	2984.4077	4044.85	3153.75
1025.6282	2985.4783	4019.4	3123.75
1025.7407	2986.5483	3994.6	3106.1
1025.8532	2987.6177	3953.2	3064.35
1025.9657	2988.6864	3895	3006
1026.0782	2989.7545	3859.85	2968.8
1026.1906	2990.8219	3817.7	2929.15
1026.3029	2991.8887	3785.7	2895.2
1026.4152	2992.9548	3740.1	2849.6
1026.5275	2994.0204	3699.65	2811
1026.6397	2995.0852	3670.6	2782.1
1026.7519	2996.1495	3639.25	2748.7
1026.864	2997.2131	3598.75	2710.25
1026.9761	2998.276	3568.1	2679.3
1027.0882	2999.3383	3538.85	2649.95
1027.2002	3000.4	3502.4	2611.75
1027.3122	3001.4611	3491.15	2601.05
1027.4241	3002.5215	3470.9	2580.3
1027.536	3003.5812	3455.45	2565.65
1027.6478	3004.6404	3417.25	2526.95
1027.7596	3005.6989	3425.3	2531.75
1027.8714	3006.7567	3386.55	2496.6
1027.9831	3007.8139	3395.25	2485.4
1028.0947	3008.8705	3366.4	2477
1028.2064	3009.9264	3346.95	2455.55
1028.3179	3010.9818	3331.7	2442.4
1028.4295	3012.0364	3338.3	2450.25
1028.541	3013.0905	3315.85	2424.95
1028.6524	3014.1439	3302.35	2411.1
1028.7638	3015.1966	3291.2	2401.4
1028.8752	3016.2487	3282	2390.85
1028.9865	3017.3002	3277.7	2383.15
1029.0978	3018.3511	3263.65	2375.95
1029.209	3019.4013	3251.55	2362.5
1029.3202	3020.4509	3256.1	2366.25
1029.4314	3021.4998	3248.35	2358.9
1029.5425	3022.5481	3242	2353.85
1029.6535	3023.5958	3222.85	2334.25
1029.7645	3024.6428	3229.05	2338.05
1029.8755	3025.6892	3228.45	2338.95
1029.9864	3026.735	3205.45	2315.95
1030.0973	3027.7802	3191.75	2302.95
1030.2082	3028.8247	3178.85	2289.75
1030.319	3029.8685	3177.35	2288.6
1030.4297	3030.9118	3179.1	2290.35
1030.5404	3031.9544	3176.65	2287.2
1030.6511	3032.9963	3164.75	2276.7
1030.7617	3034.0376	3157.5	2268.6
1030.8723	3035.0783	3167.8	2276.5
1030.9829	3036.1184	3155.55	2265.3
1031.0934	3037.1578	3143.5	2254.7
1031.2038	3038.1966	3164.1	2273.55
1031.3142	3039.2348	3137.1	2247.5
1031.4246	3040.2723	3145.35	2248.2
1031.5349	3041.3092	3127.05	2238.65
1031.6452	3042.3455	3118.15	2228.55
1031.7554	3043.3811	3096.7	2207.3
1031.8656	3044.4161	3083.8	2194.85
1031.9758	3045.4505	3064.6	2175.8
1032.0859	3046.4842	3053.55	2165
1032.1959	3047.5173	3051.3	2163.4
1032.3059	3048.5498	3047.15	2157.2
1032.4159	3049.5816	3022.25	2133.4
1032.5258	3050.6128	3003.3	2111.5
1032.6357	3051.6434	3004.8	2114.95
1032.7455	3052.6734	3003.65	2113.75
1032.8553	3053.7027	2986.65	2097.85
1032.9651	3054.7314	2961.55	2073.25
1033.0748	3055.7594	2945	2057.95
1033.1845	3056.7868	2945.65	2056.7
1033.2941	3057.8136	2930.6	2041.95
1033.4037	3058.8398	2916.3	2028.6
1033.5132	3059.8653	2890.55	2003.15
1033.6227	3060.8902	2881.4	1991.65
1033.7321	3061.9145	2877.55	1986.85
1033.8415	3062.9381	2866.1	1977.45
1033.9509	3063.9612	2867.55	1963.6
1034.0602	3064.9835	2842.7	1953.05
1034.1694	3066.0053	2827.7	1935.75
1034.2787	3067.0264	2815.65	1925.3
1034.3878	3068.0469	2812.05	1923.3
1034.497	3069.0668	2784.9	1892.95
1034.6061	3070.086	2774	1886.95
1034.7151	3071.1046	2767.5	1879.15
1034.8241	3072.1226	2749.5	1859.05
1034.9331	3073.1399	2732.65	1845.15
1035.042	3074.1567	2719.8	1829.25
1035.1508	3075.1727	2701.25	1811.45
1035.2597	3076.1882	2688.55	1799.75
1035.3684	3077.203	2681.7	1793.9
1035.4772	3078.2173	2672.6	1784.25
1035.5859	3079.2308	2641.45	1748.85
1035.6945	3080.2438	2641.85	1750.1
1035.8031	3081.2561	2612.25	1721.35
1035.9117	3082.2678	2599.25	1709.8
1036.0202	3083.2789	2596	1707.55
1036.1286	3084.2893	2570.35	1682.65
1036.2371	3085.2991	2573	1685.3
1036.3454	3086.3083	2554.2	1661.5
1036.4538	3087.3169	2540.45	1649.95
1036.562	3088.3248	2536.55	1645.65
1036.6703	3089.3321	2518.45	1629.85
1036.7785	3090.3388	2504.05	1616.25
1036.8866	3091.3449	2503.15	1614.3
1036.9948	3092.3503	2481.55	1588.95
1037.1028	3093.3551	2482.85	1594.6
1037.2108	3094.3593	2467.45	1580.75
1037.3188	3095.3629	2472.65	1586.45
1037.4267	3096.3658	2456.15	1564.7
1037.5346	3097.3681	2442.5	1553.5
1037.6425	3098.3698	2439.2	1550.15
1037.7503	3099.3708	2436.15	1540.1
1037.858	3100.3713	2413.5	1524.25
1037.9657	3101.3711	2405.45	1516.5
1038.0734	3102.3702	2515.85	1487.25
1038.181	3103.3688	2410.05	1519.1
1038.2886	3104.3667	2375.25	1486.55
1038.3961	3105.364	2371.15	1482.15
1038.5036	3106.3607	2360	1470.6
1038.611	3107.3568	2352.45	1462.9
1038.7184	3108.3522	2335.2	1446.2
1038.8257	3109.347	2335.1	1444.25
1038.933	3110.3412	2324.75	1429.8
1039.0403	3111.3348	2312.4	1425.25
1039.1475	3112.3277	2310.95	1422.9
1039.2547	3113.32	2286.45	1399.15
1039.3618	3114.3117	2290.8	1399.2
1039.4689	3115.3028	2285.6	1395.95
1039.5759	3116.2932	2273.1	1384
1039.6829	3117.2831	2264.45	1369.35
1039.7898	3118.2723	2255.95	1365.55
1039.8967	3119.2608	2252.6	1363.6
1040.0035	3120.2488	2248.45	1359.45
1040.1103	3121.2361	2238.8	1350.9
1040.2171	3122.2229	2236.5	1347.75
1040.3238	3123.209	2234.35	1344.05
1040.4305	3124.1944	2216.95	1330.2
1040.5371	3125.1793	2217.75	1327.5
1040.6437	3126.1635	2188.15	1299.95
1040.7502	3127.1471	2199.4	1310.15
1040.8567	3128.1301	2193.1	1304.7
1040.9631	3129.1125	2185.05	1296.25
1041.0695	3130.0942	2180.25	1291.4
1041.1759	3131.0753	2176.85	1281.3
1041.2822	3132.0558	2169.05	1277.6
1041.3884	3133.0357	2157.1	1265.25
1041.4946	3134.015	2151.55	1261.5
1041.6008	3134.9936	2150.55	1259.65
1041.7069	3135.9716	2161.4	1252
1041.813	3136.949	2128.4	1239.5
1041.919	3137.9258	2145.15	1251.95
1042.025	3138.902	2124.8	1230.7
1042.1309	3139.8775	2122.7	1235.45
1042.2368	3140.8524	2111.55	1222.65
1042.3427	3141.8267	2100.55	1210.25
1042.4485	3142.8004	2108.7	1218.9
1042.5542	3143.7735	2099.6	1205.3
1042.6599	3144.7459	2099.55	1208.6
1042.7656	3145.7178	2096.25	1205.45
1042.8712	3146.689	2078.9	1190.75
1042.9768	3147.6596	2059	1169.15
1043.0823	3148.6295	2059.3	1170.8
1043.1878	3149.5989	2056.6	1169.6
1043.2932	3150.5676	2058.1	1171.85
1043.3986	3151.5357	2036.15	1148.55
1043.5039	3152.5032	2040.2	1150.1
1043.6092	3153.4701	2027.85	1139.6
1043.7145	3154.4364	2025.7	1133.1
1043.8197	3155.402	2018.1	1129.45
1043.9248	3156.367	2010.2	1120.35
1044.03	3157.3315	2048.95	1117.6
1044.135	3158.2952	2004	1114.35
1044.24	3159.2584	1983.95	1094
1044.345	3160.221	1990.3	1100.9
1044.4499	3161.1829	1978.5	1090.5
1044.5548	3162.1442	1971.95	1083.5
1044.6596	3163.105	1965.55	1077.75
1044.7644	3164.065	1958.8	1071.3
1044.8692	3165.0245	1952.95	1061.2
1044.9739	3165.9834	1940.85	1054.15
1045.0785	3166.9416	1950.65	1061.85
1045.1831	3167.8993	1941.75	1053.15
1045.2877	3168.8563	1942.2	1051.95
1045.3922	3169.8127	1920.5	1030.95
1045.4966	3170.7684	1913.7	1025.15
1045.6011	3171.7236	1910.75	1019.95
1045.7054	3172.6782	1902.25	1013.65
1045.8098	3173.6321	1897.6	1008
1045.914	3174.5854	1899.9	1005.9
1046.0183	3175.5381	1894	1005.6
1046.1224	3176.4902	1892.85	1004.8
1046.2266	3177.4417	1884.65	997.7
1046.3307	3178.3926	1885.9	997.45
1046.4347	3179.3428	1867.7	981.1
1046.5387	3180.2924	1861.2	971.8
1046.6427	3181.2415	1860.05	972.15
1046.7466	3182.1899	1856.25	966.4
1046.8504	3183.1377	1852.05	964.65
1046.9542	3184.0848	1848.4	956.45
1047.058	3185.0314	1843.8	953.75
1047.1617	3185.9773	1834.3	944.85
1047.2654	3186.9227	1828.6	941.6
1047.369	3187.8674	1822.4	933.65
1047.4726	3188.8115	1817.45	925.45
1047.5761	3189.755	1806.35	918.25
1047.6796	3190.6979	1805.2	916.15
1047.783	3191.6402	1797.5	908.9
1047.8864	3192.5818	1793.3	906.15
1047.9898	3193.5229	1818.55	904.95
1048.0931	3194.4633	1794.55	904.9
1048.1963	3195.4031	1784.6	895.35
1048.2995	3196.3423	1775.55	888
1048.4027	3197.2809	1776.3	889.15
1048.5058	3198.2189	1779.85	889.95
1048.6089	3199.1563	1769.7	875.45
1048.7119	3200.0931	1761.95	874.2
1048.8148	3201.0292	1758.9	871.3
1048.9178	3201.9648	1742.95	855.2
1049.0206	3202.8997	1751	860
1049.1235	3203.834	1744.5	856.65
1049.2262	3204.7677	1732.9	843.8
1049.329	3205.7008	1737.3	848.2
1049.4317	3206.6333	1735.1	849.95
1049.5343	3207.5652	1735.25	845.2
1049.6369	3208.4964	1719.75	829.85
1049.7394	3209.4271	1721.15	832.7
1049.8419	3210.3571	1719.8	829.55
1049.9444	3211.2865	1701.65	813.85
1050.0468	3212.2154	1703.7	811.6
1050.1491	3213.1436	1701.3	810.3
1050.2514	3214.0712	1702.5	807.35
1050.3537	3214.9982	1698.05	809.45
1050.4559	3215.9246	1697.7	811.5
1050.5581	3216.8503	1691.95	805.75
1050.6602	3217.7755	1686.5	796.1
1050.7623	3218.7001	1678.3	790.75
1050.8643	3219.624	1679.95	789.35
1050.9663	3220.5473	1663.75	775.3
1051.0682	3221.4701	1668.85	780.45
1051.1701	3222.3922	1661.7	769.5
1051.2719	3223.3137	1660.75	772.35
1051.3737	3224.2346	1655.95	768.6
1051.4754	3225.1549	1648.35	764
1051.5771	3226.0746	1655.4	769.6
1051.6788	3226.9937	1647.65	759
1051.7804	3227.9121	1636.35	750.4
1051.8819	3228.83	1632.85	746
1051.9834	3229.7473	1636.9	748.9
1052.0849	3230.6639	1624.2	734.8
1052.1863	3231.5799	1623.95	734.35
1052.2876	3232.4954	1613.65	725.6
1052.3889	3233.4102	1615.25	728.55
1052.4902	3234.3244	1609.85	720.45
1052.5914	3235.238	1600.45	713.1
1052.6926	3236.151	1627.1	714.95
1052.7937	3237.0634	1598.65	710.2
1052.8948	3237.9752	1586.6	698.55
1052.9958	3238.8864	1588.95	701.05
1053.0968	3239.797	1583.4	698.35
1053.1977	3240.7069	1581.6	691.25
1053.2986	3241.6163	1579.7	690.15
1053.3994	3242.5251	1567	679.7
1053.5002	3243.4332	1566.55	679.8
1053.6009	3244.3408	1566.65	679.15
1053.7016	3245.2477	1555.35	666.2
1053.8022	3246.154	1556.65	666.2
1053.9028	3247.0598	1562.5	672.55
1054.0034	3247.9649	1547.75	661.1
1054.1039	3248.8694	1543.25	654.5
1054.2043	3249.7733	1536.85	648.05
1054.3047	3250.6766	1524.7	636.7
1054.4051	3251.5793	1535.75	646.8
1054.5054	3252.4814	1526.1	637.8
1054.6056	3253.3829	1517.75	630.5
1054.7058	3254.2838	1512.3	625.05
1054.806	3255.1841	1517.2	628.85
1054.9061	3256.0838	1516.1	627.3
1055.0061	3256.9829	1509.3	621.6
1055.1062	3257.8814	1499.5	610.55
1055.2061	3258.7792	1499.8	610.65
1055.306	3259.6765	1485.05	596.7
1055.4059	3260.5731	1489.75	601.8
1055.5057	3261.4692	1480.35	593.75
1055.6055	3262.3647	1470.55	582.5
1055.7052	3263.2595	1464.05	575.8
1055.8049	3264.1538	1453.75	566.15
1055.9045	3265.0474	1443.9	552.45
1056.0041	3265.9404	1438.9	550.5
1056.1036	3266.8329	1421.8	534
1056.2031	3267.7247	1424.05	526.6
1056.3025	3268.616	1403.45	516.05
1056.4019	3269.5066	1394.85	506.85
1056.5013	3270.3966	1383.15	492.95
1056.6005	3271.286	1360.95	476.5
