Software Version:	3.9.2.0
Unit SN:	10000200
Spectrometer SN:	6960
Date:	3/6/2024 10:19:32 AM
Data Line Index:	25
Spectral Points:	2048
Integration time (ms):	125
Averages:	20
Delay (ms):	30
Sequence Number:	1
Processing:	dark subtract
Laser Power (mW):	300
Laser Current (mA):	826
Laser Diode Temp (C):	25.1
Laser Case Temp (C):	25.4
System Temp (C):	25.1
Spectrometer Temp (C):	22.7
CCD Temp (C):	0.002
Secondary Temp (C):	20.011
Heatsink Temp (C):	20.463
CCDPCB Temp (C):	33.684
SecondaryPCB Temp (C):	26.669

Wavelength	RamanShift	Raw Counts	Dark Subtracted
787.061	30.1047	1062.85	651.75
787.2016	32.3739	1088.45	679.8
787.3422	34.6426	1127.4	716.85
787.4828	36.9109	1177.45	766.35
787.6235	39.1787	1226.9	811.05
787.7642	41.4461	1274.85	854.95
787.9049	43.7131	1342.8	920.55
788.0456	45.9796	1383.55	956.75
788.1863	48.2456	1458.25	1029.5
788.3271	50.5112	1522.85	1089.75
788.4679	52.7764	1582.05	1146.65
788.6087	55.0411	1660.4	1219.5
788.7496	57.3054	1726.4	1281.4
788.8904	59.5692	1803.85	1355.95
789.0313	61.8326	1892.7	1440.1
789.1722	64.0955	1989.95	1534.8
789.3132	66.3579	2110.1	1652.75
789.4541	68.6199	2255.05	1791.45
789.5951	70.8815	2486.25	2017.95
789.7361	73.1426	2988.8	2516.6
789.8771	75.4032	4291.2	3816.15
790.0181	77.6634	7654.7	7177.3
790.1592	79.9231	16532.75	16046.2
790.3003	82.1824	51704.9	51207.25
790.4414	84.4412	65535	65019.8
790.5825	86.6995	65535	64991.45
790.7237	88.9574	65535	64964.15
790.8648	91.2148	65535	64946.45
791.006	93.4717	65535	64939.25
791.1472	95.7282	65535	64935.1
791.2885	97.9842	65535	64933.45
791.4297	100.2398	65535	64931.95
791.571	102.4949	65535	64924.9
791.7123	104.7495	65535	64924.35
791.8536	107.0036	65535	64920.45
791.9949	109.2573	65535	64920.55
792.1363	111.5105	65535	64922.65
792.2777	113.7632	65535	64914.15
792.4191	116.0154	65535	64908.65
792.5605	118.2672	65535	64913.85
792.7019	120.5185	65535	64912.7
792.8434	122.7693	65535	64911
792.9849	125.0197	65535	64905.95
793.1264	127.2696	65535	64901.65
793.2679	129.519	65535	64898.2
793.4094	131.7679	65535	64895.1
793.551	134.0163	65535	64893.35
793.6926	136.2642	65535	64890.7
793.8342	138.5117	65535	64880.9
793.9758	140.7587	65535	64887.6
794.1175	143.0052	65535	64887.85
794.2591	145.2512	65535	64881.2
794.4008	147.4967	65535	64882.9
794.5425	149.7417	65535	64880.6
794.6842	151.9863	65535	64876.4
794.826	154.2304	65535	64868.75
794.9677	156.4739	65535	64864.9
795.1095	158.717	65535	64866.95
795.2513	160.9596	65535	64859.05
795.3931	163.2017	65535	64859.15
795.535	165.4433	65535	64858.8
795.6768	167.6844	65535	64856.45
795.8187	169.925	65535	64853.05
795.9606	172.1651	65535	64852.2
796.1025	174.4047	65535	64845.6
796.2445	176.6439	65535	64843.45
796.3864	178.8825	65535	64841.8
796.5284	181.1206	65535	64837.2
796.6704	183.3582	65535	64835.6
796.8124	185.5954	65535	64834.4
796.9544	187.832	65535	64830.45
797.0965	190.0681	65535	64827.65
797.2386	192.3037	65535	64823.2
797.3806	194.5388	65535	64819.9
797.5228	196.7734	65535	64819
797.6649	199.0075	65535	64817.75
797.807	201.2411	65535	64817.75
797.9492	203.4742	65535	64818.85
798.0914	205.7068	65535	64813.8
798.2336	207.9389	65535	64805.2
798.3758	210.1704	65535	64805.85
798.518	212.4015	65535	64813.7
798.6603	214.632	65535	64825.35
798.8025	216.862	65535	64833.9
798.9448	219.0915	65535	64827.75
799.0871	221.3205	65535	64823.8
799.2294	223.549	65535	64832.85
799.3718	225.777	65535	64831.95
799.5141	228.0044	65535	64821.1
799.6565	230.2314	65535	64827.75
799.7989	232.4578	65535	64819.65
799.9413	234.6837	65535	64811.4
800.0837	236.909	65535	64808.05
800.2262	239.1339	65535	64786.05
800.3687	241.3582	65535	64801.55
800.5111	243.582	65535	64768.8
800.6536	245.8053	65535	64785.05
800.7961	248.0281	65535	64788.7
800.9387	250.2503	65535	64781.2
801.0812	252.472	65535	64778.6
801.2238	254.6932	65535	64779.6
801.3664	256.9139	65535	64778.8
801.509	259.134	65535	64775.45
801.6516	261.3536	65535	64776.65
801.7942	263.5727	65535	64778.3
801.9369	265.7912	65535	64778.35
802.0795	268.0092	65535	64780.05
802.2222	270.2267	65535	64775.7
802.3649	272.4436	65535	64775.95
802.5076	274.6601	65535	64765.2
802.6504	276.8759	65535	64768.3
802.7931	279.0913	65535	64765.55
802.9359	281.3061	65535	64768.45
803.0787	283.5204	65535	64762
803.2215	285.7341	65535	64760.7
803.3643	287.9473	65535	64747.25
803.5071	290.16	65535	64754.8
803.6499	292.3721	65535	64761.15
803.7928	294.5837	65535	64760.25
803.9357	296.7947	65535	64761.25
804.0786	299.0052	65535	64758.05
804.2215	301.2152	65535	64754.4
804.3644	303.4246	65535	64760.9
804.5074	305.6334	65535	64760.2
804.6503	307.8418	65535	64755.3
804.7933	310.0495	65535	64755.1
804.9363	312.2568	65535	64756.3
805.0793	314.4635	65535	64752.15
805.2223	316.6696	65535	64748.65
805.3653	318.8752	65535	64739.7
805.5084	321.0802	65535	64751.45
805.6514	323.2847	65535	64745.6
805.7945	325.4887	65535	64743.85
805.9376	327.692	65535	64745.8
806.0807	329.8949	65535	64747.35
806.2238	332.0972	65535	64742.85
806.367	334.2989	65535	64739.9
806.5101	336.5001	65535	64739.25
806.6533	338.7007	65535	64736.95
806.7965	340.9008	65535	64737.95
806.9397	343.1003	65535	64736.85
807.0829	345.2992	65535	64738
807.2261	347.4976	65535	64735.4
807.3693	349.6955	65535	64726.95
807.5126	351.8927	65535	64731
807.6559	354.0895	65535	64719.35
807.7991	356.2856	65535	64727.75
807.9424	358.4812	65535	64725.45
808.0857	360.6763	65535	64724.5
808.2291	362.8707	65535	64724.15
808.3724	365.0646	65535	64721.9
808.5158	367.258	65535	64717.7
808.6591	369.4508	65535	64716.45
808.8025	371.643	65535	64714.25
808.9459	373.8346	65535	64715.4
809.0893	376.0257	65535	64713.4
809.2327	378.2162	65535	64710.95
809.3762	380.4062	65535	64711.95
809.5196	382.5956	65535	64707.6
809.6631	384.7844	65535	64713.55
809.8066	386.9726	65535	64720.35
809.9501	389.1603	65535	64717.4
810.0936	391.3474	65535	64678.65
810.2371	393.5339	65535	64714.65
810.3806	395.7199	65535	64719.2
810.5241	397.9052	65535	64719.55
810.6677	400.09	65535	64721.4
810.8113	402.2743	65535	64716.85
810.9548	404.4579	65535	64716
811.0984	406.641	65535	64714.95
811.2421	408.8235	65535	64714.15
811.3857	411.0054	65535	64712.25
811.5293	413.1868	65535	64710.4
811.673	415.3675	65535	64705.3
811.8166	417.5477	65535	64705.1
811.9603	419.7273	65535	64703.8
812.104	421.9064	65535	64696.1
812.2477	424.0848	65535	64703.65
812.3914	426.2627	65535	64699.6
812.5351	428.4399	65535	64698.85
812.6788	430.6166	65535	64696.1
812.8226	432.7928	65535	64698.65
812.9663	434.9683	65535	64695.95
813.1101	437.1432	65535	64691.55
813.2539	439.3176	65535	64693
813.3977	441.4914	65535	64696.4
813.5415	443.6645	65535	64694.9
813.6853	445.8371	65535	64693
813.8291	448.0091	65535	64692.7
813.973	450.1806	65535	64693.5
814.1168	452.3514	65535	64690.25
814.2607	454.5216	65535	64685
814.4046	456.6913	65535	64690.55
814.5485	458.8603	65535	64692.9
814.6924	461.0288	65535	64688.2
814.8363	463.1967	65535	64691.45
814.9802	465.3639	65535	64688.85
815.1241	467.5306	65535	64687.75
815.2681	469.6967	65535	64687.05
815.412	471.8622	65535	64690.35
815.556	474.0271	65535	64688.85
815.7	476.1914	65535	64687.15
815.844	478.3551	65535	64685.6
815.988	480.5182	65535	64687.6
816.132	482.6807	65535	64686.3
816.276	484.8426	65535	64694.3
816.4201	487.0039	65535	64686.25
816.5641	489.1647	65535	64687.95
816.7082	491.3248	65535	64687.05
816.8522	493.4843	65535	64685
816.9963	495.6432	65535	64687
817.1404	497.8015	65535	64680.35
817.2845	499.9592	65535	64680.25
817.4286	502.1163	65535	64685.7
817.5727	504.2728	65535	64680.25
817.7168	506.4287	65535	64682.25
817.861	508.5839	65535	64679.7
818.0051	510.7386	65535	64680.95
818.1493	512.8927	65535	64674.2
818.2935	515.0461	65535	64681.1
818.4377	517.199	65535	64680.55
818.5818	519.3512	65535	64678.85
818.726	521.5029	65535	64671.95
818.8703	523.6539	65535	64672.8
819.0145	525.8043	65535	64672.4
819.1587	527.9541	65535	64673.3
819.303	530.1033	65535	64673.15
819.4472	532.2519	65535	64671
819.5915	534.3999	65535	64672.7
819.7357	536.5472	65535	64674.75
819.88	538.694	65535	64673.4
820.0243	540.8401	65535	64669.6
820.1686	542.9856	65535	64664.75
820.3129	545.1305	65535	64666.45
820.4572	547.2748	65535	64666.5
820.6016	549.4185	65535	64662.45
820.7459	551.5615	65535	64664.85
820.8902	553.704	65535	64668.3
821.0346	555.8458	65535	64668.4
821.1789	557.987	65535	64669.6
821.3233	560.1276	65535	64668.4
821.4677	562.2675	65535	64668.85
821.6121	564.4069	65535	64667.5
821.7565	566.5456	65535	64670.25
821.9009	568.6837	65535	64669.45
822.0453	570.8212	65535	64669.7
822.1897	572.958	65535	64666.9
822.3342	575.0942	65535	64671.2
822.4786	577.2299	65535	64669.5
822.6231	579.3648	65535	64667.15
822.7675	581.4992	65535	64669.4
822.912	583.6329	65535	64670.6
823.0565	585.766	65535	64668.1
823.201	587.8985	65535	64671.15
823.3454	590.0304	65535	64643.05
823.4899	592.1616	65535	64664.25
823.6345	594.2922	65535	64661.4
823.779	596.4222	65535	64663.95
823.9235	598.5515	65535	64659.15
824.068	600.6802	65535	64659.85
824.2126	602.8083	65535	64660.5
824.3571	604.9358	65535	64660.95
824.5017	607.0626	65535	64662.85
824.6462	609.1888	65535	64658.6
824.7908	611.3144	65535	64658.05
824.9354	613.4393	65535	64660
825.08	615.5636	65535	64659.1
825.2246	617.6873	65535	64661.05
825.3692	619.8103	65535	64657.55
825.5138	621.9327	65535	64655.4
825.6584	624.0544	65535	64659.75
825.803	626.1756	65535	64660
825.9477	628.2961	65535	64659
826.0923	630.4159	65535	64657.65
826.237	632.5351	65535	64656.65
826.3816	634.6537	65535	64655.1
826.5263	636.7716	65535	64657.15
826.6709	638.8889	65535	64657.65
826.8156	641.0056	65535	64653
826.9603	643.1216	65535	64654.4
827.105	645.237	65535	64653.9
827.2497	647.3518	65535	64655.3
827.3944	649.4659	65535	64654.9
827.5391	651.5793	65535	64657.8
827.6838	653.6922	65535	64656.45
827.8285	655.8043	65535	64652.35
827.9733	657.9159	65535	64653.75
828.118	660.0268	65535	64653.9
828.2627	662.137	65535	64651.2
828.4075	664.2466	65535	64650.55
828.5522	666.3556	65535	64653.75
828.697	668.4639	65535	64651.75
828.8418	670.5716	65535	64650.95
828.9865	672.6786	65535	64654.7
829.1313	674.785	65535	64648.35
829.2761	676.8907	65535	64651.9
829.4209	678.9958	65535	64654.3
829.5657	681.1002	65535	64651.8
829.7105	683.204	65535	64646.5
829.8553	685.3072	65535	64648.7
830.0001	687.4097	65535	64648.35
830.1449	689.5115	65535	64646.55
830.2898	691.6127	65535	64648.9
830.4346	693.7132	65535	64648.8
830.5794	695.8131	65535	64632.95
830.7243	697.9123	65535	64646.55
830.8691	700.0109	65535	64645.6
831.014	702.1089	65535	64649.05
831.1588	704.2061	65535	64646.75
831.3037	706.3028	65535	64646.25
831.4486	708.3987	65535	64646.55
831.5935	710.4941	65535	64646.55
831.7383	712.5887	65535	64643.35
831.8832	714.6827	65535	64644.25
832.0281	716.7761	65535	64646.25
832.173	718.8688	65535	64645.2
832.3179	720.9608	65535	64642.3
832.4628	723.0522	65535	64639.95
832.6077	725.1429	65535	64645.5
832.7527	727.233	65535	64641.7
832.8976	729.3224	65535	64642.7
833.0425	731.4112	65535	64643.8
833.1874	733.4993	65535	64642.6
833.3324	735.5867	65535	64644
833.4773	737.6735	65535	64641.3
833.6222	739.7596	65535	64640.95
833.7672	741.845	65535	64641.2
833.9122	743.9298	65535	64642
834.0571	746.014	65535	64641.6
834.2021	748.0974	65535	64641.1
834.347	750.1802	65535	64641.3
834.492	752.2624	65535	64644.7
834.637	754.3439	65535	64638.85
834.782	756.4247	65535	64633.6
834.9269	758.5048	65535	64642.35
835.0719	760.5843	65535	64640.25
835.2169	762.6631	65535	64637.9
835.3619	764.7413	65535	64642.25
835.5069	766.8188	65535	64640.15
835.6519	768.8956	65535	64639.65
835.7969	770.9718	65535	64639.75
835.9419	773.0473	65535	64641.95
836.0869	775.1221	65535	64641.15
836.232	777.1962	65535	64639
836.377	779.2697	65535	64640
836.522	781.3426	65535	64619.2
836.667	783.4147	65535	64638.7
836.8121	785.4862	65535	64642.1
836.9571	787.557	65535	64639.35
837.1021	789.6271	65535	64640.6
837.2472	791.6966	65535	64638.65
837.3922	793.7654	65535	64641.45
837.5373	795.8335	65535	64639.35
837.6823	797.901	65535	64640.7
837.8274	799.9678	65535	64638.6
837.9724	802.0339	65535	64638.8
838.1175	804.0993	65535	64629.7
838.2626	806.1641	65535	64637.85
838.4076	808.2282	65535	64639.45
838.5527	810.2916	65535	64636.3
838.6978	812.3544	65535	64638.5
838.8428	814.4164	65535	64640.15
838.9879	816.4778	65535	64638.2
839.133	818.5385	65535	64637.05
839.2781	820.5986	65535	64640.3
839.4232	822.658	65535	64634.35
839.5682	824.7166	65535	64638.2
839.7133	826.7747	65535	64639.95
839.8584	828.832	65535	64640.4
840.0035	830.8886	65535	64636.45
840.1486	832.9446	65535	64635.3
840.2937	834.9999	65535	64638.65
840.4388	837.0545	65535	64634.4
840.5839	839.1085	65535	64635.8
840.729	841.1618	65535	64635.4
840.8741	843.2143	65535	64635.6
841.0192	845.2662	65535	64636.7
841.1643	847.3175	65535	64639.05
841.3095	849.368	65535	64633.95
841.4546	851.4179	65535	64636.2
841.5997	853.467	65535	64633.75
841.7448	855.5155	65535	64637.1
841.8899	857.5633	65535	64636.05
842.0351	859.6105	65535	64635.4
842.1802	861.6569	65535	64636.15
842.3253	863.7027	65535	64635.6
842.4704	865.7478	65535	64633.85
842.6156	867.7922	65535	64635.35
842.7607	869.8359	65535	64634.4
842.9058	871.8789	65535	64632.6
843.0509	873.9212	65535	64602.95
843.1961	875.9629	65535	64635.25
843.3412	878.0039	65535	64636.1
843.4863	880.0441	65535	64636.4
843.6315	882.0837	65535	64637.3
843.7766	884.1226	65535	64633.65
843.9218	886.1609	65535	64638.05
844.0669	888.1984	65535	64637.15
844.212	890.2352	65535	64634
844.3572	892.2714	65535	64629
844.5023	894.3069	65535	64636.1
844.6475	896.3416	65535	64631.1
844.7926	898.3757	65535	64634.3
844.9377	900.4091	65535	64633.6
845.0829	902.4418	65535	64629.45
845.228	904.4739	65535	64632.7
845.3732	906.5052	65535	64633.4
845.5183	908.5358	65535	64635.7
845.6635	910.5658	65535	64632.1
845.8086	912.595	65535	64633.75
845.9538	914.6236	65535	64634.7
846.0989	916.6515	65535	64633.65
846.2441	918.6786	65535	64630.15
846.3892	920.7051	65535	64632.15
846.5344	922.7309	65535	64628.85
846.6795	924.756	65535	64631.95
846.8246	926.7804	65535	64630.4
846.9698	928.8041	65535	64632.15
847.1149	930.8272	65535	64635.6
847.2601	932.8495	65535	64629.95
847.4052	934.8711	65535	64630.8
847.5504	936.892	65535	64630.6
847.6955	938.9123	65535	64630.3
847.8407	940.9318	65535	64630.2
847.9858	942.9506	65535	64632.35
848.131	944.9688	65535	64632
848.2761	946.9862	65535	64629.4
848.4213	949.003	65535	64632.75
848.5664	951.019	65535	64631.8
848.7115	953.0344	65535	64632.8
848.8567	955.0491	65535	64631.85
849.0018	957.063	65535	64634.2
849.147	959.0763	65535	64632.45
849.2921	961.0888	65535	64630.55
849.4373	963.1007	65535	64633.75
849.5824	965.1119	65535	64634.75
849.7275	967.1223	65535	64634.05
849.8727	969.1321	65535	64635.15
850.0178	971.1412	65535	64632.55
850.1629	973.1495	65535	64632.15
850.3081	975.1572	65535	64599.6
850.4532	977.1641	65535	64633.05
850.5983	979.1704	65535	64629.6
850.7435	981.1759	65535	64630.2
850.8886	983.1808	65535	64631.85
851.0337	985.1849	65535	64621.3
851.1788	987.1884	65535	64629.9
851.324	989.1911	65535	64631.05
851.4691	991.1932	65535	64628.7
851.6142	993.1945	65535	64631.5
851.7593	995.1951	65535	64634.1
851.9045	997.1951	65535	64625.9
852.0496	999.1943	65535	64631.95
852.1947	1001.1928	65535	64632.85
852.3398	1003.1906	65535	64631.85
852.4849	1005.1877	65535	64631.1
852.63	1007.1841	65535	64630.65
852.7751	1009.1798	65535	64631.1
852.9202	1011.1748	65535	64630.95
853.0653	1013.1691	65535	64630.7
853.2104	1015.1627	65535	64634.2
853.3555	1017.1556	65535	64632.95
853.5006	1019.1477	65535	64630.2
853.6457	1021.1392	65535	64633.7
853.7908	1023.1299	65535	64631.5
853.9359	1025.12	65535	64634.05
854.081	1027.1093	65535	64637.4
854.2261	1029.0979	65535	64637.8
854.3712	1031.0859	65535	64634.65
854.5163	1033.0731	65535	64635
854.6613	1035.0596	65535	64635.75
854.8064	1037.0454	65535	64633.1
854.9515	1039.0304	65535	64630.65
855.0965	1041.0148	65535	64632.7
855.2416	1042.9985	65535	64633.5
855.3867	1044.9814	65535	64634.65
855.5317	1046.9636	65535	64632.6
855.6768	1048.9452	65535	64632.5
855.8219	1050.926	65535	64633.75
855.9669	1052.9061	65535	64632.65
856.112	1054.8855	65535	64631.95
856.257	1056.8642	65535	64633.75
856.4021	1058.8421	65535	64628.45
856.5471	1060.8194	65535	64630.85
856.6921	1062.7959	65535	64632.95
856.8372	1064.7717	65535	64631.05
856.9822	1066.7469	65535	64630.45
857.1272	1068.7213	65535	64630.15
857.2723	1070.695	65535	64632.95
857.4173	1072.6679	65535	64632.55
857.5623	1074.6402	65535	64631.6
857.7073	1076.6117	65535	64628.75
857.8523	1078.5826	65535	64629.5
857.9973	1080.5527	65535	64627.6
858.1423	1082.5221	65535	64630.1
858.2873	1084.4908	65535	64631.95
858.4323	1086.4587	65535	64633.75
858.5773	1088.426	65535	64630.45
858.7223	1090.3925	65535	64625.75
858.8673	1092.3584	65535	64630.85
859.0123	1094.3235	65535	64631.95
859.1573	1096.2879	65535	64633.45
859.3022	1098.2515	65535	64631.9
859.4472	1100.2145	65535	64631.65
859.5922	1102.1767	65535	64629.7
859.7371	1104.1382	65535	64632.65
859.8821	1106.099	65535	64630
860.027	1108.0591	65535	64630.95
860.172	1110.0185	65535	64629.95
860.3169	1111.9771	65535	64635
860.4619	1113.9351	65535	64632.65
860.6068	1115.8923	65535	64632.55
860.7517	1117.8488	65535	64631
860.8967	1119.8045	65535	64631.35
861.0416	1121.7596	65535	64634
861.1865	1123.7139	65535	64633.5
861.3314	1125.6675	65535	64632.2
861.4763	1127.6204	65535	64631.7
861.6212	1129.5726	65535	64631.7
861.7661	1131.524	65535	64632.3
861.911	1133.4748	65535	64630.35
862.0559	1135.4248	65535	64631.7
862.2008	1137.3741	65535	64632.25
862.3457	1139.3226	65535	64633.5
862.4905	1141.2705	65535	64633.8
862.6354	1143.2176	65535	64626.55
862.7803	1145.164	65535	64630.85
862.9251	1147.1097	65535	64631
863.07	1149.0546	65535	64631.9
863.2148	1150.9989	65535	64632.05
863.3597	1152.9424	65535	64630.5
863.5045	1154.8852	65535	64633.7
863.6493	1156.8272	65535	64632.25
863.7942	1158.7686	65535	64626.8
863.939	1160.7092	65535	64631.85
864.0838	1162.6491	65535	64627.85
864.2286	1164.5883	65535	64633.85
864.3734	1166.5267	65535	64632.35
864.5182	1168.4644	65535	64634.15
864.663	1170.4014	65535	64630.3
864.8078	1172.3377	65535	64630.9
864.9526	1174.2732	65535	64635.05
865.0974	1176.2081	65535	64632.75
865.2421	1178.1421	65535	64630
865.3869	1180.0755	65535	64634.15
865.5317	1182.0082	65535	64634.3
865.6764	1183.9401	65535	64632.75
865.8212	1185.8713	65535	64635.85
865.9659	1187.8017	65535	64632.1
866.1106	1189.7315	65535	64633.95
866.2554	1191.6605	65535	64607.85
866.4001	1193.5888	65535	64633.55
866.5448	1195.5163	65535	64634.35
866.6895	1197.4432	65535	64632.4
866.8342	1199.3693	65535	64634.65
866.9789	1201.2947	65535	64629.45
867.1236	1203.2193	65535	64633
867.2683	1205.1432	65535	64632.05
867.413	1207.0664	65535	64630.15
867.5576	1208.9889	65535	64631
867.7023	1210.9106	65535	64632.8
867.847	1212.8316	65535	64634.35
867.9916	1214.7519	65535	64622.9
868.1363	1216.6715	65535	64635.15
868.2809	1218.5903	65535	64634.55
868.4255	1220.5084	65535	64633.3
868.5701	1222.4257	65535	64633.25
868.7148	1224.3424	65535	64634.1
868.8594	1226.2583	65535	64626.25
869.004	1228.1735	65535	64633
869.1486	1230.0879	65535	64632.85
869.2932	1232.0016	65535	64634.7
869.4377	1233.9146	65535	64632.2
869.5823	1235.8269	65535	64635.15
869.7269	1237.7384	65535	64633
869.8715	1239.6492	65535	64634.25
870.016	1241.5592	65535	64630.85
870.1606	1243.4686	65535	64634.5
870.3051	1245.3772	65535	64633.55
870.4496	1247.285	65535	64634.05
870.5941	1249.1922	65535	64635
870.7387	1251.0986	65535	64632.65
870.8832	1253.0042	65535	64631.15
871.0277	1254.9092	65535	64632
871.1722	1256.8134	65535	64634.85
871.3167	1258.7169	65535	64635.5
871.4611	1260.6196	65535	64636.5
871.6056	1262.5216	65535	64633.5
871.7501	1264.4229	65535	64635
871.8945	1266.3234	65535	64632.15
872.039	1268.2232	65535	64631.65
872.1834	1270.1223	65535	64631.3
872.3278	1272.0207	65535	64632.45
872.4723	1273.9183	65535	64627.9
872.6167	1275.8151	65535	64635.65
872.7611	1277.7113	65535	64631.5
872.9055	1279.6067	65535	64634.55
873.0499	1281.5014	65535	64632.3
873.1943	1283.3953	65535	64631.2
873.3386	1285.2885	65535	64633.9
873.483	1287.181	65535	64632.4
873.6274	1289.0727	65535	64632.55
873.7717	1290.9637	65535	64633.7
873.9161	1292.854	65535	64635.65
874.0604	1294.7435	65535	64633.95
874.2047	1296.6323	65535	64635.45
874.349	1298.5204	65535	64631.35
874.4933	1300.4077	65535	64633.7
874.6376	1302.2943	65535	64633.45
874.7819	1304.1802	65535	64635.9
874.9262	1306.0653	65535	64630
875.0705	1307.9497	65535	64633.4
875.2147	1309.8333	65535	64634.2
875.359	1311.7162	65535	64632.2
875.5032	1313.5984	65535	64632.6
875.6475	1315.4798	65535	64620.4
875.7917	1317.3605	65535	64615.5
875.9359	1319.2405	65535	64633.6
876.0801	1321.1197	65535	64631.95
876.2243	1322.9982	65535	64629.45
876.3685	1324.876	65535	64634.95
876.5127	1326.753	65535	64634.95
876.6569	1328.6293	65535	64632.4
876.801	1330.5048	65535	64632.25
876.9452	1332.3796	65535	64635.7
877.0893	1334.2537	65535	64606.95
877.2335	1336.127	65535	64633.05
877.3776	1337.9996	65535	64633.45
877.5217	1339.8714	65535	64630.75
877.6658	1341.7426	65535	64590.2
877.8099	1343.6129	65535	64633.85
877.954	1345.4826	65535	64632.35
878.0981	1347.3515	65535	64633.25
878.2422	1349.2196	65535	64633.3
878.3862	1351.087	65535	64630.75
878.5303	1352.9537	65535	64631.75
878.6743	1354.8197	65535	64632.55
878.8184	1356.6849	65535	64633.2
878.9624	1358.5493	65535	64633.65
879.1064	1360.4131	65535	64630.55
879.2504	1362.276	65535	64635
879.3944	1364.1383	65535	64632.25
879.5384	1365.9998	65535	64625.7
879.6823	1367.8606	65535	64634.2
879.8263	1369.7206	65535	64634.75
879.9702	1371.5799	65535	64634.35
880.1142	1373.4384	65535	64632.6
880.2581	1375.2962	65535	64631.35
880.402	1377.1533	65535	64635.65
880.5459	1379.0096	65535	64632.7
880.6898	1380.8652	65535	64635.1
880.8337	1382.7201	65535	64632.25
880.9776	1384.5742	65535	64634.3
881.1215	1386.4275	65535	64632.45
881.2653	1388.2802	65535	64633.35
881.4092	1390.132	65535	64636.8
881.553	1391.9832	65535	64632.6
881.6968	1393.8336	65535	64632.2
881.8406	1395.6832	65535	64633
881.9844	1397.5322	65535	64633.5
882.1282	1399.3803	65535	64629.8
882.272	1401.2278	65535	64633.85
882.4158	1403.0745	65535	64633.05
882.5595	1404.9204	65535	64634.25
882.7033	1406.7656	65535	64634.75
882.847	1408.6101	65535	64635.05
882.9908	1410.4538	65535	64634.9
883.1345	1412.2968	65535	64633.4
883.2782	1414.139	65535	64632.6
883.4219	1415.9805	65535	64634.5
883.5656	1417.8213	65535	64628.55
883.7092	1419.6613	65535	64635.6
883.8529	1421.5006	65535	64633.75
883.9965	1423.3391	65535	64631.1
884.1402	1425.1769	65535	64632.05
884.2838	1427.0139	65535	64634.4
884.4274	1428.8502	65535	64632.8
884.571	1430.6858	65535	64633.6
884.7146	1432.5206	65535	64636.35
884.8582	1434.3547	65535	64632.25
885.0018	1436.188	65535	64632.75
885.1453	1438.0206	65535	64634.35
885.2889	1439.8524	65535	64635
885.4324	1441.6835	65535	64633.9
885.5759	1443.5139	65535	64630.35
885.7194	1445.3435	65535	64636.15
885.8629	1447.1724	65535	64635.5
886.0064	1449.0005	65535	64634.85
886.1499	1450.8279	65535	64631.95
886.2933	1452.6545	65535	64632.8
886.4368	1454.4804	65535	64636.2
886.5802	1456.3056	65535	64626.8
886.7237	1458.13	65535	64635.3
886.8671	1459.9536	65535	64634.15
887.0105	1461.7766	65535	64635.7
887.1539	1463.5987	65535	64633.2
887.2972	1465.4202	65535	64634.3
887.4406	1467.2409	65535	64633.25
887.584	1469.0608	65535	64636.45
887.7273	1470.88	65535	64634.7
887.8706	1472.6984	65535	64633.8
888.0139	1474.5161	65535	64632.1
888.1572	1476.3331	65535	64635.4
888.3005	1478.1493	65535	64634.4
888.4438	1479.9648	65535	64636.65
888.5871	1481.7795	65535	64633.5
888.7303	1483.5935	65535	64635.15
888.8736	1485.4067	65535	64635.4
889.0168	1487.2192	65535	64634.45
889.16	1489.031	65535	64634.55
889.3032	1490.842	65535	64635.3
889.4464	1492.6522	65535	64635.5
889.5896	1494.4618	65535	64634.2
889.7327	1496.2705	65535	64635.9
889.8759	1498.0785	65535	64634.15
890.019	1499.8858	65535	64633.4
890.1622	1501.6924	65535	64635.85
890.3053	1503.4981	65535	64635.1
890.4484	1505.3032	65535	64635.55
890.5914	1507.1075	65535	64637.1
890.7345	1508.911	65535	64635.65
890.8776	1510.7138	65535	64635.35
891.0206	1512.5159	65535	64634.9
891.1637	1514.3172	65535	64636.55
891.3067	1516.1178	65535	64636.5
891.4497	1517.9176	65535	64632.6
891.5927	1519.7166	65535	64637.25
891.7357	1521.515	65535	64630.25
891.8786	1523.3126	65535	64636.15
892.0216	1525.1094	65535	64633.2
892.1645	1526.9055	65535	64635.9
892.3074	1528.7008	65535	64636.25
892.4503	1530.4954	65535	64633.95
892.5932	1532.2893	65535	64638
892.7361	1534.0824	65535	64631.3
892.879	1535.8747	65535	64635
893.0218	1537.6663	65535	64636.2
893.1647	1539.4572	65535	64635.5
893.3075	1541.2473	65535	64634.55
893.4503	1543.0367	65535	64636.1
893.5931	1544.8253	65535	64632.5
893.7359	1546.6132	65535	64634.9
893.8787	1548.4003	65535	64628.25
894.0214	1550.1867	65535	64627.15
894.1642	1551.9723	65535	64632
894.3069	1553.7572	65535	64636.65
894.4496	1555.5414	65535	64635.75
894.5923	1557.3247	65535	64636.5
894.735	1559.1074	65535	64639.8
894.8777	1560.8893	65535	64636.1
895.0204	1562.6705	65535	64638.8
895.163	1564.4509	65535	64637.6
895.3056	1566.2305	65535	64639.3
895.4482	1568.0094	65535	64638.6
895.5908	1569.7876	65535	64639.1
895.7334	1571.565	65535	64637.4
895.876	1573.3417	65535	64636.85
896.0186	1575.1176	65535	64636.6
896.1611	1576.8928	65535	64639.35
896.3036	1578.6672	65535	64640.65
896.4461	1580.4409	65535	64640.55
896.5886	1582.2138	65535	64638.65
896.7311	1583.986	65535	64636.65
896.8736	1585.7575	65535	64640.3
897.0161	1587.5282	65535	64640.8
897.1585	1589.2981	65535	64639.5
897.3009	1591.0673	65535	64639.85
897.4433	1592.8358	65535	64639.4
897.5857	1594.6035	65535	64636.6
897.7281	1596.3704	65535	64638.9
897.8705	1598.1366	65535	64638.35
898.0128	1599.9021	65535	64640.5
898.1551	1601.6668	65535	64637.95
898.2975	1603.4308	65535	64637.6
898.4398	1605.194	65535	64635.6
898.5821	1606.9564	65535	64640.35
898.7243	1608.7182	65535	64637
898.8666	1610.4791	65535	64642.35
899.0088	1612.2394	65535	64642.35
899.1511	1613.9988	65535	64640.65
899.2933	1615.7576	65535	64641.15
899.4355	1617.5156	65535	64633.7
899.5776	1619.2728	65535	64640.45
899.7198	1621.0293	65535	64639.55
899.862	1622.785	65535	64639.1
900.0041	1624.54	65535	64638.2
900.1462	1626.2942	65535	64639.1
900.2883	1628.0477	65535	64639
900.4304	1629.8005	65535	64636.9
900.5725	1631.5525	65535	64643.5
900.7145	1633.3037	65535	64641.15
900.8566	1635.0542	65535	64640.35
900.9986	1636.804	65535	64642.15
901.1406	1638.553	65526.15	64551.15
901.2826	1640.3013	65534.9	64638.4
901.4245	1642.0488	65526.7	64631
901.5665	1643.7955	65533.95	64641.9
901.7085	1645.5416	65529.65	64637.05
901.8504	1647.2868	65521.3	64625.1
901.9923	1649.0313	65535	64640.65
902.1342	1650.7751	65529.45	64632.8
902.2761	1652.5181	65523.05	64629.6
902.4179	1654.2604	65522.9	64631
902.5598	1656.0019	65522	64629
902.7016	1657.7427	65519.95	64627.6
902.8434	1659.4828	65528.35	64634.25
902.9852	1661.222	65504.9	64610.55
903.127	1662.9606	65530.75	64637.65
903.2687	1664.6984	65500.7	64607.45
903.4105	1666.4354	65521.7	64626.4
903.5522	1668.1717	65462.9	64567.5
903.6939	1669.9072	65351.15	64456.85
903.8356	1671.642	65371.3	64476.85
903.9773	1673.3761	65352.95	64458.55
904.119	1675.1094	65333.7	64439.3
904.2606	1676.8419	65192.15	64298.9
904.4022	1678.5737	65266.55	64372.95
904.5439	1680.3048	65214.25	64320.95
904.6855	1682.0351	65150.65	64255.75
904.827	1683.7646	65096.65	64200.65
904.9686	1685.4934	65169.4	64278.95
905.1101	1687.2215	64874.9	63979.85
905.2517	1688.9488	65125.7	64233.85
905.3932	1690.6754	64591.7	63699.1
905.5347	1692.4012	64868.05	63974.2
905.6761	1694.1263	64929.1	64036.05
905.8176	1695.8506	64689.9	63795.4
905.9591	1697.5742	64735.5	63841.9
906.1005	1699.297	64691.5	63796.2
906.2419	1701.0191	64724.35	63832.75
906.3833	1702.7404	64441.05	63547.75
906.5246	1704.461	64362.2	63468.15
906.666	1706.1808	64559.9	63665.3
906.8073	1707.8999	64466.45	63571.35
906.9487	1709.6182	64381.7	63490.25
907.09	1711.3358	64315.1	63424.3
907.2313	1713.0527	64271.45	63381.7
907.3725	1714.7688	64308.85	63411.85
907.5138	1716.4841	63904.95	63008.55
907.655	1718.1987	64067.2	63169
907.7962	1719.9126	63970.6	63080.25
907.9374	1721.6257	64101.85	63208.5
908.0786	1723.338	64097.8	63203.25
908.2198	1725.0496	63563.15	62671.5
908.3609	1726.7605	63652.85	62759.9
908.502	1728.4706	63485.65	62593.2
908.6431	1730.18	63721.25	62827.2
908.7842	1731.8886	63414.1	62522
908.9253	1733.5964	63266.7	62368.7
909.0664	1735.3036	63593.4	62697.75
909.2074	1737.0099	63379.25	62487.6
909.3484	1738.7156	63121.1	62230.4
909.4894	1740.4204	63001.1	62105.85
909.6304	1742.1246	63120.2	62227.3
909.7714	1743.8279	63190.5	62296.95
909.9123	1745.5306	63138.1	62245.05
910.0532	1747.2325	62449.35	61557.2
910.1941	1748.9336	62521.2	61631.1
910.335	1750.634	62684	61790.85
910.4759	1752.3336	62869.1	61979
910.6168	1754.0325	62345.85	61455.7
910.7576	1755.7307	62806.7	61915.2
910.8984	1757.4281	62206.65	61316.85
911.0392	1759.1247	62645.5	61744.85
911.18	1760.8206	62013.2	61117.5
911.3208	1762.5158	62080	61184.8
911.4615	1764.2102	62202.3	61309
911.6022	1765.9039	62087.5	61197.1
911.7429	1767.5968	61951.2	61059.8
911.8836	1769.289	61873.9	60981.65
912.0243	1770.9804	61954.5	61062.5
912.1649	1772.6711	61809.6	60918.5
912.3056	1774.361	61698.35	60805.75
912.4462	1776.0502	61706.6	60814.35
912.5868	1777.7386	61305.75	60410.6
912.7274	1779.4263	61534.45	60642.7
912.8679	1781.1132	61499.65	60607.1
913.0084	1782.7994	61371.3	60479.15
913.149	1784.4849	61429.35	60537.65
913.2895	1786.1696	60947.7	60050.35
913.4299	1787.8535	61221.05	60330
913.5704	1789.5367	61248	60357.35
913.7108	1791.2192	60915.8	60025.7
913.8513	1792.9009	60734.5	59815
913.9917	1794.5818	60933.65	60039.8
914.132	1796.2621	60659.65	59769.65
914.2724	1797.9415	60690.9	59797.45
914.4128	1799.6202	60621.45	59728.65
914.5531	1801.2982	60628.1	59737.7
914.6934	1802.9755	60334.45	59442.1
914.8337	1804.6519	60235.35	59342.8
914.9739	1806.3277	60589.7	59700.15
915.1142	1808.0027	59896.25	59004.9
915.2544	1809.6769	60152.55	59259.85
915.3946	1811.3504	60186.7	59293.4
915.5348	1813.0231	59631.4	58738.9
915.675	1814.6951	60015.4	59124.4
915.8151	1816.3664	59769.5	58876.6
915.9553	1818.0369	59755.15	58861.85
916.0954	1819.7067	59541.9	58651.95
916.2355	1821.3757	59880.85	58987.7
916.3755	1823.044	59387.7	58498.05
916.5156	1824.7115	59173.5	58281.65
916.6556	1826.3783	59281.3	58392.25
916.7956	1828.0443	59295.95	58404.35
916.9356	1829.7096	59121.1	58226.6
917.0756	1831.3741	58709.5	57815
917.2155	1833.0379	58931.45	58038.9
917.3555	1834.701	58857.55	57965.8
917.4954	1836.3633	58532.4	57640.1
917.6353	1838.0248	58679.35	57787.7
917.7751	1839.6856	58577.85	57686.6
917.915	1841.3457	58249.3	57360.2
918.0548	1843.005	58624.5	57734.9
918.1946	1844.6636	58345.15	57454.05
918.3344	1846.3214	57845.95	56954.15
918.4742	1847.9785	58018	57127.6
918.6139	1849.6349	57899.9	57006.5
918.7537	1851.2904	58235.9	57335.2
918.8934	1852.9453	57632.3	56742.05
919.0331	1854.5994	57864.55	56973.75
919.1727	1856.2528	57820.9	56923.75
919.3124	1857.9054	57401.4	56509
919.452	1859.5572	57222.1	56332.3
919.5916	1861.2083	57439.2	56545
919.7312	1862.8587	57791	56900.4
919.8708	1864.5084	56647.4	55755.95
920.0103	1866.1572	57163.45	56272.75
920.1498	1867.8054	56530.25	55638.15
920.2893	1869.4528	56805.7	55913.2
920.4288	1871.0994	56442.1	55551.75
920.5683	1872.7453	56311.2	55419.45
920.7077	1874.3905	56540.5	55644.5
920.8471	1876.0349	56063.1	55171.5
920.9865	1877.6786	56367.65	55475.45
921.1259	1879.3215	55894.55	55003.1
921.2653	1880.9637	56392.05	55498.75
921.4046	1882.6051	55840.1	54949.85
921.5439	1884.2458	55667.55	54774.2
921.6832	1885.8858	55356.85	54463.95
921.8225	1887.525	55544.2	54652.3
921.9617	1889.1634	55341.8	54452.1
922.101	1890.8011	55137.95	54246.25
922.2402	1892.4381	54550.75	53660.45
922.3794	1894.0743	55236	54344.75
922.5185	1895.7098	54799.4	53911.35
922.6577	1897.3446	54423.45	53531.65
922.7968	1898.9786	54537.1	53642.45
922.9359	1900.6118	54160.25	53268.2
923.075	1902.2443	53890.85	52999
923.214	1903.8761	54236.75	53345.05
923.3531	1905.5071	53824.2	52931.4
923.4921	1907.1374	53062.25	52170.85
923.6311	1908.7669	53392.85	52503.45
923.77	1910.3957	53647.9	52756.55
923.909	1912.0237	53043.05	52152.5
924.0479	1913.651	52723.4	51832.15
924.1868	1915.2776	52536.05	51646.55
924.3257	1916.9034	52559.8	51671.45
924.4646	1918.5285	52289.55	51397.55
924.6034	1920.1528	52246.2	51355.35
924.7422	1921.7764	52066.2	51175.8
924.881	1923.3992	51946.05	51055.9
925.0198	1925.0213	51600.3	50707.55
925.1586	1926.6427	51196.8	50306.05
925.2973	1928.2633	51327.85	50355.05
925.436	1929.8832	51228.75	50338.35
925.5747	1931.5023	50985.85	50095.7
925.7134	1933.1207	50553.2	49663.9
925.852	1934.7383	50760.65	49871.6
925.9906	1936.3552	50394.15	49504.8
926.1292	1937.9714	50348.4	49457.8
926.2678	1939.5868	50266.8	49373.2
926.4064	1941.2015	49824.55	48932.9
926.5449	1942.8154	49516.85	48625.6
926.6834	1944.4286	49534.8	48644.3
926.8219	1946.041	49496.65	48586.6
926.9604	1947.6528	49169.95	48272.65
927.0988	1949.2637	48992.9	48104
927.2372	1950.8739	48758.8	47868.6
927.3756	1952.4834	48809.3	47916
927.514	1954.0921	48649.35	47757
927.6523	1955.7001	48332.45	47438.25
927.7907	1957.3074	48345.9	47458.1
927.929	1958.9139	47933.05	47042.35
928.0673	1960.5197	48032.05	47140.7
928.2055	1962.1247	47764.7	46874.2
928.3438	1963.729	47490.5	46601.9
928.482	1965.3325	47339.75	46426.85
928.6202	1966.9353	47331.45	46441.85
928.7584	1968.5374	46998.95	46108.4
928.8965	1970.1387	46808.6	45918.8
929.0346	1971.7393	46787.5	45895.7
929.1727	1973.3392	46609.9	45720.35
929.3108	1974.9383	46401.9	45511.05
929.4489	1976.5366	46174.15	45282.75
929.5869	1978.1342	46152.7	45262.85
929.7249	1979.7311	46081.05	45190.25
929.8629	1981.3273	45889.4	45000.5
930.0009	1982.9227	45674.45	44781.5
930.1388	1984.5173	45594.15	44705.65
930.2767	1986.1112	45371.45	44482.55
930.4146	1987.7044	45446.35	44557.15
930.5525	1989.2968	44993.85	44102.45
930.6904	1990.8885	45044.9	44153.15
930.8282	1992.4795	44917.65	44027.45
930.966	1994.0697	44763.35	43874.9
931.1038	1995.6592	44595.45	43706.85
931.2415	1997.2479	44404.45	43512.85
931.3793	1998.8359	44319.7	43429.45
931.517	2000.4232	44143.6	43254.35
931.6547	2002.0097	44040.2	43153.55
931.7923	2003.5955	43854.4	42965.6
931.93	2005.1805	43767.45	42874.95
932.0676	2006.7648	43648.5	42760.2
932.2052	2008.3484	43580.85	42692.4
932.3427	2009.9312	43526.1	42637
932.4803	2011.5133	43315	42426.7
932.6178	2013.0946	43229.75	42342.45
932.7553	2014.6752	43084.4	42199.2
932.8928	2016.2551	42910.9	42023.4
933.0302	2017.8342	42750.85	41862.05
933.1676	2019.4126	42593.3	41704.2
933.305	2020.9902	42430.2	41543.35
933.4424	2022.5672	42350.8	41462
933.5798	2024.1433	42264.45	41370.5
933.7171	2025.7188	42146.6	41260.4
933.8544	2027.2935	41973.95	41084.05
933.9917	2028.8674	41774.55	40885.3
934.129	2030.4406	41685.45	40799.25
934.2662	2032.0131	41451.45	40563.25
934.4034	2033.5849	41316.2	40417.9
934.5406	2035.1559	41263.6	40375.35
934.6778	2036.7261	41189.8	40302.05
934.8149	2038.2957	41103.05	40215.1
934.952	2039.8645	40977.5	40089.45
935.0891	2041.4325	41069.5	40179.05
935.2262	2042.9998	40813.6	39926.25
935.3632	2044.5664	40643.45	39752.45
935.5002	2046.1323	40595.15	39707.7
935.6372	2047.6974	40391.2	39501.05
935.7742	2049.2617	40369.9	39480.1
935.9111	2050.8254	40332.9	39440.8
936.048	2052.3883	40156.85	39265.75
936.1849	2053.9504	40049.75	39161
936.3218	2055.5118	39882.65	38994.1
936.4586	2057.0725	39706.75	38813.55
936.5955	2058.6325	39643.35	38754.1
936.7323	2060.1917	39490.35	38602.85
936.869	2061.7502	39431.8	38540.95
937.0058	2063.3079	39282.7	38395.3
937.1425	2064.8649	39122.3	38231.45
937.2792	2066.4212	39052.15	38161.15
937.4159	2067.9767	38893.2	38004.65
937.5525	2069.5315	38734.85	37846.9
937.6891	2071.0856	38567.95	37678.7
937.8257	2072.6389	38496.7	37607.75
937.9623	2074.1915	38239.8	37351.5
938.0989	2075.7433	38081.2	37191.2
938.2354	2077.2945	38024.45	37138.85
938.3719	2078.8448	37882.45	36995.1
938.5084	2080.3945	37710.35	36821.7
938.6448	2081.9434	37701.65	36815.65
938.7812	2083.4916	37580.9	36691.2
938.9176	2085.039	37375.7	36486.1
939.054	2086.5857	37373.8	36482.85
939.1903	2088.1317	37302.7	36412.8
939.3267	2089.677	37203.35	36311.55
939.463	2091.2215	37070.8	36182.25
939.5992	2092.7652	36982.95	36093.95
939.7355	2094.3083	36862.65	35973
939.8717	2095.8506	36784.1	35896.35
940.0079	2097.3921	36793.6	35904.85
940.1441	2098.933	36646.55	35756.95
940.2802	2100.4731	36553.65	35665.95
940.4163	2102.0124	36453.5	35558.1
940.5524	2103.5511	36372.6	35482.6
940.6885	2105.089	36263.65	35373.8
940.8245	2106.6261	36225.05	35337.55
940.9606	2108.1626	36076.9	35188.2
941.0965	2109.6983	36060.15	35142.35
941.2325	2111.2332	35870.45	34982.15
941.3684	2112.7675	35787.3	34897.55
941.5044	2114.301	35704.35	34812.65
941.6403	2115.8337	35666.45	34777.6
941.7761	2117.3657	35543.05	34654.65
941.912	2118.897	35403.75	34514.55
942.0478	2120.4276	35286.15	34391.65
942.1835	2121.9575	35158.45	34267.4
942.3193	2123.4866	35160.1	34257.1
942.455	2125.0149	34991.45	34100.3
942.5907	2126.5426	34829.25	33940.25
942.7264	2128.0695	34735.3	33846
942.8621	2129.5956	34678.7	33792.1
942.9977	2131.1211	34641.9	33749.9
943.1333	2132.6458	34484.05	33594.95
943.2689	2134.1698	34449.75	33561.35
943.4044	2135.693	34346.55	33456.1
943.54	2137.2155	34288.25	33394.9
943.6755	2138.7373	34165.7	33274.1
943.8109	2140.2584	34022.25	33135.45
943.9464	2141.7787	33938.7	33043.05
944.0818	2143.2983	33721.3	32833.1
944.2172	2144.8171	33560.15	32674.05
944.3526	2146.3353	33504.45	32615.45
944.4879	2147.8527	33377.5	32488.85
944.6232	2149.3693	33339.9	32450.2
944.7585	2150.8853	33246.25	32356.7
944.8938	2152.4005	33101.85	32212.6
945.029	2153.9149	33026.9	32138.85
945.1642	2155.4287	32901.55	32012
945.2994	2156.9417	32846.05	31956.7
945.4346	2158.454	32755.45	31862.6
945.5697	2159.9655	32698.05	31810.8
945.7048	2161.4764	32626.3	31737.55
945.8399	2162.9865	32504.3	31615.3
945.9749	2164.4958	32420.85	31530.75
946.1099	2166.0045	32265.7	31372.6
946.2449	2167.5124	32206.2	31315.3
946.3799	2169.0195	32118.3	31227.7
946.5148	2170.526	32043.35	31153.4
946.6498	2172.0317	31957.8	31068.45
946.7846	2173.5367	31869.15	30979.6
946.9195	2175.0409	31782.7	30893.45
947.0543	2176.5445	31740.1	30851.4
947.1891	2178.0473	31567.45	30679.05
947.3239	2179.5494	31455.45	30561.6
947.4587	2181.0507	31360.95	30473
947.5934	2182.5513	31266.5	30377.7
947.7281	2184.0512	31167.6	30279.6
947.8628	2185.5504	31099.5	30209.8
947.9974	2187.0488	30876.25	29987.3
948.132	2188.5465	30821.3	29936.1
948.2666	2190.0435	30717.35	29825.3
948.4012	2191.5397	30610.15	29723.05
948.5357	2193.0353	30523.8	29635.65
948.6702	2194.5301	30339	29448.05
948.8047	2196.0241	30222.75	29333.8
948.9392	2197.5175	30145.1	29253.9
949.0736	2199.0101	30028.2	29134.25
949.208	2200.502	29908.05	29019.7
949.3424	2201.9931	29848.95	28962
949.4767	2203.4835	29716.25	28827.45
949.611	2204.9733	29617.55	28724.2
949.7453	2206.4622	29565.1	28676.55
949.8796	2207.9505	29422.8	28533.45
950.0138	2209.438	29294.85	28407.3
950.148	2210.9248	29211.5	28320.6
950.2822	2212.4109	29103.1	28215.5
950.4164	2213.8962	28992.4	28102.35
950.5505	2215.3809	28928.15	28038.3
950.6846	2216.8648	28868.45	27978.4
950.8186	2218.3479	28790.65	27895.6
950.9527	2219.8304	28665.5	27771.55
951.0867	2221.3121	28547.55	27656.15
951.2207	2222.7931	28464.9	27576.1
951.3546	2224.2733	28347.5	27456.35
951.4886	2225.7529	28260.05	27369.15
951.6225	2227.2317	28194.2	27302.1
951.7563	2228.7098	28106.25	27216.55
951.8902	2230.1872	27977.2	27088.65
952.024	2231.6638	27912.85	27025
952.1578	2233.1397	27823.25	26927.8
952.2916	2234.6149	27727.95	26838.15
952.4253	2236.0894	27662.4	26772.3
952.559	2237.5632	27559.05	26668.1
952.6927	2239.0362	27439.35	26550.9
952.8263	2240.5085	27386.85	26497.9
952.9599	2241.9801	27245.3	26357.05
953.0935	2243.4509	27195.65	26308.35
953.2271	2244.921	27073.55	26185.3
953.3606	2246.3904	26935.85	26044.05
953.4941	2247.8591	26875.95	25987.95
953.6276	2249.3271	26780.15	25892
953.7611	2250.7943	26714	25825.3
953.8945	2252.2608	26617.8	25730
954.0279	2253.7266	26536.65	25647.55
954.1612	2255.1917	26495	25606.2
954.2946	2256.656	26404.15	25512.25
954.4279	2258.1197	26285.55	25396.8
954.5612	2259.5826	26230.65	25338.35
954.6944	2261.0447	26180.85	25289.7
954.8276	2262.5062	26068.5	25176
954.9608	2263.9669	26048.35	25156.3
955.094	2265.4269	25948.15	25059.6
955.2271	2266.8862	25889.1	24999.95
955.3602	2268.3448	25792.7	24904.65
955.4933	2269.8026	25727.75	24838.5
955.6264	2271.2598	25598	24709.55
955.7594	2272.7162	25564.35	24675.05
955.8924	2274.1719	25467.55	24577.65
956.0253	2275.6268	25439.55	24550.15
956.1583	2277.0811	25375.2	24485.3
956.2912	2278.5346	25277.15	24390.65
956.4241	2279.9874	25181.25	24291.25
956.5569	2281.4395	25166.8	24278.3
956.6897	2282.8908	25033.95	24139.35
956.8225	2284.3414	24967.3	24077.9
956.9553	2285.7914	24916.4	24026.75
957.088	2287.2406	24808.9	23917.35
957.2207	2288.689	24776.8	23886.3
957.3534	2290.1368	24671.6	23781.1
957.486	2291.5838	24620.05	23729.75
957.6186	2293.0302	24573.8	23683.6
957.7512	2294.4758	24412.5	23520.9
957.8838	2295.9206	24303.15	23412.05
958.0163	2297.3648	24252.45	23361.25
958.1488	2298.8082	24207.85	23318.95
958.2813	2300.251	24128.1	23240.55
958.4137	2301.693	24033.1	23143.05
958.5461	2303.1343	24051.55	23162.15
958.6785	2304.5748	23911.35	23022.2
958.8108	2306.0147	23771.4	22881.35
958.9432	2307.4538	23754.1	22863.6
959.0754	2308.8922	23710.85	22823.95
959.2077	2310.3299	23618.2	22731.25
959.3399	2311.7669	23551.65	22662.6
959.4721	2313.2031	23441.75	22553.3
959.6043	2314.6387	23323.95	22435.1
959.7365	2316.0735	23307.2	22417.7
959.8686	2317.5076	23242.65	22353.6
960.0006	2318.941	23183.65	22294.2
960.1327	2320.3737	23137.3	22248.2
960.2647	2321.8056	23045.85	22155.15
960.3967	2323.2369	22940.85	22050.6
960.5287	2324.6674	22892.45	22000.85
960.6606	2326.0972	22820.55	21930
960.7925	2327.5263	22683.7	21794.2
960.9244	2328.9547	22668.05	21778.1
961.0562	2330.3823	22607.3	21717.2
961.1881	2331.8092	22599.55	21708.5
961.3198	2333.2355	22480.15	21590.4
961.4516	2334.661	22437.75	21547.05
961.5833	2336.0858	22379.35	21488
961.715	2337.5098	22295.25	21406.35
961.8467	2338.9332	22264.55	21372.5
961.9783	2340.3558	22180.6	21286.05
962.1099	2341.7778	22087.1	21196.15
962.2415	2343.199	21988.8	21099.9
962.373	2344.6195	21977.85	21089.35
962.5045	2346.0393	21880.95	20993.7
962.636	2347.4583	21831.3	20943.45
962.7675	2348.8767	21748.15	20857.75
962.8989	2350.2943	21705.95	20817.2
963.0303	2351.7113	21677.7	20786.65
963.1617	2353.1275	21605.65	20715.6
963.293	2354.543	21547.25	20649.15
963.4243	2355.9578	21435.6	20547.6
963.5556	2357.3718	21287.3	20398.75
963.6868	2358.7852	21201.95	20310.55
963.818	2360.1978	21122.95	20232.05
963.9492	2361.6098	21100.2	20213.1
964.0803	2363.021	21030.45	20137.85
964.2114	2364.4315	20964.65	20075.7
964.3425	2365.8413	20894.25	20004.55
964.4736	2367.2504	20805.6	19917.75
964.6046	2368.6587	20744.3	19855.25
964.7356	2370.0664	20638.8	19750.1
964.8666	2371.4733	20606.9	19719.75
964.9975	2372.8795	20514.65	19625.75
965.1284	2374.285	20456.75	19567.15
965.2593	2375.6899	20342.35	19453.5
965.3901	2377.0939	20238.7	19349.6
965.5209	2378.4973	20189.55	19300.8
965.6517	2379.9	20160.1	19271.3
965.7825	2381.3019	20018.4	19127.2
965.9132	2382.7032	19969.15	19082.35
966.0439	2384.1037	19918.25	19031.9
966.1745	2385.5035	19859.7	18971.25
966.3051	2386.9027	19790.8	18902.8
966.4357	2388.3011	19744.5	18852.9
966.5663	2389.6987	19717.3	18829.1
966.6968	2391.0957	19648	18760.4
966.8273	2392.492	19544.45	18656.35
966.9578	2393.8876	19445.7	18558.1
967.0882	2395.2824	19374	18485.25
967.2186	2396.6765	19257.45	18370.5
967.349	2398.07	19197.5	18309.35
967.4793	2399.4627	19176.85	18286.85
967.6097	2400.8547	19135.85	18246.4
967.7399	2402.246	19060.05	18164.5
967.8702	2403.6366	18907.35	18019
968.0004	2405.0265	18810.95	17921.75
968.1306	2406.4156	18774.35	17884.25
968.2607	2407.8041	18693.6	17800.15
968.3909	2409.1918	18615.35	17724.1
968.521	2410.5789	18567.6	17678.75
968.651	2411.9652	18482.1	17590.75
968.781	2413.3508	18387.55	17499.65
968.911	2414.7358	18335.2	17445.45
969.041	2416.12	18278.7	17390.55
969.1709	2417.5035	18246.15	17359.5
969.3008	2418.8863	18181.15	17292.75
969.4307	2420.2684	18122.8	17234.4
969.5606	2421.6497	17988.35	17100.65
969.6904	2423.0304	17925.85	17036.8
969.8201	2424.4104	17877	16987.55
969.9499	2425.7896	17808.55	16917.85
970.0796	2427.1682	17789	16902.1
970.2093	2428.546	17715.7	16826.8
970.3389	2429.9232	17667.75	16777.1
970.4685	2431.2996	17621.8	16734.05
970.5981	2432.6753	17558.95	16670.75
970.7277	2434.0503	17539.1	16650.45
970.8572	2435.4246	17444.15	16555.7
970.9867	2436.7982	17361.05	16469.4
971.1161	2438.1711	17372.65	16484
971.2456	2439.5433	17267.1	16376.4
971.375	2440.9148	17202.55	16307.55
971.5043	2442.2856	17101.85	16213.05
971.6336	2443.6557	17084.7	16194.8
971.7629	2445.025	17006.45	16118.65
971.8922	2446.3937	16977.35	16089.9
972.0214	2447.7617	16889.35	15999.4
972.1506	2449.1289	16882.4	15993.2
972.2798	2450.4955	16854.05	15961.8
972.4089	2451.8613	16790.25	15901.25
972.538	2453.2265	16697.9	15810.6
972.6671	2454.5909	16640.75	15752.65
972.7961	2455.9546	16622.95	15734.4
972.9251	2457.3177	16560.4	15671.25
973.0541	2458.68	16511.5	15620.7
973.1831	2460.0416	16485.1	15594.45
973.312	2461.4025	16460.5	15569.5
973.4408	2462.7627	16373.15	15475.45
973.5697	2464.1222	16330.05	15442.25
973.6985	2465.4811	16280.65	15392.35
973.8273	2466.8392	16211.2	15323.65
973.956	2468.1966	16179.9	15287.75
974.0847	2469.5533	16136.9	15246.45
974.2134	2470.9093	16080.05	15190.55
974.3421	2472.2645	16053.2	15164.95
974.4707	2473.6191	15974.5	15085.55
974.5993	2474.973	15919.3	15031.6
974.7278	2476.3262	15853.95	14964.75
974.8563	2477.6787	15810.4	14922.85
974.9848	2479.0305	15701.3	14814.75
975.1132	2480.3816	15669	14779.1
975.2417	2481.7319	15620.4	14732.75
975.37	2483.0816	15536.85	14646.15
975.4984	2484.4306	15475.55	14585.1
975.6267	2485.7789	15427.6	14538.75
975.755	2487.1264	15364.15	14474.2
975.8833	2488.4733	15312.6	14425.4
976.0115	2489.8195	15262.15	14365.4
976.1397	2491.165	15180	14287.3
976.2678	2492.5097	15147.9	14258.1
976.3959	2493.8538	15090.7	14204.25
976.524	2495.1972	15009.85	14121.35
976.6521	2496.5398	14958.85	14068.25
976.7801	2497.8818	14937.15	14047.65
976.9081	2499.2231	14856.55	13966.2
977.036	2500.5637	14811.2	13919.3
977.164	2501.9035	14762.55	13872.3
977.2918	2503.2427	14726.15	13833.7
977.4197	2504.5812	14679.5	13791.25
977.5475	2505.919	14632.65	13742.4
977.6753	2507.256	14618.05	13728.45
977.8031	2508.5924	14532.6	13644
977.9308	2509.9281	14471.35	13578.05
978.0585	2511.2631	14430.65	13541.35
978.1861	2512.5974	14392.2	13504
978.3137	2513.9309	14325.25	13436.35
978.4413	2515.2638	14307.2	13393.7
978.5689	2516.596	14243.05	13353.85
978.6964	2517.9275	14154.7	13265.15
978.8239	2519.2583	14135.65	13243.35
978.9513	2520.5884	14086.5	13193.85
979.0788	2521.9178	14013.05	13123.7
979.2062	2523.2465	13969.7	13082.55
979.3335	2524.5745	13882.7	12994.3
979.4608	2525.9018	13847.3	12958.3
979.5881	2527.2284	13848.75	12961.6
979.7154	2528.5543	13806.1	12917.55
979.8426	2529.8796	13775.05	12885.9
979.9698	2531.2041	13735.7	12845.6
980.0969	2532.5279	13673.1	12784.5
980.224	2533.851	13671.65	12783.05
980.3511	2535.1735	13626.4	12738.15
980.4781	2536.4952	13580.4	12692.45
980.6052	2537.8163	13578.7	12689.55
980.7321	2539.1366	13508.85	12619.75
980.8591	2540.4562	13449.45	12559.8
980.986	2541.7752	13429.5	12541.1
981.1129	2543.0935	13411.55	12521.5
981.2397	2544.411	13353.95	12462.9
981.3665	2545.7279	13339.8	12451.2
981.4933	2547.0441	13332.15	12445.05
981.62	2548.3596	13287	12394.2
981.7467	2549.6744	13222.3	12333.7
981.8734	2550.9885	13213.75	12317.9
982.0001	2552.3019	13157.6	12268.7
982.1267	2553.6146	13117.35	12227.9
982.2532	2554.9266	13068.2	12179.95
982.3798	2556.2379	13016	12126.1
982.5063	2557.5485	13003.75	12116.95
982.6327	2558.8585	12970.1	12071.95
982.7592	2560.1677	12936.4	12045.15
982.8856	2561.4762	12905.35	12015.5
983.0119	2562.7841	12905.75	12014.65
983.1383	2564.0913	12851.5	11965.25
983.2646	2565.3977	12823.95	11935.9
983.3908	2566.7035	12781.25	11891.45
983.517	2568.0086	12773.05	11880.9
983.6432	2569.313	12757.1	11868.25
983.7694	2570.6167	12711.2	11819
983.8955	2571.9197	12678.95	11790.4
984.0216	2573.222	12652.8	11762.15
984.1476	2574.5236	12649.45	11761.15
984.2737	2575.8246	12605.1	11715.85
984.3996	2577.1248	12559.05	11666.7
984.5256	2578.4244	12518.95	11628.75
984.6515	2579.7232	12494.2	11604.6
984.7774	2581.0214	12503.55	11590.45
984.9032	2582.3189	12446.05	11558.9
985.029	2583.6157	12404.05	11510.85
985.1548	2584.9118	12401.7	11512.55
985.2806	2586.2072	12340.7	11454.1
985.4063	2587.5019	12295.75	11406.6
985.5319	2588.7959	12246.25	11357.4
985.6576	2590.0893	12220.5	11330.5
985.7832	2591.3819	12232	11342.5
985.9087	2592.6739	12163.9	11276.5
986.0343	2593.9652	12138.1	11247.9
986.1597	2595.2557	12095.9	11207.75
986.2852	2596.5456	12054.45	11163
986.4106	2597.8348	12016.65	11128.1
986.536	2599.1234	11926.95	11040.45
986.6614	2600.4112	11908.5	11020.95
986.7867	2601.6983	11887.85	10996.8
986.912	2602.9848	11829.8	10942.35
987.0372	2604.2705	11762.5	10866.1
987.1624	2605.5556	11762.2	10873.3
987.2876	2606.84	11673.9	10786.55
987.4128	2608.1237	11661.25	10772.85
987.5379	2609.4067	11606.6	10719.9
987.6629	2610.689	11579.1	10682.75
987.788	2611.9707	11536.55	10645.8
987.913	2613.2516	11481.05	10588.65
988.0379	2614.5319	11415.95	10526.85
988.1629	2615.8115	11394.45	10508.5
988.2878	2617.0903	11329.65	10442.35
988.4126	2618.3685	11296.6	10407.75
988.5375	2619.6461	11265.8	10376.7
988.6622	2620.9229	11238.45	10348.7
988.787	2622.199	11181.3	10290.75
988.9117	2623.4745	11158.3	10268.1
989.0364	2624.7493	11100.3	10212.75
989.161	2626.0234	11075.25	10187.4
989.2857	2627.2968	11056.65	10167.9
989.4102	2628.5695	10979.25	10089.9
989.5348	2629.8415	10937.55	10049
989.6593	2631.1128	10905.8	10014
989.7837	2632.3835	10848.55	9960.75
989.9082	2633.6535	10797.15	9909.9
990.0326	2634.9228	10753.5	9863.95
990.1569	2636.1914	10716.8	9830.15
990.2812	2637.4593	10699.8	9805.6
990.4055	2638.7265	10655.7	9766.95
990.5298	2639.9931	10632.35	9742.4
990.654	2641.259	10590.85	9701.75
990.7782	2642.5242	10550.1	9661.2
990.9023	2643.7887	10535.6	9648
991.0264	2645.0525	10503.45	9614.45
991.1505	2646.3156	10462.45	9569.9
991.2745	2647.5781	10400.45	9512.2
991.3985	2648.8398	10389.8	9503.45
991.5225	2650.1009	10375.1	9448.25
991.6464	2651.3613	10310	9422.6
991.7703	2652.6211	10315.95	9428.2
991.8942	2653.8801	10242.65	9355.35
992.018	2655.1385	10230.9	9341.3
992.1418	2656.3961	10185.15	9298.55
992.2655	2657.6531	10185.15	9297.65
992.3892	2658.9094	10142.2	9251.35
992.5129	2660.1651	10121	9232.7
992.6366	2661.42	10095.35	9205.35
992.7602	2662.6743	10082.25	9192.45
992.8837	2663.9279	10052.55	9164.15
993.0073	2665.1808	10002.9	9113.4
993.1307	2666.433	9960.65	9072.1
993.2542	2667.6846	9956.45	9068.9
993.3776	2668.9354	9933.6	9042.95
993.501	2670.1856	9898.7	9010.55
993.6244	2671.4351	9841.55	8951.9
993.7477	2672.6839	9839.45	8950.4
993.8709	2673.9321	9807.3	8920.4
993.9942	2675.1795	9761.65	8874.45
994.1174	2676.4263	9741.35	8855.4
994.2405	2677.6724	9701.3	8813.1
994.3637	2678.9179	9673.5	8784.5
994.4868	2680.1626	9649.05	8762.6
994.6098	2681.4067	9600.7	8712.15
994.7328	2682.6501	9590.9	8702.85
994.8558	2683.8928	9575.9	8688.45
994.9788	2685.1348	9530.2	8641.35
995.1017	2686.3761	9483.3	8595.9
995.2245	2687.6168	9444.05	8556.9
995.3474	2688.8568	9421.7	8533.65
995.4702	2690.0961	9386.15	8498.2
995.5929	2691.3348	9358.35	8470.15
995.7156	2692.5727	9326.65	8439.5
995.8383	2693.81	9284.5	8395.6
995.961	2695.0466	9274.5	8388.2
996.0836	2696.2826	9243.4	8353.85
996.2062	2697.5178	9239.2	8348.25
996.3287	2698.7524	9204.7	8316.3
996.4512	2699.9863	9189.25	8297.6
996.5737	2701.2195	9147.2	8262.1
996.6961	2702.452	9117.6	8226.2
996.8185	2703.6839	9081.1	8192.05
996.9408	2704.9151	9053	8165.95
997.0631	2706.1456	9026	8137
997.1854	2707.3755	9003.15	8115.35
997.3077	2708.6046	8981.3	8091.45
997.4299	2709.8331	8936.4	8046.8
997.552	2711.0609	8892	8005.3
997.6742	2712.2881	8883.35	7995.35
997.7963	2713.5145	8847.4	7957.5
997.9183	2714.7403	8814.8	7929.35
998.0403	2715.9654	8795.9	7907.95
998.1623	2717.1899	8787.9	7898.2
998.2842	2718.4136	8758.55	7869.25
998.4062	2719.6367	8721.35	7832.3
998.528	2720.8591	8686	7791.45
998.6498	2722.0809	8658.65	7771.1
998.7716	2723.3019	8643.2	7752.35
998.8934	2724.5223	8615.9	7726.3
999.0151	2725.7421	8596.8	7706.3
999.1368	2726.9611	8582.7	7691.6
999.2584	2728.1795	8553.5	7660.05
999.38	2729.3972	8490.5	7601.95
999.5016	2730.6142	8459.9	7564.95
999.6231	2731.8306	8406.65	7517.05
999.7446	2733.0462	8401.1	7511.05
999.8661	2734.2612	8335.15	7442
999.9875	2735.4756	8302.2	7410.6
1000.1089	2736.6892	8240.95	7351.65
1000.2302	2737.9022	8211.6	7324.3
1000.3515	2739.1145	8164.45	7274.75
1000.4728	2740.3262	8138.25	7242.8
1000.594	2741.5372	8094.7	7207.85
1000.7152	2742.7475	8029.5	7141.25
1000.8363	2743.9571	8031.05	7141.7
1000.9575	2745.1661	7999.5	7107.05
1001.0785	2746.3744	7980.15	7089.8
1001.1996	2747.582	7930.65	7042.05
1001.3206	2748.7889	7902.75	7012.9
1001.4415	2749.9952	7883.5	6996.6
1001.5625	2751.2008	7858.5	6969.55
1001.6833	2752.4057	7843.05	6952.4
1001.8042	2753.61	7800.5	6913.15
1001.925	2754.8136	7775	6886.65
1002.0458	2756.0165	7743.75	6857.1
1002.1665	2757.2188	7711.1	6824.4
1002.2872	2758.4204	7674.8	6788.7
1002.4078	2759.6213	7650.35	6760.7
1002.5285	2760.8215	7659.2	6766.6
1002.649	2762.0211	7625.6	6735.75
1002.7696	2763.22	7568.9	6678.65
1002.8901	2764.4182	7556.4	6666.05
1003.0106	2765.6158	7533.95	6646.8
1003.131	2766.8127	7512.15	6623.8
1003.2514	2768.009	7478.45	6589.8
1003.3717	2769.2045	7444.35	6555.35
1003.492	2770.3994	7457.2	6568.4
1003.6123	2771.5936	7394.55	6505.45
1003.7325	2772.7872	7382.55	6494.55
1003.8527	2773.9801	7337.6	6445.55
1003.9729	2775.1723	7344.4	6439.7
1004.093	2776.3639	7300.35	6414.05
1004.2131	2777.5548	7263.95	6373.5
1004.3331	2778.745	7253.4	6364.85
1004.4531	2779.9346	7229.3	6341.35
1004.5731	2781.1235	7210.9	6323.8
1004.693	2782.3117	7182.85	6294.7
1004.8129	2783.4992	7169.2	6283.45
1004.9328	2784.6861	7152.45	6264.55
1005.0526	2785.8723	7137.45	6248.65
1005.1723	2787.0579	7095.55	6209.4
1005.2921	2788.2428	7054.85	6167.65
1005.4118	2789.427	7047.6	6160
1005.5314	2790.6106	7014	6126.1
1005.651	2791.7935	7003.8	6114.6
1005.7706	2792.9757	6974.05	6087.05
1005.8902	2794.1573	6953.2	6065.2
1006.0097	2795.3382	6937.3	6049.55
1006.1291	2796.5184	6908.05	6023.5
1006.2485	2797.698	6930	6039.65
1006.3679	2798.8769	6918.75	6031.95
1006.4873	2800.0551	6892.75	6003.15
1006.6066	2801.2327	6877.6	5986.4
1006.7258	2802.4096	6856.8	5969.85
1006.8451	2803.5859	6841.3	5951.8
1006.9642	2804.7615	6820.1	5932.65
1007.0834	2805.9364	6827	5940.1
1007.2025	2807.1106	6794.15	5908.1
1007.3216	2808.2842	6829.2	5941.35
1007.4406	2809.4572	6803.25	5916.45
1007.5596	2810.6294	6840.5	5952.9
1007.6785	2811.801	6841.85	5954.05
1007.7975	2812.972	6868.75	5982.3
1007.9163	2814.1423	6866.4	5979.45
1008.0352	2815.3119	6890.35	6003.75
1008.154	2816.4808	6905.05	6019.2
1008.2727	2817.6491	6915.45	6026.35
1008.3914	2818.8167	6919.5	6031.75
1008.5101	2819.9837	6978.3	6085.7
1008.6288	2821.15	6992	6103.9
1008.7474	2822.3157	7037.2	6152.2
1008.8659	2823.4807	7058	6170.55
1008.9844	2824.645	7065.3	6176.35
1009.1029	2825.8086	7079.85	6192.4
1009.2214	2826.9716	7139.4	6253.7
1009.3398	2828.134	7154.15	6266.15
1009.4581	2829.2957	7184.15	6296.25
1009.5764	2830.4567	7182.45	6296.55
1009.6947	2831.617	7191.4	6304.8
1009.813	2832.7767	7199.75	6312.25
1009.9312	2833.9358	7173.05	6284.9
1010.0493	2835.0941	7146.5	6255.95
1010.1675	2836.2519	7118.95	6232.6
1010.2855	2837.4089	7086.25	6198.7
1010.4036	2838.5653	7075.2	6189
1010.5216	2839.7211	7038.7	6152.15
1010.6396	2840.8761	7022.5	6135.1
1010.7575	2842.0306	7043.45	6156.55
1010.8754	2843.1843	7029.5	6143.8
1010.9932	2844.3374	7068.1	6181.4
1011.111	2845.4899	7077.5	6188.7
1011.2288	2846.6417	7123.7	6236.9
1011.3465	2847.7928	7160.05	6274.35
1011.4642	2848.9433	7186.75	6300.35
1011.5818	2850.0931	7224.8	6338.7
1011.6995	2851.2422	7271.4	6381.85
1011.817	2852.3907	7292.4	6405.25
1011.9345	2853.5385	7355.4	6466.2
1012.052	2854.6857	7358.4	6460.25
1012.1695	2855.8323	7381.65	6494.2
1012.2869	2856.9781	7393.8	6508.3
1012.4042	2858.1233	7448.15	6563.3
1012.5216	2859.2679	7450.15	6564.7
1012.6389	2860.4118	7477.1	6590.1
1012.7561	2861.555	7508.8	6617.9
1012.8733	2862.6976	7495.35	6604.75
1012.9905	2863.8395	7499.7	6613.7
1013.1076	2864.9808	7507.15	6619.2
1013.2247	2866.1214	7505	6620.35
1013.3417	2867.2614	7522.9	6635.95
1013.4587	2868.4007	7503.6	6613.9
1013.5757	2869.5393	7505.75	6616.95
1013.6926	2870.6773	7480.9	6591.95
1013.8095	2871.8146	7471.85	6582.75
1013.9263	2872.9513	7461.45	6571.95
1014.0431	2874.0874	7418.9	6531.75
1014.1599	2875.2227	7405.9	6518.85
1014.2766	2876.3574	7360.4	6473.25
1014.3933	2877.4915	7310.25	6426.5
1014.51	2878.6249	7270.8	6384.1
1014.6266	2879.7577	7232.55	6343.4
1014.7431	2880.8898	7199.35	6301.95
1014.8596	2882.0212	7169.85	6283.8
1014.9761	2883.152	7148.8	6259.95
1015.0925	2884.2821	7118.8	6231.6
1015.2089	2885.4116	7080.5	6193.95
1015.3253	2886.5405	7067.25	6181.9
1015.4416	2887.6686	7054.55	6162.55
1015.5579	2888.7962	7041.55	6156.3
1015.6741	2889.923	7023.25	6136.5
1015.7903	2891.0493	7005.5	6120.75
1015.9065	2892.1748	6990.6	6104.45
1016.0226	2893.2997	6978.2	6091.65
1016.1387	2894.424	6983.9	6098.35
1016.2547	2895.5476	6984.9	6098.7
1016.3707	2896.6706	6967.2	6082.7
1016.4866	2897.7929	6964.2	6078.2
1016.6025	2898.9145	6967.75	6078.95
1016.7184	2900.0355	6965.55	6076.25
1016.8342	2901.1559	6989.9	6102.3
1016.95	2902.2756	6984.5	6098
1017.0658	2903.3946	6986.4	6099.45
1017.1815	2904.513	7006.05	6114.75
1017.2971	2905.6308	7001.1	6112.55
1017.4127	2906.7479	7008.1	6121.35
1017.5283	2907.8643	7024.4	6136.25
1017.6439	2908.9801	6996.35	6109.45
1017.7594	2910.0953	6996.1	6109.3
1017.8748	2911.2098	6979.25	6087.1
1017.9902	2912.3236	6943.65	6049.75
1018.1056	2913.4368	6908.5	6017.25
1018.2209	2914.5494	6882.85	5995.3
1018.3362	2915.6613	6873.35	5981.2
1018.4515	2916.7725	6819.95	5930.9
1018.5667	2917.8831	6776.45	5889
1018.6819	2918.9931	6740.15	5849.7
1018.797	2920.1024	6690.65	5802.15
1018.9121	2921.211	6681.75	5795
1019.0271	2922.319	6638.1	5749.65
1019.1421	2923.4264	6603.1	5717.7
1019.2571	2924.5331	6581.95	5694.7
1019.372	2925.6391	6561.85	5674.15
1019.4869	2926.7445	6546.45	5661.65
1019.6017	2927.8493	6527.55	5640.85
1019.7165	2928.9534	6519.1	5632.6
1019.8313	2930.0569	6496	5606.3
1019.946	2931.1597	6505.65	5616.4
1020.0606	2932.2619	6486.1	5601.1
1020.1753	2933.3634	6466.35	5579.5
1020.2899	2934.4643	6465.15	5571.5
1020.4044	2935.5645	6438.75	5543.3
1020.5189	2936.6641	6393.1	5500.1
1020.6334	2937.763	6356.4	5470.1
1020.7478	2938.8613	6310.65	5422.35
1020.8622	2939.959	6247.2	5356.95
1020.9765	2941.056	6184.95	5299.4
1021.0908	2942.1523	6101.95	5213.1
1021.2051	2943.248	6032	5145.7
1021.3193	2944.3431	5928.8	5042.05
1021.4334	2945.4375	5838.5	4952
1021.5476	2946.5313	5741.5	4856.35
1021.6617	2947.6244	5635.2	4748.35
1021.7757	2948.7169	5542.95	4655.65
1021.8897	2949.8087	5449.45	4563.7
1022.0037	2950.8999	5362.75	4475.25
1022.1176	2951.9904	5287	4400.6
1022.2315	2953.0803	5205.35	4318.3
1022.3453	2954.1696	5143.3	4256.45
1022.4591	2955.2582	5067.85	4181.45
1022.5728	2956.3462	5025.35	4139.6
1022.6865	2957.4335	4973.75	4089.1
1022.8002	2958.5202	4916.15	4027
1022.9138	2959.6062	4891.1	4003.3
1023.0274	2960.6916	4860.5	3971.2
1023.141	2961.7764	4823.9	3937.35
1023.2545	2962.8605	4812.7	3926.85
1023.3679	2963.9439	4792.4	3906.05
1023.4813	2965.0267	4742.25	3854.65
1023.5947	2966.1089	4741.45	3830.3
1023.708	2967.1905	4707.2	3819.15
1023.8213	2968.2714	4679.25	3794.05
1023.9346	2969.3516	4678.65	3792.25
1024.0478	2970.4312	4662.45	3769.85
1024.1609	2971.5102	4641.1	3753.95
1024.274	2972.5885	4646.5	3760.55
1024.3871	2973.6662	4647.4	3756.4
1024.5002	2974.7432	4634.4	3747.25
1024.6132	2975.8196	4604.7	3717.75
1024.7261	2976.8954	4572.15	3686.15
1024.839	2977.9705	4546.95	3659.7
1024.9519	2979.045	4538.55	3653.1
1025.0647	2980.1188	4522.35	3635.55
1025.1775	2981.192	4497.5	3612.15
1025.2902	2982.2645	4455.85	3567.5
1025.4029	2983.3364	4424.8	3536.5
1025.5156	2984.4077	4381	3494.1
1025.6282	2985.4783	4363.85	3470.1
1025.7407	2986.5483	4313.4	3427.5
1025.8532	2987.6177	4283.55	3397.55
1025.9657	2988.6864	4261.1	3374.9
1026.0782	2989.7545	4217.05	3329.25
1026.1906	2990.8219	4162.35	3275.15
1026.3029	2991.8887	4129.05	3240.45
1026.4152	2992.9548	4115.25	3228.55
1026.5275	2994.0204	4072.15	3185.95
1026.6397	2995.0852	4032.85	3146.95
1026.7519	2996.1495	4002.6	3112.95
1026.864	2997.2131	3964.05	3077.3
1026.9761	2998.276	3945.25	3059.3
1027.0882	2999.3383	3900.75	3012.3
1027.2002	3000.4	3874.6	2988.95
1027.3122	3001.4611	3861.7	2973.75
1027.4241	3002.5215	3836.45	2948.25
1027.536	3003.5812	3805.75	2919.2
1027.6478	3004.6404	3794.05	2904.7
1027.7596	3005.6989	3769	2880
1027.8714	3006.7567	3752.1	2865
1027.9831	3007.8139	3742.7	2832.35
1028.0947	3008.8705	3710.65	2823.85
1028.2064	3009.9264	3702.9	2813.7
1028.3179	3010.9818	3675.9	2789.8
1028.4295	3012.0364	3669.05	2781.5
1028.541	3013.0905	3641.85	2754.35
1028.6524	3014.1439	3630.45	2745.4
1028.7638	3015.1966	3628.25	2737.5
1028.8752	3016.2487	3612.65	2726.85
1028.9865	3017.3002	3602.4	2713.1
1029.0978	3018.3511	3590.55	2705.9
1029.209	3019.4013	3568.25	2680.4
1029.3202	3020.4509	3564.4	2677.6
1029.4314	3021.4998	3559.95	2674
1029.5425	3022.5481	3557.8	2671.9
1029.6535	3023.5958	3533.95	2646.8
1029.7645	3024.6428	3523.85	2637.35
1029.8755	3025.6892	3518.85	2630.8
1029.9864	3026.735	3499.65	2613.75
1030.0973	3027.7802	3492.9	2606.7
1030.2082	3028.8247	3474.75	2586
1030.319	3029.8685	3463.35	2575.6
1030.4297	3030.9118	3459.65	2573.45
1030.5404	3031.9544	3442.2	2555.55
1030.6511	3032.9963	3448.9	2563.15
1030.7617	3034.0376	3434.1	2546.6
1030.8723	3035.0783	3432.6	2545.35
1030.9829	3036.1184	3418.3	2531.95
1031.0934	3037.1578	3412.4	2528.4
1031.2038	3038.1966	3408.85	2520.3
1031.3142	3039.2348	3403.7	2516.45
1031.4246	3040.2723	3391.1	2496.35
1031.5349	3041.3092	3373.65	2486.45
1031.6452	3042.3455	3364.35	2475.85
1031.7554	3043.3811	3361.7	2474.2
1031.8656	3044.4161	3337.75	2450
1031.9758	3045.4505	3320.85	2435.4
1032.0859	3046.4842	3324.1	2438.35
1032.1959	3047.5173	3311.5	2425.3
1032.3059	3048.5498	3306.1	2418.4
1032.4159	3049.5816	3293.4	2405.15
1032.5258	3050.6128	3282.85	2395.7
1032.6357	3051.6434	3262.25	2372.2
1032.7455	3052.6734	3264.1	2375.6
1032.8553	3053.7027	3240.7	2354.15
1032.9651	3054.7314	3231.5	2344.55
1033.0748	3055.7594	3213.45	2327.8
1033.1845	3056.7868	3201.55	2314.35
1033.2941	3057.8136	3185	2299
1033.4037	3058.8398	3182.4	2296.1
1033.5132	3059.8653	3176.3	2289.65
1033.6227	3060.8902	3160.3	2273.15
1033.7321	3061.9145	3142.9	2255.45
1033.8415	3062.9381	3122.7	2236.8
1033.9509	3063.9612	3139.4	2236.25
1034.0602	3064.9835	3116.2	2228.45
1034.1694	3066.0053	3105.55	2217.25
1034.2787	3067.0264	3097.3	2210.8
1034.3878	3068.0469	3079.95	2193.2
1034.497	3069.0668	3083.6	2195.1
1034.6061	3070.086	3046.55	2160.25
1034.7151	3071.1046	3051.2	2163.15
1034.8241	3072.1226	3023.4	2136.85
1034.9331	3073.1399	3015.2	2129.4
1035.042	3074.1567	3003.9	2118.45
1035.1508	3075.1727	2980.55	2093.5
1035.2597	3076.1882	2960.6	2075.1
1035.3684	3077.203	2957	2071.25
1035.4772	3078.2173	2943.85	2057.15
1035.5859	3079.2308	2943.5	2053.75
1035.6945	3080.2438	2916.4	2027.4
1035.8031	3081.2561	2908.15	2018.7
1035.9117	3082.2678	2893.8	2008.5
1036.0202	3083.2789	2892.7	2005.7
1036.1286	3084.2893	2877	1990.85
1036.2371	3085.2991	2866.8	1977.65
1036.3454	3086.3083	2847.75	1955.65
1036.4538	3087.3169	2840.65	1952.45
1036.562	3088.3248	2830.95	1943.2
1036.6703	3089.3321	2813.35	1926.85
1036.7785	3090.3388	2804.4	1917.6
1036.8866	3091.3449	2793.05	1904.7
1036.9948	3092.3503	2785.95	1897.4
1037.1028	3093.3551	2769.65	1884.5
1037.2108	3094.3593	2771.65	1887.6
1037.3188	3095.3629	2755	1870.25
1037.4267	3096.3658	2745.05	1857.9
1037.5346	3097.3681	2733.85	1845.7
1037.6425	3098.3698	2710.6	1823.9
1037.7503	3099.3708	2716.2	1824.3
1037.858	3100.3713	2699.1	1813.3
1037.9657	3101.3711	2687.85	1802.75
1038.0734	3102.3702	2792.2	1766.4
1038.181	3103.3688	2688.35	1800.85
1038.2886	3104.3667	2652.8	1765.9
1038.3961	3105.364	2635.35	1749.5
1038.5036	3106.3607	2629.65	1740.25
1038.611	3107.3568	2610.6	1725.2
1038.7184	3108.3522	2605.3	1720.15
1038.8257	3109.347	2602.8	1716.65
1038.933	3110.3412	2588.65	1699.1
1039.0403	3111.3348	2575.35	1689.2
1039.1475	3112.3277	2574.05	1687.85
1039.2547	3113.32	2555.3	1670.1
1039.3618	3114.3117	2546.1	1658.9
1039.4689	3115.3028	2541.95	1654.95
1039.5759	3116.2932	2530.7	1640.2
1039.6829	3117.2831	2514.65	1622.35
1039.7898	3118.2723	2506.85	1619.7
1039.8967	3119.2608	2489.6	1604.9
1040.0035	3120.2488	2502.5	1615.7
1040.1103	3121.2361	2485	1597.85
1040.2171	3122.2229	2468.9	1582.6
1040.3238	3123.209	2468.25	1581.3
1040.4305	3124.1944	2454.4	1569.3
1040.5371	3125.1793	2443.2	1556.1
1040.6437	3126.1635	2441.05	1555.65
1040.7502	3127.1471	2431.25	1546.35
1040.8567	3128.1301	2413.6	1524.8
1040.9631	3129.1125	2421.85	1535.95
1041.0695	3130.0942	2409.05	1523.45
1041.1759	3131.0753	2415.35	1520.9
1041.2822	3132.0558	2398.45	1509.3
1041.3884	3133.0357	2396.95	1508
1041.4946	3134.015	2383.85	1496.7
1041.6008	3134.9936	2371.5	1482.75
1041.7069	3135.9716	2379	1470.4
1041.813	3136.949	2366.45	1480.45
1041.919	3137.9258	2355.45	1462.35
1042.025	3138.902	2351.55	1459.45
1042.1309	3139.8775	2347.1	1461.45
1042.2368	3140.8524	2344.45	1457.15
1042.3427	3141.8267	2328.35	1440.55
1042.4485	3142.8004	2320.15	1433.25
1042.5542	3143.7735	2323.9	1432.15
1042.6599	3144.7459	2317.65	1428.6
1042.7656	3145.7178	2291.75	1404.15
1042.8712	3146.689	2290.65	1405.3
1042.9768	3147.6596	2295.25	1407.55
1043.0823	3148.6295	2286.1	1400
1043.1878	3149.5989	2271.35	1385.5
1043.2932	3150.5676	2263.25	1379.15
1043.3986	3151.5357	2251.3	1367.05
1043.5039	3152.5032	2251.15	1366.5
1043.6092	3153.4701	2246.55	1362.15
1043.7145	3154.4364	2243.95	1356.65
1043.8197	3155.402	2224.65	1339.9
1043.9248	3156.367	2223.35	1334
1044.03	3157.3315	2257.3	1327.9
1044.135	3158.2952	2204.6	1317
1044.24	3159.2584	2202.8	1318.65
1044.345	3160.221	2189.3	1303.6
1044.4499	3161.1829	2185	1299.2
1044.5548	3162.1442	2177.9	1292.8
1044.6596	3163.105	2162.05	1276.55
1044.7644	3164.065	2160.3	1275.15
1044.8692	3165.0245	2160.35	1270.9
1044.9739	3165.9834	2143.85	1258.15
1045.0785	3166.9416	2139.35	1254.8
1045.1831	3167.8993	2133.3	1245.15
1045.2877	3168.8563	2127.6	1241.35
1045.3922	3169.8127	2128.85	1242.05
1045.4966	3170.7684	2114.55	1228.65
1045.6011	3171.7236	2107.95	1220.95
1045.7054	3172.6782	2093.7	1207.7
1045.8098	3173.6321	2093.9	1206.6
1045.914	3174.5854	2088.7	1195.7
1046.0183	3175.5381	2083.95	1198.5
1046.1224	3176.4902	2066	1177.2
1046.2266	3177.4417	2060.7	1176.95
1046.3307	3178.3926	2054.9	1170
1046.4347	3179.3428	2044.95	1160.6
1046.5387	3180.2924	2054.05	1169.3
1046.6427	3181.2415	2040.2	1153.3
1046.7466	3182.1899	2034.05	1144.8
1046.8504	3183.1377	2028.5	1143
1046.9542	3184.0848	2020.4	1130.75
1047.058	3185.0314	2004.55	1117.2
1047.1617	3185.9773	2005.7	1118.65
1047.2654	3186.9227	2010.65	1123.55
1047.369	3187.8674	2007.95	1122.35
1047.4726	3188.8115	1992.2	1101.55
1047.5761	3189.755	1990.5	1104.35
1047.6796	3190.6979	1971.9	1085.35
1047.783	3191.6402	1977.5	1092.1
1047.8864	3192.5818	1981.7	1097.05
1047.9898	3193.5229	1985.5	1082.25
1048.0931	3194.4633	1954.7	1068.15
1048.1963	3195.4031	1951.25	1064.15
1048.2995	3196.3423	1950.2	1063.55
1048.4027	3197.2809	1946.9	1061.95
1048.5058	3198.2189	1949.35	1061.2
1048.6089	3199.1563	1943.3	1043
1048.7119	3200.0931	1931.15	1044.8
1048.8148	3201.0292	1921.3	1037.05
1048.9178	3201.9648	1920.55	1033.4
1049.0206	3202.8997	1917.1	1027
1049.1235	3203.834	1907.85	1022.2
1049.2262	3204.7677	1894.45	1008.75
1049.329	3205.7008	1887.5	998.9
1049.4317	3206.6333	1887.85	1003.25
1049.5343	3207.5652	1883.05	993.8
1049.6369	3208.4964	1878.1	991.35
1049.7394	3209.4271	1882.75	997.15
1049.8419	3210.3571	1877	992
1049.9444	3211.2865	1867.35	979.65
1050.0468	3212.2154	1879.25	992.15
1050.1491	3213.1436	1853.55	963.5
1050.2514	3214.0712	1864.6	972.1
1050.3537	3214.9982	1850.1	962.25
1050.4559	3215.9246	1839.25	953.6
1050.5581	3216.8503	1839.1	953.4
1050.6602	3217.7755	1824.5	937.05
1050.7623	3218.7001	1825.6	939.35
1050.8643	3219.624	1825.15	939.8
1050.9663	3220.5473	1819.8	932.25
1051.0682	3221.4701	1815.5	929.25
1051.1701	3222.3922	1795.35	906.65
1051.2719	3223.3137	1797.05	910.85
1051.3737	3224.2346	1800.3	914.2
1051.4754	3225.1549	1794.6	908
1051.5771	3226.0746	1782.05	896.6
1051.6788	3226.9937	1780	893.05
1051.7804	3227.9121	1774.7	888.8
1051.8819	3228.83	1772.75	887.65
1051.9834	3229.7473	1763.95	875.85
1052.0849	3230.6639	1768.1	881.6
1052.1863	3231.5799	1761.7	875.2
1052.2876	3232.4954	1750.5	863.8
1052.3889	3233.4102	1747.35	860.75
1052.4902	3234.3244	1736.8	850.55
1052.5914	3235.238	1738.25	852.2
1052.6926	3236.151	1745.1	837.6
1052.7937	3237.0634	1732	847.9
1052.8948	3237.9752	1717.8	832.85
1052.9958	3238.8864	1725.1	837.85
1053.0968	3239.797	1721.45	837.45
1053.1977	3240.7069	1704.15	816.2
1053.2986	3241.6163	1697.7	810.55
1053.3994	3242.5251	1696.9	810.65
1053.5002	3243.4332	1691.9	804.85
1053.6009	3244.3408	1687.4	801
1053.7016	3245.2477	1678.7	792.9
1053.8022	3246.154	1675.45	789.25
1053.9028	3247.0598	1674.3	788.4
1054.0034	3247.9649	1668.6	782.9
1054.1039	3248.8694	1664.7	778.8
1054.2043	3249.7733	1658.2	770
1054.3047	3250.6766	1654.85	769.2
1054.4051	3251.5793	1652.75	765.1
1054.5054	3252.4814	1639.05	751.1
1054.6056	3253.3829	1641.25	755.35
1054.7058	3254.2838	1636.7	750.85
1054.806	3255.1841	1627.9	742.6
1054.9061	3256.0838	1622.8	736.15
1055.0061	3256.9829	1611.6	728.75
1055.1062	3257.8814	1615.15	728
1055.2061	3258.7792	1604.9	717.1
1055.306	3259.6765	1597.05	710.05
1055.4059	3260.5731	1594.2	709
1055.5057	3261.4692	1589.8	701.15
1055.6055	3262.3647	1572.6	684.7
1055.7052	3263.2595	1559.65	673.4
1055.8049	3264.1538	1548.45	661.9
1055.9045	3265.0474	1552.3	667.45
1056.0041	3265.9404	1528	641.5
1056.1036	3266.8329	1517.95	633.5
1056.2031	3267.7247	1527.45	631.75
1056.3025	3268.616	1495.7	610.9
1056.4019	3269.5066	1487.8	600.95
1056.5013	3270.3966	1470.1	582.85
1056.6005	3271.286	1451.1	566.8
