Software Version:	3.9.2.0
Unit SN:	10000200
Spectrometer SN:	6960
Date:	3/6/2024 10:41:43 AM
Data Line Index:	25
Spectral Points:	2048
Integration time (ms):	125
Averages:	20
Delay (ms):	30
Sequence Number:	1
Processing:	dark subtract
Laser Power (mW):	305
Laser Current (mA):	822
Laser Diode Temp (C):	25.1
Laser Case Temp (C):	27
System Temp (C):	26.8
Spectrometer Temp (C):	24.2
CCD Temp (C):	0.004
Secondary Temp (C):	20.008
Heatsink Temp (C):	22.512
CCDPCB Temp (C):	36.44
SecondaryPCB Temp (C):	33.839

Wavelength	RamanShift	Raw Counts	Dark Subtracted
787.061	30.1047	1122.75	709.1
787.2016	32.3739	1150.55	737.25
787.3422	34.6426	1192.05	778.1
787.4828	36.9109	1247.35	830.7
787.6235	39.1787	1302.15	883.3
787.7642	41.4461	1355.35	931.05
787.9049	43.7131	1425.15	997.6
788.0456	45.9796	1489.55	1059.45
788.1863	48.2456	1544.6	1108.2
788.3271	50.5112	1617.2	1180.1
788.4679	52.7764	1693.35	1254.1
788.6087	55.0411	1772.8	1330.75
788.7496	57.3054	1844.65	1397
788.8904	59.5692	1947.4	1495.8
789.0313	61.8326	2040.95	1585.85
789.1722	64.0955	2142.15	1682.05
789.3132	66.3579	2269.95	1805.85
789.4541	68.6199	2427.55	1962.1
789.5951	70.8815	2670.45	2200.8
789.7361	73.1426	3193.95	2720.4
789.8771	75.4032	4504	4025.8
790.0181	77.6634	7835.45	7349.35
790.1592	79.9231	16497.3	16006.65
790.3003	82.1824	54012.95	53512.4
790.4414	84.4412	65535	65013.55
790.5825	86.6995	65535	64988.7
790.7237	88.9574	65535	64960.45
790.8648	91.2148	65535	64944.1
791.006	93.4717	65535	64931.8
791.1472	95.7282	65535	64927.4
791.2885	97.9842	65535	64923.55
791.4297	100.2398	65535	64917.85
791.571	102.4949	65535	64914.8
791.7123	104.7495	65535	64915.6
791.8536	107.0036	65535	64909.95
791.9949	109.2573	65535	64914.55
792.1363	111.5105	65535	64911.9
792.2777	113.7632	65535	64913.4
792.4191	116.0154	65535	64895.8
792.5605	118.2672	65535	64904.95
792.7019	120.5185	65535	64904.35
792.8434	122.7693	65535	64899.3
792.9849	125.0197	65535	64899.25
793.1264	127.2696	65535	64889.65
793.2679	129.519	65535	64888.9
793.4094	131.7679	65535	64886.3
793.551	134.0163	65535	64886.8
793.6926	136.2642	65535	64878.05
793.8342	138.5117	65535	64870.85
793.9758	140.7587	65535	64874.95
794.1175	143.0052	65535	64875.65
794.2591	145.2512	65535	64872.7
794.4008	147.4967	65535	64873.8
794.5425	149.7417	65535	64870.65
794.6842	151.9863	65535	64865.05
794.826	154.2304	65535	64863.7
794.9677	156.4739	65535	64855.95
795.1095	158.717	65535	64857.05
795.2513	160.9596	65535	64852.3
795.3931	163.2017	65535	64850.15
795.535	165.4433	65535	64847.65
795.6768	167.6844	65535	64850.65
795.8187	169.925	65535	64844.65
795.9606	172.1651	65535	64844.4
796.1025	174.4047	65535	64841.75
796.2445	176.6439	65535	64839.4
796.3864	178.8825	65535	64835.75
796.5284	181.1206	65535	64830.95
796.6704	183.3582	65535	64829.55
796.8124	185.5954	65535	64826.05
796.9544	187.832	65535	64820.6
797.0965	190.0681	65535	64818.45
797.2386	192.3037	65535	64817.65
797.3806	194.5388	65535	64815.45
797.5228	196.7734	65535	64811.6
797.6649	199.0075	65535	64809.85
797.807	201.2411	65535	64804.25
797.9492	203.4742	65535	64809.9
798.0914	205.7068	65535	64802.8
798.2336	207.9389	65535	64802.1
798.3758	210.1704	65535	64800.4
798.518	212.4015	65535	64803.1
798.6603	214.632	65535	64812.65
798.8025	216.862	65535	64820.55
798.9448	219.0915	65535	64820.2
799.0871	221.3205	65535	64822
799.2294	223.549	65535	64822.7
799.3718	225.777	65535	64822.95
799.5141	228.0044	65535	64815.8
799.6565	230.2314	65535	64818.15
799.7989	232.4578	65535	64815.8
799.9413	234.6837	65535	64807.65
800.0837	236.909	65535	64803.45
800.2262	239.1339	65535	64779.6
800.3687	241.3582	65535	64794.25
800.5111	243.582	65535	64762.8
800.6536	245.8053	65535	64774.5
800.7961	248.0281	65535	64782.35
800.9387	250.2503	65535	64777.1
801.0812	252.472	65535	64771.9
801.2238	254.6932	65535	64773.8
801.3664	256.9139	65535	64775.1
801.509	259.134	65535	64768.7
801.6516	261.3536	65535	64766.25
801.7942	263.5727	65535	64769.15
801.9369	265.7912	65535	64770.55
802.0795	268.0092	65535	64768.65
802.2222	270.2267	65535	64765.4
802.3649	272.4436	65535	64770.35
802.5076	274.6601	65535	64760.6
802.6504	276.8759	65535	64761.8
802.7931	279.0913	65535	64761.5
802.9359	281.3061	65535	64764.25
803.0787	283.5204	65535	64760.25
803.2215	285.7341	65535	64754.1
803.3643	287.9473	65535	64742.6
803.5071	290.16	65535	64752.6
803.6499	292.3721	65535	64753.85
803.7928	294.5837	65535	64752.45
803.9357	296.7947	65535	64755.6
804.0786	299.0052	65535	64755.25
804.2215	301.2152	65535	64753.5
804.3644	303.4246	65535	64754.05
804.5074	305.6334	65535	64754.15
804.6503	307.8418	65535	64749.85
804.7933	310.0495	65535	64749.1
804.9363	312.2568	65535	64749.95
805.0793	314.4635	65535	64747.2
805.2223	316.6696	65535	64741.1
805.3653	318.8752	65535	64733.45
805.5084	321.0802	65535	64745.25
805.6514	323.2847	65535	64742.85
805.7945	325.4887	65535	64741.95
805.9376	327.692	65535	64742.15
806.0807	329.8949	65535	64739.15
806.2238	332.0972	65535	64739.7
806.367	334.2989	65535	64736.7
806.5101	336.5001	65535	64734.15
806.6533	338.7007	65535	64734.7
806.7965	340.9008	65535	64731.55
806.9397	343.1003	65535	64729.4
807.0829	345.2992	65535	64728.6
807.2261	347.4976	65535	64731.3
807.3693	349.6955	65535	64724.95
807.5126	351.8927	65535	64718.8
807.6559	354.0895	65535	64708.55
807.7991	356.2856	65535	64721.2
807.9424	358.4812	65535	64722.3
808.0857	360.6763	65535	64720.25
808.2291	362.8707	65535	64720.6
808.3724	365.0646	65535	64716.45
808.5158	367.258	65535	64720.35
808.6591	369.4508	65535	64711.65
808.8025	371.643	65535	64715.55
808.9459	373.8346	65535	64710.65
809.0893	376.0257	65535	64706.7
809.2327	378.2162	65535	64707.1
809.3762	380.4062	65535	64706
809.5196	382.5956	65535	64706.25
809.6631	384.7844	65535	64705.65
809.8066	386.9726	65535	64710.8
809.9501	389.1603	65535	64712.9
810.0936	391.3474	65535	64671.2
810.2371	393.5339	65535	64712.7
810.3806	395.7199	65535	64714.2
810.5241	397.9052	65535	64716
810.6677	400.09	65535	64715.3
810.8113	402.2743	65535	64714.75
810.9548	404.4579	65535	64715.05
811.0984	406.641	65535	64711.65
811.2421	408.8235	65535	64707.85
811.3857	411.0054	65535	64708.1
811.5293	413.1868	65535	64708.15
811.673	415.3675	65535	64703.95
811.8166	417.5477	65535	64704.25
811.9603	419.7273	65535	64700.15
812.104	421.9064	65535	64689.65
812.2477	424.0848	65535	64697.6
812.3914	426.2627	65535	64696.7
812.5351	428.4399	65535	64695.85
812.6788	430.6166	65535	64691.6
812.8226	432.7928	65535	64693.45
812.9663	434.9683	65535	64691
813.1101	437.1432	65535	64692.15
813.2539	439.3176	65535	64693.5
813.3977	441.4914	65535	64690.8
813.5415	443.6645	65535	64688.45
813.6853	445.8371	65535	64689
813.8291	448.0091	65535	64688.25
813.973	450.1806	65535	64689.95
814.1168	452.3514	65535	64686.1
814.2607	454.5216	65535	64681.55
814.4046	456.6913	65535	64685.5
814.5485	458.8603	65535	64688.7
814.6924	461.0288	65535	64686.85
814.8363	463.1967	65535	64685.5
814.9802	465.3639	65535	64688.2
815.1241	467.5306	65535	64685.9
815.2681	469.6967	65535	64686.9
815.412	471.8622	65535	64685.95
815.556	474.0271	65535	64685.65
815.7	476.1914	65535	64685.05
815.844	478.3551	65535	64684.5
815.988	480.5182	65535	64683.15
816.132	482.6807	65535	64682.95
816.276	484.8426	65535	64683.45
816.4201	487.0039	65535	64683.55
816.5641	489.1647	65535	64677.8
816.7082	491.3248	65535	64679.8
816.8522	493.4843	65535	64682.65
816.9963	495.6432	65535	64683.15
817.1404	497.8015	65535	64674.85
817.2845	499.9592	65535	64678.6
817.4286	502.1163	65535	64676.55
817.5727	504.2728	65535	64675.85
817.7168	506.4287	65535	64679.75
817.861	508.5839	65535	64679.75
818.0051	510.7386	65535	64678.5
818.1493	512.8927	65535	64674.85
818.2935	515.0461	65535	64676.05
818.4377	517.199	65535	64677.75
818.5818	519.3512	65535	64675.85
818.726	521.5029	65535	64670.85
818.8703	523.6539	65535	64671.65
819.0145	525.8043	65535	64669.25
819.1587	527.9541	65535	64670.05
819.303	530.1033	65535	64670.05
819.4472	532.2519	65535	64671.6
819.5915	534.3999	65535	64669.05
819.7357	536.5472	65535	64671.05
819.88	538.694	65535	64673.85
820.0243	540.8401	65535	64669.15
820.1686	542.9856	65535	64668.2
820.3129	545.1305	65535	64667
820.4572	547.2748	65535	64668.2
820.6016	549.4185	65535	64664.95
820.7459	551.5615	65535	64663.75
820.8902	553.704	65535	64663.9
821.0346	555.8458	65535	64666.85
821.1789	557.987	65535	64663.4
821.3233	560.1276	65535	64665.05
821.4677	562.2675	65535	64665
821.6121	564.4069	65535	64664.9
821.7565	566.5456	65535	64666.9
821.9009	568.6837	65535	64663.3
822.0453	570.8212	65535	64664.8
822.1897	572.958	65535	64664.6
822.3342	575.0942	65535	64665.45
822.4786	577.2299	65535	64665.7
822.6231	579.3648	65535	64666.4
822.7675	581.4992	65535	64669.05
822.912	583.6329	65535	64667.35
823.0565	585.766	65535	64669.55
823.201	587.8985	65535	64663.8
823.3454	590.0304	65535	64646.15
823.4899	592.1616	65535	64661.75
823.6345	594.2922	65535	64662.7
823.779	596.4222	65535	64659.75
823.9235	598.5515	65535	64660.05
824.068	600.6802	65535	64660.95
824.2126	602.8083	65535	64658.95
824.3571	604.9358	65535	64661.5
824.5017	607.0626	65535	64656.8
824.6462	609.1888	65535	64656.85
824.7908	611.3144	65535	64657.7
824.9354	613.4393	65535	64660.9
825.08	615.5636	65535	64655.35
825.2246	617.6873	65535	64659.6
825.3692	619.8103	65535	64655.6
825.5138	621.9327	65535	64656.1
825.6584	624.0544	65535	64656.7
825.803	626.1756	65535	64657.7
825.9477	628.2961	65535	64659.5
826.0923	630.4159	65535	64658.1
826.237	632.5351	65535	64656.7
826.3816	634.6537	65535	64653.3
826.5263	636.7716	65535	64652.4
826.6709	638.8889	65535	64653.2
826.8156	641.0056	65535	64653.6
826.9603	643.1216	65535	64652.55
827.105	645.237	65535	64651.85
827.2497	647.3518	65535	64652.8
827.3944	649.4659	65535	64654.4
827.5391	651.5793	65535	64652.65
827.6838	653.6922	65535	64654.6
827.8285	655.8043	65535	64651.35
827.9733	657.9159	65535	64650
828.118	660.0268	65535	64650.7
828.2627	662.137	65535	64652.3
828.4075	664.2466	65535	64647.7
828.5522	666.3556	65535	64651.05
828.697	668.4639	65535	64644.1
828.8418	670.5716	65535	64650.05
828.9865	672.6786	65535	64647.35
829.1313	674.785	65535	64645.6
829.2761	676.8907	65535	64645.45
829.4209	678.9958	65535	64651.65
829.5657	681.1002	65535	64648.15
829.7105	683.204	65535	64644.45
829.8553	685.3072	65535	64644.45
830.0001	687.4097	65535	64649.55
830.1449	689.5115	65535	64645.65
830.2898	691.6127	65535	64647.05
830.4346	693.7132	65535	64645.35
830.5794	695.8131	65535	64632.2
830.7243	697.9123	65535	64643.65
830.8691	700.0109	65535	64643.95
831.014	702.1089	65535	64646.55
831.1588	704.2061	65535	64647.05
831.3037	706.3028	65535	64644.3
831.4486	708.3987	65535	64645.6
831.5935	710.4941	65535	64641.95
831.7383	712.5887	65535	64642.1
831.8832	714.6827	65535	64639.7
832.0281	716.7761	65535	64646.55
832.173	718.8688	65535	64644.35
832.3179	720.9608	65535	64636.05
832.4628	723.0522	65535	64637.85
832.6077	725.1429	65535	64644.35
832.7527	727.233	65535	64645.1
832.8976	729.3224	65535	64644.4
833.0425	731.4112	65535	64640.1
833.1874	733.4993	65535	64641.95
833.3324	735.5867	65535	64642.8
833.4773	737.6735	65535	64640.85
833.6222	739.7596	65535	64642.9
833.7672	741.845	65535	64642.1
833.9122	743.9298	65535	64640.05
834.0571	746.014	65535	64641.9
834.2021	748.0974	65535	64636.9
834.347	750.1802	65535	64641.4
834.492	752.2624	65535	64640.65
834.637	754.3439	65535	64640.3
834.782	756.4247	65535	64632.15
834.9269	758.5048	65535	64640.05
835.0719	760.5843	65535	64641.2
835.2169	762.6631	65535	64638.85
835.3619	764.7413	65535	64641.8
835.5069	766.8188	65535	64638.85
835.6519	768.8956	65535	64638.4
835.7969	770.9718	65535	64639.35
835.9419	773.0473	65535	64640.15
836.0869	775.1221	65535	64640.9
836.232	777.1962	65535	64638
836.377	779.2697	65535	64637.85
836.522	781.3426	65535	64618.35
836.667	783.4147	65535	64636.9
836.8121	785.4862	65535	64639.4
836.9571	787.557	65535	64637.95
837.1021	789.6271	65535	64639.1
837.2472	791.6966	65535	64635.7
837.3922	793.7654	65535	64634.6
837.5373	795.8335	65535	64637.7
837.6823	797.901	65535	64639.3
837.8274	799.9678	65535	64636.85
837.9724	802.0339	65535	64637.85
838.1175	804.0993	65535	64629.55
838.2626	806.1641	65535	64636.9
838.4076	808.2282	65535	64641.25
838.5527	810.2916	65535	64637.8
838.6978	812.3544	65535	64639.5
838.8428	814.4164	65535	64641.9
838.9879	816.4778	65535	64635.85
839.133	818.5385	65535	64636.15
839.2781	820.5986	65535	64638.4
839.4232	822.658	65535	64635.6
839.5682	824.7166	65535	64636.25
839.7133	826.7747	65535	64638.55
839.8584	828.832	65535	64634.15
840.0035	830.8886	65535	64636.1
840.1486	832.9446	65535	64635.15
840.2937	834.9999	65535	64637.2
840.4388	837.0545	65535	64638.2
840.5839	839.1085	65535	64635.15
840.729	841.1618	65535	64633.05
840.8741	843.2143	65535	64638.7
841.0192	845.2662	65535	64635.85
841.1643	847.3175	65535	64638
841.3095	849.368	65535	64638.45
841.4546	851.4179	65535	64636.65
841.5997	853.467	65535	64632.6
841.7448	855.5155	65535	64636.5
841.8899	857.5633	65535	64636.35
842.0351	859.6105	65535	64636.2
842.1802	861.6569	65535	64638.2
842.3253	863.7027	65535	64633.5
842.4704	865.7478	65535	64631.35
842.6156	867.7922	65535	64633.75
842.7607	869.8359	65535	64634.35
842.9058	871.8789	65535	64633.45
843.0509	873.9212	65535	64605.6
843.1961	875.9629	65535	64633.9
843.3412	878.0039	65535	64633.7
843.4863	880.0441	65535	64636.7
843.6315	882.0837	65535	64637.4
843.7766	884.1226	65535	64632.8
843.9218	886.1609	65535	64635.3
844.0669	888.1984	65535	64635.95
844.212	890.2352	65535	64635
844.3572	892.2714	65535	64631.5
844.5023	894.3069	65535	64633.8
844.6475	896.3416	65535	64631.3
844.7926	898.3757	65535	64631.3
844.9377	900.4091	65535	64633.75
845.0829	902.4418	65535	64628.5
845.228	904.4739	65535	64631.45
845.3732	906.5052	65535	64630.45
845.5183	908.5358	65535	64633.45
845.6635	910.5658	65535	64631.55
845.8086	912.595	65535	64633.75
845.9538	914.6236	65535	64631.6
846.0989	916.6515	65535	64631
846.2441	918.6786	65535	64632.25
846.3892	920.7051	65535	64629.4
846.5344	922.7309	65535	64631.45
846.6795	924.756	65535	64629.55
846.8246	926.7804	65535	64629.4
846.9698	928.8041	65535	64628.75
847.1149	930.8272	65535	64633.65
847.2601	932.8495	65535	64629.9
847.4052	934.8711	65535	64631.25
847.5504	936.892	65535	64632.7
847.6955	938.9123	65535	64631.7
847.8407	940.9318	65535	64633.65
847.9858	942.9506	65535	64630.9
848.131	944.9688	65535	64632
848.2761	946.9862	65535	64630.15
848.4213	949.003	65535	64632.65
848.5664	951.019	65535	64629
848.7115	953.0344	65535	64630.05
848.8567	955.0491	65535	64632.1
849.0018	957.063	65535	64632.9
849.147	959.0763	65535	64632.5
849.2921	961.0888	65535	64628.25
849.4373	963.1007	65535	64630.45
849.5824	965.1119	65535	64634
849.7275	967.1223	65535	64632.6
849.8727	969.1321	65535	64636.6
850.0178	971.1412	65535	64633.8
850.1629	973.1495	65535	64631.95
850.3081	975.1572	65535	64581.9
850.4532	977.1641	65535	64632.35
850.5983	979.1704	65535	64634.35
850.7435	981.1759	65535	64628.1
850.8886	983.1808	65535	64629.35
851.0337	985.1849	65535	64616.7
851.1788	987.1884	65535	64629.85
851.324	989.1911	65535	64628.4
851.4691	991.1932	65535	64630.55
851.6142	993.1945	65535	64631.25
851.7593	995.1951	65535	64630.85
851.9045	997.1951	65535	64623.8
852.0496	999.1943	65535	64634.25
852.1947	1001.1928	65535	64629.35
852.3398	1003.1906	65535	64629.85
852.4849	1005.1877	65535	64630.9
852.63	1007.1841	65535	64629.3
852.7751	1009.1798	65535	64631.3
852.9202	1011.1748	65535	64631.4
853.0653	1013.1691	65535	64632.7
853.2104	1015.1627	65535	64631.95
853.3555	1017.1556	65535	64632.25
853.5006	1019.1477	65535	64632.85
853.6457	1021.1392	65535	64632.85
853.7908	1023.1299	65535	64631.05
853.9359	1025.12	65535	64632.75
854.081	1027.1093	65535	64639.8
854.2261	1029.0979	65535	64636.7
854.3712	1031.0859	65535	64634.15
854.5163	1033.0731	65535	64633.75
854.6613	1035.0596	65535	64633.15
854.8064	1037.0454	65535	64631.2
854.9515	1039.0304	65535	64629.15
855.0965	1041.0148	65535	64631.9
855.2416	1042.9985	65535	64632.15
855.3867	1044.9814	65535	64633.95
855.5317	1046.9636	65535	64632
855.6768	1048.9452	65535	64631.15
855.8219	1050.926	65535	64635.15
855.9669	1052.9061	65535	64634.4
856.112	1054.8855	65535	64635.3
856.257	1056.8642	65535	64631.35
856.4021	1058.8421	65535	64627.35
856.5471	1060.8194	65535	64631.4
856.6921	1062.7959	65535	64631.05
856.8372	1064.7717	65535	64627.95
856.9822	1066.7469	65535	64631.7
857.1272	1068.7213	65535	64627.85
857.2723	1070.695	65535	64631.4
857.4173	1072.6679	65535	64631.25
857.5623	1074.6402	65535	64629.4
857.7073	1076.6117	65535	64625.25
857.8523	1078.5826	65535	64631.9
857.9973	1080.5527	65535	64629.9
858.1423	1082.5221	65535	64631.55
858.2873	1084.4908	65535	64631.65
858.4323	1086.4587	65535	64628.95
858.5773	1088.426	65535	64629.35
858.7223	1090.3925	65535	64626.4
858.8673	1092.3584	65535	64632.65
859.0123	1094.3235	65535	64634.5
859.1573	1096.2879	65535	64630.55
859.3022	1098.2515	65535	64633.15
859.4472	1100.2145	65535	64633.15
859.5922	1102.1767	65535	64628.2
859.7371	1104.1382	65535	64630.85
859.8821	1106.099	65535	64631.1
860.027	1108.0591	65535	64633.7
860.172	1110.0185	65535	64632.1
860.3169	1111.9771	65535	64631.15
860.4619	1113.9351	65535	64633.55
860.6068	1115.8923	65535	64631.65
860.7517	1117.8488	65535	64630.8
860.8967	1119.8045	65535	64632.2
861.0416	1121.7596	65535	64633.75
861.1865	1123.7139	65535	64632.7
861.3314	1125.6675	65535	64633.7
861.4763	1127.6204	65535	64634.2
861.6212	1129.5726	65535	64629.65
861.7661	1131.524	65535	64633.6
861.911	1133.4748	65535	64630.95
862.0559	1135.4248	65535	64632.65
862.2008	1137.3741	65535	64631.65
862.3457	1139.3226	65535	64630.6
862.4905	1141.2705	65535	64630.75
862.6354	1143.2176	65535	64626.1
862.7803	1145.164	65535	64627.6
862.9251	1147.1097	65535	64631.55
863.07	1149.0546	65535	64629.45
863.2148	1150.9989	65535	64630.2
863.3597	1152.9424	65535	64629.85
863.5045	1154.8852	65535	64630.3
863.6493	1156.8272	65535	64632.85
863.7942	1158.7686	65535	64626.15
863.939	1160.7092	65535	64629.7
864.0838	1162.6491	65535	64630.55
864.2286	1164.5883	65535	64633.05
864.3734	1166.5267	65535	64632.6
864.5182	1168.4644	65535	64630.8
864.663	1170.4014	65535	64626.95
864.8078	1172.3377	65535	64632.15
864.9526	1174.2732	65535	64632.55
865.0974	1176.2081	65535	64632.4
865.2421	1178.1421	65535	64628.15
865.3869	1180.0755	65535	64633.8
865.5317	1182.0082	65535	64634
865.6764	1183.9401	65535	64632.1
865.8212	1185.8713	65535	64632.75
865.9659	1187.8017	65535	64633.4
866.1106	1189.7315	65535	64633.1
866.2554	1191.6605	65535	64605.55
866.4001	1193.5888	65535	64633.8
866.5448	1195.5163	65535	64633.4
866.6895	1197.4432	65535	64630.45
866.8342	1199.3693	65535	64632.65
866.9789	1201.2947	65535	64628.75
867.1236	1203.2193	65535	64631.65
867.2683	1205.1432	65535	64631.95
867.413	1207.0664	65535	64631.8
867.5576	1208.9889	65535	64631.2
867.7023	1210.9106	65535	64633.8
867.847	1212.8316	65535	64631.7
867.9916	1214.7519	65535	64622.9
868.1363	1216.6715	65535	64633.65
868.2809	1218.5903	65535	64634.2
868.4255	1220.5084	65535	64631.95
868.5701	1222.4257	65535	64631.3
868.7148	1224.3424	65535	64631.6
868.8594	1226.2583	65535	64630.25
869.004	1228.1735	65535	64630.4
869.1486	1230.0879	65535	64631.4
869.2932	1232.0016	65535	64633.2
869.4377	1233.9146	65535	64631
869.5823	1235.8269	65535	64630.75
869.7269	1237.7384	65535	64633.85
869.8715	1239.6492	65535	64632.5
870.016	1241.5592	65535	64630.25
870.1606	1243.4686	65535	64635
870.3051	1245.3772	65535	64632.35
870.4496	1247.285	65535	64630.4
870.5941	1249.1922	65535	64633.15
870.7387	1251.0986	65535	64634.2
870.8832	1253.0042	65535	64632.3
871.0277	1254.9092	65535	64633.15
871.1722	1256.8134	65535	64632.6
871.3167	1258.7169	65535	64630.35
871.4611	1260.6196	65535	64635.65
871.6056	1262.5216	65535	64631.65
871.7501	1264.4229	65535	64631.4
871.8945	1266.3234	65535	64633.05
872.039	1268.2232	65535	64631.8
872.1834	1270.1223	65535	64631.95
872.3278	1272.0207	65535	64631.7
872.4723	1273.9183	65535	64626.8
872.6167	1275.8151	65535	64631.9
872.7611	1277.7113	65535	64631.7
872.9055	1279.6067	65535	64634.25
873.0499	1281.5014	65535	64629.35
873.1943	1283.3953	65535	64631
873.3386	1285.2885	65535	64634.6
873.483	1287.181	65535	64634
873.6274	1289.0727	65535	64633.1
873.7717	1290.9637	65535	64631.4
873.9161	1292.854	65535	64633.3
874.0604	1294.7435	65535	64633.5
874.2047	1296.6323	65535	64632.75
874.349	1298.5204	65535	64629.95
874.4933	1300.4077	65535	64632.65
874.6376	1302.2943	65535	64628.65
874.7819	1304.1802	65535	64632.9
874.9262	1306.0653	65535	64631.25
875.0705	1307.9497	65535	64629.9
875.2147	1309.8333	65535	64632.85
875.359	1311.7162	65535	64631.75
875.5032	1313.5984	65535	64630.75
875.6475	1315.4798	65535	64625
875.7917	1317.3605	65535	64615.85
875.9359	1319.2405	65535	64631.3
876.0801	1321.1197	65535	64630.25
876.2243	1322.9982	65535	64627.6
876.3685	1324.876	65535	64634.1
876.5127	1326.753	65535	64632.25
876.6569	1328.6293	65535	64631.9
876.801	1330.5048	65535	64631.15
876.9452	1332.3796	65535	64632.1
877.0893	1334.2537	65535	64605.85
877.2335	1336.127	65535	64633.1
877.3776	1337.9996	65535	64632
877.5217	1339.8714	65535	64632.85
877.6658	1341.7426	65535	64589.8
877.8099	1343.6129	65535	64631.55
877.954	1345.4826	65535	64633.95
878.0981	1347.3515	65535	64629.65
878.2422	1349.2196	65535	64632.35
878.3862	1351.087	65535	64632.75
878.5303	1352.9537	65535	64631.6
878.6743	1354.8197	65535	64632.5
878.8184	1356.6849	65535	64631.7
878.9624	1358.5493	65535	64631.9
879.1064	1360.4131	65535	64632.25
879.2504	1362.276	65535	64633.1
879.3944	1364.1383	65535	64633.3
879.5384	1365.9998	65535	64626.45
879.6823	1367.8606	65535	64630.05
879.8263	1369.7206	65535	64633.15
879.9702	1371.5799	65535	64631.45
880.1142	1373.4384	65535	64632.9
880.2581	1375.2962	65535	64631.15
880.402	1377.1533	65535	64632.85
880.5459	1379.0096	65535	64632.5
880.6898	1380.8652	65535	64633.75
880.8337	1382.7201	65535	64632.9
880.9776	1384.5742	65535	64633.3
881.1215	1386.4275	65535	64633.5
881.2653	1388.2802	65535	64633.9
881.4092	1390.132	65535	64632.15
881.553	1391.9832	65535	64629.05
881.6968	1393.8336	65535	64633.15
881.8406	1395.6832	65535	64632.25
881.9844	1397.5322	65535	64632.3
882.1282	1399.3803	65535	64630
882.272	1401.2278	65535	64632.35
882.4158	1403.0745	65535	64633.7
882.5595	1404.9204	65535	64632.55
882.7033	1406.7656	65535	64633.75
882.847	1408.6101	65535	64632.65
882.9908	1410.4538	65535	64635.85
883.1345	1412.2968	65535	64632.6
883.2782	1414.139	65535	64635.3
883.4219	1415.9805	65535	64635.05
883.5656	1417.8213	65535	64625.95
883.7092	1419.6613	65535	64634.7
883.8529	1421.5006	65535	64630.3
883.9965	1423.3391	65535	64630.4
884.1402	1425.1769	65535	64632.8
884.2838	1427.0139	65535	64633.25
884.4274	1428.8502	65535	64632.05
884.571	1430.6858	65535	64632.45
884.7146	1432.5206	65535	64635.6
884.8582	1434.3547	65535	64633.35
885.0018	1436.188	65535	64631.6
885.1453	1438.0206	65535	64632.25
885.2889	1439.8524	65535	64632.9
885.4324	1441.6835	65535	64630.5
885.5759	1443.5139	65535	64629.25
885.7194	1445.3435	65535	64632.2
885.8629	1447.1724	65535	64632
886.0064	1449.0005	65535	64635.15
886.1499	1450.8279	65535	64630.55
886.2933	1452.6545	65535	64634.6
886.4368	1454.4804	65535	64633.1
886.5802	1456.3056	65535	64627.1
886.7237	1458.13	65535	64633.45
886.8671	1459.9536	65535	64633
887.0105	1461.7766	65535	64634.55
887.1539	1463.5987	65535	64632.15
887.2972	1465.4202	65535	64634
887.4406	1467.2409	65535	64633.3
887.584	1469.0608	65535	64635.5
887.7273	1470.88	65535	64633.35
887.8706	1472.6984	65535	64634.75
888.0139	1474.5161	65535	64632.1
888.1572	1476.3331	65535	64633.4
888.3005	1478.1493	65535	64631.6
888.4438	1479.9648	65535	64633.55
888.5871	1481.7795	65535	64634.6
888.7303	1483.5935	65535	64634.65
888.8736	1485.4067	65535	64633.05
889.0168	1487.2192	65535	64634.5
889.16	1489.031	65535	64631.9
889.3032	1490.842	65535	64635.1
889.4464	1492.6522	65535	64636.6
889.5896	1494.4618	65535	64635.1
889.7327	1496.2705	65535	64634.4
889.8759	1498.0785	65535	64633.75
890.019	1499.8858	65535	64633.85
890.1622	1501.6924	65535	64637.45
890.3053	1503.4981	65535	64633.9
890.4484	1505.3032	65535	64633.55
890.5914	1507.1075	65535	64632.6
890.7345	1508.911	65535	64633.35
890.8776	1510.7138	65535	64634.35
891.0206	1512.5159	65535	64635.05
891.1637	1514.3172	65535	64633.35
891.3067	1516.1178	65535	64632.6
891.4497	1517.9176	65535	64631.65
891.5927	1519.7166	65535	64634.4
891.7357	1521.515	65535	64627.35
891.8786	1523.3126	65535	64633.6
892.0216	1525.1094	65535	64633.75
892.1645	1526.9055	65535	64635.9
892.3074	1528.7008	65535	64636.25
892.4503	1530.4954	65535	64627.05
892.5932	1532.2893	65535	64633.15
892.7361	1534.0824	65535	64628.95
892.879	1535.8747	65535	64637.55
893.0218	1537.6663	65535	64635.25
893.1647	1539.4572	65535	64634.05
893.3075	1541.2473	65535	64634.65
893.4503	1543.0367	65535	64637.8
893.5931	1544.8253	65535	64629.15
893.7359	1546.6132	65535	64633.1
893.8787	1548.4003	65535	64628.4
894.0214	1550.1867	65535	64622.65
894.1642	1551.9723	65535	64630.7
894.3069	1553.7572	65535	64634.75
894.4496	1555.5414	65535	64635.25
894.5923	1557.3247	65535	64637.3
894.735	1559.1074	65535	64634.9
894.8777	1560.8893	65535	64635.3
895.0204	1562.6705	65535	64636.7
895.163	1564.4509	65535	64636.85
895.3056	1566.2305	65535	64640.1
895.4482	1568.0094	65535	64637.95
895.5908	1569.7876	65535	64637.85
895.7334	1571.565	65535	64637.45
895.876	1573.3417	65535	64637.1
896.0186	1575.1176	65535	64637.4
896.1611	1576.8928	65535	64635.65
896.3036	1578.6672	65535	64638.4
896.4461	1580.4409	65535	64638.8
896.5886	1582.2138	65535	64633.95
896.7311	1583.986	65535	64635.55
896.8736	1585.7575	65535	64637.15
897.0161	1587.5282	65535	64640.4
897.1585	1589.2981	65535	64640.4
897.3009	1591.0673	65534.5	64638.65
897.4433	1592.8358	65527.2	64631.9
897.5857	1594.6035	65531.9	64630.35
897.7281	1596.3704	65531.55	64633.2
897.8705	1598.1366	65516.9	64621
898.0128	1599.9021	65486.05	64588.7
898.1551	1601.6668	65526.1	64628.3
898.2975	1603.4308	65516.45	64617
898.4398	1605.194	65509.75	64606.95
898.5821	1606.9564	65394.45	64497.55
898.7243	1608.7182	65484.05	64582.6
898.8666	1610.4791	65417.45	64521.8
899.0088	1612.2394	65496.6	64604.85
899.1511	1613.9988	65371.7	64476.9
899.2933	1615.7576	65496.5	64602
899.4355	1617.5156	65499.5	64597.05
899.5776	1619.2728	65529.9	64634
899.7198	1621.0293	65422.15	64527.2
899.862	1622.785	65426.25	64524.1
900.0041	1624.54	65489.45	64589.95
900.1462	1626.2942	65375.2	64476.3
900.2883	1628.0477	65095.25	64196.5
900.4304	1629.8005	64566.55	63668.25
900.5725	1631.5525	65116.55	64221.65
900.7145	1633.3037	64293	63397.05
900.8566	1635.0542	64127.45	63232.9
900.9986	1636.804	64642	63747.05
901.1406	1638.553	63552.55	62578.25
901.2826	1640.3013	63955.65	63059.15
901.4245	1642.0488	63208.55	62310.3
901.5665	1643.7955	63821.05	62926.95
901.7085	1645.5416	63255.8	62360.1
901.8504	1647.2868	62663.95	61770.4
901.9923	1649.0313	63615.95	62720.3
902.1342	1650.7751	63092.95	62193.55
902.2761	1652.5181	62672.25	61778.75
902.4179	1654.2604	62817.05	61921.15
902.5598	1656.0019	63170.4	62276.3
902.7016	1657.7427	62990.65	62095.25
902.8434	1659.4828	63640.7	62746.7
902.9852	1661.222	62950.6	62053.3
903.127	1662.9606	63736.7	62840.3
903.2687	1664.6984	62668.8	61774.65
903.4105	1666.4354	63070.3	62174.95
903.5522	1668.1717	61867.2	60970.35
903.6939	1669.9072	60828.15	59933.1
903.8356	1671.642	60681.5	59783.85
903.9773	1673.3761	60346.45	59451.25
904.119	1675.1094	60109.9	59215.3
904.2606	1676.8419	59350.5	58455.05
904.4022	1678.5737	59427.5	58533.15
904.5439	1680.3048	59014	58118.55
904.6855	1682.0351	58677.75	57783.25
904.827	1683.7646	58366.6	57468.55
904.9686	1685.4934	58584.05	57691.75
905.1101	1687.2215	57360.95	56466.1
905.2517	1688.9488	58158.2	57264.15
905.3932	1690.6754	56376.6	55483.1
905.5347	1692.4012	57077.2	56182.5
905.6761	1694.1263	57061.4	56165.05
905.8176	1695.8506	56584.35	55689.55
905.9591	1697.5742	56471.3	55576.5
906.1005	1699.297	56196.4	55303.4
906.2419	1701.0191	56168.3	55271.95
906.3833	1702.7404	55491.75	54598.6
906.5246	1704.461	55235	54340.15
906.666	1706.1808	55280.85	54383.75
906.8073	1707.8999	55178.4	54283.15
906.9487	1709.6182	54878.45	53984
907.09	1711.3358	54823.4	53929.25
907.2313	1713.0527	54576	53684.35
907.3725	1714.7688	54484	53582.65
907.5138	1716.4841	53763.85	52866.05
907.655	1718.1987	54002.45	53100.6
907.7962	1719.9126	53690.45	52796.1
907.9374	1721.6257	53632.3	52736.6
908.0786	1723.338	53710.65	52814.75
908.2198	1725.0496	52903.4	52009.25
908.3609	1726.7605	52904.2	52008.05
908.502	1728.4706	52686.75	51789.85
908.6431	1730.18	52531.8	51634.5
908.7842	1731.8886	52381.9	51489.4
908.9253	1733.5964	52141.15	51226.9
909.0664	1735.3036	52174.1	51277.85
909.2074	1737.0099	51998.15	51102.05
909.3484	1738.7156	51703.1	50809.15
909.4894	1740.4204	51554.3	50658.05
909.6304	1742.1246	51430.5	50536.2
909.7714	1743.8279	51332.2	50438.85
909.9123	1745.5306	51318.85	50425.9
910.0532	1747.2325	50880.7	49986.65
910.1941	1748.9336	50732.85	49840.45
910.335	1750.634	50543.25	49646.25
910.4759	1752.3336	50555.3	49661.8
910.6168	1754.0325	50286.75	49395.75
910.7576	1755.7307	50249.85	49357.3
910.8984	1757.4281	50057.5	49163.4
911.0392	1759.1247	50101	49199.1
911.18	1760.8206	49761.35	48863
911.3208	1762.5158	49751.85	48853.25
911.4615	1764.2102	49572.3	48681.75
911.6022	1765.9039	49357.8	48464.25
911.7429	1767.5968	49211.45	48318.9
911.8836	1769.289	49083.65	48189.75
912.0243	1770.9804	48965.2	48070.45
912.1649	1772.6711	48873.85	47979.3
912.3056	1774.361	48734.6	47839.9
912.4462	1776.0502	48602.6	47708.8
912.5868	1777.7386	48403.5	47508.15
912.7274	1779.4263	48296.5	47402.85
912.8679	1781.1132	48215.45	47321.55
913.0084	1782.7994	48042.5	47148
913.149	1784.4849	47935	47043.3
913.2895	1786.1696	47724.1	46823.7
913.4299	1787.8535	47615.1	46722.65
913.5704	1789.5367	47524.3	46630.9
913.7108	1791.2192	47385.6	46492.25
913.8513	1792.9009	47138.8	46213.75
913.9917	1794.5818	47083.3	46190
914.132	1796.2621	46900.9	46009.8
914.2724	1797.9415	46795.9	45902.8
914.4128	1799.6202	46660.75	45766.1
914.5531	1801.2982	46573.9	45679.95
914.6934	1802.9755	46454.65	45558.1
914.8337	1804.6519	46340.3	45445.2
914.9739	1806.3277	46111.4	45219.5
915.1142	1808.0027	45848	44957
915.2544	1809.6769	45857.4	44963.8
915.3946	1811.3504	45729.5	44835.45
915.5348	1813.0231	45553.65	44659.3
915.675	1814.6951	45521.35	44629.65
915.8151	1816.3664	45476.85	44583.05
915.9553	1818.0369	45291.55	44397.7
916.0954	1819.7067	45161.25	44271.55
916.2355	1821.3757	45094.45	44198.85
916.3755	1823.044	44949.6	44054.85
916.5156	1824.7115	44824.7	43930.7
916.6556	1826.3783	44599.8	43705.5
916.7956	1828.0443	44423.15	43532.55
916.9356	1829.7096	44339.65	43445.35
917.0756	1831.3741	44310.9	43413.2
917.2155	1833.0379	44158.9	43266.3
917.3555	1834.701	44016.25	43120.85
917.4954	1836.3633	43879.8	42985.9
917.6353	1838.0248	43802.05	42906.65
917.7751	1839.6856	43697.9	42804
917.915	1841.3457	43648.7	42757.4
918.0548	1843.005	43487.45	42596.75
918.1946	1844.6636	43417.45	42525.5
918.3344	1846.3214	43219.3	42326.15
918.4742	1847.9785	43162.15	42270.1
918.6139	1849.6349	43092.5	42199.1
918.7537	1851.2904	42950.1	42048.3
918.8934	1852.9453	42810.5	41914.7
919.0331	1854.5994	42635.7	41738.75
919.1727	1856.2528	42676.65	41779.8
919.3124	1857.9054	42510.45	41618.15
919.452	1859.5572	42435.9	41544.2
919.5916	1861.2083	42358.55	41466.05
919.7312	1862.8587	42307.15	41414.45
919.8708	1864.5084	42113	41219.5
920.0103	1866.1572	41972.5	41080.2
920.1498	1867.8054	41800.35	40906.95
920.2893	1869.4528	41727	40834.65
920.4288	1871.0994	41591.4	40698.6
920.5683	1872.7453	41571.55	40677.5
920.7077	1874.3905	41422.75	40522.4
920.8471	1876.0349	41234.2	40340.15
920.9865	1877.6786	41295.65	40401.8
921.1259	1879.3215	41216.1	40322.65
921.2653	1880.9637	41058.7	40164.6
921.4046	1882.6051	40972.85	40080.55
921.5439	1884.2458	40858.85	39962.5
921.6832	1885.8858	40678.7	39784.6
921.8225	1887.525	40622.15	39727.75
921.9617	1889.1634	40403.65	39510.65
922.101	1890.8011	40185.45	39292.5
922.2402	1892.4381	40107.75	39215.6
922.3794	1894.0743	40094	39203.25
922.5185	1895.7098	39926.8	39035.05
922.6577	1897.3446	39854.1	38962.1
922.7968	1898.9786	39696.75	38799.15
922.9359	1900.6118	39625.5	38732.55
923.075	1902.2443	39415.7	38519.45
923.214	1903.8761	39323.4	38431.35
923.3531	1905.5071	39077.85	38184.5
923.4921	1907.1374	38993.8	38100.35
923.6311	1908.7669	38926.6	38035.9
923.77	1910.3957	38834.1	37942.5
923.909	1912.0237	38587.85	37695.05
924.0479	1913.651	38528.35	37635.45
924.1868	1915.2776	38439.25	37547.8
924.3257	1916.9034	38215.15	37324.3
924.4646	1918.5285	38054.45	37162.7
924.6034	1920.1528	37853.75	36961.1
924.7422	1921.7764	37818.1	36925
924.881	1923.3992	37645.05	36752.45
925.0198	1925.0213	37395	36502.6
925.1586	1926.6427	37225.2	36333.35
925.2973	1928.2633	37261.65	36255
925.436	1929.8832	37053.95	36157.6
925.5747	1931.5023	36897.7	36006.05
925.7134	1933.1207	36755.35	35861.75
925.852	1934.7383	36673.4	35781.65
925.9906	1936.3552	36490.95	35597.95
926.1292	1937.9714	36412.35	35520.05
926.2678	1939.5868	36310.85	35415.95
926.4064	1941.2015	36087.05	35194.7
926.5449	1942.8154	35957.95	35066.7
926.6834	1944.4286	35762.35	34870.35
926.8219	1946.041	35651.3	34739.55
926.9604	1947.6528	35443.6	34548.05
927.0988	1949.2637	35361.15	34468.25
927.2372	1950.8739	35243.8	34350.3
927.3756	1952.4834	35161.1	34266.15
927.514	1954.0921	35094.6	34200.45
927.6523	1955.7001	34940.3	34042.7
927.7907	1957.3074	34843.75	33953.05
927.929	1958.9139	34649.6	33758
928.0673	1960.5197	34549.05	33657.75
928.2055	1962.1247	34364.65	33473.4
928.3438	1963.729	34224	33333.8
928.482	1965.3325	34091.55	33177.7
928.6202	1966.9353	33991.05	33098.45
928.7584	1968.5374	33823.85	32931.65
928.8965	1970.1387	33741.05	32848.7
929.0346	1971.7393	33584.05	32691.9
929.1727	1973.3392	33536.45	32644.8
929.3108	1974.9383	33408	32515.6
929.4489	1976.5366	33193.35	32301.4
929.5869	1978.1342	33182.95	32291.15
929.7249	1979.7311	33059.75	32167.4
929.8629	1981.3273	32968.8	32075.45
930.0009	1982.9227	32817.7	31924.9
930.1388	1984.5173	32741.8	31849.7
930.2767	1986.1112	32592.5	31702.15
930.4146	1987.7044	32506.5	31615.55
930.5525	1989.2968	32363.25	31470.7
930.6904	1990.8885	32303.25	31406.8
930.8282	1992.4795	32248.1	31356.35
930.966	1994.0697	32059.6	31168.2
931.1038	1995.6592	31975.85	31084.55
931.2415	1997.2479	31843.45	30950.35
931.3793	1998.8359	31727.1	30834.4
931.517	2000.4232	31609.75	30718.45
931.6547	2002.0097	31455.7	30566.6
931.7923	2003.5955	31294.85	30404.9
931.93	2005.1805	31282.95	30389.85
932.0676	2006.7648	31202.7	30311.35
932.2052	2008.3484	31025	30131.9
932.3427	2009.9312	31085.9	30192.55
932.4803	2011.5133	30894.4	30003.9
932.6178	2013.0946	30841.75	29950.6
932.7553	2014.6752	30746.6	29854.85
932.8928	2016.2551	30649.2	29756.85
933.0302	2017.8342	30529.2	29639.3
933.1676	2019.4126	30387.25	29498.4
933.305	2020.9902	30247.95	29357.9
933.4424	2022.5672	30177.25	29285
933.5798	2024.1433	30113.6	29216.8
933.7171	2025.7188	29980.2	29091.35
933.8544	2027.2935	29827.3	28935.3
933.9917	2028.8674	29752.8	28862.85
934.129	2030.4406	29713.3	28824.95
934.2662	2032.0131	29543.95	28653.55
934.4034	2033.5849	29371.75	28476.4
934.5406	2035.1559	29375.5	28486.15
934.6778	2036.7261	29263.5	28373.9
934.8149	2038.2957	29207.8	28316
934.952	2039.8645	29163.8	28272.65
935.0891	2041.4325	29167.1	28271.1
935.2262	2042.9998	28975.5	28084.8
935.3632	2044.5664	28881	27987
935.5002	2046.1323	28808.15	27916.3
935.6372	2047.6974	28726.85	27833.7
935.7742	2049.2617	28623.8	27735.45
935.9111	2050.8254	28598.25	27686.65
936.048	2052.3883	28503.6	27610.9
936.1849	2053.9504	28353	27460.65
936.3218	2055.5118	28273.35	27381.1
936.4586	2057.0725	28143.1	27248.15
936.5955	2058.6325	28108.8	27217.25
936.7323	2060.1917	27975.45	27085.85
936.869	2061.7502	27934.9	27041.1
937.0058	2063.3079	27808.1	26916.95
937.1425	2064.8649	27700.9	26805.8
937.2792	2066.4212	27651.3	26758.5
937.4159	2067.9767	27593.1	26702.15
937.5525	2069.5315	27456.15	26565.9
937.6891	2071.0856	27296	26404.2
937.8257	2072.6389	27148.25	26255.1
937.9623	2074.1915	27047.95	26159.6
938.0989	2075.7433	26913.1	26019.9
938.2354	2077.2945	26882.95	25992.35
938.3719	2078.8448	26786.9	25895.1
938.5084	2080.3945	26716.1	25823.35
938.6448	2081.9434	26678.25	25786.65
938.7812	2083.4916	26566.05	25672.9
938.9176	2085.039	26459.95	25568.45
939.054	2086.5857	26398.25	25505.5
939.1903	2088.1317	26320	25428.45
939.3267	2089.677	26232.6	25340.45
939.463	2091.2215	26117.35	25225.85
939.5992	2092.7652	26001.25	25108.2
939.7355	2094.3083	25978	25084.15
939.8717	2095.8506	25962.45	25070.95
940.0079	2097.3921	25906.8	25015.7
940.1441	2098.933	25795.4	24903.85
940.2802	2100.4731	25699.05	24808.85
940.4163	2102.0124	25693.75	24795.55
940.5524	2103.5511	25631.8	24741.55
940.6885	2105.089	25545.05	24653.1
940.8245	2106.6261	25465.45	24574.9
940.9606	2108.1626	25372.4	24479.75
941.0965	2109.6983	25387.2	24469.35
941.2325	2111.2332	25268.25	24375.35
941.3684	2112.7675	25137.95	24244.1
941.5044	2114.301	25032.75	24139.9
941.6403	2115.8337	25069.1	24175.75
941.7761	2117.3657	24966.65	24075.2
941.912	2118.897	24904.65	24011.75
942.0478	2120.4276	24797.55	23899.7
942.1835	2121.9575	24694.4	23804.85
942.3193	2123.4866	24682.5	23778.8
942.455	2125.0149	24607.75	23713.35
942.5907	2126.5426	24414.65	23522.3
942.7264	2128.0695	24370.25	23473.5
942.8621	2129.5956	24304.3	23415.15
942.9977	2131.1211	24280.4	23385.5
943.1333	2132.6458	24193.8	23303.75
943.2689	2134.1698	24083	23192.45
943.4044	2135.693	24056.1	23162.9
943.54	2137.2155	24016.45	23121.7
943.6755	2138.7373	23906.3	23016.4
943.8109	2140.2584	23807.35	22915.65
943.9464	2141.7787	23708.15	22813.1
944.0818	2143.2983	23609.1	22720.8
944.2172	2144.8171	23480.9	22590
944.3526	2146.3353	23475.4	22582.65
944.4879	2147.8527	23377.55	22487.35
944.6232	2149.3693	23359.85	22467.55
944.7585	2150.8853	23246.45	22354.35
944.8938	2152.4005	23129	22236.65
945.029	2153.9149	23086.65	22194.65
945.1642	2155.4287	23021.55	22130.8
945.2994	2156.9417	22980.25	22088.1
945.4346	2158.454	22899.95	22004.85
945.5697	2159.9655	22850.3	21956.85
945.7048	2161.4764	22774.5	21882.5
945.8399	2162.9865	22714.65	21824.95
945.9749	2164.4958	22607.5	21714.9
946.1099	2166.0045	22525.7	21632.9
946.2449	2167.5124	22515.9	21624.3
946.3799	2169.0195	22401.25	21507.2
946.5148	2170.526	22382.45	21489.75
946.6498	2172.0317	22313.3	21422.7
946.7846	2173.5367	22222.15	21330.95
946.9195	2175.0409	22149.3	21259.95
947.0543	2176.5445	22122.6	21233.65
947.1891	2178.0473	22021.6	21129.8
947.3239	2179.5494	21952.75	21056.35
947.4587	2181.0507	21890	20998.7
947.5934	2182.5513	21822	20930.8
947.7281	2184.0512	21743.15	20853.15
947.8628	2185.5504	21659.45	20769.3
947.9974	2187.0488	21545	20653.05
948.132	2188.5465	21447.6	20557.05
948.2666	2190.0435	21397.55	20503.65
948.4012	2191.5397	21317.25	20422.75
948.5357	2193.0353	21276.45	20386
948.6702	2194.5301	21169.6	20278.25
948.8047	2196.0241	21096.8	20203.15
948.9392	2197.5175	21030.7	20140.65
949.0736	2199.0101	20946.6	20051.4
949.208	2200.502	20816.6	19925.7
949.3424	2201.9931	20718.85	19827
949.4767	2203.4835	20650.75	19759.45
949.611	2204.9733	20579.9	19681
949.7453	2206.4622	20538.55	19647.05
949.8796	2207.9505	20443.5	19549.75
950.0138	2209.438	20338.55	19447.05
950.148	2210.9248	20283.55	19391.35
950.2822	2212.4109	20228.6	19338.5
950.4164	2213.8962	20119.25	19225.45
950.5505	2215.3809	20118.2	19226.2
950.6846	2216.8648	20060.6	19167.8
950.8186	2218.3479	19999.8	19104
950.9527	2219.8304	19902.9	19007.85
951.0867	2221.3121	19816.15	18921.05
951.2207	2222.7931	19736.1	18845.9
951.3546	2224.2733	19673.95	18782.7
951.4886	2225.7529	19616.6	18726.45
951.6225	2227.2317	19511.8	18617.9
951.7563	2228.7098	19502	18612.5
951.8902	2230.1872	19401.05	18509.75
952.024	2231.6638	19346.4	18453
952.1578	2233.1397	19281.65	18384.3
952.2916	2234.6149	19247.45	18357.45
952.4253	2236.0894	19141.7	18251.45
952.559	2237.5632	19112.8	18214.2
952.6927	2239.0362	19013.9	18122.75
952.8263	2240.5085	18956.55	18065.8
952.9599	2241.9801	18887.6	17996
953.0935	2243.4509	18825.9	17935.5
953.2271	2244.921	18737.3	17844.9
953.3606	2246.3904	18688.1	17793.4
953.4941	2247.8591	18620.45	17727.7
953.6276	2249.3271	18570.95	17679.5
953.7611	2250.7943	18500.2	17606.85
953.8945	2252.2608	18422.2	17531.2
954.0279	2253.7266	18365.3	17474.4
954.1612	2255.1917	18344.9	17453.1
954.2946	2256.656	18251.9	17359.5
954.4279	2258.1197	18182.9	17291.1
954.5612	2259.5826	18136.9	17242.15
954.6944	2261.0447	18116.6	17223.85
954.8276	2262.5062	17994.7	17100.6
954.9608	2263.9669	18004.25	17111.85
955.094	2265.4269	17920.5	17030.55
955.2271	2266.8862	17895.95	17004.55
955.3602	2268.3448	17816.5	16925.1
955.4933	2269.8026	17772.7	16881.05
955.6264	2271.2598	17703.4	16811.6
955.7594	2272.7162	17624.9	16732.7
955.8924	2274.1719	17601.9	16709.9
956.0253	2275.6268	17525.1	16631.95
956.1583	2277.0811	17473	16580.5
956.2912	2278.5346	17433.5	16542.05
956.4241	2279.9874	17403.1	16511.8
956.5569	2281.4395	17369.9	16479.05
956.6897	2282.8908	17281.7	16385.4
956.8225	2284.3414	17252.7	16359.3
956.9553	2285.7914	17175.15	16286.7
957.088	2287.2406	17109.95	16214.8
957.2207	2288.689	17074.05	16182
957.3534	2290.1368	17008.75	16116.3
957.486	2291.5838	16975.85	16084.35
957.6186	2293.0302	16872.1	15981.25
957.7512	2294.4758	16813	15920.7
957.8838	2295.9206	16726.35	15834.25
958.0163	2297.3648	16667.1	15774.4
958.1488	2298.8082	16667.35	15773.4
958.2813	2300.251	16638.9	15747.7
958.4137	2301.693	16570.05	15676.5
958.5461	2303.1343	16556.75	15664.2
958.6785	2304.5748	16487.6	15596.25
958.8108	2306.0147	16393	15501.7
958.9432	2307.4538	16362.7	15470.25
959.0754	2308.8922	16306.55	15417.1
959.2077	2310.3299	16246.5	15354.5
959.3399	2311.7669	16162.55	15270.85
959.4721	2313.2031	16145.85	15254.55
959.6043	2314.6387	16065.9	15173.1
959.7365	2316.0735	16015	15123.25
959.8686	2317.5076	15970.9	15078.1
960.0006	2318.941	15931.05	15037.3
960.1327	2320.3737	15879.35	14986.5
960.2647	2321.8056	15816.35	14923.05
960.3967	2323.2369	15771.9	14879.05
960.5287	2324.6674	15731.8	14838.8
960.6606	2326.0972	15673.3	14779.85
960.7925	2327.5263	15593.9	14704.5
960.9244	2328.9547	15536.4	14644.5
961.0562	2330.3823	15500.5	14609.25
961.1881	2331.8092	15516.85	14622.65
961.3198	2333.2355	15391.8	14500.85
961.4516	2334.661	15364.3	14470.95
961.5833	2336.0858	15323.75	14431.75
961.715	2337.5098	15319.4	14428.1
961.8467	2338.9332	15288.6	14396.15
961.9783	2340.3558	15208.9	14313.45
962.1099	2341.7778	15107.5	14217.55
962.2415	2343.199	15123.45	14228.65
962.373	2344.6195	15066.55	14174.85
962.5045	2346.0393	15005.1	14114.05
962.636	2347.4583	14955.45	14063.55
962.7675	2348.8767	14924.85	14032.65
962.8989	2350.2943	14875.55	13982.7
963.0303	2351.7113	14820.4	13927.8
963.1617	2353.1275	14779.8	13887.3
963.293	2354.543	14707.25	13807.45
963.4243	2355.9578	14652	13761.9
963.5556	2357.3718	14572.3	13681.25
963.6868	2358.7852	14544.2	13651.1
963.818	2360.1978	14479.6	13588.6
963.9492	2361.6098	14454.85	13563.4
964.0803	2363.021	14370.95	13474.7
964.2114	2364.4315	14319.8	13428.35
964.3425	2365.8413	14297.55	13405.15
964.4736	2367.2504	14220.1	13328.85
964.6046	2368.6587	14160.45	13270.9
964.7356	2370.0664	14094.2	13201.65
964.8666	2371.4733	14056.9	13166.05
964.9975	2372.8795	13992.15	13099.75
965.1284	2374.285	13966.4	13075.1
965.2593	2375.6899	13877.05	12985
965.3901	2377.0939	13803.5	12914.15
965.5209	2378.4973	13761.75	12870.1
965.6517	2379.9	13716.9	12825.05
965.7825	2381.3019	13646.95	12755
965.9132	2382.7032	13624.55	12735.55
966.0439	2384.1037	13588.45	12698.4
966.1745	2385.5035	13528.85	12638.15
966.3051	2386.9027	13482.85	12592.8
966.4357	2388.3011	13448.7	12553.25
966.5663	2389.6987	13396.55	12505.2
966.6968	2391.0957	13363.6	12473.1
966.8273	2392.492	13280.2	12388.7
966.9578	2393.8876	13204.8	12315.1
967.0882	2395.2824	13175.3	12285.1
967.2186	2396.6765	13092.4	12202.95
967.349	2398.07	13036.15	12145.9
967.4793	2399.4627	13010.5	12118.55
967.6097	2400.8547	12962.45	12071.45
967.7399	2402.246	12910.1	12015.05
967.8702	2403.6366	12826.3	11934.45
968.0004	2405.0265	12805.25	11913.55
968.1306	2406.4156	12749.65	11856.85
968.2607	2407.8041	12673.85	11780.85
968.3909	2409.1918	12640.8	11747.05
968.521	2410.5789	12587.05	11694.15
968.651	2411.9652	12563.6	11669.95
968.781	2413.3508	12512.55	11621.55
968.911	2414.7358	12470.8	11579.3
969.041	2416.12	12405.8	11515.1
969.1709	2417.5035	12382.2	11491
969.3008	2418.8863	12320.45	11429.65
969.4307	2420.2684	12286.05	11395.1
969.5606	2421.6497	12224.2	11332.1
969.6904	2423.0304	12140.85	11251
969.8201	2424.4104	12142.6	11250.65
969.9499	2425.7896	12104.55	11212.1
970.0796	2427.1682	12061.45	11172.1
970.2093	2428.546	12021.1	11129.7
970.3389	2429.9232	11998.5	11108
970.4685	2431.2996	11945.65	11055.8
970.5981	2432.6753	11925.25	11034.5
970.7277	2434.0503	11890.5	11000.45
970.8572	2435.4246	11802.6	10912.45
970.9867	2436.7982	11811.35	10918.45
971.1161	2438.1711	11778.95	10888.65
971.2456	2439.5433	11746.35	10854.2
971.375	2440.9148	11679.35	10787.45
971.5043	2442.2856	11600.8	10710.8
971.6336	2443.6557	11586.25	10693.4
971.7629	2445.025	11537.25	10646.3
971.8922	2446.3937	11493.05	10602.35
972.0214	2447.7617	11433.8	10542.65
972.1506	2449.1289	11415.95	10526.15
972.2798	2450.4955	11401.7	10506.55
972.4089	2451.8613	11368.85	10479.75
972.538	2453.2265	11339.3	10447.4
972.6671	2454.5909	11298	10406.3
972.7961	2455.9546	11273.05	10384
972.9251	2457.3177	11226.75	10337.65
973.0541	2458.68	11209.75	10316.7
973.1831	2460.0416	11177.85	10288.4
973.312	2461.4025	11130.25	10238.1
973.4408	2462.7627	11106.6	10204.25
973.5697	2464.1222	11059.25	10169.45
973.6985	2465.4811	11047.25	10157.2
973.8273	2466.8392	10975.5	10083.45
973.956	2468.1966	10974.05	10080.85
974.0847	2469.5533	10975.15	10081.15
974.2134	2470.9093	10924.05	10031.6
974.3421	2472.2645	10864.95	9973.45
974.4707	2473.6191	10826.75	9937.85
974.5993	2474.973	10813.85	9924.25
974.7278	2476.3262	10756.3	9865.45
974.8563	2477.6787	10726.5	9838.2
974.9848	2479.0305	10675.95	9783.7
975.1132	2480.3816	10648.1	9755.35
975.2417	2481.7319	10607.35	9716.25
975.37	2483.0816	10551.15	9657.25
975.4984	2484.4306	10542.9	9652.35
975.6267	2485.7789	10491.15	9599.4
975.755	2487.1264	10422.25	9531.5
975.8833	2488.4733	10357.5	9466.85
976.0115	2489.8195	10362.1	9455.95
976.1397	2491.165	10300.35	9407.35
976.2678	2492.5097	10277.05	9382.55
976.3959	2493.8538	10216.65	9326.95
976.524	2495.1972	10173.45	9281.4
976.6521	2496.5398	10122.35	9229.15
976.7801	2497.8818	10101.45	9210.3
976.9081	2499.2231	10062.3	9171.2
977.036	2500.5637	10040.75	9147.6
977.164	2501.9035	10014.95	9122.3
977.2918	2503.2427	9958.95	9063.4
977.4197	2504.5812	9926.15	9036.3
977.5475	2505.919	9903.4	9010.85
977.6753	2507.256	9896.1	9004.05
977.8031	2508.5924	9847.6	8956.9
977.9308	2509.9281	9799.85	8903.65
978.0585	2511.2631	9769.5	8878
978.1861	2512.5974	9747.25	8855.15
978.3137	2513.9309	9688.75	8798
978.4413	2515.2638	9678.45	8761.6
978.5689	2516.596	9656.15	8764.85
978.6964	2517.9275	9600.8	8708.45
978.8239	2519.2583	9563.05	8672.2
978.9513	2520.5884	9507.85	8613.85
979.0788	2521.9178	9500.2	8608.7
979.2062	2523.2465	9449.95	8557.85
979.3335	2524.5745	9406	8514.6
979.4608	2525.9018	9359.75	8469
979.5881	2527.2284	9362.95	8472.2
979.7154	2528.5543	9338.6	8449.8
979.8426	2529.8796	9329.4	8437.75
979.9698	2531.2041	9283.8	8391
980.0969	2532.5279	9237.25	8348.15
980.224	2533.851	9247.5	8356.25
980.3511	2535.1735	9223.65	8334.4
980.4781	2536.4952	9201.65	8311.05
980.6052	2537.8163	9167.5	8275.9
980.7321	2539.1366	9133.6	8242.35
980.8591	2540.4562	9089.6	8198.1
980.986	2541.7752	9067	8176.6
981.1129	2543.0935	9065.95	8176.45
981.2397	2544.411	9051.15	8157.9
981.3665	2545.7279	9016.6	8123.85
981.4933	2547.0441	8995	8104.4
981.62	2548.3596	8973.8	8081.6
981.7467	2549.6744	8946.65	8056.5
981.8734	2550.9885	8920.3	8026.65
982.0001	2552.3019	8875.85	7985.4
982.1267	2553.6146	8854.95	7963.25
982.2532	2554.9266	8829.9	7938.75
982.3798	2556.2379	8802.6	7911.2
982.5063	2557.5485	8812.75	7923.6
982.6327	2558.8585	8785.65	7887.9
982.7592	2560.1677	8770.6	7876.5
982.8856	2561.4762	8747.15	7856.25
983.0119	2562.7841	8727.65	7834.2
983.1383	2564.0913	8701.9	7810.1
983.2646	2565.3977	8693.5	7804.6
983.3908	2566.7035	8623.6	7732.1
983.517	2568.0086	8657.6	7763.45
983.6432	2569.313	8604	7711.9
983.7694	2570.6167	8597	7701.1
983.8955	2571.9197	8579.95	7688.5
984.0216	2573.222	8570.55	7677.25
984.1476	2574.5236	8524.65	7631.85
984.2737	2575.8246	8513.75	7620.05
984.3996	2577.1248	8471.2	7576.25
984.5256	2578.4244	8482.2	7591.8
984.6515	2579.7232	8453.95	7562.25
984.7774	2581.0214	8471.95	7554.2
984.9032	2582.3189	8424.7	7534.35
985.029	2583.6157	8396.1	7501.1
985.1548	2584.9118	8352.95	7460.4
985.2806	2586.2072	8350.2	7460.1
985.4063	2587.5019	8337.95	7445.95
985.5319	2588.7959	8308.35	7417.25
985.6576	2590.0893	8289.8	7398
985.7832	2591.3819	8280.5	7390.2
985.9087	2592.6739	8199.55	7308.25
986.0343	2593.9652	8189	7295.75
986.1597	2595.2557	8173.75	7282.7
986.2852	2596.5456	8150.35	7255.8
986.4106	2597.8348	8135.75	7244.9
986.536	2599.1234	8076.2	7187.2
986.6614	2600.4112	8068.75	7178.1
986.7867	2601.6983	8014.35	7119.1
986.912	2602.9848	8008.85	7115.4
987.0372	2604.2705	7992.65	7094.95
987.1624	2605.5556	7973.85	7082.2
987.2876	2606.84	7942.1	7052.45
987.4128	2608.1237	7895.7	7004
987.5379	2609.4067	7881.75	6989.8
987.6629	2610.689	7849.1	6948.65
987.788	2611.9707	7826.15	6932.45
987.913	2613.2516	7781.05	6886.35
988.0379	2614.5319	7736.15	6846.2
988.1629	2615.8115	7709.25	6815.9
988.2878	2617.0903	7676.5	6783.55
988.4126	2618.3685	7637.6	6745.35
988.5375	2619.6461	7617.95	6724.05
988.6622	2620.9229	7617.05	6726.8
988.787	2622.199	7568.65	6675.8
988.9117	2623.4745	7557.55	6664.35
989.0364	2624.7493	7549.35	6659.8
989.161	2626.0234	7518.75	6627.95
989.2857	2627.2968	7487.7	6597.15
989.4102	2628.5695	7463.65	6572
989.5348	2629.8415	7406.3	6516.05
989.6593	2631.1128	7406.45	6512.75
989.7837	2632.3835	7375.9	6485.4
989.9082	2633.6535	7328.25	6437.65
990.0326	2634.9228	7329.7	6438.35
990.1569	2636.1914	7300.55	6410.75
990.2812	2637.4593	7267.2	6374
990.4055	2638.7265	7260.75	6367.55
990.5298	2639.9931	7219.65	6328.95
990.654	2641.259	7206.5	6315.05
990.7782	2642.5242	7188.95	6295.85
990.9023	2643.7887	7162.55	6269.85
991.0264	2645.0525	7151.35	6260.65
991.1505	2646.3156	7097.55	6204.65
991.2745	2647.5781	7072.95	6182.15
991.3985	2648.8398	7045.15	6154.95
991.5225	2650.1009	7047.75	6146.7
991.6464	2651.3613	7015.5	6124.7
991.7703	2652.6211	6997.45	6104.8
991.8942	2653.8801	6957.3	6065.65
992.018	2655.1385	6949.4	6054.95
992.1418	2656.3961	6953.85	6062.9
992.2655	2657.6531	6928.25	6037.5
992.3892	2658.9094	6895.7	6004.1
992.5129	2660.1651	6891.1	6000.45
992.6366	2661.42	6852.25	5958.9
992.7602	2662.6743	6844.9	5951
992.8837	2663.9279	6838.05	5947.4
993.0073	2665.1808	6806.7	5914.35
993.1307	2666.433	6813.25	5921.5
993.2542	2667.6846	6796.7	5907.45
993.3776	2668.9354	6763.85	5870.95
993.501	2670.1856	6745.2	5852.05
993.6244	2671.4351	6716.5	5827.4
993.7477	2672.6839	6719	5827.5
993.8709	2673.9321	6704.3	5810.35
993.9942	2675.1795	6676.75	5784.75
994.1174	2676.4263	6646.75	5757.6
994.2405	2677.6724	6623.5	5732.95
994.3637	2678.9179	6600.95	5708.3
994.4868	2680.1626	6598.6	5706.15
994.6098	2681.4067	6592.15	5702.45
994.7328	2682.6501	6567.55	5678.95
994.8558	2683.8928	6539.2	5647.15
994.9788	2685.1348	6505.75	5614.05
995.1017	2686.3761	6478.05	5589.1
995.2245	2687.6168	6444.65	5552.85
995.3474	2688.8568	6450.95	5559.8
995.4702	2690.0961	6417.25	5526.75
995.5929	2691.3348	6391.45	5499.7
995.7156	2692.5727	6365.45	5473.85
995.8383	2693.81	6363.55	5474.1
995.961	2695.0466	6349.15	5459.15
996.0836	2696.2826	6316.3	5424.4
996.2062	2697.5178	6309.2	5416.65
996.3287	2698.7524	6270.7	5378.8
996.4512	2699.9863	6265.8	5371.25
996.5737	2701.2195	6242.45	5355.8
996.6961	2702.452	6240.35	5346.75
996.8185	2703.6839	6212.5	5321.05
996.9408	2704.9151	6202.15	5313.1
997.0631	2706.1456	6162	5269.65
997.1854	2707.3755	6156.1	5266.65
997.3077	2708.6046	6151.45	5258.05
997.4299	2709.8331	6149.3	5258.45
997.552	2711.0609	6110.4	5220.55
997.6742	2712.2881	6105.1	5213.95
997.7963	2713.5145	6094.8	5200.95
997.9183	2714.7403	6080.55	5189.25
998.0403	2715.9654	6071.55	5180.6
998.1623	2717.1899	6066.35	5161.75
998.2842	2718.4136	6044.45	5153.65
998.4062	2719.6367	6037.4	5146.5
998.528	2720.8591	6045.25	5146.55
998.6498	2722.0809	6010.4	5120.9
998.7716	2723.3019	5991.65	5097.15
998.8934	2724.5223	5977.35	5085.95
999.0151	2725.7421	5960.55	5068.65
999.1368	2726.9611	5946.7	5054.6
999.2584	2728.1795	5917.9	5023.05
999.38	2729.3972	5911.75	5020.1
999.5016	2730.6142	5900.8	4996.65
999.6231	2731.8306	5853.65	4963
999.7446	2733.0462	5810.4	4915.8
999.8661	2734.2612	5760.05	4861.9
999.9875	2735.4756	5752.95	4859.65
1000.1089	2736.6892	5708.35	4815.35
1000.2302	2737.9022	5664.15	4774.45
1000.3515	2739.1145	5642.85	4750.85
1000.4728	2740.3262	5618.6	4720.65
1000.594	2741.5372	5577.5	4686.2
1000.7152	2742.7475	5541.65	4651.25
1000.8363	2743.9571	5523.8	4629.65
1000.9575	2745.1661	5501.95	4607.3
1001.0785	2746.3744	5493.5	4599.7
1001.1996	2747.582	5479.9	4589.7
1001.3206	2748.7889	5430.8	4537.2
1001.4415	2749.9952	5422.65	4532.75
1001.5625	2751.2008	5397.8	4506.75
1001.6833	2752.4057	5377.9	4484.45
1001.8042	2753.61	5362.9	4469.75
1001.925	2754.8136	5343.9	4450.65
1002.0458	2756.0165	5346.45	4455.95
1002.1665	2757.2188	5307.1	4415.9
1002.2872	2758.4204	5284.85	4393
1002.4078	2759.6213	5277.25	4384.5
1002.5285	2760.8215	5283.45	4389.75
1002.649	2762.0211	5243.4	4350.7
1002.7696	2763.22	5232.75	4339.7
1002.8901	2764.4182	5197.05	4305.55
1003.0106	2765.6158	5186.2	4295.7
1003.131	2766.8127	5155.95	4263.85
1003.2514	2768.009	5146.85	4254.65
1003.3717	2769.2045	5132.3	4238.1
1003.492	2770.3994	5123.25	4230.7
1003.6123	2771.5936	5101.7	4209.45
1003.7325	2772.7872	5092.3	4201.7
1003.8527	2773.9801	5059.15	4169.3
1003.9729	2775.1723	5075.7	4166.85
1004.093	2776.3639	5043.9	4152.95
1004.2131	2777.5548	5007.35	4112.8
1004.3331	2778.745	4997.35	4106.8
1004.4531	2779.9346	5000.8	4109.35
1004.5731	2781.1235	4998.95	4106.4
1004.693	2782.3117	4959.1	4068.15
1004.8129	2783.4992	4949.25	4058.45
1004.9328	2784.6861	4936.7	4045.6
1005.0526	2785.8723	4934.35	4041.5
1005.1723	2787.0579	4919.1	4028.3
1005.2921	2788.2428	4910.35	4019.8
1005.4118	2789.427	4904.7	4014.5
1005.5314	2790.6106	4909.05	4019.5
1005.651	2791.7935	4890.55	3997.6
1005.7706	2792.9757	4875.5	3986.8
1005.8902	2794.1573	4866.5	3972.85
1006.0097	2795.3382	4861	3971.2
1006.1291	2796.5184	4871.3	3981.6
1006.2485	2797.698	4880.45	3987.4
1006.3679	2798.8769	4874.3	3984.95
1006.4873	2800.0551	4870.9	3981.6
1006.6066	2801.2327	4866.85	3973
1006.7258	2802.4096	4873.4	3982.75
1006.8451	2803.5859	4864.5	3973.5
1006.9642	2804.7615	4886.45	3994.35
1007.0834	2805.9364	4889.75	4000.7
1007.2025	2807.1106	4911.3	4019.55
1007.3216	2808.2842	4922.35	4031.5
1007.4406	2809.4572	4936.25	4046.1
1007.5596	2810.6294	4981.85	4091.75
1007.6785	2811.801	4997.75	4107.15
1007.7975	2812.972	5022.35	4131.9
1007.9163	2814.1423	5056.55	4164.95
1008.0352	2815.3119	5101.9	4212.3
1008.154	2816.4808	5124.35	4233.9
1008.2727	2817.6491	5178.15	4287.65
1008.3914	2818.8167	5193.45	4305.35
1008.5101	2819.9837	5225.45	4328.25
1008.6288	2821.15	5263.35	4372.5
1008.7474	2822.3157	5291.3	4401.55
1008.8659	2823.4807	5336.55	4447.05
1008.9844	2824.645	5363.2	4470.55
1009.1029	2825.8086	5402.4	4511.55
1009.2214	2826.9716	5422.1	4533.15
1009.3398	2828.134	5471.6	4581.45
1009.4581	2829.2957	5481.8	4592.05
1009.5764	2830.4567	5498.1	4609.1
1009.6947	2831.617	5502.75	4611
1009.813	2832.7767	5485.7	4594.2
1009.9312	2833.9358	5487.65	4597.1
1010.0493	2835.0941	5471.95	4580.4
1010.1675	2836.2519	5465.65	4574.75
1010.2855	2837.4089	5456.55	4567.85
1010.4036	2838.5653	5430.6	4539.65
1010.5216	2839.7211	5424.85	4534.8
1010.6396	2840.8761	5429.9	4540
1010.7575	2842.0306	5443.65	4553.4
1010.8754	2843.1843	5475.6	4585.4
1010.9932	2844.3374	5495.45	4605.45
1011.111	2845.4899	5566.7	4675.05
1011.2288	2846.6417	5627.95	4737.25
1011.3465	2847.7928	5669	4780.15
1011.4642	2848.9433	5741.4	4852.2
1011.5818	2850.0931	5827.6	4937.75
1011.6995	2851.2422	5893	5000.05
1011.817	2852.3907	5947.35	5054.6
1011.9345	2853.5385	6011.3	5120.2
1012.052	2854.6857	6079.35	5163.05
1012.1695	2855.8323	6107.05	5215.3
1012.2869	2856.9781	6114.85	5225.35
1012.4042	2858.1233	6158.55	5269.35
1012.5216	2859.2679	6186.6	5296.5
1012.6389	2860.4118	6218.75	5328.5
1012.7561	2861.555	6261.55	5364.85
1012.8733	2862.6976	6268.65	5377.3
1012.9905	2863.8395	6312.9	5423.9
1013.1076	2864.9808	6300.6	5411.05
1013.2247	2866.1214	6308.05	5419.65
1013.3417	2867.2614	6337.25	5446
1013.4587	2868.4007	6298.95	5408.45
1013.5757	2869.5393	6295.5	5402.8
1013.6926	2870.6773	6300	5404.15
1013.8095	2871.8146	6312.4	5418.75
1013.9263	2872.9513	6296.25	5401.45
1014.0431	2874.0874	6276	5385.9
1014.1599	2875.2227	6256.7	5366.3
1014.2766	2876.3574	6233	5342.4
1014.3933	2877.4915	6190.3	5302.1
1014.51	2878.6249	6148.3	5258.65
1014.6266	2879.7577	6117.15	5224.15
1014.7431	2880.8898	6110.75	5209.45
1014.8596	2882.0212	6075.6	5186.6
1014.9761	2883.152	6067.1	5176.8
1015.0925	2884.2821	6009.1	5122.05
1015.2089	2885.4116	6004.1	5115.75
1015.3253	2886.5405	5965.5	5075.9
1015.4416	2887.6686	5999.35	5106.85
1015.5579	2888.7962	5964.5	5074.2
1015.6741	2889.923	5968.15	5078.85
1015.7903	2891.0493	5964.1	5073.55
1015.9065	2892.1748	5958.9	5068.2
1016.0226	2893.2997	5967.6	5077
1016.1387	2894.424	5961	5071.85
1016.2547	2895.5476	5965.85	5077.35
1016.3707	2896.6706	5989.5	5099.45
1016.4866	2897.7929	6007.4	5117.85
1016.6025	2898.9145	6022.5	5133.1
1016.7184	2900.0355	6048.4	5156.8
1016.8342	2901.1559	6061.2	5170.45
1016.95	2902.2756	6085.95	5195.95
1017.0658	2903.3946	6095.65	5205.45
1017.1815	2904.513	6126.95	5233.4
1017.2971	2905.6308	6123.85	5234.4
1017.4127	2906.7479	6139.85	5248.9
1017.5283	2907.8643	6155.75	5265.35
1017.6439	2908.9801	6155.35	5266.1
1017.7594	2910.0953	6151.25	5262.2
1017.8748	2911.2098	6153.5	5261.65
1017.9902	2912.3236	6137.65	5239.05
1018.1056	2913.4368	6105.35	5211.15
1018.2209	2914.5494	6098.35	5207.75
1018.3362	2915.6613	6043	5146.6
1018.4515	2916.7725	6000.15	5107.55
1018.5667	2917.8831	5970	5078.7
1018.6819	2918.9931	5932.95	5039.95
1018.797	2920.1024	5911.2	5020.6
1018.9121	2921.211	5874.75	4984.15
1019.0271	2922.319	5838.8	4948.5
1019.1421	2923.4264	5826.95	4936.7
1019.2571	2924.5331	5790.7	4901.5
1019.372	2925.6391	5774.4	4884
1019.4869	2926.7445	5760.5	4871.75
1019.6017	2927.8493	5736.3	4845.45
1019.7165	2928.9534	5710.9	4819.75
1019.8313	2930.0569	5711.45	4816.6
1019.946	2931.1597	5686.9	4794.05
1020.0606	2932.2619	5680.95	4789.85
1020.1753	2933.3634	5664.1	4775.35
1020.2899	2934.4643	5632.6	4736.4
1020.4044	2935.5645	5624.6	4727.4
1020.5189	2936.6641	5574.5	4681.25
1020.6334	2937.763	5528.25	4638.9
1020.7478	2938.8613	5468.75	4579.7
1020.8622	2939.959	5392.55	4496.75
1020.9765	2941.056	5303.85	4414.85
1021.0908	2942.1523	5220.8	4329.8
1021.2051	2943.248	5129.1	4237.05
1021.3193	2944.3431	5022.1	4132.8
1021.4334	2945.4375	4910.6	4020.35
1021.5476	2946.5313	4790.65	3901.45
1021.6617	2947.6244	4690.95	3799.4
1021.7757	2948.7169	4591.7	3701.3
1021.8897	2949.8087	4470.25	3579.7
1022.0037	2950.8999	4361.15	3471.7
1022.1176	2951.9904	4292.95	3403.7
1022.2315	2953.0803	4202.6	3312.5
1022.3453	2954.1696	4131.15	3242.75
1022.4591	2955.2582	4075.55	3186.45
1022.5728	2956.3462	4028.5	3137.25
1022.6865	2957.4335	3967.65	3077.3
1022.8002	2958.5202	3928.25	3037.55
1022.9138	2959.6062	3882.6	2990.75
1023.0274	2960.6916	3852.55	2963.55
1023.141	2961.7764	3829.7	2938.5
1023.2545	2962.8605	3794.35	2903.2
1023.3679	2963.9439	3771.4	2881.6
1023.4813	2965.0267	3769.8	2876.8
1023.5947	2966.1089	3778.55	2865.5
1023.708	2967.1905	3725.4	2835.95
1023.8213	2968.2714	3718.75	2829.3
1023.9346	2969.3516	3714.5	2825.25
1024.0478	2970.4312	3705.25	2809.4
1024.1609	2971.5102	3687.2	2796.9
1024.274	2972.5885	3693.7	2804.1
1024.3871	2973.6662	3674.9	2777.9
1024.5002	2974.7432	3671.15	2781.65
1024.6132	2975.8196	3658.85	2768.65
1024.7261	2976.8954	3638.45	2750.35
1024.839	2977.9705	3609.95	2720.15
1024.9519	2979.045	3584.45	2693.2
1025.0647	2980.1188	3566.6	2677.45
1025.1775	2981.192	3546.95	2657.2
1025.2902	2982.2645	3526.05	2634.85
1025.4029	2983.3364	3487.5	2596.65
1025.5156	2984.4077	3439.95	2550.4
1025.6282	2985.4783	3410.7	2513.8
1025.7407	2986.5483	3388.85	2501
1025.8532	2987.6177	3326.55	2436.5
1025.9657	2988.6864	3289.65	2399.55
1026.0782	2989.7545	3261.5	2371.4
1026.1906	2990.8219	3225.8	2336.5
1026.3029	2991.8887	3181.15	2287.85
1026.4152	2992.9548	3152.7	2262.05
1026.5275	2994.0204	3103.6	2215.3
1026.6397	2995.0852	3070.45	2181.05
1026.7519	2996.1495	3041	2151
1026.864	2997.2131	3021.5	2130.35
1026.9761	2998.276	2994.75	2107
1027.0882	2999.3383	2954.25	2064.25
1027.2002	3000.4	2928.75	2037.7
1027.3122	3001.4611	2912.45	2021.9
1027.4241	3002.5215	2911.1	2019.9
1027.536	3003.5812	2872.4	1983.2
1027.6478	3004.6404	2856.6	1967.25
1027.7596	3005.6989	2841.5	1949.95
1027.8714	3006.7567	2824.7	1935.55
1027.9831	3007.8139	2840.65	1928.2
1028.0947	3008.8705	2813.5	1922.9
1028.2064	3009.9264	2803.4	1911.5
1028.3179	3010.9818	2770.4	1880.8
1028.4295	3012.0364	2767	1875.35
1028.541	3013.0905	2764.4	1873.6
1028.6524	3014.1439	2744.2	1853.7
1028.7638	3015.1966	2753.25	1862.95
1028.8752	3016.2487	2751	1860.35
1028.9865	3017.3002	2737.7	1844.85
1029.0978	3018.3511	2726.55	1836.7
1029.209	3019.4013	2722.1	1834.5
1029.3202	3020.4509	2713.6	1827.05
1029.4314	3021.4998	2712.25	1821.95
1029.5425	3022.5481	2705.7	1815.8
1029.6535	3023.5958	2694.05	1802.65
1029.7645	3024.6428	2704.2	1816
1029.8755	3025.6892	2703.8	1813.85
1029.9864	3026.735	2689.75	1799.6
1030.0973	3027.7802	2684.85	1795.7
1030.2082	3028.8247	2673.05	1782.2
1030.319	3029.8685	2681.3	1791
1030.4297	3030.9118	2678.25	1789.85
1030.5404	3031.9544	2665.8	1775.75
1030.6511	3032.9963	2659.35	1768.5
1030.7617	3034.0376	2667.5	1776.1
1030.8723	3035.0783	2666.7	1774.9
1030.9829	3036.1184	2658.75	1767.7
1031.0934	3037.1578	2662.95	1773.95
1031.2038	3038.1966	2654.25	1762.05
1031.3142	3039.2348	2639.95	1750.5
1031.4246	3040.2723	2655.8	1757.4
1031.5349	3041.3092	2644.75	1756.35
1031.6452	3042.3455	2615.85	1724.15
1031.7554	3043.3811	2628.7	1738.15
1031.8656	3044.4161	2605.85	1716.5
1031.9758	3045.4505	2604.8	1716.8
1032.0859	3046.4842	2594.7	1704.05
1032.1959	3047.5173	2569.15	1679.75
1032.3059	3048.5498	2571.05	1681.8
1032.4159	3049.5816	2567.05	1677.85
1032.5258	3050.6128	2547.75	1657.75
1032.6357	3051.6434	2539.65	1647.55
1032.7455	3052.6734	2528.6	1636.4
1032.8553	3053.7027	2525.6	1635.4
1032.9651	3054.7314	2496.7	1608.8
1033.0748	3055.7594	2484.5	1595.75
1033.1845	3056.7868	2479.7	1589.55
1033.2941	3057.8136	2472.55	1583.25
1033.4037	3058.8398	2460.85	1571
1033.5132	3059.8653	2437.2	1546.75
1033.6227	3060.8902	2433.15	1544.35
1033.7321	3061.9145	2444.05	1555.2
1033.8415	3062.9381	2413.95	1524.7
1033.9509	3063.9612	2413	1506.95
1034.0602	3064.9835	2399.35	1507.65
1034.1694	3066.0053	2389.2	1496.6
1034.2787	3067.0264	2375.9	1486.2
1034.3878	3068.0469	2368.65	1480.1
1034.497	3069.0668	2366.5	1473.85
1034.6061	3070.086	2339.65	1450.25
1034.7151	3071.1046	2329.35	1438.1
1034.8241	3072.1226	2323.35	1432.4
1034.9331	3073.1399	2293.95	1403.3
1035.042	3074.1567	2275.7	1385.75
1035.1508	3075.1727	2272.1	1379.85
1035.2597	3076.1882	2245.15	1354.8
1035.3684	3077.203	2246.45	1354.95
1035.4772	3078.2173	2234.25	1344.7
1035.5859	3079.2308	2228.05	1334.1
1035.6945	3080.2438	2217.55	1324.5
1035.8031	3081.2561	2202.7	1312.65
1035.9117	3082.2678	2185.35	1296.5
1036.0202	3083.2789	2177.7	1287.65
1036.1286	3084.2893	2167.5	1278.2
1036.2371	3085.2991	2143.75	1255.75
1036.3454	3086.3083	2150.25	1256.15
1036.4538	3087.3169	2142.15	1252.6
1036.562	3088.3248	2133.05	1241.95
1036.6703	3089.3321	2124	1232.6
1036.7785	3090.3388	2107.35	1219.55
1036.8866	3091.3449	2102.55	1211.95
1036.9948	3092.3503	2091.9	1201.2
1037.1028	3093.3551	2079.05	1190.65
1037.2108	3094.3593	2073.55	1185.05
1037.3188	3095.3629	2070.1	1182.4
1037.4267	3096.3658	2065	1173.5
1037.5346	3097.3681	2055.65	1164.5
1037.6425	3098.3698	2049.65	1157.9
1037.7503	3099.3708	2038.15	1141.05
1037.858	3100.3713	2035.75	1147.05
1037.9657	3101.3711	2025.65	1137.3
1038.0734	3102.3702	2147.05	1121.1
1038.181	3103.3688	2025.05	1135.75
1038.2886	3104.3667	2004.95	1118.45
1038.3961	3105.364	2002.3	1113.8
1038.5036	3106.3607	1991.05	1100.05
1038.611	3107.3568	1984.05	1091.7
1038.7184	3108.3522	1961.7	1071.5
1038.8257	3109.347	1966.05	1077.35
1038.933	3110.3412	1965.4	1071.9
1039.0403	3111.3348	1953.75	1065.6
1039.1475	3112.3277	1951.5	1063.05
1039.2547	3113.32	1942.6	1053.5
1039.3618	3114.3117	1940.2	1050.35
1039.4689	3115.3028	1938.05	1049.3
1039.5759	3116.2932	1921.85	1030.1
1039.6829	3117.2831	1925.65	1031.5
1039.7898	3118.2723	1906.05	1015.1
1039.8967	3119.2608	1904.7	1014.95
1040.0035	3120.2488	1898.8	1008.8
1040.1103	3121.2361	1894	1005.4
1040.2171	3122.2229	1891.65	1003.65
1040.3238	3123.209	1883.95	996.1
1040.4305	3124.1944	1869.8	981.3
1040.5371	3125.1793	1876.05	986.35
1040.6437	3126.1635	1865	973.35
1040.7502	3127.1471	1862.9	975.1
1040.8567	3128.1301	1851.35	962.05
1040.9631	3129.1125	1845.8	955.15
1041.0695	3130.0942	1849.15	958.65
1041.1759	3131.0753	1849.05	950.55
1041.2822	3132.0558	1843.5	953
1041.3884	3133.0357	1829.25	938.85
1041.4946	3134.015	1827.3	936.7
1041.6008	3134.9936	1831.75	942
1041.7069	3135.9716	1835.4	925.25
1041.813	3136.949	1816.3	926.25
1041.919	3137.9258	1817.8	923.1
1042.025	3138.902	1808.3	913.75
1042.1309	3139.8775	1802.3	913.8
1042.2368	3140.8524	1802.5	912.3
1042.3427	3141.8267	1798.6	908.75
1042.4485	3142.8004	1791.2	903.9
1042.5542	3143.7735	1793.1	896.4
1042.6599	3144.7459	1791.25	899.35
1042.7656	3145.7178	1773.85	882.7
1042.8712	3146.689	1763.75	875.25
1042.9768	3147.6596	1775.35	884.2
1043.0823	3148.6295	1761.4	871.85
1043.1878	3149.5989	1765.35	875.9
1043.2932	3150.5676	1747.2	859.6
1043.3986	3151.5357	1751.3	862.9
1043.5039	3152.5032	1745.95	857.7
1043.6092	3153.4701	1736.45	846.35
1043.7145	3154.4364	1727.7	837.95
1043.8197	3155.402	1731.6	844.15
1043.9248	3156.367	1721.85	830.15
1044.03	3157.3315	1750.55	816.65
1044.135	3158.2952	1714.4	824.45
1044.24	3159.2584	1703.25	816.4
1044.345	3160.221	1693.7	805.1
1044.4499	3161.1829	1700.1	810.55
1044.5548	3162.1442	1684.55	796.65
1044.6596	3163.105	1686.15	797.85
1044.7644	3164.065	1673.45	785.15
1044.8692	3165.0245	1686.35	791.25
1044.9739	3165.9834	1682.3	793.5
1045.0785	3166.9416	1672.75	784.25
1045.1831	3167.8993	1667.2	777.6
1045.2877	3168.8563	1660.5	770.1
1045.3922	3169.8127	1652.8	764.5
1045.4966	3170.7684	1655.4	765.15
1045.6011	3171.7236	1645.3	754.8
1045.7054	3172.6782	1643.8	753.4
1045.8098	3173.6321	1642.85	752.7
1045.914	3174.5854	1640.45	745.7
1046.0183	3175.5381	1635.7	745.05
1046.1224	3176.4902	1622.05	733.3
1046.2266	3177.4417	1628.3	739.15
1046.3307	3178.3926	1619.15	729.45
1046.4347	3179.3428	1618.55	729.5
1046.5387	3180.2924	1611.35	721.6
1046.6427	3181.2415	1602.15	713.15
1046.7466	3182.1899	1602	711.95
1046.8504	3183.1377	1605.25	713.6
1046.9542	3184.0848	1600.25	708.05
1047.058	3185.0314	1589.55	699.35
1047.1617	3185.9773	1597.9	707.95
1047.2654	3186.9227	1584.95	695.3
1047.369	3187.8674	1584.75	694
1047.4726	3188.8115	1583.3	689.4
1047.5761	3189.755	1567.05	678.05
1047.6796	3190.6979	1579.9	691.75
1047.783	3191.6402	1560.7	674.05
1047.8864	3192.5818	1564.35	676.15
1047.9898	3193.5229	1574.35	673.35
1048.0931	3194.4633	1554.7	665.5
1048.1963	3195.4031	1551.8	662.1
1048.2995	3196.3423	1556.55	667.95
1048.4027	3197.2809	1549.3	660.5
1048.5058	3198.2189	1541.35	651.95
1048.6089	3199.1563	1544.7	649.5
1048.7119	3200.0931	1540.6	652.7
1048.8148	3201.0292	1532.85	645.25
1048.9178	3201.9648	1530.1	641.3
1049.0206	3202.8997	1535.5	646.95
1049.1235	3203.834	1529.2	639.9
1049.2262	3204.7677	1516.75	627.2
1049.329	3205.7008	1517.1	627.65
1049.4317	3206.6333	1508.3	622.3
1049.5343	3207.5652	1512.45	621.5
1049.6369	3208.4964	1514.05	622.8
1049.7394	3209.4271	1501.8	612
1049.8419	3210.3571	1504.5	616.1
1049.9444	3211.2865	1499.25	608.9
1050.0468	3212.2154	1495.65	606.65
1050.1491	3213.1436	1493.25	601.8
1050.2514	3214.0712	1492.75	595.35
1050.3537	3214.9982	1488.6	600.85
1050.4559	3215.9246	1482.15	590.45
1050.5581	3216.8503	1481.45	594.05
1050.6602	3217.7755	1478.1	589.4
1050.7623	3218.7001	1476.1	588.9
1050.8643	3219.624	1470.45	582.25
1050.9663	3220.5473	1464.35	575.35
1051.0682	3221.4701	1466.55	577.05
1051.1701	3222.3922	1462.6	570.8
1051.2719	3223.3137	1457.75	568.5
1051.3737	3224.2346	1457.25	566.45
1051.4754	3225.1549	1449.05	560.45
1051.5771	3226.0746	1448.5	559.7
1051.6788	3226.9937	1451.7	563
1051.7804	3227.9121	1440.3	552.8
1051.8819	3228.83	1445.2	555.75
1051.9834	3229.7473	1435.65	545.1
1052.0849	3230.6639	1439.55	550.3
1052.1863	3231.5799	1432.4	544.7
1052.2876	3232.4954	1437.55	548.25
1052.3889	3233.4102	1428.55	539.25
1052.4902	3234.3244	1420.6	532.35
1052.5914	3235.238	1421.1	533.95
1052.6926	3236.151	1445.75	535
1052.7937	3237.0634	1409.5	521.7
1052.8948	3237.9752	1406.75	517.85
1052.9958	3238.8864	1408.6	520.25
1053.0968	3239.797	1404	517.05
1053.1977	3240.7069	1404.7	515.15
1053.2986	3241.6163	1399.85	508.7
1053.3994	3242.5251	1396.5	508.2
1053.5002	3243.4332	1391.25	503.75
1053.6009	3244.3408	1389.6	500.3
1053.7016	3245.2477	1384.85	494.8
1053.8022	3246.154	1386.05	494.8
1053.9028	3247.0598	1382.2	491.4
1054.0034	3247.9649	1371.45	482.7
1054.1039	3248.8694	1369.65	480.4
1054.2043	3249.7733	1372.6	482.9
1054.3047	3250.6766	1366.3	477.35
1054.4051	3251.5793	1360.8	471.3
1054.5054	3252.4814	1359.6	471.6
1054.6056	3253.3829	1352.75	464.8
1054.7058	3254.2838	1362.3	474.5
1054.806	3255.1841	1350.4	460.9
1054.9061	3256.0838	1350.9	462.9
1055.0061	3256.9829	1342.65	455.4
1055.1062	3257.8814	1339.15	447.8
1055.2061	3258.7792	1341.4	451.5
1055.306	3259.6765	1333.9	443.5
1055.4059	3260.5731	1326.95	436.75
1055.5057	3261.4692	1321.15	433.1
1055.6055	3262.3647	1314.75	424.35
1055.7052	3263.2595	1310	421.2
1055.8049	3264.1538	1303.6	413.35
1055.9045	3265.0474	1302.95	413.65
1056.0041	3265.9404	1293	402.85
1056.1036	3266.8329	1287	399.05
1056.2031	3267.7247	1290.25	392.6
1056.3025	3268.616	1269.7	381.75
1056.4019	3269.5066	1258.3	369.4
1056.5013	3270.3966	1251.45	359.8
1056.6005	3271.286	1239.35	351
