Software Version:	3.9.2.0
Unit SN:	10000200
Spectrometer SN:	6960
Date:	3/6/2024 9:41:52 AM
Data Line Index:	25
Spectral Points:	2048
Integration time (ms):	125
Averages:	20
Delay (ms):	30
Sequence Number:	1
Processing:	dark subtract
Laser Power (mW):	305
Laser Current (mA):	825
Laser Diode Temp (C):	25
Laser Case Temp (C):	24
System Temp (C):	23.8
Spectrometer Temp (C):	21.4
CCD Temp (C):	-0.039
Secondary Temp (C):	20.008
Heatsink Temp (C):	17.438
CCDPCB Temp (C):	30.771
SecondaryPCB Temp (C):	25.491

Wavelength	RamanShift	Raw Counts	Dark Subtracted
787.061	30.1047	459.65	52.85
787.2016	32.3739	455.55	50.25
787.3422	34.6426	463.2	57.55
787.4828	36.9109	466.6	59.55
787.6235	39.1787	478.75	66.8
787.7642	41.4461	482.65	68.35
787.9049	43.7131	493.25	74.6
788.0456	45.9796	498.25	78.25
788.1863	48.2456	508.3	81.65
788.3271	50.5112	516.85	86.55
788.4679	52.7764	523.65	90.2
788.6087	55.0411	536.85	99.9
788.7496	57.3054	546.35	103.7
788.8904	59.5692	548.15	103.45
789.0313	61.8326	561.55	115.55
789.1722	64.0955	568.25	118.65
789.3132	66.3579	587.45	133.95
789.4541	68.6199	605.05	148.7
789.5951	70.8815	632.95	171.35
789.7361	73.1426	691.8	225.95
789.8771	75.4032	836.6	367.3
790.0181	77.6634	1191.6	720.25
790.1592	79.9231	2027.85	1553.5
790.3003	82.1824	3819.85	3339
790.4414	84.4412	6948.55	6455.65
790.5825	86.6995	11212.25	10711.45
790.7237	88.9574	15390.6	14882.65
790.8648	91.2148	18425.35	17912.5
791.006	93.4717	20185.35	19667.45
791.1472	95.7282	20953.15	20430.95
791.2885	97.9842	21324.55	20800.9
791.4297	100.2398	21428.45	20902.95
791.571	102.4949	21508.95	20982.45
791.7123	104.7495	21522.85	20991.4
791.8536	107.0036	21475.35	20942.2
791.9949	109.2573	21518.9	20988.3
792.1363	111.5105	21513.5	20979.7
792.2777	113.7632	21505.15	20969.5
792.4191	116.0154	21514.8	20969.55
792.5605	118.2672	21591.45	21050.4
792.7019	120.5185	21619.65	21078.7
792.8434	122.7693	21640.2	21093.25
792.9849	125.0197	21693.2	21144.5
793.1264	127.2696	21703.65	21148.75
793.2679	129.519	21775.15	21218.65
793.4094	131.7679	21858.25	21299.2
793.551	134.0163	21909.05	21346.5
793.6926	136.2642	21904	21339.45
793.8342	138.5117	21949	21381.25
793.9758	140.7587	21946.6	21379.55
794.1175	143.0052	21994.85	21423.8
794.2591	145.2512	21977.65	21405.3
794.4008	147.4967	21928.1	21353.55
794.5425	149.7417	21950.4	21374.3
794.6842	151.9863	21929.65	21350.2
794.826	154.2304	21934.15	21347.6
794.9677	156.4739	21898.2	21306.5
795.1095	158.717	21963.4	21371.9
795.2513	160.9596	21947.85	21351.75
795.3931	163.2017	21961.95	21364.9
795.535	165.4433	22006.5	21407.3
795.6768	167.6844	22019.85	21416.75
795.8187	169.925	22039.35	21432.25
795.9606	172.1651	21984.05	21374.25
796.1025	174.4047	22022.55	21407.25
796.2445	176.6439	22009.25	21396.2
796.3864	178.8825	22019.1	21403.2
796.5284	181.1206	22053.65	21432.55
796.6704	183.3582	22057.65	21434.2
796.8124	185.5954	22075.95	21449.35
796.9544	187.832	22135.8	21504.3
797.0965	190.0681	22120.45	21487.45
797.2386	192.3037	22220.3	21585.75
797.3806	194.5388	22243.5	21604.55
797.5228	196.7734	22276.6	21634.95
797.6649	199.0075	22343.85	21700.9
797.807	201.2411	22476.6	21833.6
797.9492	203.4742	22464	21817.6
798.0914	205.7068	22606.85	21956.6
798.2336	207.9389	22628.25	21976.7
798.3758	210.1704	22709.45	22065.2
798.518	212.4015	22625.95	21992.2
798.6603	214.632	22724.1	22093.8
798.8025	216.862	22731.7	22104.25
798.9448	219.0915	22750.15	22121
799.0871	221.3205	22799.65	22166.55
799.2294	223.549	22852.3	22224.25
799.3718	225.777	22907.5	22277.25
799.5141	228.0044	22914.9	22276.15
799.6565	230.2314	22989.6	22349.85
799.7989	232.4578	22978.25	22336.05
799.9413	234.6837	23006.75	22354.85
800.0837	236.909	23033.85	22380.25
800.2262	239.1339	23073.8	22398.3
800.3687	241.3582	23108.7	22446.55
800.5111	243.582	23100.6	22408.6
800.6536	245.8053	23109.9	22430.75
800.7961	248.0281	23104.95	22430.9
800.9387	250.2503	23171.05	22492.3
801.0812	252.472	23175.85	22495.4
801.2238	254.6932	23248.85	22566.8
801.3664	256.9139	23181.95	22500.45
801.509	259.134	23250.55	22565.95
801.6516	261.3536	23244	22561.55
801.7942	263.5727	23315.6	22630.5
801.9369	265.7912	23278.5	22595.05
802.0795	268.0092	23360.65	22675.75
802.2222	270.2267	23366.5	22681.65
802.3649	272.4436	23392.35	22703.05
802.5076	274.6601	23434.15	22735.9
802.6504	276.8759	23399.35	22704.85
802.7931	279.0913	23469.8	22778.75
802.9359	281.3061	23494.8	22798.15
803.0787	283.5204	23521.2	22821.45
803.2215	285.7341	23565	22861.4
803.3643	287.9473	23579.9	22865.95
803.5071	290.16	23652.6	22945.1
803.6499	292.3721	23597.95	22898.55
803.7928	294.5837	23556.65	22855.4
803.9357	296.7947	23516.2	22816.05
804.0786	299.0052	23538.8	22836.7
804.2215	301.2152	23522.35	22817.7
804.3644	303.4246	23525.7	22824.3
804.5074	305.6334	23504.15	22801.55
804.6503	307.8418	23467.3	22759.35
804.7933	310.0495	23476.4	22764.45
804.9363	312.2568	23468.65	22761
805.0793	314.4635	23360.95	22649.95
805.2223	316.6696	23365.35	22648.75
805.3653	318.8752	23246.15	22523.35
805.5084	321.0802	23189.4	22475.75
805.6514	323.2847	23228.65	22512.35
805.7945	325.4887	23194.15	22475.4
805.9376	327.692	23143.8	22423.55
806.0807	329.8949	23295	22575
806.2238	332.0972	23243.1	22522.9
806.367	334.2989	23284.25	22558.45
806.5101	336.5001	23236.2	22508.3
806.6533	338.7007	23272.45	22546.45
806.7965	340.9008	23314.8	22586.5
806.9397	343.1003	23268	22538.25
807.0829	345.2992	23242.65	22512.45
807.2261	347.4976	23208.8	22475.55
807.3693	349.6955	23184.95	22447.9
807.5126	351.8927	23228.95	22492.75
807.6559	354.0895	23158.65	22411.05
807.7991	356.2856	23204.6	22463.5
807.9424	358.4812	23155.9	22417.6
808.0857	360.6763	23172.2	22432.4
808.2291	362.8707	23103.35	22357.25
808.3724	365.0646	23145.25	22397.95
808.5158	367.258	23117.7	22368.7
808.6591	369.4508	23111.9	22359.5
808.8025	371.643	23123.45	22370.8
808.9459	373.8346	23085.15	22330.6
809.0893	376.0257	23050.1	22290.35
809.2327	378.2162	23014.35	22258.5
809.3762	380.4062	23057.3	22300.1
809.5196	382.5956	22971.4	22215.95
809.6631	384.7844	23028.15	22278.35
809.8066	386.9726	22904.75	22154.95
809.9501	389.1603	22869.25	22122.7
810.0936	391.3474	22818.25	22028.35
810.2371	393.5339	22821.3	22073.75
810.3806	395.7199	22757.7	22009.4
810.5241	397.9052	22777.9	22029.1
810.6677	400.09	22783	22031.15
810.8113	402.2743	22792.2	22040.15
810.9548	404.4579	22705.85	21952.95
811.0984	406.641	22812.05	22055.95
811.2421	408.8235	22850.05	22091.5
811.3857	411.0054	22863.05	22106.5
811.5293	413.1868	22981.9	22222
811.673	415.3675	22987.95	22220.55
811.8166	417.5477	22995.8	22226.55
811.9603	419.7273	22918.45	22146.4
812.104	421.9064	22785.85	22008.7
812.2477	424.0848	22673.5	21903.9
812.3914	426.2627	22603.65	21834.3
812.5351	428.4399	22570.95	21800.55
812.6788	430.6166	22494.15	21720.6
812.8226	432.7928	22411.95	21634.75
812.9663	434.9683	22345.55	21565.75
813.1101	437.1432	22321.15	21539.3
813.2539	439.3176	22234.7	21459.45
813.3977	441.4914	22176.95	21399.65
813.5415	443.6645	22199.75	21420.25
813.6853	445.8371	22085.8	21303.95
813.8291	448.0091	21992.5	21214.4
813.973	450.1806	21956.3	21177
814.1168	452.3514	21877.3	21096.1
814.2607	454.5216	21892.05	21102.2
814.4046	456.6913	21785.45	21000.2
814.5485	458.8603	21762.6	20978.5
814.6924	461.0288	21803.4	21021.5
814.8363	463.1967	21750	20967.7
814.9802	465.3639	21795.4	21011.35
815.1241	467.5306	21713.35	20928
815.2681	469.6967	21675.6	20891.45
815.412	471.8622	21605.9	20821.6
815.556	474.0271	21610.3	20826.45
815.7	476.1914	21566.45	20778.7
815.844	478.3551	21552.05	20764.05
815.988	480.5182	21602.35	20812.75
816.132	482.6807	21588.6	20799.75
816.276	484.8426	21603.05	20816.2
816.4201	487.0039	21656.7	20867.15
816.5641	489.1647	21676.4	20884.4
816.7082	491.3248	21743.5	20952.35
816.8522	493.4843	21686.05	20894.25
816.9963	495.6432	21688.2	20897
817.1404	497.8015	21581.95	20784
817.2845	499.9592	21610.45	20817.05
817.4286	502.1163	21544.1	20747.3
817.5727	504.2728	21484.05	20685.95
817.7168	506.4287	21532.35	20737.25
817.861	508.5839	21397.35	20601.85
818.0051	510.7386	21392.35	20597.5
818.1493	512.8927	21438.7	20640.05
818.2935	515.0461	21442.45	20643.75
818.4377	517.199	21433.65	20633.45
818.5818	519.3512	21387.35	20586.65
818.726	521.5029	21463.05	20655.3
818.8703	523.6539	21453.1	20652.9
819.0145	525.8043	21463.45	20659.95
819.1587	527.9541	21378.9	20572.7
819.303	530.1033	21305.8	20501.85
819.4472	532.2519	21289.25	20485.45
819.5915	534.3999	21229.05	20421.65
819.7357	536.5472	21244.1	20438.6
819.88	538.694	21237.2	20431.4
820.0243	540.8401	21247.4	20439.55
820.1686	542.9856	21225.4	20414.6
820.3129	545.1305	21181.2	20368.1
820.4572	547.2748	21226.1	20414.7
820.6016	549.4185	21217.5	20405.75
820.7459	551.5615	21167.95	20357
820.8902	553.704	21189.65	20378.65
821.0346	555.8458	21134.9	20326.4
821.1789	557.987	21161	20351.4
821.3233	560.1276	21149.6	20337.3
821.4677	562.2675	21162.45	20353.05
821.6121	564.4069	21169.3	20358.35
821.7565	566.5456	21146.6	20337.95
821.9009	568.6837	21146.2	20334.95
822.0453	570.8212	21061.05	20250.45
822.1897	572.958	20964	20151.6
822.3342	575.0942	20918.25	20109.8
822.4786	577.2299	20831.65	20018.9
822.6231	579.3648	20756.6	19946.9
822.7675	581.4992	20675.8	19865.8
822.912	583.6329	20619.5	19807.85
823.0565	585.766	20603.6	19793.35
823.201	587.8985	20557.25	19742.45
823.3454	590.0304	20539.9	19711.2
823.4899	592.1616	20530.65	19711.4
823.6345	594.2922	20511.05	19693.75
823.779	596.4222	20418.1	19599.95
823.9235	598.5515	20329.15	19510.3
824.068	600.6802	20288.1	19467.85
824.2126	602.8083	20148.15	19329.1
824.3571	604.9358	20165.7	19344.45
824.5017	607.0626	20106.1	19283.15
824.6462	609.1888	20089.5	19269.3
824.7908	611.3144	20105.1	19280.65
824.9354	613.4393	20070.2	19246.75
825.08	615.5636	20068.75	19245.85
825.2246	617.6873	20125.55	19301.9
825.3692	619.8103	20145.45	19322.15
825.5138	621.9327	20059.1	19232.25
825.6584	624.0544	20041	19219.25
825.803	626.1756	19990.8	19165.7
825.9477	628.2961	19964.85	19138.5
826.0923	630.4159	19897	19068.9
826.237	632.5351	19884.35	19060.2
826.3816	634.6537	19818.55	18993.4
826.5263	636.7716	19813.35	18985.05
826.6709	638.8889	19803.7	18976.25
826.8156	641.0056	19810.1	18981.85
826.9603	643.1216	19777.7	18948.2
827.105	645.237	19806.75	18977.5
827.2497	647.3518	19777.2	18951.15
827.3944	649.4659	19760.5	18935.85
827.5391	651.5793	19722.2	18896.3
827.6838	653.6922	19649.35	18820.8
827.8285	655.8043	19604.45	18776.75
827.9733	657.9159	19618.35	18786.9
828.118	660.0268	19549	18715.35
828.2627	662.137	19520.15	18689.6
828.4075	664.2466	19497.8	18665.1
828.5522	666.3556	19497.3	18665.05
828.697	668.4639	19441.6	18606.25
828.8418	670.5716	19439.85	18609
828.9865	672.6786	19420.6	18586.5
829.1313	674.785	19355.45	18518.85
829.2761	676.8907	19298.95	18463.05
829.4209	678.9958	19287	18451.15
829.5657	681.1002	19247.1	18410.25
829.7105	683.204	19196.3	18355.45
829.8553	685.3072	19208.25	18369.05
830.0001	687.4097	19158.25	18321.4
830.1449	689.5115	19156.75	18318.95
830.2898	691.6127	19139.75	18305.05
830.4346	693.7132	19066.25	18229.35
830.5794	695.8131	19122.1	18275.5
830.7243	697.9123	19122.9	18283.2
830.8691	700.0109	19071.5	18230.75
831.014	702.1089	19056.45	18218.05
831.1588	704.2061	18998.85	18159.15
831.3037	706.3028	19052.1	18209.95
831.4486	708.3987	19090.15	18249.95
831.5935	710.4941	18969.65	18129.35
831.7383	712.5887	19001.75	18160
831.8832	714.6827	18987	18141.9
832.0281	716.7761	18956.15	18117.15
832.173	718.8688	18953.25	18111.35
832.3179	720.9608	18901.15	18055.85
832.4628	723.0522	18913.6	18064.45
832.6077	725.1429	18892	18048.75
832.7527	727.233	18909.55	18065.35
832.8976	729.3224	18916.45	18075.6
833.0425	731.4112	18919.5	18073.5
833.1874	733.4993	18906.85	18060.95
833.3324	735.5867	18814.2	17967.6
833.4773	737.6735	18734.75	17890.8
833.6222	739.7596	18672.5	17825.25
833.7672	741.845	18651.45	17805.35
833.9122	743.9298	18601.15	17755.75
834.0571	746.014	18562.35	17718.65
834.2021	748.0974	18545.25	17697.6
834.347	750.1802	18500.45	17654.45
834.492	752.2624	18442.05	17595.95
834.637	754.3439	18366.25	17516.5
834.782	756.4247	18321.2	17463.7
834.9269	758.5048	18283.2	17436.7
835.0719	760.5843	18248.8	17400.9
835.2169	762.6631	18199.1	17349.65
835.3619	764.7413	18187.55	17339.25
835.5069	766.8188	18223.2	17373.7
835.6519	768.8956	18183.3	17331.15
835.7969	770.9718	18229.45	17381.5
835.9419	773.0473	18167.4	17319
836.0869	775.1221	18122.85	17273.45
836.232	777.1962	18068.05	17219.85
836.377	779.2697	18069.05	17216.25
836.522	781.3426	18096.65	17226.8
836.667	783.4147	18088.05	17237.25
836.8121	785.4862	18067.85	17218.25
836.9571	787.557	17992.15	17141.9
837.1021	789.6271	17880	17027.25
837.2472	791.6966	17817.1	16965.8
837.3922	793.7654	17705.15	16852.45
837.5373	795.8335	17691.1	16840.05
837.6823	797.901	17605.45	16754.8
837.8274	799.9678	17569.5	16713.2
837.9724	802.0339	17534	16682.65
838.1175	804.0993	17554.1	16692.85
838.2626	806.1641	17491	16638.25
838.4076	808.2282	17418.8	16566.8
838.5527	810.2916	17404.85	16550.55
838.6978	812.3544	17378.75	16526.95
838.8428	814.4164	17346.35	16495.15
838.9879	816.4778	17372.9	16516.95
839.133	818.5385	17304.75	16450.8
839.2781	820.5986	17327.9	16473.35
839.4232	822.658	17356.65	16502.5
839.5682	824.7166	17304.2	16450.35
839.7133	826.7747	17381.45	16528.65
839.8584	828.832	17388.55	16534.45
840.0035	830.8886	17342.9	16487.45
840.1486	832.9446	17360.7	16504.1
840.2937	834.9999	17324.4	16470.95
840.4388	837.0545	17236.9	16377.65
840.5839	839.1085	17181.45	16325.45
840.729	841.1618	17126.8	16266.2
840.8741	843.2143	17035.8	16179.45
841.0192	845.2662	16975.5	16119.4
841.1643	847.3175	16948.7	16092.05
841.3095	849.368	16927.5	16069.25
841.4546	851.4179	16888.65	16030.6
841.5997	853.467	16804.85	15948.1
841.7448	855.5155	16809.15	15951
841.8899	857.5633	16807.4	15950.25
842.0351	859.6105	16737.55	15879.8
842.1802	861.6569	16728.25	15872.25
842.3253	863.7027	16694.25	15835.55
842.4704	865.7478	16709.35	15850.45
842.6156	867.7922	16652.55	15794.3
842.7607	869.8359	16614.6	15756.75
842.9058	871.8789	16611.45	15751.45
843.0509	873.9212	16587.35	15697.85
843.1961	875.9629	16543.2	15683.3
843.3412	878.0039	16557.4	15697.85
843.4863	880.0441	16513.55	15655.6
843.6315	882.0837	16542.75	15682.6
843.7766	884.1226	16526.45	15664.4
843.9218	886.1609	16529.05	15669.3
844.0669	888.1984	16550.5	15690.8
844.212	890.2352	16587	15727.95
844.3572	892.2714	16552.5	15689.25
844.5023	894.3069	16531.55	15670.55
844.6475	896.3416	16451.05	15591.35
844.7926	898.3757	16427.2	15565.85
844.9377	900.4091	16372.95	15509.3
845.0829	902.4418	16361.95	15497
845.228	904.4739	16315.65	15451.55
845.3732	906.5052	16300.75	15438.05
845.5183	908.5358	16244.55	15381.55
845.6635	910.5658	16230.5	15366.2
845.8086	912.595	16199.2	15335.65
845.9538	914.6236	16134.55	15270.8
846.0989	916.6515	16100.8	15237.7
846.2441	918.6786	16060.4	15194.85
846.3892	920.7051	16038.8	15173.85
846.5344	922.7309	16077.5	15213.15
846.6795	924.756	15973.55	15110.4
846.8246	926.7804	15991.65	15126.1
846.9698	928.8041	15884.35	15018.95
847.1149	930.8272	15888.5	15026.4
847.2601	932.8495	15841.75	14975.65
847.4052	934.8711	15843.1	14979.55
847.5504	936.892	15760.75	14894.95
847.6955	938.9123	15775.85	14910.5
847.8407	940.9318	15702.1	14836.2
847.9858	942.9506	15699.6	14834.5
848.131	944.9688	15618.1	14754.15
848.2761	946.9862	15598.2	14732.95
848.4213	949.003	15507.45	14643.4
848.5664	951.019	15446.2	14582.2
848.7115	953.0344	15404.2	14538.85
848.8567	955.0491	15352.2	14483.7
849.0018	957.063	15356.9	14491.35
849.147	959.0763	15378	14513.25
849.2921	961.0888	15319.9	14450.35
849.4373	963.1007	15324.4	14457.8
849.5824	965.1119	15305.6	14439.05
849.7275	967.1223	15257.05	14393.55
849.8727	969.1321	15233.6	14371.05
850.0178	971.1412	15237.45	14370.55
850.1629	973.1495	15165	14299.8
850.3081	975.1572	15194.3	14281.4
850.4532	977.1641	15163.05	14295.85
850.5983	979.1704	15100.85	14231
850.7435	981.1759	15076	14205.55
850.8886	983.1808	15048.35	14180
851.0337	985.1849	14997.3	14118.5
851.1788	987.1884	14974.3	14103.2
851.324	989.1911	14975.95	14104.65
851.4691	991.1932	14960.05	14091.3
851.6142	993.1945	14881.65	14012.9
851.7593	995.1951	14815.1	13946.65
851.9045	997.1951	14806.05	13932.15
852.0496	999.1943	14709.7	13841.9
852.1947	1001.1928	14682.2	13814.6
852.3398	1003.1906	14623.85	13753.55
852.4849	1005.1877	14627.9	13757.95
852.63	1007.1841	14581.25	13712.2
852.7751	1009.1798	14561	13693.5
852.9202	1011.1748	14500.4	13630.9
853.0653	1013.1691	14449.7	13580.85
853.2104	1015.1627	14405.95	13537.65
853.3555	1017.1556	14289.3	13418.9
853.5006	1019.1477	14259.75	13389.35
853.6457	1021.1392	14151.8	13286.15
853.7908	1023.1299	14115.45	13246.85
853.9359	1025.12	14095.8	13227.25
854.081	1027.1093	14014.4	13146.9
854.2261	1029.0979	14008.25	13142.95
854.3712	1031.0859	13958.45	13090.85
854.5163	1033.0731	13930.25	13061.25
854.6613	1035.0596	13879.05	13011.25
854.8064	1037.0454	13778.55	12909.35
854.9515	1039.0304	13791.5	12921.55
855.0965	1041.0148	13751.9	12881.4
855.2416	1042.9985	13664.6	12792.9
855.3867	1044.9814	13678.25	12808.4
855.5317	1046.9636	13589	12716.75
855.6768	1048.9452	13546.7	12679.35
855.8219	1050.926	13538.6	12672.65
855.9669	1052.9061	13495.6	12624.05
856.112	1054.8855	13471.7	12598.6
856.257	1056.8642	13482.1	12613.65
856.4021	1058.8421	13440.6	12564.8
856.5471	1060.8194	13435.4	12563.95
856.6921	1062.7959	13414.95	12543.1
856.8372	1064.7717	13361.05	12489.4
856.9822	1066.7469	13328.95	12459.25
857.1272	1068.7213	13321.95	12448.6
857.2723	1070.695	13323.45	12452.3
857.4173	1072.6679	13243.8	12372.1
857.5623	1074.6402	13237	12364.55
857.7073	1076.6117	13249.3	12373.25
857.8523	1078.5826	13227.35	12355.15
857.9973	1080.5527	13154.5	12279.85
858.1423	1082.5221	13089.75	12216.5
858.2873	1084.4908	13074.35	12201.05
858.4323	1086.4587	13031.7	12158.2
858.5773	1088.426	13013.35	12140.95
858.7223	1090.3925	12970.25	12092.85
858.8673	1092.3584	12944.3	12073.25
859.0123	1094.3235	12887.75	12016.2
859.1573	1096.2879	12870.65	11998.7
859.3022	1098.2515	12864.65	11992.35
859.4472	1100.2145	12888.7	12017.5
859.5922	1102.1767	12854.8	11981.7
859.7371	1104.1382	12851.1	11979.95
859.8821	1106.099	12860.85	11985.05
860.027	1108.0591	12851.65	11978.45
860.172	1110.0185	12835.95	11962.1
860.3169	1111.9771	12853.6	11983.45
860.4619	1113.9351	12856.7	11983.75
860.6068	1115.8923	12861.95	11987.25
860.7517	1117.8488	12842.85	11966.4
860.8967	1119.8045	12771.4	11898.1
861.0416	1121.7596	12707.3	11832.75
861.1865	1123.7139	12576.55	11703.45
861.3314	1125.6675	12529.9	11657.25
861.4763	1127.6204	12548.55	11674.75
861.6212	1129.5726	12514.75	11638.8
861.7661	1131.524	12493.35	11620.3
861.911	1133.4748	12461.45	11586
862.0559	1135.4248	12408.55	11533.1
862.2008	1137.3741	12359.25	11485.25
862.3457	1139.3226	12294.25	11418
862.4905	1141.2705	12280.45	11405.25
862.6354	1143.2176	12246.85	11367.5
862.7803	1145.164	12223.75	11349.25
862.9251	1147.1097	12194.3	11319.4
863.07	1149.0546	12164.7	11287.45
863.2148	1150.9989	12131.65	11256.95
863.3597	1152.9424	12135.05	11259.25
863.5045	1154.8852	12126.4	11249.7
863.6493	1156.8272	12096.5	11223.8
863.7942	1158.7686	12102.65	11219.35
863.939	1160.7092	12026.45	11151.3
864.0838	1162.6491	11979.3	11100.9
864.2286	1164.5883	12013.2	11140.9
864.3734	1166.5267	11969.45	11094.5
864.5182	1168.4644	11988.7	11113.1
864.663	1170.4014	11978.5	11098.65
864.8078	1172.3377	11996.15	11123.3
864.9526	1174.2732	12035.85	11160.1
865.0974	1176.2081	12061.5	11185.95
865.2421	1178.1421	12115	11237.9
865.3869	1180.0755	12163.1	11288
865.5317	1182.0082	12159.05	11283.9
865.6764	1183.9401	12129.65	11255.2
865.8212	1185.8713	12035.8	11161.05
865.9659	1187.8017	11933.35	11059.6
866.1106	1189.7315	11884.65	11011.65
866.2554	1191.6605	11782.85	10908.5
866.4001	1193.5888	11698.25	10824.5
866.5448	1195.5163	11661.7	10785.9
866.6895	1197.4432	11603.9	10726.35
866.8342	1199.3693	11593.2	10717.15
866.9789	1201.2947	11546.1	10662.15
867.1236	1203.2193	11505.75	10631.35
867.2683	1205.1432	11463.65	10586.55
867.413	1207.0664	11419.1	10543.2
867.5576	1208.9889	11410.75	10531.45
867.7023	1210.9106	11359.25	10482.8
867.847	1212.8316	11305.95	10431.6
867.9916	1214.7519	11310	10422.7
868.1363	1216.6715	11259.2	10384.9
868.2809	1218.5903	11272.4	10397.45
868.4255	1220.5084	11226.9	10350.5
868.5701	1222.4257	11259.1	10384.4
868.7148	1224.3424	11218.05	10340.35
868.8594	1226.2583	11199.15	10318.35
869.004	1228.1735	11185.65	10308.75
869.1486	1230.0879	11119.2	10242.85
869.2932	1232.0016	11146.85	10270.4
869.4377	1233.9146	11152.95	10274.55
869.5823	1235.8269	11165.05	10290.8
869.7269	1237.7384	11154.3	10277.3
869.8715	1239.6492	11103.25	10226.9
870.016	1241.5592	11117.5	10237.4
870.1606	1243.4686	11100.15	10221.95
870.3051	1245.3772	11108.55	10233.75
870.4496	1247.285	11139.3	10262.15
870.5941	1249.1922	11153.8	10277.65
870.7387	1251.0986	11186.55	10311.3
870.8832	1253.0042	11210.05	10332.45
871.0277	1254.9092	11282.55	10407.4
871.1722	1256.8134	11306.85	10431.3
871.3167	1258.7169	11340.55	10463.1
871.4611	1260.6196	11319.75	10446.85
871.6056	1262.5216	11327.75	10447.5
871.7501	1264.4229	11298.6	10424.1
871.8945	1266.3234	11283.15	10407.25
872.039	1268.2232	11236.95	10356.6
872.1834	1270.1223	11157.25	10278.7
872.3278	1272.0207	11141.05	10261.35
872.4723	1273.9183	11111.45	10228.7
872.6167	1275.8151	11092.4	10214.9
872.7611	1277.7113	11085.25	10207.5
872.9055	1279.6067	11113.65	10237.85
873.0499	1281.5014	11211	10330.85
873.1943	1283.3953	11281.95	10401.85
873.3386	1285.2885	11410.95	10534.3
873.483	1287.181	11502.6	10622.05
873.6274	1289.0727	11548.65	10674.95
873.7717	1290.9637	11451.85	10572.3
873.9161	1292.854	11422.15	10545
874.0604	1294.7435	11300.7	10422.3
874.2047	1296.6323	11248.55	10369.25
874.349	1298.5204	11170.95	10290.35
874.4933	1300.4077	11099.4	10220.8
874.6376	1302.2943	11076.1	10199.7
874.7819	1304.1802	11041.2	10164.5
874.9262	1306.0653	11004.25	10121.95
875.0705	1307.9497	10945.9	10067.65
875.2147	1309.8333	10916	10037.45
875.359	1311.7162	10890.7	10012.45
875.5032	1313.5984	10893.05	10012.1
875.6475	1315.4798	10847.8	9959.35
875.7917	1317.3605	10829.95	9935.75
875.9359	1319.2405	10816.75	9937.95
876.0801	1321.1197	10780.95	9899.45
876.2243	1322.9982	10736.55	9854.25
876.3685	1324.876	10676.25	9798.15
876.5127	1326.753	10570.6	9693.5
876.6569	1328.6293	10544.55	9663.25
876.801	1330.5048	10482.7	9602.55
876.9452	1332.3796	10405.55	9527.2
877.0893	1334.2537	10374.65	9470
877.2335	1336.127	10309.6	9432.2
877.3776	1337.9996	10283	9403.4
877.5217	1339.8714	10268.2	9389.65
877.6658	1341.7426	10264.35	9342.85
877.8099	1343.6129	10225.15	9345.95
877.954	1345.4826	10177.45	9299.7
878.0981	1347.3515	10170.8	9288.65
878.2422	1349.2196	10135.2	9257.6
878.3862	1351.087	10126.95	9248.7
878.5303	1352.9537	10118.2	9239.4
878.6743	1354.8197	10109.2	9232.95
878.8184	1356.6849	10121.55	9242.05
878.9624	1358.5493	10083.05	9204.3
879.1064	1360.4131	10093.35	9215.4
879.2504	1362.276	10095.45	9217.8
879.3944	1364.1383	10091.1	9211.5
879.5384	1365.9998	10109.3	9226
879.6823	1367.8606	10063.05	9180.9
879.8263	1369.7206	10049.6	9171.75
879.9702	1371.5799	10004.85	9123.3
880.1142	1373.4384	9979.9	9100.5
880.2581	1375.2962	9970	9087.2
880.402	1377.1533	9888.9	9010.1
880.5459	1379.0096	9803.9	8924.9
880.6898	1380.8652	9781.7	8902.8
880.8337	1382.7201	9713.25	8834.8
880.9776	1384.5742	9656.05	8778.8
881.1215	1386.4275	9610	8730.15
881.2653	1388.2802	9584	8704.55
881.4092	1390.132	9533.9	8653.5
881.553	1391.9832	9522.5	8640.15
881.6968	1393.8336	9474.8	8595.05
881.8406	1395.6832	9450.45	8568.15
881.9844	1397.5322	9400.5	8521
882.1282	1399.3803	9378.75	8495.35
882.272	1401.2278	9334.55	8454.15
882.4158	1403.0745	9294.75	8415.25
882.5595	1404.9204	9269.25	8389.8
882.7033	1406.7656	9276.6	8397.05
882.847	1408.6101	9241.75	8359.85
882.9908	1410.4538	9192.35	8312.65
883.1345	1412.2968	9193.05	8313.7
883.2782	1414.139	9128.95	8249.25
883.4219	1415.9805	9113.9	8235.9
883.5656	1417.8213	9098.05	8196.2
883.7092	1419.6613	9081.55	8204.55
883.8529	1421.5006	9074.65	8193.95
883.9965	1423.3391	9081.55	8202.85
884.1402	1425.1769	9070.4	8190.75
884.2838	1427.0139	9125.75	8247.2
884.4274	1428.8502	9161.8	8278.5
884.571	1430.6858	9181.7	8302.5
884.7146	1432.5206	9171.75	8291.9
884.8582	1434.3547	9172.2	8292
885.0018	1436.188	9133.5	8255.25
885.1453	1438.0206	9124.35	8242.6
885.2889	1439.8524	9069.4	8189.8
885.4324	1441.6835	9082.15	8200.15
885.5759	1443.5139	9070.25	8186.35
885.7194	1445.3435	9040.55	8161.45
885.8629	1447.1724	9021.9	8141.45
886.0064	1449.0005	9027.7	8146.35
886.1499	1450.8279	8985.7	8103.6
886.2933	1452.6545	8986.8	8106.8
886.4368	1454.4804	8982.7	8102.65
886.5802	1456.3056	8949.55	8060.35
886.7237	1458.13	8916.5	8037.75
886.8671	1459.9536	8903.4	8021.7
887.0105	1461.7766	8889.15	8010.75
887.1539	1463.5987	8816.45	7936.1
887.2972	1465.4202	8796.45	7915.6
887.4406	1467.2409	8727	7845.65
887.584	1469.0608	8702.95	7823
887.7273	1470.88	8676.3	7793.6
887.8706	1472.6984	8645.7	7766
888.0139	1474.5161	8605.9	7721.7
888.1572	1476.3331	8557.55	7680.4
888.3005	1478.1493	8552.8	7671.65
888.4438	1479.9648	8554	7673.9
888.5871	1481.7795	8498.35	7620.2
888.7303	1483.5935	8523.6	7643.35
888.8736	1485.4067	8493.6	7612.05
889.0168	1487.2192	8482.35	7600.9
889.16	1489.031	8469.5	7586.3
889.3032	1490.842	8449.55	7569.5
889.4464	1492.6522	8435.35	7554.7
889.5896	1494.4618	8407.35	7525.85
889.7327	1496.2705	8390.1	7509.1
889.8759	1498.0785	8393.65	7513.75
890.019	1499.8858	8353.15	7470.85
890.1622	1501.6924	8357.2	7479.1
890.3053	1503.4981	8306.55	7425.8
890.4484	1505.3032	8298.25	7417.3
890.5914	1507.1075	8289.35	7410.4
890.7345	1508.911	8268.55	7389.25
890.8776	1510.7138	8243.35	7360.05
891.0206	1512.5159	8203.05	7323.2
891.1637	1514.3172	8179.3	7300.05
891.3067	1516.1178	8163.4	7284.35
891.4497	1517.9176	8115.85	7234.8
891.5927	1519.7166	8090.4	7209.4
891.7357	1521.515	8077.2	7191.65
891.8786	1523.3126	8044.95	7165.95
892.0216	1525.1094	8033.05	7150.8
892.1645	1526.9055	8007.5	7128.35
892.3074	1528.7008	7986.4	7103.75
892.4503	1530.4954	7930.95	7049.15
892.5932	1532.2893	7917.15	7037.2
892.7361	1534.0824	7856.8	6972.1
892.879	1535.8747	7856.15	6977.65
893.0218	1537.6663	7807.65	6927.35
893.1647	1539.4572	7791.15	6912.3
893.3075	1541.2473	7769.6	6889.15
893.4503	1543.0367	7767.3	6889.9
893.5931	1544.8253	7721.8	6837.8
893.7359	1546.6132	7706.35	6822.35
893.8787	1548.4003	7675.2	6785.95
894.0214	1550.1867	7660.95	6771.95
894.1642	1551.9723	7646.4	6761.75
894.3069	1553.7572	7659.6	6779.75
894.4496	1555.5414	7606.4	6726.45
894.5923	1557.3247	7612.2	6731.75
894.735	1559.1074	7633.45	6757.4
894.8777	1560.8893	7638	6759.4
895.0204	1562.6705	7625.7	6748
895.163	1564.4509	7640.7	6760.9
895.3056	1566.2305	7614.75	6736.55
895.4482	1568.0094	7624.1	6746.35
895.5908	1569.7876	7609.95	6729.25
895.7334	1571.565	7577.9	6700.4
895.876	1573.3417	7559.25	6678.8
896.0186	1575.1176	7524.2	6644.25
896.1611	1576.8928	7515.7	6637.95
896.3036	1578.6672	7504.4	6627.25
896.4461	1580.4409	7498.25	6621.4
896.5886	1582.2138	7482.95	6602.7
896.7311	1583.986	7477.85	6598.4
896.8736	1585.7575	7507.4	6629.55
897.0161	1587.5282	7521	6643
897.1585	1589.2981	7525.65	6650.35
897.3009	1591.0673	7481.7	6601.5
897.4433	1592.8358	7496.05	6619.2
897.5857	1594.6035	7463.35	6582.35
897.7281	1596.3704	7434.25	6552.45
897.8705	1598.1366	7401	6522.05
898.0128	1599.9021	7364.85	6486.9
898.1551	1601.6668	7322.8	6443.45
898.2975	1603.4308	7279.55	6400.35
898.4398	1605.194	7272.9	6390.5
898.5821	1606.9564	7272.4	6395.9
898.7243	1608.7182	7309.95	6429.2
898.8666	1610.4791	7322.95	6445.55
899.0088	1612.2394	7340.1	6463.95
899.1511	1613.9988	7385.4	6507.2
899.2933	1615.7576	7452.3	6575.7
899.4355	1617.5156	7468.55	6583.7
899.5776	1619.2728	7426.5	6547.75
899.7198	1621.0293	7336.55	6459.85
899.862	1622.785	7242.2	6359.1
900.0041	1624.54	7137.55	6256.3
900.1462	1626.2942	7038.2	6159.1
900.2883	1628.0477	6922.15	6040.8
900.4304	1629.8005	6858.45	5978.2
900.5725	1631.5525	6806.6	5929.65
900.7145	1633.3037	6753.5	5875.95
900.8566	1635.0542	6704.3	5826.3
900.9986	1636.804	6644.55	5768.4
901.1406	1638.553	6713.05	5747.55
901.2826	1640.3013	6576.65	5697.1
901.4245	1642.0488	6563.8	5682.8
901.5665	1643.7955	6516.2	5640.35
901.7085	1645.5416	6490.4	5611.65
901.8504	1647.2868	6470.8	5594.05
901.9923	1649.0313	6429.25	5550.6
902.1342	1650.7751	6427.25	5544.9
902.2761	1652.5181	6410.75	5537.2
902.4179	1654.2604	6367.6	5488.65
902.5598	1656.0019	6347.95	5471.85
902.7016	1657.7427	6352.7	5472
902.8434	1659.4828	6351.95	5472.45
902.9852	1661.222	6352.9	5473.9
903.127	1662.9606	6345.35	5466.9
903.2687	1664.6984	6348.65	5472.3
903.4105	1666.4354	6350.3	5471.6
903.5522	1668.1717	6309.7	5431.8
903.6939	1669.9072	6271.5	5395.05
903.8356	1671.642	6244.95	5364.25
903.9773	1673.3761	6177.15	5299.45
904.119	1675.1094	6152.45	5274
904.2606	1676.8419	6087	5208.6
904.4022	1678.5737	6054.1	5176
904.5439	1680.3048	6017.85	5138.05
904.6855	1682.0351	5992.5	5114.1
904.827	1683.7646	5969.85	5088
904.9686	1685.4934	5944.05	5063.7
905.1101	1687.2215	5935.15	5055.35
905.2517	1688.9488	5905.3	5025.4
905.3932	1690.6754	5872.85	4995.5
905.5347	1692.4012	5866.85	4987.6
905.6761	1694.1263	5854.1	4976.9
905.8176	1695.8506	5806.7	4926.5
905.9591	1697.5742	5788.9	4910.8
906.1005	1699.297	5775.55	4899.5
906.2419	1701.0191	5734.3	4855.7
906.3833	1702.7404	5710.3	4833.8
906.5246	1704.461	5701.65	4821.25
906.666	1706.1808	5667.85	4786.1
906.8073	1707.8999	5658.8	4776.6
906.9487	1709.6182	5645.15	4766.1
907.09	1711.3358	5629.85	4753.8
907.2313	1713.0527	5612.25	4736.35
907.3725	1714.7688	5604.95	4721.65
907.5138	1716.4841	5579.35	4700.95
907.655	1718.1987	5567.15	4683.65
907.7962	1719.9126	5550	4672.25
907.9374	1721.6257	5526.5	4647.55
908.0786	1723.338	5537.1	4660.15
908.2198	1725.0496	5492.6	4613.15
908.3609	1726.7605	5490.85	4611.75
908.502	1728.4706	5484.75	4605.85
908.6431	1730.18	5455.3	4577.5
908.7842	1731.8886	5436.1	4557.75
908.9253	1733.5964	5453.45	4570.5
909.0664	1735.3036	5431.95	4551.8
909.2074	1737.0099	5439.35	4560.55
909.3484	1738.7156	5418.2	4541.95
909.4894	1740.4204	5405.4	4523.65
909.6304	1742.1246	5396	4517.85
909.7714	1743.8279	5402	4525.85
909.9123	1745.5306	5396.6	4518.1
910.0532	1747.2325	5372	4492.3
910.1941	1748.9336	5351.55	4474.9
910.335	1750.634	5335.95	4455.6
910.4759	1752.3336	5336.25	4459.3
910.6168	1754.0325	5327.8	4450.15
910.7576	1755.7307	5319.35	4441.2
910.8984	1757.4281	5318.55	4440
911.0392	1759.1247	5327.95	4438.5
911.18	1760.8206	5309.45	4427.35
911.3208	1762.5158	5307.9	4428.45
911.4615	1764.2102	5279.15	4400.7
911.6022	1765.9039	5258.15	4380
911.7429	1767.5968	5255.45	4378.25
911.8836	1769.289	5244.45	4366.65
912.0243	1770.9804	5244.4	4364.55
912.1649	1772.6711	5224.4	4346.2
912.3056	1774.361	5228.3	4348.9
912.4462	1776.0502	5229	4349.25
912.5868	1777.7386	5221.55	4340.35
912.7274	1779.4263	5187.1	4308.25
912.8679	1781.1132	5189	4308.2
913.0084	1782.7994	5171.95	4293.6
913.149	1784.4849	5161.05	4282.95
913.2895	1786.1696	5153.55	4256.05
913.4299	1787.8535	5133.35	4257.25
913.5704	1789.5367	5125.1	4246.9
913.7108	1791.2192	5108.85	4231.55
913.8513	1792.9009	5096.8	4188.1
913.9917	1794.5818	5094.7	4215.3
914.132	1796.2621	5070.4	4194.45
914.2724	1797.9415	5083.7	4205.25
914.4128	1799.6202	5062.05	4183.45
914.5531	1801.2982	5055.65	4177.1
914.6934	1802.9755	5054.25	4175.3
914.8337	1804.6519	5032.2	4153.65
914.9739	1806.3277	5010.7	4133.25
915.1142	1808.0027	4992.5	4115.7
915.2544	1809.6769	4985.8	4108.85
915.3946	1811.3504	4979.2	4097.95
915.5348	1813.0231	4973.35	4095
915.675	1814.6951	4968.5	4089.1
915.8151	1816.3664	4958.55	4078.6
915.9553	1818.0369	4952.05	4072.2
916.0954	1819.7067	4927.8	4051.15
916.2355	1821.3757	4916.7	4038.6
916.3755	1823.044	4916.8	4037.85
916.5156	1824.7115	4900.4	4021.75
916.6556	1826.3783	4886	4008.35
916.7956	1828.0443	4867.25	3988.85
916.9356	1829.7096	4858.9	3980.45
917.0756	1831.3741	4861.75	3978.95
917.2155	1833.0379	4851.45	3973.7
917.3555	1834.701	4837.65	3956.65
917.4954	1836.3633	4831.85	3952.75
917.6353	1838.0248	4837.1	3957.8
917.7751	1839.6856	4813.75	3935.5
917.915	1841.3457	4819.7	3941.65
918.0548	1843.005	4802.8	3927.25
918.1946	1844.6636	4778.9	3900.7
918.3344	1846.3214	4776.15	3898.65
918.4742	1847.9785	4774.7	3899.45
918.6139	1849.6349	4754.1	3876.5
918.7537	1851.2904	4754.5	3863.75
918.8934	1852.9453	4730.4	3851.85
919.0331	1854.5994	4730.8	3848.95
919.1727	1856.2528	4738.7	3853.55
919.3124	1857.9054	4720.4	3842.35
919.452	1859.5572	4732.75	3853.4
919.5916	1861.2083	4708.15	3827.9
919.7312	1862.8587	4700.65	3823.5
919.8708	1864.5084	4685.2	3804.7
920.0103	1866.1572	4669.05	3791.9
920.1498	1867.8054	4662.4	3782.75
920.2893	1869.4528	4659.4	3779.8
920.4288	1871.0994	4649.4	3772.7
920.5683	1872.7453	4639.45	3760.45
920.7077	1874.3905	4633.4	3748.75
920.8471	1876.0349	4620.9	3742.15
920.9865	1877.6786	4617.7	3737.85
921.1259	1879.3215	4623	3742.8
921.2653	1880.9637	4614.8	3734.4
921.4046	1882.6051	4587.15	3708.7
921.5439	1884.2458	4592	3710.6
921.6832	1885.8858	4582.65	3704.65
921.8225	1887.525	4566.35	3687.1
921.9617	1889.1634	4550.3	3674.7
922.101	1890.8011	4547.15	3668.5
922.2402	1892.4381	4533.15	3652.5
922.3794	1894.0743	4532.2	3654.15
922.5185	1895.7098	4525.4	3647.95
922.6577	1897.3446	4510.8	3631.7
922.7968	1898.9786	4494.7	3611.95
922.9359	1900.6118	4493.7	3617.35
923.075	1902.2443	4492.55	3611.55
923.214	1903.8761	4467.5	3589.7
923.3531	1905.5071	4452.45	3574.05
923.4921	1907.1374	4440	3561.95
923.6311	1908.7669	4434.9	3557.1
923.77	1910.3957	4431.2	3551.4
923.909	1912.0237	4406.6	3527.95
924.0479	1913.651	4419.95	3540.4
924.1868	1915.2776	4404.75	3527.65
924.3257	1916.9034	4378.85	3501.65
924.4646	1918.5285	4376.3	3498.5
924.6034	1920.1528	4365.25	3487.05
924.7422	1921.7764	4371.45	3494.3
924.881	1923.3992	4341.05	3464.45
925.0198	1925.0213	4312.15	3435.55
925.1586	1926.6427	4298.6	3421.3
925.2973	1928.2633	4473.1	3377.1
925.436	1929.8832	4310.25	3427.55
925.5747	1931.5023	4270.2	3391
925.7134	1933.1207	4268.35	3389.7
925.852	1934.7383	4253.6	3373.2
925.9906	1936.3552	4241.85	3365.1
926.1292	1937.9714	4241.35	3363.15
926.2678	1939.5868	4242.4	3363.05
926.4064	1941.2015	4218.3	3340.45
926.5449	1942.8154	4200	3320.55
926.6834	1944.4286	4201.7	3322.85
926.8219	1946.041	4207.4	3306.75
926.9604	1947.6528	4155.1	3272.15
927.0988	1949.2637	4161.65	3283.85
927.2372	1950.8739	4153.75	3272.4
927.3756	1952.4834	4133.8	3255.35
927.514	1954.0921	4152.1	3272.05
927.6523	1955.7001	4125.95	3245.35
927.7907	1957.3074	4118.3	3242.95
927.929	1958.9139	4097.05	3220.05
928.0673	1960.5197	4110.2	3232.05
928.2055	1962.1247	4091.15	3213.25
928.3438	1963.729	4073.45	3196.5
928.482	1965.3325	4072	3169.75
928.6202	1966.9353	4053.95	3176.35
928.7584	1968.5374	4057.05	3178.5
928.8965	1970.1387	4051.6	3174.25
929.0346	1971.7393	4016.85	3137.15
929.1727	1973.3392	4030.7	3154.45
929.3108	1974.9383	4012	3134.85
929.4489	1976.5366	3993.25	3116.55
929.5869	1978.1342	3987.8	3108.5
929.7249	1979.7311	3992	3113.7
929.8629	1981.3273	3979.6	3102.1
930.0009	1982.9227	3972.6	3093.75
930.1388	1984.5173	3966.6	3091.25
930.2767	1986.1112	3958.9	3084.85
930.4146	1987.7044	3950	3072.35
930.5525	1989.2968	3948.8	3070.6
930.6904	1990.8885	3928.5	3048.15
930.8282	1992.4795	3933.3	3054.35
930.966	1994.0697	3906.35	3030.05
931.1038	1995.6592	3911.55	3032.85
931.2415	1997.2479	3891.75	3015.15
931.3793	1998.8359	3886.45	3009.4
931.517	2000.4232	3885.7	3009.3
931.6547	2002.0097	3870.25	2996.9
931.7923	2003.5955	3864.3	2986.75
931.93	2005.1805	3851.3	2975.2
932.0676	2006.7648	3836.35	2960.7
932.2052	2008.3484	3840.45	2962.95
932.3427	2009.9312	3836.8	2959.85
932.4803	2011.5133	3833.25	2956.8
932.6178	2013.0946	3826.65	2950.05
932.7553	2014.6752	3816.65	2940.85
932.8928	2016.2551	3808.9	2930.95
933.0302	2017.8342	3814.4	2939.55
933.1676	2019.4126	3796.15	2922.5
933.305	2020.9902	3766.75	2893.35
933.4424	2022.5672	3774	2896.4
933.5798	2024.1433	3789.8	2906.55
933.7171	2025.7188	3761.6	2887.4
933.8544	2027.2935	3767.35	2890.1
933.9917	2028.8674	3738.1	2862.85
934.129	2030.4406	3741.7	2867.9
934.2662	2032.0131	3727.15	2852.5
934.4034	2033.5849	3728.05	2848.1
934.5406	2035.1559	3722.65	2845.9
934.6778	2036.7261	3725	2848.4
934.8149	2038.2957	3716.8	2841.95
934.952	2039.8645	3723.85	2848.65
935.0891	2041.4325	3717.35	2838.2
935.2262	2042.9998	3693.25	2818.2
935.3632	2044.5664	3687.25	2809.45
935.5002	2046.1323	3688.35	2811.8
935.6372	2047.6974	3671.95	2795.5
935.7742	2049.2617	3669.85	2794.4
935.9111	2050.8254	3670.7	2788.25
936.048	2052.3883	3666.05	2789.15
936.1849	2053.9504	3658.3	2780.8
936.3218	2055.5118	3662.25	2784.05
936.4586	2057.0725	3644.65	2760.5
936.5955	2058.6325	3642.45	2763
936.7323	2060.1917	3639.85	2758.6
936.869	2061.7502	3638.5	2757.4
937.0058	2063.3079	3620.15	2740.5
937.1425	2064.8649	3615.9	2733.95
937.2792	2066.4212	3625.55	2746.6
937.4159	2067.9767	3609.05	2731.75
937.5525	2069.5315	3593.75	2718.55
937.6891	2071.0856	3586.8	2709.6
937.8257	2072.6389	3591.9	2715.4
937.9623	2074.1915	3568.6	2695.25
938.0989	2075.7433	3557.45	2679.35
938.2354	2077.2945	3561.8	2687.1
938.3719	2078.8448	3556.9	2681.35
938.5084	2080.3945	3547.05	2668.9
938.6448	2081.9434	3546.85	2670.25
938.7812	2083.4916	3530.05	2652.35
938.9176	2085.039	3524.5	2646.55
939.054	2086.5857	3518.85	2638.2
939.1903	2088.1317	3518.65	2640.35
939.3267	2089.677	3530.4	2651.65
939.463	2091.2215	3519.25	2641.55
939.5992	2092.7652	3505.2	2624.8
939.7355	2094.3083	3514.5	2634.9
939.8717	2095.8506	3506.25	2628.35
940.0079	2097.3921	3521.65	2646.1
940.1441	2098.933	3492.95	2612.55
940.2802	2100.4731	3482.9	2604.65
940.4163	2102.0124	3500.85	2607.45
940.5524	2103.5511	3490.5	2613.5
940.6885	2105.089	3487.15	2611.9
940.8245	2106.6261	3475.1	2597.25
940.9606	2108.1626	3458.85	2581.75
941.0965	2109.6983	3489.95	2584.15
941.2325	2111.2332	3457.85	2581.05
941.3684	2112.7675	3455.35	2577.4
941.5044	2114.301	3453.25	2574.15
941.6403	2115.8337	3448.95	2572
941.7761	2117.3657	3445.7	2569.55
941.912	2118.897	3443.7	2565.4
942.0478	2120.4276	3420.4	2539.6
942.1835	2121.9575	3427.7	2551.1
942.3193	2123.4866	3426.3	2546.35
942.455	2125.0149	3414.9	2535.4
942.5907	2126.5426	3405.4	2529.3
942.7264	2128.0695	3403.05	2522.65
942.8621	2129.5956	3397	2520.8
942.9977	2131.1211	3396.1	2515.1
943.1333	2132.6458	3379.65	2504.5
943.2689	2134.1698	3376.9	2500.55
943.4044	2135.693	3386.65	2506.65
943.54	2137.2155	3374.4	2494.85
943.6755	2138.7373	3372.2	2495.05
943.8109	2140.2584	3359.85	2484
943.9464	2141.7787	3361.6	2480
944.0818	2143.2983	3348.8	2474
944.2172	2144.8171	3327.6	2452.2
944.3526	2146.3353	3334.4	2455.95
944.4879	2147.8527	3326.5	2451.8
944.6232	2149.3693	3329	2453.3
944.7585	2150.8853	3306.1	2429.15
944.8938	2152.4005	3306.1	2430.65
945.029	2153.9149	3288.9	2411.8
945.1642	2155.4287	3301.15	2426.25
945.2994	2156.9417	3287.55	2410.4
945.4346	2158.454	3283.35	2402.3
945.5697	2159.9655	3276.4	2400.9
945.7048	2161.4764	3279.55	2402.85
945.8399	2162.9865	3272.35	2394.8
945.9749	2164.4958	3271	2393.7
946.1099	2166.0045	3265.4	2386.75
946.2449	2167.5124	3257.35	2381.1
946.3799	2169.0195	3250.75	2373
946.5148	2170.526	3240.15	2365.05
946.6498	2172.0317	3235.3	2359.75
946.7846	2173.5367	3236	2359.6
946.9195	2175.0409	3214.65	2337.95
947.0543	2176.5445	3217.95	2343.25
947.1891	2178.0473	3209.5	2334.85
947.3239	2179.5494	3216.35	2335.45
947.4587	2181.0507	3194.2	2318.6
947.5934	2182.5513	3185.1	2310.55
947.7281	2184.0512	3177.85	2301.05
947.8628	2185.5504	3176.55	2299.05
947.9974	2187.0488	3165.45	2288.6
948.132	2188.5465	3157.15	2279.65
948.2666	2190.0435	3156.55	2277.45
948.4012	2191.5397	3146	2269.75
948.5357	2193.0353	3143.95	2268.75
948.6702	2194.5301	3134.65	2255.55
948.8047	2196.0241	3115.8	2237.45
948.9392	2197.5175	3118.7	2241.6
949.0736	2199.0101	3115.8	2234.9
949.208	2200.502	3111.5	2235.45
949.3424	2201.9931	3102.45	2225.95
949.4767	2203.4835	3095.7	2217.75
949.611	2204.9733	3089.25	2207.95
949.7453	2206.4622	3083.65	2208.9
949.8796	2207.9505	3078.65	2199.35
950.0138	2209.438	3056.4	2181.4
950.148	2210.9248	3061.3	2183.7
950.2822	2212.4109	3049.9	2175.8
950.4164	2213.8962	3033.7	2153.75
950.5505	2215.3809	3040.3	2161.85
950.6846	2216.8648	3032.5	2155.95
950.8186	2218.3479	3031	2147.15
950.9527	2219.8304	3024.35	2145.3
951.0867	2221.3121	3007.8	2128.15
951.2207	2222.7931	3014.5	2139.05
951.3546	2224.2733	2999.1	2121.3
951.4886	2225.7529	2979	2102.2
951.6225	2227.2317	2971.1	2092.1
951.7563	2228.7098	2971	2095.05
951.8902	2230.1872	2964.45	2088.05
952.024	2231.6638	2965.65	2089.5
952.1578	2233.1397	2962.2	2080.85
952.2916	2234.6149	2939.15	2064.45
952.4253	2236.0894	2956.15	2079.15
952.559	2237.5632	2966.8	2081.55
952.6927	2239.0362	2938.65	2062.25
952.8263	2240.5085	2927.15	2050.6
952.9599	2241.9801	2918.4	2040.8
953.0935	2243.4509	2917.9	2042.15
953.2271	2244.921	2897.9	2022.3
953.3606	2246.3904	2891.65	2012.3
953.4941	2247.8591	2901	2025.05
953.6276	2249.3271	2901.95	2024.75
953.7611	2250.7943	2879.5	2001.8
953.8945	2252.2608	2874.35	1998.1
954.0279	2253.7266	2866.2	1988.2
954.1612	2255.1917	2860.5	1983.95
954.2946	2256.656	2854.9	1976.9
954.4279	2258.1197	2840.35	1964.65
954.5612	2259.5826	2842.4	1964.85
954.6944	2261.0447	2847.45	1970
954.8276	2262.5062	2837.85	1957.3
954.9608	2263.9669	2831.3	1952.65
955.094	2265.4269	2824.5	1948.25
955.2271	2266.8862	2818.35	1942.35
955.3602	2268.3448	2804.6	1928.7
955.4933	2269.8026	2808.15	1929.95
955.6264	2271.2598	2794	1917.85
955.7594	2272.7162	2797.45	1922.1
955.8924	2274.1719	2779.45	1900.9
956.0253	2275.6268	2799.65	1924.1
956.1583	2277.0811	2783.65	1905.8
956.2912	2278.5346	2781.4	1908.15
956.4241	2279.9874	2783.7	1908.55
956.5569	2281.4395	2777	1899.95
956.6897	2282.8908	2766.8	1885.65
956.8225	2284.3414	2763.65	1887.05
956.9553	2285.7914	2763.75	1887.9
957.088	2287.2406	2745.4	1868.85
957.2207	2288.689	2750.3	1873.75
957.3534	2290.1368	2743.35	1865.7
957.486	2291.5838	2743.9	1863.9
957.6186	2293.0302	2737.4	1860.35
957.7512	2294.4758	2723.7	1848.25
957.8838	2295.9206	2705.05	1825.1
958.0163	2297.3648	2715.9	1839.05
958.1488	2298.8082	2703.6	1826.5
958.2813	2300.251	2702.4	1825.75
958.4137	2301.693	2698.25	1818.5
958.5461	2303.1343	2675.05	1796.25
958.6785	2304.5748	2676.5	1800.25
958.8108	2306.0147	2665.3	1789.6
958.9432	2307.4538	2657.2	1779.9
959.0754	2308.8922	2663.35	1787.55
959.2077	2310.3299	2653.9	1777.15
959.3399	2311.7669	2653.4	1777.95
959.4721	2313.2031	2646.95	1771.35
959.6043	2314.6387	2641.25	1763.85
959.7365	2316.0735	2630.8	1753.55
959.8686	2317.5076	2633.6	1756.05
960.0006	2318.941	2639.5	1762.15
960.1327	2320.3737	2625.8	1747.35
960.2647	2321.8056	2619.25	1739.4
960.3967	2323.2369	2608.05	1730.5
960.5287	2324.6674	2605.95	1728.85
960.6606	2326.0972	2605.55	1726.85
960.7925	2327.5263	2609.2	1733.05
960.9244	2328.9547	2591.85	1714.95
961.0562	2330.3823	2590.3	1711.25
961.1881	2331.8092	2582.95	1702.1
961.3198	2333.2355	2571.7	1694.55
961.4516	2334.661	2577.75	1699.05
961.5833	2336.0858	2564.6	1686.05
961.715	2337.5098	2553.05	1675.9
961.8467	2338.9332	2555.85	1678.55
961.9783	2340.3558	2548.2	1669.4
962.1099	2341.7778	2532.35	1655.1
962.2415	2343.199	2539.75	1660.45
962.373	2344.6195	2530.45	1654.95
962.5045	2346.0393	2519.6	1643.5
962.636	2347.4583	2518.85	1641.3
962.7675	2348.8767	2516.05	1637
962.8989	2350.2943	2516.4	1638.6
963.0303	2351.7113	2517.35	1639.8
963.1617	2353.1275	2502.5	1622.25
963.293	2354.543	2504.15	1619.8
963.4243	2355.9578	2490.95	1615.25
963.5556	2357.3718	2473.6	1597.25
963.6868	2358.7852	2473.05	1592.85
963.818	2360.1978	2466.6	1586.85
963.9492	2361.6098	2465.6	1588
964.0803	2363.021	2463.55	1583.85
964.2114	2364.4315	2459.45	1580.55
964.3425	2365.8413	2456.85	1574.9
964.4736	2367.2504	2446.2	1568.3
964.6046	2368.6587	2445.75	1570.1
964.7356	2370.0664	2428.8	1552.15
964.8666	2371.4733	2421.3	1545.7
964.9975	2372.8795	2413.4	1537.9
965.1284	2374.285	2413	1534.55
965.2593	2375.6899	2405	1529.1
965.3901	2377.0939	2398.2	1519.95
965.5209	2378.4973	2387.85	1510.5
965.6517	2379.9	2384.7	1505.05
965.7825	2381.3019	2373.25	1495.7
965.9132	2382.7032	2373.55	1497.15
966.0439	2384.1037	2369.35	1494.1
966.1745	2385.5035	2374.55	1496.6
966.3051	2386.9027	2354.6	1477.7
966.4357	2388.3011	2354.95	1473.95
966.5663	2389.6987	2353.45	1474.5
966.6968	2391.0957	2341.1	1463.05
966.8273	2392.492	2328.25	1451.7
966.9578	2393.8876	2330.2	1454.15
967.0882	2395.2824	2319.1	1441.1
967.2186	2396.6765	2327.8	1452
967.349	2398.07	2310.2	1433.55
967.4793	2399.4627	2307.35	1427.9
967.6097	2400.8547	2294.45	1415.2
967.7399	2402.246	2296.5	1412.75
967.8702	2403.6366	2289.4	1410.65
968.0004	2405.0265	2283.85	1406.9
968.1306	2406.4156	2281.6	1400.65
968.2607	2407.8041	2270.9	1391.65
968.3909	2409.1918	2263.7	1383.55
968.521	2410.5789	2255.2	1378.15
968.651	2411.9652	2252.95	1373.1
968.781	2413.3508	2248.05	1369.4
968.911	2414.7358	2242.4	1364.65
969.041	2416.12	2237.85	1358.9
969.1709	2417.5035	2241.3	1361.95
969.3008	2418.8863	2237.75	1360.45
969.4307	2420.2684	2223.6	1344.4
969.5606	2421.6497	2222.15	1345.2
969.6904	2423.0304	2209.25	1332.6
969.8201	2424.4104	2197.85	1318.6
969.9499	2425.7896	2201.05	1321.85
970.0796	2427.1682	2203.4	1325.9
970.2093	2428.546	2193.35	1313.65
970.3389	2429.9232	2183.15	1303.55
970.4685	2431.2996	2177.7	1300
970.5981	2432.6753	2173.7	1296.95
970.7277	2434.0503	2177.9	1301.2
970.8572	2435.4246	2171.05	1294.4
970.9867	2436.7982	2166.75	1287.45
971.1161	2438.1711	2163.65	1285.3
971.2456	2439.5433	2147.65	1265.8
971.375	2440.9148	2157.1	1274.85
971.5043	2442.2856	2144.55	1267.15
971.6336	2443.6557	2137.55	1256.95
971.7629	2445.025	2131.6	1255.4
971.8922	2446.3937	2136.4	1259.9
972.0214	2447.7617	2126	1247.2
972.1506	2449.1289	2121.95	1244.15
972.2798	2450.4955	2124.2	1241.25
972.4089	2451.8613	2112.9	1235.9
972.538	2453.2265	2118.35	1240.6
972.6671	2454.5909	2111.45	1234.4
972.7961	2455.9546	2113.75	1237.75
972.9251	2457.3177	2111.85	1236
973.0541	2458.68	2102.6	1223.25
973.1831	2460.0416	2101.65	1224.1
973.312	2461.4025	2105.4	1225.35
973.4408	2462.7627	2112.4	1225.3
973.5697	2464.1222	2090.8	1216.7
973.6985	2465.4811	2084.5	1207.15
973.8273	2466.8392	2070.6	1191.6
973.956	2468.1966	2086.8	1204.65
974.0847	2469.5533	2087	1204.15
974.2134	2470.9093	2074.2	1196.55
974.3421	2472.2645	2072.65	1192.4
974.4707	2473.6191	2057.5	1179.95
974.5993	2474.973	2049.85	1171.3
974.7278	2476.3262	2040.1	1159.3
974.8563	2477.6787	2052.05	1175.85
974.9848	2479.0305	2038.3	1162.95
975.1132	2480.3816	2039.55	1159.35
975.2417	2481.7319	2036.05	1160.35
975.37	2483.0816	2023.55	1144.6
975.4984	2484.4306	2025.9	1148
975.6267	2485.7789	2022.05	1147
975.755	2487.1264	2020.85	1141.95
975.8833	2488.4733	2003.2	1127.9
976.0115	2489.8195	2010.95	1126.85
976.1397	2491.165	2001.15	1122.35
976.2678	2492.5097	2003.95	1125.75
976.3959	2493.8538	1986.5	1110.05
976.524	2495.1972	1992.3	1114.9
976.6521	2496.5398	1982.4	1103.8
976.7801	2497.8818	1977.95	1095.4
976.9081	2499.2231	1976.9	1101.6
977.036	2500.5637	1970.05	1089.55
977.164	2501.9035	1975.25	1098.85
977.2918	2503.2427	1970.7	1089.55
977.4197	2504.5812	1961.1	1084.65
977.5475	2505.919	1949.35	1069
977.6753	2507.256	1950.85	1072.4
977.8031	2508.5924	1958.2	1079.6
977.9308	2509.9281	1954.25	1069.3
978.0585	2511.2631	1939.2	1061.25
978.1861	2512.5974	1935.65	1061.7
978.3137	2513.9309	1929.25	1051.4
978.4413	2515.2638	1956.6	1051.35
978.5689	2516.596	1930.6	1054.7
978.6964	2517.9275	1928.4	1049.1
978.8239	2519.2583	1918.05	1039.55
978.9513	2520.5884	1922	1041.8
979.0788	2521.9178	1915.6	1037.95
979.2062	2523.2465	1904.9	1028.6
979.3335	2524.5745	1887.4	1010.3
979.4608	2525.9018	1899.95	1022.6
979.5881	2527.2284	1889.2	1012.45
979.7154	2528.5543	1884.7	1008.75
979.8426	2529.8796	1886.2	1008.15
979.9698	2531.2041	1882.55	1004.95
980.0969	2532.5279	1884.7	1008.8
980.224	2533.851	1875.55	997.5
980.3511	2535.1735	1877.7	999.65
980.4781	2536.4952	1868.5	992.4
980.6052	2537.8163	1870.4	990.45
980.7321	2539.1366	1867	991.15
980.8591	2540.4562	1868.15	990.75
980.986	2541.7752	1861.2	984.05
981.1129	2543.0935	1855.15	976.45
981.2397	2544.411	1860.9	982.7
981.3665	2545.7279	1855.65	978.35
981.4933	2547.0441	1852.1	976.85
981.62	2548.3596	1849.45	970
981.7467	2549.6744	1847.45	969.55
981.8734	2550.9885	1840.9	954.95
982.0001	2552.3019	1841.35	962.7
982.1267	2553.6146	1838.7	960.65
982.2532	2554.9266	1828.35	949.35
982.3798	2556.2379	1821.05	939.5
982.5063	2557.5485	1816	938.55
982.6327	2558.8585	1831.3	947.55
982.7592	2560.1677	1831.85	951.75
982.8856	2561.4762	1826.75	949.6
983.0119	2562.7841	1810.05	931.1
983.1383	2564.0913	1818.05	940.95
983.2646	2565.3977	1815.3	937.95
983.3908	2566.7035	1806.55	929.05
983.517	2568.0086	1810.85	931.7
983.6432	2569.313	1804.3	925.55
983.7694	2570.6167	1803.25	922.7
983.8955	2571.9197	1793.85	918.8
984.0216	2573.222	1798.95	919.8
984.1476	2574.5236	1793.45	917.3
984.2737	2575.8246	1792.5	912.5
984.3996	2577.1248	1791.1	909.55
984.5256	2578.4244	1783.6	906.35
984.6515	2579.7232	1776.55	899.35
984.7774	2581.0214	1818.15	911.25
984.9032	2582.3189	1778.85	902.65
985.029	2583.6157	1770.4	888.7
985.1548	2584.9118	1778.35	900.65
985.2806	2586.2072	1767.75	890
985.4063	2587.5019	1753.35	877.1
985.5319	2588.7959	1754.85	877.2
985.6576	2590.0893	1771	893.5
985.7832	2591.3819	1750.1	873.15
985.9087	2592.6739	1754.85	880.2
986.0343	2593.9652	1748.5	868.35
986.1597	2595.2557	1743.4	865.9
986.2852	2596.5456	1748.25	867.4
986.4106	2597.8348	1741	864.95
986.536	2599.1234	1739.6	862.5
986.6614	2600.4112	1736.8	858.65
986.7867	2601.6983	1730.85	848.95
986.912	2602.9848	1726.95	850.2
987.0372	2604.2705	1736.35	853
987.1624	2605.5556	1718.05	840.1
987.2876	2606.84	1714.9	836.4
987.4128	2608.1237	1720.5	841.6
987.5379	2609.4067	1709.65	831.25
987.6629	2610.689	1703.6	818.65
987.788	2611.9707	1711.15	832.65
987.913	2613.2516	1702.05	819.5
988.0379	2614.5319	1698.95	822.8
988.1629	2615.8115	1683.4	806.35
988.2878	2617.0903	1681.15	803.4
988.4126	2618.3685	1680.5	803.35
988.5375	2619.6461	1675.9	798.45
988.6622	2620.9229	1679.05	801.45
988.787	2622.199	1671.45	792.9
988.9117	2623.4745	1671.6	794.55
989.0364	2624.7493	1666.55	790.6
989.161	2626.0234	1656.85	781.25
989.2857	2627.2968	1655.65	777.75
989.4102	2628.5695	1656.05	777.1
989.5348	2629.8415	1650.95	774.05
989.6593	2631.1128	1651.8	772.85
989.7837	2632.3835	1640.3	762.35
989.9082	2633.6535	1643.4	765.9
990.0326	2634.9228	1637.65	761.05
990.1569	2636.1914	1626.25	749.9
990.2812	2637.4593	1644.85	760.35
990.4055	2638.7265	1635.75	758.2
990.5298	2639.9931	1624.85	747.3
990.654	2641.259	1621.55	743.6
990.7782	2642.5242	1624.1	747
990.9023	2643.7887	1622.8	745.75
991.0264	2645.0525	1612.4	736.1
991.1505	2646.3156	1616.6	740.35
991.2745	2647.5781	1606.95	730.1
991.3985	2648.8398	1607.45	731.2
991.5225	2650.1009	1608.4	721.6
991.6464	2651.3613	1599.7	722.2
991.7703	2652.6211	1592.55	713.75
991.8942	2653.8801	1598.05	720.95
992.018	2655.1385	1591.3	711.3
992.1418	2656.3961	1600.35	722.25
992.2655	2657.6531	1587.45	710.7
992.3892	2658.9094	1581.5	704.85
992.5129	2660.1651	1582.7	706.9
992.6366	2661.42	1580.1	702.95
992.7602	2662.6743	1573.4	694.2
992.8837	2663.9279	1580.45	703.15
993.0073	2665.1808	1575.9	697.75
993.1307	2666.433	1566.55	686.75
993.2542	2667.6846	1568.05	690.9
993.3776	2668.9354	1572.6	693.2
993.501	2670.1856	1558.55	679.05
993.6244	2671.4351	1558.1	682.15
993.7477	2672.6839	1560.65	683.4
993.8709	2673.9321	1556.5	680.9
993.9942	2675.1795	1554.8	677.95
994.1174	2676.4263	1549.1	672.3
994.2405	2677.6724	1551.2	675.6
994.3637	2678.9179	1553.85	676.65
994.4868	2680.1626	1546.8	670.9
994.6098	2681.4067	1545.65	668.15
994.7328	2682.6501	1541.95	664.2
994.8558	2683.8928	1542.1	664.35
994.9788	2685.1348	1535.4	659.25
995.1017	2686.3761	1530.7	655
995.2245	2687.6168	1530	653.35
995.3474	2688.8568	1524.4	647.45
995.4702	2690.0961	1518.1	642.4
995.5929	2691.3348	1520.65	643.8
995.7156	2692.5727	1516.3	637.3
995.8383	2693.81	1512.75	635.2
995.961	2695.0466	1513	637.3
996.0836	2696.2826	1521.35	642.7
996.2062	2697.5178	1528.05	631.3
996.3287	2698.7524	1506.5	628.95
996.4512	2699.9863	1512.1	632.35
996.5737	2701.2195	1505.15	628.5
996.6961	2702.452	1508.35	628.4
996.8185	2703.6839	1501.15	623.1
996.9408	2704.9151	1490.95	614.75
997.0631	2706.1456	1495.4	619.1
997.1854	2707.3755	1494.9	617.7
997.3077	2708.6046	1487.95	611.5
997.4299	2709.8331	1484.05	604.45
997.552	2711.0609	1477.6	601.15
997.6742	2712.2881	1484.35	606.75
997.7963	2713.5145	1483.4	604.1
997.9183	2714.7403	1485.75	608.95
998.0403	2715.9654	1482	606.05
998.1623	2717.1899	1492.5	601.65
998.2842	2718.4136	1469.35	595.65
998.4062	2719.6367	1470.85	595.3
998.528	2720.8591	1471.4	587.15
998.6498	2722.0809	1464.2	587.2
998.7716	2723.3019	1471.75	590.5
998.8934	2724.5223	1466.55	589.75
999.0151	2725.7421	1461.6	583.55
999.1368	2726.9611	1460.6	581.3
999.2584	2728.1795	1458.2	576.8
999.38	2729.3972	1455.9	578.85
999.5016	2730.6142	1465.6	575.65
999.6231	2731.8306	1443.75	567.4
999.7446	2733.0462	1437.5	559.15
999.8661	2734.2612	1443.1	559.35
999.9875	2735.4756	1435.5	557.15
1000.1089	2736.6892	1423.95	546.6
1000.2302	2737.9022	1427.55	554.1
1000.3515	2739.1145	1422.4	545.8
1000.4728	2740.3262	1431.3	546.8
1000.594	2741.5372	1421.4	545.1
1000.7152	2742.7475	1418.2	540.55
1000.8363	2743.9571	1412.85	535.8
1000.9575	2745.1661	1417	535.15
1001.0785	2746.3744	1415.3	537.8
1001.1996	2747.582	1406.05	529.9
1001.3206	2748.7889	1411.6	533.9
1001.4415	2749.9952	1410.9	533.35
1001.5625	2751.2008	1399.85	522.8
1001.6833	2752.4057	1403.7	525.05
1001.8042	2753.61	1399.5	522.4
1001.925	2754.8136	1389.7	510.85
1002.0458	2756.0165	1391.05	514.1
1002.1665	2757.2188	1388.35	512.25
1002.2872	2758.4204	1384.3	506.7
1002.4078	2759.6213	1383.4	504.55
1002.5285	2760.8215	1386.7	504.45
1002.649	2762.0211	1383.85	505.5
1002.7696	2763.22	1382.5	503.55
1002.8901	2764.4182	1384.75	507.05
1003.0106	2765.6158	1377.5	501.45
1003.131	2766.8127	1371.45	493.95
1003.2514	2768.009	1370	494.6
1003.3717	2769.2045	1371.45	494.3
1003.492	2770.3994	1369.7	488.85
1003.6123	2771.5936	1366.65	486.9
1003.7325	2772.7872	1359.5	484.2
1003.8527	2773.9801	1362.05	485.1
1003.9729	2775.1723	1378.7	484.65
1004.093	2776.3639	1356.55	479.95
1004.2131	2777.5548	1354.85	474.85
1004.3331	2778.745	1356.4	479.4
1004.4531	2779.9346	1352.4	475.55
1004.5731	2781.1235	1345.6	469.4
1004.693	2782.3117	1341.5	465.2
1004.8129	2783.4992	1348.5	471.7
1004.9328	2784.6861	1344.25	466.4
1005.0526	2785.8723	1338.3	458.95
1005.1723	2787.0579	1347.85	470.2
1005.2921	2788.2428	1338.75	462.6
1005.4118	2789.427	1331.85	454.95
1005.5314	2790.6106	1336.35	458.6
1005.651	2791.7935	1323.05	444.85
1005.7706	2792.9757	1333.1	456.6
1005.8902	2794.1573	1327.1	446.95
1006.0097	2795.3382	1329.35	453.55
1006.1291	2796.5184	1316.15	440.7
1006.2485	2797.698	1324.15	444.85
1006.3679	2798.8769	1321.5	445.5
1006.4873	2800.0551	1315.4	438.25
1006.6066	2801.2327	1315.55	437.2
1006.7258	2802.4096	1312.65	437.8
1006.8451	2803.5859	1312.65	434.65
1006.9642	2804.7615	1308.8	430.75
1007.0834	2805.9364	1308.4	432.3
1007.2025	2807.1106	1305.9	430.5
1007.3216	2808.2842	1310.9	435.35
1007.4406	2809.4572	1302.1	424.2
1007.5596	2810.6294	1303.65	426.95
1007.6785	2811.801	1302.55	427.1
1007.7975	2812.972	1304	428.65
1007.9163	2814.1423	1298.6	420.15
1008.0352	2815.3119	1302.9	426.85
1008.154	2816.4808	1302.5	424.3
1008.2727	2817.6491	1318.6	442.65
1008.3914	2818.8167	1301.3	426.2
1008.5101	2819.9837	1311.65	430.5
1008.6288	2821.15	1302.95	425.1
1008.7474	2822.3157	1313.8	438.95
1008.8659	2823.4807	1313.05	437.2
1008.9844	2824.645	1322.1	443.15
1009.1029	2825.8086	1328.1	453.45
1009.2214	2826.9716	1327.4	450.8
1009.3398	2828.134	1335.5	460.05
1009.4581	2829.2957	1341.8	464.65
1009.5764	2830.4567	1346.4	470.9
1009.6947	2831.617	1345.65	467.15
1009.813	2832.7767	1344.15	468.9
1009.9312	2833.9358	1342.05	467.05
1010.0493	2835.0941	1343.75	467.15
1010.1675	2836.2519	1336.85	459.6
1010.2855	2837.4089	1330.7	452.35
1010.4036	2838.5653	1332.05	453.4
1010.5216	2839.7211	1331	457.2
1010.6396	2840.8761	1327.5	449.65
1010.7575	2842.0306	1312.6	437.8
1010.8754	2843.1843	1319.45	443.1
1010.9932	2844.3374	1316.8	439.95
1011.111	2845.4899	1317.95	442.3
1011.2288	2846.6417	1323.9	447.1
1011.3465	2847.7928	1318.05	441.55
1011.4642	2848.9433	1316.5	440.55
1011.5818	2850.0931	1317.9	443.4
1011.6995	2851.2422	1319.4	440.95
1011.817	2852.3907	1315.25	437.05
1011.9345	2853.5385	1319.8	441.8
1012.052	2854.6857	1329.4	442.4
1012.1695	2855.8323	1327.2	453.6
1012.2869	2856.9781	1322.05	445.7
1012.4042	2858.1233	1325.45	450.4
1012.5216	2859.2679	1325.35	447.7
1012.6389	2860.4118	1325.9	448.65
1012.7561	2861.555	1334.65	454.05
1012.8733	2862.6976	1333.6	457.1
1012.9905	2863.8395	1322.15	444.65
1013.1076	2864.9808	1327.15	451.55
1013.2247	2866.1214	1326.25	449.4
1013.3417	2867.2614	1325.8	448.2
1013.4587	2868.4007	1326.3	448.85
1013.5757	2869.5393	1327	448.95
1013.6926	2870.6773	1324	444.35
1013.8095	2871.8146	1333.75	453.5
1013.9263	2872.9513	1328.2	449.2
1014.0431	2874.0874	1320.85	446.25
1014.1599	2875.2227	1324.5	447.8
1014.2766	2876.3574	1320.6	445.55
1014.3933	2877.4915	1322.8	447.2
1014.51	2878.6249	1314.85	438.95
1014.6266	2879.7577	1318.45	440.95
1014.7431	2880.8898	1327.9	439.5
1014.8596	2882.0212	1327.15	451.65
1014.9761	2883.152	1322.65	447
1015.0925	2884.2821	1323.5	446.95
1015.2089	2885.4116	1323.7	448.4
1015.3253	2886.5405	1326.2	450.9
1015.4416	2887.6686	1328.3	451.15
1015.5579	2888.7962	1316.05	441.25
1015.6741	2889.923	1316.95	442.4
1015.7903	2891.0493	1312.8	438.9
1015.9065	2892.1748	1317.35	440.2
1016.0226	2893.2997	1307.85	430.1
1016.1387	2894.424	1314.7	440.95
1016.2547	2895.5476	1311.45	436.15
1016.3707	2896.6706	1306.05	433.35
1016.4866	2897.7929	1315.2	438.6
1016.6025	2898.9145	1308.6	432.8
1016.7184	2900.0355	1306.95	430.65
1016.8342	2901.1559	1307.15	430.65
1016.95	2902.2756	1304	428.35
1017.0658	2903.3946	1301.8	426.75
1017.1815	2904.513	1298.15	417.15
1017.2971	2905.6308	1296.4	422
1017.4127	2906.7479	1296.05	417.2
1017.5283	2907.8643	1297.7	421.8
1017.6439	2908.9801	1295.5	419.75
1017.7594	2910.0953	1294.25	421.05
1017.8748	2911.2098	1290.7	412.3
1017.9902	2912.3236	1295.6	411
1018.1056	2913.4368	1293.8	415.95
1018.2209	2914.5494	1285.05	407.6
1018.3362	2915.6613	1286.7	405.7
1018.4515	2916.7725	1290.65	411.1
1018.5667	2917.8831	1285.45	409
1018.6819	2918.9931	1280.75	402.1
1018.797	2920.1024	1273.65	395.4
1018.9121	2921.211	1265.2	390.15
1019.0271	2922.319	1262.6	386.8
1019.1421	2923.4264	1268.5	392.1
1019.2571	2924.5331	1263.15	388.1
1019.372	2925.6391	1263.85	388.35
1019.4869	2926.7445	1257.7	383.05
1019.6017	2927.8493	1252.35	376.9
1019.7165	2928.9534	1261.75	385.1
1019.8313	2930.0569	1260.75	380.15
1019.946	2931.1597	1258.55	379.6
1020.0606	2932.2619	1265.9	390.15
1020.1753	2933.3634	1255.85	378.45
1020.2899	2934.4643	1268.5	385.5
1020.4044	2935.5645	1274.55	391.4
1020.5189	2936.6641	1265.65	383.9
1020.6334	2937.763	1258.9	382.25
1020.7478	2938.8613	1260.7	385.3
1020.8622	2939.959	1256.65	376.1
1020.9765	2941.056	1244.95	368.75
1021.0908	2942.1523	1246.9	368.85
1021.2051	2943.248	1235.4	359.45
1021.3193	2944.3431	1228.15	353.45
1021.4334	2945.4375	1225.55	348.15
1021.5476	2946.5313	1220.85	346.5
1021.6617	2947.6244	1210.7	334.65
1021.7757	2948.7169	1203.35	326.55
1021.8897	2949.8087	1192.1	317.9
1022.0037	2950.8999	1193.6	317.15
1022.1176	2951.9904	1183.6	309
1022.2315	2953.0803	1185.8	308.25
1022.3453	2954.1696	1177.2	299.75
1022.4591	2955.2582	1172.25	295.85
1022.5728	2956.3462	1171.1	293.55
1022.6865	2957.4335	1171.35	293.25
1022.8002	2958.5202	1169.55	291.4
1022.9138	2959.6062	1163.45	286.5
1023.0274	2960.6916	1160.35	285.15
1023.141	2961.7764	1165.35	287.45
1023.2545	2962.8605	1161.3	285.55
1023.3679	2963.9439	1157.05	281.35
1023.4813	2965.0267	1162.35	284.35
1023.5947	2966.1089	1185.2	286.65
1023.708	2967.1905	1157.55	283.3
1023.8213	2968.2714	1153.4	277.55
1023.9346	2969.3516	1151	276.25
1024.0478	2970.4312	1159.4	273.85
1024.1609	2971.5102	1149.85	273.35
1024.274	2972.5885	1150.35	274.4
1024.3871	2973.6662	1154.45	273.25
1024.5002	2974.7432	1147.7	273.2
1024.6132	2975.8196	1142.85	268.95
1024.7261	2976.8954	1143.9	270.6
1024.839	2977.9705	1145.7	269.5
1024.9519	2979.045	1141.75	265.6
1025.0647	2980.1188	1144.4	269.9
1025.1775	2981.192	1138.7	262.15
1025.2902	2982.2645	1139.6	263.6
1025.4029	2983.3364	1137.55	263.05
1025.5156	2984.4077	1130.3	254.35
1025.6282	2985.4783	1135.35	254.3
1025.7407	2986.5483	1127.8	252.3
1025.8532	2987.6177	1128.05	253.55
1025.9657	2988.6864	1126.9	251.5
1026.0782	2989.7545	1123.6	246.55
1026.1906	2990.8219	1119.55	245.05
1026.3029	2991.8887	1119.65	240.9
1026.4152	2992.9548	1115.05	237.3
1026.5275	2994.0204	1109.8	234.55
1026.6397	2995.0852	1103.8	229.25
1026.7519	2996.1495	1105.9	228.6
1026.864	2997.2131	1104.65	229.7
1026.9761	2998.276	1100.55	224.95
1027.0882	2999.3383	1097.55	220.7
1027.2002	3000.4	1095.7	218.65
1027.3122	3001.4611	1098.55	224.2
1027.4241	3002.5215	1089.05	211
1027.536	3003.5812	1088.4	214
1027.6478	3004.6404	1086.2	209.85
1027.7596	3005.6989	1087.95	210.25
1027.8714	3006.7567	1089.05	213.6
1027.9831	3007.8139	1103.8	204.7
1028.0947	3008.8705	1082.6	206.25
1028.2064	3009.9264	1088.95	210.5
1028.3179	3010.9818	1076.6	201.05
1028.4295	3012.0364	1079.45	201.45
1028.541	3013.0905	1077.3	200.5
1028.6524	3014.1439	1074.6	198.9
1028.7638	3015.1966	1074.1	196.8
1028.8752	3016.2487	1072.65	197.3
1028.9865	3017.3002	1081.4	198.25
1029.0978	3018.3511	1069.2	194.3
1029.209	3019.4013	1065.85	188.95
1029.3202	3020.4509	1064.8	190.15
1029.4314	3021.4998	1068.7	192.4
1029.5425	3022.5481	1066.95	191.55
1029.6535	3023.5958	1068	193.45
1029.7645	3024.6428	1065.7	187.8
1029.8755	3025.6892	1062.35	187.55
1029.9864	3026.735	1063.9	186.45
1030.0973	3027.7802	1059.9	184.3
1030.2082	3028.8247	1065.8	189.6
1030.319	3029.8685	1057.9	182.55
1030.4297	3030.9118	1063.7	186.25
1030.5404	3031.9544	1057.65	181
1030.6511	3032.9963	1057.35	181.15
1030.7617	3034.0376	1063.25	188.35
1030.8723	3035.0783	1057.85	181.1
1030.9829	3036.1184	1058.65	182.5
1031.0934	3037.1578	1056.5	181.45
1031.2038	3038.1966	1056.1	180.45
1031.3142	3039.2348	1051.85	176.75
1031.4246	3040.2723	1064.1	178.9
1031.5349	3041.3092	1053.3	179.7
1031.6452	3042.3455	1053.6	177.9
1031.7554	3043.3811	1050.8	174.1
1031.8656	3044.4161	1052.45	177.6
1031.9758	3045.4505	1048.45	174.35
1032.0859	3046.4842	1047.7	171.25
1032.1959	3047.5173	1049.15	174.85
1032.3059	3048.5498	1045.35	170.45
1032.4159	3049.5816	1047.35	171.7
1032.5258	3050.6128	1050.55	174.75
1032.6357	3051.6434	1048.65	172.45
1032.7455	3052.6734	1044.35	166.2
1032.8553	3053.7027	1050.35	173.35
1032.9651	3054.7314	1047.15	171.1
1033.0748	3055.7594	1046	168.9
1033.1845	3056.7868	1046.05	170.5
1033.2941	3057.8136	1042.05	166.6
1033.4037	3058.8398	1041.9	167.65
1033.5132	3059.8653	1042.85	166.85
1033.6227	3060.8902	1047.3	171.6
1033.7321	3061.9145	1044.55	168.35
1033.8415	3062.9381	1041.25	163.95
1033.9509	3063.9612	1052.4	160.85
1034.0602	3064.9835	1040.15	165.4
1034.1694	3066.0053	1044.5	165.85
1034.2787	3067.0264	1041.05	165.5
1034.3878	3068.0469	1037.45	161.15
1034.497	3069.0668	1042.45	163.45
1034.6061	3070.086	1037.6	161.95
1034.7151	3071.1046	1039.05	163.3
1034.8241	3072.1226	1039.65	162.7
1034.9331	3073.1399	1032.2	156.9
1035.042	3074.1567	1031	156.1
1035.1508	3075.1727	1033.15	156.05
1035.2597	3076.1882	1034.1	160.5
1035.3684	3077.203	1035.85	160.1
1035.4772	3078.2173	1027.75	149.7
1035.5859	3079.2308	1031.65	152.75
1035.6945	3080.2438	1031.95	153.75
1035.8031	3081.2561	1024.9	149.25
1035.9117	3082.2678	1021.6	145.75
1036.0202	3083.2789	1023.35	148.5
1036.1286	3084.2893	1021.9	148.25
1036.2371	3085.2991	1022.75	148.9
1036.3454	3086.3083	1026.25	145.6
1036.4538	3087.3169	1025.95	148.9
1036.562	3088.3248	1022.2	146.2
1036.6703	3089.3321	1019.75	142.15
1036.7785	3090.3388	1022	147.2
1036.8866	3091.3449	1015.75	140.3
1036.9948	3092.3503	1018.3	139.85
1037.1028	3093.3551	1012.35	137.8
1037.2108	3094.3593	1016.85	142.7
1037.3188	3095.3629	1015.8	141.15
1037.4267	3096.3658	1020	142.1
1037.5346	3097.3681	1014.95	139.85
1037.6425	3098.3698	1016.7	139.95
1037.7503	3099.3708	1016.8	138.1
1037.858	3100.3713	1014.75	140.5
1037.9657	3101.3711	1013.3	137
1038.0734	3102.3702	1147.75	136.35
1038.181	3103.3688	1012.65	136.55
1038.2886	3104.3667	1015.2	140.3
1038.3961	3105.364	1006.55	133.15
1038.5036	3106.3607	1009.55	131.25
1038.611	3107.3568	1005.8	128.3
1038.7184	3108.3522	1004.3	128.1
1038.8257	3109.347	1007.35	130.6
1038.933	3110.3412	1006.25	125.85
1039.0403	3111.3348	1003.3	128.85
1039.1475	3112.3277	1002.35	126.1
1039.2547	3113.32	1000.4	126.05
1039.3618	3114.3117	997	120.7
1039.4689	3115.3028	998.85	125
1039.5759	3116.2932	1003.1	125.85
1039.6829	3117.2831	1004.75	124.05
1039.7898	3118.2723	999.65	127.35
1039.8967	3119.2608	994.4	118.1
1040.0035	3120.2488	995	119.6
1040.1103	3121.2361	991.55	115.5
1040.2171	3122.2229	991.95	116.35
1040.3238	3123.209	993	115.9
1040.4305	3124.1944	992.4	115.8
1040.5371	3125.1793	996.45	119.85
1040.6437	3126.1635	989.95	116.9
1040.7502	3127.1471	991.35	117.35
1040.8567	3128.1301	988.35	111.45
1040.9631	3129.1125	986.1	111.4
1041.0695	3130.0942	988	109.85
1041.1759	3131.0753	995.05	110.15
1041.2822	3132.0558	993.1	118.2
1041.3884	3133.0357	988.9	113.65
1041.4946	3134.015	985.65	107.95
1041.6008	3134.9936	986.8	108.7
1041.7069	3135.9716	1004	107.7
1041.813	3136.949	986	110.2
1041.919	3137.9258	989.35	107.75
1042.025	3138.902	992.4	109.95
1042.1309	3139.8775	984	110.75
1042.2368	3140.8524	982.4	106.85
1042.3427	3141.8267	986.95	111.05
1042.4485	3142.8004	980.5	106.15
1042.5542	3143.7735	989.4	106.1
1042.6599	3144.7459	982.85	105.6
1042.7656	3145.7178	979.3	103.5
1042.8712	3146.689	981.6	107
1042.9768	3147.6596	986.05	109.15
1043.0823	3148.6295	982.5	107.15
1043.1878	3149.5989	978.15	101.45
1043.2932	3150.5676	977.7	102.2
1043.3986	3151.5357	976.55	102.45
1043.5039	3152.5032	979.4	105.1
1043.6092	3153.4701	978	101.5
1043.7145	3154.4364	975.35	98.7
1043.8197	3155.402	977	103.2
1043.9248	3156.367	978.25	101.1
1044.03	3157.3315	1015.9	99.5
1044.135	3158.2952	973	96.85
1044.24	3159.2584	973.7	96.8
1044.345	3160.221	972.2	95.75
1044.4499	3161.1829	974	96.9
1044.5548	3162.1442	974.2	97.65
1044.6596	3163.105	974	99.15
1044.7644	3164.065	971.1	96.05
1044.8692	3165.0245	975.6	97.15
1044.9739	3165.9834	971.9	98.45
1045.0785	3166.9416	968.9	94.1
1045.1831	3167.8993	967.4	91.35
1045.2877	3168.8563	966.6	89.25
1045.3922	3169.8127	967.3	92.25
1045.4966	3170.7684	966.55	91.45
1045.6011	3171.7236	967.3	91.4
1045.7054	3172.6782	965.4	89.75
1045.8098	3173.6321	968.25	90.2
1045.914	3174.5854	969.15	90.5
1046.0183	3175.5381	963.1	88.2
1046.1224	3176.4902	965	88.1
1046.2266	3177.4417	963.75	88
1046.3307	3178.3926	964.2	87.55
1046.4347	3179.3428	964.85	90.7
1046.5387	3180.2924	963.15	88.95
1046.6427	3181.2415	962.3	87.65
1046.7466	3182.1899	966.3	89.5
1046.8504	3183.1377	960.55	85.25
1046.9542	3184.0848	964.1	84.05
1047.058	3185.0314	957.3	81.05
1047.1617	3185.9773	960.8	85.25
1047.2654	3186.9227	959.95	84.45
1047.369	3187.8674	959.45	83.95
1047.4726	3188.8115	960.2	82.6
1047.5761	3189.755	955	81.05
1047.6796	3190.6979	957.4	82.3
1047.783	3191.6402	956.2	81.95
1047.8864	3192.5818	956.25	80.7
1047.9898	3193.5229	963.3	80.5
1048.0931	3194.4633	955.4	82
1048.1963	3195.4031	958.25	82.7
1048.2995	3196.3423	955.35	80
1048.4027	3197.2809	953.05	76.8
1048.5058	3198.2189	953.95	77.55
1048.6089	3199.1563	962.25	80.35
1048.7119	3200.0931	950	77.05
1048.8148	3201.0292	949.05	74.3
1048.9178	3201.9648	956.3	81.6
1049.0206	3202.8997	953.35	74.6
1049.1235	3203.834	952.95	77.5
1049.2262	3204.7677	950.4	74.95
1049.329	3205.7008	951.85	74.45
1049.4317	3206.6333	953.95	79.55
1049.5343	3207.5652	954.65	76.3
1049.6369	3208.4964	950.5	74.6
1049.7394	3209.4271	949.65	76.55
1049.8419	3210.3571	946.05	71.05
1049.9444	3211.2865	947	71.6
1050.0468	3212.2154	950.3	73.45
1050.1491	3213.1436	950.85	73.15
1050.2514	3214.0712	953.8	71.25
1050.3537	3214.9982	947.6	73.1
1050.4559	3215.9246	948.5	72
1050.5581	3216.8503	946.25	72
1050.6602	3217.7755	943.4	67.95
1050.7623	3218.7001	943.8	68.2
1050.8643	3219.624	945.75	69.95
1050.9663	3220.5473	946.1	70.75
1051.0682	3221.4701	948.4	71.25
1051.1701	3222.3922	943.85	67.65
1051.2719	3223.3137	944.85	68.9
1051.3737	3224.2346	943.55	68.4
1051.4754	3225.1549	942.2	68.2
1051.5771	3226.0746	941.45	66.2
1051.6788	3226.9937	944.8	69.1
1051.7804	3227.9121	941.35	65.85
1051.8819	3228.83	943.05	68.5
1051.9834	3229.7473	943.45	68.3
1052.0849	3230.6639	943.3	67.75
1052.1863	3231.5799	943.15	67.65
1052.2876	3232.4954	940.1	63.8
1052.3889	3233.4102	939.35	64.9
1052.4902	3234.3244	940.55	65.35
1052.5914	3235.238	937.55	62.75
1052.6926	3236.151	960.9	62.35
1052.7937	3237.0634	935.15	61.7
1052.8948	3237.9752	936.7	61.7
1052.9958	3238.8864	937.45	61.25
1053.0968	3239.797	936.85	61.15
1053.1977	3240.7069	934.8	59.5
1053.2986	3241.6163	938.8	60.8
1053.3994	3242.5251	935.15	62.2
1053.5002	3243.4332	936.6	61.15
1053.6009	3244.3408	934.95	58.7
1053.7016	3245.2477	933.8	58.85
1053.8022	3246.154	935.6	60.65
1053.9028	3247.0598	934.55	59
1054.0034	3247.9649	935.55	60.7
1054.1039	3248.8694	935.05	60.55
1054.2043	3249.7733	933.15	57.25
1054.3047	3250.6766	933.65	58.45
1054.4051	3251.5793	932.85	54.35
1054.5054	3252.4814	933.35	57.7
1054.6056	3253.3829	933.4	58.6
1054.7058	3254.2838	929.15	54.75
1054.806	3255.1841	930.25	56.7
1054.9061	3256.0838	929.05	54
1055.0061	3256.9829	928	53.3
1055.1062	3257.8814	931.25	54
1055.2061	3258.7792	930.65	54.3
1055.306	3259.6765	931.2	56.55
1055.4059	3260.5731	928.65	51.8
1055.5057	3261.4692	927.65	52.6
1055.6055	3262.3647	932.05	55.1
1055.7052	3263.2595	925.5	49.95
1055.8049	3264.1538	925.45	48.7
1055.9045	3265.0474	927.65	52.45
1056.0041	3265.9404	923.7	47.8
1056.1036	3266.8329	923.9	49.35
1056.2031	3267.7247	933.65	48.65
1056.3025	3268.616	919.55	47.7
1056.4019	3269.5066	917.85	41.85
1056.5013	3270.3966	922.9	46.75
1056.6005	3271.286	916.6	42.45
