Software Version:	3.9.2.0
Unit SN:	10000200
Spectrometer SN:	6960
Date:	3/6/2024 9:27:39 AM
Data Line Index:	25
Spectral Points:	2048
Integration time (ms):	125
Averages:	20
Delay (ms):	30
Sequence Number:	1
Processing:	dark subtract
Laser Power (mW):	300
Laser Current (mA):	818
Laser Diode Temp (C):	25.1
Laser Case Temp (C):	23.2
System Temp (C):	22.9
Spectrometer Temp (C):	20.7
CCD Temp (C):	-0.031
Secondary Temp (C):	20.007
Heatsink Temp (C):	17.655
CCDPCB Temp (C):	29.771
SecondaryPCB Temp (C):	25.069

Wavelength	RamanShift	Raw Counts	Dark Subtracted
787.061	30.1047	552.1	144.75
787.2016	32.3739	553.9	148.95
787.3422	34.6426	567.3	160.15
787.4828	36.9109	575.75	166.95
787.6235	39.1787	586.85	173.6
787.7642	41.4461	603.8	186.65
787.9049	43.7131	617.95	199.9
788.0456	45.9796	632.85	210.4
788.1863	48.2456	643.3	217.1
788.3271	50.5112	662.8	233.35
788.4679	52.7764	684.95	251.7
788.6087	55.0411	704.3	266.7
788.7496	57.3054	716.85	271.7
788.8904	59.5692	741.1	296
789.0313	61.8326	757.7	313.45
789.1722	64.0955	784.85	336.25
789.3132	66.3579	811.25	357.2
789.4541	68.6199	851.45	393.45
789.5951	70.8815	913.3	448.65
789.7361	73.1426	1054.65	588.6
789.8771	75.4032	1405.2	935.1
790.0181	77.6634	2278.9	1808.1
790.1592	79.9231	4387.8	3913.1
790.3003	82.1824	9015.5	8536.7
790.4414	84.4412	17187.7	16701.5
790.5825	86.6995	28399.65	27903.75
790.7237	88.9574	38987.2	38487.9
790.8648	91.2148	47074.8	46571.05
791.006	93.4717	49946.25	49437.25
791.1472	95.7282	51321.2	50812.25
791.2885	97.9842	51932.45	51420.1
791.4297	100.2398	52226.35	51712.3
791.571	102.4949	52103.9	51587.6
791.7123	104.7495	52518.45	51994.85
791.8536	107.0036	52122.6	51600.05
791.9949	109.2573	53010.8	52489.25
792.1363	111.5105	52465.95	51941.2
792.2777	113.7632	52910.7	52384.9
792.4191	116.0154	53117.5	52581.15
792.5605	118.2672	53666.1	53135.7
792.7019	120.5185	53742.65	53207.45
792.8434	122.7693	53803.3	53266.7
792.9849	125.0197	53052.1	52510.2
793.1264	127.2696	54599.8	54054.05
793.2679	129.519	54416.2	53866.2
793.4094	131.7679	54964.1	54415.75
793.551	134.0163	53503.4	52951.9
793.6926	136.2642	54225	53670.7
793.8342	138.5117	55320.8	54762.4
793.9758	140.7587	54969.75	54413.3
794.1175	143.0052	55039.15	54477.65
794.2591	145.2512	54284.65	53720.25
794.4008	147.4967	55404.5	54838.65
794.5425	149.7417	55104.2	54534.5
794.6842	151.9863	55192.55	54618.95
794.826	154.2304	54581.95	54005.05
794.9677	156.4739	55165.35	54583.2
795.1095	158.717	55822.85	55242.6
795.2513	160.9596	55402.55	54814.9
795.3931	163.2017	54720.55	54131.55
795.535	165.4433	55699.05	55110.2
795.6768	167.6844	55305.5	54712.05
795.8187	169.925	55842.6	55246.75
795.9606	172.1651	55439.1	54837.45
796.1025	174.4047	55688.85	55083.6
796.2445	176.6439	55722.15	55118.55
796.3864	178.8825	55648.55	55041
796.5284	181.1206	56368.1	55753.6
796.6704	183.3582	56317.1	55701.8
796.8124	185.5954	55973.95	55357.05
796.9544	187.832	56125.05	55503.85
797.0965	190.0681	55644.45	55019.05
797.2386	192.3037	56691.8	56067.1
797.3806	194.5388	57706.35	57077.85
797.5228	196.7734	55343.15	54716.15
797.6649	199.0075	57619.85	56988.95
797.807	201.2411	56745.15	56110.75
797.9492	203.4742	58064.45	57426.15
798.0914	205.7068	57696.8	57056.15
798.2336	207.9389	57639.8	57002.05
798.3758	210.1704	57494.4	56869.1
798.518	212.4015	58398.7	57779
798.6603	214.632	57300.4	56685.4
798.8025	216.862	58537.9	57921.15
798.9448	219.0915	57916.1	57297.05
799.0871	221.3205	57789.35	57168.1
799.2294	223.549	58827.1	58208.35
799.3718	225.777	58689.05	58068.3
799.5141	228.0044	59215.45	58587.25
799.6565	230.2314	58707.4	58076.85
799.7989	232.4578	58659.35	58025.45
799.9413	234.6837	58817.15	58171.1
800.0837	236.909	60770.3	60124.9
800.2262	239.1339	58108.3	57439.9
800.3687	241.3582	59290.1	58637.3
800.5111	243.582	59429.65	58744.85
800.6536	245.8053	59368.55	58696.65
800.7961	248.0281	59618.05	58951.3
800.9387	250.2503	59970.8	59304.3
801.0812	252.472	59077.7	58408.6
801.2238	254.6932	59780.6	59111.75
801.3664	256.9139	59385.2	58710.4
801.509	259.134	61224.85	60549.55
801.6516	261.3536	59231.65	58559.65
801.7942	263.5727	60217	59539.75
801.9369	265.7912	59684.3	59008.75
802.0795	268.0092	59990.45	59317.75
802.2222	270.2267	60295.9	59617.75
802.3649	272.4436	59450.65	58770.65
802.5076	274.6601	60342.85	59654.55
802.6504	276.8759	60813.1	60127.25
802.7931	279.0913	60220.9	59533.25
802.9359	281.3061	60657.5	59971.05
803.0787	283.5204	60566.55	59875.9
803.2215	285.7341	60571.45	59878.75
803.3643	287.9473	61434	60731.9
803.5071	290.16	60693.9	59996.95
803.6499	292.3721	60891.75	60199.5
803.7928	294.5837	60292.25	59602.35
803.9357	296.7947	59663.85	58973
804.0786	299.0052	61057.55	60366.25
804.2215	301.2152	60555.4	59857.9
804.3644	303.4246	61135.75	60440.1
804.5074	305.6334	61251.25	60558.35
804.6503	307.8418	60253.4	59555
804.7933	310.0495	60335.35	59636.4
804.9363	312.2568	60392.5	59695.2
805.0793	314.4635	60371.55	59668.55
805.2223	316.6696	60934.5	60228.65
805.3653	318.8752	61391.75	60676
805.5084	321.0802	59470.1	58762.85
805.6514	323.2847	60374.45	59665.75
805.7945	325.4887	60216.45	59507.85
805.9376	327.692	59914.6	59204.7
806.0807	329.8949	60486.9	59774.45
806.2238	332.0972	60138.1	59423.7
806.367	334.2989	60575.65	59859.15
806.5101	336.5001	61281.85	60565.2
806.6533	338.7007	59782.5	59066.1
806.7965	340.9008	60569.65	59849.3
806.9397	343.1003	60698.9	59975.35
807.0829	345.2992	61176.5	60453.5
807.2261	347.4976	60321.8	59597.7
807.3693	349.6955	60710.55	59981.55
807.5126	351.8927	60122.35	59393.85
807.6559	354.0895	60807.45	60067.1
807.7991	356.2856	60693.85	59963.6
807.9424	358.4812	61306.45	60573.2
808.0857	360.6763	60041.55	59305.55
808.2291	362.8707	61319.95	60583.2
808.3724	365.0646	60412.5	59673.55
808.5158	367.258	60446.05	59702.1
808.6591	369.4508	59726.8	58982.5
808.8025	371.643	60973.5	60230.2
808.9459	373.8346	60388.15	59643.25
809.0893	376.0257	60556.7	59808.1
809.2327	378.2162	60312.35	59566.95
809.3762	380.4062	59446.75	58702.45
809.5196	382.5956	60319.5	59575
809.6631	384.7844	60206.4	59466.5
809.8066	386.9726	60693.8	59954.35
809.9501	389.1603	60554	59814.8
810.0936	391.3474	59701.05	58913.9
810.2371	393.5339	60419.75	59679.7
810.3806	395.7199	59359.65	58621.5
810.5241	397.9052	59563.35	58823.55
810.6677	400.09	59892.3	59149.05
810.8113	402.2743	60682.4	59937.55
810.9548	404.4579	59626.6	58881.45
811.0984	406.641	59696.45	58949
811.2421	408.8235	60060.65	59309.9
811.3857	411.0054	60074.35	59321.75
811.5293	413.1868	60126.25	59368.8
811.673	415.3675	59795.1	59035.6
811.8166	417.5477	59858.55	59098.55
811.9603	419.7273	59819.8	59056.2
812.104	421.9064	59593.85	58826.45
812.2477	424.0848	59712.65	58950.15
812.3914	426.2627	60363	59598.1
812.5351	428.4399	59308.9	58546.3
812.6788	430.6166	58492.45	57722.35
812.8226	432.7928	59594.8	58823.45
812.9663	434.9683	58780.1	58009.55
813.1101	437.1432	58817.35	58046.75
813.2539	439.3176	59533.2	58763.6
813.3977	441.4914	58319.65	57549.6
813.5415	443.6645	58528.3	57758.4
813.6853	445.8371	58651.65	57878.95
813.8291	448.0091	58151.85	57379.35
813.973	450.1806	57849.95	57075.85
814.1168	452.3514	58024	57247.35
814.2607	454.5216	57410.7	56623.75
814.4046	456.6913	58046.95	57268.05
814.5485	458.8603	58131.55	57353.85
814.6924	461.0288	57306	56529.65
814.8363	463.1967	58051.65	57276.85
814.9802	465.3639	57914.55	57136.15
815.1241	467.5306	56581.6	55802.5
815.2681	469.6967	57338.55	56562.5
815.412	471.8622	57703.85	56926.2
815.556	474.0271	57195.9	56418.35
815.7	476.1914	57299.35	56517.35
815.844	478.3551	57417.35	56637.65
815.988	480.5182	58065.75	57281.5
816.132	482.6807	56994.85	56212.1
816.276	484.8426	57099.95	56317.45
816.4201	487.0039	57895.8	57114.6
816.5641	489.1647	57784.7	57000.45
816.7082	491.3248	56700.5	55915.9
816.8522	493.4843	57808.85	57025.4
816.9963	495.6432	57815.25	57028.35
817.1404	497.8015	56659.65	55869.75
817.2845	499.9592	57215.95	56426.95
817.4286	502.1163	57232.75	56442.7
817.5727	504.2728	57193.3	56402.7
817.7168	506.4287	57184.75	56395.1
817.861	508.5839	56547.55	55756.7
818.0051	510.7386	56960.2	56169.55
818.1493	512.8927	57196.75	56396.45
818.2935	515.0461	56886.85	56091.45
818.4377	517.199	57473.25	56680.15
818.5818	519.3512	56981.45	56185.95
818.726	521.5029	56763.05	55963.9
818.8703	523.6539	57012.75	56213.4
819.0145	525.8043	56175.95	55377.75
819.1587	527.9541	56848.1	56048.2
819.303	530.1033	56691.4	55892.7
819.4472	532.2519	56277.5	55478.85
819.5915	534.3999	56689.95	55888.95
819.7357	536.5472	57059.25	56258.65
819.88	538.694	55933.5	55133
820.0243	540.8401	56487.1	55687.15
820.1686	542.9856	56308.8	55504.95
820.3129	545.1305	56632.3	55829.55
820.4572	547.2748	56145.2	55343.85
820.6016	549.4185	56157.55	55353.3
820.7459	551.5615	56627.3	55824.9
820.8902	553.704	56441.25	55637.75
821.0346	555.8458	55967.55	55164.45
821.1789	557.987	56074.55	55271.6
821.3233	560.1276	56399.3	55595.55
821.4677	562.2675	56047.1	55242.3
821.6121	564.4069	56112.3	55309.25
821.7565	566.5456	56439	55633.5
821.9009	568.6837	55629.85	54825.65
822.0453	570.8212	55905.7	55099.95
822.1897	572.958	55050.65	54243
822.3342	575.0942	55785.9	54979.95
822.4786	577.2299	55213.1	54406.15
822.6231	579.3648	55153.9	54347.05
822.7675	581.4992	54844.25	54034.45
822.912	583.6329	54758.55	53948.3
823.0565	585.766	54631.6	53824.4
823.201	587.8985	54893.9	54087
823.3454	590.0304	54076.1	53242.2
823.4899	592.1616	54734.05	53918.2
823.6345	594.2922	54389.9	53577
823.779	596.4222	54036.5	53225.2
823.9235	598.5515	54015.95	53202.35
824.068	600.6802	54142.15	53327.3
824.2126	602.8083	53533.1	52719.75
824.3571	604.9358	53495.85	52679.85
824.5017	607.0626	53847.45	53033.45
824.6462	609.1888	53208.75	52392.55
824.7908	611.3144	53564.15	52746.4
824.9354	613.4393	53173.5	52356.8
825.08	615.5636	53073.5	52256.05
825.2246	617.6873	53312.9	52495.25
825.3692	619.8103	53065.95	52245.25
825.5138	621.9327	53261.85	52437.8
825.6584	624.0544	53371.25	52553.05
825.803	626.1756	53075.1	52256.05
825.9477	628.2961	53048	52228.25
826.0923	630.4159	52737.1	51916
826.237	632.5351	52735.8	51913.35
826.3816	634.6537	53242.75	52419.4
826.5263	636.7716	52516.65	51692.05
826.6709	638.8889	52651	51828.2
826.8156	641.0056	52598.4	51775.7
826.9603	643.1216	52700.9	51876.3
827.105	645.237	52866.75	52039.6
827.2497	647.3518	52385.05	51561.65
827.3944	649.4659	52431.95	51608.55
827.5391	651.5793	52407.9	51583.1
827.6838	653.6922	52388.2	51566.65
827.8285	655.8043	52051.5	51226.6
827.9733	657.9159	52566.55	51740.2
828.118	660.0268	51555.1	50728.15
828.2627	662.137	51872.6	51044.15
828.4075	664.2466	51950.45	51122.3
828.5522	666.3556	51752.1	50925.5
828.697	668.4639	51709.35	50877.65
828.8418	670.5716	51680	50850.4
828.9865	672.6786	51783	50952.35
829.1313	674.785	51361.85	50532.65
829.2761	676.8907	51319.3	50486.4
829.4209	678.9958	51302.45	50472
829.5657	681.1002	51381.5	50549.7
829.7105	683.204	51053.15	50217.65
829.8553	685.3072	50944.3	50111.05
830.0001	687.4097	50869	50036.35
830.1449	689.5115	50916.4	50082.4
830.2898	691.6127	51004.2	50171.4
830.4346	693.7132	50685.8	49854.05
830.5794	695.8131	50737.9	49882.4
830.7243	697.9123	50769.1	49934.4
830.8691	700.0109	50842.3	50008.25
831.014	702.1089	50498.9	49664.85
831.1588	704.2061	50529.85	49695.1
831.3037	706.3028	50552.7	49716.5
831.4486	708.3987	50512.75	49676.55
831.5935	710.4941	50350.2	49514.25
831.7383	712.5887	50429.7	49591.4
831.8832	714.6827	50289.4	49446.65
832.0281	716.7761	50340.45	49503.55
832.173	718.8688	50306.7	49466.9
832.3179	720.9608	50052.55	49210.85
832.4628	723.0522	50122.4	49278.3
832.6077	725.1429	49864.85	49023.7
832.7527	727.233	50246.05	49405.2
832.8976	729.3224	49820.75	48981.45
833.0425	731.4112	49842.05	49000.45
833.1874	733.4993	49730.95	48889.6
833.3324	735.5867	49593.75	48753.25
833.4773	737.6735	49448	48607.7
833.6222	739.7596	49299.7	48456.35
833.7672	741.845	49200.45	48358.35
833.9122	743.9298	49129.9	48287.25
834.0571	746.014	49023.9	48181.65
834.2021	748.0974	49029.65	48186.4
834.347	750.1802	48920.2	48077.45
834.492	752.2624	48580.85	47739.15
834.637	754.3439	48489.25	47641.25
834.782	756.4247	48415.9	47563.65
834.9269	758.5048	48196.2	47352.55
835.0719	760.5843	48175.75	47330.35
835.2169	762.6631	48017.2	47173.25
835.3619	764.7413	47933.4	47088.9
835.5069	766.8188	47955.1	47108.5
835.6519	768.8956	47868.6	47022.6
835.7969	770.9718	47857.7	47011.1
835.9419	773.0473	47645.35	46799.35
836.0869	775.1221	47574.25	46728.9
836.232	777.1962	47361.45	46515.05
836.377	779.2697	47301.5	46453.7
836.522	781.3426	47283.4	46424.2
836.667	783.4147	47197.3	46347.85
836.8121	785.4862	47196.5	46349.8
836.9571	787.557	47006.5	46160.65
837.1021	789.6271	46929	46082.5
837.2472	791.6966	46720.35	45870.9
837.3922	793.7654	46495.9	45647.9
837.5373	795.8335	46500.8	45653.15
837.6823	797.901	46328.3	45480.35
837.8274	799.9678	46240.75	45390.4
837.9724	802.0339	46154.85	45307.5
838.1175	804.0993	46104.75	45248.05
838.2626	806.1641	45960.85	45112.1
838.4076	808.2282	45791.3	44940.5
838.5527	810.2916	45787.95	44934.5
838.6978	812.3544	45751.45	44902.65
838.8428	814.4164	45593.65	44744.95
838.9879	816.4778	45698.25	44847.1
839.133	818.5385	45491.55	44641.65
839.2781	820.5986	45516.65	44665.3
839.4232	822.658	45500.75	44647.3
839.5682	824.7166	45361.45	44511.9
839.7133	826.7747	45474.05	44621.85
839.8584	828.832	45384.35	44530.95
840.0035	830.8886	45212.7	44358.85
840.1486	832.9446	45208	44354.05
840.2937	834.9999	45056.2	44205.1
840.4388	837.0545	44979.25	44122
840.5839	839.1085	44881.4	44028.2
840.729	841.1618	44776.35	43919.25
840.8741	843.2143	44569.8	43717.2
841.0192	845.2662	44408.4	43554.9
841.1643	847.3175	44420.8	43565.75
841.3095	849.368	44320.9	43465.4
841.4546	851.4179	44253.15	43397.6
841.5997	853.467	43976.05	43121.65
841.7448	855.5155	43975.1	43119.4
841.8899	857.5633	43862.45	43006.55
842.0351	859.6105	43745.35	42891.6
842.1802	861.6569	43776.1	42921.95
842.3253	863.7027	43639.55	42784.45
842.4704	865.7478	43663.7	42807.5
842.6156	867.7922	43586.1	42730.75
842.7607	869.8359	43492.9	42634.9
842.9058	871.8789	43393.7	42536.25
843.0509	873.9212	43390.1	42499.6
843.1961	875.9629	43158.45	42302.95
843.3412	878.0039	43189.35	42332.4
843.4863	880.0441	43148.05	42290.35
843.6315	882.0837	43126.2	42270.55
843.7766	884.1226	43033.45	42175.15
843.9218	886.1609	43073.4	42216.15
844.0669	888.1984	43040.65	42185.2
844.212	890.2352	43136.3	42279.4
844.3572	892.2714	42988.65	42128.35
844.5023	894.3069	42891.25	42032.4
844.6475	896.3416	42718.15	41859.95
844.7926	898.3757	42659.75	41800.7
844.9377	900.4091	42634.7	41774.85
845.0829	902.4418	42565.5	41702.1
845.228	904.4739	42397.75	41536.3
845.3732	906.5052	42343.05	41483.05
845.5183	908.5358	42262.4	41404.45
845.6635	910.5658	42198.75	41338.2
845.8086	912.595	42112.05	41251
845.9538	914.6236	41925.05	41066.6
846.0989	916.6515	41892.05	41032.45
846.2441	918.6786	41744.85	40884.4
846.3892	920.7051	41698.5	40836.45
846.5344	922.7309	41737.5	40877.3
846.6795	924.756	41576.9	40714.7
846.8246	926.7804	41583.05	40720.8
846.9698	928.8041	41275.1	40411.85
847.1149	930.8272	41261.6	40400.15
847.2601	932.8495	41005.4	40143.9
847.4052	934.8711	41065.55	40204.3
847.5504	936.892	40831.05	39967.95
847.6955	938.9123	40693.5	39831.35
847.8407	940.9318	40654.95	39793
847.9858	942.9506	40496.6	39633.6
848.131	944.9688	40399.05	39535.7
848.2761	946.9862	40344.55	39480.9
848.4213	949.003	40101.75	39238.45
848.5664	951.019	40049.75	39186
848.7115	953.0344	39924.8	39060.5
848.8567	955.0491	39834.05	38970.9
849.0018	957.063	39807.65	38944.1
849.147	959.0763	39875.95	39013.5
849.2921	961.0888	39674.85	38808.2
849.4373	963.1007	39671	38805.8
849.5824	965.1119	39579.15	38715.55
849.7275	967.1223	39480	38616.7
849.8727	969.1321	39382.1	38519.2
850.0178	971.1412	39353.65	38488.35
850.1629	973.1495	39183.3	38319.05
850.3081	975.1572	39196.35	38283.7
850.4532	977.1641	39173.6	38308.05
850.5983	979.1704	38945.2	38077.7
850.7435	981.1759	38866.4	37998.6
850.8886	983.1808	38826.4	37959.9
851.0337	985.1849	38761	37892.05
851.1788	987.1884	38667.3	37798.7
851.324	989.1911	38555.1	37687.75
851.4691	991.1932	38488.5	37621.75
851.6142	993.1945	38300.05	37434.2
851.7593	995.1951	38139.65	37273.15
851.9045	997.1951	38124.55	37252.1
852.0496	999.1943	37926.7	37059.45
852.1947	1001.1928	37795.8	36929.6
852.3398	1003.1906	37626.95	36759.3
852.4849	1005.1877	37661.05	36791.4
852.63	1007.1841	37496	36630.25
852.7751	1009.1798	37389.8	36521.85
852.9202	1011.1748	37231.85	36366.1
853.0653	1013.1691	37077.85	36210.4
853.2104	1015.1627	36935.3	36067.5
853.3555	1017.1556	36695.85	35829.25
853.5006	1019.1477	36643.2	35773.95
853.6457	1021.1392	36409.9	35543.75
853.7908	1023.1299	36279.7	35411.3
853.9359	1025.12	36145.25	35277.7
854.081	1027.1093	36020.35	35154.5
854.2261	1029.0979	35861.8	34997.95
854.3712	1031.0859	35807.35	34940.65
854.5163	1033.0731	35747.6	34880.15
854.6613	1035.0596	35552.85	34684.55
854.8064	1037.0454	35369.8	34501.75
854.9515	1039.0304	35350.15	34482.1
855.0965	1041.0148	35144.2	34276.55
855.2416	1042.9985	35059.45	34188.6
855.3867	1044.9814	35027.4	34162.15
855.5317	1046.9636	34877.05	34006.45
855.6768	1048.9452	34720.6	33852.35
855.8219	1050.926	34694.3	33827.3
855.9669	1052.9061	34642.3	33773.4
856.112	1054.8855	34523.45	33653.55
856.257	1056.8642	34448.55	33579.8
856.4021	1058.8421	34422.7	33548.5
856.5471	1060.8194	34297.85	33431.1
856.6921	1062.7959	34266.4	33396.3
856.8372	1064.7717	34135.65	33265.65
856.9822	1066.7469	34099.45	33230
857.1272	1068.7213	34033.8	33162.35
857.2723	1070.695	33996	33127.1
857.4173	1072.6679	33823.1	32950.5
857.5623	1074.6402	33808.05	32937.55
857.7073	1076.6117	33825.95	32949.45
857.8523	1078.5826	33762.65	32890.6
857.9973	1080.5527	33664.6	32790.65
858.1423	1082.5221	33437.35	32565.4
858.2873	1084.4908	33346.3	32474.3
858.4323	1086.4587	33260.2	32389.65
858.5773	1088.426	33266.65	32394
858.7223	1090.3925	33097.8	32221.6
858.8673	1092.3584	33045.15	32173.65
859.0123	1094.3235	32929.8	32058.4
859.1573	1096.2879	32827	31955.75
859.3022	1098.2515	32806.6	31935.55
859.4472	1100.2145	32796.25	31925
859.5922	1102.1767	32686.8	31812.35
859.7371	1104.1382	32618.55	31747.2
859.8821	1106.099	32612.65	31738.05
860.027	1108.0591	32569.7	31697.45
860.172	1110.0185	32508.65	31633.05
860.3169	1111.9771	32519.25	31648.35
860.4619	1113.9351	32374.5	31500.8
860.6068	1115.8923	32319.4	31447.2
860.7517	1117.8488	32339.6	31465.75
860.8967	1119.8045	32149.7	31278.4
861.0416	1121.7596	32069.95	31197.9
861.1865	1123.7139	31846.9	30974.2
861.3314	1125.6675	31786.65	30914.85
861.4763	1127.6204	31764.9	30893.05
861.6212	1129.5726	31674.6	30799.1
861.7661	1131.524	31619.35	30749.9
861.911	1133.4748	31540.4	30665.1
862.0559	1135.4248	31411.4	30537
862.2008	1137.3741	31316.8	30442.35
862.3457	1139.3226	31239.1	30364.9
862.4905	1141.2705	31281	30406.7
862.6354	1143.2176	31064.85	30185.2
862.7803	1145.164	31060.05	30186.6
862.9251	1147.1097	30991.6	30117.6
863.07	1149.0546	30922.3	30046.7
863.2148	1150.9989	30905.2	30031.15
863.3597	1152.9424	30894.9	30019.95
863.5045	1154.8852	30746.15	29873.3
863.6493	1156.8272	30690.45	29818.2
863.7942	1158.7686	30688.95	29808.4
863.939	1160.7092	30588.8	29714.8
864.0838	1162.6491	30449.85	29573.5
864.2286	1164.5883	30501.3	29626.75
864.3734	1166.5267	30429.7	29556.5
864.5182	1168.4644	30446.85	29571.55
864.663	1170.4014	30357.9	29478.6
864.8078	1172.3377	30422.55	29549.35
864.9526	1174.2732	30362.75	29488.75
865.0974	1176.2081	30425.6	29551.9
865.2421	1178.1421	30422	29545.55
865.3869	1180.0755	30503.15	29629.95
865.5317	1182.0082	30422	29546.75
865.6764	1183.9401	30392.9	29520
865.8212	1185.8713	30238.4	29364.75
865.9659	1187.8017	30140.65	29266.1
866.1106	1189.7315	29988.75	29116.15
866.2554	1191.6605	29733.8	28859.95
866.4001	1193.5888	29608.9	28735.55
866.5448	1195.5163	29517.55	28642.5
866.6895	1197.4432	29425.1	28547.95
866.8342	1199.3693	29320.8	28445.65
866.9789	1201.2947	29187.05	28310.2
867.1236	1203.2193	29084	28207.95
867.2683	1205.1432	29066.6	28189.4
867.413	1207.0664	28968.05	28092.4
867.5576	1208.9889	28876.15	27998.1
867.7023	1210.9106	28789.05	27914.15
867.847	1212.8316	28648	27772.7
867.9916	1214.7519	28610.9	27725.7
868.1363	1216.6715	28505.55	27630.45
868.2809	1218.5903	28525.25	27650.7
868.4255	1220.5084	28440.85	27565.9
868.5701	1222.4257	28461	27585.7
868.7148	1224.3424	28282.9	27407.55
868.8594	1226.2583	28250.7	27370.8
869.004	1228.1735	28243.6	27365.95
869.1486	1230.0879	28124.65	27246
869.2932	1232.0016	28036.8	27161.35
869.4377	1233.9146	28028.6	27150.4
869.5823	1235.8269	27936.85	27062.3
869.7269	1237.7384	27982.05	27103.7
869.8715	1239.6492	27852.7	26979.2
870.016	1241.5592	27820.6	26944.35
870.1606	1243.4686	27715.7	26838.65
870.3051	1245.3772	27816.8	26942.45
870.4496	1247.285	27731.4	26853.15
870.5941	1249.1922	27732.65	26857.65
870.7387	1251.0986	27774.8	26898.55
870.8832	1253.0042	27692.4	26814.8
871.0277	1254.9092	27720.45	26842.3
871.1722	1256.8134	27751.05	26875.55
871.3167	1258.7169	27829.95	26951.85
871.4611	1260.6196	27789.75	26914.05
871.6056	1262.5216	27837	26959.15
871.7501	1264.4229	27789.35	26912.7
871.8945	1266.3234	27757.6	26881.1
872.039	1268.2232	27633.65	26753.15
872.1834	1270.1223	27547.1	26669.2
872.3278	1272.0207	27455.25	26577.5
872.4723	1273.9183	27371.1	26487.8
872.6167	1275.8151	27328.05	26451.1
872.7611	1277.7113	27308.35	26429.9
872.9055	1279.6067	27293.35	26416.5
873.0499	1281.5014	27356.75	26477.05
873.1943	1283.3953	27481.95	26602.55
873.3386	1285.2885	27667.3	26791.35
873.483	1287.181	27802.1	26923.45
873.6274	1289.0727	27871.05	26995.75
873.7717	1290.9637	27769.5	26890.65
873.9161	1292.854	27658.85	26781.2
874.0604	1294.7435	27462.8	26581.3
874.2047	1296.6323	27272.15	26394.65
874.349	1298.5204	27197.35	26314.4
874.4933	1300.4077	27039.85	26160.45
874.6376	1302.2943	26960.85	26084.25
874.7819	1304.1802	26926.75	26049
874.9262	1306.0653	26847.15	25964.35
875.0705	1307.9497	26826.95	25948.4
875.2147	1309.8333	26762.6	25886.65
875.359	1311.7162	26750.05	25872.8
875.5032	1313.5984	26692.35	25813.9
875.6475	1315.4798	26581.65	25691.35
875.7917	1317.3605	26587.95	25706.4
875.9359	1319.2405	26517.3	25638.3
876.0801	1321.1197	26504.55	25624.3
876.2243	1322.9982	26441.05	25558.15
876.3685	1324.876	26412.85	25534.7
876.5127	1326.753	26245.65	25366.65
876.6569	1328.6293	26226.45	25347.9
876.801	1330.5048	26109.8	25228.75
876.9452	1332.3796	25968.75	25091.6
877.0893	1334.2537	25885.05	24978
877.2335	1336.127	25799.9	24919.8
877.3776	1337.9996	25728.55	24850.45
877.5217	1339.8714	25661.9	24783.15
877.6658	1341.7426	25590.8	24668.6
877.8099	1343.6129	25541.85	24662.3
877.954	1345.4826	25461.85	24581.2
878.0981	1347.3515	25492.75	24610.45
878.2422	1349.2196	25409.5	24530.6
878.3862	1351.087	25403.8	24526.1
878.5303	1352.9537	25337.95	24457.6
878.6743	1354.8197	25356.15	24479.25
878.8184	1356.6849	25338.35	24457.8
878.9624	1358.5493	25247.1	24367.2
879.1064	1360.4131	25234.05	24356.65
879.2504	1362.276	25192.25	24311.75
879.3944	1364.1383	25198.4	24318.95
879.5384	1365.9998	25123.25	24238.3
879.6823	1367.8606	25054.8	24175.65
879.8263	1369.7206	24984.5	24102.95
879.9702	1371.5799	24938.5	24057.65
880.1142	1373.4384	24869.3	23988.95
880.2581	1375.2962	24903.6	24022.65
880.402	1377.1533	24688.8	23808.45
880.5459	1379.0096	24574.55	23693.95
880.6898	1380.8652	24500.45	23620.8
880.8337	1382.7201	24420.25	23540.1
880.9776	1384.5742	24276.85	23398.25
881.1215	1386.4275	24165.65	23283.4
881.2653	1388.2802	24062.15	23184.3
881.4092	1390.132	23970.05	23091.15
881.553	1391.9832	24010.7	23129.45
881.6968	1393.8336	23827.5	22946.25
881.8406	1395.6832	23766.05	22885.05
881.9844	1397.5322	23708.8	22828.9
882.1282	1399.3803	23640.9	22757
882.272	1401.2278	23519.05	22638.5
882.4158	1403.0745	23437	22557.55
882.5595	1404.9204	23332.45	22454.15
882.7033	1406.7656	23278.7	22398
882.847	1408.6101	23207.95	22325.5
882.9908	1410.4538	23076.75	22195.85
883.1345	1412.2968	23076.5	22194.2
883.2782	1414.139	22968.25	22090.15
883.4219	1415.9805	22947.35	22066.7
883.5656	1417.8213	22854.55	21953.4
883.7092	1419.6613	22805.95	21927.25
883.8529	1421.5006	22802.65	21922.45
883.9965	1423.3391	22754.7	21874.9
884.1402	1425.1769	22681.25	21800.7
884.2838	1427.0139	22737.1	21856
884.4274	1428.8502	22791.05	21911.35
884.571	1430.6858	22775.3	21894.25
884.7146	1432.5206	22648.8	21768.05
884.8582	1434.3547	22654.2	21773.5
885.0018	1436.188	22642.2	21761.15
885.1453	1438.0206	22590.8	21709.7
885.2889	1439.8524	22500.2	21617.9
885.4324	1441.6835	22498	21616
885.5759	1443.5139	22452.5	21568.25
885.7194	1445.3435	22349.15	21468.15
885.8629	1447.1724	22343.3	21463
886.0064	1449.0005	22356.45	21476.75
886.1499	1450.8279	22294.15	21413.35
886.2933	1452.6545	22272.1	21392.2
886.4368	1454.4804	22278.95	21399.7
886.5802	1456.3056	22205.8	21319.4
886.7237	1458.13	22174	21295.85
886.8671	1459.9536	22145.5	21264.75
887.0105	1461.7766	22080.6	21200.6
887.1539	1463.5987	21972.2	21090.55
887.2972	1465.4202	21888.6	21007.95
887.4406	1467.2409	21803.35	20922.55
887.584	1469.0608	21761.9	20881.65
887.7273	1470.88	21711.15	20827.35
887.8706	1472.6984	21621.2	20739.5
888.0139	1474.5161	21547.2	20665.1
888.1572	1476.3331	21489.35	20609.45
888.3005	1478.1493	21455.65	20574.5
888.4438	1479.9648	21442.15	20561.7
888.5871	1481.7795	21364.25	20483.25
888.7303	1483.5935	21382.6	20501.5
888.8736	1485.4067	21314.3	20431.85
889.0168	1487.2192	21320.65	20439.95
889.16	1489.031	21273.9	20391.75
889.3032	1490.842	21238.3	20359.35
889.4464	1492.6522	21201.5	20323.15
889.5896	1494.4618	21128.75	20246.7
889.7327	1496.2705	21133.15	20253
889.8759	1498.0785	21081.3	20198.8
890.019	1499.8858	21000.85	20119.6
890.1622	1501.6924	20974.75	20091.85
890.3053	1503.4981	20906.5	20026.9
890.4484	1505.3032	20857.2	19975.8
890.5914	1507.1075	20814.6	19933.2
890.7345	1508.911	20768	19888
890.8776	1510.7138	20769.4	19888.4
891.0206	1512.5159	20689.85	19808.85
891.1637	1514.3172	20596.65	19716.95
891.3067	1516.1178	20522.2	19641.3
891.4497	1517.9176	20491.55	19608.25
891.5927	1519.7166	20458.7	19576.85
891.7357	1521.515	20383.55	19498.55
891.8786	1523.3126	20325.85	19443.75
892.0216	1525.1094	20275.3	19391.15
892.1645	1526.9055	20215.15	19334.35
892.3074	1528.7008	20120.45	19238.9
892.4503	1530.4954	20055.5	19166.6
892.5932	1532.2893	19989.5	19109.95
892.7361	1534.0824	19878.95	18995.25
892.879	1535.8747	19889.1	19007.3
893.0218	1537.6663	19795.75	18914.15
893.1647	1539.4572	19719.2	18835.25
893.3075	1541.2473	19699.45	18818.7
893.4503	1543.0367	19622.5	18742
893.5931	1544.8253	19540.65	18654.1
893.7359	1546.6132	19533.2	18647.8
893.8787	1548.4003	19418.7	18527.85
894.0214	1550.1867	19393.65	18505.1
894.1642	1551.9723	19354.3	18471.25
894.3069	1553.7572	19308.5	18425.6
894.4496	1555.5414	19262.8	18382.45
894.5923	1557.3247	19256.1	18375.5
894.735	1559.1074	19194.65	18314.25
894.8777	1560.8893	19165.95	18285.95
895.0204	1562.6705	19107.5	18226.15
895.163	1564.4509	19070.3	18191.45
895.3056	1566.2305	18997.4	18118.95
895.4482	1568.0094	19022.85	18143.95
895.5908	1569.7876	18977.35	18097.35
895.7334	1571.565	18959.1	18078.8
895.876	1573.3417	18947.45	18068.35
896.0186	1575.1176	18871.2	17990.3
896.1611	1576.8928	18836.55	17955.25
896.3036	1578.6672	18785.6	17904.9
896.4461	1580.4409	18731.85	17853.25
896.5886	1582.2138	18711.1	17829.15
896.7311	1583.986	18657.25	17777.3
896.8736	1585.7575	18709.25	17827.4
897.0161	1587.5282	18678.25	17800.05
897.1585	1589.2981	18648.8	17768.9
897.3009	1591.0673	18598.35	17719.45
897.4433	1592.8358	18569.3	17690.9
897.5857	1594.6035	18528.65	17645.4
897.7281	1596.3704	18435.25	17554.9
897.8705	1598.1366	18328.75	17447.55
898.0128	1599.9021	18272.65	17392.25
898.1551	1601.6668	18145.85	17264.05
898.2975	1603.4308	18109.5	17227.9
898.4398	1605.194	18017.3	17131.3
898.5821	1606.9564	17982.6	17100.8
898.7243	1608.7182	17979.2	17093.8
898.8666	1610.4791	18010.85	17130.75
899.0088	1612.2394	18033.9	17152.45
899.1511	1613.9988	18075.4	17197.65
899.2933	1615.7576	18131.5	17250.55
899.4355	1617.5156	18151.65	17265.45
899.5776	1619.2728	18085.6	17204.3
899.7198	1621.0293	17995.2	17116
899.862	1622.785	17847.25	16961.65
900.0041	1624.54	17649.8	16765.85
900.1462	1626.2942	17513.65	16630.4
900.2883	1628.0477	17332	16447.05
900.4304	1629.8005	17253	16368.2
900.5725	1631.5525	17090.4	16209.85
900.7145	1633.3037	17005.05	16125.2
900.8566	1635.0542	16908.8	16027.85
900.9986	1636.804	16833.7	15952.95
901.1406	1638.553	16847.5	15876.45
901.2826	1640.3013	16674.55	15794.9
901.4245	1642.0488	16605.95	15723.6
901.5665	1643.7955	16582.1	15701.2
901.7085	1645.5416	16496.05	15616.25
901.8504	1647.2868	16475.85	15595.65
901.9923	1649.0313	16356.5	15474.25
902.1342	1650.7751	16330	15446.35
902.2761	1652.5181	16325.25	15445.2
902.4179	1654.2604	16248.75	15369.4
902.5598	1656.0019	16171.45	15291.25
902.7016	1657.7427	16145.25	15263.1
902.8434	1659.4828	16121.2	15240.25
902.9852	1661.222	16125.45	15244.8
903.127	1662.9606	16109.25	15228.8
903.2687	1664.6984	16116.9	15235.4
903.4105	1666.4354	16093.25	15210.65
903.5522	1668.1717	16020.6	15138.25
903.6939	1669.9072	15899.4	15017.95
903.8356	1671.642	15836.55	14953.65
903.9773	1673.3761	15752.7	14872.45
904.119	1675.1094	15665.9	14785.4
904.2606	1676.8419	15611.7	14730.7
904.4022	1678.5737	15517.7	14637.45
904.5439	1680.3048	15475.25	14592.75
904.6855	1682.0351	15372	14492.5
904.827	1683.7646	15299.2	14414.15
904.9686	1685.4934	15254.7	14374.15
905.1101	1687.2215	15158.2	14276.25
905.2517	1688.9488	15086.7	14206.95
905.3932	1690.6754	15021.25	14141.95
905.5347	1692.4012	14998.9	14116.4
905.6761	1694.1263	14947.8	14065.75
905.8176	1695.8506	14927.35	14046.1
905.9591	1697.5742	14855.05	13974.5
906.1005	1699.297	14790.5	13909.85
906.2419	1701.0191	14740.2	13859.35
906.3833	1702.7404	14677.25	13797.85
906.5246	1704.461	14594.75	13714.15
906.666	1706.1808	14530.9	13647.1
906.8073	1707.8999	14478.1	13596.45
906.9487	1709.6182	14453.6	13571.85
907.09	1711.3358	14425.15	13544.45
907.2313	1713.0527	14343.6	13465.85
907.3725	1714.7688	14312.2	13426.15
907.5138	1716.4841	14234.4	13351.85
907.655	1718.1987	14229.35	13341.4
907.7962	1719.9126	14178.95	13300.65
907.9374	1721.6257	14147.1	13264.9
908.0786	1723.338	14125.5	13242.95
908.2198	1725.0496	14037.2	13154.95
908.3609	1726.7605	14051.5	13170.8
908.502	1728.4706	13995.45	13115.8
908.6431	1730.18	13926.8	13042.25
908.7842	1731.8886	13897.25	13017.65
908.9253	1733.5964	13870.4	12968.85
909.0664	1735.3036	13834.05	12951.95
909.2074	1737.0099	13829.2	12951.05
909.3484	1738.7156	13807.15	12927.45
909.4894	1740.4204	13749.7	12865.2
909.6304	1742.1246	13728.1	12846.25
909.7714	1743.8279	13694.9	12812
909.9123	1745.5306	13658.15	12776.1
910.0532	1747.2325	13638.4	12758.9
910.1941	1748.9336	13600.9	12720.4
910.335	1750.634	13548.95	12667.5
910.4759	1752.3336	13516.25	12636.45
910.6168	1754.0325	13511.35	12630.95
910.7576	1755.7307	13509.75	12628.55
910.8984	1757.4281	13484.7	12603
911.0392	1759.1247	13469.65	12581.15
911.18	1760.8206	13422.35	12536.65
911.3208	1762.5158	13425.2	12539.8
911.4615	1764.2102	13352.6	12473.15
911.6022	1765.9039	13327.2	12444.45
911.7429	1767.5968	13305.65	12426.05
911.8836	1769.289	13257.05	12374.75
912.0243	1770.9804	13209.5	12327.05
912.1649	1772.6711	13213.4	12332.15
912.3056	1774.361	13159.75	12278.65
912.4462	1776.0502	13133	12251.95
912.5868	1777.7386	13135.5	12249.25
912.7274	1779.4263	13099.65	12218.8
912.8679	1781.1132	13097.85	12217.2
913.0084	1782.7994	13001.8	12121.4
913.149	1784.4849	13018.7	12137.05
913.2895	1786.1696	12998.05	12098.6
913.4299	1787.8535	12948.95	12068.05
913.5704	1789.5367	12898.7	12016.65
913.7108	1791.2192	12895.85	12014.65
913.8513	1792.9009	12841.6	11942.15
913.9917	1794.5818	12805.45	11923.25
914.132	1796.2621	12763	11881.35
914.2724	1797.9415	12704.55	11821.35
914.4128	1799.6202	12716.3	11835.2
914.5531	1801.2982	12673.75	11792.6
914.6934	1802.9755	12660.35	11779.5
914.8337	1804.6519	12618	11738.2
914.9739	1806.3277	12556.7	11677.2
915.1142	1808.0027	12511.9	11631.95
915.2544	1809.6769	12478.6	11596.4
915.3946	1811.3504	12460.9	11579.2
915.5348	1813.0231	12438.15	11555.6
915.675	1814.6951	12445.45	11563.3
915.8151	1816.3664	12425.95	11542.7
915.9553	1818.0369	12414.2	11534.45
916.0954	1819.7067	12337.2	11456.2
916.2355	1821.3757	12325.25	11441.75
916.3755	1823.044	12308.6	11429.75
916.5156	1824.7115	12287.35	11404.15
916.6556	1826.3783	12214.8	11334.3
916.7956	1828.0443	12171.35	11289.25
916.9356	1829.7096	12165.15	11282.3
917.0756	1831.3741	12156.05	11270.95
917.2155	1833.0379	12120.1	11239.05
917.3555	1834.701	12069.15	11186.75
917.4954	1836.3633	12078.8	11197.05
917.6353	1838.0248	12030.2	11148
917.7751	1839.6856	11990.6	11111.05
917.915	1841.3457	11976.4	11095.3
918.0548	1843.005	11947.55	11066
918.1946	1844.6636	11944.15	11063.95
918.3344	1846.3214	11893.55	11011
918.4742	1847.9785	11898.6	11017.25
918.6139	1849.6349	11847.05	10964.25
918.7537	1851.2904	11829.75	10939.65
918.8934	1852.9453	11788.85	10908.8
919.0331	1854.5994	11749.6	10866.55
919.1727	1856.2528	11782.05	10896.5
919.3124	1857.9054	11726	10845
919.452	1859.5572	11684.7	10804.3
919.5916	1861.2083	11663.85	10781.85
919.7312	1862.8587	11677.45	10796.9
919.8708	1864.5084	11642.95	10762.4
920.0103	1866.1572	11614	10732
920.1498	1867.8054	11553.15	10672.1
920.2893	1869.4528	11536.3	10654.6
920.4288	1871.0994	11495.5	10613.55
920.5683	1872.7453	11484.1	10603.15
920.7077	1874.3905	11437.9	10551.55
920.8471	1876.0349	11429.15	10547.6
920.9865	1877.6786	11404.95	10523.8
921.1259	1879.3215	11408.5	10528.1
921.2653	1880.9637	11365.55	10483.15
921.4046	1882.6051	11356.1	10475.55
921.5439	1884.2458	11302.95	10420.2
921.6832	1885.8858	11270.2	10388
921.8225	1887.525	11250.4	10369.45
921.9617	1889.1634	11218.15	10335.35
922.101	1890.8011	11187.45	10305.3
922.2402	1892.4381	11158.2	10278.25
922.3794	1894.0743	11195.5	10316
922.5185	1895.7098	11125.7	10244.4
922.6577	1897.3446	11107	10225.6
922.7968	1898.9786	11092.8	10208.3
922.9359	1900.6118	11069.45	10189.6
923.075	1902.2443	11019.2	10136.6
923.214	1903.8761	10986.95	10106.6
923.3531	1905.5071	10939.15	10054.35
923.4921	1907.1374	10901.55	10020.4
923.6311	1908.7669	10874.7	9994.8
923.77	1910.3957	10862.65	9981.45
923.909	1912.0237	10791.45	9910.65
924.0479	1913.651	10799.35	9917.25
924.1868	1915.2776	10758.85	9879.2
924.3257	1916.9034	10716.25	9836.9
924.4646	1918.5285	10687.45	9807.95
924.6034	1920.1528	10629.4	9745.75
924.7422	1921.7764	10625.8	9745.1
924.881	1923.3992	10572.3	9691.45
925.0198	1925.0213	10529.7	9647.5
925.1586	1926.6427	10514.25	9634.6
925.2973	1928.2633	10646.65	9558
925.436	1929.8832	10485.1	9600.25
925.5747	1931.5023	10384.4	9504.35
925.7134	1933.1207	10370.55	9490.4
925.852	1934.7383	10368.9	9486.75
925.9906	1936.3552	10316.65	9435.55
926.1292	1937.9714	10294.9	9412.1
926.2678	1939.5868	10248.7	9366.5
926.4064	1941.2015	10192.75	9311.15
926.5449	1942.8154	10173.1	9291.95
926.6834	1944.4286	10146.65	9266.6
926.8219	1946.041	10125.25	9222.6
926.9604	1947.6528	10046.2	9158.9
927.0988	1949.2637	10049.1	9167.65
927.2372	1950.8739	9993.15	9110.85
927.3756	1952.4834	9982.45	9100.5
927.514	1954.0921	9974.4	9092.9
927.6523	1955.7001	9927.05	9041.85
927.7907	1957.3074	9877.35	8997.15
927.929	1958.9139	9876.7	8997.05
928.0673	1960.5197	9838.1	8955.15
928.2055	1962.1247	9805.5	8926
928.3438	1963.729	9731	8851.85
928.482	1965.3325	9731.45	8829.1
928.6202	1966.9353	9689.65	8810
928.7584	1968.5374	9652.2	8768.1
928.8965	1970.1387	9654.9	8773.15
929.0346	1971.7393	9626.5	8743.6
929.1727	1973.3392	9584.45	8702.35
929.3108	1974.9383	9565.75	8685.7
929.4489	1976.5366	9518.35	8636.45
929.5869	1978.1342	9505.15	8623.75
929.7249	1979.7311	9502.55	8618.85
929.8629	1981.3273	9479.35	8599.65
930.0009	1982.9227	9423.9	8540
930.1388	1984.5173	9399.5	8519.4
930.2767	1986.1112	9378.45	8500.25
930.4146	1987.7044	9350.65	8470.5
930.5525	1989.2968	9337.95	8457.8
930.6904	1990.8885	9349.1	8466.55
930.8282	1992.4795	9315.5	8434.15
930.966	1994.0697	9279.7	8399.5
931.1038	1995.6592	9209	8328
931.2415	1997.2479	9211.5	8331.35
931.3793	1998.8359	9175.65	8295.1
931.517	2000.4232	9143.9	8263.05
931.6547	2002.0097	9128.2	8249.9
931.7923	2003.5955	9095.1	8214.6
931.93	2005.1805	9092.15	8209.75
932.0676	2006.7648	9082.1	8201.45
932.2052	2008.3484	9025.65	8143.4
932.3427	2009.9312	9008.05	8124.7
932.4803	2011.5133	8995.85	8116.75
932.6178	2013.0946	8962.7	8080.7
932.7553	2014.6752	8934.35	8055.15
932.8928	2016.2551	8938	8056.35
933.0302	2017.8342	8922	8040.9
933.1676	2019.4126	8872.55	7994.5
933.305	2020.9902	8849.55	7970.65
933.4424	2022.5672	8813.1	7932.95
933.5798	2024.1433	8825.5	7941.15
933.7171	2025.7188	8789.8	7911.5
933.8544	2027.2935	8772.7	7892.2
933.9917	2028.8674	8733.65	7853.1
934.129	2030.4406	8696.35	7815.7
934.2662	2032.0131	8665.8	7786.7
934.4034	2033.5849	8637.4	7748.75
934.5406	2035.1559	8623.1	7743.25
934.6778	2036.7261	8612	7730.8
934.8149	2038.2957	8579.3	7700.25
934.952	2039.8645	8559.3	7680.2
935.0891	2041.4325	8573.3	7691.75
935.2262	2042.9998	8527.1	7646.65
935.3632	2044.5664	8505.35	7625.1
935.5002	2046.1323	8481.4	7600.1
935.6372	2047.6974	8479.75	7599.2
935.7742	2049.2617	8465.3	7584.8
935.9111	2050.8254	8475.25	7574.3
936.048	2052.3883	8475.6	7592.6
936.1849	2053.9504	8431.7	7551.55
936.3218	2055.5118	8406.45	7523.85
936.4586	2057.0725	8384.05	7500.7
936.5955	2058.6325	8355.15	7475.8
936.7323	2060.1917	8357.05	7476.5
936.869	2061.7502	8322.1	7440.2
937.0058	2063.3079	8281.25	7400.7
937.1425	2064.8649	8266.2	7382.25
937.2792	2066.4212	8278.95	7396.25
937.4159	2067.9767	8228.55	7349.15
937.5525	2069.5315	8214.6	7336.1
937.6891	2071.0856	8178.65	7299.3
937.8257	2072.6389	8147.6	7266.95
937.9623	2074.1915	8113.75	7234.5
938.0989	2075.7433	8087.9	7204.55
938.2354	2077.2945	8061	7182.55
938.3719	2078.8448	8071.15	7191.2
938.5084	2080.3945	8032.85	7154.4
938.6448	2081.9434	8033.7	7154.95
938.7812	2083.4916	8023.65	7143.35
938.9176	2085.039	7990.35	7109.65
939.054	2086.5857	7959.2	7078.15
939.1903	2088.1317	7948.65	7069.7
939.3267	2089.677	7938.85	7058.15
939.463	2091.2215	7894.1	7011.95
939.5992	2092.7652	7874.2	6992.55
939.7355	2094.3083	7887.8	7005.4
939.8717	2095.8506	7881.3	7000.1
940.0079	2097.3921	7877.35	6998.95
940.1441	2098.933	7842.8	6961.8
940.2802	2100.4731	7832.75	6954.35
940.4163	2102.0124	7847.65	6948.5
940.5524	2103.5511	7800.25	6921.6
940.6885	2105.089	7801.2	6920.55
940.8245	2106.6261	7776.45	6895.95
940.9606	2108.1626	7761.3	6880.7
941.0965	2109.6983	7784.45	6875.65
941.2325	2111.2332	7730.3	6850.25
941.3684	2112.7675	7698.15	6816.75
941.5044	2114.301	7687.05	6804.3
941.6403	2115.8337	7681.4	6801.65
941.7761	2117.3657	7664.6	6785.4
941.912	2118.897	7652.8	6773.1
942.0478	2120.4276	7635.75	6751.15
942.1835	2121.9575	7609.65	6730.4
942.3193	2123.4866	7600.75	6718.05
942.455	2125.0149	7562.4	6679.85
942.5907	2126.5426	7515.65	6637.3
942.7264	2128.0695	7535.85	6651.2
942.8621	2129.5956	7516.65	6638.7
942.9977	2131.1211	7492.6	6605.85
943.1333	2132.6458	7478.95	6599.95
943.2689	2134.1698	7480.9	6598.6
943.4044	2135.693	7452.3	6570.05
943.54	2137.2155	7437.85	6554.3
943.6755	2138.7373	7440.45	6558.45
943.8109	2140.2584	7411.5	6532.65
943.9464	2141.7787	7375	6489.8
944.0818	2143.2983	7334.55	6456.5
944.2172	2144.8171	7297.1	6417.3
944.3526	2146.3353	7289.45	6407.55
944.4879	2147.8527	7266.6	6385.35
944.6232	2149.3693	7271	6390.5
944.7585	2150.8853	7257.5	6375.75
944.8938	2152.4005	7221.2	6342.05
945.029	2153.9149	7221.05	6337.75
945.1642	2155.4287	7180.2	6299.9
945.2994	2156.9417	7170.7	6289.9
945.4346	2158.454	7138.9	6255.1
945.5697	2159.9655	7121.3	6241.6
945.7048	2161.4764	7137	6256.8
945.8399	2162.9865	7108.05	6228.3
945.9749	2164.4958	7071.6	6192.35
946.1099	2166.0045	7081.65	6197.25
946.2449	2167.5124	7056.45	6175.95
946.3799	2169.0195	7047.7	6167.25
946.5148	2170.526	7023.3	6143.65
946.6498	2172.0317	7007	6127.75
946.7846	2173.5367	7004.55	6120.95
946.9195	2175.0409	6983.05	6104.25
947.0543	2176.5445	6978.3	6098.3
947.1891	2178.0473	6938.9	6060.75
947.3239	2179.5494	6910.7	6026.15
947.4587	2181.0507	6896.8	6017.45
947.5934	2182.5513	6898.85	6018.3
947.7281	2184.0512	6885.45	6003.6
947.8628	2185.5504	6857.3	5977.85
947.9974	2187.0488	6799.45	5919.7
948.132	2188.5465	6810.9	5931.2
948.2666	2190.0435	6769.7	5887.65
948.4012	2191.5397	6746.5	5866.45
948.5357	2193.0353	6738.15	5858.55
948.6702	2194.5301	6690.85	5809.8
948.8047	2196.0241	6699.6	5818.8
948.9392	2197.5175	6669.8	5788
949.0736	2199.0101	6652.7	5766.1
949.208	2200.502	6621.65	5742.9
949.3424	2201.9931	6609.15	5728.7
949.4767	2203.4835	6587.7	5706.45
949.611	2204.9733	6582.3	5696.25
949.7453	2206.4622	6571.45	5691.5
949.8796	2207.9505	6513.75	5630.5
950.0138	2209.438	6512.5	5634.5
950.148	2210.9248	6490.85	5610.6
950.2822	2212.4109	6486.7	5607.4
950.4164	2213.8962	6456.8	5573.3
950.5505	2215.3809	6445.1	5563.7
950.6846	2216.8648	6427.9	5545.55
950.8186	2218.3479	6396.6	5513.1
950.9527	2219.8304	6394.15	5511.15
951.0867	2221.3121	6375.9	5492.2
951.2207	2222.7931	6343	5463.1
951.3546	2224.2733	6310.05	5428.85
951.4886	2225.7529	6286.6	5407.1
951.6225	2227.2317	6279.15	5398.15
951.7563	2228.7098	6258.95	5380.45
951.8902	2230.1872	6230.8	5352.85
952.024	2231.6638	6225.55	5345.05
952.1578	2233.1397	6224.9	5338.9
952.2916	2234.6149	6199.65	5320.05
952.4253	2236.0894	6164.75	5281.95
952.559	2237.5632	6168.8	5287.55
952.6927	2239.0362	6123.25	5244.9
952.8263	2240.5085	6117.25	5235.65
952.9599	2241.9801	6116.15	5235.55
953.0935	2243.4509	6098.4	5217.15
953.2271	2244.921	6083.15	5203.75
953.3606	2246.3904	6051	5168.7
953.4941	2247.8591	6035.2	5156.2
953.6276	2249.3271	6032.8	5150.6
953.7611	2250.7943	6019.65	5138.8
953.8945	2252.2608	5981.9	5100.65
954.0279	2253.7266	5971.55	5090.9
954.1612	2255.1917	5968.25	5088.75
954.2946	2256.656	5923.6	5040.5
954.4279	2258.1197	5905.35	5024.05
954.5612	2259.5826	5897.9	5016.8
954.6944	2261.0447	5902.45	5021.5
954.8276	2262.5062	5862.35	4981.6
954.9608	2263.9669	5855.2	4971.55
955.094	2265.4269	5841.7	4963.1
955.2271	2266.8862	5839.35	4958.9
955.3602	2268.3448	5823.1	4944.1
955.4933	2269.8026	5818.8	4938.15
955.6264	2271.2598	5790.4	4909.75
955.7594	2272.7162	5767.55	4887.2
955.8924	2274.1719	5751.75	4869.2
956.0253	2275.6268	5731.15	4850.6
956.1583	2277.0811	5716.05	4834.4
956.2912	2278.5346	5711.5	4832.7
956.4241	2279.9874	5697.8	4816.1
956.5569	2281.4395	5706.4	4826.95
956.6897	2282.8908	5674.7	4789.9
956.8225	2284.3414	5660.25	4777.95
956.9553	2285.7914	5630.15	4751.7
957.088	2287.2406	5598.45	4716
957.2207	2288.689	5605.05	4726.35
957.3534	2290.1368	5598.1	4714.9
957.486	2291.5838	5590.75	4708.1
957.6186	2293.0302	5573.55	4690.75
957.7512	2294.4758	5548.15	4669
957.8838	2295.9206	5533.6	4651.3
958.0163	2297.3648	5514.65	4633.05
958.1488	2298.8082	5494.15	4612
958.2813	2300.251	5492.2	4612
958.4137	2301.693	5485.15	4602.35
958.5461	2303.1343	5466.35	4586.2
958.6785	2304.5748	5437.8	4557.35
958.8108	2306.0147	5436.8	4555.3
958.9432	2307.4538	5419.55	4535.85
959.0754	2308.8922	5394.75	4516.5
959.2077	2310.3299	5383.7	4503.05
959.3399	2311.7669	5353.9	4472.4
959.4721	2313.2031	5353.7	4474.9
959.6043	2314.6387	5343.1	4462.75
959.7365	2316.0735	5310.25	4430.25
959.8686	2317.5076	5327.45	4447.15
960.0006	2318.941	5307.35	4429.6
960.1327	2320.3737	5300.75	4418.9
960.2647	2321.8056	5288	4404.5
960.3967	2323.2369	5260.2	4380.05
960.5287	2324.6674	5234.05	4351.4
960.6606	2326.0972	5228.6	4346.55
960.7925	2327.5263	5211.35	4332
960.9244	2328.9547	5184.35	4303
961.0562	2330.3823	5185.9	4304.05
961.1881	2331.8092	5182.1	4299.25
961.3198	2333.2355	5158.5	4278.95
961.4516	2334.661	5141.05	4259.75
961.5833	2336.0858	5130.25	4247.1
961.715	2337.5098	5116.9	4234.85
961.8467	2338.9332	5119.9	4236.35
961.9783	2340.3558	5098.4	4216.5
962.1099	2341.7778	5070.1	4188.8
962.2415	2343.199	5077.05	4194.35
962.373	2344.6195	5065.2	4185.7
962.5045	2346.0393	5024.1	4144.2
962.636	2347.4583	5012.85	4131.95
962.7675	2348.8767	5015.5	4134.45
962.8989	2350.2943	5008.95	4126.3
963.0303	2351.7113	5008.1	4128.6
963.1617	2353.1275	4972.5	4091.65
963.293	2354.543	4970.8	4082.9
963.4243	2355.9578	4954.3	4074.6
963.5556	2357.3718	4921.05	4041.2
963.6868	2358.7852	4902.8	4018.85
963.818	2360.1978	4897	4015.25
963.9492	2361.6098	4892.9	4013.95
964.0803	2363.021	4876	3991.15
964.2114	2364.4315	4857.8	3977.55
964.3425	2365.8413	4854.4	3968.05
964.4736	2367.2504	4828.9	3949.55
964.6046	2368.6587	4818.35	3936.75
964.7356	2370.0664	4783.05	3903
964.8666	2371.4733	4801.75	3919.95
964.9975	2372.8795	4760.45	3881
965.1284	2374.285	4754.65	3871.25
965.2593	2375.6899	4730.5	3852.05
965.3901	2377.0939	4720.5	3840.35
965.5209	2378.4973	4701.25	3820.8
965.6517	2379.9	4690.35	3807.85
965.7825	2381.3019	4680.95	3798.65
965.9132	2382.7032	4662.5	3781.2
966.0439	2384.1037	4660.75	3782.2
966.1745	2385.5035	4643.35	3761.85
966.3051	2386.9027	4628.3	3750.55
966.4357	2388.3011	4635.15	3750.35
966.5663	2389.6987	4602.1	3721.7
966.6968	2391.0957	4583.95	3703.4
966.8273	2392.492	4570.3	3689.2
966.9578	2393.8876	4537.8	3655
967.0882	2395.2824	4537.65	3655.2
967.2186	2396.6765	4513.6	3632.8
967.349	2398.07	4507.8	3628.85
967.4793	2399.4627	4499.4	3617.9
967.6097	2400.8547	4496.8	3614.7
967.7399	2402.246	4485.7	3598.2
967.8702	2403.6366	4453.5	3570.85
968.0004	2405.0265	4434.05	3554.25
968.1306	2406.4156	4420.6	3534.8
968.2607	2407.8041	4406.85	3523.55
968.3909	2409.1918	4393.95	3511
968.521	2410.5789	4372.25	3491.3
968.651	2411.9652	4379.05	3493.75
968.781	2413.3508	4343.4	3461.75
968.911	2414.7358	4322.1	3440.9
969.041	2416.12	4314.45	3433.75
969.1709	2417.5035	4322.4	3443.4
969.3008	2418.8863	4277.5	3395.95
969.4307	2420.2684	4281.85	3401.2
969.5606	2421.6497	4258.3	3376.1
969.6904	2423.0304	4232.35	3352.2
969.8201	2424.4104	4223.5	3342
969.9499	2425.7896	4217.1	3333.3
970.0796	2427.1682	4230	3347.85
970.2093	2428.546	4203	3320
970.3389	2429.9232	4197	3316.7
970.4685	2431.2996	4178.7	3296.6
970.5981	2432.6753	4174.75	3295.85
970.7277	2434.0503	4156.15	3275.65
970.8572	2435.4246	4143.95	3263.05
970.9867	2436.7982	4140.35	3258.15
971.1161	2438.1711	4114.65	3236
971.2456	2439.5433	4101.15	3217.75
971.375	2440.9148	4105.7	3219.25
971.5043	2442.2856	4075.3	3195.95
971.6336	2443.6557	4073.25	3189.05
971.7629	2445.025	4053.3	3171.3
971.8922	2446.3937	4036.45	3154.5
972.0214	2447.7617	4036.05	3155.4
972.1506	2449.1289	4036.4	3155.9
972.2798	2450.4955	4014.25	3128.65
972.4089	2451.8613	4025.45	3144.85
972.538	2453.2265	4008.3	3129.25
972.6671	2454.5909	4014.65	3134.9
972.7961	2455.9546	3989.1	3108.3
972.9251	2457.3177	3966	3086.4
973.0541	2458.68	3957.8	3075
973.1831	2460.0416	3958.35	3077.9
973.312	2461.4025	3951.4	3070.15
973.4408	2462.7627	3954.65	3062.5
973.5697	2464.1222	3915.3	3036.6
973.6985	2465.4811	3913.95	3031.65
973.8273	2466.8392	3900.15	3019.05
973.956	2468.1966	3893.95	3010.55
974.0847	2469.5533	3885.65	3003.5
974.2134	2470.9093	3874.25	2993.05
974.3421	2472.2645	3879	2994.75
974.4707	2473.6191	3847.45	2965.6
974.5993	2474.973	3842.25	2959.35
974.7278	2476.3262	3840.35	2957.8
974.8563	2477.6787	3823.45	2944.85
974.9848	2479.0305	3797.7	2918
975.1132	2480.3816	3785.15	2904.25
975.2417	2481.7319	3778.75	2898.85
975.37	2483.0816	3750.9	2868.15
975.4984	2484.4306	3756.85	2876.2
975.6267	2485.7789	3735	2855.95
975.755	2487.1264	3726	2842.6
975.8833	2488.4733	3718.75	2838.45
976.0115	2489.8195	3711.3	2822.05
976.1397	2491.165	3692.85	2808.65
976.2678	2492.5097	3689.4	2807.85
976.3959	2493.8538	3681.75	2801.65
976.524	2495.1972	3664.15	2783.7
976.6521	2496.5398	3660.75	2776.9
976.7801	2497.8818	3650.5	2767.7
976.9081	2499.2231	3632.95	2751.3
977.036	2500.5637	3621.35	2738.4
977.164	2501.9035	3613.85	2731.65
977.2918	2503.2427	3614.9	2730.2
977.4197	2504.5812	3589.3	2709
977.5475	2505.919	3592.95	2709.5
977.6753	2507.256	3574.05	2694.8
977.8031	2508.5924	3558.25	2677.5
977.9308	2509.9281	3557.85	2671.2
978.0585	2511.2631	3528.75	2647.2
978.1861	2512.5974	3533.1	2652.7
978.3137	2513.9309	3527.85	2647.4
978.4413	2515.2638	3522.2	2615
978.5689	2516.596	3499.1	2619.4
978.6964	2517.9275	3492.6	2608.1
978.8239	2519.2583	3481.05	2599.5
978.9513	2520.5884	3469.4	2586.5
979.0788	2521.9178	3450.8	2568.35
979.2062	2523.2465	3445.3	2563.3
979.3335	2524.5745	3434.55	2554.1
979.4608	2525.9018	3419.35	2537.05
979.5881	2527.2284	3398.3	2518.4
979.7154	2528.5543	3396.25	2517.25
979.8426	2529.8796	3399	2517.8
979.9698	2531.2041	3388.95	2508.9
980.0969	2532.5279	3382.3	2503
980.224	2533.851	3385.5	2503.4
980.3511	2535.1735	3359.4	2480.5
980.4781	2536.4952	3358.45	2477.2
980.6052	2537.8163	3348.6	2465.85
980.7321	2539.1366	3339.5	2457.75
980.8591	2540.4562	3343.75	2460.55
980.986	2541.7752	3330.6	2450.65
981.1129	2543.0935	3328.5	2446.85
981.2397	2544.411	3323.05	2439.45
981.3665	2545.7279	3316.05	2435.15
981.4933	2547.0441	3306.5	2425.7
981.62	2548.3596	3317.55	2435
981.7467	2549.6744	3295	2413.75
981.8734	2550.9885	3300.95	2410.1
982.0001	2552.3019	3287.9	2407.65
982.1267	2553.6146	3279.1	2397.45
982.2532	2554.9266	3268.95	2388.2
982.3798	2556.2379	3255.35	2372.7
982.5063	2557.5485	3246.9	2367.7
982.6327	2558.8585	3243.25	2355.85
982.7592	2560.1677	3231.6	2348.5
982.8856	2561.4762	3225.85	2343.9
983.0119	2562.7841	3244.4	2359.15
983.1383	2564.0913	3223.9	2344.3
983.2646	2565.3977	3208.35	2328.4
983.3908	2566.7035	3212.35	2330.45
983.517	2568.0086	3209.8	2329.4
983.6432	2569.313	3201.8	2322.3
983.7694	2570.6167	3188.05	2303.15
983.8955	2571.9197	3190.5	2310.1
984.0216	2573.222	3177.65	2294.05
984.1476	2574.5236	3172.2	2291
984.2737	2575.8246	3163.7	2278.3
984.3996	2577.1248	3151.45	2267.35
984.5256	2578.4244	3152.8	2271.6
984.6515	2579.7232	3146.8	2266.15
984.7774	2581.0214	3163.75	2259.6
984.9032	2582.3189	3125.2	2246.55
985.029	2583.6157	3129.6	2244.8
985.1548	2584.9118	3122.85	2242.05
985.2806	2586.2072	3101	2220.8
985.4063	2587.5019	3092.75	2213.65
985.5319	2588.7959	3083.45	2202.7
985.6576	2590.0893	3084.05	2201.1
985.7832	2591.3819	3076.95	2197.95
985.9087	2592.6739	3063.3	2184.7
986.0343	2593.9652	3070.55	2188.05
986.1597	2595.2557	3056.2	2174.7
986.2852	2596.5456	3044.75	2161.6
986.4106	2597.8348	3025.4	2145.35
986.536	2599.1234	3009.5	2128.9
986.6614	2600.4112	3020.05	2139.15
986.7867	2601.6983	3007.45	2123.25
986.912	2602.9848	3001.95	2120.55
987.0372	2604.2705	2996.5	2108.75
987.1624	2605.5556	2980.05	2097.75
987.2876	2606.84	2972.35	2092.25
987.4128	2608.1237	2960.25	2078.55
987.5379	2609.4067	2948.75	2069.25
987.6629	2610.689	2950.9	2060.75
987.788	2611.9707	2937.3	2053.4
987.913	2613.2516	2927.2	2042.65
988.0379	2614.5319	2908	2027.45
988.1629	2615.8115	2905.1	2022.15
988.2878	2617.0903	2895.45	2011.1
988.4126	2618.3685	2890.1	2010.15
988.5375	2619.6461	2883.1	1999.95
988.6622	2620.9229	2877.15	1996.25
988.787	2622.199	2869.5	1988.5
988.9117	2623.4745	2865	1984.2
989.0364	2624.7493	2853.05	1972.5
989.161	2626.0234	2843.3	1963.6
989.2857	2627.2968	2831.55	1949.4
989.4102	2628.5695	2823.75	1942.1
989.5348	2629.8415	2816.6	1936.3
989.6593	2631.1128	2810.35	1927.5
989.7837	2632.3835	2798	1918.85
989.9082	2633.6535	2790.7	1908.85
990.0326	2634.9228	2774.25	1892.6
990.1569	2636.1914	2772.55	1894.25
990.2812	2637.4593	2770.4	1884.15
990.4055	2638.7265	2764.45	1882.55
990.5298	2639.9931	2753.6	1871.6
990.654	2641.259	2751.55	1869.45
990.7782	2642.5242	2743.1	1861.9
990.9023	2643.7887	2743.7	1861.75
991.0264	2645.0525	2734.6	1852.2
991.1505	2646.3156	2717.4	1836.4
991.2745	2647.5781	2720.85	1840.75
991.3985	2648.8398	2703.15	1823.9
991.5225	2650.1009	2731.35	1814.25
991.6464	2651.3613	2687.5	1806.4
991.7703	2652.6211	2693.75	1813.15
991.8942	2653.8801	2681.15	1800.4
992.018	2655.1385	2677.8	1795.05
992.1418	2656.3961	2663.7	1781.6
992.2655	2657.6531	2662.9	1781.95
992.3892	2658.9094	2656.35	1776.15
992.5129	2660.1651	2650.05	1770.4
992.6366	2661.42	2646.95	1766.05
992.7602	2662.6743	2643.45	1761.55
992.8837	2663.9279	2626.3	1744.5
993.0073	2665.1808	2628.6	1745.65
993.1307	2666.433	2635.3	1753
993.2542	2667.6846	2602.2	1721.55
993.3776	2668.9354	2617.1	1733.4
993.501	2670.1856	2599.75	1717.25
993.6244	2671.4351	2593.7	1715
993.7477	2672.6839	2592.55	1711.25
993.8709	2673.9321	2579.6	1698.7
993.9942	2675.1795	2575.95	1695.45
994.1174	2676.4263	2573.6	1694.1
994.2405	2677.6724	2555.2	1675.25
994.3637	2678.9179	2558.95	1678.35
994.4868	2680.1626	2548.15	1666.5
994.6098	2681.4067	2552.25	1670.5
994.7328	2682.6501	2542.3	1660.8
994.8558	2683.8928	2537.1	1656.3
994.9788	2685.1348	2530.85	1650.05
995.1017	2686.3761	2520.85	1640.75
995.2245	2687.6168	2508.75	1627.7
995.3474	2688.8568	2506.6	1626.25
995.4702	2690.0961	2504	1627
995.5929	2691.3348	2474.65	1594.35
995.7156	2692.5727	2480.8	1602.3
995.8383	2693.81	2459.55	1578
995.961	2695.0466	2465.05	1586.05
996.0836	2696.2826	2472.45	1590
996.2062	2697.5178	2482.2	1583.65
996.3287	2698.7524	2454.55	1573.5
996.4512	2699.9863	2451.05	1566.85
996.5737	2701.2195	2443.55	1563.75
996.6961	2702.452	2450.4	1568.5
996.8185	2703.6839	2450.85	1568.55
996.9408	2704.9151	2440.6	1560.35
997.0631	2706.1456	2416.8	1536.65
997.1854	2707.3755	2412.75	1529.5
997.3077	2708.6046	2416.4	1531.85
997.4299	2709.8331	2407.6	1528.75
997.552	2711.0609	2387.5	1507.05
997.6742	2712.2881	2389.55	1510.1
997.7963	2713.5145	2394.9	1510.85
997.9183	2714.7403	2376.1	1496.1
998.0403	2715.9654	2368.8	1486.55
998.1623	2717.1899	2377.55	1481.2
998.2842	2718.4136	2366.3	1485.9
998.4062	2719.6367	2365.2	1485.1
998.528	2720.8591	2356.65	1469.1
998.6498	2722.0809	2333.6	1454.15
998.7716	2723.3019	2337.35	1452.4
998.8934	2724.5223	2327.7	1444.9
999.0151	2725.7421	2320.75	1439.1
999.1368	2726.9611	2320.35	1438.25
999.2584	2728.1795	2314.25	1428.75
999.38	2729.3972	2309.55	1428.85
999.5016	2730.6142	2303.55	1410.15
999.6231	2731.8306	2293.5	1409.8
999.7446	2733.0462	2278.9	1396.4
999.8661	2734.2612	2279.9	1395.45
999.9875	2735.4756	2256.2	1372.9
1000.1089	2736.6892	2255.8	1374.35
1000.2302	2737.9022	2258.4	1378.35
1000.3515	2739.1145	2251.55	1368.3
1000.4728	2740.3262	2251.25	1362.7
1000.594	2741.5372	2231.15	1351.85
1000.7152	2742.7475	2228.95	1349.4
1000.8363	2743.9571	2222.55	1339.5
1000.9575	2745.1661	2211	1325.85
1001.0785	2746.3744	2214.35	1333.75
1001.1996	2747.582	2207.2	1326.25
1001.3206	2748.7889	2205.85	1323.1
1001.4415	2749.9952	2193.15	1311.2
1001.5625	2751.2008	2182.15	1299.7
1001.6833	2752.4057	2190.9	1308
1001.8042	2753.61	2183.1	1300.75
1001.925	2754.8136	2178.2	1297.45
1002.0458	2756.0165	2178	1297.3
1002.1665	2757.2188	2166.05	1288
1002.2872	2758.4204	2173.6	1293.05
1002.4078	2759.6213	2145.25	1261.85
1002.5285	2760.8215	2167.55	1285.35
1002.649	2762.0211	2145.6	1263.2
1002.7696	2763.22	2136.5	1251.6
1002.8901	2764.4182	2129.1	1246
1003.0106	2765.6158	2143.1	1262.5
1003.131	2766.8127	2127.1	1247
1003.2514	2768.009	2118.4	1238.7
1003.3717	2769.2045	2119.8	1239.4
1003.492	2770.3994	2116.75	1235.25
1003.6123	2771.5936	2104.1	1222.35
1003.7325	2772.7872	2105.7	1226.5
1003.8527	2773.9801	2095.3	1213.55
1003.9729	2775.1723	2108	1211.95
1004.093	2776.3639	2090.3	1211.3
1004.2131	2777.5548	2073.55	1190.25
1004.3331	2778.745	2083.75	1200.8
1004.4531	2779.9346	2062.5	1182.7
1004.5731	2781.1235	2059	1178.2
1004.693	2782.3117	2055.2	1175.75
1004.8129	2783.4992	2054.65	1176.3
1004.9328	2784.6861	2053.95	1174.6
1005.0526	2785.8723	2042.15	1160.95
1005.1723	2787.0579	2039.2	1156.85
1005.2921	2788.2428	2040.65	1160.6
1005.4118	2789.427	2034.65	1155.95
1005.5314	2790.6106	2028.8	1147.7
1005.651	2791.7935	2011.3	1130.4
1005.7706	2792.9757	2002.45	1122.7
1005.8902	2794.1573	2004.7	1122.15
1006.0097	2795.3382	1994.35	1114.2
1006.1291	2796.5184	2000.6	1121.3
1006.2485	2797.698	1981.1	1100.1
1006.3679	2798.8769	1986.55	1106.1
1006.4873	2800.0551	1988.25	1108
1006.6066	2801.2327	1978.45	1093.25
1006.7258	2802.4096	1976.6	1097
1006.8451	2803.5859	1973.8	1093.55
1006.9642	2804.7615	1965.8	1083.7
1007.0834	2805.9364	1954.85	1074.95
1007.2025	2807.1106	1963	1083.6
1007.3216	2808.2842	1946.6	1065.4
1007.4406	2809.4572	1941.2	1061.3
1007.5596	2810.6294	1944.7	1062.7
1007.6785	2811.801	1938.3	1060.6
1007.7975	2812.972	1938.5	1058.15
1007.9163	2814.1423	1940.35	1058.65
1008.0352	2815.3119	1944	1063.4
1008.154	2816.4808	1919.35	1040.65
1008.2727	2817.6491	1930.4	1050
1008.3914	2818.8167	1922.8	1042.9
1008.5101	2819.9837	1932.1	1047.85
1008.6288	2821.15	1928.75	1047.8
1008.7474	2822.3157	1930.55	1050.9
1008.8659	2823.4807	1944.6	1062.95
1008.9844	2824.645	1946	1066.2
1009.1029	2825.8086	1943.9	1062.5
1009.2214	2826.9716	1946.2	1066.15
1009.3398	2828.134	1946.25	1065.6
1009.4581	2829.2957	1968.65	1089.15
1009.5764	2830.4567	1956.55	1077.65
1009.6947	2831.617	1955.85	1072.45
1009.813	2832.7767	1964	1085.15
1009.9312	2833.9358	1959.9	1081.5
1010.0493	2835.0941	1956.15	1073.15
1010.1675	2836.2519	1952.05	1073.8
1010.2855	2837.4089	1940.15	1058.35
1010.4036	2838.5653	1939.45	1060
1010.5216	2839.7211	1937.15	1058.45
1010.6396	2840.8761	1929.35	1046.85
1010.7575	2842.0306	1921.15	1042.55
1010.8754	2843.1843	1922.5	1041.25
1010.9932	2844.3374	1913.55	1033.3
1011.111	2845.4899	1915.85	1036.9
1011.2288	2846.6417	1919.15	1037.2
1011.3465	2847.7928	1910.25	1031.25
1011.4642	2848.9433	1918.05	1037.2
1011.5818	2850.0931	1909.65	1029.35
1011.6995	2851.2422	1912.3	1031.65
1011.817	2852.3907	1903.6	1021.7
1011.9345	2853.5385	1910.15	1026.55
1012.052	2854.6857	1915.25	1025.3
1012.1695	2855.8323	1903.75	1024.6
1012.2869	2856.9781	1902.5	1023.95
1012.4042	2858.1233	1901.95	1020.3
1012.5216	2859.2679	1893.25	1014.75
1012.6389	2860.4118	1896.75	1018.1
1012.7561	2861.555	1888.4	1004
1012.8733	2862.6976	1894.4	1013.05
1012.9905	2863.8395	1892.6	1011.85
1013.1076	2864.9808	1898.6	1018.9
1013.2247	2866.1214	1892.4	1014.25
1013.3417	2867.2614	1888.9	1009.15
1013.4587	2868.4007	1880.7	999.8
1013.5757	2869.5393	1883.45	1001.6
1013.6926	2870.6773	1880.1	997.15
1013.8095	2871.8146	1877.1	993.8
1013.9263	2872.9513	1875.1	992.9
1014.0431	2874.0874	1870.5	990.7
1014.1599	2875.2227	1868.9	985.35
1014.2766	2876.3574	1872.45	992.85
1014.3933	2877.4915	1872.15	994.05
1014.51	2878.6249	1869.6	990.5
1014.6266	2879.7577	1857.35	975.45
1014.7431	2880.8898	1878.75	989.65
1014.8596	2882.0212	1864.3	984.25
1014.9761	2883.152	1853.9	973.4
1015.0925	2884.2821	1863.05	983.05
1015.2089	2885.4116	1858.05	977
1015.3253	2886.5405	1851.5	969.8
1015.4416	2887.6686	1853.25	970.5
1015.5579	2888.7962	1847.95	969.1
1015.6741	2889.923	1843.9	964.35
1015.7903	2891.0493	1836	954.9
1015.9065	2892.1748	1831.75	950.55
1016.0226	2893.2997	1827.35	945.65
1016.1387	2894.424	1821.65	943.95
1016.2547	2895.5476	1821.25	939.6
1016.3707	2896.6706	1819.45	941.2
1016.4866	2897.7929	1815.5	936.05
1016.6025	2898.9145	1814.85	933.45
1016.7184	2900.0355	1808.6	926.55
1016.8342	2901.1559	1812.15	929.35
1016.95	2902.2756	1804.45	924.95
1017.0658	2903.3946	1807.05	925.55
1017.1815	2904.513	1800.35	917.7
1017.2971	2905.6308	1789.95	909.1
1017.4127	2906.7479	1785.45	905
1017.5283	2907.8643	1784.95	904.25
1017.6439	2908.9801	1774.15	893.65
1017.7594	2910.0953	1769.9	889.4
1017.8748	2911.2098	1768.15	884.7
1017.9902	2912.3236	1770.3	882.95
1018.1056	2913.4368	1774.7	890.65
1018.2209	2914.5494	1764.9	884.4
1018.3362	2915.6613	1749.9	863.05
1018.4515	2916.7725	1757.25	873.9
1018.5667	2917.8831	1750.5	868.35
1018.6819	2918.9931	1741.1	859.5
1018.797	2920.1024	1730.6	850.45
1018.9121	2921.211	1732.85	854.05
1019.0271	2922.319	1733.75	853.3
1019.1421	2923.4264	1720.05	838.05
1019.2571	2924.5331	1719.75	841.5
1019.372	2925.6391	1718.45	840.25
1019.4869	2926.7445	1705.6	826.75
1019.6017	2927.8493	1702.8	821.3
1019.7165	2928.9534	1713.85	831.7
1019.8313	2930.0569	1711.8	828.35
1019.946	2931.1597	1711.65	831.15
1020.0606	2932.2619	1702.8	821.6
1020.1753	2933.3634	1698.05	818.15
1020.2899	2934.4643	1700.45	812.2
1020.4044	2935.5645	1698.85	813.5
1020.5189	2936.6641	1695.05	809.7
1020.6334	2937.763	1694.85	817
1020.7478	2938.8613	1690.5	807.55
1020.8622	2939.959	1686.4	802.3
1020.9765	2941.056	1674.85	795.2
1021.0908	2942.1523	1672.9	792.75
1021.2051	2943.248	1667.95	787.85
1021.3193	2944.3431	1654.75	774.45
1021.4334	2945.4375	1644.95	764.9
1021.5476	2946.5313	1641.3	761.45
1021.6617	2947.6244	1628.75	747.2
1021.7757	2948.7169	1607.55	727.55
1021.8897	2949.8087	1598.85	716.2
1022.0037	2950.8999	1593.75	716
1022.1176	2951.9904	1578.9	700.15
1022.2315	2953.0803	1574.15	693.3
1022.3453	2954.1696	1568.5	687.5
1022.4591	2955.2582	1559.5	679.5
1022.5728	2956.3462	1559.3	680.85
1022.6865	2957.4335	1559.9	678.55
1022.8002	2958.5202	1553.55	671.3
1022.9138	2959.6062	1547.9	666.2
1023.0274	2960.6916	1539	658.65
1023.141	2961.7764	1549.5	668.15
1023.2545	2962.8605	1541.9	662.15
1023.3679	2963.9439	1529.7	648.3
1023.4813	2965.0267	1532.8	651.15
1023.5947	2966.1089	1542.75	638.95
1023.708	2967.1905	1519.35	640.85
1023.8213	2968.2714	1516.1	635.7
1023.9346	2969.3516	1516.05	637.8
1024.0478	2970.4312	1519.05	629.4
1024.1609	2971.5102	1505.3	624.6
1024.274	2972.5885	1504.5	625
1024.3871	2973.6662	1508.75	625.05
1024.5002	2974.7432	1505.1	624
1024.6132	2975.8196	1496.2	614.7
1024.7261	2976.8954	1494.8	615.4
1024.839	2977.9705	1494.45	613.7
1024.9519	2979.045	1491.7	612.75
1025.0647	2980.1188	1492.95	612.15
1025.1775	2981.192	1483.25	604.7
1025.2902	2982.2645	1479.7	598.25
1025.4029	2983.3364	1481.95	601.55
1025.5156	2984.4077	1471.1	590
1025.6282	2985.4783	1473.1	587.6
1025.7407	2986.5483	1466	586.9
1025.8532	2987.6177	1456.3	576.9
1025.9657	2988.6864	1458.5	577.15
1026.0782	2989.7545	1452.95	572.15
1026.1906	2990.8219	1439.95	560.7
1026.3029	2991.8887	1440.55	559.35
1026.4152	2992.9548	1441.3	558.2
1026.5275	2994.0204	1431.3	552.05
1026.6397	2995.0852	1430.3	549.9
1026.7519	2996.1495	1427.65	544.9
1026.864	2997.2131	1418.8	539.15
1026.9761	2998.276	1416.1	534.9
1027.0882	2999.3383	1412.3	529.5
1027.2002	3000.4	1407	526.65
1027.3122	3001.4611	1407	526.15
1027.4241	3002.5215	1396	516.5
1027.536	3003.5812	1402.5	521.75
1027.6478	3004.6404	1391.7	510.35
1027.7596	3005.6989	1395.5	515.5
1027.8714	3006.7567	1388.5	506.4
1027.9831	3007.8139	1413.55	510.15
1028.0947	3008.8705	1379.95	499.75
1028.2064	3009.9264	1384.9	501.15
1028.3179	3010.9818	1373.9	494.05
1028.4295	3012.0364	1376.9	495.75
1028.541	3013.0905	1372.3	490.95
1028.6524	3014.1439	1369.9	488.7
1028.7638	3015.1966	1364.05	484.8
1028.8752	3016.2487	1371.15	490.2
1028.9865	3017.3002	1362.55	477.85
1029.0978	3018.3511	1365	487.25
1029.209	3019.4013	1358.25	477.9
1029.3202	3020.4509	1357.1	477.6
1029.4314	3021.4998	1359.85	478.85
1029.5425	3022.5481	1348.9	468.4
1029.6535	3023.5958	1350.4	471.65
1029.7645	3024.6428	1350.55	468.9
1029.8755	3025.6892	1347.45	468.05
1029.9864	3026.735	1342.3	460.15
1030.0973	3027.7802	1342.45	463.05
1030.2082	3028.8247	1344.9	466.55
1030.319	3029.8685	1336.4	457.75
1030.4297	3030.9118	1336.15	455.75
1030.5404	3031.9544	1332.95	452.65
1030.6511	3032.9963	1332.25	450.35
1030.7617	3034.0376	1324.25	446.1
1030.8723	3035.0783	1324.75	441.5
1030.9829	3036.1184	1327.65	447.35
1031.0934	3037.1578	1318.4	441.35
1031.2038	3038.1966	1319.7	439.55
1031.3142	3039.2348	1326.1	447.45
1031.4246	3040.2723	1324.4	433.65
1031.5349	3041.3092	1317.1	436.55
1031.6452	3042.3455	1311.9	430.9
1031.7554	3043.3811	1311.25	432.05
1031.8656	3044.4161	1309	428.85
1031.9758	3045.4505	1306.65	425.8
1032.0859	3046.4842	1306.25	427.2
1032.1959	3047.5173	1302.15	422.7
1032.3059	3048.5498	1298.45	417.85
1032.4159	3049.5816	1300.25	420.45
1032.5258	3050.6128	1305.65	424.75
1032.6357	3051.6434	1301.45	418.85
1032.7455	3052.6734	1303.25	421.85
1032.8553	3053.7027	1296.3	416.25
1032.9651	3054.7314	1292.2	412.75
1033.0748	3055.7594	1292.85	411.6
1033.1845	3056.7868	1295.55	415.25
1033.2941	3057.8136	1291.15	412.35
1033.4037	3058.8398	1289.2	410.65
1033.5132	3059.8653	1284.9	405.4
1033.6227	3060.8902	1283.3	403.85
1033.7321	3061.9145	1282.6	404.5
1033.8415	3062.9381	1281.8	402.75
1033.9509	3063.9612	1296.45	400.05
1034.0602	3064.9835	1278.65	399.95
1034.1694	3066.0053	1276.75	394.15
1034.2787	3067.0264	1274.9	394.85
1034.3878	3068.0469	1275.5	394.55
1034.497	3069.0668	1268.2	384.25
1034.6061	3070.086	1272.1	390.9
1034.7151	3071.1046	1268.9	387.7
1034.8241	3072.1226	1269.65	389.2
1034.9331	3073.1399	1266.25	386.75
1035.042	3074.1567	1259.5	380.05
1035.1508	3075.1727	1267.4	387.15
1035.2597	3076.1882	1259.4	378.25
1035.3684	3077.203	1252.3	373.75
1035.4772	3078.2173	1256.5	375.45
1035.5859	3079.2308	1257.05	373.35
1035.6945	3080.2438	1258.85	376.85
1035.8031	3081.2561	1251.8	371.45
1035.9117	3082.2678	1248.45	368.6
1036.0202	3083.2789	1244.4	365.45
1036.1286	3084.2893	1246.45	367.6
1036.2371	3085.2991	1248.75	368.25
1036.3454	3086.3083	1249.5	367.45
1036.4538	3087.3169	1236.95	357.45
1036.562	3088.3248	1239.65	356.9
1036.6703	3089.3321	1234.65	353.5
1036.7785	3090.3388	1234.4	354.95
1036.8866	3091.3449	1231.5	352.5
1036.9948	3092.3503	1232.8	350.6
1037.1028	3093.3551	1222.4	343.1
1037.2108	3094.3593	1219.4	342.15
1037.3188	3095.3629	1224.45	344.85
1037.4267	3096.3658	1224.7	342.95
1037.5346	3097.3681	1220.55	341.6
1037.6425	3098.3698	1223.75	342.45
1037.7503	3099.3708	1221.3	335.55
1037.858	3100.3713	1213.7	334.75
1037.9657	3101.3711	1214.65	334.75
1038.0734	3102.3702	1346.1	330.2
1038.181	3103.3688	1214.5	332.8
1038.2886	3104.3667	1207.2	327.85
1038.3961	3105.364	1203.9	324.2
1038.5036	3106.3607	1209.75	329.15
1038.611	3107.3568	1202.05	321.7
1038.7184	3108.3522	1194.4	315.6
1038.8257	3109.347	1194.15	312.25
1038.933	3110.3412	1205.4	322.45
1039.0403	3111.3348	1196.35	314.55
1039.1475	3112.3277	1189.7	309.65
1039.2547	3113.32	1194.3	315.8
1039.3618	3114.3117	1193.75	314.1
1039.4689	3115.3028	1190.4	309.5
1039.5759	3116.2932	1184.9	301.5
1039.6829	3117.2831	1194.3	307.9
1039.7898	3118.2723	1179.05	300.25
1039.8967	3119.2608	1180.95	301.55
1040.0035	3120.2488	1177.6	298.55
1040.1103	3121.2361	1179.8	300.6
1040.2171	3122.2229	1175.5	296.4
1040.3238	3123.209	1173.8	291.9
1040.4305	3124.1944	1176.7	297.75
1040.5371	3125.1793	1170.25	288.25
1040.6437	3126.1635	1165.55	283.65
1040.7502	3127.1471	1167.25	287.2
1040.8567	3128.1301	1163.45	284.2
1040.9631	3129.1125	1165.5	287.35
1041.0695	3130.0942	1160.75	280.7
1041.1759	3131.0753	1171.3	284.25
1041.2822	3132.0558	1163.15	282.4
1041.3884	3133.0357	1160.75	282.15
1041.4946	3134.015	1162.65	279.9
1041.6008	3134.9936	1156.7	275.2
1041.7069	3135.9716	1177.1	273.9
1041.813	3136.949	1151.15	271.95
1041.919	3137.9258	1158.9	274.35
1042.025	3138.902	1155.9	269.85
1042.1309	3139.8775	1149.55	270
1042.2368	3140.8524	1146.7	267.2
1042.3427	3141.8267	1148.4	267.05
1042.4485	3142.8004	1145.3	265.75
1042.5542	3143.7735	1154.4	267.15
1042.6599	3144.7459	1144.55	262.85
1042.7656	3145.7178	1147.85	266.65
1042.8712	3146.689	1141.9	264.8
1042.9768	3147.6596	1137.9	257.4
1043.0823	3148.6295	1137.05	256.15
1043.1878	3149.5989	1138.7	257.6
1043.2932	3150.5676	1137.1	256
1043.3986	3151.5357	1136	258.1
1043.5039	3152.5032	1134.15	255.45
1043.6092	3153.4701	1134.45	254.75
1043.7145	3154.4364	1135.85	253.4
1043.8197	3155.402	1131.25	253.25
1043.9248	3156.367	1133.95	251.75
1044.03	3157.3315	1160.65	242.5
1044.135	3158.2952	1123.2	243.65
1044.24	3159.2584	1127.7	246.85
1044.345	3160.221	1124.15	243.9
1044.4499	3161.1829	1123.1	243.35
1044.5548	3162.1442	1121.5	243.3
1044.6596	3163.105	1114.3	235.5
1044.7644	3164.065	1116.55	236.05
1044.8692	3165.0245	1115.15	233.35
1044.9739	3165.9834	1115.2	238.55
1045.0785	3166.9416	1114.55	235.4
1045.1831	3167.8993	1113.5	233.75
1045.2877	3168.8563	1115.45	234.85
1045.3922	3169.8127	1109.75	228.65
1045.4966	3170.7684	1107.6	226.9
1045.6011	3171.7236	1106.25	225.3
1045.7054	3172.6782	1106.25	225.6
1045.8098	3173.6321	1106.25	227.4
1045.914	3174.5854	1107.75	222.75
1046.0183	3175.5381	1101.4	219.55
1046.1224	3176.4902	1100.65	221.6
1046.2266	3177.4417	1099.05	218
1046.3307	3178.3926	1092.1	210.75
1046.4347	3179.3428	1096.25	216.9
1046.5387	3180.2924	1097.7	220.05
1046.6427	3181.2415	1095.85	215.6
1046.7466	3182.1899	1099	218.65
1046.8504	3183.1377	1092.6	212.85
1046.9542	3184.0848	1095.9	212.85
1047.058	3185.0314	1089.9	211.8
1047.1617	3185.9773	1091.75	209.8
1047.2654	3186.9227	1088.9	207.05
1047.369	3187.8674	1086.25	205.7
1047.4726	3188.8115	1089.95	206.7
1047.5761	3189.755	1081.95	203.3
1047.6796	3190.6979	1082.5	203.75
1047.783	3191.6402	1077.65	199.65
1047.8864	3192.5818	1080.8	201.15
1047.9898	3193.5229	1086	199.1
1048.0931	3194.4633	1078.45	198.3
1048.1963	3195.4031	1076.35	193.05
1048.2995	3196.3423	1079	199.6
1048.4027	3197.2809	1078.25	198.1
1048.5058	3198.2189	1076.35	197.9
1048.6089	3199.1563	1077.75	191.05
1048.7119	3200.0931	1073.55	197.1
1048.8148	3201.0292	1071.7	193.15
1048.9178	3201.9648	1070.3	190.45
1049.0206	3202.8997	1073.45	190.5
1049.1235	3203.834	1069.45	188.35
1049.2262	3204.7677	1065.05	186.65
1049.329	3205.7008	1071.35	189.45
1049.4317	3206.6333	1067.55	188.55
1049.5343	3207.5652	1071.9	188.9
1049.6369	3208.4964	1061.75	182.4
1049.7394	3209.4271	1062.35	181.8
1049.8419	3210.3571	1061.5	183.3
1049.9444	3211.2865	1059.2	177.5
1050.0468	3212.2154	1062.65	182.8
1050.1491	3213.1436	1061.9	179.95
1050.2514	3214.0712	1063.55	176.95
1050.3537	3214.9982	1061.1	181.7
1050.4559	3215.9246	1053.6	171.8
1050.5581	3216.8503	1053.75	177.8
1050.6602	3217.7755	1056.65	176.6
1050.7623	3218.7001	1053.8	175.3
1050.8643	3219.624	1053	171.1
1050.9663	3220.5473	1052.8	174.65
1051.0682	3221.4701	1053.15	171.85
1051.1701	3222.3922	1054.15	172.35
1051.2719	3223.3137	1054.35	173.9
1051.3737	3224.2346	1052.15	172
1051.4754	3225.1549	1051	169.9
1051.5771	3226.0746	1047.7	167.1
1051.6788	3226.9937	1046.1	164.7
1051.7804	3227.9121	1046.6	167.9
1051.8819	3228.83	1043	162.85
1051.9834	3229.7473	1043.95	164.75
1052.0849	3230.6639	1043.7	163.2
1052.1863	3231.5799	1041	163.35
1052.2876	3232.4954	1040.4	159.75
1052.3889	3233.4102	1039.2	160.95
1052.4902	3234.3244	1036.25	157.15
1052.5914	3235.238	1038.15	157.5
1052.6926	3236.151	1062.2	156.95
1052.7937	3237.0634	1033.1	156.05
1052.8948	3237.9752	1033.7	155.2
1052.9958	3238.8864	1029.25	149.25
1053.0968	3239.797	1032.85	153.35
1053.1977	3240.7069	1035.95	156.35
1053.2986	3241.6163	1031.4	148.9
1053.3994	3242.5251	1031.65	153.25
1053.5002	3243.4332	1026.35	148.3
1053.6009	3244.3408	1029.15	148.5
1053.7016	3245.2477	1027	146.25
1053.8022	3246.154	1029.5	150.7
1053.9028	3247.0598	1025.45	145.6
1054.0034	3247.9649	1022.65	143.9
1054.1039	3248.8694	1025	144.4
1054.2043	3249.7733	1022.95	142.5
1054.3047	3250.6766	1018.5	136.95
1054.4051	3251.5793	1020.3	139.65
1054.5054	3252.4814	1023.5	144.55
1054.6056	3253.3829	1025.05	145.75
1054.7058	3254.2838	1019.8	142.1
1054.806	3255.1841	1014.25	134.75
1054.9061	3256.0838	1016.6	136.1
1055.0061	3256.9829	1012.2	132.5
1055.1062	3257.8814	1016.2	132.6
1055.2061	3258.7792	1016.8	135.05
1055.306	3259.6765	1009.4	128.25
1055.4059	3260.5731	1010.9	131.05
1055.5057	3261.4692	1009.75	127.55
1055.6055	3262.3647	1006.55	125.2
1055.7052	3263.2595	1004.75	127.4
1055.8049	3264.1538	1007.35	127.85
1055.9045	3265.0474	1000.25	121.1
1056.0041	3265.9404	996.1	118.1
1056.1036	3266.8329	998.45	120.1
1056.2031	3267.7247	1003.3	113.8
1056.3025	3268.616	991.35	112.6
1056.4019	3269.5066	989.9	108.95
1056.5013	3270.3966	986.85	104.85
1056.6005	3271.286	984.5	106.25
