Software Version:	3.9.2.0
Unit SN:	10000200
Spectrometer SN:	6960
Date:	3/6/2024 9:34:16 AM
Data Line Index:	25
Spectral Points:	2048
Integration time (ms):	125
Averages:	20
Delay (ms):	30
Sequence Number:	1
Processing:	dark subtract
Laser Power (mW):	300
Laser Current (mA):	825
Laser Diode Temp (C):	25.1
Laser Case Temp (C):	23.8
System Temp (C):	23.6
Spectrometer Temp (C):	21.2
CCD Temp (C):	-0.038
Secondary Temp (C):	20.011
Heatsink Temp (C):	17.821
CCDPCB Temp (C):	30.482
SecondaryPCB Temp (C):	25.413

Wavelength	RamanShift	Raw Counts	Dark Subtracted
787.061	30.1047	515.25	108.6
787.2016	32.3739	516.35	110.15
787.3422	34.6426	521.75	116.95
787.4828	36.9109	532.1	124.3
787.6235	39.1787	544.45	133
787.7642	41.4461	556.2	140.7
787.9049	43.7131	569.1	148.2
788.0456	45.9796	578.05	155.4
788.1863	48.2456	590.5	161.95
788.3271	50.5112	601.9	171.95
788.4679	52.7764	616.65	183.05
788.6087	55.0411	637.3	198.7
788.7496	57.3054	646.55	204.2
788.8904	59.5692	659.9	215.75
789.0313	61.8326	676.4	230.55
789.1722	64.0955	696.5	247.75
789.3132	66.3579	721.55	266.2
789.4541	68.6199	753.9	295.8
789.5951	70.8815	798.2	333.95
789.7361	73.1426	913.25	447.15
789.8771	75.4032	1181.95	712.7
790.0181	77.6634	1836.4	1363.7
790.1592	79.9231	3460.1	2985.3
790.3003	82.1824	6965.75	6485.8
790.4414	84.4412	13112	12625.65
790.5825	86.6995	21446.5	20951.7
790.7237	88.9574	29512.6	29010.1
790.8648	91.2148	35181.3	34675.2
791.006	93.4717	38231.35	37718.75
791.1472	95.7282	39525.15	39011.6
791.2885	97.9842	40182.15	39667.4
791.4297	100.2398	40492.7	39976.7
791.571	102.4949	40485.1	39963.95
791.7123	104.7495	40659.2	40136.6
791.8536	107.0036	40567.3	40040.4
791.9949	109.2573	40808.3	40284.75
792.1363	111.5105	40670.45	40143.4
792.2777	113.7632	40845.7	40316.05
792.4191	116.0154	40938.85	40396.75
792.5605	118.2672	41159.4	40625.75
792.7019	120.5185	41158.65	40624.35
792.8434	122.7693	41238.9	40699.95
792.9849	125.0197	41302.6	40757.15
793.1264	127.2696	41485.15	40937.4
793.2679	129.519	41733.35	41182.25
793.4094	131.7679	41989.55	41438.25
793.551	134.0163	41549.95	40995
793.6926	136.2642	41819.95	41258.65
793.8342	138.5117	42070.95	41509.9
793.9758	140.7587	42054.45	41492.4
794.1175	143.0052	42190.55	41627.1
794.2591	145.2512	42013.4	41448.45
794.4008	147.4967	42175.05	41609.4
794.5425	149.7417	42134.5	41563.05
794.6842	151.9863	42182.95	41608
794.826	154.2304	42035.8	41458.75
794.9677	156.4739	42121.75	41538.35
795.1095	158.717	42269.4	41687.55
795.2513	160.9596	42317.3	41730.15
795.3931	163.2017	42170	41581.15
795.535	165.4433	42444.3	41853.55
795.6768	167.6844	42308.8	41715.85
795.8187	169.925	42453.35	41857.85
795.9606	172.1651	42375.05	41773.65
796.1025	174.4047	42365.75	41758.9
796.2445	176.6439	42436.35	41828.45
796.3864	178.8825	42510.25	41898.9
796.5284	181.1206	42659.8	42044.05
796.6704	183.3582	42696.5	42079.35
796.8124	185.5954	42614.5	41995.7
796.9544	187.832	42738.25	42114.8
797.0965	190.0681	42772.5	42146.55
797.2386	192.3037	43009.25	42378.35
797.3806	194.5388	43270.8	42638.3
797.5228	196.7734	42896.45	42264.55
797.6649	199.0075	43322.8	42687.4
797.807	201.2411	43488.9	42853.05
797.9492	203.4742	43636.7	42998.25
798.0914	205.7068	43770.3	43127.9
798.2336	207.9389	43835.85	43192.25
798.3758	210.1704	43897.1	43260.8
798.518	212.4015	44054.55	43429.2
798.6603	214.632	43830.95	43211.5
798.8025	216.862	44151.65	43532.4
798.9448	219.0915	44218.55	43597
799.0871	221.3205	44166.5	43541.4
799.2294	223.549	44405.25	43786.3
799.3718	225.777	44493.55	43874.45
799.5141	228.0044	44499	43869.1
799.6565	230.2314	44668.85	44036.7
799.7989	232.4578	44653.65	44017.2
799.9413	234.6837	44688.75	44042.05
800.0837	236.909	45063.3	44415.95
800.2262	239.1339	44669.85	43998.65
800.3687	241.3582	44936.7	44282.1
800.5111	243.582	44941.9	44253.6
800.6536	245.8053	45066.4	44393.05
800.7961	248.0281	45012.35	44342.15
800.9387	250.2503	45095	44422.3
801.0812	252.472	45126.65	44454.45
801.2238	254.6932	45197.15	44525.6
801.3664	256.9139	45127.75	44453.05
801.509	259.134	45505.5	44826.95
801.6516	261.3536	45056.8	44380.5
801.7942	263.5727	45466.45	44788.05
801.9369	265.7912	45352.45	44675.15
802.0795	268.0092	45447.05	44766.25
802.2222	270.2267	45478.95	44797.7
802.3649	272.4436	45485.5	44803.65
802.5076	274.6601	45579.7	44885.05
802.6504	276.8759	45665.2	44976.5
802.7931	279.0913	45800.95	45113.35
802.9359	281.3061	45710.05	45020.15
803.0787	283.5204	45882.35	45188.4
803.2215	285.7341	45898.8	45203.5
803.3643	287.9473	46146.65	45439.7
803.5071	290.16	45923.65	45224.4
803.6499	292.3721	46252.25	45559
803.7928	294.5837	45733.8	45040.65
803.9357	296.7947	45686.05	44991.2
804.0786	299.0052	45888	45192.9
804.2215	301.2152	45773.9	45074.25
804.3644	303.4246	45956.35	45260.6
804.5074	305.6334	45886.1	45188.75
804.6503	307.8418	45774.25	45073.55
804.7933	310.0495	45820.55	45117.45
804.9363	312.2568	45762.8	45058.45
805.0793	314.4635	45621.8	44917.55
805.2223	316.6696	45630.95	44923
805.3653	318.8752	45679.45	44961.15
805.5084	321.0802	45297.95	44587.4
805.6514	323.2847	45453.8	44742.1
805.7945	325.4887	45448.3	44737.15
805.9376	327.692	45342.15	44627.95
806.0807	329.8949	45612.05	44897.1
806.2238	332.0972	45588.1	44871.85
806.367	334.2989	45672.95	44953.95
806.5101	336.5001	45739.95	45018.55
806.6533	338.7007	45594.6	44875.25
806.7965	340.9008	45683.8	44962.25
806.9397	343.1003	45595.4	44869.15
807.0829	345.2992	45673.65	44949.3
807.2261	347.4976	45501.9	44774.6
807.3693	349.6955	45505.35	44773.65
807.5126	351.8927	45516.95	44788.5
807.6559	354.0895	45556.55	44817.4
807.7991	356.2856	45566.55	44832.4
807.9424	358.4812	45611.45	44879.4
808.0857	360.6763	45543.05	44807.85
808.2291	362.8707	45491.6	44753.8
808.3724	365.0646	45548.15	44805.95
808.5158	367.258	45493.5	44749.55
808.6591	369.4508	45402.45	44657.95
808.8025	371.643	45492.05	44743.95
808.9459	373.8346	45373.5	44625.15
809.0893	376.0257	45282.8	44531.4
809.2327	378.2162	45250.45	44501.7
809.3762	380.4062	45314.15	44566.2
809.5196	382.5956	45207.3	44455.6
809.6631	384.7844	45236.8	44492.9
809.8066	386.9726	45149.5	44407.75
809.9501	389.1603	45139.75	44401.2
810.0936	391.3474	44978.9	44190.1
810.2371	393.5339	45097.1	44353.1
810.3806	395.7199	44781.35	44037.65
810.5241	397.9052	44864.25	44120.85
810.6677	400.09	44941.75	44197.1
810.8113	402.2743	44980.45	44235.95
810.9548	404.4579	44893.65	44146.05
811.0984	406.641	44921.9	44173.35
811.2421	408.8235	45074.5	44323.75
811.3857	411.0054	45031.35	44279.15
811.5293	413.1868	45148.8	44393.35
811.673	415.3675	45104.75	44344
811.8166	417.5477	45038.85	44277.55
811.9603	419.7273	45027.4	44265.45
812.104	421.9064	44829.2	44056.05
812.2477	424.0848	44755.15	43990.05
812.3914	426.2627	44651.1	43884.05
812.5351	428.4399	44496.3	43729.65
812.6788	430.6166	44381.8	43611.6
812.8226	432.7928	44312.45	43539.5
812.9663	434.9683	44189.4	43418
813.1101	437.1432	44155.3	43381.75
813.2539	439.3176	43981.75	43208.85
813.3977	441.4914	43823.45	43050.75
813.5415	443.6645	43833.75	43058.15
813.6853	445.8371	43631.05	42859.05
813.8291	448.0091	43514.15	42738.75
813.973	450.1806	43402.25	42627.95
814.1168	452.3514	43295.8	42519.2
814.2607	454.5216	43302.4	42515.15
814.4046	456.6913	43051.6	42274.65
814.5485	458.8603	43105.45	42325.85
814.6924	461.0288	43170.35	42392.45
814.8363	463.1967	43040.25	42263.8
814.9802	465.3639	43155.3	42376.8
815.1241	467.5306	42989.45	42209.45
815.2681	469.6967	42848.2	42067.6
815.412	471.8622	42791.95	42009.55
815.556	474.0271	42734.85	41953.8
815.7	476.1914	42728.6	41944.35
815.844	478.3551	42738.9	41957.05
815.988	480.5182	42795.35	42012.65
816.132	482.6807	42725.9	41941.2
816.276	484.8426	42820.8	42039.4
816.4201	487.0039	42870.6	42085.15
816.5641	489.1647	42875.3	42087.85
816.7082	491.3248	42915.3	42128.95
816.8522	493.4843	42891.1	42104.45
816.9963	495.6432	42850.7	42064.6
817.1404	497.8015	42670.1	41877.75
817.2845	499.9592	42755.1	41963.35
817.4286	502.1163	42678.35	41888.9
817.5727	504.2728	42569	41776.15
817.7168	506.4287	42645.9	41853.45
817.861	508.5839	42488.8	41695.65
818.0051	510.7386	42454.45	41660.65
818.1493	512.8927	42450.1	41647.05
818.2935	515.0461	42467.35	41671.7
818.4377	517.199	42511.9	41714.15
818.5818	519.3512	42460.95	41663.4
818.726	521.5029	42456.95	41653.7
818.8703	523.6539	42464.1	41666.05
819.0145	525.8043	42393.1	41592.35
819.1587	527.9541	42323.7	41518.85
819.303	530.1033	42236.9	41435.25
819.4472	532.2519	42148.5	41346.35
819.5915	534.3999	42127.25	41322.8
819.7357	536.5472	42058.9	41257.55
819.88	538.694	42005.05	41200.8
820.0243	540.8401	42075.9	41272.4
820.1686	542.9856	42033.55	41229.1
820.3129	545.1305	41978.3	41172.3
820.4572	547.2748	42027.25	41222.25
820.6016	549.4185	42035.75	41226.65
820.7459	551.5615	41956.15	41151
820.8902	553.704	41938.25	41133
821.0346	555.8458	41823.35	41019.4
821.1789	557.987	41869.95	41065.45
821.3233	560.1276	41793.85	40988.8
821.4677	562.2675	41914.95	41109.55
821.6121	564.4069	41859.7	41054.8
821.7565	566.5456	41821.35	41014.65
821.9009	568.6837	41800.2	40993.95
822.0453	570.8212	41577.5	40771.75
822.1897	572.958	41474.95	40664.55
822.3342	575.0942	41336.5	40530.15
822.4786	577.2299	41215.05	40405.55
822.6231	579.3648	41061.3	40251.3
822.7675	581.4992	40914.4	40104.3
822.912	583.6329	40753.7	39943.75
823.0565	585.766	40723.9	39915
823.201	587.8985	40696.6	39887.75
823.3454	590.0304	40616.75	39793.15
823.4899	592.1616	40556.5	39740.5
823.6345	594.2922	40510.75	39695.95
823.779	596.4222	40403.55	39587.2
823.9235	598.5515	40305.95	39488.5
824.068	600.6802	40093.5	39275.4
824.2126	602.8083	39893.1	39077.95
824.3571	604.9358	39971.45	39151.7
824.5017	607.0626	39824.7	39005.45
824.6462	609.1888	39730.7	38911.2
824.7908	611.3144	39761.6	38941.45
824.9354	613.4393	39655.65	38837.2
825.08	615.5636	39711.45	38892.45
825.2246	617.6873	39690	38869.9
825.3692	619.8103	39721.5	38900.65
825.5138	621.9327	39608.75	38785.4
825.6584	624.0544	39567.65	38747.25
825.803	626.1756	39513.65	38691.35
825.9477	628.2961	39392.7	38570.4
826.0923	630.4159	39301.85	38479.7
826.237	632.5351	39325.4	38503.85
826.3816	634.6537	39222.2	38398.3
826.5263	636.7716	39175.05	38348.4
826.6709	638.8889	39187.85	38363.55
826.8156	641.0056	39234.4	38408.25
826.9603	643.1216	39123.85	38297.45
827.105	645.237	39177.95	38351.65
827.2497	647.3518	39033.15	38208.55
827.3944	649.4659	39069.8	38244.4
827.5391	651.5793	38919.45	38093
827.6838	653.6922	38894.05	38069.2
827.8285	655.8043	38816.8	37989.6
827.9733	657.9159	38800.05	37972.45
828.118	660.0268	38662.05	37830.6
828.2627	662.137	38541.65	37714.6
828.4075	664.2466	38555.6	37724
828.5522	666.3556	38546.75	37718.15
828.697	668.4639	38445.3	37609.9
828.8418	670.5716	38442	37612.2
828.9865	672.6786	38401.75	37569
829.1313	674.785	38260.85	37429.2
829.2761	676.8907	38153.35	37320.65
829.4209	678.9958	38141.3	37310.05
829.5657	681.1002	38062.35	37231.05
829.7105	683.204	37955.65	37119.95
829.8553	685.3072	37911.5	37078.8
830.0001	687.4097	37865.45	37030.85
830.1449	689.5115	37827.3	36991.05
830.2898	691.6127	37731.65	36896.65
830.4346	693.7132	37676.5	36841.1
830.5794	695.8131	37737.75	36879.4
830.7243	697.9123	37738.55	36900.3
830.8691	700.0109	37654.5	36819.35
831.014	702.1089	37638.45	36801.95
831.1588	704.2061	37545.8	36709.65
831.3037	706.3028	37563.15	36726.5
831.4486	708.3987	37525.25	36686.15
831.5935	710.4941	37472.55	36633.7
831.7383	712.5887	37496.9	36657.5
831.8832	714.6827	37455	36612.5
832.0281	716.7761	37362	36524.75
832.173	718.8688	37340.95	36502.3
832.3179	720.9608	37257.45	36414.9
832.4628	723.0522	37308.9	36466.65
832.6077	725.1429	37205.15	36364.35
832.7527	727.233	37217.75	36376.55
832.8976	729.3224	37240.3	36398.75
833.0425	731.4112	37132.3	36288.8
833.1874	733.4993	37029.45	36183.9
833.3324	735.5867	36949.1	36104.65
833.4773	737.6735	36834.9	35993.5
833.6222	739.7596	36759.65	35915.8
833.7672	741.845	36671.5	35828.95
833.9122	743.9298	36554.4	35708.3
834.0571	746.014	36486.8	35644.25
834.2021	748.0974	36491.25	35645.75
834.347	750.1802	36343.4	35498.55
834.492	752.2624	36220.85	35374.85
834.637	754.3439	36095.8	35247.65
834.782	756.4247	36015.25	35160.55
834.9269	758.5048	35874.1	35029.85
835.0719	760.5843	35873.2	35026.9
835.2169	762.6631	35738.2	34891.9
835.3619	764.7413	35707.1	34861.5
835.5069	766.8188	35785.1	34937.7
835.6519	768.8956	35662.1	34813.7
835.7969	770.9718	35744.95	34897.6
835.9419	773.0473	35565.15	34719.7
836.0869	775.1221	35503.85	34658.6
836.232	777.1962	35350.75	34503.9
836.377	779.2697	35304.6	34455.95
836.522	781.3426	35347	34479.4
836.667	783.4147	35274.55	34424.75
836.8121	785.4862	35256.45	34411.85
836.9571	787.557	35119.35	34270.4
837.1021	789.6271	35004.1	34155.55
837.2472	791.6966	34805.3	33954.45
837.3922	793.7654	34649.6	33798.75
837.5373	795.8335	34635.85	33788.15
837.6823	797.901	34490.05	33641.1
837.8274	799.9678	34480.25	33629.65
837.9724	802.0339	34377.85	33528.1
838.1175	804.0993	34407.4	33548.1
838.2626	806.1641	34250.85	33399.5
838.4076	808.2282	34165.95	33316.35
838.5527	810.2916	34147.3	33291.75
838.6978	812.3544	34068.6	33219.55
838.8428	814.4164	33957.05	33105
838.9879	816.4778	34022.15	33168.95
839.133	818.5385	33862.7	33010.05
839.2781	820.5986	33916.05	33065.65
839.4232	822.658	33923.75	33070.1
839.5682	824.7166	33847.1	32995.9
839.7133	826.7747	33967.25	33113.9
839.8584	828.832	33954.95	33101.5
840.0035	830.8886	33781.55	32926.05
840.1486	832.9446	33792.75	32937.55
840.2937	834.9999	33718.4	32866.05
840.4388	837.0545	33719.6	32861.95
840.5839	839.1085	33551.3	32698.1
840.729	841.1618	33438.05	32579.8
840.8741	843.2143	33305.35	32451.4
841.0192	845.2662	33157.95	32304.15
841.1643	847.3175	33161.6	32305.8
841.3095	849.368	33080.9	32225.7
841.4546	851.4179	32991.65	32136.85
841.5997	853.467	32857.6	32001.35
841.7448	855.5155	32838.95	31984.9
841.8899	857.5633	32748.5	31892.6
842.0351	859.6105	32653.4	31798.95
842.1802	861.6569	32633.5	31777.95
842.3253	863.7027	32618.65	31761.2
842.4704	865.7478	32563.8	31706.75
842.6156	867.7922	32517.25	31661.1
842.7607	869.8359	32433.9	31576.3
842.9058	871.8789	32378.4	31520.55
843.0509	873.9212	32382.55	31492.05
843.1961	875.9629	32276.15	31419.05
843.3412	878.0039	32256.6	31397.05
843.4863	880.0441	32182.7	31324.8
843.6315	882.0837	32221.65	31363.45
843.7766	884.1226	32243.35	31385.25
843.9218	886.1609	32207.3	31349.55
844.0669	888.1984	32211.15	31352.05
844.212	890.2352	32289.75	31432.5
844.3572	892.2714	32185.95	31323.7
844.5023	894.3069	32153.6	31292.95
844.6475	896.3416	31959.7	31099.7
844.7926	898.3757	31930.9	31072.15
844.9377	900.4091	31893.35	31032.5
845.0829	902.4418	31842.15	30976.45
845.228	904.4739	31711.5	30846.45
845.3732	906.5052	31724.15	30863.6
845.5183	908.5358	31651.6	30791.75
845.6635	910.5658	31570.8	30710.05
845.8086	912.595	31478.1	30617.7
845.9538	914.6236	31430.6	30570.75
846.0989	916.6515	31332.9	30473.8
846.2441	918.6786	31263.75	30400.4
846.3892	920.7051	31214	30349.55
846.5344	922.7309	31278.4	30416.75
846.6795	924.756	31062.85	30199.35
846.8246	926.7804	31123.55	30259.8
846.9698	928.8041	30887.65	30024.3
847.1149	930.8272	30904.4	30041.55
847.2601	932.8495	30775.1	29909.25
847.4052	934.8711	30745.15	29879.35
847.5504	936.892	30621.9	29758.05
847.6955	938.9123	30546.1	29682.5
847.8407	940.9318	30501.05	29637.25
847.9858	942.9506	30412.9	29549.1
848.131	944.9688	30291.3	29427.15
848.2761	946.9862	30228.9	29366
848.4213	949.003	30028.6	29163.15
848.5664	951.019	29975.4	29112.9
848.7115	953.0344	29931.2	29065.25
848.8567	955.0491	29881.65	29017.3
849.0018	957.063	29854.8	28990.6
849.147	959.0763	29808.8	28944.25
849.2921	961.0888	29697.35	28830.45
849.4373	963.1007	29706	28840.7
849.5824	965.1119	29718.5	28854.45
849.7275	967.1223	29665.1	28801.1
849.8727	969.1321	29565.75	28702.2
850.0178	971.1412	29534.65	28671.15
850.1629	973.1495	29423.9	28558.3
850.3081	975.1572	29420	28507.85
850.4532	977.1641	29384.6	28518.75
850.5983	979.1704	29277.55	28409.75
850.7435	981.1759	29210.3	28341.9
850.8886	983.1808	29147.95	28280.9
851.0337	985.1849	29066.75	28193.45
851.1788	987.1884	28984.85	28117.15
851.324	989.1911	28966.15	28095.55
851.4691	991.1932	28960.15	28091.05
851.6142	993.1945	28765.5	27900.5
851.7593	995.1951	28630.25	27763.65
851.9045	997.1951	28687.75	27812.1
852.0496	999.1943	28563.75	27697.35
852.1947	1001.1928	28423.85	27554.8
852.3398	1003.1906	28336.4	27468.8
852.4849	1005.1877	28308.05	27441.15
852.63	1007.1841	28208.8	27340.25
852.7751	1009.1798	28093.55	27225.05
852.9202	1011.1748	27958.7	27091.55
853.0653	1013.1691	27950.05	27081.05
853.2104	1015.1627	27794.65	26926.65
853.3555	1017.1556	27604.75	26736.2
853.5006	1019.1477	27517.95	26648.75
853.6457	1021.1392	27373.55	26506.65
853.7908	1023.1299	27315.2	26445.75
853.9359	1025.12	27184.5	26314.45
854.081	1027.1093	27051.35	26186.65
854.2261	1029.0979	27027.1	26160.65
854.3712	1031.0859	26953.8	26087.85
854.5163	1033.0731	26887.6	26019.75
854.6613	1035.0596	26804.95	25936.4
854.8064	1037.0454	26648.35	25777.25
854.9515	1039.0304	26628.45	25760.2
855.0965	1041.0148	26472.6	25602.9
855.2416	1042.9985	26374	25503.35
855.3867	1044.9814	26388.8	25520.45
855.5317	1046.9636	26256.6	25383.75
855.6768	1048.9452	26140.1	25270.85
855.8219	1050.926	26130.5	25262.2
855.9669	1052.9061	26040.25	25171.5
856.112	1054.8855	25965.4	25096.15
856.257	1056.8642	25958.25	25088.7
856.4021	1058.8421	25959	25085.5
856.5471	1060.8194	25848.5	24977.9
856.6921	1062.7959	25807.5	24939.1
856.8372	1064.7717	25747.15	24877.35
856.9822	1066.7469	25717.3	24844.85
857.1272	1068.7213	25629.95	24756.1
857.2723	1070.695	25677.4	24805.9
857.4173	1072.6679	25563.4	24693.15
857.5623	1074.6402	25511.9	24641.2
857.7073	1076.6117	25515.55	24639.15
857.8523	1078.5826	25482.85	24611.3
857.9973	1080.5527	25367.2	24492.4
858.1423	1082.5221	25245.7	24374.45
858.2873	1084.4908	25180.55	24307.5
858.4323	1086.4587	25098.5	24226.45
858.5773	1088.426	25088.55	24215.9
858.7223	1090.3925	24973.6	24096.75
858.8673	1092.3584	24981.35	24110.55
859.0123	1094.3235	24796.65	23926.5
859.1573	1096.2879	24746.05	23872.45
859.3022	1098.2515	24713.65	23842.15
859.4472	1100.2145	24771.25	23900.35
859.5922	1102.1767	24706.75	23830.4
859.7371	1104.1382	24687.2	23815.1
859.8821	1106.099	24723.7	23848.75
860.027	1108.0591	24684.3	23810.1
860.172	1110.0185	24640.95	23767.35
860.3169	1111.9771	24636.5	23763.75
860.4619	1113.9351	24596.2	23723.1
860.6068	1115.8923	24593.5	23721
860.7517	1117.8488	24544.75	23670.25
860.8967	1119.8045	24451.6	23580.9
861.0416	1121.7596	24328.3	23453.9
861.1865	1123.7139	24153.55	23280.1
861.3314	1125.6675	24034.35	23163.35
861.4763	1127.6204	24080.85	23206.95
861.6212	1129.5726	23997	23120.45
861.7661	1131.524	24004.5	23132
861.911	1133.4748	23903.8	23029.1
862.0559	1135.4248	23765.35	22891.35
862.2008	1137.3741	23684.1	22811.25
862.3457	1139.3226	23610.5	22735.45
862.4905	1141.2705	23638.85	22763.85
862.6354	1143.2176	23460.85	22581.95
862.7803	1145.164	23480.1	22605.65
862.9251	1147.1097	23429.75	22553.25
863.07	1149.0546	23424.3	22549.95
863.2148	1150.9989	23329.95	22455.75
863.3597	1152.9424	23339.9	22465.6
863.5045	1154.8852	23250.5	22376.1
863.6493	1156.8272	23243.15	22368.9
863.7942	1158.7686	23246.6	22365
863.939	1160.7092	23126.55	22252.15
864.0838	1162.6491	23054.05	22177.8
864.2286	1164.5883	23101.05	22225.1
864.3734	1166.5267	23006.9	22129.85
864.5182	1168.4644	23018.3	22142.65
864.663	1170.4014	22972.3	22093.95
864.8078	1172.3377	23029.55	22154.65
864.9526	1174.2732	23017.75	22145
865.0974	1176.2081	23118.2	22243.7
865.2421	1178.1421	23204.25	22322.8
865.3869	1180.0755	23302.4	22430.7
865.5317	1182.0082	23270.65	22394.1
865.6764	1183.9401	23218.05	22341.6
865.8212	1185.8713	23051.5	22177
865.9659	1187.8017	22898.7	22022.25
866.1106	1189.7315	22782.25	21909.35
866.2554	1191.6605	22558.9	21685.35
866.4001	1193.5888	22477.5	21602.15
866.5448	1195.5163	22371.1	21497.45
866.6895	1197.4432	22290.65	21413.45
866.8342	1199.3693	22213.6	21339.75
866.9789	1201.2947	22104.85	21224.5
867.1236	1203.2193	22044.35	21168.3
867.2683	1205.1432	22021.65	21144.5
867.413	1207.0664	21939.65	21064.85
867.5576	1208.9889	21852.15	20974.05
867.7023	1210.9106	21796.05	20920.85
867.847	1212.8316	21720.25	20843.2
867.9916	1214.7519	21721.05	20837.6
868.1363	1216.6715	21613.85	20737.45
868.2809	1218.5903	21624.25	20749.2
868.4255	1220.5084	21562.95	20684.5
868.5701	1222.4257	21564.25	20689.55
868.7148	1224.3424	21456.45	20581.3
868.8594	1226.2583	21440.15	20563.35
869.004	1228.1735	21449.9	20571.75
869.1486	1230.0879	21382.85	20506.25
869.2932	1232.0016	21365.1	20489.5
869.4377	1233.9146	21311.35	20434
869.5823	1235.8269	21269.2	20393
869.7269	1237.7384	21295.6	20417.6
869.8715	1239.6492	21204	20328.9
870.016	1241.5592	21224.05	20346.35
870.1606	1243.4686	21164.65	20286.85
870.3051	1245.3772	21213.7	20336.15
870.4496	1247.285	21192.3	20315.1
870.5941	1249.1922	21254.85	20378.3
870.7387	1251.0986	21266.1	20390.15
870.8832	1253.0042	21225.65	20349.45
871.0277	1254.9092	21299.95	20419.5
871.1722	1256.8134	21342.35	20466.9
871.3167	1258.7169	21382.95	20505.4
871.4611	1260.6196	21397.95	20518.95
871.6056	1262.5216	21471.25	20593.65
871.7501	1264.4229	21400.35	20526.1
871.8945	1266.3234	21404.6	20524.95
872.039	1268.2232	21295.15	20415.05
872.1834	1270.1223	21213.4	20333.2
872.3278	1272.0207	21125.05	20246.85
872.4723	1273.9183	21059.55	20174.75
872.6167	1275.8151	20992.75	20115.2
872.7611	1277.7113	21025	20146.15
872.9055	1279.6067	21044.6	20167.4
873.0499	1281.5014	21110.35	20231.65
873.1943	1283.3953	21238	20359.7
873.3386	1285.2885	21469.1	20594.4
873.483	1287.181	21553.65	20673.7
873.6274	1289.0727	21631	20754.65
873.7717	1290.9637	21567.7	20691.1
873.9161	1292.854	21492.3	20615.05
874.0604	1294.7435	21293.25	20414.85
874.2047	1296.6323	21177.6	20299.95
874.349	1298.5204	21042.8	20163
874.4933	1300.4077	20967.45	20087.85
874.6376	1302.2943	20880.85	20001.8
874.7819	1304.1802	20835.5	19958
874.9262	1306.0653	20742.9	19864.15
875.0705	1307.9497	20676	19795.6
875.2147	1309.8333	20648.5	19768.55
875.359	1311.7162	20608.55	19730.95
875.5032	1313.5984	20587.35	19706.5
875.6475	1315.4798	20474.55	19597.4
875.7917	1317.3605	20450.75	19569.6
875.9359	1319.2405	20417.3	19537.75
876.0801	1321.1197	20361.95	19480.8
876.2243	1322.9982	20286	19400.9
876.3685	1324.876	20265	19386.9
876.5127	1326.753	20133.8	19254.3
876.6569	1328.6293	20046.25	19164.2
876.801	1330.5048	19978.1	19098.5
876.9452	1332.3796	19839.95	18960.4
877.0893	1334.2537	19784.65	18878.55
877.2335	1336.127	19676.2	18798.7
877.3776	1337.9996	19610.75	18730.05
877.5217	1339.8714	19546.3	18668.7
877.6658	1341.7426	19522.9	18599.4
877.8099	1343.6129	19462.55	18583.5
877.954	1345.4826	19400.75	18520.5
878.0981	1347.3515	19390.35	18506.85
878.2422	1349.2196	19344.45	18465.7
878.3862	1351.087	19320.65	18442.05
878.5303	1352.9537	19296.05	18415.7
878.6743	1354.8197	19296.95	18417.65
878.8184	1356.6849	19303.15	18424.45
878.9624	1358.5493	19225.45	18346.8
879.1064	1360.4131	19222.45	18342.7
879.2504	1362.276	19210.65	18332.7
879.3944	1364.1383	19235.5	18357.15
879.5384	1365.9998	19171.95	18285.7
879.6823	1367.8606	19110.85	18231.45
879.8263	1369.7206	19077.9	18197.8
879.9702	1371.5799	19072.35	18191.2
880.1142	1373.4384	19007.45	18128.15
880.2581	1375.2962	18963.95	18084.15
880.402	1377.1533	18849.7	17970.7
880.5459	1379.0096	18698.75	17817.05
880.6898	1380.8652	18637.1	17756.95
880.8337	1382.7201	18566.25	17686.55
880.9776	1384.5742	18441.8	17561.75
881.1215	1386.4275	18357.25	17475.05
881.2653	1388.2802	18283.15	17404.7
881.4092	1390.132	18220	17340.65
881.553	1391.9832	18221.5	17343.05
881.6968	1393.8336	18108.2	17227.55
881.8406	1395.6832	18084.75	17203.7
881.9844	1397.5322	18017.1	17135.45
882.1282	1399.3803	17947.9	17062.2
882.272	1401.2278	17874.55	16994.05
882.4158	1403.0745	17831.15	16952
882.5595	1404.9204	17715.1	16833.7
882.7033	1406.7656	17717.45	16836.45
882.847	1408.6101	17608.25	16724.25
882.9908	1410.4538	17562.3	16682.1
883.1345	1412.2968	17549.5	16668.8
883.2782	1414.139	17441	16560.5
883.4219	1415.9805	17447.95	16567.7
883.5656	1417.8213	17380.35	16482.05
883.7092	1419.6613	17324.4	16445.6
883.8529	1421.5006	17352.95	16472.7
883.9965	1423.3391	17326.25	16446.05
884.1402	1425.1769	17270.7	16389.5
884.2838	1427.0139	17349.6	16465.15
884.4274	1428.8502	17406.45	16524.55
884.571	1430.6858	17407	16526.85
884.7146	1432.5206	17357.65	16476.5
884.8582	1434.3547	17371.75	16489.25
885.0018	1436.188	17326.55	16445.05
885.1453	1438.0206	17302.05	16421.9
885.2889	1439.8524	17226.9	16344.5
885.4324	1441.6835	17211.25	16329.95
885.5759	1443.5139	17169.65	16286.9
885.7194	1445.3435	17117.6	16237.75
885.8629	1447.1724	17119.15	16239.35
886.0064	1449.0005	17094.85	16213.15
886.1499	1450.8279	17090.2	16207.85
886.2933	1452.6545	17058.7	16177.15
886.4368	1454.4804	17029.4	16151.3
886.5802	1456.3056	16969.4	16080.2
886.7237	1458.13	16922.55	16042.75
886.8671	1459.9536	16895.6	16013.45
887.0105	1461.7766	16841.55	15961.8
887.1539	1463.5987	16804.95	15923.15
887.2972	1465.4202	16719.05	15839
887.4406	1467.2409	16606.2	15726.15
887.584	1469.0608	16588.55	15708.2
887.7273	1470.88	16519.9	15638.35
887.8706	1472.6984	16460.2	15580.45
888.0139	1474.5161	16390.15	15506
888.1572	1476.3331	16377.25	15496.85
888.3005	1478.1493	16313	15431.1
888.4438	1479.9648	16300.15	15420.55
888.5871	1481.7795	16253.15	15371.05
888.7303	1483.5935	16233.4	15354.15
888.8736	1485.4067	16181.55	15301
889.0168	1487.2192	16160.8	15279.55
889.16	1489.031	16156.3	15273.05
889.3032	1490.842	16133.55	15253.25
889.4464	1492.6522	16100.4	15219
889.5896	1494.4618	16056.05	15174.3
889.7327	1496.2705	16038.05	15157.2
889.8759	1498.0785	16006.45	15123.85
890.019	1499.8858	15968.15	15085.4
890.1622	1501.6924	15888.75	15007.1
890.3053	1503.4981	15842.95	14959.7
890.4484	1505.3032	15826.2	14944.35
890.5914	1507.1075	15789.8	14910.15
890.7345	1508.911	15764.2	14883.8
890.8776	1510.7138	15707.8	14826.15
891.0206	1512.5159	15666.95	14784.9
891.1637	1514.3172	15624.65	14744.05
891.3067	1516.1178	15559.55	14678.7
891.4497	1517.9176	15554.65	14670.45
891.5927	1519.7166	15494.6	14614.35
891.7357	1521.515	15448.15	14560.55
891.8786	1523.3126	15391.45	14508.85
892.0216	1525.1094	15347.3	14464.3
892.1645	1526.9055	15298.7	14417.9
892.3074	1528.7008	15217.15	14336.1
892.4503	1530.4954	15158.9	14277.7
892.5932	1532.2893	15142.4	14262.4
892.7361	1534.0824	15034.25	14147.75
892.879	1535.8747	15046.5	14165.9
893.0218	1537.6663	14999.85	14117.05
893.1647	1539.4572	14955.85	14070.65
893.3075	1541.2473	14894.15	14010.65
893.4503	1543.0367	14841.5	13959.85
893.5931	1544.8253	14802.95	13916.2
893.7359	1546.6132	14780.65	13898.6
893.8787	1548.4003	14697.4	13808.1
894.0214	1550.1867	14722.7	13831.35
894.1642	1551.9723	14664.25	13778.2
894.3069	1553.7572	14666.95	13783.6
894.4496	1555.5414	14622.9	13740.55
894.5923	1557.3247	14572.85	13689.9
894.735	1559.1074	14568	13687.3
894.8777	1560.8893	14546.75	13665.65
895.0204	1562.6705	14520.65	13639.4
895.163	1564.4509	14517.35	13635.7
895.3056	1566.2305	14522.85	13643.65
895.4482	1568.0094	14525.2	13643.6
895.5908	1569.7876	14471.35	13593.1
895.7334	1571.565	14446	13565.65
895.876	1573.3417	14403.5	13521.4
896.0186	1575.1176	14334.7	13454.4
896.1611	1576.8928	14358.85	13474.65
896.3036	1578.6672	14311.1	13430.75
896.4461	1580.4409	14277.95	13398.45
896.5886	1582.2138	14300.55	13418.75
896.7311	1583.986	14264.3	13384.6
896.8736	1585.7575	14274.35	13395.6
897.0161	1587.5282	14275.95	13397.15
897.1585	1589.2981	14268.75	13389.75
897.3009	1591.0673	14267.4	13388.4
897.4433	1592.8358	14281.15	13402.5
897.5857	1594.6035	14230.05	13345.3
897.7281	1596.3704	14136.45	13254.05
897.8705	1598.1366	14082.6	13202.4
898.0128	1599.9021	13982.1	13103.3
898.1551	1601.6668	13907.7	13024.05
898.2975	1603.4308	13831.85	12950.25
898.4398	1605.194	13796.2	12911.2
898.5821	1606.9564	13780.65	12901.6
898.7243	1608.7182	13803.3	12919.05
898.8666	1610.4791	13840.3	12960.75
899.0088	1612.2394	13872.9	12991.4
899.1511	1613.9988	13941.55	13061.85
899.2933	1615.7576	13972.35	13092.85
899.4355	1617.5156	14015.9	13127.95
899.5776	1619.2728	13984.8	13105
899.7198	1621.0293	13905.1	13022.15
899.862	1622.785	13732.3	12848.55
900.0041	1624.54	13539.75	12656
900.1462	1626.2942	13406.85	12525.75
900.2883	1628.0477	13236.65	12353.7
900.4304	1629.8005	13073.3	12187.6
900.5725	1631.5525	12981.4	12099.6
900.7145	1633.3037	12898.4	12017.1
900.8566	1635.0542	12857.85	11979.3
900.9986	1636.804	12789.95	11910.1
901.1406	1638.553	12767.65	11797.85
901.2826	1640.3013	12667.85	11787.15
901.4245	1642.0488	12537.7	11655.05
901.5665	1643.7955	12538.35	11658.9
901.7085	1645.5416	12483.65	11600.65
901.8504	1647.2868	12457.6	11577.6
901.9923	1649.0313	12383.15	11502
902.1342	1650.7751	12349.7	11464.8
902.2761	1652.5181	12339.5	11459.45
902.4179	1654.2604	12261.1	11381.15
902.5598	1656.0019	12208.15	11327
902.7016	1657.7427	12236.25	11354
902.8434	1659.4828	12215.15	11333.3
902.9852	1661.222	12187.65	11304.5
903.127	1662.9606	12191.65	11311.8
903.2687	1664.6984	12185	11303.1
903.4105	1666.4354	12215.95	11335.25
903.5522	1668.1717	12153.15	11273.1
903.6939	1669.9072	12040.9	11158.85
903.8356	1671.642	11981.15	11100.75
903.9773	1673.3761	11917.65	11037.4
904.119	1675.1094	11826.95	10946
904.2606	1676.8419	11748.6	10867.75
904.4022	1678.5737	11678	10797.05
904.5439	1680.3048	11625.7	10744.25
904.6855	1682.0351	11591.65	10711.15
904.827	1683.7646	11534.3	10651.15
904.9686	1685.4934	11490.05	10611.85
905.1101	1687.2215	11432.65	10552.95
905.2517	1688.9488	11373.65	10493.8
905.3932	1690.6754	11297.1	10418.05
905.5347	1692.4012	11292.9	10411.7
905.6761	1694.1263	11281.85	10401
905.8176	1695.8506	11231.15	10350.05
905.9591	1697.5742	11177.7	10295.9
906.1005	1699.297	11115.95	10233.9
906.2419	1701.0191	11074.65	10192.65
906.3833	1702.7404	11049.2	10169.15
906.5246	1704.461	10999.45	10118.05
906.666	1706.1808	10920.65	10037.4
906.8073	1707.8999	10913.95	10031.1
906.9487	1709.6182	10888.3	10007.2
907.09	1711.3358	10844.7	9963.4
907.2313	1713.0527	10799.05	9920.3
907.3725	1714.7688	10807.1	9921.4
907.5138	1716.4841	10766.75	9885.3
907.655	1718.1987	10747.3	9861.3
907.7962	1719.9126	10696.55	9817.35
907.9374	1721.6257	10646.8	9762.3
908.0786	1723.338	10642.4	9760.6
908.2198	1725.0496	10585.35	9703.7
908.3609	1726.7605	10564.45	9682.65
908.502	1728.4706	10545.6	9664.1
908.6431	1730.18	10499.9	9616.3
908.7842	1731.8886	10481	9598.7
908.9253	1733.5964	10472.75	9572.15
909.0664	1735.3036	10439.2	9556
909.2074	1737.0099	10410.25	9530.25
909.3484	1738.7156	10399.65	9520
909.4894	1740.4204	10396.9	9513.3
909.6304	1742.1246	10389.2	9507.05
909.7714	1743.8279	10352.75	9472.65
909.9123	1745.5306	10312.15	9429.95
910.0532	1747.2325	10297.3	9417.1
910.1941	1748.9336	10279.55	9399.8
910.335	1750.634	10225.95	9342
910.4759	1752.3336	10223.2	9342.35
910.6168	1754.0325	10192.8	9312.45
910.7576	1755.7307	10186.2	9305.6
910.8984	1757.4281	10197.9	9316.05
911.0392	1759.1247	10192.45	9302.5
911.18	1760.8206	10160.75	9275.25
911.3208	1762.5158	10131.25	9245.1
911.4615	1764.2102	10092.5	9214.35
911.6022	1765.9039	10052.45	9169.7
911.7429	1767.5968	10063.95	9182.05
911.8836	1769.289	10026.15	9142.45
912.0243	1770.9804	10026.3	9144.7
912.1649	1772.6711	9997.15	9116.35
912.3056	1774.361	9965.95	9083
912.4462	1776.0502	9938.2	9055.85
912.5868	1777.7386	9941.45	9056.75
912.7274	1779.4263	9890.25	9009.55
912.8679	1781.1132	9886.2	9005.85
913.0084	1782.7994	9847.35	8964.7
913.149	1784.4849	9816.25	8934.45
913.2895	1786.1696	9812.6	8912.45
913.4299	1787.8535	9790.7	8910.25
913.5704	1789.5367	9756.4	8876.4
913.7108	1791.2192	9766.55	8884.7
913.8513	1792.9009	9717.2	8818.7
913.9917	1794.5818	9704.45	8822.25
914.132	1796.2621	9654.9	8775.75
914.2724	1797.9415	9639.45	8757.85
914.4128	1799.6202	9604.1	8723.1
914.5531	1801.2982	9576.5	8695.9
914.6934	1802.9755	9552.15	8669.15
914.8337	1804.6519	9530.9	8648.3
914.9739	1806.3277	9511.85	8629.7
915.1142	1808.0027	9485.1	8604.95
915.2544	1809.6769	9481.65	8599.4
915.3946	1811.3504	9453.45	8570.85
915.5348	1813.0231	9446.35	8564.5
915.675	1814.6951	9428.9	8549.65
915.8151	1816.3664	9434.45	8551.9
915.9553	1818.0369	9386.4	8505.95
916.0954	1819.7067	9350.3	8470.5
916.2355	1821.3757	9360.15	8475.6
916.3755	1823.044	9325.05	8443.75
916.5156	1824.7115	9306.4	8423.9
916.6556	1826.3783	9275.6	8393.9
916.7956	1828.0443	9245.35	8364.9
916.9356	1829.7096	9223.35	8340.1
917.0756	1831.3741	9221.2	8336.35
917.2155	1833.0379	9202.15	8320.9
917.3555	1834.701	9190.35	8307.8
917.4954	1836.3633	9163	8282.25
917.6353	1838.0248	9122.4	8238.85
917.7751	1839.6856	9098	8216.9
917.915	1841.3457	9103.55	8223.25
918.0548	1843.005	9073.3	8191.2
918.1946	1844.6636	9067.25	8187.5
918.3344	1846.3214	9035.75	8152.85
918.4742	1847.9785	9028.8	8148.1
918.6139	1849.6349	9010.35	8128.55
918.7537	1851.2904	9005.7	8116.1
918.8934	1852.9453	8969.85	8090.95
919.0331	1854.5994	8955.6	8071.8
919.1727	1856.2528	8934.9	8048.9
919.3124	1857.9054	8896.05	8013.55
919.452	1859.5572	8895.25	8014.05
919.5916	1861.2083	8879.55	7997.05
919.7312	1862.8587	8876.75	7994.6
919.8708	1864.5084	8869.3	7988.5
920.0103	1866.1572	8834.4	7953.5
920.1498	1867.8054	8787.2	7904.35
920.2893	1869.4528	8786.85	7905.05
920.4288	1871.0994	8759.85	7878.05
920.5683	1872.7453	8745.25	7862.95
920.7077	1874.3905	8748.5	7858.1
920.8471	1876.0349	8698.7	7817.65
920.9865	1877.6786	8698.9	7816.75
921.1259	1879.3215	8697.65	7816.4
921.2653	1880.9637	8653.05	7770.8
921.4046	1882.6051	8662.15	7782.8
921.5439	1884.2458	8630.05	7746
921.6832	1885.8858	8585.45	7704.05
921.8225	1887.525	8588.7	7706
921.9617	1889.1634	8539.85	7658.1
922.101	1890.8011	8536.1	7655.15
922.2402	1892.4381	8520.05	7637.4
922.3794	1894.0743	8520.95	7639.45
922.5185	1895.7098	8511.05	7629.7
922.6577	1897.3446	8500.5	7619.65
922.7968	1898.9786	8441	7556.95
922.9359	1900.6118	8437	7556.6
923.075	1902.2443	8379	7495.45
923.214	1903.8761	8369.75	7487.45
923.3531	1905.5071	8319.95	7436.85
923.4921	1907.1374	8317.25	7435.05
923.6311	1908.7669	8329.2	7449.4
923.77	1910.3957	8293.5	7414.5
923.909	1912.0237	8259.3	7378
924.0479	1913.651	8223.95	7341.7
924.1868	1915.2776	8214.65	7336.25
924.3257	1916.9034	8174.35	7293.25
924.4646	1918.5285	8167.55	7288.85
924.6034	1920.1528	8131.9	7247.55
924.7422	1921.7764	8147.35	7264.35
924.881	1923.3992	8087.15	7208.05
925.0198	1925.0213	8030.05	7145.85
925.1586	1926.6427	7989.7	7108.95
925.2973	1928.2633	8141.75	7054.35
925.436	1929.8832	8003.75	7117.7
925.5747	1931.5023	7955.5	7075.6
925.7134	1933.1207	7947.95	7066.4
925.852	1934.7383	7934.4	7051.4
925.9906	1936.3552	7912.4	7029.7
926.1292	1937.9714	7878.15	6996.15
926.2678	1939.5868	7833.65	6951
926.4064	1941.2015	7821.8	6938.65
926.5449	1942.8154	7785.45	6902.7
926.6834	1944.4286	7761.2	6880.75
926.8219	1946.041	7746.6	6841.7
926.9604	1947.6528	7705.15	6821.95
927.0988	1949.2637	7703.95	6822.85
927.2372	1950.8739	7664.1	6782.05
927.3756	1952.4834	7648.65	6768.3
927.514	1954.0921	7652.35	6767.85
927.6523	1955.7001	7605.45	6720.25
927.7907	1957.3074	7610.75	6730.35
927.929	1958.9139	7569.4	6689.7
928.0673	1960.5197	7561.75	6680.05
928.2055	1962.1247	7537.65	6658.9
928.3438	1963.729	7505.3	6626.15
928.482	1965.3325	7493.45	6592.65
928.6202	1966.9353	7461.15	6580.15
928.7584	1968.5374	7436.9	6554.15
928.8965	1970.1387	7415.35	6535.4
929.0346	1971.7393	7371.1	6487.35
929.1727	1973.3392	7379	6498.75
929.3108	1974.9383	7361.95	6482.1
929.4489	1976.5366	7326.35	6445.6
929.5869	1978.1342	7289.55	6409.2
929.7249	1979.7311	7301.9	6420.05
929.8629	1981.3273	7288.9	6408.15
930.0009	1982.9227	7255.1	6371
930.1388	1984.5173	7261.45	6382.1
930.2767	1986.1112	7231.05	6350.2
930.4146	1987.7044	7203.35	6322.5
930.5525	1989.2968	7187.85	6307.85
930.6904	1990.8885	7182.8	6299.6
930.8282	1992.4795	7190.2	6309.9
930.966	1994.0697	7157.95	6276.7
931.1038	1995.6592	7127.85	6248.5
931.2415	1997.2479	7119	6238.95
931.3793	1998.8359	7090.6	6208.9
931.517	2000.4232	7055.2	6174.8
931.6547	2002.0097	7035.7	6157
931.7923	2003.5955	7004.7	6124.35
931.93	2005.1805	7018.6	6139.6
932.0676	2006.7648	7000.7	6120.75
932.2052	2008.3484	6988.6	6108.2
932.3427	2009.9312	6993.5	6109.55
932.4803	2011.5133	6963.1	6084.6
932.6178	2013.0946	6922.9	6042.75
932.7553	2014.6752	6926.1	6047.35
932.8928	2016.2551	6906.8	6027.6
933.0302	2017.8342	6897.75	6019.25
933.1676	2019.4126	6844.35	5965.05
933.305	2020.9902	6833.1	5954.35
933.4424	2022.5672	6820.25	5937.95
933.5798	2024.1433	6819.45	5933
933.7171	2025.7188	6800.6	5922.2
933.8544	2027.2935	6800.9	5917.9
933.9917	2028.8674	6759.9	5880.85
934.129	2030.4406	6746.25	5866.9
934.2662	2032.0131	6720.35	5842.15
934.4034	2033.5849	6707.85	5820.55
934.5406	2035.1559	6716.5	5837.5
934.6778	2036.7261	6691.3	5812.25
934.8149	2038.2957	6689.7	5809.65
934.952	2039.8645	6669.7	5791.35
935.0891	2041.4325	6684.35	5801.8
935.2262	2042.9998	6651.2	5772.15
935.3632	2044.5664	6648.85	5766.8
935.5002	2046.1323	6619	5738.05
935.6372	2047.6974	6605.05	5725.55
935.7742	2049.2617	6599.95	5721.15
935.9111	2050.8254	6594.05	5691.3
936.048	2052.3883	6594.55	5714.4
936.1849	2053.9504	6569.65	5690.2
936.3218	2055.5118	6552.5	5671.5
936.4586	2057.0725	6528.15	5641.65
936.5955	2058.6325	6509.15	5629.3
936.7323	2060.1917	6499.4	5620.2
936.869	2061.7502	6490.65	5606.3
937.0058	2063.3079	6470.45	5591.45
937.1425	2064.8649	6464.8	5580.25
937.2792	2066.4212	6444.05	5564.35
937.4159	2067.9767	6429.45	5550.65
937.5525	2069.5315	6412.3	5530.4
937.6891	2071.0856	6378.6	5498.9
937.8257	2072.6389	6350.8	5468.8
937.9623	2074.1915	6354.85	5476.3
938.0989	2075.7433	6317.25	5434.8
938.2354	2077.2945	6302.9	5425.25
938.3719	2078.8448	6293.3	5413.25
938.5084	2080.3945	6280.65	5400.65
938.6448	2081.9434	6274.5	5396.45
938.7812	2083.4916	6258.8	5377.95
938.9176	2085.039	6245.55	5364.1
939.054	2086.5857	6224	5341.25
939.1903	2088.1317	6219.1	5337.8
939.3267	2089.677	6191.45	5311.7
939.463	2091.2215	6205.05	5325
939.5992	2092.7652	6179.45	5297.45
939.7355	2094.3083	6176.2	5293.7
939.8717	2095.8506	6177.1	5297.55
940.0079	2097.3921	6181.6	5301.15
940.1441	2098.933	6165.6	5285.45
940.2802	2100.4731	6147.2	5265.35
940.4163	2102.0124	6174.2	5276.8
940.5524	2103.5511	6139.5	5261.25
940.6885	2105.089	6132.2	5251.45
940.8245	2106.6261	6113.2	5233.85
940.9606	2108.1626	6095.2	5215
941.0965	2109.6983	6120.55	5211.45
941.2325	2111.2332	6088	5208.45
941.3684	2112.7675	6050.8	5168.15
941.5044	2114.301	6063	5181.55
941.6403	2115.8337	6049.3	5167.3
941.7761	2117.3657	6045.25	5166.9
941.912	2118.897	6027.7	5148.15
942.0478	2120.4276	5987.5	5100.75
942.1835	2121.9575	5997	5118.45
942.3193	2123.4866	5989.9	5107.35
942.455	2125.0149	5982.45	5098.9
942.5907	2126.5426	5949.15	5068.1
942.7264	2128.0695	5940.55	5055.7
942.8621	2129.5956	5925.35	5045.55
942.9977	2131.1211	5922.6	5039.1
943.1333	2132.6458	5899.35	5020.15
943.2689	2134.1698	5888.75	5009
943.4044	2135.693	5876.5	4994.6
943.54	2137.2155	5862.85	4980.7
943.6755	2138.7373	5866.6	4986.75
943.8109	2140.2584	5851.45	4970.8
943.9464	2141.7787	5846.55	4960.35
944.0818	2143.2983	5819.6	4940.9
944.2172	2144.8171	5775.75	4896.65
944.3526	2146.3353	5770.6	4890.65
944.4879	2147.8527	5756.55	4877.15
944.6232	2149.3693	5754.2	4874.7
944.7585	2150.8853	5734.45	4853.2
944.8938	2152.4005	5719.65	4839.15
945.029	2153.9149	5713.15	4832.45
945.1642	2155.4287	5696.6	4815.25
945.2994	2156.9417	5684.9	4802.75
945.4346	2158.454	5673.6	4790.25
945.5697	2159.9655	5659.8	4778.8
945.7048	2161.4764	5641.2	4763.45
945.8399	2162.9865	5641.1	4760.45
945.9749	2164.4958	5636.2	4755.6
946.1099	2166.0045	5618.85	4735.1
946.2449	2167.5124	5599.4	4721.5
946.3799	2169.0195	5609.25	4728.75
946.5148	2170.526	5564.15	4682
946.6498	2172.0317	5576.35	4694.9
946.7846	2173.5367	5556.25	4676
946.9195	2175.0409	5546.9	4668.8
947.0543	2176.5445	5539.45	4661.05
947.1891	2178.0473	5524.55	4644.75
947.3239	2179.5494	5504.5	4621.25
947.4587	2181.0507	5481.8	4599.65
947.5934	2182.5513	5454.75	4574.4
947.7281	2184.0512	5452.1	4572
947.8628	2185.5504	5458.75	4576.2
947.9974	2187.0488	5420.4	4541.4
948.132	2188.5465	5413.1	4531.9
948.2666	2190.0435	5398.95	4519.2
948.4012	2191.5397	5374.25	4493.55
948.5357	2193.0353	5377.15	4498.55
948.6702	2194.5301	5352.15	4470.95
948.8047	2196.0241	5315.6	4435.6
948.9392	2197.5175	5320	4439
949.0736	2199.0101	5305.85	4421.35
949.208	2200.502	5282.75	4404.8
949.3424	2201.9931	5264	4383.75
949.4767	2203.4835	5258.65	4378.8
949.611	2204.9733	5248.75	4363.1
949.7453	2206.4622	5227.65	4347.75
949.8796	2207.9505	5217.2	4333.5
950.0138	2209.438	5196.8	4319.35
950.148	2210.9248	5186.7	4306.8
950.2822	2212.4109	5178.8	4300.65
950.4164	2213.8962	5165.8	4281.9
950.5505	2215.3809	5136.85	4255.85
950.6846	2216.8648	5144.35	4263.35
950.8186	2218.3479	5111.8	4229.15
950.9527	2219.8304	5111.05	4224.7
951.0867	2221.3121	5087.9	4205.85
951.2207	2222.7931	5066.9	4186.6
951.3546	2224.2733	5063.7	4183.95
951.4886	2225.7529	5050.3	4169.3
951.6225	2227.2317	5038.75	4156.15
951.7563	2228.7098	5034.75	4155.65
951.8902	2230.1872	5010	4129.4
952.024	2231.6638	5012.3	4131.75
952.1578	2233.1397	4972.1	4085.85
952.2916	2234.6149	4953.05	4072.85
952.4253	2236.0894	4945.25	4064.3
952.559	2237.5632	4945.35	4062.3
952.6927	2239.0362	4919.15	4039.75
952.8263	2240.5085	4909.65	4027.95
952.9599	2241.9801	4880.7	4001.2
953.0935	2243.4509	4884.05	4004.8
953.2271	2244.921	4865.05	3984.75
953.3606	2246.3904	4852	3969.15
953.4941	2247.8591	4843.8	3964.8
953.6276	2249.3271	4842.85	3962.75
953.7611	2250.7943	4816.15	3934.85
953.8945	2252.2608	4789.6	3908.1
954.0279	2253.7266	4791.65	3911.45
954.1612	2255.1917	4782.25	3902.35
954.2946	2256.656	4762.3	3881.55
954.4279	2258.1197	4757.65	3877.35
954.5612	2259.5826	4747.3	3865.95
954.6944	2261.0447	4759.6	3876.55
954.8276	2262.5062	4727.95	3848.65
954.9608	2263.9669	4726.3	3843.3
955.094	2265.4269	4712	3831.3
955.2271	2266.8862	4697.25	3817.05
955.3602	2268.3448	4688.75	3806.85
955.4933	2269.8026	4677.8	3798.55
955.6264	2271.2598	4646.8	3764.6
955.7594	2272.7162	4634.25	3758.6
955.8924	2274.1719	4639	3757.4
956.0253	2275.6268	4611.1	3731.25
956.1583	2277.0811	4608.3	3727.6
956.2912	2278.5346	4623.25	3743.65
956.4241	2279.9874	4598.65	3718.75
956.5569	2281.4395	4588.4	3709.95
956.6897	2282.8908	4569.65	3684.25
956.8225	2284.3414	4567.7	3684.95
956.9553	2285.7914	4539.7	3659.15
957.088	2287.2406	4535	3652.1
957.2207	2288.689	4531.45	3651.45
957.3534	2290.1368	4519.25	3636.5
957.486	2291.5838	4514.6	3632.1
957.6186	2293.0302	4497.95	3616.05
957.7512	2294.4758	4467.15	3587.65
957.8838	2295.9206	4461.35	3580.25
958.0163	2297.3648	4447.45	3567.35
958.1488	2298.8082	4448.9	3567
958.2813	2300.251	4441.4	3560.85
958.4137	2301.693	4418.15	3535.55
958.5461	2303.1343	4443.3	3563.2
958.6785	2304.5748	4419.05	3538
958.8108	2306.0147	4399.3	3519.95
958.9432	2307.4538	4389.9	3507.95
959.0754	2308.8922	4374.5	3497.05
959.2077	2310.3299	4355.75	3475.95
959.3399	2311.7669	4350.6	3470.35
959.4721	2313.2031	4325.85	3445.75
959.6043	2314.6387	4337.4	3457.8
959.7365	2316.0735	4293.4	3410.65
959.8686	2317.5076	4307.05	3429.9
960.0006	2318.941	4300.75	3420
960.1327	2320.3737	4285.95	3404.25
960.2647	2321.8056	4281.45	3399.15
960.3967	2323.2369	4257.75	3377
960.5287	2324.6674	4254.35	3373.85
960.6606	2326.0972	4244.8	3361
960.7925	2327.5263	4229.45	3350.8
960.9244	2328.9547	4214	3334.25
961.0562	2330.3823	4216.4	3335.95
961.1881	2331.8092	4221.6	3336.9
961.3198	2333.2355	4181.85	3302.95
961.4516	2334.661	4194.8	3312.6
961.5833	2336.0858	4162.4	3280
961.715	2337.5098	4165.25	3284.8
961.8467	2338.9332	4149.75	3268.2
961.9783	2340.3558	4141.6	3258.85
962.1099	2341.7778	4135.15	3256.15
962.2415	2343.199	4114.75	3231.05
962.373	2344.6195	4106.75	3225.9
962.5045	2346.0393	4090.95	3211.6
962.636	2347.4583	4095.25	3213.4
962.7675	2348.8767	4096.15	3216.2
962.8989	2350.2943	4072.65	3192.55
963.0303	2351.7113	4071.4	3189.2
963.1617	2353.1275	4063.85	3183.85
963.293	2354.543	4038.5	3150.35
963.4243	2355.9578	4028.35	3148.1
963.5556	2357.3718	4010.35	3129.95
963.6868	2358.7852	4006.85	3123.1
963.818	2360.1978	3999.2	3117.7
963.9492	2361.6098	3984.75	3106.6
964.0803	2363.021	3977.9	3093.25
964.2114	2364.4315	3960.8	3082
964.3425	2365.8413	3959	3071.7
964.4736	2367.2504	3939.3	3060
964.6046	2368.6587	3921	3038.5
964.7356	2370.0664	3905	3024.15
964.8666	2371.4733	3888.45	3007.25
964.9975	2372.8795	3896.8	3016.55
965.1284	2374.285	3872.15	2991.35
965.2593	2375.6899	3856.8	2976.75
965.3901	2377.0939	3850.3	2968.1
965.5209	2378.4973	3841.25	2961.35
965.6517	2379.9	3830	2948.65
965.7825	2381.3019	3823.95	2944.75
965.9132	2382.7032	3810.35	2928.2
966.0439	2384.1037	3805.3	2926.7
966.1745	2385.5035	3799.45	2917.55
966.3051	2386.9027	3778.65	2900
966.4357	2388.3011	3764.75	2879.1
966.5663	2389.6987	3768.55	2887.05
966.6968	2391.0957	3745.75	2864.7
966.8273	2392.492	3742.5	2861.85
966.9578	2393.8876	3720.2	2840
967.0882	2395.2824	3707.7	2826.35
967.2186	2396.6765	3709.15	2830.95
967.349	2398.07	3687.5	2806.45
967.4793	2399.4627	3681.4	2800.9
967.6097	2400.8547	3659.85	2779.4
967.7399	2402.246	3663.35	2777.85
967.8702	2403.6366	3646.6	2765.4
968.0004	2405.0265	3635.25	2753.05
968.1306	2406.4156	3621.8	2735.85
968.2607	2407.8041	3602.95	2715.95
968.3909	2409.1918	3588.15	2704.4
968.521	2410.5789	3577.2	2695.25
968.651	2411.9652	3567.1	2684.6
968.781	2413.3508	3555.8	2674.25
968.911	2414.7358	3542.7	2662.2
969.041	2416.12	3536.85	2656.45
969.1709	2417.5035	3529.75	2650.95
969.3008	2418.8863	3510.35	2626.25
969.4307	2420.2684	3498.7	2617.75
969.5606	2421.6497	3491.05	2609.95
969.6904	2423.0304	3481.2	2601.3
969.8201	2424.4104	3466.55	2584.95
969.9499	2425.7896	3458.1	2573.75
970.0796	2427.1682	3458.45	2576.6
970.2093	2428.546	3447.05	2565.55
970.3389	2429.9232	3447.8	2563.65
970.4685	2431.2996	3433.85	2552.5
970.5981	2432.6753	3426.85	2544.2
970.7277	2434.0503	3419.05	2537.7
970.8572	2435.4246	3397.25	2516.85
970.9867	2436.7982	3389	2505.5
971.1161	2438.1711	3404.3	2524.15
971.2456	2439.5433	3388.75	2507.85
971.375	2440.9148	3367.65	2480.9
971.5043	2442.2856	3358.8	2479.4
971.6336	2443.6557	3359.8	2476.85
971.7629	2445.025	3341.75	2461.4
971.8922	2446.3937	3344.7	2461.05
972.0214	2447.7617	3333.7	2451.8
972.1506	2449.1289	3320.2	2440.1
972.2798	2450.4955	3315.25	2430.95
972.4089	2451.8613	3303.25	2423.65
972.538	2453.2265	3292.25	2411.35
972.6671	2454.5909	3300.05	2417.55
972.7961	2455.9546	3299.35	2419.9
972.9251	2457.3177	3268.05	2387.25
973.0541	2458.68	3278.2	2397.85
973.1831	2460.0416	3273.05	2390.4
973.312	2461.4025	3258.5	2376.7
973.4408	2462.7627	3263.25	2368.95
973.5697	2464.1222	3235.7	2357.65
973.6985	2465.4811	3230.1	2348
973.8273	2466.8392	3219.5	2339.2
973.956	2468.1966	3211.65	2328.25
974.0847	2469.5533	3215.2	2332.5
974.2134	2470.9093	3200.8	2318.7
974.3421	2472.2645	3202.75	2318.9
974.4707	2473.6191	3195.5	2315.15
974.5993	2474.973	3177	2296.6
974.7278	2476.3262	3162.7	2279.6
974.8563	2477.6787	3160.25	2280.25
974.9848	2479.0305	3138.2	2257.2
975.1132	2480.3816	3148.45	2267.3
975.2417	2481.7319	3138.45	2259.15
975.37	2483.0816	3112.95	2230.8
975.4984	2484.4306	3103.2	2221.1
975.6267	2485.7789	3094.05	2213.45
975.755	2487.1264	3089.85	2205.9
975.8833	2488.4733	3072.3	2191.95
976.0115	2489.8195	3085.95	2198.9
976.1397	2491.165	3077.9	2193.95
976.2678	2492.5097	3067.7	2184.15
976.3959	2493.8538	3053.6	2173.75
976.524	2495.1972	3036.6	2155.2
976.6521	2496.5398	3021.9	2139.6
976.7801	2497.8818	3032.8	2149.75
976.9081	2499.2231	3017.05	2137.2
977.036	2500.5637	2998.95	2117.3
977.164	2501.9035	3008.45	2126.15
977.2918	2503.2427	2994.2	2107.75
977.4197	2504.5812	2988.15	2107.25
977.5475	2505.919	2974.95	2093
977.6753	2507.256	2991.45	2109.05
977.8031	2508.5924	2977.95	2097.4
977.9308	2509.9281	2956.1	2070.6
978.0585	2511.2631	2951.55	2071.2
978.1861	2512.5974	2948.55	2067.25
978.3137	2513.9309	2931.7	2050.7
978.4413	2515.2638	2944.95	2034.35
978.5689	2516.596	2918.75	2038.45
978.6964	2517.9275	2906.9	2025.35
978.8239	2519.2583	2901.7	2020.05
978.9513	2520.5884	2890.85	2007.25
979.0788	2521.9178	2878.95	1998.5
979.2062	2523.2465	2878.5	1997.25
979.3335	2524.5745	2874.5	1993.3
979.4608	2525.9018	2866.5	1986.75
979.5881	2527.2284	2854.85	1977.3
979.7154	2528.5543	2842.1	1962.2
979.8426	2529.8796	2840.2	1960.35
979.9698	2531.2041	2836.8	1954.2
980.0969	2532.5279	2833.65	1954.65
980.224	2533.851	2828.3	1944.6
980.3511	2535.1735	2824.6	1943.65
980.4781	2536.4952	2808	1926.6
980.6052	2537.8163	2814	1932.25
980.7321	2539.1366	2799.05	1921
980.8591	2540.4562	2804.05	1923.3
980.986	2541.7752	2795.8	1915.55
981.1129	2543.0935	2777	1897.5
981.2397	2544.411	2771.65	1892.05
981.3665	2545.7279	2766.6	1887.95
981.4933	2547.0441	2771.2	1889.65
981.62	2548.3596	2768.3	1883.85
981.7467	2549.6744	2768.1	1887.35
981.8734	2550.9885	2748.45	1858.1
982.0001	2552.3019	2741.95	1861
982.1267	2553.6146	2749.75	1870.1
982.2532	2554.9266	2737.35	1856
982.3798	2556.2379	2737.3	1855.1
982.5063	2557.5485	2722.95	1843.1
982.6327	2558.8585	2720.15	1831.05
982.7592	2560.1677	2721.85	1837.8
982.8856	2561.4762	2709.95	1829.55
983.0119	2562.7841	2697.9	1814.3
983.1383	2564.0913	2695.45	1816.25
983.2646	2565.3977	2692.65	1809.95
983.3908	2566.7035	2686.05	1806.1
983.517	2568.0086	2680.85	1798.95
983.6432	2569.313	2682.65	1801.6
983.7694	2570.6167	2675.5	1791.05
983.8955	2571.9197	2667.85	1790.8
984.0216	2573.222	2675.5	1791.55
984.1476	2574.5236	2666.15	1783.35
984.2737	2575.8246	2667.05	1783.25
984.3996	2577.1248	2656	1772.65
984.5256	2578.4244	2653.35	1772.6
984.6515	2579.7232	2642.05	1761.55
984.7774	2581.0214	2668.2	1763.5
984.9032	2582.3189	2632.1	1754.5
985.029	2583.6157	2628	1742.05
985.1548	2584.9118	2622.85	1742
985.2806	2586.2072	2616.9	1737.4
985.4063	2587.5019	2620.6	1738.4
985.5319	2588.7959	2609.95	1731.05
985.6576	2590.0893	2611.5	1728
985.7832	2591.3819	2601.05	1721.45
985.9087	2592.6739	2591.35	1711.3
986.0343	2593.9652	2581.4	1699.25
986.1597	2595.2557	2575.1	1694.25
986.2852	2596.5456	2561.85	1681.75
986.4106	2597.8348	2562.65	1681.45
986.536	2599.1234	2544.25	1664.6
986.6614	2600.4112	2548.6	1667.3
986.7867	2601.6983	2543.75	1659.85
986.912	2602.9848	2543.6	1663.35
987.0372	2604.2705	2539.8	1649.9
987.1624	2605.5556	2523.55	1644.15
987.2876	2606.84	2523.7	1642.35
987.4128	2608.1237	2511.95	1628.25
987.5379	2609.4067	2500.6	1619.15
987.6629	2610.689	2503.6	1613.9
987.788	2611.9707	2489.2	1606.15
987.913	2613.2516	2488.9	1604.1
988.0379	2614.5319	2473.6	1592.6
988.1629	2615.8115	2464.75	1583.95
988.2878	2617.0903	2452.15	1570.85
988.4126	2618.3685	2455.75	1574.6
988.5375	2619.6461	2437.35	1558.6
988.6622	2620.9229	2432.5	1551.55
988.787	2622.199	2438.65	1558.2
988.9117	2623.4745	2425.65	1545.65
989.0364	2624.7493	2420.8	1538.75
989.161	2626.0234	2412.8	1533.4
989.2857	2627.2968	2408	1525
989.4102	2628.5695	2402.6	1521.75
989.5348	2629.8415	2390.8	1508.4
989.6593	2631.1128	2381.95	1499.25
989.7837	2632.3835	2381	1502.25
989.9082	2633.6535	2372.5	1491.65
990.0326	2634.9228	2365.85	1484.6
990.1569	2636.1914	2352.3	1472.45
990.2812	2637.4593	2359.05	1471.25
990.4055	2638.7265	2350.3	1469.75
990.5298	2639.9931	2339.65	1458.75
990.654	2641.259	2333	1449.25
990.7782	2642.5242	2342	1458.3
990.9023	2643.7887	2342.45	1460.75
991.0264	2645.0525	2330.85	1449.25
991.1505	2646.3156	2311	1427.95
991.2745	2647.5781	2311.15	1430.75
991.3985	2648.8398	2307.6	1427.5
991.5225	2650.1009	2314.8	1425.55
991.6464	2651.3613	2297.95	1419.95
991.7703	2652.6211	2289.85	1408.55
991.8942	2653.8801	2291	1412
992.018	2655.1385	2285.95	1399.7
992.1418	2656.3961	2261.15	1382.8
992.2655	2657.6531	2274.25	1392.9
992.3892	2658.9094	2273.3	1391.35
992.5129	2660.1651	2257.55	1374.3
992.6366	2661.42	2250.15	1369.8
992.7602	2662.6743	2259.15	1377.85
992.8837	2663.9279	2250.75	1372.65
993.0073	2665.1808	2250.65	1367.55
993.1307	2666.433	2242.35	1359.95
993.2542	2667.6846	2237	1355.75
993.3776	2668.9354	2221.25	1338.85
993.501	2670.1856	2229.55	1347.55
993.6244	2671.4351	2220.85	1340.95
993.7477	2672.6839	2217.85	1336.15
993.8709	2673.9321	2213.1	1332.2
993.9942	2675.1795	2210.55	1328.8
994.1174	2676.4263	2206.15	1327.2
994.2405	2677.6724	2194.6	1315.25
994.3637	2678.9179	2190.35	1309.2
994.4868	2680.1626	2185	1305.55
994.6098	2681.4067	2170.85	1290.45
994.7328	2682.6501	2181.75	1301.95
994.8558	2683.8928	2169.3	1288.35
994.9788	2685.1348	2157.8	1276.9
995.1017	2686.3761	2146.7	1264.65
995.2245	2687.6168	2165.5	1282.75
995.3474	2688.8568	2148.85	1268.5
995.4702	2690.0961	2143.05	1263.5
995.5929	2691.3348	2131.95	1251.15
995.7156	2692.5727	2142.1	1261
995.8383	2693.81	2134.65	1254.2
995.961	2695.0466	2127.05	1248.5
996.0836	2696.2826	2117.05	1235.5
996.2062	2697.5178	2118.1	1232.25
996.3287	2698.7524	2115.5	1235.55
996.4512	2699.9863	2112.3	1228.5
996.5737	2701.2195	2108.2	1228.3
996.6961	2702.452	2102.45	1219.75
996.8185	2703.6839	2097.6	1217.15
996.9408	2704.9151	2097.05	1217.65
997.0631	2706.1456	2086.1	1205.65
997.1854	2707.3755	2086.75	1206.15
997.3077	2708.6046	2083.85	1200.25
997.4299	2709.8331	2066.75	1184.8
997.552	2711.0609	2074.15	1193.5
997.6742	2712.2881	2079.45	1197.45
997.7963	2713.5145	2063.5	1181.35
997.9183	2714.7403	2056	1177.3
998.0403	2715.9654	2044.35	1163.05
998.1623	2717.1899	2053.8	1160.2
998.2842	2718.4136	2048.05	1168.95
998.4062	2719.6367	2027.9	1147.85
998.528	2720.8591	2046.1	1156.75
998.6498	2722.0809	2030.4	1146.9
998.7716	2723.3019	2021.05	1138.45
998.8934	2724.5223	2023.45	1141.9
999.0151	2725.7421	2017.5	1136.2
999.1368	2726.9611	2014.15	1132.95
999.2584	2728.1795	2003.85	1117.65
999.38	2729.3972	2000.15	1120.35
999.5016	2730.6142	2005.95	1113.2
999.6231	2731.8306	1989.9	1108.4
999.7446	2733.0462	1985.4	1102.3
999.8661	2734.2612	1971.5	1084.95
999.9875	2735.4756	1965.9	1085.05
1000.1089	2736.6892	1967.75	1085.15
1000.2302	2737.9022	1955.1	1074.7
1000.3515	2739.1145	1948.4	1067.9
1000.4728	2740.3262	1944.5	1057
1000.594	2741.5372	1947.3	1068.25
1000.7152	2742.7475	1929.45	1048.55
1000.8363	2743.9571	1932.9	1051.35
1000.9575	2745.1661	1929.85	1044.35
1001.0785	2746.3744	1925.9	1043.3
1001.1996	2747.582	1916.7	1034.2
1001.3206	2748.7889	1907.2	1024.7
1001.4415	2749.9952	1911.5	1030.4
1001.5625	2751.2008	1905.85	1024.6
1001.6833	2752.4057	1901.6	1019
1001.8042	2753.61	1892.95	1011.8
1001.925	2754.8136	1889.2	1006.15
1002.0458	2756.0165	1884.3	1004.25
1002.1665	2757.2188	1889.85	1011.45
1002.2872	2758.4204	1883.25	1004.55
1002.4078	2759.6213	1875.3	992.75
1002.5285	2760.8215	1882.05	996.6
1002.649	2762.0211	1872.5	990.2
1002.7696	2763.22	1868.55	983.85
1002.8901	2764.4182	1866.6	984.3
1003.0106	2765.6158	1860.5	981.05
1003.131	2766.8127	1859.4	980.25
1003.2514	2768.009	1849.7	971.25
1003.3717	2769.2045	1842.95	961.4
1003.492	2770.3994	1841.45	959.85
1003.6123	2771.5936	1832.3	951.8
1003.7325	2772.7872	1823.8	944.4
1003.8527	2773.9801	1823.3	943
1003.9729	2775.1723	1837.05	937.75
1004.093	2776.3639	1825.5	945
1004.2131	2777.5548	1821.35	939.15
1004.3331	2778.745	1820	938.1
1004.4531	2779.9346	1811.4	932.25
1004.5731	2781.1235	1816.65	937.4
1004.693	2782.3117	1807.85	928.6
1004.8129	2783.4992	1789.3	906.25
1004.9328	2784.6861	1783	903.05
1005.0526	2785.8723	1793.3	912.9
1005.1723	2787.0579	1789.75	906.85
1005.2921	2788.2428	1786.5	905.9
1005.4118	2789.427	1781.3	902.5
1005.5314	2790.6106	1773.65	893.15
1005.651	2791.7935	1773.15	890.5
1005.7706	2792.9757	1761.55	882.65
1005.8902	2794.1573	1759.3	876.75
1006.0097	2795.3382	1759.5	880.7
1006.1291	2796.5184	1756.35	876.4
1006.2485	2797.698	1756.1	874.8
1006.3679	2798.8769	1748.1	868.15
1006.4873	2800.0551	1745.85	864.2
1006.6066	2801.2327	1739.55	857.05
1006.7258	2802.4096	1736.05	857.6
1006.8451	2803.5859	1733.75	853.2
1006.9642	2804.7615	1733.1	852.05
1007.0834	2805.9364	1723	842.1
1007.2025	2807.1106	1731.95	853.6
1007.3216	2808.2842	1721.6	839.5
1007.4406	2809.4572	1725.05	844.75
1007.5596	2810.6294	1721.65	839.45
1007.6785	2811.801	1721.8	842.1
1007.7975	2812.972	1709.9	829.8
1007.9163	2814.1423	1709.05	828.25
1008.0352	2815.3119	1706.1	826.25
1008.154	2816.4808	1710.8	830.5
1008.2727	2817.6491	1718.25	838.1
1008.3914	2818.8167	1711.35	833.7
1008.5101	2819.9837	1720.5	834.95
1008.6288	2821.15	1712.4	831.15
1008.7474	2822.3157	1710.5	830.7
1008.8659	2823.4807	1728.85	848.25
1008.9844	2824.645	1740.65	858.85
1009.1029	2825.8086	1742.1	863.7
1009.2214	2826.9716	1741.9	859.45
1009.3398	2828.134	1745.15	865.9
1009.4581	2829.2957	1756.7	875.15
1009.5764	2830.4567	1767.3	890.1
1009.6947	2831.617	1760.75	881.15
1009.813	2832.7767	1766.05	884.65
1009.9312	2833.9358	1757.95	879.65
1010.0493	2835.0941	1753.75	871.75
1010.1675	2836.2519	1753.25	873.05
1010.2855	2837.4089	1747.75	866.6
1010.4036	2838.5653	1741.7	861.6
1010.5216	2839.7211	1728.75	851.05
1010.6396	2840.8761	1731.15	848.8
1010.7575	2842.0306	1724.3	845.2
1010.8754	2843.1843	1723.7	843.3
1010.9932	2844.3374	1720.9	839.5
1011.111	2845.4899	1719.2	838.75
1011.2288	2846.6417	1715.15	836
1011.3465	2847.7928	1726.6	847
1011.4642	2848.9433	1716.6	836.5
1011.5818	2850.0931	1716.6	836.45
1011.6995	2851.2422	1718.8	834.6
1011.817	2852.3907	1714	833.55
1011.9345	2853.5385	1710.95	827.6
1012.052	2854.6857	1714.9	826.25
1012.1695	2855.8323	1717.45	838.95
1012.2869	2856.9781	1712.6	832.2
1012.4042	2858.1233	1709.45	829.9
1012.5216	2859.2679	1711.5	832.65
1012.6389	2860.4118	1723.7	845.15
1012.7561	2861.555	1730.8	846.25
1012.8733	2862.6976	1724.3	844.25
1012.9905	2863.8395	1717.85	838.45
1013.1076	2864.9808	1723.2	843.1
1013.2247	2866.1214	1705.55	825.6
1013.3417	2867.2614	1722.75	843.3
1013.4587	2868.4007	1718.8	838.35
1013.5757	2869.5393	1723.55	841.2
1013.6926	2870.6773	1730.25	846.9
1013.8095	2871.8146	1714.2	831.15
1013.9263	2872.9513	1712.5	829.75
1014.0431	2874.0874	1708.55	829.5
1014.1599	2875.2227	1713.5	831.8
1014.2766	2876.3574	1704.85	821.7
1014.3933	2877.4915	1709.35	829.95
1014.51	2878.6249	1706.5	828.65
1014.6266	2879.7577	1708.05	827.2
1014.7431	2880.8898	1708.45	819.8
1014.8596	2882.0212	1701.55	823.4
1014.9761	2883.152	1697.1	815.5
1015.0925	2884.2821	1703.85	825.35
1015.2089	2885.4116	1705.6	824.4
1015.3253	2886.5405	1699.65	821.05
1015.4416	2887.6686	1702.7	818.3
1015.5579	2888.7962	1698.5	821.9
1015.6741	2889.923	1694.5	813.4
1015.7903	2891.0493	1693.9	813
1015.9065	2892.1748	1684.65	804.55
1016.0226	2893.2997	1682.9	802.25
1016.1387	2894.424	1681.2	802.2
1016.2547	2895.5476	1678	797.05
1016.3707	2896.6706	1666.15	786.45
1016.4866	2897.7929	1675.75	796.55
1016.6025	2898.9145	1667.1	787
1016.7184	2900.0355	1667.3	785
1016.8342	2901.1559	1661.55	780.85
1016.95	2902.2756	1656.1	773.75
1017.0658	2903.3946	1648.6	768.95
1017.1815	2904.513	1654.95	772.1
1017.2971	2905.6308	1653.25	773.9
1017.4127	2906.7479	1639.15	758.8
1017.5283	2907.8643	1649.65	768.1
1017.6439	2908.9801	1645.3	763.1
1017.7594	2910.0953	1639.3	759.6
1017.8748	2911.2098	1640.1	757.65
1017.9902	2912.3236	1638.25	750.1
1018.1056	2913.4368	1635.25	752.75
1018.2209	2914.5494	1619.6	739.35
1018.3362	2915.6613	1625.85	739.65
1018.4515	2916.7725	1625.8	743.3
1018.5667	2917.8831	1617.75	736.25
1018.6819	2918.9931	1607.5	723.4
1018.797	2920.1024	1609	728.65
1018.9121	2921.211	1598.55	720.2
1019.0271	2922.319	1595.4	714.5
1019.1421	2923.4264	1589.3	709.8
1019.2571	2924.5331	1582.7	702.65
1019.372	2925.6391	1584.1	704.5
1019.4869	2926.7445	1577.45	698.5
1019.6017	2927.8493	1580.75	699.4
1019.7165	2928.9534	1583.6	703.7
1019.8313	2930.0569	1577.25	693.9
1019.946	2931.1597	1578.15	695.95
1020.0606	2932.2619	1569.55	688.75
1020.1753	2933.3634	1573.1	691.05
1020.2899	2934.4643	1581.95	696.45
1020.4044	2935.5645	1586.6	699.15
1020.5189	2936.6641	1577.95	695.4
1020.6334	2937.763	1570.9	691.1
1020.7478	2938.8613	1574.3	693.95
1020.8622	2939.959	1565.55	679.2
1020.9765	2941.056	1561.5	681.55
1021.0908	2942.1523	1563.55	683.75
1021.2051	2943.248	1548.75	668.35
1021.3193	2944.3431	1531.65	652.3
1021.4334	2945.4375	1516.4	636.35
1021.5476	2946.5313	1505.8	625.85
1021.6617	2947.6244	1499.1	620.35
1021.7757	2948.7169	1496.2	614.8
1021.8897	2949.8087	1477.75	599.25
1022.0037	2950.8999	1467.4	585.9
1022.1176	2951.9904	1459.15	579.55
1022.2315	2953.0803	1449.35	570.45
1022.3453	2954.1696	1442.3	563.6
1022.4591	2955.2582	1437.7	557.3
1022.5728	2956.3462	1427.4	545.6
1022.6865	2957.4335	1432.2	553.25
1022.8002	2958.5202	1426.45	543.9
1022.9138	2959.6062	1422.8	542.55
1023.0274	2960.6916	1423.5	543.1
1023.141	2961.7764	1424.7	543.05
1023.2545	2962.8605	1410.8	529.7
1023.3679	2963.9439	1418.75	539.3
1023.4813	2965.0267	1412.45	532.2
1023.5947	2966.1089	1432.25	527.85
1023.708	2967.1905	1407.8	528.85
1023.8213	2968.2714	1406.05	527.9
1023.9346	2969.3516	1399.8	520.1
1024.0478	2970.4312	1404.15	515.45
1024.1609	2971.5102	1395.15	515.55
1024.274	2972.5885	1386.6	506.5
1024.3871	2973.6662	1394.85	510.15
1024.5002	2974.7432	1389.8	510.75
1024.6132	2975.8196	1386.1	507.1
1024.7261	2976.8954	1382.15	500.6
1024.839	2977.9705	1384.2	501.75
1024.9519	2979.045	1379	501.55
1025.0647	2980.1188	1384.2	504.6
1025.1775	2981.192	1378.45	499.45
1025.2902	2982.2645	1378.65	497.55
1025.4029	2983.3364	1367.25	486.8
1025.5156	2984.4077	1363.45	482.6
1025.6282	2985.4783	1371.85	487.25
1025.7407	2986.5483	1366.9	488.9
1025.8532	2987.6177	1345.8	466.15
1025.9657	2988.6864	1351.1	471.75
1026.0782	2989.7545	1348.4	465.8
1026.1906	2990.8219	1336.35	458.6
1026.3029	2991.8887	1331.8	449
1026.4152	2992.9548	1331.3	453.6
1026.5275	2994.0204	1322.3	441.75
1026.6397	2995.0852	1320.85	442.9
1026.7519	2996.1495	1317.7	437
1026.864	2997.2131	1310.5	430.15
1026.9761	2998.276	1310.65	431.2
1027.0882	2999.3383	1311.9	432.75
1027.2002	3000.4	1301.85	419.6
1027.3122	3001.4611	1289.65	412.2
1027.4241	3002.5215	1299.45	419.95
1027.536	3003.5812	1291.7	412.3
1027.6478	3004.6404	1287.3	406.95
1027.7596	3005.6989	1289.8	409.6
1027.8714	3006.7567	1286.8	407.15
1027.9831	3007.8139	1300.85	398.15
1028.0947	3008.8705	1275.9	395.9
1028.2064	3009.9264	1281.25	398
1028.3179	3010.9818	1275.75	397.1
1028.4295	3012.0364	1276.25	393.35
1028.541	3013.0905	1270.85	390.45
1028.6524	3014.1439	1263.5	383.15
1028.7638	3015.1966	1266.45	385.9
1028.8752	3016.2487	1258.55	379.1
1028.9865	3017.3002	1258.05	371.75
1029.0978	3018.3511	1265.05	384.95
1029.209	3019.4013	1261.5	381.25
1029.3202	3020.4509	1258.7	377.7
1029.4314	3021.4998	1256.25	374.4
1029.5425	3022.5481	1252	371.85
1029.6535	3023.5958	1251.7	372.4
1029.7645	3024.6428	1249.05	368.1
1029.8755	3025.6892	1251.5	372.8
1029.9864	3026.735	1244.25	360.6
1030.0973	3027.7802	1243.65	364.6
1030.2082	3028.8247	1239.45	359.4
1030.319	3029.8685	1237.95	360.05
1030.4297	3030.9118	1236.7	356.6
1030.5404	3031.9544	1240.95	360.75
1030.6511	3032.9963	1237.35	359
1030.7617	3034.0376	1237.45	357.35
1030.8723	3035.0783	1234.3	354.4
1030.9829	3036.1184	1229	347.15
1031.0934	3037.1578	1230.25	352.85
1031.2038	3038.1966	1228.05	346.7
1031.3142	3039.2348	1224.75	346
1031.4246	3040.2723	1234.45	344.9
1031.5349	3041.3092	1223.55	343.95
1031.6452	3042.3455	1222.15	340.8
1031.7554	3043.3811	1220.5	339.15
1031.8656	3044.4161	1217.25	334.9
1031.9758	3045.4505	1213.9	336.1
1032.0859	3046.4842	1214.25	333.6
1032.1959	3047.5173	1213.7	337.1
1032.3059	3048.5498	1218.95	339.8
1032.4159	3049.5816	1214.95	333.3
1032.5258	3050.6128	1214.85	333.85
1032.6357	3051.6434	1211.3	330.35
1032.7455	3052.6734	1210.55	329.3
1032.8553	3053.7027	1209.75	329.2
1032.9651	3054.7314	1207.2	327.75
1033.0748	3055.7594	1206.75	328.05
1033.1845	3056.7868	1205.4	326.8
1033.2941	3057.8136	1201.7	321.9
1033.4037	3058.8398	1203.8	325.15
1033.5132	3059.8653	1207.1	327.4
1033.6227	3060.8902	1204.3	324.25
1033.7321	3061.9145	1198.95	318.35
1033.8415	3062.9381	1203.4	322.6
1033.9509	3063.9612	1214.05	319.4
1034.0602	3064.9835	1198	317.45
1034.1694	3066.0053	1197.45	316.6
1034.2787	3067.0264	1198.3	318.7
1034.3878	3068.0469	1192.25	311.45
1034.497	3069.0668	1195.25	313.4
1034.6061	3070.086	1191.75	313.85
1034.7151	3071.1046	1186.8	304.95
1034.8241	3072.1226	1187.7	308.8
1034.9331	3073.1399	1190.15	311
1035.042	3074.1567	1185	306.1
1035.1508	3075.1727	1185.8	304.75
1035.2597	3076.1882	1182.35	301.25
1035.3684	3077.203	1186.05	306.7
1035.4772	3078.2173	1179.15	298.65
1035.5859	3079.2308	1180.7	296.6
1035.6945	3080.2438	1181.85	300.85
1035.8031	3081.2561	1175.05	295.7
1035.9117	3082.2678	1167.1	286.9
1036.0202	3083.2789	1167.75	288.15
1036.1286	3084.2893	1169.4	291.2
1036.2371	3085.2991	1171.05	290.5
1036.3454	3086.3083	1169.9	286.45
1036.4538	3087.3169	1165	284.05
1036.562	3088.3248	1161.2	280.5
1036.6703	3089.3321	1161.75	281
1036.7785	3090.3388	1160.9	280.75
1036.8866	3091.3449	1158.1	277.7
1036.9948	3092.3503	1163.1	280.15
1037.1028	3093.3551	1151.15	272.9
1037.2108	3094.3593	1148.8	270.35
1037.3188	3095.3629	1155.8	279.3
1037.4267	3096.3658	1154.85	275.6
1037.5346	3097.3681	1148.15	268.95
1037.6425	3098.3698	1154.9	273.2
1037.7503	3099.3708	1150.25	265.7
1037.858	3100.3713	1147.85	267.5
1037.9657	3101.3711	1142.6	262.15
1038.0734	3102.3702	1280.25	262.95
1038.181	3103.3688	1144.75	264.2
1038.2886	3104.3667	1138.25	260.95
1038.3961	3105.364	1135.5	256.2
1038.5036	3106.3607	1136.2	254.65
1038.611	3107.3568	1136.05	256.95
1038.7184	3108.3522	1133.4	255.2
1038.8257	3109.347	1135.15	257.05
1038.933	3110.3412	1130.9	248.25
1039.0403	3111.3348	1127.45	249.6
1039.1475	3112.3277	1124.3	244.95
1039.2547	3113.32	1125.6	246.65
1039.3618	3114.3117	1123.3	241.45
1039.4689	3115.3028	1123.8	244.75
1039.5759	3116.2932	1119.9	238.55
1039.6829	3117.2831	1124.15	239.2
1039.7898	3118.2723	1117.95	239.85
1039.8967	3119.2608	1116.05	237.55
1040.0035	3120.2488	1118.1	235.75
1040.1103	3121.2361	1111.85	231.75
1040.2171	3122.2229	1115.7	234.75
1040.3238	3123.209	1114.6	232.55
1040.4305	3124.1944	1109	230.95
1040.5371	3125.1793	1109.6	228.35
1040.6437	3126.1635	1102.05	223.45
1040.7502	3127.1471	1104.3	226.4
1040.8567	3128.1301	1099.5	219.75
1040.9631	3129.1125	1103.4	222.7
1041.0695	3130.0942	1102.45	223.05
1041.1759	3131.0753	1112.55	224.7
1041.2822	3132.0558	1099.15	218.85
1041.3884	3133.0357	1100.6	220.1
1041.4946	3134.015	1094.95	214.95
1041.6008	3134.9936	1100.8	219.7
1041.7069	3135.9716	1115.15	210.7
1041.813	3136.949	1095.65	217.5
1041.919	3137.9258	1096.05	210.5
1042.025	3138.902	1097.85	213.65
1042.1309	3139.8775	1096.9	219.15
1042.2368	3140.8524	1098.3	218.7
1042.3427	3141.8267	1091.65	210.35
1042.4485	3142.8004	1093.65	211.8
1042.5542	3143.7735	1092.9	205.9
1042.6599	3144.7459	1091.85	208.9
1042.7656	3145.7178	1090.05	209.2
1042.8712	3146.689	1082.5	202.6
1042.9768	3147.6596	1085.5	203
1043.0823	3148.6295	1083	203.55
1043.1878	3149.5989	1085.4	205.25
1043.2932	3150.5676	1079.1	200.9
1043.3986	3151.5357	1079.55	202.85
1043.5039	3152.5032	1078.15	198.8
1043.6092	3153.4701	1074.75	195.95
1043.7145	3154.4364	1078.05	195.05
1043.8197	3155.402	1075.8	196.35
1043.9248	3156.367	1077.75	197.6
1044.03	3157.3315	1109.1	191.75
1044.135	3158.2952	1073.2	193.3
1044.24	3159.2584	1069.9	192.05
1044.345	3160.221	1073.95	190.2
1044.4499	3161.1829	1069.2	189
1044.5548	3162.1442	1067.9	187.65
1044.6596	3163.105	1064.3	184.35
1044.7644	3164.065	1066.05	186.4
1044.8692	3165.0245	1070.5	187.9
1044.9739	3165.9834	1062.75	185.5
1045.0785	3166.9416	1058.25	179
1045.1831	3167.8993	1060.2	181.55
1045.2877	3168.8563	1061.55	180.45
1045.3922	3169.8127	1059	179.6
1045.4966	3170.7684	1062.5	184.15
1045.6011	3171.7236	1060.85	179.95
1045.7054	3172.6782	1058.65	177.3
1045.8098	3173.6321	1056.6	175.1
1045.914	3174.5854	1062.4	177.8
1046.0183	3175.5381	1052.95	173.5
1046.1224	3176.4902	1053.65	175.85
1046.2266	3177.4417	1051.75	173.7
1046.3307	3178.3926	1049.95	170.15
1046.4347	3179.3428	1048.8	171.15
1046.5387	3180.2924	1050.85	173
1046.6427	3181.2415	1051.8	170.95
1046.7466	3182.1899	1051.05	169.8
1046.8504	3183.1377	1048.5	170.25
1046.9542	3184.0848	1048.4	165.75
1047.058	3185.0314	1048.3	169.65
1047.1617	3185.9773	1046.35	166
1047.2654	3186.9227	1043.45	161.85
1047.369	3187.8674	1042.9	163.85
1047.4726	3188.8115	1041.6	157.05
1047.5761	3189.755	1043.7	162.55
1047.6796	3190.6979	1039.55	160.8
1047.783	3191.6402	1038.1	159.6
1047.8864	3192.5818	1036.8	158.1
1047.9898	3193.5229	1043.9	157.4
1048.0931	3194.4633	1035.25	156
1048.1963	3195.4031	1040.8	160.9
1048.2995	3196.3423	1035	155.05
1048.4027	3197.2809	1035.7	155.6
1048.5058	3198.2189	1031.8	152.05
1048.6089	3199.1563	1039.1	153.35
1048.7119	3200.0931	1027.95	148.55
1048.8148	3201.0292	1029.1	149.9
1048.9178	3201.9648	1028.95	149.45
1049.0206	3202.8997	1028.4	146.5
1049.1235	3203.834	1026.25	145.9
1049.2262	3204.7677	1030.8	151
1049.329	3205.7008	1031.35	151.2
1049.4317	3206.6333	1028.3	148.95
1049.5343	3207.5652	1030.4	149.1
1049.6369	3208.4964	1023.8	142.55
1049.7394	3209.4271	1021	141.3
1049.8419	3210.3571	1024.1	143.25
1049.9444	3211.2865	1022.85	142.35
1050.0468	3212.2154	1020.25	141.1
1050.1491	3213.1436	1025.75	142.3
1050.2514	3214.0712	1024.35	137.3
1050.3537	3214.9982	1022.3	141.7
1050.4559	3215.9246	1022.35	142
1050.5581	3216.8503	1017.85	138
1050.6602	3217.7755	1017.2	136.65
1050.7623	3218.7001	1020.4	142.85
1050.8643	3219.624	1017.9	137.75
1050.9663	3220.5473	1012.5	132.45
1051.0682	3221.4701	1016.95	136.95
1051.1701	3222.3922	1016.95	137.2
1051.2719	3223.3137	1016.05	136.75
1051.3737	3224.2346	1014.7	136.2
1051.4754	3225.1549	1013.15	134.8
1051.5771	3226.0746	1010.9	132
1051.6788	3226.9937	1009	129.55
1051.7804	3227.9121	1009.85	130.55
1051.8819	3228.83	1011.7	131.8
1051.9834	3229.7473	1007.25	128.8
1052.0849	3230.6639	1010	130.15
1052.1863	3231.5799	1009.45	129.8
1052.2876	3232.4954	1006.25	127.55
1052.3889	3233.4102	1007.7	129.1
1052.4902	3234.3244	1004.8	123.85
1052.5914	3235.238	1004.4	125.45
1052.6926	3236.151	1028.4	127.1
1052.7937	3237.0634	1000.9	122.9
1052.8948	3237.9752	1003.45	125.2
1052.9958	3238.8864	1002.1	121.35
1053.0968	3239.797	1003.2	121.9
1053.1977	3240.7069	1005.5	122.9
1053.2986	3241.6163	1000.4	118.7
1053.3994	3242.5251	998.25	119.65
1053.5002	3243.4332	1000.1	121.8
1053.6009	3244.3408	995.7	114.95
1053.7016	3245.2477	994.8	115.85
1053.8022	3246.154	996.6	116.5
1053.9028	3247.0598	995.25	114.6
1054.0034	3247.9649	995.45	116.45
1054.1039	3248.8694	994.85	115.05
1054.2043	3249.7733	991.55	112.5
1054.3047	3250.6766	993.8	114.05
1054.4051	3251.5793	992.05	110.7
1054.5054	3252.4814	994.2	113.9
1054.6056	3253.3829	988.5	108.3
1054.7058	3254.2838	988.15	106.95
1054.806	3255.1841	988.1	108.1
1054.9061	3256.0838	985.85	108.75
1055.0061	3256.9829	987.25	108.25
1055.1062	3257.8814	985.15	102.9
1055.2061	3258.7792	988.85	107.1
1055.306	3259.6765	981.5	98.9
1055.4059	3260.5731	979.25	101.65
1055.5057	3261.4692	985.35	105.15
1055.6055	3262.3647	983.05	103
1055.7052	3263.2595	978.2	97.85
1055.8049	3264.1538	977	96.6
1055.9045	3265.0474	972.45	91.85
1056.0041	3265.9404	971.35	92.05
1056.1036	3266.8329	971.15	91.1
1056.2031	3267.7247	985.2	95.65
1056.3025	3268.616	968.1	89.6
1056.4019	3269.5066	967.75	87.05
1056.5013	3270.3966	964.3	81.3
1056.6005	3271.286	959.6	81.8
