Software Version:	3.9.2.0
Unit SN:	10000200
Spectrometer SN:	6960
Date:	3/6/2024 9:49:28 AM
Data Line Index:	25
Spectral Points:	2048
Integration time (ms):	125
Averages:	20
Delay (ms):	30
Sequence Number:	1
Processing:	dark subtract
Laser Power (mW):	300
Laser Current (mA):	823
Laser Diode Temp (C):	25.1
Laser Case Temp (C):	24.3
System Temp (C):	24.1
Spectrometer Temp (C):	21.7
CCD Temp (C):	0.001
Secondary Temp (C):	20.013
Heatsink Temp (C):	18.026
CCDPCB Temp (C):	30.56
SecondaryPCB Temp (C):	26.003

Wavelength	RamanShift	Raw Counts	Dark Subtracted
787.061	30.1047	448.05	40.65
787.2016	32.3739	445.3	39.35
787.3422	34.6426	451.9	46.45
787.4828	36.9109	458.3	48.3
787.6235	39.1787	461.25	48.5
787.7642	41.4461	467.95	53.25
787.9049	43.7131	478.3	57.6
788.0456	45.9796	482.35	61.05
788.1863	48.2456	490.45	64.65
788.3271	50.5112	493.45	64.2
788.4679	52.7764	503	71.15
788.6087	55.0411	511.2	72.95
788.7496	57.3054	524.35	82.05
788.8904	59.5692	526.75	79.25
789.0313	61.8326	538.05	89.6
789.1722	64.0955	547.35	97.3
789.3132	66.3579	556.4	102.15
789.4541	68.6199	573.9	114.9
789.5951	70.8815	600.75	137.85
789.7361	73.1426	644.65	176.65
789.8771	75.4032	761.7	290.5
790.0181	77.6634	1037.95	563.3
790.1592	79.9231	1701.85	1225.35
790.3003	82.1824	3106.3	2621.5
790.4414	84.4412	5577.65	5082.3
790.5825	86.6995	8920.2	8409.25
790.7237	88.9574	12208.85	11688.25
790.8648	91.2148	14651.3	14123.05
791.006	93.4717	16019.1	15486.65
791.1472	95.7282	16606.35	16069.5
791.2885	97.9842	16912.05	16376
791.4297	100.2398	17025.2	16485.5
791.571	102.4949	17080.2	16534.25
791.7123	104.7495	17078.15	16528.5
791.8536	107.0036	17085.8	16534.05
791.9949	109.2573	17101.15	16555.25
792.1363	111.5105	17115.8	16565.85
792.2777	113.7632	17063.2	16511.25
792.4191	116.0154	17086.25	16522.6
792.5605	118.2672	17144.35	16586.05
792.7019	120.5185	17139.8	16582.3
792.8434	122.7693	17166.25	16605.35
792.9849	125.0197	17196.75	16630.3
793.1264	127.2696	17183.8	16614.15
793.2679	129.519	17244.65	16669.9
793.4094	131.7679	17273.7	16699.1
793.551	134.0163	17324.15	16745.15
793.6926	136.2642	17357.7	16775.5
793.8342	138.5117	17368.35	16783.1
793.9758	140.7587	17340.15	16756.3
794.1175	143.0052	17378.85	16789
794.2591	145.2512	17363.15	16775.4
794.4008	147.4967	17334.85	16743.65
794.5425	149.7417	17348.65	16753.6
794.6842	151.9863	17361.95	16763.6
794.826	154.2304	17379.1	16776.5
794.9677	156.4739	17342.55	16734.5
795.1095	158.717	17361.7	16755.25
795.2513	160.9596	17378.2	16765.45
795.3931	163.2017	17382.25	16766.15
795.535	165.4433	17430	16813.4
795.6768	167.6844	17414.05	16796.8
795.8187	169.925	17409.85	16789.3
795.9606	172.1651	17339.45	16716.35
796.1025	174.4047	17358.65	16731.65
796.2445	176.6439	17366	16736.7
796.3864	178.8825	17361.95	16726.95
796.5284	181.1206	17399.65	16762.95
796.6704	183.3582	17390.05	16749.05
796.8124	185.5954	17414	16768.75
796.9544	187.832	17439.7	16792.75
797.0965	190.0681	17489.9	16840.2
797.2386	192.3037	17507.75	16854.95
797.3806	194.5388	17487.6	16830.85
797.5228	196.7734	17567.95	16910.2
797.6649	199.0075	17596.65	16939
797.807	201.2411	17706.2	17047.9
797.9492	203.4742	17721.8	17060.45
798.0914	205.7068	17776	17110.35
798.2336	207.9389	17833.6	17167.45
798.3758	210.1704	17870	17210.45
798.518	212.4015	17796.05	17145.35
798.6603	214.632	17851.7	17207.75
798.8025	216.862	17897.2	17255.15
798.9448	219.0915	17898.15	17250.55
799.0871	221.3205	17909.1	17261.9
799.2294	223.549	18004.55	17361.05
799.3718	225.777	18011.35	17363.4
799.5141	228.0044	18031.95	17380.15
799.6565	230.2314	18069.05	17414.35
799.7989	232.4578	18047.15	17388.3
799.9413	234.6837	18067.45	17400.2
800.0837	236.909	18135.4	17463.8
800.2262	239.1339	18132.55	17437.75
800.3687	241.3582	18159.5	17478.55
800.5111	243.582	18134.35	17425.65
800.6536	245.8053	18157.4	17461.45
800.7961	248.0281	18180.85	17491
800.9387	250.2503	18185.3	17490.9
801.0812	252.472	18192.65	17496.55
801.2238	254.6932	18225.7	17531.55
801.3664	256.9139	18168.35	17472.25
801.509	259.134	18218.55	17515.9
801.6516	261.3536	18202.35	17504.55
801.7942	263.5727	18293.85	17593.75
801.9369	265.7912	18280.8	17580.05
802.0795	268.0092	18330.9	17628.05
802.2222	270.2267	18332.6	17632.85
802.3649	272.4436	18369.1	17665.65
802.5076	274.6601	18378.75	17663.55
802.6504	276.8759	18359.3	17646.85
802.7931	279.0913	18391.95	17680.95
802.9359	281.3061	18379.5	17666.1
803.0787	283.5204	18448.55	17732.55
803.2215	285.7341	18479.2	17759.4
803.3643	287.9473	18518	17789.65
803.5071	290.16	18479.65	17759.7
803.6499	292.3721	18466.65	17750.2
803.7928	294.5837	18451.25	17734.85
803.9357	296.7947	18400.55	17683
804.0786	299.0052	18409.85	17693.1
804.2215	301.2152	18362.35	17639.9
804.3644	303.4246	18386.75	17667.3
804.5074	305.6334	18361.7	17642.45
804.6503	307.8418	18395.85	17668.5
804.7933	310.0495	18370.5	17646.1
804.9363	312.2568	18347	17622.65
805.0793	314.4635	18281.7	17553.7
805.2223	316.6696	18261.75	17531.9
805.3653	318.8752	18177.7	17439.45
805.5084	321.0802	18158.35	17429.7
805.6514	323.2847	18164.55	17430.05
805.7945	325.4887	18141.5	17408.55
805.9376	327.692	18060.15	17327
806.0807	329.8949	18175.85	17438.25
806.2238	332.0972	18172.95	17433.75
806.367	334.2989	18227.25	17486.7
806.5101	336.5001	18182.7	17440.25
806.6533	338.7007	18192.2	17447.6
806.7965	340.9008	18217.7	17473.95
806.9397	343.1003	18131.9	17385.9
807.0829	345.2992	18140.5	17394.85
807.2261	347.4976	18126.85	17375.75
807.3693	349.6955	18076.15	17321.8
807.5126	351.8927	18116.6	17361.6
807.6559	354.0895	18087.2	17320.9
807.7991	356.2856	18104.2	17347.4
807.9424	358.4812	18070.95	17313.95
808.0857	360.6763	18076.85	17320.7
808.2291	362.8707	18026.7	17267.55
808.3724	365.0646	18066.3	17301.45
808.5158	367.258	18020.15	17257.5
808.6591	369.4508	18007.05	17239
808.8025	371.643	18039.65	17273.65
808.9459	373.8346	18016.55	17246.5
809.0893	376.0257	17989.65	17218.55
809.2327	378.2162	17959.25	17189.95
809.3762	380.4062	17988.65	17217.7
809.5196	382.5956	17918.75	17151.1
809.6631	384.7844	17889.65	17124.35
809.8066	386.9726	17818.5	17053.5
809.9501	389.1603	17808.05	17048.15
810.0936	391.3474	17831.3	17036.75
810.2371	393.5339	17789.75	17025.45
810.3806	395.7199	17729.25	16967.2
810.5241	397.9052	17718.05	16955.7
810.6677	400.09	17748.1	16981.2
810.8113	402.2743	17724.15	16957.15
810.9548	404.4579	17687.65	16920.35
811.0984	406.641	17774.2	17000.65
811.2421	408.8235	17801	17029.9
811.3857	411.0054	17818.3	17044.7
811.5293	413.1868	17944.55	17166.65
811.673	415.3675	17958.7	17176.55
811.8166	417.5477	17979.45	17197.95
811.9603	419.7273	17885.65	17103.7
812.104	421.9064	17766.35	16976.45
812.2477	424.0848	17701.6	16916.2
812.3914	426.2627	17632.9	16848.5
812.5351	428.4399	17565.8	16778.8
812.6788	430.6166	17509.7	16720.45
812.8226	432.7928	17470	16676.05
812.9663	434.9683	17404.35	16614.15
813.1101	437.1432	17373.9	16581.5
813.2539	439.3176	17281.1	16489.05
813.3977	441.4914	17237.45	16447.95
813.5415	443.6645	17248.05	16456.65
813.6853	445.8371	17161.55	16367.7
813.8291	448.0091	17114.2	16323.1
813.973	450.1806	17069.85	16276.1
814.1168	452.3514	17026.15	16231.95
814.2607	454.5216	17040.6	16237.25
814.4046	456.6913	16932.25	16133.05
814.5485	458.8603	16924.95	16130.35
814.6924	461.0288	16965.85	16170.2
814.8363	463.1967	16918	16121.55
814.9802	465.3639	16932.8	16136.85
815.1241	467.5306	16877	16076.75
815.2681	469.6967	16858.55	16061.55
815.412	471.8622	16788.6	15990.35
815.556	474.0271	16765.5	15969.95
815.7	476.1914	16771.15	15970.85
815.844	478.3551	16736	15934.4
815.988	480.5182	16802.85	16001
816.132	482.6807	16820.45	16020.3
816.276	484.8426	16812.1	16014.5
816.4201	487.0039	16850.3	16051.2
816.5641	489.1647	16857.05	16053.75
816.7082	491.3248	16872.15	16066.85
816.8522	493.4843	16854.2	16051.05
816.9963	495.6432	16852.75	16049
817.1404	497.8015	16764.75	15955
817.2845	499.9592	16804.45	15994.7
817.4286	502.1163	16769.55	15960.3
817.5727	504.2728	16717.3	15905.95
817.7168	506.4287	16735.6	15930.7
817.861	508.5839	16667.9	15861.7
818.0051	510.7386	16642.6	15836.05
818.1493	512.8927	16654.85	15841.65
818.2935	515.0461	16660.65	15849.1
818.4377	517.199	16654.45	15843.65
818.5818	519.3512	16659.75	15847.8
818.726	521.5029	16639.65	15821.55
818.8703	523.6539	16647.55	15833.1
819.0145	525.8043	16648.1	15834.9
819.1587	527.9541	16614.2	15796.7
819.303	530.1033	16550.45	15734
819.4472	532.2519	16519.45	15703.95
819.5915	534.3999	16525.45	15708.1
819.7357	536.5472	16477.2	15660.65
819.88	538.694	16480.1	15664.2
820.0243	540.8401	16479.25	15662.1
820.1686	542.9856	16516.85	15696.55
820.3129	545.1305	16489.95	15669.4
820.4572	547.2748	16494.2	15669.35
820.6016	549.4185	16482.65	15659.1
820.7459	551.5615	16444.3	15619.85
820.8902	553.704	16464.15	15642
821.0346	555.8458	16433.55	15613.55
821.1789	557.987	16430.7	15608.45
821.3233	560.1276	16416.2	15594
821.4677	562.2675	16455.75	15631.45
821.6121	564.4069	16461.2	15637.5
821.7565	566.5456	16447.6	15623.75
821.9009	568.6837	16439.55	15612.7
822.0453	570.8212	16348.25	15522.75
822.1897	572.958	16305.7	15479.3
822.3342	575.0942	16241.95	15416.15
822.4786	577.2299	16189.05	15363.7
822.6231	579.3648	16125.05	15301.35
822.7675	581.4992	16069.35	15247.3
822.912	583.6329	15998.65	15175.9
823.0565	585.766	16011.45	15188.15
823.201	587.8985	15994.15	15168.35
823.3454	590.0304	15945	15108.4
823.4899	592.1616	15943.65	15114.25
823.6345	594.2922	15936	15102.05
823.779	596.4222	15862.5	15029.5
823.9235	598.5515	15825.6	14993.05
824.068	600.6802	15763	14929.6
824.2126	602.8083	15657.3	14826.2
824.3571	604.9358	15669.85	14836.7
824.5017	607.0626	15624.2	14790.4
824.6462	609.1888	15586.9	14750.85
824.7908	611.3144	15590.25	14751.55
824.9354	613.4393	15580.5	14740.65
825.08	615.5636	15584.4	14747.1
825.2246	617.6873	15619.4	14784
825.3692	619.8103	15629.15	14790.9
825.5138	621.9327	15590.2	14750.45
825.6584	624.0544	15582.1	14748.4
825.803	626.1756	15520.75	14684.6
825.9477	628.2961	15472.15	14634.75
826.0923	630.4159	15457.8	14619.6
826.237	632.5351	15455.2	14617.7
826.3816	634.6537	15401.6	14562.15
826.5263	636.7716	15395.05	14551.95
826.6709	638.8889	15389.9	14546.8
826.8156	641.0056	15395.6	14552.7
826.9603	643.1216	15355.75	14513.25
827.105	645.237	15396.3	14553.8
827.2497	647.3518	15325.15	14484.1
827.3944	649.4659	15323.05	14483.95
827.5391	651.5793	15305.4	14467.4
827.6838	653.6922	15265.05	14425.45
827.8285	655.8043	15263.3	14423.95
827.9733	657.9159	15222.45	14379.9
828.118	660.0268	15184.95	14338.8
828.2627	662.137	15150.35	14304.5
828.4075	664.2466	15153.15	14305.15
828.5522	666.3556	15184.75	14338.45
828.697	668.4639	15079.6	14232.75
828.8418	670.5716	15122.4	14278.7
828.9865	672.6786	15084.45	14240.55
829.1313	674.785	15062.75	14215.65
829.2761	676.8907	15027.2	14183.8
829.4209	678.9958	15019.25	14173.25
829.5657	681.1002	14950.85	14102.55
829.7105	683.204	14931.95	14080.8
829.8553	685.3072	14909.8	14058.7
830.0001	687.4097	14878.45	14029.25
830.1449	689.5115	14895.9	14045.65
830.2898	691.6127	14879.2	14032.75
830.4346	693.7132	14856.55	14006.55
830.5794	695.8131	14859.65	13999.15
830.7243	697.9123	14855.15	14003.3
830.8691	700.0109	14833.1	13979.6
831.014	702.1089	14810.8	13958.7
831.1588	704.2061	14812.9	13961.1
831.3037	706.3028	14801.8	13946.35
831.4486	708.3987	14782.3	13929.65
831.5935	710.4941	14754.75	13901.1
831.7383	712.5887	14765.6	13911.45
831.8832	714.6827	14757	13902.65
832.0281	716.7761	14753.05	13900.65
832.173	718.8688	14743.85	13887.35
832.3179	720.9608	14714.6	13857.5
832.4628	723.0522	14743.55	13881.4
832.6077	725.1429	14676.45	13821.05
832.7527	727.233	14655.45	13800.15
832.8976	729.3224	14720.9	13866.15
833.0425	731.4112	14707.05	13850.3
833.1874	733.4993	14661.55	13801.95
833.3324	735.5867	14616	13759.6
833.4773	737.6735	14557.3	13698.9
833.6222	739.7596	14566.1	13707.25
833.7672	741.845	14512.55	13655.55
833.9122	743.9298	14477.4	13617.45
834.0571	746.014	14491.65	13634.45
834.2021	748.0974	14472.85	13612.25
834.347	750.1802	14400.75	13540.15
834.492	752.2624	14374.35	13514.2
834.637	754.3439	14293.35	13430.75
834.782	756.4247	14287.75	13420.35
834.9269	758.5048	14221.6	13361.05
835.0719	760.5843	14179.95	13318.55
835.2169	762.6631	14177	13315.55
835.3619	764.7413	14161.9	13299.1
835.5069	766.8188	14192.4	13330.65
835.6519	768.8956	14153.9	13289.45
835.7969	770.9718	14212.65	13352.8
835.9419	773.0473	14147.75	13287.75
836.0869	775.1221	14129.8	13269.45
836.232	777.1962	14045.15	13183.15
836.377	779.2697	14066.95	13204.75
836.522	781.3426	14103.35	13219.85
836.667	783.4147	14047.25	13183.35
836.8121	785.4862	14074.05	13212.2
836.9571	787.557	13999.05	13134.85
837.1021	789.6271	13941.7	13078.15
837.2472	791.6966	13841.1	12977.1
837.3922	793.7654	13763.85	12900.1
837.5373	795.8335	13743.1	12879.55
837.6823	797.901	13676.75	12815.9
837.8274	799.9678	13684.4	12817.45
837.9724	802.0339	13653.05	12788.05
838.1175	804.0993	13632.35	12755.7
838.2626	806.1641	13574.45	12709.15
838.4076	808.2282	13546.2	12682.65
838.5527	810.2916	13552.2	12682.8
838.6978	812.3544	13543.9	12679.45
838.8428	814.4164	13516.2	12651.75
838.9879	816.4778	13525	12655.95
839.133	818.5385	13493.05	12625.15
839.2781	820.5986	13472.05	12605.6
839.4232	822.658	13484.35	12615.45
839.5682	824.7166	13454.95	12588.9
839.7133	826.7747	13555	12687.35
839.8584	828.832	13516.4	12647.4
840.0035	830.8886	13473.35	12603.35
840.1486	832.9446	13507.85	12636.85
840.2937	834.9999	13495.05	12625.8
840.4388	837.0545	13459.5	12589.15
840.5839	839.1085	13397.15	12528.4
840.729	841.1618	13326.5	12453.6
840.8741	843.2143	13261.45	12392.35
841.0192	845.2662	13228	12359.55
841.1643	847.3175	13221	12354.6
841.3095	849.368	13176.5	12303.7
841.4546	851.4179	13129.95	12260.1
841.5997	853.467	13093.45	12223.5
841.7448	855.5155	13076.65	12204.5
841.8899	857.5633	13067.45	12195.95
842.0351	859.6105	13026.95	12157.45
842.1802	861.6569	13013.8	12145.45
842.3253	863.7027	13000.55	12128.2
842.4704	865.7478	12984.6	12112.4
842.6156	867.7922	12950.75	12080.05
842.7607	869.8359	12930.45	12057.95
842.9058	871.8789	12927.25	12056.05
843.0509	873.9212	12919.35	12016.3
843.1961	875.9629	12874.05	12001.95
843.3412	878.0039	12902.85	12028.15
843.4863	880.0441	12865.5	11994.5
843.6315	882.0837	12866.3	11996.05
843.7766	884.1226	12875.05	11999.85
843.9218	886.1609	12875.25	12003.1
844.0669	888.1984	12899.6	12029.95
844.212	890.2352	12915.8	12045.6
844.3572	892.2714	12879.25	12002.25
844.5023	894.3069	12892.75	12018.9
844.6475	896.3416	12799.9	11924.9
844.7926	898.3757	12740.25	11865.85
844.9377	900.4091	12770.15	11892.75
845.0829	902.4418	12722.5	11843.9
845.228	904.4739	12693.2	11818.45
845.3732	906.5052	12689.95	11816.25
845.5183	908.5358	12670.95	11795.1
845.6635	910.5658	12624.55	11745.4
845.8086	912.595	12593.65	11721.7
845.9538	914.6236	12541.35	11666.45
846.0989	916.6515	12536	11659.7
846.2441	918.6786	12500.75	11623.2
846.3892	920.7051	12483.75	11605.95
846.5344	922.7309	12498.25	11622.1
846.6795	924.756	12431.2	11555.8
846.8246	926.7804	12437.6	11556.75
846.9698	928.8041	12361.75	11484.7
847.1149	930.8272	12382.5	11506.7
847.2601	932.8495	12297.95	11420.55
847.4052	934.8711	12307.4	11428.8
847.5504	936.892	12282.25	11405.5
847.6955	938.9123	12253.25	11377.75
847.8407	940.9318	12218.5	11344.9
847.9858	942.9506	12195.2	11315.95
848.131	944.9688	12157.8	11279.25
848.2761	946.9862	12126.4	11250.05
848.4213	949.003	12043.9	11165.9
848.5664	951.019	12015.75	11138.1
848.7115	953.0344	11972.75	11094.45
848.8567	955.0491	11965.5	11087.8
849.0018	957.063	11939.75	11061.95
849.147	959.0763	11969.6	11092.7
849.2921	961.0888	11910.15	11032.15
849.4373	963.1007	11948.2	11068.65
849.5824	965.1119	11904.05	11027.2
849.7275	967.1223	11919.5	11043.35
849.8727	969.1321	11867.35	10991.9
850.0178	971.1412	11859.35	10981.4
850.1629	973.1495	11846	10967.6
850.3081	975.1572	11832.05	10909.65
850.4532	977.1641	11792.85	10917.6
850.5983	979.1704	11745.4	10867.25
850.7435	981.1759	11712.45	10831.55
850.8886	983.1808	11728.7	10845.55
851.0337	985.1849	11667.35	10777.9
851.1788	987.1884	11642.8	10761.15
851.324	989.1911	11615.5	10733.7
851.4691	991.1932	11607.15	10727.45
851.6142	993.1945	11575.95	10697.45
851.7593	995.1951	11520.65	10640.6
851.9045	997.1951	11523.45	10636.7
852.0496	999.1943	11463.8	10585.85
852.1947	1001.1928	11396.4	10511.6
852.3398	1003.1906	11363.85	10484.05
852.4849	1005.1877	11379.7	10497.65
852.63	1007.1841	11311.75	10432.65
852.7751	1009.1798	11329.55	10450.25
852.9202	1011.1748	11268.3	10388.25
853.0653	1013.1691	11243.85	10362.95
853.2104	1015.1627	11182.95	10300.8
853.3555	1017.1556	11095.35	10214
853.5006	1019.1477	11068.75	10186.8
853.6457	1021.1392	11010.65	10130
853.7908	1023.1299	10969.1	10089.7
853.9359	1025.12	10929.15	10051.15
854.081	1027.1093	10890.7	10018.1
854.2261	1029.0979	10876.6	10004.4
854.3712	1031.0859	10839.4	9963.1
854.5163	1033.0731	10825.15	9948.6
854.6613	1035.0596	10785.25	9907.9
854.8064	1037.0454	10752.95	9870.35
854.9515	1039.0304	10712.55	9832.2
855.0965	1041.0148	10658.95	9776.8
855.2416	1042.9985	10611.65	9728.8
855.3867	1044.9814	10630.55	9748.3
855.5317	1046.9636	10550.35	9667.45
855.6768	1048.9452	10533.05	9654.1
855.8219	1050.926	10519.9	9639.4
855.9669	1052.9061	10503.5	9621.75
856.112	1054.8855	10479.9	9599.5
856.257	1056.8642	10463.85	9581.8
856.4021	1058.8421	10475.65	9589.8
856.5471	1060.8194	10446.5	9565.75
856.6921	1062.7959	10419.05	9537.45
856.8372	1064.7717	10392.7	9510.3
856.9822	1066.7469	10345.6	9462.8
857.1272	1068.7213	10333	9447.6
857.2723	1070.695	10329.7	9448.2
857.4173	1072.6679	10284.85	9400
857.5623	1074.6402	10296.15	9414.4
857.7073	1076.6117	10296.35	9407.9
857.8523	1078.5826	10298.05	9413.65
857.9973	1080.5527	10200.2	9312.9
858.1423	1082.5221	10183.85	9301
858.2873	1084.4908	10184.15	9299.45
858.4323	1086.4587	10118.45	9233.55
858.5773	1088.426	10100.35	9216.55
858.7223	1090.3925	10065	9178.15
858.8673	1092.3584	10057.9	9174.55
859.0123	1094.3235	9998.45	9116.95
859.1573	1096.2879	9974.05	9088.95
859.3022	1098.2515	9997.7	9115.35
859.4472	1100.2145	9989.05	9106.3
859.5922	1102.1767	10012.75	9127.65
859.7371	1104.1382	9992.8	9109.15
859.8821	1106.099	9977.3	9091.35
860.027	1108.0591	9962.8	9080.15
860.172	1110.0185	9964.35	9077.85
860.3169	1111.9771	9972.4	9086.65
860.4619	1113.9351	9958	9073.25
860.6068	1115.8923	9961.6	9076.95
860.7517	1117.8488	9935.15	9050.65
860.8967	1119.8045	9879.75	8996.15
861.0416	1121.7596	9847.35	8963.4
861.1865	1123.7139	9772.2	8889.95
861.3314	1125.6675	9715.7	8830.2
861.4763	1127.6204	9715.8	8831.8
861.6212	1129.5726	9693.6	8808.8
861.7661	1131.524	9674.45	8791.45
861.911	1133.4748	9638.9	8754.6
862.0559	1135.4248	9590.35	8702.8
862.2008	1137.3741	9543.7	8659.25
862.3457	1139.3226	9521.55	8637.4
862.4905	1141.2705	9513.8	8630.25
862.6354	1143.2176	9455.6	8564.05
862.7803	1145.164	9484.25	8596.1
862.9251	1147.1097	9468.7	8582.65
863.07	1149.0546	9435.2	8549.9
863.2148	1150.9989	9407.85	8522.8
863.3597	1152.9424	9399.4	8514.05
863.5045	1154.8852	9336.5	8448.3
863.6493	1156.8272	9359.85	8473.95
863.7942	1158.7686	9364.4	8474.1
863.939	1160.7092	9328.95	8442.1
864.0838	1162.6491	9274.25	8387.95
864.2286	1164.5883	9291.35	8407.3
864.3734	1166.5267	9268	8384.9
864.5182	1168.4644	9272.2	8388.3
864.663	1170.4014	9289.5	8398.65
864.8078	1172.3377	9300.05	8413.65
864.9526	1174.2732	9287.65	8404.85
865.0974	1176.2081	9349.35	8465.9
865.2421	1178.1421	9356.25	8466.05
865.3869	1180.0755	9405.15	8521.55
865.5317	1182.0082	9397.1	8512.35
865.6764	1183.9401	9397.15	8511.95
865.8212	1185.8713	9327.05	8444.2
865.9659	1187.8017	9237.2	8357.4
866.1106	1189.7315	9203	8321.65
866.2554	1191.6605	9106.4	8224.9
866.4001	1193.5888	9042.05	8160.65
866.5448	1195.5163	9006.15	8123.3
866.6895	1197.4432	8976.15	8089.3
866.8342	1199.3693	8931.3	8046.35
866.9789	1201.2947	8914.75	8023.15
867.1236	1203.2193	8859.85	7975.1
867.2683	1205.1432	8856.2	7968.8
867.413	1207.0664	8804.55	7917.15
867.5576	1208.9889	8789.6	7901.1
867.7023	1210.9106	8766.65	7880.25
867.847	1212.8316	8715.6	7833.2
867.9916	1214.7519	8750.05	7853.55
868.1363	1216.6715	8697.55	7813.1
868.2809	1218.5903	8673.2	7789.25
868.4255	1220.5084	8666.55	7780.35
868.5701	1222.4257	8680.85	7794.4
868.7148	1224.3424	8658.65	7774.65
868.8594	1226.2583	8656.45	7768.15
869.004	1228.1735	8637.6	7749.95
869.1486	1230.0879	8616.2	7729.2
869.2932	1232.0016	8625.05	7738.95
869.4377	1233.9146	8612.8	7724.1
869.5823	1235.8269	8605.35	7719.8
869.7269	1237.7384	8606.65	7722.15
869.8715	1239.6492	8572.95	7686.45
870.016	1241.5592	8569.65	7684.6
870.1606	1243.4686	8554.2	7665.5
870.3051	1245.3772	8585.75	7699.6
870.4496	1247.285	8595.8	7709.75
870.5941	1249.1922	8626.1	7739.5
870.7387	1251.0986	8628.85	7745.35
870.8832	1253.0042	8642.8	7757.1
871.0277	1254.9092	8666.25	7782.5
871.1722	1256.8134	8706	7822.4
871.3167	1258.7169	8722.75	7835
871.4611	1260.6196	8715.65	7829.7
871.6056	1262.5216	8733.25	7844.9
871.7501	1264.4229	8704.55	7818.65
871.8945	1266.3234	8671.4	7784
872.039	1268.2232	8652.15	7764.55
872.1834	1270.1223	8605.85	7718.95
872.3278	1272.0207	8579.05	7691.6
872.4723	1273.9183	8560.9	7668.2
872.6167	1275.8151	8569.55	7681.75
872.7611	1277.7113	8567.55	7681.6
872.9055	1279.6067	8571.85	7685.65
873.0499	1281.5014	8624.8	7735.1
873.1943	1283.3953	8684.3	7794.15
873.3386	1285.2885	8798.7	7912.5
873.483	1287.181	8842.55	7956.3
873.6274	1289.0727	8858.75	7974.4
873.7717	1290.9637	8846.9	7961.15
873.9161	1292.854	8792.05	7906.9
874.0604	1294.7435	8723.25	7837.35
874.2047	1296.6323	8670.65	7783.7
874.349	1298.5204	8611.9	7720.9
874.4933	1300.4077	8557.85	7668.55
874.6376	1302.2943	8522.8	7636.8
874.7819	1304.1802	8507.9	7621.4
874.9262	1306.0653	8490.45	7601.95
875.0705	1307.9497	8437.95	7550.45
875.2147	1309.8333	8432.35	7548.05
875.359	1311.7162	8393.45	7506.75
875.5032	1313.5984	8369.35	7479.5
875.6475	1315.4798	8344.2	7455.3
875.7917	1317.3605	8317.2	7412.45
875.9359	1319.2405	8312.6	7422.35
876.0801	1321.1197	8286.3	7397.25
876.2243	1322.9982	8235.35	7343.65
876.3685	1324.876	8189.15	7303.75
876.5127	1326.753	8140.35	7252.15
876.6569	1328.6293	8122.2	7235.1
876.801	1330.5048	8063.55	7172.2
876.9452	1332.3796	7999.9	7110.2
877.0893	1334.2537	7982.55	7069
877.2335	1336.127	7943.15	7057.15
877.3776	1337.9996	7919.65	7031.8
877.5217	1339.8714	7887.8	7000.6
877.6658	1341.7426	7911	6981.05
877.8099	1343.6129	7865.65	6976.7
877.954	1345.4826	7844.3	6958.25
878.0981	1347.3515	7819.7	6929.7
878.2422	1349.2196	7798.7	6911.8
878.3862	1351.087	7797.35	6909.2
878.5303	1352.9537	7794.05	6903.4
878.6743	1354.8197	7772.15	6882.95
878.8184	1356.6849	7777.25	6888.65
878.9624	1358.5493	7756.3	6868.6
879.1064	1360.4131	7771	6883.55
879.2504	1362.276	7767.5	6880.25
879.3944	1364.1383	7739	6850.15
879.5384	1365.9998	7766.8	6872.95
879.6823	1367.8606	7727.95	6840
879.8263	1369.7206	7707.2	6818.2
879.9702	1371.5799	7692.75	6803.8
880.1142	1373.4384	7682.1	6792.45
880.2581	1375.2962	7648.5	6760.25
880.402	1377.1533	7574.3	6687.25
880.5459	1379.0096	7515.25	6626.5
880.6898	1380.8652	7505.6	6619.2
880.8337	1382.7201	7470.95	6583.75
880.9776	1384.5742	7425.55	6536.9
881.1215	1386.4275	7391.65	6503.3
881.2653	1388.2802	7360.6	6473.85
881.4092	1390.132	7335.3	6448.75
881.553	1391.9832	7319.7	6430.3
881.6968	1393.8336	7283.85	6394.6
881.8406	1395.6832	7275.5	6386.55
881.9844	1397.5322	7234.1	6347
882.1282	1399.3803	7206.4	6314.3
882.272	1401.2278	7160.6	6272.05
882.4158	1403.0745	7148.35	6259
882.5595	1404.9204	7120.65	6232.2
882.7033	1406.7656	7114.7	6225.3
882.847	1408.6101	7084.55	6195.55
882.9908	1410.4538	7057.95	6170.15
883.1345	1412.2968	7034.7	6145.4
883.2782	1414.139	7040.85	6153.85
883.4219	1415.9805	7007.15	6120.05
883.5656	1417.8213	6996.05	6102.35
883.7092	1419.6613	6968.8	6082.35
883.8529	1421.5006	6975.75	6086.85
883.9965	1423.3391	6970	6081.35
884.1402	1425.1769	7001.4	6113.35
884.2838	1427.0139	7028	6138.45
884.4274	1428.8502	7041.8	6150.75
884.571	1430.6858	7064.15	6175.9
884.7146	1432.5206	7029.5	6140.25
884.8582	1434.3547	7039.9	6151.85
885.0018	1436.188	7011.55	6125.25
885.1453	1438.0206	7001.95	6112.85
885.2889	1439.8524	6996.15	6106.2
885.4324	1441.6835	6976.75	6091.45
885.5759	1443.5139	6965.8	6074.35
885.7194	1445.3435	6945.4	6056.25
885.8629	1447.1724	6928.15	6039.55
886.0064	1449.0005	6923.95	6037.1
886.1499	1450.8279	6895.7	6006.5
886.2933	1452.6545	6887.6	5998.25
886.4368	1454.4804	6883.15	5995.85
886.5802	1456.3056	6879.55	5984.5
886.7237	1458.13	6854.75	5967.95
886.8671	1459.9536	6831.8	5942.5
887.0105	1461.7766	6801.65	5912.9
887.1539	1463.5987	6788.65	5898.8
887.2972	1465.4202	6725.55	5838.05
887.4406	1467.2409	6706.05	5817.1
887.584	1469.0608	6683.95	5794.15
887.7273	1470.88	6636.7	5749.2
887.8706	1472.6984	6619.1	5731.35
888.0139	1474.5161	6585.9	5694.95
888.1572	1476.3331	6579.85	5690.4
888.3005	1478.1493	6561.25	5672.9
888.4438	1479.9648	6576.9	5691
888.5871	1481.7795	6537.95	5651.2
888.7303	1483.5935	6527.9	5639.9
888.8736	1485.4067	6493.55	5606.55
889.0168	1487.2192	6482.15	5594.95
889.16	1489.031	6507.3	5617
889.3032	1490.842	6475.9	5587.65
889.4464	1492.6522	6463.85	5577.25
889.5896	1494.4618	6458.05	5570.6
889.7327	1496.2705	6435.95	5549
889.8759	1498.0785	6418.85	5529.4
890.019	1499.8858	6395.35	5507
890.1622	1501.6924	6377.35	5489
890.3053	1503.4981	6360.85	5473.95
890.4484	1505.3032	6339.2	5450.1
890.5914	1507.1075	6328.7	5439.4
890.7345	1508.911	6314.05	5425.55
890.8776	1510.7138	6309.8	5423.25
891.0206	1512.5159	6287.15	5398.75
891.1637	1514.3172	6266.55	5380.95
891.3067	1516.1178	6253.7	5367.1
891.4497	1517.9176	6242.7	5352.9
891.5927	1519.7166	6206.35	5320
891.7357	1521.515	6192.65	5299.05
891.8786	1523.3126	6175.5	5288.25
892.0216	1525.1094	6168.05	5280.15
892.1645	1526.9055	6104.45	5219.2
892.3074	1528.7008	6093.6	5205.8
892.4503	1530.4954	6054.7	5168.05
892.5932	1532.2893	6042	5155.75
892.7361	1534.0824	6014.15	5121
892.879	1535.8747	6013.15	5123.65
893.0218	1537.6663	5998.4	5109.8
893.1647	1539.4572	5977.2	5088.4
893.3075	1541.2473	5960.45	5073.3
893.4503	1543.0367	5938.25	5050.95
893.5931	1544.8253	5904.15	5013.65
893.7359	1546.6132	5902.1	5013.1
893.8787	1548.4003	5884.35	4988.45
894.0214	1550.1867	5867.4	4972.45
894.1642	1551.9723	5860.55	4969.7
894.3069	1553.7572	5831.5	4942.4
894.4496	1555.5414	5843.7	4956.8
894.5923	1557.3247	5839.8	4951.1
894.735	1559.1074	5838.85	4953.6
894.8777	1560.8893	5842.55	4957.45
895.0204	1562.6705	5829.15	4944.25
895.163	1564.4509	5831.2	4948.15
895.3056	1566.2305	5810.1	4926.65
895.4482	1568.0094	5816.85	4934.15
895.5908	1569.7876	5784.95	4898.95
895.7334	1571.565	5785.6	4899.05
895.876	1573.3417	5761.6	4876.65
896.0186	1575.1176	5729.7	4846.05
896.1611	1576.8928	5746.8	4861.4
896.3036	1578.6672	5720.85	4837.6
896.4461	1580.4409	5722.7	4840.15
896.5886	1582.2138	5709.05	4822.55
896.7311	1583.986	5705.45	4821.75
896.8736	1585.7575	5735.65	4851.5
897.0161	1587.5282	5728.7	4845.75
897.1585	1589.2981	5722.25	4838.2
897.3009	1591.0673	5693.05	4809.8
897.4433	1592.8358	5683.65	4799.55
897.5857	1594.6035	5702.45	4816.8
897.7281	1596.3704	5661.7	4776.45
897.8705	1598.1366	5643.4	4759.3
898.0128	1599.9021	5607	4726.7
898.1551	1601.6668	5569	4681.75
898.2975	1603.4308	5566.75	4679.7
898.4398	1605.194	5546.9	4657.95
898.5821	1606.9564	5556.6	4672.95
898.7243	1608.7182	5550.4	4663.35
898.8666	1610.4791	5586.05	4705.65
899.0088	1612.2394	5601.3	4720.55
899.1511	1613.9988	5636.55	4753.2
899.2933	1615.7576	5663.55	4780.45
899.4355	1617.5156	5669.7	4781.4
899.5776	1619.2728	5644.4	4758.85
899.7198	1621.0293	5596.85	4714.4
899.862	1622.785	5529.45	4642.65
900.0041	1624.54	5442.25	4555.6
900.1462	1626.2942	5357.1	4474.4
900.2883	1628.0477	5268.55	4381.7
900.4304	1629.8005	5218.45	4331.9
900.5725	1631.5525	5171.25	4288.85
900.7145	1633.3037	5133.85	4249
900.8566	1635.0542	5086.3	4203.65
900.9986	1636.804	5045.85	4160.05
901.1406	1638.553	5101.4	4129.75
901.2826	1640.3013	5026.8	4144.15
901.4245	1642.0488	4977.05	4092
901.5665	1643.7955	4960.6	4081.3
901.7085	1645.5416	4920.8	4037.6
901.8504	1647.2868	4915.4	4034.85
901.9923	1649.0313	4894.8	4012.05
902.1342	1650.7751	4884.35	3995.15
902.2761	1652.5181	4858.2	3977.05
902.4179	1654.2604	4831.7	3949.85
902.5598	1656.0019	4824.3	3942.8
902.7016	1657.7427	4825.75	3941.2
902.8434	1659.4828	4823.85	3939.85
902.9852	1661.222	4822.75	3939.35
903.127	1662.9606	4827.2	3944.6
903.2687	1664.6984	4833.7	3950.85
903.4105	1666.4354	4836.7	3952.35
903.5522	1668.1717	4796.95	3912.7
903.6939	1669.9072	4751.75	3868.1
903.8356	1671.642	4719.75	3831.95
903.9773	1673.3761	4700.2	3816.3
904.119	1675.1094	4644.6	3760.65
904.2606	1676.8419	4630.95	3747.4
904.4022	1678.5737	4595.2	3711.05
904.5439	1680.3048	4567.1	3683.25
904.6855	1682.0351	4555.1	3670.45
904.827	1683.7646	4538.7	3653.2
904.9686	1685.4934	4518.5	3633.65
905.1101	1687.2215	4480.5	3595.35
905.2517	1688.9488	4485.25	3602.55
905.3932	1690.6754	4443.4	3560.35
905.5347	1692.4012	4440.25	3556.35
905.6761	1694.1263	4413.15	3528.45
905.8176	1695.8506	4418.35	3536.25
905.9591	1697.5742	4392.35	3510.85
906.1005	1699.297	4377.9	3497.5
906.2419	1701.0191	4361.6	3480.5
906.3833	1702.7404	4342.05	3460
906.5246	1704.461	4300.35	3413.95
906.666	1706.1808	4302.5	3417.85
906.8073	1707.8999	4287.85	3403.3
906.9487	1709.6182	4281.8	3400.4
907.09	1711.3358	4275.3	3391.85
907.2313	1713.0527	4256.5	3375.45
907.3725	1714.7688	4240.6	3354
907.5138	1716.4841	4217.45	3332.6
907.655	1718.1987	4221.5	3333.9
907.7962	1719.9126	4212.85	3332.3
907.9374	1721.6257	4200.45	3317.05
908.0786	1723.338	4180.5	3299.5
908.2198	1725.0496	4182.5	3298.9
908.3609	1726.7605	4166.65	3284.9
908.502	1728.4706	4167.6	3285.25
908.6431	1730.18	4157.55	3270.7
908.7842	1731.8886	4139.65	3258.35
908.9253	1733.5964	4136.1	3250.75
909.0664	1735.3036	4142.25	3260.75
909.2074	1737.0099	4123.75	3242.65
909.3484	1738.7156	4118.1	3235.85
909.4894	1740.4204	4109.35	3225.6
909.6304	1742.1246	4099.35	3215.3
909.7714	1743.8279	4105	3223.35
909.9123	1745.5306	4090.75	3207.65
910.0532	1747.2325	4090.55	3208.8
910.1941	1748.9336	4079.45	3197.15
910.335	1750.634	4056.9	3173.15
910.4759	1752.3336	4064.95	3184
910.6168	1754.0325	4052.35	3171.05
910.7576	1755.7307	4048.8	3167.85
910.8984	1757.4281	4049.6	3168.15
911.0392	1759.1247	4059.25	3166.5
911.18	1760.8206	4043.85	3155.6
911.3208	1762.5158	4026.65	3140.7
911.4615	1764.2102	4015.6	3133
911.6022	1765.9039	4020.4	3136.5
911.7429	1767.5968	4008.25	3127.95
911.8836	1769.289	4010.9	3127.95
912.0243	1770.9804	3995.35	3112.85
912.1649	1772.6711	3994.15	3110.5
912.3056	1774.361	3983.5	3100.85
912.4462	1776.0502	3988.55	3105.7
912.5868	1777.7386	3955.85	3071.15
912.7274	1779.4263	3953.7	3071.25
912.8679	1781.1132	3963.25	3081.9
913.0084	1782.7994	3935.05	3052.35
913.149	1784.4849	3933.3	3051
913.2895	1786.1696	3930.7	3028.45
913.4299	1787.8535	3917.7	3038.6
913.5704	1789.5367	3899.7	3017.6
913.7108	1791.2192	3903.65	3024.3
913.8513	1792.9009	3910.3	2996.25
913.9917	1794.5818	3893.45	3009.9
914.132	1796.2621	3874.55	2992.1
914.2724	1797.9415	3868.1	2987.7
914.4128	1799.6202	3856	2973.5
914.5531	1801.2982	3854.95	2971.35
914.6934	1802.9755	3847.7	2965
914.8337	1804.6519	3843	2960.3
914.9739	1806.3277	3818.2	2934.65
915.1142	1808.0027	3812.8	2931.15
915.2544	1809.6769	3824.9	2942.25
915.3946	1811.3504	3796.6	2915.3
915.5348	1813.0231	3787.65	2904.4
915.675	1814.6951	3785.5	2902.85
915.8151	1816.3664	3799.1	2916.2
915.9553	1818.0369	3778.85	2895.75
916.0954	1819.7067	3769.5	2889.6
916.2355	1821.3757	3773.9	2890.35
916.3755	1823.044	3761.85	2880.6
916.5156	1824.7115	3741.35	2858.15
916.6556	1826.3783	3741.8	2861.1
916.7956	1828.0443	3729.35	2847.05
916.9356	1829.7096	3721.15	2834.55
917.0756	1831.3741	3722.25	2838.15
917.2155	1833.0379	3715.15	2835
917.3555	1834.701	3707.95	2823.95
917.4954	1836.3633	3692.6	2808.2
917.6353	1838.0248	3692.65	2808.55
917.7751	1839.6856	3683.2	2802.15
917.915	1841.3457	3699.3	2819.15
918.0548	1843.005	3676.25	2793.35
918.1946	1844.6636	3667.9	2785.7
918.3344	1846.3214	3651.35	2768.1
918.4742	1847.9785	3653.3	2770.45
918.6139	1849.6349	3648.75	2764.65
918.7537	1851.2904	3638.35	2746.35
918.8934	1852.9453	3622.25	2738.4
919.0331	1854.5994	3625.4	2741.45
919.1727	1856.2528	3615.2	2725.25
919.3124	1857.9054	3607.3	2725.4
919.452	1859.5572	3608.2	2729.35
919.5916	1861.2083	3596.25	2711.95
919.7312	1862.8587	3608.45	2726.5
919.8708	1864.5084	3594.3	2711.75
920.0103	1866.1572	3579.85	2697.85
920.1498	1867.8054	3578.5	2696.2
920.2893	1869.4528	3557.1	2673.55
920.4288	1871.0994	3555	2672.4
920.5683	1872.7453	3551.75	2669.35
920.7077	1874.3905	3562.55	2673.9
920.8471	1876.0349	3554.05	2669.55
920.9865	1877.6786	3554.85	2669.5
921.1259	1879.3215	3536.95	2655.6
921.2653	1880.9637	3535.45	2648.95
921.4046	1882.6051	3523.55	2641
921.5439	1884.2458	3514.2	2628.9
921.6832	1885.8858	3506.4	2622.85
921.8225	1887.525	3496.05	2614.5
921.9617	1889.1634	3489.65	2606.25
922.101	1890.8011	3481.65	2598.65
922.2402	1892.4381	3466.25	2583.55
922.3794	1894.0743	3458.9	2577.5
922.5185	1895.7098	3464.15	2580.7
922.6577	1897.3446	3469.55	2586.4
922.7968	1898.9786	3464	2578.25
922.9359	1900.6118	3451.1	2569.15
923.075	1902.2443	3441.75	2557.85
923.214	1903.8761	3433.15	2551.85
923.3531	1905.5071	3417.7	2534.2
923.4921	1907.1374	3417.3	2533.95
923.6311	1908.7669	3414.75	2534.1
923.77	1910.3957	3408.1	2523.6
923.909	1912.0237	3390.65	2507.8
924.0479	1913.651	3382.6	2499.2
924.1868	1915.2776	3381.6	2500.55
924.3257	1916.9034	3368.35	2487.55
924.4646	1918.5285	3362.9	2482.55
924.6034	1920.1528	3352.9	2470.45
924.7422	1921.7764	3353.95	2472.05
924.881	1923.3992	3333	2453.05
925.0198	1925.0213	3311.35	2429.55
925.1586	1926.6427	3313.05	2433.05
925.2973	1928.2633	3495.4	2399.7
925.436	1929.8832	3343.45	2457.5
925.5747	1931.5023	3301	2419.1
925.7134	1933.1207	3297	2415.2
925.852	1934.7383	3294.35	2410.45
925.9906	1936.3552	3279.65	2398.1
926.1292	1937.9714	3267.85	2386.7
926.2678	1939.5868	3254.75	2370.4
926.4064	1941.2015	3257.25	2374
926.5449	1942.8154	3250.75	2366.45
926.6834	1944.4286	3245.5	2362.55
926.8219	1946.041	3247.8	2343.2
926.9604	1947.6528	3202.2	2313.45
927.0988	1949.2637	3220.7	2339.1
927.2372	1950.8739	3198.05	2314.8
927.3756	1952.4834	3191.55	2307.75
927.514	1954.0921	3204	2322.4
927.6523	1955.7001	3183.8	2299.05
927.7907	1957.3074	3187.05	2306.15
927.929	1958.9139	3173.75	2291.8
928.0673	1960.5197	3171.95	2289.15
928.2055	1962.1247	3164.5	2284.45
928.3438	1963.729	3157.65	2276.95
928.482	1965.3325	3174.85	2269.8
928.6202	1966.9353	3138.55	2260.3
928.7584	1968.5374	3130.35	2247.8
928.8965	1970.1387	3126.45	2245.05
929.0346	1971.7393	3123.15	2240.35
929.1727	1973.3392	3124.95	2242.55
929.3108	1974.9383	3115.35	2235.95
929.4489	1976.5366	3110.55	2229.4
929.5869	1978.1342	3089.35	2209.85
929.7249	1979.7311	3093.5	2210.2
929.8629	1981.3273	3085.45	2203.2
930.0009	1982.9227	3082.5	2202
930.1388	1984.5173	3069.95	2190.1
930.2767	1986.1112	3067.35	2186.35
930.4146	1987.7044	3052.2	2171.85
930.5525	1989.2968	3062.3	2180.1
930.6904	1990.8885	3051.45	2165.9
930.8282	1992.4795	3052.3	2171.9
930.966	1994.0697	3043.7	2162.9
931.1038	1995.6592	3032.5	2152.3
931.2415	1997.2479	3023.75	2143.25
931.3793	1998.8359	3023.4	2144.35
931.517	2000.4232	3029.1	2150.05
931.6547	2002.0097	3027.5	2148.5
931.7923	2003.5955	3002.35	2122
931.93	2005.1805	3003.75	2122
932.0676	2006.7648	3006.9	2128.1
932.2052	2008.3484	2995.2	2114.3
932.3427	2009.9312	2991.7	2110.6
932.4803	2011.5133	2988.65	2111.05
932.6178	2013.0946	2969.85	2092.4
932.7553	2014.6752	2972.6	2095.2
932.8928	2016.2551	2968.15	2087.35
933.0302	2017.8342	2959.45	2079
933.1676	2019.4126	2956.7	2077.2
933.305	2020.9902	2958.35	2078.65
933.4424	2022.5672	2966.55	2084.35
933.5798	2024.1433	2970.55	2087.85
933.7171	2025.7188	2945.2	2067.8
933.8544	2027.2935	2944.15	2063.55
933.9917	2028.8674	2927.5	2046.5
934.129	2030.4406	2918.05	2039.25
934.2662	2032.0131	2920.95	2044
934.4034	2033.5849	2912.05	2028.75
934.5406	2035.1559	2912.95	2034.95
934.6778	2036.7261	2906.65	2027.85
934.8149	2038.2957	2920.2	2041.4
934.952	2039.8645	2903.85	2024.1
935.0891	2041.4325	2917.05	2033.6
935.2262	2042.9998	2903.5	2025.25
935.3632	2044.5664	2893.65	2013.45
935.5002	2046.1323	2891.95	2012
935.6372	2047.6974	2877.5	1999.5
935.7742	2049.2617	2904.1	2026.9
935.9111	2050.8254	2888.6	2006.95
936.048	2052.3883	2878.6	1999.4
936.1849	2053.9504	2878.45	1997.8
936.3218	2055.5118	2864.35	1982.7
936.4586	2057.0725	2869.1	1987.9
936.5955	2058.6325	2859.9	1980
936.7323	2060.1917	2850.8	1972.35
936.869	2061.7502	2843.9	1962.7
937.0058	2063.3079	2849.75	1971.05
937.1425	2064.8649	2856.5	1974.05
937.2792	2066.4212	2839.3	1959.3
937.4159	2067.9767	2845.35	1968.95
937.5525	2069.5315	2828.05	1949.1
937.6891	2071.0856	2831.8	1954
937.8257	2072.6389	2827	1944.35
937.9623	2074.1915	2816.55	1940.25
938.0989	2075.7433	2802.05	1920.2
938.2354	2077.2945	2809.85	1932.5
938.3719	2078.8448	2798.35	1917.35
938.5084	2080.3945	2802.85	1925
938.6448	2081.9434	2800.15	1922.75
938.7812	2083.4916	2788.75	1907.35
938.9176	2085.039	2783.6	1902.85
939.054	2086.5857	2785.45	1901.35
939.1903	2088.1317	2788.5	1908.25
939.3267	2089.677	2780.45	1900.4
939.463	2091.2215	2769.4	1888.55
939.5992	2092.7652	2771.05	1887.3
939.7355	2094.3083	2782.5	1899.5
939.8717	2095.8506	2760.55	1880.85
940.0079	2097.3921	2771.1	1890.25
940.1441	2098.933	2755.55	1875.35
940.2802	2100.4731	2772.8	1894.9
940.4163	2102.0124	2762.95	1862.65
940.5524	2103.5511	2744.25	1866.8
940.6885	2105.089	2756.35	1875.65
940.8245	2106.6261	2746.45	1868.55
940.9606	2108.1626	2743.6	1864.75
941.0965	2109.6983	2774.9	1868
941.2325	2111.2332	2736.45	1856.65
941.3684	2112.7675	2735.75	1854.55
941.5044	2114.301	2736.35	1853.6
941.6403	2115.8337	2736.35	1854.6
941.7761	2117.3657	2742.7	1862.45
941.912	2118.897	2727.2	1847
942.0478	2120.4276	2723.45	1838.9
942.1835	2121.9575	2725.4	1844.5
942.3193	2123.4866	2723.25	1827.35
942.455	2125.0149	2708.15	1827.5
942.5907	2126.5426	2701.05	1821.35
942.7264	2128.0695	2707.45	1823.5
942.8621	2129.5956	2699.75	1820.05
942.9977	2131.1211	2710.05	1826.05
943.1333	2132.6458	2695	1815.55
943.2689	2134.1698	2694.25	1813
943.4044	2135.693	2695.45	1814
943.54	2137.2155	2689.15	1806.9
943.6755	2138.7373	2683.15	1804.35
943.8109	2140.2584	2681.3	1800.7
943.9464	2141.7787	2685.5	1800.65
944.0818	2143.2983	2663	1784.4
944.2172	2144.8171	2647.9	1771.4
944.3526	2146.3353	2654.05	1771.65
944.4879	2147.8527	2646.2	1768.8
944.6232	2149.3693	2651.35	1771.6
944.7585	2150.8853	2642.05	1763.1
944.8938	2152.4005	2638.35	1758.55
945.029	2153.9149	2632.45	1750.8
945.1642	2155.4287	2639.15	1757.55
945.2994	2156.9417	2644	1764.1
945.4346	2158.454	2631	1748.65
945.5697	2159.9655	2606.3	1725.25
945.7048	2161.4764	2609.4	1729.3
945.8399	2162.9865	2615.1	1735.2
945.9749	2164.4958	2596	1713.9
946.1099	2166.0045	2605.7	1724.5
946.2449	2167.5124	2607.2	1728.85
946.3799	2169.0195	2597.2	1716.85
946.5148	2170.526	2592.95	1712.25
946.6498	2172.0317	2587.65	1707.9
946.7846	2173.5367	2581	1701
946.9195	2175.0409	2575.5	1697.2
947.0543	2176.5445	2582.9	1704.4
947.1891	2178.0473	2573.95	1693.05
947.3239	2179.5494	2566.85	1682
947.4587	2181.0507	2561.85	1680.25
947.5934	2182.5513	2556.15	1676.45
947.7281	2184.0512	2557.45	1676.65
947.8628	2185.5504	2567.35	1687.85
947.9974	2187.0488	2542.7	1661.7
948.132	2188.5465	2537.9	1657.05
948.2666	2190.0435	2531.9	1651.35
948.4012	2191.5397	2538.85	1660.2
948.5357	2193.0353	2523.15	1642
948.6702	2194.5301	2510.9	1629.2
948.8047	2196.0241	2511.55	1629.15
948.9392	2197.5175	2506.3	1627.9
949.0736	2199.0101	2507.5	1623.55
949.208	2200.502	2489.4	1610.3
949.3424	2201.9931	2488.3	1609.6
949.4767	2203.4835	2493.7	1612.3
949.611	2204.9733	2497.25	1610.25
949.7453	2206.4622	2472.55	1593.5
949.8796	2207.9505	2477.3	1593
950.0138	2209.438	2466.8	1589.3
950.148	2210.9248	2460.75	1579.5
950.2822	2212.4109	2452.2	1572.5
950.4164	2213.8962	2467.7	1584.55
950.5505	2215.3809	2453.5	1572.45
950.6846	2216.8648	2450.85	1570.55
950.8186	2218.3479	2434.85	1551.15
950.9527	2219.8304	2434.3	1550.95
951.0867	2221.3121	2431.2	1548.6
951.2207	2222.7931	2429.45	1549.85
951.3546	2224.2733	2426.45	1545.55
951.4886	2225.7529	2414.5	1532.85
951.6225	2227.2317	2402.1	1519.8
951.7563	2228.7098	2408.55	1529.95
951.8902	2230.1872	2402.2	1523.85
952.024	2231.6638	2399.9	1519.05
952.1578	2233.1397	2398	1512.1
952.2916	2234.6149	2391.6	1513.2
952.4253	2236.0894	2393.05	1512.65
952.559	2237.5632	2390.25	1500.8
952.6927	2239.0362	2378.4	1497.75
952.8263	2240.5085	2375.55	1495.5
952.9599	2241.9801	2370.5	1490.35
953.0935	2243.4509	2356.2	1476.65
953.2271	2244.921	2354.15	1475.4
953.3606	2246.3904	2355.3	1470
953.4941	2247.8591	2347.65	1469.45
953.6276	2249.3271	2339.75	1458.8
953.7611	2250.7943	2336.85	1455.3
953.8945	2252.2608	2340.6	1461.5
954.0279	2253.7266	2332.85	1453.75
954.1612	2255.1917	2335.2	1456.3
954.2946	2256.656	2330.65	1448.45
954.4279	2258.1197	2321.5	1441.5
954.5612	2259.5826	2318.5	1438.2
954.6944	2261.0447	2310.5	1431.35
954.8276	2262.5062	2309.1	1427.25
954.9608	2263.9669	2302.8	1421.55
955.094	2265.4269	2292.55	1412.85
955.2271	2266.8862	2296.9	1417.8
955.3602	2268.3448	2297	1416.85
955.4933	2269.8026	2283.15	1403.85
955.6264	2271.2598	2292.25	1410.7
955.7594	2272.7162	2280.4	1401.95
955.8924	2274.1719	2282.1	1401.25
956.0253	2275.6268	2275.15	1396.2
956.1583	2277.0811	2270.85	1390.4
956.2912	2278.5346	2268.3	1389.15
956.4241	2279.9874	2279.15	1399.1
956.5569	2281.4395	2252.45	1373.25
956.6897	2282.8908	2245.6	1361.4
956.8225	2284.3414	2241.2	1358.55
956.9553	2285.7914	2239.8	1360.95
957.088	2287.2406	2242.35	1363.1
957.2207	2288.689	2247.15	1367.1
957.3534	2290.1368	2241.4	1361
957.486	2291.5838	2244.95	1363.85
957.6186	2293.0302	2232.6	1353.1
957.7512	2294.4758	2213.15	1332.05
957.8838	2295.9206	2214.45	1330.5
958.0163	2297.3648	2209.75	1330.15
958.1488	2298.8082	2213.55	1332.55
958.2813	2300.251	2207.7	1328.25
958.4137	2301.693	2198.5	1314.25
958.5461	2303.1343	2200.5	1319.95
958.6785	2304.5748	2200.35	1321.25
958.8108	2306.0147	2194.3	1313.6
958.9432	2307.4538	2186.7	1304.75
959.0754	2308.8922	2181.05	1303.9
959.2077	2310.3299	2175.35	1294.95
959.3399	2311.7669	2178.55	1297.4
959.4721	2313.2031	2170	1290.7
959.6043	2314.6387	2166.05	1286.2
959.7365	2316.0735	2161.2	1281.05
959.8686	2317.5076	2159.95	1277.55
960.0006	2318.941	2157.9	1276.75
960.1327	2320.3737	2164.2	1280.8
960.2647	2321.8056	2147	1264.55
960.3967	2323.2369	2135.1	1252.85
960.5287	2324.6674	2146.85	1261.75
960.6606	2326.0972	2138.2	1255.3
960.7925	2327.5263	2137.35	1258.3
960.9244	2328.9547	2128.45	1246.6
961.0562	2330.3823	2138.45	1254.65
961.1881	2331.8092	2126.9	1244.9
961.3198	2333.2355	2112.55	1230.9
961.4516	2334.661	2117.25	1236.05
961.5833	2336.0858	2106.8	1223.65
961.715	2337.5098	2107.9	1227.95
961.8467	2338.9332	2101.1	1218
961.9783	2340.3558	2108.05	1223.05
962.1099	2341.7778	2099.8	1219.15
962.2415	2343.199	2080.4	1198.6
962.373	2344.6195	2081.25	1200.65
962.5045	2346.0393	2074.05	1195.65
962.636	2347.4583	2082.75	1200.95
962.7675	2348.8767	2076.75	1196.7
962.8989	2350.2943	2075.45	1194.75
963.0303	2351.7113	2067.05	1185.85
963.1617	2353.1275	2065.85	1184.9
963.293	2354.543	2069.45	1178.65
963.4243	2355.9578	2064.15	1182.6
963.5556	2357.3718	2051.75	1170.6
963.6868	2358.7852	2048.25	1165.9
963.818	2360.1978	2038.45	1158.85
963.9492	2361.6098	2030.15	1149.75
964.0803	2363.021	2034.25	1149.25
964.2114	2364.4315	2029.1	1146.85
964.3425	2365.8413	2028.2	1147.45
964.4736	2367.2504	2016.5	1136.9
964.6046	2368.6587	2017.15	1136.15
964.7356	2370.0664	2006.1	1125.2
964.8666	2371.4733	1993.9	1112.9
964.9975	2372.8795	1999.95	1120.1
965.1284	2374.285	1987.95	1107.1
965.2593	2375.6899	1988.65	1108.15
965.3901	2377.0939	1978.65	1096.25
965.5209	2378.4973	1973.7	1092.5
965.6517	2379.9	1968.45	1086.1
965.7825	2381.3019	1966.9	1084.45
965.9132	2382.7032	1966.6	1086.15
966.0439	2384.1037	1963.3	1084.5
966.1745	2385.5035	1955.85	1075.25
966.3051	2386.9027	1946.8	1066
966.4357	2388.3011	1948.6	1066.2
966.5663	2389.6987	1946.25	1064.6
966.6968	2391.0957	1939.25	1060.4
966.8273	2392.492	1933.75	1054.5
966.9578	2393.8876	1929.6	1047.45
967.0882	2395.2824	1925.85	1044.05
967.2186	2396.6765	1928.1	1048.1
967.349	2398.07	1918.9	1037.95
967.4793	2399.4627	1914.2	1031
967.6097	2400.8547	1914.15	1031.2
967.7399	2402.246	1898.8	1011.4
967.8702	2403.6366	1902.8	1021.7
968.0004	2405.0265	1891.4	1011
968.1306	2406.4156	1894.75	1008.5
968.2607	2407.8041	1893.7	1010.2
968.3909	2409.1918	1884.1	1000.35
968.521	2410.5789	1877.2	995.85
968.651	2411.9652	1868.2	982.1
968.781	2413.3508	1878.6	996.35
968.911	2414.7358	1869.8	987.1
969.041	2416.12	1869.1	988.35
969.1709	2417.5035	1854.55	975
969.3008	2418.8863	1854.2	971.15
969.4307	2420.2684	1849.9	969.4
969.5606	2421.6497	1848.4	965.8
969.6904	2423.0304	1836.75	955.5
969.8201	2424.4104	1836.25	953
969.9499	2425.7896	1839	953.9
970.0796	2427.1682	1838.25	954.35
970.2093	2428.546	1831.3	948.7
970.3389	2429.9232	1834.95	955.35
970.4685	2431.2996	1825.85	943.7
970.5981	2432.6753	1818.55	937.45
970.7277	2434.0503	1818.85	937.65
970.8572	2435.4246	1803.45	922.05
970.9867	2436.7982	1817.25	931.4
971.1161	2438.1711	1811.05	930.4
971.2456	2439.5433	1804.4	919.25
971.375	2440.9148	1804.9	917.85
971.5043	2442.2856	1797.2	914.55
971.6336	2443.6557	1793.65	911.05
971.7629	2445.025	1793.4	911.9
971.8922	2446.3937	1796.2	913.3
972.0214	2447.7617	1787.75	906.2
972.1506	2449.1289	1787.4	904.35
972.2798	2450.4955	1786.35	900.7
972.4089	2451.8613	1777.9	897.9
972.538	2453.2265	1775.4	893.6
972.6671	2454.5909	1773.2	890.9
972.7961	2455.9546	1767.55	887.2
972.9251	2457.3177	1771.35	889.8
973.0541	2458.68	1761.15	879.65
973.1831	2460.0416	1762.3	879.25
973.312	2461.4025	1766.25	883.95
973.4408	2462.7627	1771.45	877.8
973.5697	2464.1222	1755	873.85
973.6985	2465.4811	1760.65	877.2
973.8273	2466.8392	1755.95	875
973.956	2468.1966	1743.8	861.8
974.0847	2469.5533	1735.2	853.85
974.2134	2470.9093	1746.8	864.25
974.3421	2472.2645	1744.15	860.25
974.4707	2473.6191	1738.4	857.15
974.5993	2474.973	1731.6	850
974.7278	2476.3262	1735.4	852.1
974.8563	2477.6787	1729.6	848.7
974.9848	2479.0305	1726.75	844.75
975.1132	2480.3816	1719.65	836.5
975.2417	2481.7319	1718.45	839.65
975.37	2483.0816	1710.85	828.25
975.4984	2484.4306	1718.35	835.9
975.6267	2485.7789	1705.9	826.1
975.755	2487.1264	1713.5	829.95
975.8833	2488.4733	1700.9	819.7
976.0115	2489.8195	1707.6	819.65
976.1397	2491.165	1695.4	812.15
976.2678	2492.5097	1700.05	818.15
976.3959	2493.8538	1694.85	814.15
976.524	2495.1972	1686.4	804
976.6521	2496.5398	1681.55	797.4
976.7801	2497.8818	1679.05	797.15
976.9081	2499.2231	1676.65	795.95
977.036	2500.5637	1685.3	803.6
977.164	2501.9035	1672.4	787.8
977.2918	2503.2427	1679.9	794.95
977.4197	2504.5812	1663.3	781.05
977.5475	2505.919	1660.9	777.05
977.6753	2507.256	1661.95	781.45
977.8031	2508.5924	1659.7	778.1
977.9308	2509.9281	1649.85	762.8
978.0585	2511.2631	1648.6	767.65
978.1861	2512.5974	1644.05	764.1
978.3137	2513.9309	1645.8	762.95
978.4413	2515.2638	1669.05	757.85
978.5689	2516.596	1644.75	762.75
978.6964	2517.9275	1641.75	758.4
978.8239	2519.2583	1631.65	750.85
978.9513	2520.5884	1631.35	748.7
979.0788	2521.9178	1623.75	741.6
979.2062	2523.2465	1622.8	742.9
979.3335	2524.5745	1617.3	737.95
979.4608	2525.9018	1618.25	736.85
979.5881	2527.2284	1617.1	737.45
979.7154	2528.5543	1610.35	730.75
979.8426	2529.8796	1619.55	738.95
979.9698	2531.2041	1616.7	732.85
980.0969	2532.5279	1612.2	730.3
980.224	2533.851	1612.45	730.15
980.3511	2535.1735	1601.6	719.65
980.4781	2536.4952	1601.65	720.6
980.6052	2537.8163	1599.55	716.15
980.7321	2539.1366	1587.8	706.65
980.8591	2540.4562	1592.75	709.25
980.986	2541.7752	1589.1	707.35
981.1129	2543.0935	1584.3	702.55
981.2397	2544.411	1588.8	705.4
981.3665	2545.7279	1584.35	705.05
981.4933	2547.0441	1585.6	705.85
981.62	2548.3596	1585.15	701.5
981.7467	2549.6744	1587.45	706.75
981.8734	2550.9885	1579.8	689.65
982.0001	2552.3019	1569.3	687.85
982.1267	2553.6146	1580.6	699.85
982.2532	2554.9266	1570.7	689.6
982.3798	2556.2379	1567.55	684.35
982.5063	2557.5485	1567.15	686.3
982.6327	2558.8585	1564.75	675.45
982.7592	2560.1677	1566.7	680.95
982.8856	2561.4762	1560.2	680.05
983.0119	2562.7841	1559.85	675.1
983.1383	2564.0913	1564.2	683.65
983.2646	2565.3977	1555.2	674.8
983.3908	2566.7035	1562.1	680.95
983.517	2568.0086	1551.7	668.75
983.6432	2569.313	1551.15	669.85
983.7694	2570.6167	1549.2	663.25
983.8955	2571.9197	1542.25	660.55
984.0216	2573.222	1549.35	664.35
984.1476	2574.5236	1538.5	656.15
984.2737	2575.8246	1548.25	663.35
984.3996	2577.1248	1538.8	655.05
984.5256	2578.4244	1539.3	659.8
984.6515	2579.7232	1531.8	651.4
984.7774	2581.0214	1557.85	652.2
984.9032	2582.3189	1538.75	657.9
985.029	2583.6157	1534.8	649.85
985.1548	2584.9118	1532.7	651.6
985.2806	2586.2072	1529	645.45
985.4063	2587.5019	1525.4	642.75
985.5319	2588.7959	1526.95	645.6
985.6576	2590.0893	1514.3	631.55
985.7832	2591.3819	1515.85	636.5
985.9087	2592.6739	1507.85	628.15
986.0343	2593.9652	1505.05	622.85
986.1597	2595.2557	1508.15	626.25
986.2852	2596.5456	1505.8	621.2
986.4106	2597.8348	1500.65	621.2
986.536	2599.1234	1501.05	621.05
986.6614	2600.4112	1499.3	617.5
986.7867	2601.6983	1495.25	610.75
986.912	2602.9848	1495.65	614.55
987.0372	2604.2705	1501.05	613.5
987.1624	2605.5556	1500.7	617.9
987.2876	2606.84	1487.45	605.8
987.4128	2608.1237	1481.15	598.4
987.5379	2609.4067	1478	596.55
987.6629	2610.689	1481.4	593.35
987.788	2611.9707	1482.25	598.8
987.913	2613.2516	1473.15	586.25
988.0379	2614.5319	1469.65	590.15
988.1629	2615.8115	1474.1	590.4
988.2878	2617.0903	1467.75	585
988.4126	2618.3685	1462.45	580.55
988.5375	2619.6461	1449.75	568.45
988.6622	2620.9229	1453	574.85
988.787	2622.199	1463.6	581
988.9117	2623.4745	1455	574.05
989.0364	2624.7493	1439.5	559.1
989.161	2626.0234	1449.45	570.8
989.2857	2627.2968	1449	567.95
989.4102	2628.5695	1441.85	559.85
989.5348	2629.8415	1449.3	568.6
989.6593	2631.1128	1437.15	555.25
989.7837	2632.3835	1430.65	551.35
989.9082	2633.6535	1427.85	547.05
990.0326	2634.9228	1427.65	546.05
990.1569	2636.1914	1428.8	547.9
990.2812	2637.4593	1428.35	540.35
990.4055	2638.7265	1423.55	542.45
990.5298	2639.9931	1422.7	540.65
990.654	2641.259	1414.05	532.05
990.7782	2642.5242	1422.95	540.7
990.9023	2643.7887	1414.35	532.25
991.0264	2645.0525	1413.85	533.5
991.1505	2646.3156	1407.2	524.45
991.2745	2647.5781	1404.35	525.15
991.3985	2648.8398	1409.65	529.35
991.5225	2650.1009	1403.65	512.1
991.6464	2651.3613	1407.5	525.9
991.7703	2652.6211	1399.5	516.9
991.8942	2653.8801	1397.2	518.05
992.018	2655.1385	1397.7	512.9
992.1418	2656.3961	1397.45	516.55
992.2655	2657.6531	1392.4	512
992.3892	2658.9094	1392.5	510.05
992.5129	2660.1651	1387.1	504.85
992.6366	2661.42	1389.65	508.85
992.7602	2662.6743	1392.6	509.95
992.8837	2663.9279	1389.4	509.65
993.0073	2665.1808	1387.9	505.55
993.1307	2666.433	1392.1	511.35
993.2542	2667.6846	1376.8	494.7
993.3776	2668.9354	1380.1	493
993.501	2670.1856	1378.7	498.7
993.6244	2671.4351	1375.85	496.15
993.7477	2672.6839	1380.05	497.3
993.8709	2673.9321	1373.3	492.95
993.9942	2675.1795	1365.6	483.1
994.1174	2676.4263	1363.95	484.65
994.2405	2677.6724	1365.6	485.1
994.3637	2678.9179	1359.2	478.1
994.4868	2680.1626	1363.15	481.35
994.6098	2681.4067	1364.8	486.05
994.7328	2682.6501	1353.45	473.8
994.8558	2683.8928	1358.65	478.05
994.9788	2685.1348	1359.9	480.9
995.1017	2686.3761	1348.5	469.45
995.2245	2687.6168	1348.9	467.45
995.3474	2688.8568	1353.3	472.6
995.4702	2690.0961	1346	466.45
995.5929	2691.3348	1341.55	459.8
995.7156	2692.5727	1339.1	458.4
995.8383	2693.81	1346.5	465.25
995.961	2695.0466	1340.95	461
996.0836	2696.2826	1342.15	460.7
996.2062	2697.5178	1340.1	454.7
996.3287	2698.7524	1341.2	459.45
996.4512	2699.9863	1342.5	458.8
996.5737	2701.2195	1333.85	454.75
996.6961	2702.452	1333.55	452.55
996.8185	2703.6839	1332.1	452.1
996.9408	2704.9151	1327.5	449.1
997.0631	2706.1456	1322.85	441.8
997.1854	2707.3755	1324.45	445.1
997.3077	2708.6046	1320	436.1
997.4299	2709.8331	1317.55	436.8
997.552	2711.0609	1322.55	441.55
997.6742	2712.2881	1315.95	434.55
997.7963	2713.5145	1324.75	441.35
997.9183	2714.7403	1312.5	431.45
998.0403	2715.9654	1309.45	427.5
998.1623	2717.1899	1329.6	434.25
998.2842	2718.4136	1311	428.6
998.4062	2719.6367	1305.15	424.05
998.528	2720.8591	1318.1	432.9
998.6498	2722.0809	1300.95	419.65
998.7716	2723.3019	1304.75	420.45
998.8934	2724.5223	1300.2	418.25
999.0151	2725.7421	1301.85	420.65
999.1368	2726.9611	1302.75	419.55
999.2584	2728.1795	1295.9	410.8
999.38	2729.3972	1295.4	417.1
999.5016	2730.6142	1300.05	405.9
999.6231	2731.8306	1287.6	407.15
999.7446	2733.0462	1289.2	404.9
999.8661	2734.2612	1283.05	397.95
999.9875	2735.4756	1281.2	398.15
1000.1089	2736.6892	1281.75	401.7
1000.2302	2737.9022	1277.95	398.65
1000.3515	2739.1145	1269.3	387.4
1000.4728	2740.3262	1279.6	390.15
1000.594	2741.5372	1268.3	388.55
1000.7152	2742.7475	1267.85	386.55
1000.8363	2743.9571	1271.55	388.25
1000.9575	2745.1661	1263.95	379.15
1001.0785	2746.3744	1264.95	383.7
1001.1996	2747.582	1260.85	380.25
1001.3206	2748.7889	1262.5	380.4
1001.4415	2749.9952	1263.25	384
1001.5625	2751.2008	1252.9	373.65
1001.6833	2752.4057	1254.4	369.85
1001.8042	2753.61	1252.25	371.35
1001.925	2754.8136	1254.6	371.75
1002.0458	2756.0165	1243.7	364.5
1002.1665	2757.2188	1242.15	363.8
1002.2872	2758.4204	1247.45	367.25
1002.4078	2759.6213	1253.35	370.1
1002.5285	2760.8215	1252.6	370.25
1002.649	2762.0211	1241.9	358.8
1002.7696	2763.22	1247.1	364.2
1002.8901	2764.4182	1244.2	360.75
1003.0106	2765.6158	1243.5	362.9
1003.131	2766.8127	1242.05	359.25
1003.2514	2768.009	1235.55	354.95
1003.3717	2769.2045	1233	351.4
1003.492	2770.3994	1234.65	351.4
1003.6123	2771.5936	1230.55	350.15
1003.7325	2772.7872	1219.85	340.05
1003.8527	2773.9801	1230.85	348
1003.9729	2775.1723	1246.65	350
1004.093	2776.3639	1219.15	341.4
1004.2131	2777.5548	1225.7	342.35
1004.3331	2778.745	1222.05	341.15
1004.4531	2779.9346	1219.15	339
1004.5731	2781.1235	1218	336.3
1004.693	2782.3117	1215.9	336.05
1004.8129	2783.4992	1210.2	330.8
1004.9328	2784.6861	1208.25	326.75
1005.0526	2785.8723	1215.3	332.6
1005.1723	2787.0579	1209.65	329
1005.2921	2788.2428	1211.75	330.4
1005.4118	2789.427	1212.4	334.7
1005.5314	2790.6106	1201.5	321.9
1005.651	2791.7935	1203.75	323.3
1005.7706	2792.9757	1195.5	315.85
1005.8902	2794.1573	1203.45	319.85
1006.0097	2795.3382	1201.25	321.9
1006.1291	2796.5184	1194.05	313.65
1006.2485	2797.698	1201	317.45
1006.3679	2798.8769	1194.65	315.45
1006.4873	2800.0551	1195.75	314.8
1006.6066	2801.2327	1193.45	311.45
1006.7258	2802.4096	1187.25	308.3
1006.8451	2803.5859	1190.2	308.6
1006.9642	2804.7615	1189.65	309.55
1007.0834	2805.9364	1189.05	309.75
1007.2025	2807.1106	1187.7	309.45
1007.3216	2808.2842	1196.75	314.75
1007.4406	2809.4572	1184.25	303.9
1007.5596	2810.6294	1186	306.55
1007.6785	2811.801	1187.15	305.7
1007.7975	2812.972	1185.1	307.5
1007.9163	2814.1423	1186.4	305.7
1008.0352	2815.3119	1187.6	306.8
1008.154	2816.4808	1184.2	304.95
1008.2727	2817.6491	1185.05	303.4
1008.3914	2818.8167	1185.1	308.85
1008.5101	2819.9837	1191.55	308.8
1008.6288	2821.15	1188.9	309.3
1008.7474	2822.3157	1192.65	313.7
1008.8659	2823.4807	1194.8	315.15
1008.9844	2824.645	1197.9	316.65
1009.1029	2825.8086	1200.5	321.85
1009.2214	2826.9716	1201.75	322.15
1009.3398	2828.134	1211.05	330.75
1009.4581	2829.2957	1213.5	334.05
1009.5764	2830.4567	1215.1	335.75
1009.6947	2831.617	1212.8	331.7
1009.813	2832.7767	1222.6	342.05
1009.9312	2833.9358	1216.4	339.15
1010.0493	2835.0941	1219.45	337
1010.1675	2836.2519	1214.35	335.05
1010.2855	2837.4089	1209.3	328.65
1010.4036	2838.5653	1205.8	325.3
1010.5216	2839.7211	1201.3	323.05
1010.6396	2840.8761	1202.9	321.55
1010.7575	2842.0306	1196.2	317.95
1010.8754	2843.1843	1196.5	316.5
1010.9932	2844.3374	1200.6	319.5
1011.111	2845.4899	1198.95	317.65
1011.2288	2846.6417	1199.45	320.4
1011.3465	2847.7928	1194.95	313.6
1011.4642	2848.9433	1201.9	322.45
1011.5818	2850.0931	1200.95	321.3
1011.6995	2851.2422	1200.35	319.05
1011.817	2852.3907	1201.85	320.7
1011.9345	2853.5385	1204.15	318.9
1012.052	2854.6857	1207.3	320
1012.1695	2855.8323	1193.05	311.65
1012.2869	2856.9781	1201.85	321.75
1012.4042	2858.1233	1199.45	318.75
1012.5216	2859.2679	1200.75	320
1012.6389	2860.4118	1205.8	326.35
1012.7561	2861.555	1209	326.25
1012.8733	2862.6976	1204.05	323.25
1012.9905	2863.8395	1201	321.65
1013.1076	2864.9808	1203.95	324.2
1013.2247	2866.1214	1205.75	326.5
1013.3417	2867.2614	1202.1	321.85
1013.4587	2868.4007	1200.8	320.5
1013.5757	2869.5393	1213.1	331.85
1013.6926	2870.6773	1203.95	323.35
1013.8095	2871.8146	1207.35	324.45
1013.9263	2872.9513	1203.3	322.45
1014.0431	2874.0874	1205.9	326.65
1014.1599	2875.2227	1204.5	324
1014.2766	2876.3574	1205.6	324.7
1014.3933	2877.4915	1201.25	323.4
1014.51	2878.6249	1202.05	321.05
1014.6266	2879.7577	1207.75	326.35
1014.7431	2880.8898	1207.8	318.65
1014.8596	2882.0212	1203.7	323
1014.9761	2883.152	1204.9	323.5
1015.0925	2884.2821	1200.25	321.5
1015.2089	2885.4116	1204.6	323.15
1015.3253	2886.5405	1203.2	324.1
1015.4416	2887.6686	1204.3	320.65
1015.5579	2888.7962	1204.05	327
1015.6741	2889.923	1204.2	325
1015.7903	2891.0493	1199.7	320.6
1015.9065	2892.1748	1200.95	322.9
1016.0226	2893.2997	1196.5	315.05
1016.1387	2894.424	1202.8	324.6
1016.2547	2895.5476	1197.15	317.95
1016.3707	2896.6706	1191.9	312.8
1016.4866	2897.7929	1197.85	318.15
1016.6025	2898.9145	1195.7	315.45
1016.7184	2900.0355	1193.55	312.8
1016.8342	2901.1559	1191.5	309.7
1016.95	2902.2756	1190.35	309.7
1017.0658	2903.3946	1186.8	307.25
1017.1815	2904.513	1190.7	307.2
1017.2971	2905.6308	1190.85	311.95
1017.4127	2906.7479	1185.75	305.6
1017.5283	2907.8643	1183.7	303.15
1017.6439	2908.9801	1184.85	306.7
1017.7594	2910.0953	1183.05	303
1017.8748	2911.2098	1184.9	300.85
1017.9902	2912.3236	1183.7	296.65
1018.1056	2913.4368	1188.25	306.05
1018.2209	2914.5494	1175.35	295.9
1018.3362	2915.6613	1182.55	298.1
1018.4515	2916.7725	1177.3	295.3
1018.5667	2917.8831	1179.5	299.2
1018.6819	2918.9931	1173.6	291.15
1018.797	2920.1024	1165.15	283.95
1018.9121	2921.211	1164.95	286.7
1019.0271	2922.319	1169.4	288.4
1019.1421	2923.4264	1161.15	283.6
1019.2571	2924.5331	1163.1	283.5
1019.372	2925.6391	1157.4	280.45
1019.4869	2926.7445	1158.6	282.5
1019.6017	2927.8493	1162.4	281.35
1019.7165	2928.9534	1158.85	278.25
1019.8313	2930.0569	1168.55	285.85
1019.946	2931.1597	1159.05	278.95
1020.0606	2932.2619	1156.75	279.25
1020.1753	2933.3634	1163.7	283.7
1020.2899	2934.4643	1165.9	280.75
1020.4044	2935.5645	1169.05	282.25
1020.5189	2936.6641	1159.6	274.05
1020.6334	2937.763	1159.55	280.3
1020.7478	2938.8613	1157.05	278.7
1020.8622	2939.959	1163.8	277.6
1020.9765	2941.056	1147.8	269.65
1021.0908	2942.1523	1142.15	261.3
1021.2051	2943.248	1141.55	262.75
1021.3193	2944.3431	1132.5	252.65
1021.4334	2945.4375	1134.5	255.5
1021.5476	2946.5313	1119	241
1021.6617	2947.6244	1123.75	245.65
1021.7757	2948.7169	1116.25	236.9
1021.8897	2949.8087	1111.75	229.9
1022.0037	2950.8999	1103.2	221.4
1022.1176	2951.9904	1102.75	224.35
1022.2315	2953.0803	1097.3	215.8
1022.3453	2954.1696	1097.7	217.95
1022.4591	2955.2582	1093.15	215.5
1022.5728	2956.3462	1096.65	218.15
1022.6865	2957.4335	1087.4	205.85
1022.8002	2958.5202	1088.7	207.5
1022.9138	2959.6062	1087.8	208.55
1023.0274	2960.6916	1088.2	209.55
1023.141	2961.7764	1088.55	207.7
1023.2545	2962.8605	1084.4	202.75
1023.3679	2963.9439	1083.75	203.2
1023.4813	2965.0267	1086.35	205.35
1023.5947	2966.1089	1106	203.8
1023.708	2967.1905	1080.45	202.35
1023.8213	2968.2714	1078.1	198.85
1023.9346	2969.3516	1079.6	197.6
1024.0478	2970.4312	1084.2	198.75
1024.1609	2971.5102	1080	201.85
1024.274	2972.5885	1071.7	192.95
1024.3871	2973.6662	1082.35	196.95
1024.5002	2974.7432	1073.15	194.8
1024.6132	2975.8196	1078.4	199.95
1024.7261	2976.8954	1070.85	192.5
1024.839	2977.9705	1073.9	195.6
1024.9519	2979.045	1068.25	188.6
1025.0647	2980.1188	1069.8	191.05
1025.1775	2981.192	1072.7	193.2
1025.2902	2982.2645	1071.15	191.1
1025.4029	2983.3364	1066.2	187.4
1025.5156	2984.4077	1066.55	188.35
1025.6282	2985.4783	1067.35	182.5
1025.7407	2986.5483	1060.3	181.35
1025.8532	2987.6177	1055.7	178.95
1025.9657	2988.6864	1056.85	175.6
1026.0782	2989.7545	1060.45	180.45
1026.1906	2990.8219	1057.4	178.95
1026.3029	2991.8887	1056.25	175.25
1026.4152	2992.9548	1047.9	168.45
1026.5275	2994.0204	1044.05	167.2
1026.6397	2995.0852	1040.8	163.2
1026.7519	2996.1495	1042.3	161.85
1026.864	2997.2131	1042.2	164.6
1026.9761	2998.276	1037.4	156.9
1027.0882	2999.3383	1035.15	155
1027.2002	3000.4	1039.2	160.3
1027.3122	3001.4611	1031.85	152.75
1027.4241	3002.5215	1033.7	152.9
1027.536	3003.5812	1032.55	154.15
1027.6478	3004.6404	1032.35	152
1027.7596	3005.6989	1027.2	146
1027.8714	3006.7567	1023.65	143.75
1027.9831	3007.8139	1049.4	149
1028.0947	3008.8705	1032.05	154.15
1028.2064	3009.9264	1026.15	145.2
1028.3179	3010.9818	1023.1	143.2
1028.4295	3012.0364	1025.2	144.85
1028.541	3013.0905	1023.55	145.65
1028.6524	3014.1439	1023.1	142
1028.7638	3015.1966	1018.8	140.4
1028.8752	3016.2487	1022	143.1
1028.9865	3017.3002	1025.9	138.6
1029.0978	3018.3511	1020.35	143.8
1029.209	3019.4013	1018.95	139
1029.3202	3020.4509	1014.05	136.5
1029.4314	3021.4998	1024.3	144.55
1029.5425	3022.5481	1017.65	138.5
1029.6535	3023.5958	1013.2	133.3
1029.7645	3024.6428	1015.05	135.5
1029.8755	3025.6892	1012.3	134.5
1029.9864	3026.735	1018.35	138.9
1030.0973	3027.7802	1013.25	135.15
1030.2082	3028.8247	1007.9	129.2
1030.319	3029.8685	1013.1	133.1
1030.4297	3030.9118	1009.2	129
1030.5404	3031.9544	1006.8	129.3
1030.6511	3032.9963	1008.7	129.7
1030.7617	3034.0376	1012.15	132.35
1030.8723	3035.0783	1012.05	130.9
1030.9829	3036.1184	1008.1	128.85
1031.0934	3037.1578	1005.1	127.1
1031.2038	3038.1966	1009.35	126.7
1031.3142	3039.2348	1010.3	133
1031.4246	3040.2723	1016.45	128.2
1031.5349	3041.3092	1008.8	131.1
1031.6452	3042.3455	1009.3	129.9
1031.7554	3043.3811	1002.95	122.35
1031.8656	3044.4161	1003.65	122.95
1031.9758	3045.4505	1002.55	125.45
1032.0859	3046.4842	1004.6	124.2
1032.1959	3047.5173	1000.3	122.95
1032.3059	3048.5498	1001.1	122.2
1032.4159	3049.5816	1000.9	122.55
1032.5258	3050.6128	1001	122.1
1032.6357	3051.6434	1003.25	124.45
1032.7455	3052.6734	1001.1	122.15
1032.8553	3053.7027	1002.6	122.2
1032.9651	3054.7314	1001.5	121.95
1033.0748	3055.7594	1002.7	123.35
1033.1845	3056.7868	1000.1	120.45
1033.2941	3057.8136	1001.55	123.95
1033.4037	3058.8398	998.8	120.5
1033.5132	3059.8653	998.6	120.15
1033.6227	3060.8902	996.3	118.25
1033.7321	3061.9145	997.1	117.5
1033.8415	3062.9381	1000.9	123.15
1033.9509	3063.9612	1016	122.25
1034.0602	3064.9835	995.85	119.15
1034.1694	3066.0053	995.5	114.45
1034.2787	3067.0264	993.75	114.75
1034.3878	3068.0469	998.65	118.7
1034.497	3069.0668	1002.8	121.3
1034.6061	3070.086	990.05	111.35
1034.7151	3071.1046	994.4	115.85
1034.8241	3072.1226	993.1	112.05
1034.9331	3073.1399	988.55	110.25
1035.042	3074.1567	992	114.5
1035.1508	3075.1727	991.45	109.15
1035.2597	3076.1882	988.5	112.95
1035.3684	3077.203	991.35	112.45
1035.4772	3078.2173	989.15	110.4
1035.5859	3079.2308	992.75	111.05
1035.6945	3080.2438	990.5	111.35
1035.8031	3081.2561	988.2	110.1
1035.9117	3082.2678	984.05	106.3
1036.0202	3083.2789	986	106.25
1036.1286	3084.2893	983.8	103.65
1036.2371	3085.2991	980.55	100.65
1036.3454	3086.3083	989.7	108.4
1036.4538	3087.3169	984.95	103.7
1036.562	3088.3248	983.7	101.9
1036.6703	3089.3321	985.2	105.8
1036.7785	3090.3388	982.4	105.05
1036.8866	3091.3449	982.55	102.4
1036.9948	3092.3503	986.55	105
1037.1028	3093.3551	977.55	100.15
1037.2108	3094.3593	980.8	101.9
1037.3188	3095.3629	977.15	99.4
1037.4267	3096.3658	979.45	99.85
1037.5346	3097.3681	976.5	98.05
1037.6425	3098.3698	976.65	95.8
1037.7503	3099.3708	983.7	99
1037.858	3100.3713	975.55	96.55
1037.9657	3101.3711	979.85	100.4
1038.0734	3102.3702	1111.7	96.65
1038.181	3103.3688	977.6	96.1
1038.2886	3104.3667	969.75	92.65
1038.3961	3105.364	968.3	90.2
1038.5036	3106.3607	973.55	92.65
1038.611	3107.3568	971.4	91.2
1038.7184	3108.3522	970.45	93.85
1038.8257	3109.347	970.55	90.2
1038.933	3110.3412	973.6	90.4
1039.0403	3111.3348	969.5	91.7
1039.1475	3112.3277	968.6	91.05
1039.2547	3113.32	966.65	87.8
1039.3618	3114.3117	969.4	89.1
1039.4689	3115.3028	968.95	89.5
1039.5759	3116.2932	966.7	86.3
1039.6829	3117.2831	970.4	85.35
1039.7898	3118.2723	964.65	86.25
1039.8967	3119.2608	963.95	84.9
1040.0035	3120.2488	964.8	84.75
1040.1103	3121.2361	966.2	87.6
1040.2171	3122.2229	961.1	83.05
1040.3238	3123.209	966.75	85.7
1040.4305	3124.1944	962.65	84.05
1040.5371	3125.1793	962.55	82.25
1040.6437	3126.1635	963.8	84.35
1040.7502	3127.1471	960.7	82.7
1040.8567	3128.1301	959.3	82.4
1040.9631	3129.1125	960.7	80.85
1041.0695	3130.0942	961.75	82.45
1041.1759	3131.0753	968.5	82.05
1041.2822	3132.0558	961.9	82.45
1041.3884	3133.0357	958.8	76.3
1041.4946	3134.015	960.45	81.7
1041.6008	3134.9936	958	77.05
1041.7069	3135.9716	979.8	79.45
1041.813	3136.949	957.85	79.1
1041.919	3137.9258	963.65	78.85
1042.025	3138.902	963.25	78.95
1042.1309	3139.8775	955.7	76.85
1042.2368	3140.8524	956.4	77.4
1042.3427	3141.8267	957.6	78
1042.4485	3142.8004	957.1	77.8
1042.5542	3143.7735	962.15	77.75
1042.6599	3144.7459	955.7	75.95
1042.7656	3145.7178	955.15	73.8
1042.8712	3146.689	950.75	73.5
1042.9768	3147.6596	956.15	76.05
1043.0823	3148.6295	954.6	75.75
1043.1878	3149.5989	952.3	72.8
1043.2932	3150.5676	951.1	73.2
1043.3986	3151.5357	950.75	75
1043.5039	3152.5032	950	70.9
1043.6092	3153.4701	953.35	75.65
1043.7145	3154.4364	951.55	71.95
1043.8197	3155.402	949.45	71.6
1043.9248	3156.367	954	70.9
1044.03	3157.3315	986.7	69.95
1044.135	3158.2952	952.55	73.15
1044.24	3159.2584	944.4	67.3
1044.345	3160.221	951.15	70.15
1044.4499	3161.1829	947.35	68.5
1044.5548	3162.1442	950.35	69.4
1044.6596	3163.105	946.45	68.6
1044.7644	3164.065	949.2	69.85
1044.8692	3165.0245	950.95	69.1
1044.9739	3165.9834	941.6	65.55
1045.0785	3166.9416	947.5	69.2
1045.1831	3167.8993	945.9	67.15
1045.2877	3168.8563	940	58.2
1045.3922	3169.8127	944.5	66.5
1045.4966	3170.7684	944.45	66.15
1045.6011	3171.7236	945.35	64.2
1045.7054	3172.6782	943.55	66.7
1045.8098	3173.6321	941.7	62.45
1045.914	3174.5854	947.6	65.25
1046.0183	3175.5381	945.55	65.6
1046.1224	3176.4902	941.35	61.1
1046.2266	3177.4417	944.9	67.5
1046.3307	3178.3926	940.6	62.85
1046.4347	3179.3428	939.3	61.95
1046.5387	3180.2924	942.85	65.15
1046.6427	3181.2415	938.35	60.3
1046.7466	3182.1899	941.35	62.2
1046.8504	3183.1377	938.5	60
1046.9542	3184.0848	941.8	59.1
1047.058	3185.0314	940.85	62.05
1047.1617	3185.9773	939.55	59.85
1047.2654	3186.9227	938.2	60.8
1047.369	3187.8674	940.05	60.75
1047.4726	3188.8115	942.35	60.45
1047.5761	3189.755	937.9	60.35
1047.6796	3190.6979	936.5	57.1
1047.783	3191.6402	935.75	56.75
1047.8864	3192.5818	934.25	57.05
1047.9898	3193.5229	951.35	56.85
1048.0931	3194.4633	938.5	62.45
1048.1963	3195.4031	935.3	57.2
1048.2995	3196.3423	936.35	58.6
1048.4027	3197.2809	933.95	55.1
1048.5058	3198.2189	933.3	51.7
1048.6089	3199.1563	951.85	57.2
1048.7119	3200.0931	931.45	53.75
1048.8148	3201.0292	930.3	51.4
1048.9178	3201.9648	936.3	58.7
1049.0206	3202.8997	935.75	52.95
1049.1235	3203.834	934.1	54.75
1049.2262	3204.7677	933.75	55.8
1049.329	3205.7008	932.3	54.6
1049.4317	3206.6333	931.25	52.85
1049.5343	3207.5652	936.1	53.65
1049.6369	3208.4964	936.15	57
1049.7394	3209.4271	930.55	52.8
1049.8419	3210.3571	930.5	52.7
1049.9444	3211.2865	933.1	52.4
1050.0468	3212.2154	930.4	51.05
1050.1491	3213.1436	933.85	53.05
1050.2514	3214.0712	936.55	51
1050.3537	3214.9982	932.75	54.25
1050.4559	3215.9246	933.5	55.4
1050.5581	3216.8503	925.75	48.9
1050.6602	3217.7755	929.85	49.55
1050.7623	3218.7001	929.8	53.15
1050.8643	3219.624	929.4	48.9
1050.9663	3220.5473	928.6	51.2
1051.0682	3221.4701	930.25	49.65
1051.1701	3222.3922	930.1	49.6
1051.2719	3223.3137	926.85	47.15
1051.3737	3224.2346	925.9	46.5
1051.4754	3225.1549	926.15	47.5
1051.5771	3226.0746	925.25	45.6
1051.6788	3226.9937	926	46.75
1051.7804	3227.9121	927.75	50.1
1051.8819	3228.83	930.7	50.6
1051.9834	3229.7473	928.25	49.4
1052.0849	3230.6639	924.65	46.05
1052.1863	3231.5799	923.95	45.45
1052.2876	3232.4954	925.6	46.95
1052.3889	3233.4102	922.55	44.35
1052.4902	3234.3244	923.7	45.8
1052.5914	3235.238	923.6	45.2
1052.6926	3236.151	947.65	42
1052.7937	3237.0634	922.6	44.85
1052.8948	3237.9752	923.45	43.75
1052.9958	3238.8864	921.65	42.15
1053.0968	3239.797	921.35	42.65
1053.1977	3240.7069	922.15	44.05
1053.2986	3241.6163	924.2	44
1053.3994	3242.5251	920.05	43.2
1053.5002	3243.4332	920.45	42.8
1053.6009	3244.3408	925.35	47.7
1053.7016	3245.2477	920.35	43.25
1053.8022	3246.154	921.8	43.4
1053.9028	3247.0598	923.8	44.45
1054.0034	3247.9649	924.35	44.15
1054.1039	3248.8694	920.5	41.65
1054.2043	3249.7733	920.8	41.95
1054.3047	3250.6766	920.35	41.7
1054.4051	3251.5793	919.75	41.3
1054.5054	3252.4814	917.55	39.05
1054.6056	3253.3829	916.35	40.6
1054.7058	3254.2838	918.8	41.45
1054.806	3255.1841	918.6	41.55
1054.9061	3256.0838	917.1	38.6
1055.0061	3256.9829	917.1	39.2
1055.1062	3257.8814	916.75	36.85
1055.2061	3258.7792	918.85	35.95
1055.306	3259.6765	916.9	37.1
1055.4059	3260.5731	917.45	38.25
1055.5057	3261.4692	918.15	39.8
1055.6055	3262.3647	916.2	36.3
1055.7052	3263.2595	911.95	35.25
1055.8049	3264.1538	913.55	38.15
1055.9045	3265.0474	914.25	35.05
1056.0041	3265.9404	914.35	37.65
1056.1036	3266.8329	913.7	36.55
1056.2031	3267.7247	923.8	33.1
1056.3025	3268.616	912.45	35.3
1056.4019	3269.5066	911.9	31.2
1056.5013	3270.3966	911.75	31.5
1056.6005	3271.286	906.2	30.55
