Software Version:	3.9.2.0
Unit SN:	10000200
Spectrometer SN:	6960
Date:	3/6/2024 9:52:45 AM
Data Line Index:	25
Spectral Points:	2048
Integration time (ms):	125
Averages:	20
Delay (ms):	30
Sequence Number:	1
Processing:	dark subtract
Laser Power (mW):	305
Laser Current (mA):	825
Laser Diode Temp (C):	25.1
Laser Case Temp (C):	24.4
System Temp (C):	24.2
Spectrometer Temp (C):	21.8
CCD Temp (C):	0
Secondary Temp (C):	20.007
Heatsink Temp (C):	18.364
CCDPCB Temp (C):	31.138
SecondaryPCB Temp (C):	26.158

Wavelength	RamanShift	Raw Counts	Dark Subtracted
787.061	30.1047	441.55	32.25
787.2016	32.3739	439.35	31.5
787.3422	34.6426	442.2	34.45
787.4828	36.9109	447.5	39
787.6235	39.1787	453	40.8
787.7642	41.4461	458.35	42.2
787.9049	43.7131	464.8	45.85
788.0456	45.9796	469.5	46.7
788.1863	48.2456	475.5	48.75
788.3271	50.5112	486	54.85
788.4679	52.7764	489.8	57
788.6087	55.0411	497.55	60.1
788.7496	57.3054	506.7	64.2
788.8904	59.5692	510.9	66.05
789.0313	61.8326	517.5	70.45
789.1722	64.0955	523.8	72.8
789.3132	66.3579	538	83.45
789.4541	68.6199	548.8	91.25
789.5951	70.8815	572.4	110.2
789.7361	73.1426	609.35	142.85
789.8771	75.4032	701.25	230.55
790.0181	77.6634	920.45	445.35
790.1592	79.9231	1468.05	991.5
790.3003	82.1824	2581.5	2092.45
790.4414	84.4412	4531.8	4026.7
790.5825	86.6995	7197.4	6677.6
790.7237	88.9574	9827	9292
790.8648	91.2148	11802.95	11258.85
791.006	93.4717	12905.3	12352.1
791.1472	95.7282	13375.3	12816.35
791.2885	97.9842	13600.7	13043.45
791.4297	100.2398	13685.95	13126.2
791.571	102.4949	13745.65	13182.25
791.7123	104.7495	13749.3	13180.1
791.8536	107.0036	13738.8	13172.45
791.9949	109.2573	13704.5	13135.45
792.1363	111.5105	13710.35	13142.85
792.2777	113.7632	13698.65	13123.4
792.4191	116.0154	13703.75	13120.1
792.5605	118.2672	13753.1	13175.9
792.7019	120.5185	13752.5	13172.6
792.8434	122.7693	13767.35	13184.7
792.9849	125.0197	13768.75	13181.85
793.1264	127.2696	13773.9	13181.05
793.2679	129.519	13833.9	13239.25
793.4094	131.7679	13859.25	13262.45
793.551	134.0163	13877.15	13277.25
793.6926	136.2642	13893.45	13289.1
793.8342	138.5117	13901.25	13294.3
793.9758	140.7587	13907.55	13300.85
794.1175	143.0052	13931.95	13322.1
794.2591	145.2512	13905.9	13297.25
794.4008	147.4967	13915.85	13305.05
794.5425	149.7417	13902.35	13285.95
794.6842	151.9863	13866.1	13248.15
794.826	154.2304	13894.15	13274.35
794.9677	156.4739	13873.9	13244.65
795.1095	158.717	13882.85	13255.55
795.2513	160.9596	13897	13261.35
795.3931	163.2017	13896.8	13261.95
795.535	165.4433	13913.3	13275.25
795.6768	167.6844	13903.15	13267.55
795.8187	169.925	13937.4	13296.35
795.9606	172.1651	13874.7	13232.1
796.1025	174.4047	13882.1	13236.1
796.2445	176.6439	13852.65	13202.7
796.3864	178.8825	13848.25	13195.85
796.5284	181.1206	13898.85	13243.6
796.6704	183.3582	13901.4	13240.05
796.8124	185.5954	13916.65	13252.1
796.9544	187.832	13892	13225.75
797.0965	190.0681	13945.75	13275.5
797.2386	192.3037	13962.7	13292.15
797.3806	194.5388	13991.4	13314.7
797.5228	196.7734	14020.25	13343.1
797.6649	199.0075	14058.65	13379.95
797.807	201.2411	14115.7	13438.4
797.9492	203.4742	14133.45	13451.2
798.0914	205.7068	14179.25	13494.15
798.2336	207.9389	14185.15	13497.15
798.3758	210.1704	14236	13554.1
798.518	212.4015	14201.8	13532.55
798.6603	214.632	14226.15	13559.1
798.8025	216.862	14259.25	13596.4
798.9448	219.0915	14248.8	13580.75
799.0871	221.3205	14287.5	13620
799.2294	223.549	14329.35	13664.8
799.3718	225.777	14348.3	13682.35
799.5141	228.0044	14376.2	13702.2
799.6565	230.2314	14378.45	13701
799.7989	232.4578	14358	13681.85
799.9413	234.6837	14370.25	13685.2
800.0837	236.909	14410.55	13722.1
800.2262	239.1339	14439.5	13725.2
800.3687	241.3582	14463.25	13763.15
800.5111	243.582	14432.65	13703.25
800.6536	245.8053	14473.1	13757.25
800.7961	248.0281	14475.3	13765.5
800.9387	250.2503	14446.15	13730.65
801.0812	252.472	14456.9	13741.1
801.2238	254.6932	14519.4	13805.55
801.3664	256.9139	14460.5	13743.2
801.509	259.134	14496.05	13777.05
801.6516	261.3536	14520.25	13801.3
801.7942	263.5727	14558.25	13834.05
801.9369	265.7912	14548	13826.05
802.0795	268.0092	14600	13875.8
802.2222	270.2267	14589.45	13865.95
802.3649	272.4436	14629.5	13903.1
802.5076	274.6601	14636.1	13901.6
802.6504	276.8759	14612.85	13880.9
802.7931	279.0913	14633.45	13901.9
802.9359	281.3061	14663.25	13930.8
803.0787	283.5204	14660.75	13923.35
803.2215	285.7341	14680.6	13942.25
803.3643	287.9473	14752.75	14005.4
803.5071	290.16	14714.4	13972.65
803.6499	292.3721	14709.2	13971.35
803.7928	294.5837	14678.45	13942.35
803.9357	296.7947	14657.8	13921.05
804.0786	299.0052	14627.6	13889.95
804.2215	301.2152	14637.8	13895.65
804.3644	303.4246	14654	13916.8
804.5074	305.6334	14639.95	13899.4
804.6503	307.8418	14612.05	13867.55
804.7933	310.0495	14623.15	13878.35
804.9363	312.2568	14584.25	13837.75
805.0793	314.4635	14531.15	13781.75
805.2223	316.6696	14519.35	13767.3
805.3653	318.8752	14455.9	13697.45
805.5084	321.0802	14416.3	13666.55
805.6514	323.2847	14422.35	13668.05
805.7945	325.4887	14412.55	13657.3
805.9376	327.692	14387.15	13632.1
806.0807	329.8949	14469	13711.05
806.2238	332.0972	14452.1	13693.3
806.367	334.2989	14458.35	13694.15
806.5101	336.5001	14450.45	13688.1
806.6533	338.7007	14453.75	13690
806.7965	340.9008	14444.25	13679.4
806.9397	343.1003	14404.7	13639.8
807.0829	345.2992	14403.3	13638.25
807.2261	347.4976	14376.35	13607.8
807.3693	349.6955	14374.95	13601.65
807.5126	351.8927	14387.75	13615.25
807.6559	354.0895	14372.95	13588.6
807.7991	356.2856	14362.6	13585.8
807.9424	358.4812	14335.75	13560.1
808.0857	360.6763	14348.5	13569.55
808.2291	362.8707	14325.55	13546.05
808.3724	365.0646	14328.3	13547.65
808.5158	367.258	14299.7	13516.1
808.6591	369.4508	14272.05	13486.45
808.8025	371.643	14302.5	13513
808.9459	373.8346	14268.3	13479.45
809.0893	376.0257	14280.05	13490.95
809.2327	378.2162	14286.25	13496.8
809.3762	380.4062	14323.6	13533.9
809.5196	382.5956	14247.25	13457.25
809.6631	384.7844	14219.35	13434.4
809.8066	386.9726	14160.9	13376.6
809.9501	389.1603	14115.05	13332.55
810.0936	391.3474	14131.05	13317.05
810.2371	393.5339	14120.9	13336.1
810.3806	395.7199	14073	13287.7
810.5241	397.9052	14081.4	13297.45
810.6677	400.09	14058.45	13273.75
810.8113	402.2743	14052.05	13263.15
810.9548	404.4579	14108.85	13320.85
811.0984	406.641	14119.15	13331.4
811.2421	408.8235	14128.5	13338.25
811.3857	411.0054	14154.95	13362.65
811.5293	413.1868	14271.5	13473.55
811.673	415.3675	14264.85	13463.75
811.8166	417.5477	14310.65	13510.45
811.9603	419.7273	14196.8	13396
812.104	421.9064	14083.8	13274.4
812.2477	424.0848	14044.85	13239.25
812.3914	426.2627	13988.75	13181.95
812.5351	428.4399	13957.35	13153.05
812.6788	430.6166	13917.55	13109.65
812.8226	432.7928	13843	13030.45
812.9663	434.9683	13799.35	12991.4
813.1101	437.1432	13778.25	12968.25
813.2539	439.3176	13705.65	12898.75
813.3977	441.4914	13667.4	12862.35
813.5415	443.6645	13699.05	12890.8
813.6853	445.8371	13641.1	12831.05
813.8291	448.0091	13577.45	12767.35
813.973	450.1806	13554	12743.75
814.1168	452.3514	13504.8	12693
814.2607	454.5216	13503.6	12683.2
814.4046	456.6913	13437.25	12624.6
814.5485	458.8603	13443.3	12632.75
814.6924	461.0288	13442.4	12632.9
814.8363	463.1967	13410.05	12598.3
814.9802	465.3639	13434.05	12622.5
815.1241	467.5306	13396.75	12582.8
815.2681	469.6967	13391.45	12579.1
815.412	471.8622	13350.7	12537.35
815.556	474.0271	13306.6	12492.2
815.7	476.1914	13326.05	12505.85
815.844	478.3551	13300.9	12482.95
815.988	480.5182	13308	12490.45
816.132	482.6807	13290.25	12473.95
816.276	484.8426	13290.4	12477.8
816.4201	487.0039	13301	12485.35
816.5641	489.1647	13344.05	12522.9
816.7082	491.3248	13389.4	12567.55
816.8522	493.4843	13383.5	12567.85
816.9963	495.6432	13362.75	12544.7
817.1404	497.8015	13318.9	12494.05
817.2845	499.9592	13330.25	12503.55
817.4286	502.1163	13279.8	12452.15
817.5727	504.2728	13238.3	12410.75
817.7168	506.4287	13259.55	12440
817.861	508.5839	13207.25	12387.9
818.0051	510.7386	13205.4	12383.45
818.1493	512.8927	13200.4	12370.9
818.2935	515.0461	13198	12373.15
818.4377	517.199	13166.8	12337.9
818.5818	519.3512	13166.55	12334.9
818.726	521.5029	13193.9	12357.75
818.8703	523.6539	13203.8	12373.4
819.0145	525.8043	13206.25	12373.25
819.1587	527.9541	13196.2	12359.6
819.303	530.1033	13138.45	12304.3
819.4472	532.2519	13112.35	12284.05
819.5915	534.3999	13094.5	12258.75
819.7357	536.5472	13051.35	12218.3
819.88	538.694	13054.2	12224.95
820.0243	540.8401	13061.35	12227.25
820.1686	542.9856	13047.05	12206.95
820.3129	545.1305	13051.1	12208.9
820.4572	547.2748	13086.95	12242.95
820.6016	549.4185	13081.45	12237.95
820.7459	551.5615	13037.2	12195.05
820.8902	553.704	13045.25	12204.3
821.0346	555.8458	13023.3	12182.05
821.1789	557.987	13052.65	12212.9
821.3233	560.1276	13019.7	12179.4
821.4677	562.2675	13036.55	12195.5
821.6121	564.4069	13043.7	12201.9
821.7565	566.5456	13033.2	12192.9
821.9009	568.6837	13006	12165.05
822.0453	570.8212	12967.6	12125.1
822.1897	572.958	12912	12068.1
822.3342	575.0942	12872.85	12029.8
822.4786	577.2299	12832.9	11991.2
822.6231	579.3648	12784.65	11949.25
822.7675	581.4992	12680.25	11845.4
822.912	583.6329	12662.85	11829.9
823.0565	585.766	12687.15	11853.75
823.201	587.8985	12665.15	11824.8
823.3454	590.0304	12641	11788.05
823.4899	592.1616	12604.5	11757.05
823.6345	594.2922	12608.6	11759.8
823.779	596.4222	12594	11744.7
823.9235	598.5515	12533.1	11679.75
824.068	600.6802	12487.8	11637.7
824.2126	602.8083	12409.2	11563.15
824.3571	604.9358	12415.2	11565
824.5017	607.0626	12381.3	11531.7
824.6462	609.1888	12372.9	11517.95
824.7908	611.3144	12362	11506.75
824.9354	613.4393	12350.3	11496.7
825.08	615.5636	12379.75	11524.9
825.2246	617.6873	12376	11523.15
825.3692	619.8103	12370.7	11517.75
825.5138	621.9327	12328.7	11474.2
825.6584	624.0544	12328.1	11478.25
825.803	626.1756	12294.35	11444.9
825.9477	628.2961	12270.85	11415.15
826.0923	630.4159	12231.55	11377.35
826.237	632.5351	12223.1	11367.75
826.3816	634.6537	12218.8	11363.45
826.5263	636.7716	12211.4	11355.45
826.6709	638.8889	12191.6	11335.1
826.8156	641.0056	12205.5	11346.25
826.9603	643.1216	12188.95	11329.85
827.105	645.237	12217.35	11359.35
827.2497	647.3518	12150.15	11293
827.3944	649.4659	12135.15	11281.45
827.5391	651.5793	12132.85	11277.75
827.6838	653.6922	12103.35	11244.4
827.8285	655.8043	12079.55	11223.7
827.9733	657.9159	12064.9	11206.05
828.118	660.0268	12036.25	11175.5
828.2627	662.137	12017.8	11158.7
828.4075	664.2466	11989.95	11126.95
828.5522	666.3556	12015.4	11153.4
828.697	668.4639	11987.05	11125.4
828.8418	670.5716	11994.3	11135.9
828.9865	672.6786	11950.15	11089.15
829.1313	674.785	11918.6	11054.3
829.2761	676.8907	11896.1	11033.7
829.4209	678.9958	11881.6	11021.2
829.5657	681.1002	11853.05	10988.35
829.7105	683.204	11838.1	10969.1
829.8553	685.3072	11815	10947.4
830.0001	687.4097	11783.4	10919.45
830.1449	689.5115	11790.7	10923.8
830.2898	691.6127	11797.65	10929.3
830.4346	693.7132	11766.35	10901.85
830.5794	695.8131	11778.9	10899.15
830.7243	697.9123	11746.25	10878.05
830.8691	700.0109	11733.85	10863.95
831.014	702.1089	11731.15	10863.65
831.1588	704.2061	11714.3	10847.6
831.3037	706.3028	11737.35	10868.8
831.4486	708.3987	11718.95	10848.45
831.5935	710.4941	11719.4	10851.2
831.7383	712.5887	11709.65	10838.45
831.8832	714.6827	11713.15	10840.05
832.0281	716.7761	11698	10829.2
832.173	718.8688	11663.95	10795.15
832.3179	720.9608	11648.85	10774.85
832.4628	723.0522	11656	10779
832.6077	725.1429	11648.55	10776.55
832.7527	727.233	11666.45	10792.15
832.8976	729.3224	11645.3	10772.8
833.0425	731.4112	11633.3	10762.7
833.1874	733.4993	11626	10751.8
833.3324	735.5867	11590.1	10716.15
833.4773	737.6735	11552.2	10679.45
833.6222	739.7596	11530.15	10652
833.7672	741.845	11517.3	10645.3
833.9122	743.9298	11461.7	10586.15
834.0571	746.014	11481.55	10607.9
834.2021	748.0974	11462.45	10585.9
834.347	750.1802	11419.3	10542.7
834.492	752.2624	11397.85	10520.4
834.637	754.3439	11386.25	10506.3
834.782	756.4247	11325.45	10440.6
834.9269	758.5048	11263.9	10387.85
835.0719	760.5843	11264.8	10384.7
835.2169	762.6631	11229.95	10351.8
835.3619	764.7413	11227.65	10350.85
835.5069	766.8188	11229.9	10350.35
835.6519	768.8956	11216.05	10335.55
835.7969	770.9718	11256.8	10380.8
835.9419	773.0473	11218.15	10338.8
836.0869	775.1221	11195.85	10317.75
836.232	777.1962	11142.1	10262.35
836.377	779.2697	11182.5	10302.7
836.522	781.3426	11209.4	10307.8
836.667	783.4147	11178.8	10297.9
836.8121	785.4862	11161	10280.4
836.9571	787.557	11111.6	10230.1
837.1021	789.6271	11053.25	10173.25
837.2472	791.6966	10977.1	10093.95
837.3922	793.7654	10923.5	10042.35
837.5373	795.8335	10894.7	10014.75
837.6823	797.901	10836.75	9953.9
837.8274	799.9678	10824.1	9943.85
837.9724	802.0339	10808.5	9925.55
838.1175	804.0993	10815.65	9920.95
838.2626	806.1641	10769.6	9883.7
838.4076	808.2282	10747.35	9866.05
838.5527	810.2916	10729.25	9846
838.6978	812.3544	10709.55	9829.05
838.8428	814.4164	10699.3	9817.5
838.9879	816.4778	10723.65	9838.45
839.133	818.5385	10662.9	9778.8
839.2781	820.5986	10689.1	9805.1
839.4232	822.658	10692.65	9809.35
839.5682	824.7166	10677.55	9796.05
839.7133	826.7747	10748.75	9866.2
839.8584	828.832	10718.55	9834.6
840.0035	830.8886	10712.2	9827.2
840.1486	832.9446	10733.45	9846.4
840.2937	834.9999	10669.05	9785.9
840.4388	837.0545	10649.25	9761.9
840.5839	839.1085	10591.55	9706.15
840.729	841.1618	10556.35	9666.05
840.8741	843.2143	10528.35	9643.95
841.0192	845.2662	10508.25	9620.7
841.1643	847.3175	10487.85	9604.1
841.3095	849.368	10436.3	9549.3
841.4546	851.4179	10434.2	9547.2
841.5997	853.467	10376.2	9488.65
841.7448	855.5155	10391.3	9505.4
841.8899	857.5633	10347.2	9460.5
842.0351	859.6105	10316.3	9429.7
842.1802	861.6569	10324.15	9435.55
842.3253	863.7027	10274.55	9384.7
842.4704	865.7478	10291.55	9403.25
842.6156	867.7922	10300.6	9411.55
842.7607	869.8359	10246.05	9358.65
842.9058	871.8789	10245.35	9356.35
843.0509	873.9212	10259.45	9337.85
843.1961	875.9629	10208.2	9318.6
843.3412	878.0039	10212.3	9323
843.4863	880.0441	10211.65	9321.7
843.6315	882.0837	10208.25	9320.45
843.7766	884.1226	10205.25	9314.9
843.9218	886.1609	10220.9	9334.3
844.0669	888.1984	10222.9	9332.5
844.212	890.2352	10252.95	9364.05
844.3572	892.2714	10207.05	9313.95
844.5023	894.3069	10212.55	9322.45
844.6475	896.3416	10131.1	9240.15
844.7926	898.3757	10105.6	9214
844.9377	900.4091	10114	9223.15
845.0829	902.4418	10093.7	9196.3
845.228	904.4739	10094.3	9198.85
845.3732	906.5052	10075.1	9183
845.5183	908.5358	10040.65	9149.75
845.6635	910.5658	10011.3	9119.3
845.8086	912.595	10010.3	9119.65
845.9538	914.6236	9966.35	9073.8
846.0989	916.6515	9953.95	9062.45
846.2441	918.6786	9902	9011.25
846.3892	920.7051	9883.5	8990.1
846.5344	922.7309	9891.3	8998.2
846.6795	924.756	9857.3	8964.55
846.8246	926.7804	9864.35	8969.5
846.9698	928.8041	9787.35	8894.9
847.1149	930.8272	9785.2	8892.35
847.2601	932.8495	9770.3	8875.1
847.4052	934.8711	9758.75	8863.7
847.5504	936.892	9724	8829.3
847.6955	938.9123	9703.45	8807.5
847.8407	940.9318	9678.5	8785.3
847.9858	942.9506	9679	8782.8
848.131	944.9688	9640.9	8747.55
848.2761	946.9862	9616.6	8723.25
848.4213	949.003	9588.15	8692.7
848.5664	951.019	9525.9	8634.2
848.7115	953.0344	9493.75	8597.5
848.8567	955.0491	9482.45	8584.7
849.0018	957.063	9496.25	8601.65
849.147	959.0763	9482.85	8590.75
849.2921	961.0888	9454.7	8556.9
849.4373	963.1007	9455.95	8562.25
849.5824	965.1119	9445.9	8555.05
849.7275	967.1223	9414.4	8525.8
849.8727	969.1321	9389.25	8501.2
850.0178	971.1412	9390.55	8500.3
850.1629	973.1495	9354.8	8462.35
850.3081	975.1572	9385.6	8458.2
850.4532	977.1641	9351.65	8457.25
850.5983	979.1704	9306.95	8410.95
850.7435	981.1759	9290.6	8391.8
850.8886	983.1808	9295.7	8398.2
851.0337	985.1849	9251.05	8347.35
851.1788	987.1884	9241.6	8345.6
851.324	989.1911	9217.35	8321.35
851.4691	991.1932	9200.1	8304
851.6142	993.1945	9175.95	8283.45
851.7593	995.1951	9139.3	8242.45
851.9045	997.1951	9147.85	8245.6
852.0496	999.1943	9093.75	8198.85
852.1947	1001.1928	9082.65	8187.05
852.3398	1003.1906	9021.55	8128.75
852.4849	1005.1877	9017.7	8121.05
852.63	1007.1841	9016.8	8123.05
852.7751	1009.1798	8978.65	8085.6
852.9202	1011.1748	8940.5	8045.45
853.0653	1013.1691	8929.05	8032.3
853.2104	1015.1627	8873.55	7977.95
853.3555	1017.1556	8818.55	7922.8
853.5006	1019.1477	8801.85	7906.5
853.6457	1021.1392	8730.95	7834
853.7908	1023.1299	8701.3	7808.2
853.9359	1025.12	8672.9	7780
854.081	1027.1093	8651.05	7766.75
854.2261	1029.0979	8627.4	7743.8
854.3712	1031.0859	8610.05	7720.4
854.5163	1033.0731	8598.85	7707.35
854.6613	1035.0596	8553.55	7661.2
854.8064	1037.0454	8533.1	7639.7
854.9515	1039.0304	8516.2	7621.05
855.0965	1041.0148	8473.2	7578.05
855.2416	1042.9985	8440.3	7542.2
855.3867	1044.9814	8435.85	7540.8
855.5317	1046.9636	8416.35	7519.1
855.6768	1048.9452	8380.7	7488.5
855.8219	1050.926	8372.2	7479.2
855.9669	1052.9061	8359.4	7466.1
856.112	1054.8855	8333.9	7433.65
856.257	1056.8642	8334.35	7436.7
856.4021	1058.8421	8315.05	7418.8
856.5471	1060.8194	8281.25	7385.05
856.6921	1062.7959	8262.45	7366.3
856.8372	1064.7717	8240.1	7345.95
856.9822	1066.7469	8249.65	7349.85
857.1272	1068.7213	8245.5	7345.45
857.2723	1070.695	8220.9	7323.95
857.4173	1072.6679	8191.1	7293.7
857.5623	1074.6402	8197.25	7299.25
857.7073	1076.6117	8187.05	7282.65
857.8523	1078.5826	8178.35	7278.7
857.9973	1080.5527	8159	7260.9
858.1423	1082.5221	8102.6	7203.7
858.2873	1084.4908	8092.25	7195.4
858.4323	1086.4587	8076.1	7177.4
858.5773	1088.426	8046.1	7147.05
858.7223	1090.3925	7995.4	7091.15
858.8673	1092.3584	8032.25	7132.4
859.0123	1094.3235	7959.8	7063.2
859.1573	1096.2879	7957.5	7061
859.3022	1098.2515	7936.35	7038.7
859.4472	1100.2145	7963.75	7065.5
859.5922	1102.1767	7936.65	7035.75
859.7371	1104.1382	7930.75	7032.7
859.8821	1106.099	7956.7	7059.5
860.027	1108.0591	7953.95	7056.05
860.172	1110.0185	7940.4	7039.1
860.3169	1111.9771	7941.8	7044.6
860.4619	1113.9351	7914.25	7016.75
860.6068	1115.8923	7936.1	7035.8
860.7517	1117.8488	7936.9	7032.75
860.8967	1119.8045	7885.05	6983.95
861.0416	1121.7596	7850.2	6954.55
861.1865	1123.7139	7762.1	6864.9
861.3314	1125.6675	7722.25	6824.85
861.4763	1127.6204	7760.9	6864.3
861.6212	1129.5726	7710.3	6809.95
861.7661	1131.524	7728.9	6829.75
861.911	1133.4748	7687.8	6791.85
862.0559	1135.4248	7638.5	6738.4
862.2008	1137.3741	7612	6711.85
862.3457	1139.3226	7589.5	6687.95
862.4905	1141.2705	7593.55	6695.8
862.6354	1143.2176	7560.85	6657.6
862.7803	1145.164	7548.1	6648.65
862.9251	1147.1097	7541.3	6639.75
863.07	1149.0546	7524.8	6624.25
863.2148	1150.9989	7479.1	6580.6
863.3597	1152.9424	7491.25	6592.6
863.5045	1154.8852	7463.05	6562.4
863.6493	1156.8272	7447.05	6548.45
863.7942	1158.7686	7456.95	6550.1
863.939	1160.7092	7420.3	6519.8
864.0838	1162.6491	7393	6492.2
864.2286	1164.5883	7397.1	6497.3
864.3734	1166.5267	7398.75	6496
864.5182	1168.4644	7410.35	6510.25
864.663	1170.4014	7408.55	6504.05
864.8078	1172.3377	7424.95	6526.75
864.9526	1174.2732	7422.8	6524.2
865.0974	1176.2081	7432.45	6534.4
865.2421	1178.1421	7488.55	6586.2
865.3869	1180.0755	7520	6622.1
865.5317	1182.0082	7522.4	6626.45
865.6764	1183.9401	7504.95	6606.45
865.8212	1185.8713	7423.15	6525
865.9659	1187.8017	7392.05	6496.7
866.1106	1189.7315	7330.7	6439.6
866.2554	1191.6605	7266.45	6373.75
866.4001	1193.5888	7231.55	6336.9
866.5448	1195.5163	7191	6294.5
866.6895	1197.4432	7161.95	6261.8
866.8342	1199.3693	7144.2	6246.5
866.9789	1201.2947	7109.6	6203.65
867.1236	1203.2193	7081.9	6183.45
867.2683	1205.1432	7066.15	6168.95
867.413	1207.0664	7057.35	6157.7
867.5576	1208.9889	7040.45	6140.55
867.7023	1210.9106	6999.2	6099.15
867.847	1212.8316	6970.9	6072.25
867.9916	1214.7519	6993.9	6084.3
868.1363	1216.6715	6967.3	6068.75
868.2809	1218.5903	6966.6	6069.25
868.4255	1220.5084	6955.65	6057.75
868.5701	1222.4257	6966.55	6068.05
868.7148	1224.3424	6920.05	6022.4
868.8594	1226.2583	6925.45	6021.4
869.004	1228.1735	6895	5994.95
869.1486	1230.0879	6910.95	6011.05
869.2932	1232.0016	6900.5	6002.15
869.4377	1233.9146	6900.95	6000.8
869.5823	1235.8269	6905.35	6008.05
869.7269	1237.7384	6900.8	6002.85
869.8715	1239.6492	6859.15	5961.8
870.016	1241.5592	6874.3	5975.1
870.1606	1243.4686	6868.8	5971.25
870.3051	1245.3772	6878.5	5980.05
870.4496	1247.285	6890.8	5991.25
870.5941	1249.1922	6905.1	6003.4
870.7387	1251.0986	6934.2	6036.05
870.8832	1253.0042	6915.85	6017.4
871.0277	1254.9092	6984.7	6086.3
871.1722	1256.8134	6983.75	6085.2
871.3167	1258.7169	6994.75	6094.2
871.4611	1260.6196	7006.45	6107.9
871.6056	1262.5216	7016.85	6116.35
871.7501	1264.4229	6974	6076.5
871.8945	1266.3234	6962.05	6062.35
872.039	1268.2232	6952.3	6054.25
872.1834	1270.1223	6900.6	5999.1
872.3278	1272.0207	6891.55	5990.95
872.4723	1273.9183	6879.5	5974.6
872.6167	1275.8151	6875.1	5975.45
872.7611	1277.7113	6882.15	5984.1
872.9055	1279.6067	6897.25	5997.4
873.0499	1281.5014	6941.7	6041.5
873.1943	1283.3953	7009.4	6108.45
873.3386	1285.2885	7037.75	6136.7
873.483	1287.181	7103.75	6203.3
873.6274	1289.0727	7125.6	6226.8
873.7717	1290.9637	7106.85	6207.5
873.9161	1292.854	7065.9	6167.8
874.0604	1294.7435	7010.9	6109.75
874.2047	1296.6323	6957.2	6058.75
874.349	1298.5204	6908.75	6006.1
874.4933	1300.4077	6890.3	5991.85
874.6376	1302.2943	6856.3	5957.1
874.7819	1304.1802	6837.75	5938.9
874.9262	1306.0653	6801.75	5900.6
875.0705	1307.9497	6775.1	5878
875.2147	1309.8333	6771.65	5874.2
875.359	1311.7162	6752.1	5853.45
875.5032	1313.5984	6707.05	5805.3
875.6475	1315.4798	6695.05	5794.35
875.7917	1317.3605	6698.8	5784.3
875.9359	1319.2405	6659.3	5757.35
876.0801	1321.1197	6660.05	5755.75
876.2243	1322.9982	6610.2	5707.75
876.3685	1324.876	6582.55	5684
876.5127	1326.753	6510.15	5610.9
876.6569	1328.6293	6491.65	5591.1
876.801	1330.5048	6462.95	5559.95
876.9452	1332.3796	6426.4	5528.35
877.0893	1334.2537	6434.45	5511
877.2335	1336.127	6367.1	5467.15
877.3776	1337.9996	6330.4	5432.6
877.5217	1339.8714	6323.75	5425.2
877.6658	1341.7426	6327.25	5382.1
877.8099	1343.6129	6297.65	5398.15
877.954	1345.4826	6273.5	5374.7
878.0981	1347.3515	6272.6	5369.2
878.2422	1349.2196	6238	5336.95
878.3862	1351.087	6227.35	5327.2
878.5303	1352.9537	6221.6	5320.45
878.6743	1354.8197	6239.1	5339.85
878.8184	1356.6849	6239.25	5339.05
878.9624	1358.5493	6226.55	5326.7
879.1064	1360.4131	6234	5332.7
879.2504	1362.276	6219.05	5318.8
879.3944	1364.1383	6215.9	5314.05
879.5384	1365.9998	6223.45	5318.4
879.6823	1367.8606	6192.85	5289.5
879.8263	1369.7206	6187.05	5287.25
879.9702	1371.5799	6166.8	5266.05
880.1142	1373.4384	6150.35	5249.45
880.2581	1375.2962	6134.2	5233.65
880.402	1377.1533	6089.1	5187.05
880.5459	1379.0096	6056.7	5158.9
880.6898	1380.8652	6043.85	5145.7
880.8337	1382.7201	5995.4	5096.4
880.9776	1384.5742	5966.05	5067.85
881.1215	1386.4275	5949.85	5048.4
881.2653	1388.2802	5907.9	5007.9
881.4092	1390.132	5897.5	4998.5
881.553	1391.9832	5874.35	4972.1
881.6968	1393.8336	5839.4	4939.2
881.8406	1395.6832	5828.75	4927.65
881.9844	1397.5322	5811.45	4911.85
882.1282	1399.3803	5801.55	4896.85
882.272	1401.2278	5762.7	4864.35
882.4158	1403.0745	5750.9	4853.95
882.5595	1404.9204	5713.3	4817.15
882.7033	1406.7656	5698.35	4797.45
882.847	1408.6101	5693	4791.3
882.9908	1410.4538	5669.35	4769.9
883.1345	1412.2968	5657.7	4757.2
883.2782	1414.139	5635.75	4737.3
883.4219	1415.9805	5648.6	4748.1
883.5656	1417.8213	5621.8	4715.55
883.7092	1419.6613	5589.9	4691.55
883.8529	1421.5006	5619.3	4718.25
883.9965	1423.3391	5630.3	4729.7
884.1402	1425.1769	5610.55	4709.75
884.2838	1427.0139	5638.75	4737.05
884.4274	1428.8502	5676.35	4774.8
884.571	1430.6858	5680.65	4780.5
884.7146	1432.5206	5660	4761.8
884.8582	1434.3547	5663	4763.3
885.0018	1436.188	5662.25	4763.2
885.1453	1438.0206	5637.5	4737.7
885.2889	1439.8524	5608.35	4708.95
885.4324	1441.6835	5633.95	4732.65
885.5759	1443.5139	5615.5	4711.9
885.7194	1445.3435	5576.8	4677.55
885.8629	1447.1724	5584.05	4687.25
886.0064	1449.0005	5591.75	4692.25
886.1499	1450.8279	5571.05	4671.3
886.2933	1452.6545	5559.95	4659.45
886.4368	1454.4804	5546.3	4649.55
886.5802	1456.3056	5536.8	4631.55
886.7237	1458.13	5520.5	4624.45
886.8671	1459.9536	5517.75	4619.8
887.0105	1461.7766	5492.75	4592.55
887.1539	1463.5987	5447.25	4547.9
887.2972	1465.4202	5433.25	4535.3
887.4406	1467.2409	5415.4	4518.45
887.584	1469.0608	5390.2	4490.55
887.7273	1470.88	5349.5	4449.5
887.8706	1472.6984	5317	4418.75
888.0139	1474.5161	5315.5	4414.45
888.1572	1476.3331	5299.55	4402.75
888.3005	1478.1493	5294.2	4393.35
888.4438	1479.9648	5274.25	4376.2
888.5871	1481.7795	5276.65	4378.75
888.7303	1483.5935	5263.85	4367.65
888.8736	1485.4067	5259.2	4359.95
889.0168	1487.2192	5247.5	4345.2
889.16	1489.031	5218.7	4319.95
889.3032	1490.842	5204.15	4308.25
889.4464	1492.6522	5210.95	4313.45
889.5896	1494.4618	5194.15	4295.55
889.7327	1496.2705	5178.65	4281.95
889.8759	1498.0785	5185.3	4287.55
890.019	1499.8858	5177.85	4280
890.1622	1501.6924	5151.65	4253.7
890.3053	1503.4981	5143	4244.1
890.4484	1505.3032	5126.85	4228.55
890.5914	1507.1075	5116.75	4217.85
890.7345	1508.911	5088.2	4191.95
890.8776	1510.7138	5088.95	4192.1
891.0206	1512.5159	5066.6	4170.7
891.1637	1514.3172	5056.2	4158.4
891.3067	1516.1178	5035.65	4139.8
891.4497	1517.9176	5021.1	4121.1
891.5927	1519.7166	5015.75	4118.2
891.7357	1521.515	5005.15	4101.55
891.8786	1523.3126	4992	4095.65
892.0216	1525.1094	4977.55	4078.55
892.1645	1526.9055	4941.25	4044.85
892.3074	1528.7008	4921.9	4022.15
892.4503	1530.4954	4892.8	3994.35
892.5932	1532.2893	4884.35	3987.55
892.7361	1534.0824	4882.4	3982.15
892.879	1535.8747	4872.85	3977.75
893.0218	1537.6663	4843.95	3949.1
893.1647	1539.4572	4829.2	3932.85
893.3075	1541.2473	4836.55	3939.8
893.4503	1543.0367	4832.45	3936.2
893.5931	1544.8253	4785.25	3884.5
893.7359	1546.6132	4785.55	3885
893.8787	1548.4003	4782.2	3876.45
894.0214	1550.1867	4779.7	3876.9
894.1642	1551.9723	4764.3	3865
894.3069	1553.7572	4752.25	3856.95
894.4496	1555.5414	4742.6	3845.9
894.5923	1557.3247	4755.8	3860.95
894.735	1559.1074	4738.3	3844.95
894.8777	1560.8893	4743.65	3849.05
895.0204	1562.6705	4732.6	3838.2
895.163	1564.4509	4723.95	3829.8
895.3056	1566.2305	4723.4	3832.05
895.4482	1568.0094	4733.8	3840.9
895.5908	1569.7876	4729.8	3838.95
895.7334	1571.565	4709.6	3815.35
895.876	1573.3417	4701.95	3809.3
896.0186	1575.1176	4687.45	3795.1
896.1611	1576.8928	4677.9	3785.95
896.3036	1578.6672	4665.15	3776.55
896.4461	1580.4409	4652.95	3765.7
896.5886	1582.2138	4678	3785.7
896.7311	1583.986	4658.05	3764.2
896.8736	1585.7575	4678.25	3786.95
897.0161	1587.5282	4674.3	3784.95
897.1585	1589.2981	4673.5	3785.55
897.3009	1591.0673	4670.8	3781.8
897.4433	1592.8358	4671.25	3782.1
897.5857	1594.6035	4667.35	3773.2
897.7281	1596.3704	4644.2	3750.6
897.8705	1598.1366	4622.45	3732
898.0128	1599.9021	4602.2	3711.1
898.1551	1601.6668	4588.6	3697.55
898.2975	1603.4308	4561	3668.45
898.4398	1605.194	4567.6	3673.6
898.5821	1606.9564	4548.85	3660.05
898.7243	1608.7182	4565.6	3675.6
898.8666	1610.4791	4593.55	3707.9
899.0088	1612.2394	4616.15	3729.75
899.1511	1613.9988	4632.45	3746
899.2933	1615.7576	4656.5	3769.15
899.4355	1617.5156	4673.5	3777.2
899.5776	1619.2728	4652.2	3759.85
899.7198	1621.0293	4602.45	3711.95
899.862	1622.785	4547.5	3654.65
900.0041	1624.54	4479.55	3587.35
900.1462	1626.2942	4406.05	3515.65
900.2883	1628.0477	4351	3461.75
900.4304	1629.8005	4312.5	3420.95
900.5725	1631.5525	4262.85	3375.9
900.7145	1633.3037	4221.95	3332.95
900.8566	1635.0542	4207.05	3318.3
900.9986	1636.804	4166.35	3277.6
901.1406	1638.553	4217.45	3249
901.2826	1640.3013	4130.95	3241.1
901.4245	1642.0488	4108.85	3218.2
901.5665	1643.7955	4080.45	3195.1
901.7085	1645.5416	4075.55	3186.4
901.8504	1647.2868	4061.85	3173.8
901.9923	1649.0313	4043.7	3154.45
902.1342	1650.7751	4034	3141.25
902.2761	1652.5181	4027.85	3140.75
902.4179	1654.2604	4007.9	3120.05
902.5598	1656.0019	4002.25	3112.75
902.7016	1657.7427	4004.7	3117.8
902.8434	1659.4828	3987.4	3098.15
902.9852	1661.222	3986.55	3096.3
903.127	1662.9606	3994.8	3106.75
903.2687	1664.6984	3990	3100.1
903.4105	1666.4354	3996.1	3105.25
903.5522	1668.1717	3970.25	3079.65
903.6939	1669.9072	3934.75	3042.5
903.8356	1671.642	3924.3	3030.2
903.9773	1673.3761	3895.15	3006.4
904.119	1675.1094	3858.4	2970.8
904.2606	1676.8419	3840.35	2950.1
904.4022	1678.5737	3812.3	2922.5
904.5439	1680.3048	3796.05	2903.7
904.6855	1682.0351	3785.3	2897.35
904.827	1683.7646	3759.2	2866.4
904.9686	1685.4934	3749	2859.9
905.1101	1687.2215	3735.65	2847.3
905.2517	1688.9488	3724.4	2836.5
905.3932	1690.6754	3691.75	2802.1
905.5347	1692.4012	3681.95	2792.1
905.6761	1694.1263	3680.7	2790.4
905.8176	1695.8506	3660.75	2771.5
905.9591	1697.5742	3642.05	2755.15
906.1005	1699.297	3640.9	2753.95
906.2419	1701.0191	3622.55	2736.15
906.3833	1702.7404	3615.95	2728.2
906.5246	1704.461	3589.35	2701.95
906.666	1706.1808	3585.65	2699.75
906.8073	1707.8999	3594.4	2707.05
906.9487	1709.6182	3578	2691.75
907.09	1711.3358	3568.25	2680.2
907.2313	1713.0527	3540.4	2653.7
907.3725	1714.7688	3545.95	2655.55
907.5138	1716.4841	3531.8	2643.2
907.655	1718.1987	3519.65	2627
907.7962	1719.9126	3520.35	2633.95
907.9374	1721.6257	3490.5	2604.15
908.0786	1723.338	3489.45	2603.7
908.2198	1725.0496	3486.15	2597.55
908.3609	1726.7605	3483	2592.95
908.502	1728.4706	3491.25	2603.6
908.6431	1730.18	3459.05	2568.4
908.7842	1731.8886	3456.3	2570.95
908.9253	1733.5964	3458.15	2567.3
909.0664	1735.3036	3434.5	2545.9
909.2074	1737.0099	3446.15	2559.15
909.3484	1738.7156	3441.1	2555.25
909.4894	1740.4204	3435.85	2546.45
909.6304	1742.1246	3427.4	2538.9
909.7714	1743.8279	3427.85	2541.55
909.9123	1745.5306	3408.7	2521.85
910.0532	1747.2325	3427.95	2539.35
910.1941	1748.9336	3416.35	2531
910.335	1750.634	3405.9	2516.6
910.4759	1752.3336	3401.05	2516.15
910.6168	1754.0325	3392.1	2507.2
910.7576	1755.7307	3401	2515.2
910.8984	1757.4281	3381	2494.2
911.0392	1759.1247	3383.6	2489.6
911.18	1760.8206	3381.75	2485.55
911.3208	1762.5158	3374	2480.15
911.4615	1764.2102	3342.15	2455
911.6022	1765.9039	3345.1	2459.35
911.7429	1767.5968	3343	2459.45
911.8836	1769.289	3353.05	2466.6
912.0243	1770.9804	3330.4	2443.75
912.1649	1772.6711	3344.3	2454.25
912.3056	1774.361	3332.9	2444.75
912.4462	1776.0502	3316.45	2429.15
912.5868	1777.7386	3306.2	2417.1
912.7274	1779.4263	3288.85	2401.2
912.8679	1781.1132	3312.8	2427.85
913.0084	1782.7994	3299.25	2412.7
913.149	1784.4849	3295.9	2410.85
913.2895	1786.1696	3292.8	2391.05
913.4299	1787.8535	3274.4	2390.05
913.5704	1789.5367	3275.4	2391.2
913.7108	1791.2192	3254.25	2370.25
913.8513	1792.9009	3275.1	2359.8
913.9917	1794.5818	3252.1	2362.45
914.132	1796.2621	3245.55	2359.05
914.2724	1797.9415	3237.65	2351.65
914.4128	1799.6202	3217.95	2329.95
914.5531	1801.2982	3223.8	2337.7
914.6934	1802.9755	3213.85	2324.25
914.8337	1804.6519	3225.45	2337.8
914.9739	1806.3277	3214.05	2326.7
915.1142	1808.0027	3194.4	2310.85
915.2544	1809.6769	3202.05	2318.05
915.3946	1811.3504	3185.25	2299.3
915.5348	1813.0231	3186.05	2300.7
915.675	1814.6951	3180.45	2294.3
915.8151	1816.3664	3173.25	2284.7
915.9553	1818.0369	3171.35	2285.5
916.0954	1819.7067	3157.55	2268.1
916.2355	1821.3757	3153.75	2264.35
916.3755	1823.044	3142.9	2257.45
916.5156	1824.7115	3150.05	2263.4
916.6556	1826.3783	3141.2	2255.85
916.7956	1828.0443	3134.55	2248.7
916.9356	1829.7096	3121.35	2233.6
917.0756	1831.3741	3119.45	2230
917.2155	1833.0379	3121	2234.7
917.3555	1834.701	3109.2	2221.85
917.4954	1836.3633	3107.5	2221.65
917.6353	1838.0248	3101.1	2213.9
917.7751	1839.6856	3100.3	2215.15
917.915	1841.3457	3107.35	2222.3
918.0548	1843.005	3080.15	2195.05
918.1946	1844.6636	3078.4	2193.7
918.3344	1846.3214	3061.4	2172.85
918.4742	1847.9785	3067.65	2183.45
918.6139	1849.6349	3061.55	2173.25
918.7537	1851.2904	3073.25	2176.95
918.8934	1852.9453	3045.4	2157.65
919.0331	1854.5994	3047.3	2157.75
919.1727	1856.2528	3049.7	2158.75
919.3124	1857.9054	3046.95	2161.25
919.452	1859.5572	3033.65	2147.95
919.5916	1861.2083	3033.05	2145
919.7312	1862.8587	3027.15	2140.55
919.8708	1864.5084	3038.1	2150.45
920.0103	1866.1572	3009.05	2121.4
920.1498	1867.8054	3005.2	2115.9
920.2893	1869.4528	3016.65	2129.65
920.4288	1871.0994	3007.75	2119.05
920.5683	1872.7453	3010.9	2123.7
920.7077	1874.3905	2982.8	2091.95
920.8471	1876.0349	2972.05	2083.85
920.9865	1877.6786	2981.15	2092.05
921.1259	1879.3215	2975.15	2088.9
921.2653	1880.9637	2967.75	2078.45
921.4046	1882.6051	2969.75	2083.8
921.5439	1884.2458	2954.25	2065.1
921.6832	1885.8858	2950.4	2063.9
921.8225	1887.525	2955.3	2067.2
921.9617	1889.1634	2949.3	2063.35
922.101	1890.8011	2950.35	2062.25
922.2402	1892.4381	2928.6	2042.55
922.3794	1894.0743	2937.9	2052.3
922.5185	1895.7098	2917.2	2030.6
922.6577	1897.3446	2925.25	2037.45
922.7968	1898.9786	2920.4	2030.2
922.9359	1900.6118	2901.75	2017.75
923.075	1902.2443	2907.2	2021.4
923.214	1903.8761	2902.05	2015.25
923.3531	1905.5071	2883.95	1997.35
923.4921	1907.1374	2878.2	1991.95
923.6311	1908.7669	2879.95	1994
923.77	1910.3957	2890.1	2004.05
923.909	1912.0237	2860.05	1973.1
924.0479	1913.651	2863.05	1974.65
924.1868	1915.2776	2857.45	1973.2
924.3257	1916.9034	2851.4	1967.6
924.4646	1918.5285	2842.1	1955.3
924.6034	1920.1528	2829.05	1942.2
924.7422	1921.7764	2826.55	1940.6
924.881	1923.3992	2817.55	1930.75
925.0198	1925.0213	2807.55	1921.8
925.1586	1926.6427	2793.55	1908.55
925.2973	1928.2633	3004.7	1872.3
925.436	1929.8832	2835.65	1944.75
925.5747	1931.5023	2788.15	1901.75
925.7134	1933.1207	2766.05	1880.05
925.852	1934.7383	2772.65	1885.55
925.9906	1936.3552	2768.25	1881.8
926.1292	1937.9714	2764.55	1877.9
926.2678	1939.5868	2764.4	1876.25
926.4064	1941.2015	2751.15	1863.8
926.5449	1942.8154	2742.65	1856.2
926.6834	1944.4286	2732.95	1845.45
926.8219	1946.041	2733	1822.15
926.9604	1947.6528	2735.95	1845.1
927.0988	1949.2637	2729.45	1844.35
927.2372	1950.8739	2723.75	1836.4
927.3756	1952.4834	2710.35	1824.45
927.514	1954.0921	2710.3	1824.55
927.6523	1955.7001	2710.6	1820.3
927.7907	1957.3074	2697.65	1811.9
927.929	1958.9139	2694	1809.85
928.0673	1960.5197	2692.05	1805.3
928.2055	1962.1247	2676.65	1791.05
928.3438	1963.729	2677.8	1794.95
928.482	1965.3325	2681.55	1774.35
928.6202	1966.9353	2667.85	1784.15
928.7584	1968.5374	2672.15	1786.7
928.8965	1970.1387	2644.3	1760
929.0346	1971.7393	2653.4	1766
929.1727	1973.3392	2641.25	1755.9
929.3108	1974.9383	2634.05	1751.3
929.4489	1976.5366	2615.1	1731.9
929.5869	1978.1342	2621.6	1736.45
929.7249	1979.7311	2621.75	1739.35
929.8629	1981.3273	2616.45	1731
930.0009	1982.9227	2617.2	1732.6
930.1388	1984.5173	2593.65	1709.8
930.2767	1986.1112	2588	1704.25
930.4146	1987.7044	2596.25	1712.8
930.5525	1989.2968	2610.6	1725.8
930.6904	1990.8885	2589.8	1703.05
930.8282	1992.4795	2592.45	1708.2
930.966	1994.0697	2583.65	1700.1
931.1038	1995.6592	2573.05	1691.95
931.2415	1997.2479	2572.55	1686.7
931.3793	1998.8359	2570.85	1687.95
931.517	2000.4232	2558.05	1675.05
931.6547	2002.0097	2551.25	1672.3
931.7923	2003.5955	2548.9	1665.9
931.93	2005.1805	2540.25	1657.45
932.0676	2006.7648	2542.15	1660.15
932.2052	2008.3484	2539.6	1655.35
932.3427	2009.9312	2547.25	1665.85
932.4803	2011.5133	2528.15	1648.55
932.6178	2013.0946	2534.25	1652.2
932.7553	2014.6752	2529.25	1647.9
932.8928	2016.2551	2529.75	1647.45
933.0302	2017.8342	2524.6	1645.2
933.1676	2019.4126	2518.9	1639.95
933.305	2020.9902	2497.9	1617.1
933.4424	2022.5672	2504.8	1623.45
933.5798	2024.1433	2506.55	1620.4
933.7171	2025.7188	2496.7	1615.85
933.8544	2027.2935	2488.9	1607.25
933.9917	2028.8674	2494.35	1613.8
934.129	2030.4406	2472.15	1593.75
934.2662	2032.0131	2475.85	1595.4
934.4034	2033.5849	2473.85	1589.75
934.5406	2035.1559	2472.6	1590.5
934.6778	2036.7261	2471.8	1589.75
934.8149	2038.2957	2482.55	1600.1
934.952	2039.8645	2470.5	1587.8
935.0891	2041.4325	2471.6	1586.95
935.2262	2042.9998	2463.85	1582.85
935.3632	2044.5664	2455.1	1571.5
935.5002	2046.1323	2453.95	1573.1
935.6372	2047.6974	2453.65	1573.05
935.7742	2049.2617	2443.8	1564.15
935.9111	2050.8254	2447.55	1561.55
936.048	2052.3883	2463.75	1582.25
936.1849	2053.9504	2457.3	1576.15
936.3218	2055.5118	2441.35	1559.3
936.4586	2057.0725	2432.65	1548.25
936.5955	2058.6325	2430.25	1549.1
936.7323	2060.1917	2434.35	1555.2
936.869	2061.7502	2435.4	1552.25
937.0058	2063.3079	2425.05	1545.15
937.1425	2064.8649	2417.35	1533.9
937.2792	2066.4212	2417.7	1535.35
937.4159	2067.9767	2422.9	1543
937.5525	2069.5315	2412.7	1530.1
937.6891	2071.0856	2399.85	1518.6
937.8257	2072.6389	2397.25	1515.95
937.9623	2074.1915	2381.3	1501.65
938.0989	2075.7433	2379.4	1496.9
938.2354	2077.2945	2380.85	1500.95
938.3719	2078.8448	2383.65	1502.85
938.5084	2080.3945	2372.5	1490.65
938.6448	2081.9434	2372	1490.2
938.7812	2083.4916	2370.3	1485.55
938.9176	2085.039	2377.25	1492.75
939.054	2086.5857	2379.3	1494.65
939.1903	2088.1317	2374.5	1490.7
939.3267	2089.677	2359.8	1474.5
939.463	2091.2215	2363.25	1479.7
939.5992	2092.7652	2354.15	1467.55
939.7355	2094.3083	2358.2	1473.65
939.8717	2095.8506	2356.75	1471.4
940.0079	2097.3921	2347.05	1463.45
940.1441	2098.933	2361.7	1480.95
940.2802	2100.4731	2337.5	1455.2
940.4163	2102.0124	2363.3	1463.25
940.5524	2103.5511	2349.15	1466.2
940.6885	2105.089	2326.8	1443.45
940.8245	2106.6261	2335.95	1453.85
940.9606	2108.1626	2337.55	1454.4
941.0965	2109.6983	2363.05	1453.85
941.2325	2111.2332	2345.1	1460.7
941.3684	2112.7675	2332.25	1448.2
941.5044	2114.301	2331.3	1443.9
941.6403	2115.8337	2331.95	1446.85
941.7761	2117.3657	2323.8	1442.75
941.912	2118.897	2318.35	1435.2
942.0478	2120.4276	2322.8	1434.4
942.1835	2121.9575	2311.85	1427.7
942.3193	2123.4866	2327.6	1429.75
942.455	2125.0149	2306.7	1420.9
942.5907	2126.5426	2297.55	1415.2
942.7264	2128.0695	2290.85	1403.4
942.8621	2129.5956	2288.25	1407
942.9977	2131.1211	2283.05	1397.4
943.1333	2132.6458	2283.35	1403.5
943.2689	2134.1698	2281.9	1397.3
943.4044	2135.693	2294.05	1407.65
943.54	2137.2155	2291.55	1409.1
943.6755	2138.7373	2284.75	1401.7
943.8109	2140.2584	2274.85	1392.7
943.9464	2141.7787	2267	1379.7
944.0818	2143.2983	2267.95	1389.2
944.2172	2144.8171	2258.1	1377.7
944.3526	2146.3353	2255.2	1370.75
944.4879	2147.8527	2257.2	1377.55
944.6232	2149.3693	2255.8	1371.15
944.7585	2150.8853	2250.25	1365.7
944.8938	2152.4005	2248.3	1366.55
945.029	2153.9149	2248.05	1362.35
945.1642	2155.4287	2241.05	1359.2
945.2994	2156.9417	2238.35	1353.9
945.4346	2158.454	2238.95	1355
945.5697	2159.9655	2227.75	1348.05
945.7048	2161.4764	2219.8	1339.05
945.8399	2162.9865	2232.4	1349.3
945.9749	2164.4958	2218.85	1337.45
946.1099	2166.0045	2212.25	1327.45
946.2449	2167.5124	2208.85	1328.35
946.3799	2169.0195	2211.95	1329.65
946.5148	2170.526	2212.9	1329.75
946.6498	2172.0317	2204.6	1320.9
946.7846	2173.5367	2212.45	1331.2
946.9195	2175.0409	2196.75	1313.65
947.0543	2176.5445	2195.95	1314.7
947.1891	2178.0473	2191.6	1307.95
947.3239	2179.5494	2177.65	1291.1
947.4587	2181.0507	2188.45	1306
947.5934	2182.5513	2184.85	1302.7
947.7281	2184.0512	2183.35	1300.15
947.8628	2185.5504	2183.4	1301.45
947.9974	2187.0488	2167.1	1285.5
948.132	2188.5465	2167	1287.2
948.2666	2190.0435	2159.55	1277.25
948.4012	2191.5397	2151.1	1269.65
948.5357	2193.0353	2150.15	1267.65
948.6702	2194.5301	2142.2	1257.85
948.8047	2196.0241	2143.7	1259.05
948.9392	2197.5175	2139.3	1255.35
949.0736	2199.0101	2131.15	1242.2
949.208	2200.502	2117.5	1237.1
949.3424	2201.9931	2128.8	1247.05
949.4767	2203.4835	2130.3	1247.35
949.611	2204.9733	2121.55	1235
949.7453	2206.4622	2116.7	1236.65
949.8796	2207.9505	2114.6	1230.25
950.0138	2209.438	2103.8	1223.5
950.148	2210.9248	2100.45	1216
950.2822	2212.4109	2109.55	1227.8
950.4164	2213.8962	2107.5	1222.95
950.5505	2215.3809	2092.15	1206.95
950.6846	2216.8648	2091.15	1205.9
950.8186	2218.3479	2095.25	1205.45
950.9527	2219.8304	2089.25	1202.9
951.0867	2221.3121	2080.6	1194.85
951.2207	2222.7931	2083.2	1198.95
951.3546	2224.2733	2074.8	1190.6
951.4886	2225.7529	2071.2	1186.55
951.6225	2227.2317	2064.8	1179.1
951.7563	2228.7098	2059.35	1178.75
951.8902	2230.1872	2052.05	1170.2
952.024	2231.6638	2054.25	1173.7
952.1578	2233.1397	2052.5	1164.3
952.2916	2234.6149	2042.4	1162.35
952.4253	2236.0894	2044.4	1162.45
952.559	2237.5632	2043.2	1150.95
952.6927	2239.0362	2038.8	1156.25
952.8263	2240.5085	2023.75	1140.35
952.9599	2241.9801	2029.9	1146.35
953.0935	2243.4509	2021.3	1138.85
953.2271	2244.921	2022.85	1138.9
953.3606	2246.3904	2023.35	1137.9
953.4941	2247.8591	2017.7	1136.4
953.6276	2249.3271	2011.95	1127.85
953.7611	2250.7943	2006.45	1120.8
953.8945	2252.2608	1999.6	1116.6
954.0279	2253.7266	1995.85	1113.4
954.1612	2255.1917	1990.8	1108.25
954.2946	2256.656	1995.85	1112.1
954.4279	2258.1197	1994.3	1113.35
954.5612	2259.5826	1982.2	1096.3
954.6944	2261.0447	1988.8	1104.9
954.8276	2262.5062	1977	1091.55
954.9608	2263.9669	1981.55	1096.35
955.094	2265.4269	1974.55	1090.9
955.2271	2266.8862	1970.1	1085.95
955.3602	2268.3448	1966.7	1085.1
955.4933	2269.8026	1970.1	1086.6
955.6264	2271.2598	1961.75	1080.3
955.7594	2272.7162	1956.9	1076.5
955.8924	2274.1719	1962.95	1078.75
956.0253	2275.6268	1951.8	1067.95
956.1583	2277.0811	1959.75	1076.35
956.2912	2278.5346	1945.5	1063.25
956.4241	2279.9874	1948.3	1065.9
956.5569	2281.4395	1949.75	1069.5
956.6897	2282.8908	1948.5	1062.5
956.8225	2284.3414	1939.1	1053.15
956.9553	2285.7914	1931.55	1049.75
957.088	2287.2406	1939	1053.65
957.2207	2288.689	1930.45	1049.1
957.3534	2290.1368	1926.85	1043.25
957.486	2291.5838	1929.3	1041.85
957.6186	2293.0302	1918.75	1032.85
957.7512	2294.4758	1917.95	1033.2
957.8838	2295.9206	1919.1	1034.9
958.0163	2297.3648	1907.5	1025.8
958.1488	2298.8082	1903.9	1019.15
958.2813	2300.251	1902.4	1018.8
958.4137	2301.693	1906.15	1022.3
958.5461	2303.1343	1903.15	1018.2
958.6785	2304.5748	1894.2	1012.1
958.8108	2306.0147	1888.85	1005.8
958.9432	2307.4538	1884.85	999.5
959.0754	2308.8922	1878.15	995.95
959.2077	2310.3299	1882.1	1001.25
959.3399	2311.7669	1872.95	992.05
959.4721	2313.2031	1877.5	995.6
959.6043	2314.6387	1864.4	981.85
959.7365	2316.0735	1869.35	986.15
959.8686	2317.5076	1870.7	986.6
960.0006	2318.941	1863.6	980.95
960.1327	2320.3737	1864.05	979.4
960.2647	2321.8056	1864.45	978.4
960.3967	2323.2369	1859.8	975.25
960.5287	2324.6674	1852.85	965.9
960.6606	2326.0972	1852.65	966.8
960.7925	2327.5263	1850.25	967.35
960.9244	2328.9547	1852.5	969.35
961.0562	2330.3823	1852.05	967.85
961.1881	2331.8092	1852.95	965.65
961.3198	2333.2355	1841.35	958.35
961.4516	2334.661	1827.4	943.65
961.5833	2336.0858	1828.65	943.05
961.715	2337.5098	1830.6	945.1
961.8467	2338.9332	1823.85	939.2
961.9783	2340.3558	1824.65	937.85
962.1099	2341.7778	1817.15	934.05
962.2415	2343.199	1809.1	922.95
962.373	2344.6195	1805.5	921.3
962.5045	2346.0393	1801.65	920.9
962.636	2347.4583	1805.95	922.75
962.7675	2348.8767	1810.3	927.1
962.8989	2350.2943	1805.4	919.5
963.0303	2351.7113	1806.25	920.45
963.1617	2353.1275	1799.75	913.7
963.293	2354.543	1798.25	903.15
963.4243	2355.9578	1784	897.4
963.5556	2357.3718	1784.35	901.65
963.6868	2358.7852	1778.4	892.2
963.818	2360.1978	1776.5	891.45
963.9492	2361.6098	1775.8	892.35
964.0803	2363.021	1775.1	888.05
964.2114	2364.4315	1763.5	878.65
964.3425	2365.8413	1763.55	877.35
964.4736	2367.2504	1756.25	873.4
964.6046	2368.6587	1755.25	870.35
964.7356	2370.0664	1757.15	874.3
964.8666	2371.4733	1741.6	859.65
964.9975	2372.8795	1742.4	859.25
965.1284	2374.285	1736.9	851.2
965.2593	2375.6899	1731.4	848.4
965.3901	2377.0939	1728.4	844.35
965.5209	2378.4973	1718.9	834.95
965.6517	2379.9	1733.4	848.6
965.7825	2381.3019	1718.75	833.7
965.9132	2382.7032	1719.8	837.15
966.0439	2384.1037	1712.25	830.85
966.1745	2385.5035	1711.75	827.05
966.3051	2386.9027	1709.5	828.25
966.4357	2388.3011	1706	818.05
966.5663	2389.6987	1706.2	821.65
966.6968	2391.0957	1694.75	808.95
966.8273	2392.492	1701.15	817.9
966.9578	2393.8876	1682.7	798
967.0882	2395.2824	1691.65	807.85
967.2186	2396.6765	1689.95	804.2
967.349	2398.07	1679.7	791.05
967.4793	2399.4627	1677.6	791.5
967.6097	2400.8547	1678.65	793.15
967.7399	2402.246	1673.2	780.2
967.8702	2403.6366	1661.7	776.05
968.0004	2405.0265	1661.75	776.75
968.1306	2406.4156	1670.2	782
968.2607	2407.8041	1657.45	771.15
968.3909	2409.1918	1655.45	768.35
968.521	2410.5789	1649.65	763.35
968.651	2411.9652	1659.8	770.35
968.781	2413.3508	1646.35	758.15
968.911	2414.7358	1641.85	754.75
969.041	2416.12	1635.2	748.35
969.1709	2417.5035	1640.9	756.8
969.3008	2418.8863	1640.2	753.6
969.4307	2420.2684	1630.35	743.9
969.5606	2421.6497	1629.4	743.35
969.6904	2423.0304	1620.9	735.6
969.8201	2424.4104	1629.95	745.25
969.9499	2425.7896	1626.3	737.9
970.0796	2427.1682	1615.55	732.5
970.2093	2428.546	1615.3	728.85
970.3389	2429.9232	1615.8	729.7
970.4685	2431.2996	1609.95	722.75
970.5981	2432.6753	1610.3	724.85
970.7277	2434.0503	1607.35	721.7
970.8572	2435.4246	1603.4	717.55
970.9867	2436.7982	1595.8	707.45
971.1161	2438.1711	1597.25	712.3
971.2456	2439.5433	1592.55	707.4
971.375	2440.9148	1600.3	710.5
971.5043	2442.2856	1581.75	696.95
971.6336	2443.6557	1587.5	700.9
971.7629	2445.025	1586.4	700.25
971.8922	2446.3937	1584.6	697.4
972.0214	2447.7617	1583.6	697.55
972.1506	2449.1289	1584.15	699.15
972.2798	2450.4955	1579.65	691.35
972.4089	2451.8613	1580.5	697.3
972.538	2453.2265	1579.7	696.2
972.6671	2454.5909	1576.7	691.15
972.7961	2455.9546	1575.8	691.55
972.9251	2457.3177	1566.3	682.95
973.0541	2458.68	1563.75	676.55
973.1831	2460.0416	1569.7	685.4
973.312	2461.4025	1563.6	676.75
973.4408	2462.7627	1567.05	671.25
973.5697	2464.1222	1553.1	669.1
973.6985	2465.4811	1560.5	676.95
973.8273	2466.8392	1551.2	665.2
973.956	2468.1966	1549.05	663.35
974.0847	2469.5533	1553.75	668.9
974.2134	2470.9093	1549.1	664.5
974.3421	2472.2645	1547.4	660.75
974.4707	2473.6191	1545.75	662.35
974.5993	2474.973	1537.45	650.85
974.7278	2476.3262	1535.85	648.35
974.8563	2477.6787	1536.85	654.15
974.9848	2479.0305	1526.9	642.55
975.1132	2480.3816	1532.25	647.7
975.2417	2481.7319	1528.2	644.65
975.37	2483.0816	1523.5	635.65
975.4984	2484.4306	1530.95	646.8
975.6267	2485.7789	1518.35	633.5
975.755	2487.1264	1520.2	633.6
975.8833	2488.4733	1511.15	629.3
976.0115	2489.8195	1519.8	628.8
976.1397	2491.165	1516.05	627.6
976.2678	2492.5097	1505	620.35
976.3959	2493.8538	1504.65	621.9
976.524	2495.1972	1503.9	619.45
976.6521	2496.5398	1503.45	617.7
976.7801	2497.8818	1499.45	612.05
976.9081	2499.2231	1498.05	612.9
977.036	2500.5637	1492.55	604.1
977.164	2501.9035	1491.35	605.4
977.2918	2503.2427	1488.9	599.9
977.4197	2504.5812	1493.7	607.4
977.5475	2505.919	1491.75	604.8
977.6753	2507.256	1483.35	598.5
977.8031	2508.5924	1474.6	588.4
977.9308	2509.9281	1481	590.25
978.0585	2511.2631	1479.35	595.35
978.1861	2512.5974	1478.75	595.65
978.3137	2513.9309	1474.25	590.55
978.4413	2515.2638	1495.35	581.2
978.5689	2516.596	1473.4	589.3
978.6964	2517.9275	1471.3	584.3
978.8239	2519.2583	1460.55	575.95
978.9513	2520.5884	1464.9	577.7
979.0788	2521.9178	1460.1	574.45
979.2062	2523.2465	1459.2	575.85
979.3335	2524.5745	1449.2	564.5
979.4608	2525.9018	1447.4	564.05
979.5881	2527.2284	1451.35	566.55
979.7154	2528.5543	1445.45	561.9
979.8426	2529.8796	1443.7	560.7
979.9698	2531.2041	1443.85	559.45
980.0969	2532.5279	1436	553.75
980.224	2533.851	1443.1	558.35
980.3511	2535.1735	1439.3	554.65
980.4781	2536.4952	1442.75	557.9
980.6052	2537.8163	1438.3	552.95
980.7321	2539.1366	1436.5	551
980.8591	2540.4562	1432.95	546.6
980.986	2541.7752	1434.4	549.3
981.1129	2543.0935	1435.9	549.5
981.2397	2544.411	1436.1	549.15
981.3665	2545.7279	1431.25	545.5
981.4933	2547.0441	1436.15	550.5
981.62	2548.3596	1433.7	545.4
981.7467	2549.6744	1421.9	539.1
981.8734	2550.9885	1425.5	532.85
982.0001	2552.3019	1426.45	541.05
982.1267	2553.6146	1412.9	527.5
982.2532	2554.9266	1416.5	528.35
982.3798	2556.2379	1423.05	535.65
982.5063	2557.5485	1417.7	534.3
982.6327	2558.8585	1423.65	531
982.7592	2560.1677	1411.15	522.15
982.8856	2561.4762	1412.35	527.2
983.0119	2562.7841	1413.7	526.95
983.1383	2564.0913	1407.5	525.25
983.2646	2565.3977	1404.35	519.95
983.3908	2566.7035	1404.75	519.05
983.517	2568.0086	1408.15	521.95
983.6432	2569.313	1404.05	517.95
983.7694	2570.6167	1406.25	517.15
983.8955	2571.9197	1402.75	519.7
984.0216	2573.222	1404.6	517.75
984.1476	2574.5236	1396.05	511.05
984.2737	2575.8246	1393.35	504.85
984.3996	2577.1248	1392.3	504.55
984.5256	2578.4244	1386.8	500.3
984.6515	2579.7232	1393.25	508.35
984.7774	2581.0214	1413.1	504.6
984.9032	2582.3189	1393	509.2
985.029	2583.6157	1392.25	500.7
985.1548	2584.9118	1385.15	499.1
985.2806	2586.2072	1383.25	498.9
985.4063	2587.5019	1381.9	497.9
985.5319	2588.7959	1386.15	500.65
985.6576	2590.0893	1383.9	496.05
985.7832	2591.3819	1376.6	490
985.9087	2592.6739	1376.8	492.2
986.0343	2593.9652	1370.4	485.1
986.1597	2595.2557	1371.45	486.6
986.2852	2596.5456	1364.25	477.05
986.4106	2597.8348	1357.55	473.05
986.536	2599.1234	1358.35	473.3
986.6614	2600.4112	1364.2	481.4
986.7867	2601.6983	1363.5	474
986.912	2602.9848	1359.2	474.7
987.0372	2604.2705	1363.3	471.15
987.1624	2605.5556	1355.8	469.75
987.2876	2606.84	1358.35	473.1
987.4128	2608.1237	1348.95	461.55
987.5379	2609.4067	1349.95	466.65
987.6629	2610.689	1357.15	461.8
987.788	2611.9707	1345.5	456.85
987.913	2613.2516	1343.55	455.15
988.0379	2614.5319	1344.05	461.25
988.1629	2615.8115	1337.25	452.1
988.2878	2617.0903	1331.95	445.55
988.4126	2618.3685	1332.1	447.75
988.5375	2619.6461	1333.75	451.3
988.6622	2620.9229	1331.95	446.6
988.787	2622.199	1333.7	448.8
988.9117	2623.4745	1327.6	440.6
989.0364	2624.7493	1322.45	435.45
989.161	2626.0234	1321.2	437.35
989.2857	2627.2968	1318.2	433.2
989.4102	2628.5695	1330.85	444.4
989.5348	2629.8415	1321.3	437.6
989.6593	2631.1128	1314.6	427.55
989.7837	2632.3835	1311.45	426.75
989.9082	2633.6535	1302.45	419.25
990.0326	2634.9228	1305.5	423.15
990.1569	2636.1914	1300	416.3
990.2812	2637.4593	1312	420.9
990.4055	2638.7265	1310.4	425.4
990.5298	2639.9931	1304.3	418.25
990.654	2641.259	1300.2	412.9
990.7782	2642.5242	1292.25	407.3
990.9023	2643.7887	1296.35	411.85
991.0264	2645.0525	1297.5	412.7
991.1505	2646.3156	1297.25	413.9
991.2745	2647.5781	1292.35	409.65
991.3985	2648.8398	1290.3	409.15
991.5225	2650.1009	1289.6	395.65
991.6464	2651.3613	1291.1	406.2
991.7703	2652.6211	1287.8	405
991.8942	2653.8801	1280.85	397.45
992.018	2655.1385	1290.95	404.1
992.1418	2656.3961	1282.15	398.35
992.2655	2657.6531	1280.65	395.95
992.3892	2658.9094	1279.25	395
992.5129	2660.1651	1281.4	398
992.6366	2661.42	1282.4	398
992.7602	2662.6743	1275.4	391.8
992.8837	2663.9279	1274.65	391.15
993.0073	2665.1808	1276.25	394.25
993.1307	2666.433	1267.45	381.7
993.2542	2667.6846	1269.05	386
993.3776	2668.9354	1270.55	383.75
993.501	2670.1856	1269.6	385.8
993.6244	2671.4351	1266.9	384.95
993.7477	2672.6839	1270.55	385.15
993.8709	2673.9321	1266.4	383.8
993.9942	2675.1795	1265.5	380.85
994.1174	2676.4263	1260.9	374.9
994.2405	2677.6724	1260.15	377.45
994.3637	2678.9179	1264.8	381.1
994.4868	2680.1626	1259.6	376
994.6098	2681.4067	1253.6	368.7
994.7328	2682.6501	1255.55	371.65
994.8558	2683.8928	1252.6	371.2
994.9788	2685.1348	1250.4	367.95
995.1017	2686.3761	1251.5	367.6
995.2245	2687.6168	1248.3	363.8
995.3474	2688.8568	1244.85	362.3
995.4702	2690.0961	1244.55	363.25
995.5929	2691.3348	1248.3	364.5
995.7156	2692.5727	1240.25	356.9
995.8383	2693.81	1240.2	357
995.961	2695.0466	1238.4	357.7
996.0836	2696.2826	1240.05	352.75
996.2062	2697.5178	1242.95	354.7
996.3287	2698.7524	1234.2	349.4
996.4512	2699.9863	1237.75	352.1
996.5737	2701.2195	1227.35	345.25
996.6961	2702.452	1237.65	352.8
996.8185	2703.6839	1237.65	355.3
996.9408	2704.9151	1227.5	344.8
997.0631	2706.1456	1221.7	338.45
997.1854	2707.3755	1227.1	342.25
997.3077	2708.6046	1224.85	341.55
997.4299	2709.8331	1221.1	338.5
997.552	2711.0609	1220.45	337.65
997.6742	2712.2881	1223.95	339
997.7963	2713.5145	1223.75	337.75
997.9183	2714.7403	1226.3	343.25
998.0403	2715.9654	1219.05	333.9
998.1623	2717.1899	1229.4	329.85
998.2842	2718.4136	1218.55	333.85
998.4062	2719.6367	1220.6	337.95
998.528	2720.8591	1224.25	335.8
998.6498	2722.0809	1213.65	329.1
998.7716	2723.3019	1211.5	324.85
998.8934	2724.5223	1211	326.1
999.0151	2725.7421	1212.25	327.6
999.1368	2726.9611	1207	321.8
999.2584	2728.1795	1215	326.05
999.38	2729.3972	1199.25	316.7
999.5016	2730.6142	1216.3	322.7
999.6231	2731.8306	1198.1	313.6
999.7446	2733.0462	1200	315.1
999.8661	2734.2612	1203.1	312.55
999.9875	2735.4756	1189.35	306.95
1000.1089	2736.6892	1193.5	310.65
1000.2302	2737.9022	1194.9	310.7
1000.3515	2739.1145	1187.45	304.05
1000.4728	2740.3262	1198	308.5
1000.594	2741.5372	1185.5	302.2
1000.7152	2742.7475	1182.25	298.8
1000.8363	2743.9571	1186.05	301.2
1000.9575	2745.1661	1185.35	296.4
1001.0785	2746.3744	1184.75	300.15
1001.1996	2747.582	1184.95	303.85
1001.3206	2748.7889	1180	295.15
1001.4415	2749.9952	1175.45	293.95
1001.5625	2751.2008	1176.55	292.05
1001.6833	2752.4057	1179.95	294.35
1001.8042	2753.61	1181	296.3
1001.925	2754.8136	1172.65	287.55
1002.0458	2756.0165	1173.05	290.45
1002.1665	2757.2188	1168	284.45
1002.2872	2758.4204	1171.85	288.7
1002.4078	2759.6213	1174.35	289.55
1002.5285	2760.8215	1171.25	282.65
1002.649	2762.0211	1165.55	279.5
1002.7696	2763.22	1167.5	281.7
1002.8901	2764.4182	1163.4	279.55
1003.0106	2765.6158	1164.75	282.35
1003.131	2766.8127	1163.25	280.6
1003.2514	2768.009	1157	274.05
1003.3717	2769.2045	1158.85	273.95
1003.492	2770.3994	1160.7	277.2
1003.6123	2771.5936	1160.05	276.55
1003.7325	2772.7872	1155.6	272.8
1003.8527	2773.9801	1149.5	266
1003.9729	2775.1723	1170.9	272.5
1004.093	2776.3639	1151.75	270.05
1004.2131	2777.5548	1147.75	261.9
1004.3331	2778.745	1152.75	269.65
1004.4531	2779.9346	1150.05	267.15
1004.5731	2781.1235	1147.35	262.3
1004.693	2782.3117	1141.75	260.2
1004.8129	2783.4992	1141.2	257.75
1004.9328	2784.6861	1142.3	258.8
1005.0526	2785.8723	1143.5	260.2
1005.1723	2787.0579	1144.45	261.3
1005.2921	2788.2428	1138.05	253.85
1005.4118	2789.427	1135.2	252.4
1005.5314	2790.6106	1137.8	257.15
1005.651	2791.7935	1136.45	254.55
1005.7706	2792.9757	1132.45	251.55
1005.8902	2794.1573	1135.7	250
1006.0097	2795.3382	1134.55	252.05
1006.1291	2796.5184	1126.05	245.45
1006.2485	2797.698	1137.8	254.25
1006.3679	2798.8769	1130.55	248.2
1006.4873	2800.0551	1130.2	248
1006.6066	2801.2327	1132.5	247.1
1006.7258	2802.4096	1123.75	242.15
1006.8451	2803.5859	1126.9	245.5
1006.9642	2804.7615	1123.55	240.8
1007.0834	2805.9364	1123.9	241.1
1007.2025	2807.1106	1126.25	244.95
1007.3216	2808.2842	1126.55	241.75
1007.4406	2809.4572	1122.55	239.3
1007.5596	2810.6294	1124	241.05
1007.6785	2811.801	1117.95	234.25
1007.7975	2812.972	1125	243.95
1007.9163	2814.1423	1124.8	242.4
1008.0352	2815.3119	1127.1	243.15
1008.154	2816.4808	1129.9	249.35
1008.2727	2817.6491	1122.45	239.15
1008.3914	2818.8167	1124.5	243.35
1008.5101	2819.9837	1128.6	242.9
1008.6288	2821.15	1124	241
1008.7474	2822.3157	1127.85	243.65
1008.8659	2823.4807	1134.1	251.05
1008.9844	2824.645	1141.75	258.1
1009.1029	2825.8086	1142.55	259.85
1009.2214	2826.9716	1141.3	258.6
1009.3398	2828.134	1146.1	264.7
1009.4581	2829.2957	1145.7	264.9
1009.5764	2830.4567	1150.15	268.3
1009.6947	2831.617	1147.35	263.7
1009.813	2832.7767	1152.25	272.7
1009.9312	2833.9358	1147.1	264.9
1010.0493	2835.0941	1149.55	264.95
1010.1675	2836.2519	1142.7	260.6
1010.2855	2837.4089	1151.3	269.95
1010.4036	2838.5653	1140.3	259.1
1010.5216	2839.7211	1136.5	255.55
1010.6396	2840.8761	1144.35	260.1
1010.7575	2842.0306	1139.3	256.6
1010.8754	2843.1843	1134.4	253.2
1010.9932	2844.3374	1134.45	252.3
1011.111	2845.4899	1137	254.3
1011.2288	2846.6417	1133.35	253.2
1011.3465	2847.7928	1136.45	255.1
1011.4642	2848.9433	1130.95	251.3
1011.5818	2850.0931	1137.45	254.95
1011.6995	2851.2422	1137.5	254.05
1011.817	2852.3907	1141.15	258.7
1011.9345	2853.5385	1138.45	253.85
1012.052	2854.6857	1145.6	254.3
1012.1695	2855.8323	1137.15	255.7
1012.2869	2856.9781	1138.4	256.3
1012.4042	2858.1233	1138.85	255.75
1012.5216	2859.2679	1143.95	263
1012.6389	2860.4118	1139.75	255.35
1012.7561	2861.555	1144.35	259.55
1012.8733	2862.6976	1148.15	265.25
1012.9905	2863.8395	1140.9	261.15
1013.1076	2864.9808	1139.75	257.2
1013.2247	2866.1214	1140.85	260.2
1013.3417	2867.2614	1143.45	259.2
1013.4587	2868.4007	1140.95	258.45
1013.5757	2869.5393	1145.85	263.85
1013.6926	2870.6773	1147.7	261.45
1013.8095	2871.8146	1143.9	260.25
1013.9263	2872.9513	1149.65	266
1014.0431	2874.0874	1144.25	261
1014.1599	2875.2227	1140.5	259.15
1014.2766	2876.3574	1145.85	262.15
1014.3933	2877.4915	1142.4	261
1014.51	2878.6249	1143	263.4
1014.6266	2879.7577	1146.1	263.35
1014.7431	2880.8898	1153	261.45
1014.8596	2882.0212	1147.15	266.9
1014.9761	2883.152	1144.9	261
1015.0925	2884.2821	1137.65	256.7
1015.2089	2885.4116	1142.45	260.7
1015.3253	2886.5405	1141.75	259.9
1015.4416	2887.6686	1146.05	261.75
1015.5579	2888.7962	1138.6	259.85
1015.6741	2889.923	1139.85	257.9
1015.7903	2891.0493	1143	262.05
1015.9065	2892.1748	1138.7	259
1016.0226	2893.2997	1136.9	254.3
1016.1387	2894.424	1133.65	253
1016.2547	2895.5476	1139.2	257.65
1016.3707	2896.6706	1136.4	257.15
1016.4866	2897.7929	1138.05	254.25
1016.6025	2898.9145	1138.5	256.9
1016.7184	2900.0355	1139.75	255.95
1016.8342	2901.1559	1136.3	256.25
1016.95	2902.2756	1133.05	251.6
1017.0658	2903.3946	1133.75	252.95
1017.1815	2904.513	1135.4	250.7
1017.2971	2905.6308	1124.8	243.6
1017.4127	2906.7479	1133.95	251.4
1017.5283	2907.8643	1126.75	244.55
1017.6439	2908.9801	1127.55	247.3
1017.7594	2910.0953	1120.85	239.15
1017.8748	2911.2098	1130.9	245.9
1017.9902	2912.3236	1133.25	244.3
1018.1056	2913.4368	1127.75	241.4
1018.2209	2914.5494	1130.6	250
1018.3362	2915.6613	1125.4	236.65
1018.4515	2916.7725	1123.85	239.55
1018.5667	2917.8831	1114.85	232.8
1018.6819	2918.9931	1118.3	232.95
1018.797	2920.1024	1113.25	232.1
1018.9121	2921.211	1109.65	229.75
1019.0271	2922.319	1117.3	235.9
1019.1421	2923.4264	1106.95	227.4
1019.2571	2924.5331	1111.9	228.3
1019.372	2925.6391	1110.95	230.85
1019.4869	2926.7445	1106.3	225.4
1019.6017	2927.8493	1113.2	231.4
1019.7165	2928.9534	1103.7	221.9
1019.8313	2930.0569	1112.35	226.4
1019.946	2931.1597	1110.7	229.55
1020.0606	2932.2619	1107	228.25
1020.1753	2933.3634	1110.3	229.45
1020.2899	2934.4643	1116.5	228.15
1020.4044	2935.5645	1111.2	224.75
1020.5189	2936.6641	1118.1	233.45
1020.6334	2937.763	1103.45	223.85
1020.7478	2938.8613	1109.45	226.5
1020.8622	2939.959	1109.85	222.4
1020.9765	2941.056	1105.15	224.45
1021.0908	2942.1523	1098.95	215.05
1021.2051	2943.248	1096.2	214
1021.3193	2944.3431	1087.75	208.8
1021.4334	2945.4375	1083.05	199.75
1021.5476	2946.5313	1076.9	197.5
1021.6617	2947.6244	1076.65	194.65
1021.7757	2948.7169	1071	188.85
1021.8897	2949.8087	1068.35	185.6
1022.0037	2950.8999	1064.05	182.2
1022.1176	2951.9904	1061.6	179.35
1022.2315	2953.0803	1058.2	175.7
1022.3453	2954.1696	1055.65	174.1
1022.4591	2955.2582	1051.5	171.25
1022.5728	2956.3462	1050.05	169.4
1022.6865	2957.4335	1052.75	171.2
1022.8002	2958.5202	1050.4	168
1022.9138	2959.6062	1050.85	170.8
1023.0274	2960.6916	1047.25	166.6
1023.141	2961.7764	1047.75	166.8
1023.2545	2962.8605	1043.65	160.25
1023.3679	2963.9439	1044.85	164.5
1023.4813	2965.0267	1042.65	162.65
1023.5947	2966.1089	1066.2	164.05
1023.708	2967.1905	1041.7	161.75
1023.8213	2968.2714	1043.95	164
1023.9346	2969.3516	1037.05	156.35
1024.0478	2970.4312	1048.85	160.55
1024.1609	2971.5102	1039.65	158.7
1024.274	2972.5885	1039	158.3
1024.3871	2973.6662	1042.75	156.85
1024.5002	2974.7432	1037.35	157.3
1024.6132	2975.8196	1035.85	155.75
1024.7261	2976.8954	1035.8	153.85
1024.839	2977.9705	1036.85	154.55
1024.9519	2979.045	1035.4	154.6
1025.0647	2980.1188	1031.65	149.15
1025.1775	2981.192	1036.4	157
1025.2902	2982.2645	1033.45	152.1
1025.4029	2983.3364	1035.8	155.9
1025.5156	2984.4077	1027.3	147.05
1025.6282	2985.4783	1030.35	143.2
1025.7407	2986.5483	1024.55	144.65
1025.8532	2987.6177	1023.35	143.2
1025.9657	2988.6864	1022.15	143.6
1026.0782	2989.7545	1017.7	137.4
1026.1906	2990.8219	1015.95	136.4
1026.3029	2991.8887	1018.7	137.15
1026.4152	2992.9548	1015.25	134.75
1026.5275	2994.0204	1017.05	137.15
1026.6397	2995.0852	1010.2	132.35
1026.7519	2996.1495	1012.75	131.9
1026.864	2997.2131	1009.4	129.45
1026.9761	2998.276	1008.15	126.5
1027.0882	2999.3383	1006.35	124.9
1027.2002	3000.4	1006.8	124.45
1027.3122	3001.4611	1005	126.05
1027.4241	3002.5215	1003.95	122.95
1027.536	3003.5812	998	117.5
1027.6478	3004.6404	1000.65	120.6
1027.7596	3005.6989	1000.45	117
1027.8714	3006.7567	999.1	120.6
1027.9831	3007.8139	1021.5	115.95
1028.0947	3008.8705	992.85	112.5
1028.2064	3009.9264	1001.8	117
1028.3179	3010.9818	993.05	111.3
1028.4295	3012.0364	996.2	113.7
1028.541	3013.0905	995.55	114.95
1028.6524	3014.1439	996.5	116.85
1028.7638	3015.1966	992.7	113
1028.8752	3016.2487	992.1	112.65
1028.9865	3017.3002	998	111.4
1029.0978	3018.3511	989.45	110.8
1029.209	3019.4013	987.75	106.4
1029.3202	3020.4509	992.6	113.15
1029.4314	3021.4998	991.05	111.2
1029.5425	3022.5481	988.25	108.1
1029.6535	3023.5958	991.85	110.45
1029.7645	3024.6428	991.2	110.6
1029.8755	3025.6892	988.1	108
1029.9864	3026.735	988.1	109.8
1030.0973	3027.7802	983.9	103.75
1030.2082	3028.8247	988.4	108.5
1030.319	3029.8685	986.75	106.1
1030.4297	3030.9118	983.9	102
1030.5404	3031.9544	982.9	103.35
1030.6511	3032.9963	985.95	103.5
1030.7617	3034.0376	983.05	103.55
1030.8723	3035.0783	985.5	102.2
1030.9829	3036.1184	985.05	103.7
1031.0934	3037.1578	985.75	107.85
1031.2038	3038.1966	985.5	104.2
1031.3142	3039.2348	979.55	101.45
1031.4246	3040.2723	989.55	101.25
1031.5349	3041.3092	980.45	102.05
1031.6452	3042.3455	979.8	100.45
1031.7554	3043.3811	981.6	98.75
1031.8656	3044.4161	978.1	96.25
1031.9758	3045.4505	981.15	102.15
1032.0859	3046.4842	978.8	97.95
1032.1959	3047.5173	977.8	99.35
1032.3059	3048.5498	979.75	99.25
1032.4159	3049.5816	980.3	98.5
1032.5258	3050.6128	978.75	96.5
1032.6357	3051.6434	979.05	94.65
1032.7455	3052.6734	982.75	100.5
1032.8553	3053.7027	978.9	99.35
1032.9651	3054.7314	977.45	98.2
1033.0748	3055.7594	974.35	94.5
1033.1845	3056.7868	974.75	92.9
1033.2941	3057.8136	972.45	93.5
1033.4037	3058.8398	976.05	97
1033.5132	3059.8653	975.2	93.05
1033.6227	3060.8902	974.3	94.95
1033.7321	3061.9145	972.45	90
1033.8415	3062.9381	979.65	101.15
1033.9509	3063.9612	992.2	97.8
1034.0602	3064.9835	976.2	95.75
1034.1694	3066.0053	972.7	91
1034.2787	3067.0264	972.8	92.8
1034.3878	3068.0469	976.35	96.15
1034.497	3069.0668	977.7	94.8
1034.6061	3070.086	969.85	90.8
1034.7151	3071.1046	972.4	92.4
1034.8241	3072.1226	975.3	93.1
1034.9331	3073.1399	970.2	89.65
1035.042	3074.1567	969.8	89.45
1035.1508	3075.1727	970.7	84.8
1035.2597	3076.1882	967.1	87.15
1035.3684	3077.203	966.4	86.65
1035.4772	3078.2173	967.45	85.3
1035.5859	3079.2308	968.55	85.2
1035.6945	3080.2438	968.55	84.1
1035.8031	3081.2561	967.55	87.05
1035.9117	3082.2678	963.6	83.5
1036.0202	3083.2789	964.3	84.25
1036.1286	3084.2893	962.35	84.55
1036.2371	3085.2991	964.8	84.15
1036.3454	3086.3083	966.15	82.15
1036.4538	3087.3169	963.55	83.2
1036.562	3088.3248	963.5	79.7
1036.6703	3089.3321	964.45	83.05
1036.7785	3090.3388	958.9	79.9
1036.8866	3091.3449	960.65	80
1036.9948	3092.3503	962.35	79.2
1037.1028	3093.3551	955.7	76.4
1037.2108	3094.3593	959.45	79.65
1037.3188	3095.3629	962.05	81.75
1037.4267	3096.3658	956.95	76.05
1037.5346	3097.3681	956.25	77.7
1037.6425	3098.3698	959.45	76.5
1037.7503	3099.3708	963.45	76.6
1037.858	3100.3713	957.4	75.5
1037.9657	3101.3711	956.75	73.75
1038.0734	3102.3702	1089.15	72.05
1038.181	3103.3688	958.75	76.6
1038.2886	3104.3667	951.35	73.85
1038.3961	3105.364	952.4	71.9
1038.5036	3106.3607	954.15	72.95
1038.611	3107.3568	950.55	68.3
1038.7184	3108.3522	952.75	73.75
1038.8257	3109.347	952.35	72.05
1038.933	3110.3412	957.4	72.35
1039.0403	3111.3348	952.9	73.35
1039.1475	3112.3277	948	68
1039.2547	3113.32	953.2	72.85
1039.3618	3114.3117	950.25	70.55
1039.4689	3115.3028	947.65	68.35
1039.5759	3116.2932	954.05	71.95
1039.6829	3117.2831	953.55	70.2
1039.7898	3118.2723	948.15	69.3
1039.8967	3119.2608	947.75	68.2
1040.0035	3120.2488	947.4	67.45
1040.1103	3121.2361	951.55	71.05
1040.2171	3122.2229	946	67.2
1040.3238	3123.209	948.55	65.2
1040.4305	3124.1944	946.55	68
1040.5371	3125.1793	948.65	67
1040.6437	3126.1635	942.35	62.75
1040.7502	3127.1471	942.55	65.15
1040.8567	3128.1301	944.65	65.05
1040.9631	3129.1125	945.3	66.2
1041.0695	3130.0942	946.2	65.35
1041.1759	3131.0753	954.55	65.1
1041.2822	3132.0558	946.3	62.1
1041.3884	3133.0357	943.2	61.75
1041.4946	3134.015	945.25	64.5
1041.6008	3134.9936	943.9	63.75
1041.7069	3135.9716	965.6	65.75
1041.813	3136.949	942.9	65.9
1041.919	3137.9258	948.35	63.65
1042.025	3138.902	948.15	63.7
1042.1309	3139.8775	941.85	62.45
1042.2368	3140.8524	941.5	62.65
1042.3427	3141.8267	942.6	63.85
1042.4485	3142.8004	941.85	59.5
1042.5542	3143.7735	945.95	59.6
1042.6599	3144.7459	942	59.6
1042.7656	3145.7178	943.5	62.7
1042.8712	3146.689	937.25	57.45
1042.9768	3147.6596	940.5	57.8
1043.0823	3148.6295	938.55	55.85
1043.1878	3149.5989	939.9	59.45
1043.2932	3150.5676	934.5	55.35
1043.3986	3151.5357	937.45	60.95
1043.5039	3152.5032	935.85	57.05
1043.6092	3153.4701	937.9	58.85
1043.7145	3154.4364	937.7	56.75
1043.8197	3155.402	932.45	52.75
1043.9248	3156.367	938.5	57.25
1044.03	3157.3315	973.45	56.75
1044.135	3158.2952	936.65	55.55
1044.24	3159.2584	932.45	51.1
1044.345	3160.221	933.75	53.85
1044.4499	3161.1829	933.45	54.5
1044.5548	3162.1442	932.7	54.3
1044.6596	3163.105	933.65	54.6
1044.7644	3164.065	935.45	56.7
1044.8692	3165.0245	934.2	52.25
1044.9739	3165.9834	930.5	52.85
1045.0785	3166.9416	929.8	49.85
1045.1831	3167.8993	934.15	52.2
1045.2877	3168.8563	933.05	53.55
1045.3922	3169.8127	929.35	48.35
1045.4966	3170.7684	931.4	51.75
1045.6011	3171.7236	932.25	51.25
1045.7054	3172.6782	932.6	51.8
1045.8098	3173.6321	932.5	51.15
1045.914	3174.5854	934.3	50.45
1046.0183	3175.5381	932	51.7
1046.1224	3176.4902	927.4	47.1
1046.2266	3177.4417	927	47.6
1046.3307	3178.3926	927.1	47.8
1046.4347	3179.3428	926.4	46.65
1046.5387	3180.2924	926.5	47.85
1046.6427	3181.2415	928.9	47.65
1046.7466	3182.1899	931.05	51.8
1046.8504	3183.1377	929.95	49.95
1046.9542	3184.0848	929.1	46.5
1047.058	3185.0314	929.9	50.85
1047.1617	3185.9773	927.5	46.7
1047.2654	3186.9227	927.65	46.3
1047.369	3187.8674	925.55	47.05
1047.4726	3188.8115	929.9	45.45
1047.5761	3189.755	925.75	45.9
1047.6796	3190.6979	925.2	46.75
1047.783	3191.6402	924	44.85
1047.8864	3192.5818	927.05	46.4
1047.9898	3193.5229	940.4	43.45
1048.0931	3194.4633	926.9	47.35
1048.1963	3195.4031	926.3	46.8
1048.2995	3196.3423	925.85	44.25
1048.4027	3197.2809	924	44.15
1048.5058	3198.2189	923.05	42.45
1048.6089	3199.1563	940.9	43.3
1048.7119	3200.0931	921.75	42.2
1048.8148	3201.0292	926.05	46.5
1048.9178	3201.9648	922.3	42.6
1049.0206	3202.8997	925.1	41.85
1049.1235	3203.834	922.8	44.15
1049.2262	3204.7677	920.75	41.4
1049.329	3205.7008	925.75	44
1049.4317	3206.6333	921	43.8
1049.5343	3207.5652	921.65	39.65
1049.6369	3208.4964	921.35	38.8
1049.7394	3209.4271	920.25	41.95
1049.8419	3210.3571	920.35	39.85
1049.9444	3211.2865	920.3	41.9
1050.0468	3212.2154	919.2	38.15
1050.1491	3213.1436	923.55	40.65
1050.2514	3214.0712	925.05	40.8
1050.3537	3214.9982	921.45	42.55
1050.4559	3215.9246	918.9	39
1050.5581	3216.8503	919.1	40.85
1050.6602	3217.7755	921.35	42.4
1050.7623	3218.7001	921.75	43.2
1050.8643	3219.624	917.3	37.3
1050.9663	3220.5473	920.35	41
1051.0682	3221.4701	920.9	41.35
1051.1701	3222.3922	919.2	37.45
1051.2719	3223.3137	916.6	35.95
1051.3737	3224.2346	916.9	36.85
1051.4754	3225.1549	917.8	39.9
1051.5771	3226.0746	916.2	35.9
1051.6788	3226.9937	917.75	39.2
1051.7804	3227.9121	914.75	33.9
1051.8819	3228.83	915.9	37.5
1051.9834	3229.7473	919.05	35.9
1052.0849	3230.6639	915.9	37.25
1052.1863	3231.5799	915.75	36.5
1052.2876	3232.4954	918.35	39.15
1052.3889	3233.4102	913.2	35.1
1052.4902	3234.3244	915.3	35.35
1052.5914	3235.238	916.65	37.2
1052.6926	3236.151	938.5	33.55
1052.7937	3237.0634	914.25	35.85
1052.8948	3237.9752	914.65	35.9
1052.9958	3238.8864	917.75	36.4
1053.0968	3239.797	914.6	38.4
1053.1977	3240.7069	914.35	32.95
1053.2986	3241.6163	914.4	31.95
1053.3994	3242.5251	910.75	31.8
1053.5002	3243.4332	912.05	32.6
1053.6009	3244.3408	914.25	33.9
1053.7016	3245.2477	914.5	36.35
1053.8022	3246.154	913.25	32.95
1053.9028	3247.0598	914.45	33.7
1054.0034	3247.9649	911.35	32.3
1054.1039	3248.8694	913	34.35
1054.2043	3249.7733	912.15	32.55
1054.3047	3250.6766	913.15	33.45
1054.4051	3251.5793	911.9	30.85
1054.5054	3252.4814	913.45	34.3
1054.6056	3253.3829	911.15	30.8
1054.7058	3254.2838	908.45	28.95
1054.806	3255.1841	910.3	31.25
1054.9061	3256.0838	910.7	31.5
1055.0061	3256.9829	909.85	30.45
1055.1062	3257.8814	913.3	30.8
1055.2061	3258.7792	911.75	29
1055.306	3259.6765	910.9	30.2
1055.4059	3260.5731	908.65	29.75
1055.5057	3261.4692	909.85	31.1
1055.6055	3262.3647	908.35	27.6
1055.7052	3263.2595	907.25	29.35
1055.8049	3264.1538	906.8	26.25
1055.9045	3265.0474	908.6	27.8
1056.0041	3265.9404	908.3	26.7
1056.1036	3266.8329	906.15	26.5
1056.2031	3267.7247	917.6	27.8
1056.3025	3268.616	905.9	27.95
1056.4019	3269.5066	903.95	24.5
1056.5013	3270.3966	905.6	23.65
1056.6005	3271.286	901.55	23.95
