Software Version:	3.9.2.0
Unit SN:	10000200
Spectrometer SN:	6960
Date:	3/6/2024 10:03:54 AM
Data Line Index:	25
Spectral Points:	2048
Integration time (ms):	125
Averages:	20
Delay (ms):	30
Sequence Number:	1
Processing:	dark subtract
Laser Power (mW):	305
Laser Current (mA):	827
Laser Diode Temp (C):	25
Laser Case Temp (C):	24.7
System Temp (C):	24.6
Spectrometer Temp (C):	22.1
CCD Temp (C):	0.002
Secondary Temp (C):	20.013
Heatsink Temp (C):	18.576
CCDPCB Temp (C):	31.494
SecondaryPCB Temp (C):	26.492

Wavelength	RamanShift	Raw Counts	Dark Subtracted
787.061	30.1047	601.6	194.5
787.2016	32.3739	607.25	201
787.3422	34.6426	620.4	214.8
787.4828	36.9109	631.6	222.05
787.6235	39.1787	652.5	239.85
787.7642	41.4461	668.75	250.9
787.9049	43.7131	692.9	272.4
788.0456	45.9796	712.5	289.6
788.1863	48.2456	731.4	304.45
788.3271	50.5112	750.1	318.8
788.4679	52.7764	771.25	337.65
788.6087	55.0411	794.55	354.55
788.7496	57.3054	819.65	376.1
788.8904	59.5692	844.85	400.15
789.0313	61.8326	872.85	422.9
789.1722	64.0955	903.75	454.8
789.3132	66.3579	940.65	487.25
789.4541	68.6199	992.2	533.1
789.5951	70.8815	1080.05	618.5
789.7361	73.1426	1245.4	777
789.8771	75.4032	1694.7	1224.05
790.0181	77.6634	2830.1	2356.2
790.1592	79.9231	5584.15	5104.85
790.3003	82.1824	12109.8	11621
790.4414	84.4412	26290	25785.7
790.5825	86.6995	38844.45	38324.55
790.7237	88.9574	46111.5	45572.95
790.8648	91.2148	50720.15	50170
791.006	93.4717	52467.3	51911.05
791.1472	95.7282	53241.9	52681.3
791.2885	97.9842	53639.9	53076.85
791.4297	100.2398	53718.65	53153.7
791.571	102.4949	53687.55	53120.1
791.7123	104.7495	53751.1	53180.85
791.8536	107.0036	53552.55	52980.6
791.9949	109.2573	53786.9	53213.4
792.1363	111.5105	53589.85	53017.7
792.2777	113.7632	53694.2	53116.6
792.4191	116.0154	53790.25	53203.25
792.5605	118.2672	53993.35	53410.65
792.7019	120.5185	54001.45	53421.15
792.8434	122.7693	54068.2	53479.65
792.9849	125.0197	53878.35	53288.1
793.1264	127.2696	54304.4	53707.65
793.2679	129.519	54282.35	53684.4
793.4094	131.7679	54491	53891.9
793.551	134.0163	54029.45	53427.05
793.6926	136.2642	54243.5	53634.25
793.8342	138.5117	54562.2	53953.25
793.9758	140.7587	54448.9	53839.35
794.1175	143.0052	54472.05	53856.95
794.2591	145.2512	54211.65	53597.65
794.4008	147.4967	54553.85	53936.3
794.5425	149.7417	54446	53827.15
794.6842	151.9863	54434.55	53810.9
794.826	154.2304	54259.75	53631.6
794.9677	156.4739	54385.55	53750.7
795.1095	158.717	54593.65	53960.1
795.2513	160.9596	54458.45	53823.7
795.3931	163.2017	54223.2	53585.15
795.535	165.4433	54480.45	53839.4
795.6768	167.6844	54328.35	53685.4
795.8187	169.925	54488.15	53843.25
795.9606	172.1651	54339.1	53688.1
796.1025	174.4047	54392.8	53740.1
796.2445	176.6439	54373.7	53722.05
796.3864	178.8825	54349.95	53690.9
796.5284	181.1206	54577.65	53917.8
796.6704	183.3582	54551.55	53886.85
796.8124	185.5954	54424.35	53757.65
796.9544	187.832	54484.8	53812.35
797.0965	190.0681	54355.2	53682.6
797.2386	192.3037	54621.9	53942.9
797.3806	194.5388	54943.2	54262.65
797.5228	196.7734	54289.4	53611.8
797.6649	199.0075	54939.65	54255.7
797.807	201.2411	54755.25	54070.9
797.9492	203.4742	55113	54426.6
798.0914	205.7068	55061.85	54368.9
798.2336	207.9389	55077.1	54384.85
798.3758	210.1704	55068.5	54382.35
798.518	212.4015	55295.75	54621.3
798.6603	214.632	55013.85	54347
798.8025	216.862	55373.55	54703.4
798.9448	219.0915	55184.65	54511.65
799.0871	221.3205	55145.7	54471
799.2294	223.549	55475.25	54810.4
799.3718	225.777	55433.2	54761.75
799.5141	228.0044	55630.1	54952.45
799.6565	230.2314	55534.35	54854.8
799.7989	232.4578	55546.05	54861.55
799.9413	234.6837	55647.95	54957.7
800.0837	236.909	56117.1	55423.25
800.2262	239.1339	55444.65	54726.2
800.3687	241.3582	55777.75	55074.3
800.5111	243.582	55797.55	55064.7
800.6536	245.8053	55782.65	55062.1
800.7961	248.0281	55828.7	55111.95
800.9387	250.2503	55921.4	55202.2
801.0812	252.472	55721	54996.65
801.2238	254.6932	55909.25	55192.6
801.3664	256.9139	55794.9	55070.9
801.509	259.134	56192.85	55464.55
801.6516	261.3536	55747.95	55024.85
801.7942	263.5727	56026.75	55299.95
801.9369	265.7912	55877.35	55152.85
802.0795	268.0092	55957.35	55231.2
802.2222	270.2267	55962.75	55236.45
802.3649	272.4436	55805.15	55075.7
802.5076	274.6601	55987.05	55247.4
802.6504	276.8759	56105.35	55370.7
802.7931	279.0913	55988.9	55253.15
802.9359	281.3061	56104.75	55366.05
803.0787	283.5204	56133.65	55389.65
803.2215	285.7341	56089.05	55345.35
803.3643	287.9473	56311.6	55559.55
803.5071	290.16	56138	55392.75
803.6499	292.3721	56235.5	55496.9
803.7928	294.5837	56053.4	55309.8
803.9357	296.7947	55916.7	55173.6
804.0786	299.0052	56257.65	55513.85
804.2215	301.2152	56099	55352.5
804.3644	303.4246	56222.85	55477.6
804.5074	305.6334	56250.75	55506.25
804.6503	307.8418	56032	55284.4
804.7933	310.0495	56002.3	55251.85
804.9363	312.2568	56001.55	55253.2
805.0793	314.4635	55980.25	55228.15
805.2223	316.6696	56080.7	55327.5
805.3653	318.8752	56146.35	55384.25
805.5084	321.0802	55724.9	54972.2
805.6514	323.2847	55966.9	55206.55
805.7945	325.4887	55874.6	55117.7
805.9376	327.692	55817.9	55058
806.0807	329.8949	55962	55203.5
806.2238	332.0972	55838.6	55074.55
806.367	334.2989	55930.9	55165.5
806.5101	336.5001	56043.1	55274.25
806.6533	338.7007	55687.5	54919.65
806.7965	340.9008	55935.4	55168
806.9397	343.1003	55947.35	55177.05
807.0829	345.2992	56054.35	55286
807.2261	347.4976	55891	55118.95
807.3693	349.6955	55949.55	55175.45
807.5126	351.8927	55898.55	55122.55
807.6559	354.0895	55992.7	55202.35
807.7991	356.2856	55974.55	55192.05
807.9424	358.4812	56077.55	55296.4
808.0857	360.6763	55826.55	55042.35
808.2291	362.8707	56126.05	55342.15
808.3724	365.0646	55963.25	55175.45
808.5158	367.258	55931.95	55142.7
808.6591	369.4508	55739.7	54948.3
808.8025	371.643	56009.25	55217.05
808.9459	373.8346	55846.1	55052.4
809.0893	376.0257	55854.35	55058.3
809.2327	378.2162	55770.05	54974.85
809.3762	380.4062	55639.6	54844.1
809.5196	382.5956	55779.85	54986.3
809.6631	384.7844	55787.8	55001.1
809.8066	386.9726	55832.2	55042.4
809.9501	389.1603	55778.95	54993.9
810.0936	391.3474	55659.7	54832.35
810.2371	393.5339	55773.45	54983.4
810.3806	395.7199	55489.25	54705.65
810.5241	397.9052	55573.4	54784.65
810.6677	400.09	55586.85	54795.9
810.8113	402.2743	55728.1	54940.1
810.9548	404.4579	55534.65	54742.7
811.0984	406.641	55566.05	54773.4
811.2421	408.8235	55644.9	54850.4
811.3857	411.0054	55732.15	54937.85
811.5293	413.1868	55781.9	54983.2
811.673	415.3675	55683.6	54880.85
811.8166	417.5477	55683.6	54878.4
811.9603	419.7273	55679.65	54872.65
812.104	421.9064	55570	54756.1
812.2477	424.0848	55579.15	54771.35
812.3914	426.2627	55682.35	54872.3
812.5351	428.4399	55476.05	54665.95
812.6788	430.6166	55228.4	54413.95
812.8226	432.7928	55452	54637.85
812.9663	434.9683	55274.05	54462.1
813.1101	437.1432	55240.5	54423.55
813.2539	439.3176	55390.3	54577.4
813.3977	441.4914	55034	54223.85
813.5415	443.6645	55114.75	54303.35
813.6853	445.8371	55069.25	54255.85
813.8291	448.0091	54879.25	54066.05
813.973	450.1806	54782.45	53969.15
814.1168	452.3514	54769.3	53953.4
814.2607	454.5216	54619.35	53794.15
814.4046	456.6913	54723.3	53906.75
814.5485	458.8603	54812.6	53998.65
814.6924	461.0288	54616.65	53801.15
814.8363	463.1967	54779.45	53965.15
814.9802	465.3639	54741.2	53922.1
815.1241	467.5306	54383.2	53565.75
815.2681	469.6967	54565	53745.85
815.412	471.8622	54640.35	53822.9
815.556	474.0271	54541.4	53721.05
815.7	476.1914	54525.55	53701.4
815.844	478.3551	54523.6	53703.25
815.988	480.5182	54758.4	53936.5
816.132	482.6807	54490.5	53669.35
816.276	484.8426	54492.05	53675.95
816.4201	487.0039	54784.9	53965.7
816.5641	489.1647	54807.8	53985.8
816.7082	491.3248	54547	53722.75
816.8522	493.4843	54820.6	53996.3
816.9963	495.6432	54844.85	54024.3
817.1404	497.8015	54516.15	53682.85
817.2845	499.9592	54653.55	53826.5
817.4286	502.1163	54643.1	53813.5
817.5727	504.2728	54560.4	53729.9
817.7168	506.4287	54587.7	53765.3
817.861	508.5839	54414.05	53585.2
818.0051	510.7386	54486.85	53660
818.1493	512.8927	54543.05	53711.6
818.2935	515.0461	54517.5	53684.65
818.4377	517.199	54650.65	53817.75
818.5818	519.3512	54462.95	53628.5
818.726	521.5029	54463.75	53625.25
818.8703	523.6539	54500.15	53664.1
819.0145	525.8043	54263.55	53428.6
819.1587	527.9541	54413.05	53577.35
819.303	530.1033	54364	53525.55
819.4472	532.2519	54267.35	53430.6
819.5915	534.3999	54434.55	53595.95
819.7357	536.5472	54498.4	53661.45
819.88	538.694	54205.6	53367.55
820.0243	540.8401	54405.55	53566.7
820.1686	542.9856	54367.05	53524.6
820.3129	545.1305	54460.5	53617.75
820.4572	547.2748	54325.9	53481.9
820.6016	549.4185	54308.25	53463.75
820.7459	551.5615	54432.65	53588.5
820.8902	553.704	54398.4	53552.2
821.0346	555.8458	54226.2	53383.45
821.1789	557.987	54255.25	53414.8
821.3233	560.1276	54342	53501.95
821.4677	562.2675	54239.7	53394.1
821.6121	564.4069	54247.9	53402.95
821.7565	566.5456	54348.95	53504.2
821.9009	568.6837	54130.75	53286.55
822.0453	570.8212	54176.3	53330.9
822.1897	572.958	53918	53068.95
822.3342	575.0942	54119.6	53273.8
822.4786	577.2299	53877.4	53032.9
822.6231	579.3648	53794.45	52954.5
822.7675	581.4992	53699.7	52862.45
822.912	583.6329	53664.7	52825.1
823.0565	585.766	53615.65	52778.25
823.201	587.8985	53690.3	52849.25
823.3454	590.0304	53395.65	52526.1
823.4899	592.1616	53539.25	52686.55
823.6345	594.2922	53419.3	52568.5
823.779	596.4222	53300.55	52448.4
823.9235	598.5515	53335.15	52482.8
824.068	600.6802	53366.25	52515.25
824.2126	602.8083	53159.8	52308.65
824.3571	604.9358	53137.65	52285.95
824.5017	607.0626	53228.45	52377
824.6462	609.1888	53009.9	52153
824.7908	611.3144	53141.35	52280.25
824.9354	613.4393	53005.3	52151.55
825.08	615.5636	52884.2	52026.6
825.2246	617.6873	52980.15	52122.35
825.3692	619.8103	52882.6	52025.7
825.5138	621.9327	52957.6	52099.7
825.6584	624.0544	52999.25	52144.5
825.803	626.1756	52900.4	52045.5
825.9477	628.2961	52854.75	51998.75
826.0923	630.4159	52766.95	51910.9
826.237	632.5351	52722.8	51862.9
826.3816	634.6537	52944.35	52085.3
826.5263	636.7716	52693.75	51829.95
826.6709	638.8889	52754.5	51890.6
826.8156	641.0056	52748.6	51888.55
826.9603	643.1216	52720.85	51856.7
827.105	645.237	52831.1	51966.6
827.2497	647.3518	52604.9	51744.9
827.3944	649.4659	52669.15	51811.5
827.5391	651.5793	52620.45	51761.45
827.6838	653.6922	52628.25	51769.1
827.8285	655.8043	52500.85	51638.5
827.9733	657.9159	52696.65	51833.75
828.118	660.0268	52333.4	51469.5
828.2627	662.137	52440.1	51579.75
828.4075	664.2466	52461.55	51593.85
828.5522	666.3556	52402.1	51535.35
828.697	668.4639	52392	51526
828.8418	670.5716	52372.75	51512.45
828.9865	672.6786	52432.65	51565.05
829.1313	674.785	52240.5	51373.65
829.2761	676.8907	52190.9	51324.95
829.4209	678.9958	52212.75	51349.6
829.5657	681.1002	52221.35	51356.2
829.7105	683.204	52080.95	51209.35
829.8553	685.3072	52029.3	51158.1
830.0001	687.4097	52017.55	51148.8
830.1449	689.5115	51978.1	51111.3
830.2898	691.6127	52036.2	51171.65
830.4346	693.7132	51942.9	51072.8
830.5794	695.8131	51995.65	51109.8
830.7243	697.9123	51999.85	51128.2
830.8691	700.0109	51933.55	51061.7
831.014	702.1089	51771.2	50901.75
831.1588	704.2061	51832.1	50961.6
831.3037	706.3028	51857.8	50984
831.4486	708.3987	51822.55	50949.65
831.5935	710.4941	51754.85	50885.8
831.7383	712.5887	51820.75	50951
831.8832	714.6827	51727.85	50852.5
832.0281	716.7761	51784.1	50913.6
832.173	718.8688	51778.55	50905.6
832.3179	720.9608	51618	50741.1
832.4628	723.0522	51707.45	50827.75
832.6077	725.1429	51554.7	50679.8
832.7527	727.233	51745.8	50868.7
832.8976	729.3224	51468.5	50593.65
833.0425	731.4112	51469.1	50592.15
833.1874	733.4993	51413.05	50539.8
833.3324	735.5867	51419.95	50544.55
833.4773	737.6735	51345.65	50472.15
833.6222	739.7596	51275.9	50399.55
833.7672	741.845	51247.35	50372.75
833.9122	743.9298	51241.4	50361.95
834.0571	746.014	51113.05	50233.2
834.2021	748.0974	51091.55	50208.7
834.347	750.1802	51086.8	50208.6
834.492	752.2624	50920.35	50040.85
834.637	754.3439	50875.4	49996.95
834.782	756.4247	50842.05	49951.05
834.9269	758.5048	50759.4	49881.15
835.0719	760.5843	50731.6	49849.1
835.2169	762.6631	50711.45	49831.35
835.3619	764.7413	50635.3	49756.95
835.5069	766.8188	50658.4	49775.95
835.6519	768.8956	50574.3	49691.45
835.7969	770.9718	50660	49776.65
835.9419	773.0473	50562.35	49683.7
836.0869	775.1221	50482.3	49603.6
836.232	777.1962	50427.75	49546.5
836.377	779.2697	50308.55	49427.3
836.522	781.3426	50266.8	49364.25
836.667	783.4147	50238.9	49357
836.8121	785.4862	50217.8	49336.5
836.9571	787.557	50127.55	49246.4
837.1021	789.6271	50075.75	49193.6
837.2472	791.6966	50033.65	49149
837.3922	793.7654	49898.9	49017.55
837.5373	795.8335	49902.4	49023.05
837.6823	797.901	49838.9	48955.15
837.8274	799.9678	49790.5	48907.15
837.9724	802.0339	49694.3	48808.25
838.1175	804.0993	49711.2	48817.45
838.2626	806.1641	49591.1	48707
838.4076	808.2282	49531.65	48647.35
838.5527	810.2916	49525.6	48639.95
838.6978	812.3544	49548.05	48665.55
838.8428	814.4164	49390.65	48508.1
838.9879	816.4778	49454.75	48570.8
839.133	818.5385	49359.5	48473.9
839.2781	820.5986	49344.05	48458.9
839.4232	822.658	49366.8	48478.15
839.5682	824.7166	49267.1	48382.15
839.7133	826.7747	49280.65	48395.45
839.8584	828.832	49247.55	48360.7
840.0035	830.8886	49179.2	48291.2
840.1486	832.9446	49200.55	48312.65
840.2937	834.9999	48986.4	48098.8
840.4388	837.0545	49040.45	48149.75
840.5839	839.1085	49052.45	48164.3
840.729	841.1618	48952.55	48062.8
840.8741	843.2143	48802.45	47915.85
841.0192	845.2662	48724.45	47834.4
841.1643	847.3175	48730.75	47843.95
841.3095	849.368	48622.35	47732.75
841.4546	851.4179	48641.8	47753.4
841.5997	853.467	48480.65	47592.25
841.7448	855.5155	48523.05	47634.3
841.8899	857.5633	48391.1	47504.2
842.0351	859.6105	48263.4	47375.5
842.1802	861.6569	48267.2	47378.45
842.3253	863.7027	48200.45	47311.5
842.4704	865.7478	48241.95	47352.2
842.6156	867.7922	48198.05	47309.45
842.7607	869.8359	48203.4	47310.85
842.9058	871.8789	48115.65	47224.75
843.0509	873.9212	48105.5	47186.05
843.1961	875.9629	48006.35	47116.05
843.3412	878.0039	48077.65	47187.5
843.4863	880.0441	47976.6	47084.8
843.6315	882.0837	47973.9	47083.1
843.7766	884.1226	47937.7	47043.6
843.9218	886.1609	47962.1	47071.7
844.0669	888.1984	47916.65	47025.1
844.212	890.2352	47954.45	47064.7
844.3572	892.2714	47830.9	46934.2
844.5023	894.3069	47857.75	46965.5
844.6475	896.3416	47730.3	46838.8
844.7926	898.3757	47692.15	46801.1
844.9377	900.4091	47607.3	46717.55
845.0829	902.4418	47651.15	46755.5
845.228	904.4739	47508.45	46614.5
845.3732	906.5052	47540.4	46647.7
845.5183	908.5358	47472.9	46581.45
845.6635	910.5658	47385.4	46491
845.8086	912.595	47354.25	46462.5
845.9538	914.6236	47200.8	46310.7
846.0989	916.6515	47282.4	46391.15
846.2441	918.6786	47127.85	46233.4
846.3892	920.7051	47133.5	46236.95
846.5344	922.7309	47110.5	46214.6
846.6795	924.756	47019.2	46126.45
846.8246	926.7804	47004.85	46109.6
846.9698	928.8041	46775.5	45879.95
847.1149	930.8272	46846.85	45948.75
847.2601	932.8495	46711.95	45816.35
847.4052	934.8711	46656.45	45759.9
847.5504	936.892	46535.7	45640.65
847.6955	938.9123	46482.1	45586.25
847.8407	940.9318	46419.5	45524.3
847.9858	942.9506	46354.6	45458.6
848.131	944.9688	46299.6	45404.35
848.2761	946.9862	46152.65	45256.6
848.4213	949.003	46070.55	45177.55
848.5664	951.019	45918.35	45021.8
848.7115	953.0344	45856.95	44962.55
848.8567	955.0491	45855.25	44961.3
849.0018	957.063	45846.7	44951.5
849.147	959.0763	45904.25	45010.1
849.2921	961.0888	45735.7	44837.85
849.4373	963.1007	45757.5	44863.9
849.5824	965.1119	45726.75	44837.75
849.7275	967.1223	45617.55	44726.2
849.8727	969.1321	45671.9	44781.25
850.0178	971.1412	45572.45	44678.9
850.1629	973.1495	45461.2	44567.2
850.3081	975.1572	45449.6	44515.1
850.4532	977.1641	45397.25	44499.35
850.5983	979.1704	45337.95	44441
850.7435	981.1759	45275.6	44375.1
850.8886	983.1808	45219.5	44321.4
851.0337	985.1849	45129.7	44223.7
851.1788	987.1884	45112.25	44213.85
851.324	989.1911	45111.1	44212.05
851.4691	991.1932	44956.05	44059.3
851.6142	993.1945	44905.75	44009.35
851.7593	995.1951	44809.95	43915.55
851.9045	997.1951	44758.65	43855.05
852.0496	999.1943	44622.75	43727.75
852.1947	1001.1928	44563.55	43665.15
852.3398	1003.1906	44463.65	43566.4
852.4849	1005.1877	44360.1	43461.4
852.63	1007.1841	44247.65	43347.45
852.7751	1009.1798	44158.15	43261.7
852.9202	1011.1748	44138.25	43244.7
853.0653	1013.1691	44080.2	43184.35
853.2104	1015.1627	43916.3	43019.45
853.3555	1017.1556	43765.4	42868.85
853.5006	1019.1477	43740.45	42840.25
853.6457	1021.1392	43518.7	42625.9
853.7908	1023.1299	43453.25	42559.7
853.9359	1025.12	43398.5	42506.05
854.081	1027.1093	43244.3	42356.05
854.2261	1029.0979	43235.35	42348.05
854.3712	1031.0859	43177.2	42290
854.5163	1033.0731	43049.45	42156.15
854.6613	1035.0596	42984.85	42090
854.8064	1037.0454	42855.55	41957.1
854.9515	1039.0304	42809.3	41911.2
855.0965	1041.0148	42675	41778.9
855.2416	1042.9985	42585.75	41689.55
855.3867	1044.9814	42603.1	41707.5
855.5317	1046.9636	42457.85	41557
855.6768	1048.9452	42367.75	41471.8
855.8219	1050.926	42359.25	41466.2
855.9669	1052.9061	42289.45	41391.65
856.112	1054.8855	42241.5	41342.8
856.257	1056.8642	42170.85	41275.75
856.4021	1058.8421	42092.35	41191.15
856.5471	1060.8194	42061.6	41163.45
856.6921	1062.7959	41972.25	41073.55
856.8372	1064.7717	41989.55	41090.75
856.9822	1066.7469	41958.5	41060.4
857.1272	1068.7213	41916.1	41013.9
857.2723	1070.695	41834.1	40936.35
857.4173	1072.6679	41736.6	40840.6
857.5623	1074.6402	41745.1	40849.1
857.7073	1076.6117	41645.75	40742.75
857.8523	1078.5826	41604.35	40705.35
857.9973	1080.5527	41541.3	40641.8
858.1423	1082.5221	41420.15	40522.45
858.2873	1084.4908	41404.6	40505.55
858.4323	1086.4587	41321.15	40421.4
858.5773	1088.426	41326.2	40427.35
858.7223	1090.3925	41177.85	40274.35
858.8673	1092.3584	41171	40274.15
859.0123	1094.3235	41031.25	40135.35
859.1573	1096.2879	40987.9	40090.9
859.3022	1098.2515	40955.3	40055.35
859.4472	1100.2145	40914.45	40017.9
859.5922	1102.1767	40835.9	39936.1
859.7371	1104.1382	40833.65	39935.5
859.8821	1106.099	40823.6	39922.75
860.027	1108.0591	40752.9	39853.8
860.172	1110.0185	40594.8	39693.9
860.3169	1111.9771	40683.5	39787.05
860.4619	1113.9351	40525.15	39627.25
860.6068	1115.8923	40431.9	39533.4
860.7517	1117.8488	40330.75	39431
860.8967	1119.8045	40153.9	39258.75
861.0416	1121.7596	40175.75	39277.5
861.1865	1123.7139	40060.15	39162.4
861.3314	1125.6675	40040.25	39143.1
861.4763	1127.6204	40036.75	39139.6
861.6212	1129.5726	39919.5	39019.95
861.7661	1131.524	39925.75	39028.9
861.911	1133.4748	39856.5	38955.05
862.0559	1135.4248	39715.9	38815.95
862.2008	1137.3741	39716.65	38817.15
862.3457	1139.3226	39654.9	38754.7
862.4905	1141.2705	39639.4	38740.65
862.6354	1143.2176	39507.95	38603.4
862.7803	1145.164	39363.9	38463.2
862.9251	1147.1097	39398.6	38501.9
863.07	1149.0546	39350.35	38448.85
863.2148	1150.9989	39364.65	38468
863.3597	1152.9424	39182.45	38281.5
863.5045	1154.8852	39251.15	38351.6
863.6493	1156.8272	39074.55	38177.3
863.7942	1158.7686	39230.6	38323
863.939	1160.7092	39003.5	38102.3
864.0838	1162.6491	38910.7	38009.7
864.2286	1164.5883	38950.1	38053.4
864.3734	1166.5267	38824	37925
864.5182	1168.4644	38902.9	38005.1
864.663	1170.4014	38839.05	37935.45
864.8078	1172.3377	38877.55	37979.45
864.9526	1174.2732	38892.45	37994.1
865.0974	1176.2081	38918.2	38019.6
865.2421	1178.1421	38805	37903.4
865.3869	1180.0755	38924.15	38025.25
865.5317	1182.0082	38806.85	37909.85
865.6764	1183.9401	38821.5	37923.65
865.8212	1185.8713	38660	37765.6
865.9659	1187.8017	38588.65	37694.05
866.1106	1189.7315	38536.4	37645.6
866.2554	1191.6605	38380.95	37459.85
866.4001	1193.5888	38212.05	37318.7
866.5448	1195.5163	38115.2	37220.9
866.6895	1197.4432	38031.1	37131.75
866.8342	1199.3693	37980.05	37082
866.9789	1201.2947	37857.15	36950.95
867.1236	1203.2193	37810.95	36912.3
867.2683	1205.1432	37707.15	36807
867.413	1207.0664	37645.7	36746.75
867.5576	1208.9889	37604.2	36702.45
867.7023	1210.9106	37534.85	36636.3
867.847	1212.8316	37408.9	36508.95
867.9916	1214.7519	37341	36433.7
868.1363	1216.6715	37245.6	36345.8
868.2809	1218.5903	37205.75	36307.05
868.4255	1220.5084	37165.95	36267.55
868.5701	1222.4257	37119.1	36223
868.7148	1224.3424	37029.75	36135.1
868.8594	1226.2583	36948.4	36046.3
869.004	1228.1735	36979.2	36080.05
869.1486	1230.0879	36785.75	35887.45
869.2932	1232.0016	36835.55	35935.95
869.4377	1233.9146	36703.85	35801.05
869.5823	1235.8269	36679.4	35781.05
869.7269	1237.7384	36645.65	35746.45
869.8715	1239.6492	36488.15	35591.7
870.016	1241.5592	36415.75	35518.45
870.1606	1243.4686	36389.3	35491.05
870.3051	1245.3772	36275.3	35376.9
870.4496	1247.285	36360.1	35462.8
870.5941	1249.1922	36207.35	35309.75
870.7387	1251.0986	36237.45	35340.65
870.8832	1253.0042	36056.55	35156.95
871.0277	1254.9092	36108.7	35208.3
871.1722	1256.8134	35932.3	35035.65
871.3167	1258.7169	36038.75	35140.75
871.4611	1260.6196	35931.25	35036.1
871.6056	1262.5216	35903.95	35004.15
871.7501	1264.4229	35892.95	34995.1
871.8945	1266.3234	35962.2	35064.05
872.039	1268.2232	35930.7	35031.5
872.1834	1270.1223	35830.1	34928.55
872.3278	1272.0207	35813	34914.65
872.4723	1273.9183	35766.7	34860.1
872.6167	1275.8151	35652.3	34755.9
872.7611	1277.7113	35674.8	34776.95
872.9055	1279.6067	35529.55	34634.35
873.0499	1281.5014	35500.5	34598.45
873.1943	1283.3953	35574.55	34673.9
873.3386	1285.2885	35567.75	34670.75
873.483	1287.181	35586.85	34690
873.6274	1289.0727	35630.1	34734.4
873.7717	1290.9637	35484.9	34586.2
873.9161	1292.854	35604.3	34706.15
874.0604	1294.7435	35503.45	34605.6
874.2047	1296.6323	35515.5	34618.4
874.349	1298.5204	35412.85	34512.2
874.4933	1300.4077	35395.25	34496.1
874.6376	1302.2943	35301.45	34405.1
874.7819	1304.1802	35260.4	34364.1
874.9262	1306.0653	35120.25	34223.2
875.0705	1307.9497	35003.8	34105.8
875.2147	1309.8333	34938.5	34040.35
875.359	1311.7162	34859.8	33961.3
875.5032	1313.5984	34825.85	33924.35
875.6475	1315.4798	34714.4	33814.5
875.7917	1317.3605	34671.05	33756.45
875.9359	1319.2405	34651.9	33749.25
876.0801	1321.1197	34498	33597.1
876.2243	1322.9982	34442.15	33541
876.3685	1324.876	34402.5	33504.5
876.5127	1326.753	34238.5	33342.1
876.6569	1328.6293	34322.1	33423.55
876.801	1330.5048	34240.9	33340
876.9452	1332.3796	34135.35	33237.05
877.0893	1334.2537	34130.5	33205.5
877.2335	1336.127	34104.45	33207.05
877.3776	1337.9996	33981.65	33080.8
877.5217	1339.8714	33985.25	33085.1
877.6658	1341.7426	33901.7	32961.55
877.8099	1343.6129	33886.95	32987.05
877.954	1345.4826	33827.4	32929.45
878.0981	1347.3515	33818.25	32917.5
878.2422	1349.2196	33766.25	32866.95
878.3862	1351.087	33742.45	32840.5
878.5303	1352.9537	33748.8	32849.1
878.6743	1354.8197	33748.25	32849.25
878.8184	1356.6849	33733.1	32834.05
878.9624	1358.5493	33675.75	32776.7
879.1064	1360.4131	33629.05	32730.7
879.2504	1362.276	33649.35	32751.9
879.3944	1364.1383	33504.9	32606.3
879.5384	1365.9998	33422.35	32517.6
879.6823	1367.8606	33342.6	32441.5
879.8263	1369.7206	33234.4	32335.5
879.9702	1371.5799	33144.15	32244.15
880.1142	1373.4384	33017.15	32117.8
880.2581	1375.2962	33038.35	32139.15
880.402	1377.1533	32797	31898.85
880.5459	1379.0096	32651.8	31754.65
880.6898	1380.8652	32595.25	31696.05
880.8337	1382.7201	32486.15	31586.9
880.9776	1384.5742	32350.5	31452.7
881.1215	1386.4275	32261.6	31362.2
881.2653	1388.2802	32155.5	31256.3
881.4092	1390.132	32092.25	31194.45
881.553	1391.9832	32029.75	31126.95
881.6968	1393.8336	31829.65	30930.7
881.8406	1395.6832	31847.5	30946.4
881.9844	1397.5322	31717.7	30819.75
882.1282	1399.3803	31648.2	30745.8
882.272	1401.2278	31539.6	30641.6
882.4158	1403.0745	31511	30613.4
882.5595	1404.9204	31389.6	30492.15
882.7033	1406.7656	31341.6	30443.3
882.847	1408.6101	31241.05	30342.75
882.9908	1410.4538	31198.05	30297.55
883.1345	1412.2968	31185	30285.1
883.2782	1414.139	31066	30167.75
883.4219	1415.9805	31058.25	30161.8
883.5656	1417.8213	30993.4	30090.2
883.7092	1419.6613	30931.65	30034.85
883.8529	1421.5006	30886.95	29987.55
883.9965	1423.3391	30863.75	29966.35
884.1402	1425.1769	30829.2	29931.4
884.2838	1427.0139	30897.45	29998
884.4274	1428.8502	30956.85	30056.6
884.571	1430.6858	30964.7	30066.65
884.7146	1432.5206	30933.4	30035.1
884.8582	1434.3547	30947.95	30046.5
885.0018	1436.188	30896.6	29998.35
885.1453	1438.0206	30892.8	29992.7
885.2889	1439.8524	30753.9	29853.95
885.4324	1441.6835	30728.25	29830.25
885.5759	1443.5139	30695.95	29796.2
885.7194	1445.3435	30609.8	29712.45
885.8629	1447.1724	30574.8	29676.1
886.0064	1449.0005	30530.5	29634.4
886.1499	1450.8279	30496.05	29599.55
886.2933	1452.6545	30475.8	29578.95
886.4368	1454.4804	30418.15	29521.65
886.5802	1456.3056	30421.15	29516.6
886.7237	1458.13	30363.3	29465.45
886.8671	1459.9536	30346.65	29450.2
887.0105	1461.7766	30223.5	29327.6
887.1539	1463.5987	30086.8	29188.3
887.2972	1465.4202	29991.35	29094
887.4406	1467.2409	29869.85	28972.05
887.584	1469.0608	29744.55	28847.8
887.7273	1470.88	29712.65	28811.75
887.8706	1472.6984	29672.95	28776.7
888.0139	1474.5161	29512.3	28610.85
888.1572	1476.3331	29512	28616.25
888.3005	1478.1493	29364.65	28466.85
888.4438	1479.9648	29331.8	28433.95
888.5871	1481.7795	29275.4	28379
888.7303	1483.5935	29297.95	28403.3
888.8736	1485.4067	29159.9	28263.7
889.0168	1487.2192	29137.95	28240.65
889.16	1489.031	29056.3	28156.6
889.3032	1490.842	29064.4	28167.9
889.4464	1492.6522	29037.5	28140.85
889.5896	1494.4618	28930.4	28031.3
889.7327	1496.2705	28947.35	28050.5
889.8759	1498.0785	28738	27838.45
890.019	1499.8858	28751.9	27855.1
890.1622	1501.6924	28784.05	27888.1
890.3053	1503.4981	28632.75	27737.65
890.4484	1505.3032	28614.7	27716.4
890.5914	1507.1075	28500.55	27602.85
890.7345	1508.911	28439.65	27541.65
890.8776	1510.7138	28390.5	27493.55
891.0206	1512.5159	28398.3	27499.75
891.1637	1514.3172	28171.45	27275.8
891.3067	1516.1178	28151.3	27255.5
891.4497	1517.9176	28235.1	27333.85
891.5927	1519.7166	28068.2	27174.15
891.7357	1521.515	27963.8	27059.85
891.8786	1523.3126	27835.05	26938.1
892.0216	1525.1094	27894.35	26996.25
892.1645	1526.9055	27735.55	26841.05
892.3074	1528.7008	27712.6	26817.4
892.4503	1530.4954	27470.5	26572.65
892.5932	1532.2893	27560.25	26666.55
892.7361	1534.0824	27337.15	26438.65
892.879	1535.8747	27214.05	26319.8
893.0218	1537.6663	27406	26511.6
893.1647	1539.4572	26980.55	26085.85
893.3075	1541.2473	27122.75	26228.05
893.4503	1543.0367	26994.15	26097.6
893.5931	1544.8253	26899	26001.3
893.7359	1546.6132	26925.25	26027
893.8787	1548.4003	26760.6	25856.1
894.0214	1550.1867	26752.2	25848.65
894.1642	1551.9723	26663.55	25765.6
894.3069	1553.7572	26703.2	25808.9
894.4496	1555.5414	26712.05	25819
894.5923	1557.3247	26432.8	25540.35
894.735	1559.1074	26587.05	25696.4
894.8777	1560.8893	26498.2	25605.85
895.0204	1562.6705	26464.9	25571.1
895.163	1564.4509	26340.4	25447.95
895.3056	1566.2305	26344.7	25454.7
895.4482	1568.0094	26477.2	25587.45
895.5908	1569.7876	26403.05	25512
895.7334	1571.565	26246.45	25354.4
895.876	1573.3417	26269.75	25376.95
896.0186	1575.1176	26186.9	25294.5
896.1611	1576.8928	26109.35	25218.4
896.3036	1578.6672	25952.3	25062.75
896.4461	1580.4409	25935.7	25049.95
896.5886	1582.2138	25822.4	24930.6
896.7311	1583.986	25804.8	24913.95
896.8736	1585.7575	25702.75	24812.55
897.0161	1587.5282	25714.15	24824.65
897.1585	1589.2981	25724.25	24836.75
897.3009	1591.0673	25590.15	24704
897.4433	1592.8358	25558.15	24670
897.5857	1594.6035	25624.65	24733.45
897.7281	1596.3704	25554.85	24662.8
897.8705	1598.1366	25436.2	24545.35
898.0128	1599.9021	25327.2	24438.65
898.1551	1601.6668	25385	24496.35
898.2975	1603.4308	25303.1	24413.95
898.4398	1605.194	25371.7	24474.95
898.5821	1606.9564	25181.9	24292.45
898.7243	1608.7182	25268.1	24378.8
898.8666	1610.4791	25237.65	24351.45
899.0088	1612.2394	25292.1	24406.65
899.1511	1613.9988	25237.1	24350.7
899.2933	1615.7576	25331.75	24446.55
899.4355	1617.5156	25314.5	24417.3
899.5776	1619.2728	25456	24566.5
899.7198	1621.0293	25246.35	24357.25
899.862	1622.785	25148.95	24255.05
900.0041	1624.54	25043.45	24155.2
900.1462	1626.2942	24893.15	24003.15
900.2883	1628.0477	24592.35	23701.9
900.4304	1629.8005	24463.75	23572.45
900.5725	1631.5525	24409.85	23524.35
900.7145	1633.3037	24214.3	23327.7
900.8566	1635.0542	24142.05	23253.6
900.9986	1636.804	24109.1	23221.2
901.1406	1638.553	23999.65	23068.55
901.2826	1640.3013	23929.1	23043.8
901.4245	1642.0488	23775.3	22886.8
901.5665	1643.7955	23817.05	22930.5
901.7085	1645.5416	23699.6	22812.1
901.8504	1647.2868	23658.9	22773.65
901.9923	1649.0313	23698.7	22810.95
902.1342	1650.7751	23655.85	22766.5
902.2761	1652.5181	23614.1	22727.65
902.4179	1654.2604	23565.35	22677.85
902.5598	1656.0019	23634.35	22749.55
902.7016	1657.7427	23606.4	22721.4
902.8434	1659.4828	23672.2	22782.35
902.9852	1661.222	23610.7	22721.45
903.127	1662.9606	23585.1	22697.45
903.2687	1664.6984	23446.15	22559.25
903.4105	1666.4354	23379.9	22491.45
903.5522	1668.1717	23112.35	22222.9
903.6939	1669.9072	22901.6	22013.4
903.8356	1671.642	22767.55	21877.7
903.9773	1673.3761	22633.95	21747.1
904.119	1675.1094	22473.65	21585
904.2606	1676.8419	22366.3	21478.35
904.4022	1678.5737	22200	21311.3
904.5439	1680.3048	22094.75	21206.7
904.6855	1682.0351	21959.2	21071.3
904.827	1683.7646	21854	20964.9
904.9686	1685.4934	21813.7	20926.3
905.1101	1687.2215	21651.9	20763
905.2517	1688.9488	21617.95	20731.35
905.3932	1690.6754	21472.65	20587.15
905.5347	1692.4012	21442.05	20553.9
905.6761	1694.1263	21366.9	20479.5
905.8176	1695.8506	21345.45	20458.05
905.9591	1697.5742	21224.8	20338.4
906.1005	1699.297	21154.65	20269
906.2419	1701.0191	21058.95	20173.25
906.3833	1702.7404	20989.55	20104.2
906.5246	1704.461	20865.25	19980.15
906.666	1706.1808	20791.35	19904.95
906.8073	1707.8999	20757.65	19869.9
906.9487	1709.6182	20706.5	19821.25
907.09	1711.3358	20640.1	19755.55
907.2313	1713.0527	20522.95	19639.1
907.3725	1714.7688	20469.45	19579.55
907.5138	1716.4841	20396.5	19510.65
907.655	1718.1987	20352	19461.4
907.7962	1719.9126	20312.9	19429.2
907.9374	1721.6257	20231	19345.1
908.0786	1723.338	20222.5	19335.9
908.2198	1725.0496	20085.3	19199.2
908.3609	1726.7605	20084.7	19199.5
908.502	1728.4706	20001.8	19113.95
908.6431	1730.18	19921.45	19037.65
908.7842	1731.8886	19882	18995.6
908.9253	1733.5964	19810.3	18921.7
909.0664	1735.3036	19794.3	18907.25
909.2074	1737.0099	19737.9	18852.6
909.3484	1738.7156	19683	18800.7
909.4894	1740.4204	19601.1	18712.1
909.6304	1742.1246	19589.4	18701.2
909.7714	1743.8279	19548.3	18664.7
909.9123	1745.5306	19492.55	18609.3
910.0532	1747.2325	19437.55	18554.05
910.1941	1748.9336	19388.55	18503.65
910.335	1750.634	19301.4	18414.8
910.4759	1752.3336	19274.1	18391.8
910.6168	1754.0325	19233.25	18348.95
910.7576	1755.7307	19192.4	18309.5
910.8984	1757.4281	19149.55	18263.9
911.0392	1759.1247	19158	18264
911.18	1760.8206	19101.65	18212.55
911.3208	1762.5158	19090.4	18201.5
911.4615	1764.2102	19005.55	18119.95
911.6022	1765.9039	18923.2	18041.55
911.7429	1767.5968	18891.65	18008.45
911.8836	1769.289	18844.15	17961.6
912.0243	1770.9804	18779.65	17894.5
912.1649	1772.6711	18785.7	17901.55
912.3056	1774.361	18725.75	17841.15
912.4462	1776.0502	18715	17826.65
912.5868	1777.7386	18667.55	17778.85
912.7274	1779.4263	18568.3	17683.9
912.8679	1781.1132	18573.25	17688.9
913.0084	1782.7994	18472.1	17588.1
913.149	1784.4849	18486.75	17603.55
913.2895	1786.1696	18416.6	17515.45
913.4299	1787.8535	18374.45	17491.2
913.5704	1789.5367	18337.85	17454.45
913.7108	1791.2192	18325.1	17443.7
913.8513	1792.9009	18269.2	17352.5
913.9917	1794.5818	18213.4	17325.65
914.132	1796.2621	18164.45	17281.7
914.2724	1797.9415	18126.65	17242.45
914.4128	1799.6202	18084	17199.15
914.5531	1801.2982	18041.35	17155.35
914.6934	1802.9755	18014.35	17128.85
914.8337	1804.6519	17964.6	17077.9
914.9739	1806.3277	17869.85	16985.2
915.1142	1808.0027	17837.5	16954.65
915.2544	1809.6769	17820.7	16939.1
915.3946	1811.3504	17753.4	16869.15
915.5348	1813.0231	17745.4	16860.15
915.675	1814.6951	17737.1	16853.7
915.8151	1816.3664	17708.75	16823.3
915.9553	1818.0369	17638.85	16754.7
916.0954	1819.7067	17600.25	16717.3
916.2355	1821.3757	17577.2	16692.15
916.3755	1823.044	17504.75	16618.55
916.5156	1824.7115	17454.15	16570.1
916.6556	1826.3783	17403.6	16519.1
916.7956	1828.0443	17349.25	16465.7
916.9356	1829.7096	17333.6	16447.75
917.0756	1831.3741	17329.3	16443.7
917.2155	1833.0379	17285.55	16403.8
917.3555	1834.701	17201.4	16315.4
917.4954	1836.3633	17220.55	16337.55
917.6353	1838.0248	17138.75	16255.25
917.7751	1839.6856	17137.5	16254.4
917.915	1841.3457	17112.35	16228.4
918.0548	1843.005	17070.05	16185.55
918.1946	1844.6636	17022.6	16138.7
918.3344	1846.3214	16997.9	16113.35
918.4742	1847.9785	16988.05	16105.45
918.6139	1849.6349	16902.6	16016.3
918.7537	1851.2904	16912.95	16018.1
918.8934	1852.9453	16901.5	16015.3
919.0331	1854.5994	16820.1	15933.7
919.1727	1856.2528	16799.8	15908.85
919.3124	1857.9054	16736.45	15853.75
919.452	1859.5572	16717.3	15834.35
919.5916	1861.2083	16694.6	15807.8
919.7312	1862.8587	16685.45	15801.05
919.8708	1864.5084	16646	15759.5
920.0103	1866.1572	16598.7	15713.85
920.1498	1867.8054	16522.15	15636.5
920.2893	1869.4528	16500.45	15615.05
920.4288	1871.0994	16462.35	15575.9
920.5683	1872.7453	16449.65	15564.15
920.7077	1874.3905	16383.95	15492.25
920.8471	1876.0349	16352.6	15468.4
920.9865	1877.6786	16349.7	15464.3
921.1259	1879.3215	16331.05	15446.5
921.2653	1880.9637	16274	15388.35
921.4046	1882.6051	16241.9	15357
921.5439	1884.2458	16209.4	15325
921.6832	1885.8858	16130.15	15244.45
921.8225	1887.525	16112.9	15228.45
921.9617	1889.1634	16038.4	15153.25
922.101	1890.8011	16028.35	15144.15
922.2402	1892.4381	15977.1	15094.45
922.3794	1894.0743	15981.75	15097.25
922.5185	1895.7098	15954.65	15071.75
922.6577	1897.3446	15905.85	15020.45
922.7968	1898.9786	15831.35	14942.2
922.9359	1900.6118	15825.75	14942.85
923.075	1902.2443	15747.25	14857.65
923.214	1903.8761	15714	14831.7
923.3531	1905.5071	15625	14737.2
923.4921	1907.1374	15588.5	14704.3
923.6311	1908.7669	15567.35	14681.2
923.77	1910.3957	15533.2	14648.9
923.909	1912.0237	15471.75	14588.65
924.0479	1913.651	15434.55	14549.35
924.1868	1915.2776	15409.2	14526.75
924.3257	1916.9034	15330.7	14448.5
924.4646	1918.5285	15268.35	14387.35
924.6034	1920.1528	15226.75	14341.7
924.7422	1921.7764	15192.95	14309.65
924.881	1923.3992	15127.55	14244.15
925.0198	1925.0213	15058.1	14172.75
925.1586	1926.6427	14971.7	14087.95
925.2973	1928.2633	15180.4	14050.9
925.436	1929.8832	14907.5	14018.9
925.5747	1931.5023	14851.7	13966.35
925.7134	1933.1207	14819.05	13936.05
925.852	1934.7383	14795.8	13910.25
925.9906	1936.3552	14751.85	13867.2
926.1292	1937.9714	14703	13821
926.2678	1939.5868	14657.6	13772.75
926.4064	1941.2015	14580.15	13697.2
926.5449	1942.8154	14548.2	13662.7
926.6834	1944.4286	14451.8	13566.6
926.8219	1946.041	14455.55	13548.6
926.9604	1947.6528	14353.5	13463
927.0988	1949.2637	14319.6	13437.35
927.2372	1950.8739	14271.45	13385.5
927.3756	1952.4834	14270.8	13387.9
927.514	1954.0921	14205.55	13320.2
927.6523	1955.7001	14171.55	13284.75
927.7907	1957.3074	14116.55	13233.8
927.929	1958.9139	14051.55	13169.9
928.0673	1960.5197	14032.05	13147.1
928.2055	1962.1247	13969.4	13086.9
928.3438	1963.729	13933.25	13051.35
928.482	1965.3325	13881.15	12976.55
928.6202	1966.9353	13864.95	12982.6
928.7584	1968.5374	13816.5	12932.4
928.8965	1970.1387	13775.35	12891.85
929.0346	1971.7393	13718.3	12837.3
929.1727	1973.3392	13667.15	12784.45
929.3108	1974.9383	13621.9	12741.75
929.4489	1976.5366	13572.25	12691.25
929.5869	1978.1342	13537.75	12652.65
929.7249	1979.7311	13516.05	12633.15
929.8629	1981.3273	13472.35	12590.05
930.0009	1982.9227	13432	12548.25
930.1388	1984.5173	13384.45	12502.8
930.2767	1986.1112	13329.45	12449.1
930.4146	1987.7044	13317.9	12436.35
930.5525	1989.2968	13271.35	12388.05
930.6904	1990.8885	13251.45	12367.45
930.8282	1992.4795	13205.3	12322.2
930.966	1994.0697	13175.5	12295.8
931.1038	1995.6592	13141.45	12259.5
931.2415	1997.2479	13082.65	12200.9
931.3793	1998.8359	13069.25	12187.4
931.517	2000.4232	12996	12116.4
931.6547	2002.0097	12963.4	12082.9
931.7923	2003.5955	12895.3	12012.5
931.93	2005.1805	12932.6	12050.35
932.0676	2006.7648	12865	11985.15
932.2052	2008.3484	12828.3	11946.5
932.3427	2009.9312	12824.6	11944.15
932.4803	2011.5133	12751.8	11872.95
932.6178	2013.0946	12734.15	11853
932.7553	2014.6752	12709.15	11829.8
932.8928	2016.2551	12683.45	11801.3
933.0302	2017.8342	12591.1	11709.55
933.1676	2019.4126	12583.85	11702.9
933.305	2020.9902	12529.9	11648.8
933.4424	2022.5672	12538.8	11658.05
933.5798	2024.1433	12503.5	11619.65
933.7171	2025.7188	12429.6	11551.6
933.8544	2027.2935	12418.95	11538.75
933.9917	2028.8674	12366.6	11489.6
934.129	2030.4406	12322.9	11442.45
934.2662	2032.0131	12247.85	11369.9
934.4034	2033.5849	12229.85	11345.5
934.5406	2035.1559	12197.85	11318.3
934.6778	2036.7261	12193.7	11313.4
934.8149	2038.2957	12142.85	11262.1
934.952	2039.8645	12138.55	11256.65
935.0891	2041.4325	12131.75	11248.35
935.2262	2042.9998	12100.35	11220.6
935.3632	2044.5664	12052.15	11171.45
935.5002	2046.1323	12013.9	11134.5
935.6372	2047.6974	11972.85	11092.75
935.7742	2049.2617	11940.75	11061.9
935.9111	2050.8254	11961.55	11076
936.048	2052.3883	11915.15	11032.75
936.1849	2053.9504	11856.8	10976.7
936.3218	2055.5118	11825.45	10943.45
936.4586	2057.0725	11776.25	10891.4
936.5955	2058.6325	11766.3	10885.6
936.7323	2060.1917	11718.55	10839
936.869	2061.7502	11735.8	10853.55
937.0058	2063.3079	11661.4	10783.5
937.1425	2064.8649	11639.4	10755.95
937.2792	2066.4212	11615.05	10735.55
937.4159	2067.9767	11577.55	10696.5
937.5525	2069.5315	11506.4	10626.3
937.6891	2071.0856	11469.85	10587.95
937.8257	2072.6389	11425.55	10545.35
937.9623	2074.1915	11395.2	10513.7
938.0989	2075.7433	11337.85	10458.25
938.2354	2077.2945	11317.8	10440.6
938.3719	2078.8448	11301.35	10420.95
938.5084	2080.3945	11244.45	10362.75
938.6448	2081.9434	11262.45	10381.6
938.7812	2083.4916	11219.9	10335.65
938.9176	2085.039	11155.25	10273.1
939.054	2086.5857	11126.05	10243.5
939.1903	2088.1317	11134.45	10249.55
939.3267	2089.677	11092.8	10209.6
939.463	2091.2215	11043.75	10160.4
939.5992	2092.7652	11030.2	10147.55
939.7355	2094.3083	11026.95	10144.15
939.8717	2095.8506	10998.15	10117.6
940.0079	2097.3921	10980.85	10101.6
940.1441	2098.933	10950.7	10068.65
940.2802	2100.4731	10898.3	10017.3
940.4163	2102.0124	10909.65	10009.35
940.5524	2103.5511	10883.9	10004.35
940.6885	2105.089	10853.8	9970.1
940.8245	2106.6261	10825.35	9943
940.9606	2108.1626	10809.15	9927.5
941.0965	2109.6983	10801.8	9891.95
941.2325	2111.2332	10759.4	9877.75
941.3684	2112.7675	10723.5	9839.5
941.5044	2114.301	10693.1	9807.55
941.6403	2115.8337	10686.8	9807.05
941.7761	2117.3657	10653.6	9771.3
941.912	2118.897	10628	9745.75
942.0478	2120.4276	10585.45	9698.1
942.1835	2121.9575	10535.8	9654.15
942.3193	2123.4866	10531.95	9635.65
942.455	2125.0149	10502.15	9618.35
942.5907	2126.5426	10432.05	9550.75
942.7264	2128.0695	10430.4	9546.5
942.8621	2129.5956	10396.9	9518.05
942.9977	2131.1211	10400.95	9515.45
943.1333	2132.6458	10350	9468.65
943.2689	2134.1698	10367.65	9483.95
943.4044	2135.693	10304.85	9420.8
943.54	2137.2155	10295.7	9409.95
943.6755	2138.7373	10291.3	9409.7
943.8109	2140.2584	10250	9369.2
943.9464	2141.7787	10212.4	9324.6
944.0818	2143.2983	10161.65	9281.85
944.2172	2144.8171	10123.9	9244.35
944.3526	2146.3353	10089.05	9205.2
944.4879	2147.8527	10069	9189.35
944.6232	2149.3693	10043.75	9160.35
944.7585	2150.8853	10014.6	9132.85
944.8938	2152.4005	9973.3	9091.1
945.029	2153.9149	9973.7	9091.2
945.1642	2155.4287	9930.2	9048.2
945.2994	2156.9417	9917.75	9031.85
945.4346	2158.454	9884	9002.35
945.5697	2159.9655	9861.25	8978.75
945.7048	2161.4764	9848.6	8966.35
945.8399	2162.9865	9835.2	8953.55
945.9749	2164.4958	9826.15	8942.55
946.1099	2166.0045	9755.85	8872.65
946.2449	2167.5124	9756.3	8875.5
946.3799	2169.0195	9730.5	8847.85
946.5148	2170.526	9733.55	8852.1
946.6498	2172.0317	9676.45	8793.9
946.7846	2173.5367	9639.2	8756.05
946.9195	2175.0409	9603.75	8723.45
947.0543	2176.5445	9626.7	8743.35
947.1891	2178.0473	9564.7	8684.6
947.3239	2179.5494	9532.9	8647.45
947.4587	2181.0507	9492.15	8610.95
947.5934	2182.5513	9457.95	8576.85
947.7281	2184.0512	9457.35	8574.15
947.8628	2185.5504	9429	8548.55
947.9974	2187.0488	9371.6	8491.1
948.132	2188.5465	9361.95	8481.25
948.2666	2190.0435	9327.9	8445.9
948.4012	2191.5397	9295.8	8414.2
948.5357	2193.0353	9272.75	8389.2
948.6702	2194.5301	9227.05	8344.35
948.8047	2196.0241	9184.2	8301.1
948.9392	2197.5175	9167.45	8284.35
949.0736	2199.0101	9133.65	8246.3
949.208	2200.502	9100.6	8221
949.3424	2201.9931	9074.65	8192.9
949.4767	2203.4835	9034.55	8151.95
949.611	2204.9733	9019.15	8134.9
949.7453	2206.4622	9006.9	8126.9
949.8796	2207.9505	8968.75	8084.95
950.0138	2209.438	8926.5	8047.6
950.148	2210.9248	8889.45	8004.5
950.2822	2212.4109	8855.5	7974.6
950.4164	2213.8962	8848.75	7963.7
950.5505	2215.3809	8856.3	7973.9
950.6846	2216.8648	8807.7	7922.75
950.8186	2218.3479	8816.15	7927.5
950.9527	2219.8304	8772.8	7884.95
951.0867	2221.3121	8717.45	7831.1
951.2207	2222.7931	8693.35	7813.5
951.3546	2224.2733	8661.9	7778.45
951.4886	2225.7529	8654.95	7771.05
951.6225	2227.2317	8600.25	7715.1
951.7563	2228.7098	8605.35	7724.35
951.8902	2230.1872	8568.05	7689.4
952.024	2231.6638	8539.35	7657.95
952.1578	2233.1397	8511.8	7624.75
952.2916	2234.6149	8480	7599.7
952.4253	2236.0894	8466.35	7584.45
952.559	2237.5632	8470.1	7578.3
952.6927	2239.0362	8405.2	7521.65
952.8263	2240.5085	8392.3	7509
952.9599	2241.9801	8372.9	7489
953.0935	2243.4509	8343.15	7461.3
953.2271	2244.921	8310.45	7428.45
953.3606	2246.3904	8289.35	7406.9
953.4941	2247.8591	8278.15	7396.15
953.6276	2249.3271	8243.3	7361.7
953.7611	2250.7943	8221	7338.4
953.8945	2252.2608	8176.85	7292.8
954.0279	2253.7266	8172.45	7289.4
954.1612	2255.1917	8141	7256.7
954.2946	2256.656	8114.2	7232.25
954.4279	2258.1197	8076.65	7195.2
954.5612	2259.5826	8090.05	7206.45
954.6944	2261.0447	8053.25	7170.35
954.8276	2262.5062	8019.2	7135.9
954.9608	2263.9669	8012.7	7129.05
955.094	2265.4269	8006.7	7123.8
955.2271	2266.8862	7966.7	7083.8
955.3602	2268.3448	7947.6	7066.9
955.4933	2269.8026	7937.2	7054.65
955.6264	2271.2598	7928.45	7046.55
955.7594	2272.7162	7886.6	7005.7
955.8924	2274.1719	7876.3	6992
956.0253	2275.6268	7865.7	6984.05
956.1583	2277.0811	7845.2	6961.4
956.2912	2278.5346	7824.2	6941.7
956.4241	2279.9874	7809.4	6928.15
956.5569	2281.4395	7817.4	6936.5
956.6897	2282.8908	7786.2	6899.05
956.8225	2284.3414	7746.2	6863.35
956.9553	2285.7914	7707.7	6825.95
957.088	2287.2406	7687.45	6802.65
957.2207	2288.689	7691.8	6808.5
957.3534	2290.1368	7647.1	6761.6
957.486	2291.5838	7623.05	6735.9
957.6186	2293.0302	7591.15	6705.5
957.7512	2294.4758	7545.1	6663.25
957.8838	2295.9206	7545.45	6659.9
958.0163	2297.3648	7528.05	6646.85
958.1488	2298.8082	7511.65	6630.15
958.2813	2300.251	7480.55	6595.05
958.4137	2301.693	7481.3	6596.9
958.5461	2303.1343	7439.95	6556.35
958.6785	2304.5748	7433.7	6549.75
958.8108	2306.0147	7411.1	6530.1
958.9432	2307.4538	7384.15	6499.75
959.0754	2308.8922	7364.45	6485.2
959.2077	2310.3299	7343.55	6460.8
959.3399	2311.7669	7321.15	6439.75
959.4721	2313.2031	7306.5	6423.05
959.6043	2314.6387	7284.8	6401.05
959.7365	2316.0735	7238.25	6355.25
959.8686	2317.5076	7248.7	6366.75
960.0006	2318.941	7218.35	6333.7
960.1327	2320.3737	7217.95	6334.75
960.2647	2321.8056	7203.35	6319.2
960.3967	2323.2369	7179.7	6296.05
960.5287	2324.6674	7154.75	6269.55
960.6606	2326.0972	7130.5	6247.8
960.7925	2327.5263	7106.05	6222.9
960.9244	2328.9547	7102.95	6219.35
961.0562	2330.3823	7076.25	6191.3
961.1881	2331.8092	7069.35	6181
961.3198	2333.2355	7026.15	6141.6
961.4516	2334.661	7028.85	6144.9
961.5833	2336.0858	7005.35	6120.55
961.715	2337.5098	6979.25	6097.85
961.8467	2338.9332	6984	6100.9
961.9783	2340.3558	6946.7	6061.45
962.1099	2341.7778	6912.5	6028.85
962.2415	2343.199	6902.9	6017.55
962.373	2344.6195	6873.7	5990.7
962.5045	2346.0393	6864.65	5981.75
962.636	2347.4583	6866.25	5983
962.7675	2348.8767	6827.85	5945.35
962.8989	2350.2943	6789.25	5906.65
963.0303	2351.7113	6810.2	5925.35
963.1617	2353.1275	6776.2	5893.7
963.293	2354.543	6788.3	5894.55
963.4243	2355.9578	6729.2	5846.85
963.5556	2357.3718	6699.05	5815.85
963.6868	2358.7852	6661.25	5775
963.818	2360.1978	6658.4	5773.8
963.9492	2361.6098	6644.35	5762.7
964.0803	2363.021	6611.8	5725.7
964.2114	2364.4315	6602.8	5719.55
964.3425	2365.8413	6580	5696.95
964.4736	2367.2504	6569.7	5689.25
964.6046	2368.6587	6531.6	5649.15
964.7356	2370.0664	6500.65	5618.6
964.8666	2371.4733	6485.75	5603.25
964.9975	2372.8795	6472.25	5590.65
965.1284	2374.285	6442.55	5560.15
965.2593	2375.6899	6417.55	5536.35
965.3901	2377.0939	6398.2	5515.7
965.5209	2378.4973	6392.8	5510.5
965.6517	2379.9	6375.95	5492.8
965.7825	2381.3019	6357.65	5478.55
965.9132	2382.7032	6305.7	5424.75
966.0439	2384.1037	6303.3	5422.55
966.1745	2385.5035	6278.35	5397.25
966.3051	2386.9027	6274.9	5394.65
966.4357	2388.3011	6264.9	5379.6
966.5663	2389.6987	6240	5358.1
966.6968	2391.0957	6203.45	5322.1
966.8273	2392.492	6180.75	5299.25
966.9578	2393.8876	6144.05	5261.6
967.0882	2395.2824	6144.8	5263.05
967.2186	2396.6765	6118.75	5235.8
967.349	2398.07	6098.5	5215.1
967.4793	2399.4627	6092.6	5208.2
967.6097	2400.8547	6063.1	5178.95
967.7399	2402.246	6043.3	5155.8
967.8702	2403.6366	6015.5	5132.3
968.0004	2405.0265	5987.5	5106.65
968.1306	2406.4156	5970.2	5082.9
968.2607	2407.8041	5958.5	5073.45
968.3909	2409.1918	5943.45	5058.6
968.521	2410.5789	5929.6	5045.9
968.651	2411.9652	5904.7	5019.2
968.781	2413.3508	5868.15	4985.95
968.911	2414.7358	5874.15	4989.3
969.041	2416.12	5833	4951.6
969.1709	2417.5035	5821	4937.45
969.3008	2418.8863	5793	4909.05
969.4307	2420.2684	5790.3	4907.25
969.5606	2421.6497	5745.7	4861.75
969.6904	2423.0304	5734.5	4853.4
969.8201	2424.4104	5719.85	4834.9
969.9499	2425.7896	5692.5	4809.4
970.0796	2427.1682	5686.45	4804.2
970.2093	2428.546	5667.5	4785.05
970.3389	2429.9232	5652.8	4770.75
970.4685	2431.2996	5645.3	4761.8
970.5981	2432.6753	5646.5	4765.7
970.7277	2434.0503	5602.3	4717.8
970.8572	2435.4246	5587.85	4706
970.9867	2436.7982	5578.25	4690.8
971.1161	2438.1711	5558.95	4676.45
971.2456	2439.5433	5547.8	4663
971.375	2440.9148	5527	4638.3
971.5043	2442.2856	5502.55	4619.2
971.6336	2443.6557	5513.45	4629.2
971.7629	2445.025	5483.95	4602
971.8922	2446.3937	5465.4	4581.8
972.0214	2447.7617	5437.7	4554.3
972.1506	2449.1289	5440.6	4559.5
972.2798	2450.4955	5436.2	4549.7
972.4089	2451.8613	5433.4	4551.1
972.538	2453.2265	5396.75	4513.1
972.6671	2454.5909	5378.4	4494.55
972.7961	2455.9546	5354.15	4471.6
972.9251	2457.3177	5355.75	4474.35
973.0541	2458.68	5351.1	4468.3
973.1831	2460.0416	5334.45	4452
973.312	2461.4025	5330.4	4446.4
973.4408	2462.7627	5311.65	4415.85
973.5697	2464.1222	5285.85	4404.9
973.6985	2465.4811	5264.85	4381.85
973.8273	2466.8392	5243.6	4360.95
973.956	2468.1966	5264.05	4379.85
974.0847	2469.5533	5233.2	4349.4
974.2134	2470.9093	5221.9	4338.75
974.3421	2472.2645	5213.75	4329.5
974.4707	2473.6191	5185.25	4303.8
974.5993	2474.973	5160.75	4276.5
974.7278	2476.3262	5166.15	4283.35
974.8563	2477.6787	5148.45	4266.15
974.9848	2479.0305	5117.6	4234.45
975.1132	2480.3816	5108.5	4227.25
975.2417	2481.7319	5097.55	4213.75
975.37	2483.0816	5084.5	4199.45
975.4984	2484.4306	5068.05	4184.45
975.6267	2485.7789	5051.95	4169.8
975.755	2487.1264	5039	4153.7
975.8833	2488.4733	5003.95	4123.5
976.0115	2489.8195	4984	4095.2
976.1397	2491.165	4969.3	4085.4
976.2678	2492.5097	4969.2	4086.45
976.3959	2493.8538	4942	4061.7
976.524	2495.1972	4918.8	4035.05
976.6521	2496.5398	4909.25	4024.05
976.7801	2497.8818	4899	4014.95
976.9081	2499.2231	4875.65	3992.65
977.036	2500.5637	4875.5	3990.65
977.164	2501.9035	4850.95	3966.25
977.2918	2503.2427	4831.95	3944.8
977.4197	2504.5812	4834.05	3955.1
977.5475	2505.919	4820.65	3937.45
977.6753	2507.256	4812.4	3930.8
977.8031	2508.5924	4779.2	3896.95
977.9308	2509.9281	4748.15	3859.2
978.0585	2511.2631	4745.4	3863.7
978.1861	2512.5974	4756.55	3873.5
978.3137	2513.9309	4731.15	3846.9
978.4413	2515.2638	4737.05	3821.35
978.5689	2516.596	4712.2	3831.5
978.6964	2517.9275	4673.15	3789.3
978.8239	2519.2583	4662.8	3780.45
978.9513	2520.5884	4658.2	3773.6
979.0788	2521.9178	4650.4	3767.05
979.2062	2523.2465	4620.2	3737.3
979.3335	2524.5745	4618.35	3736.1
979.4608	2525.9018	4584.85	3701.65
979.5881	2527.2284	4589.9	3710.4
979.7154	2528.5543	4575.25	3694.5
979.8426	2529.8796	4562.25	3678.55
979.9698	2531.2041	4560.7	3677
980.0969	2532.5279	4542.35	3659.75
980.224	2533.851	4518.7	3635.35
980.3511	2535.1735	4511.95	3629.05
980.4781	2536.4952	4504.85	3623.2
980.6052	2537.8163	4511.15	3627.15
980.7321	2539.1366	4493.95	3611.6
980.8591	2540.4562	4485.8	3602.7
980.986	2541.7752	4466	3584.1
981.1129	2543.0935	4469.35	3586.8
981.2397	2544.411	4454.15	3568.85
981.3665	2545.7279	4451.7	3569.55
981.4933	2547.0441	4441.8	3560.55
981.62	2548.3596	4439.85	3555.15
981.7467	2549.6744	4429.05	3547.3
981.8734	2550.9885	4414.05	3521.45
982.0001	2552.3019	4391.35	3508.95
982.1267	2553.6146	4394.3	3509.85
982.2532	2554.9266	4374.2	3490.45
982.3798	2556.2379	4366	3480.75
982.5063	2557.5485	4350	3469.6
982.6327	2558.8585	4348.4	3458.65
982.7592	2560.1677	4331.95	3446.65
982.8856	2561.4762	4319.4	3435
983.0119	2562.7841	4316.3	3430.9
983.1383	2564.0913	4309.2	3426.4
983.2646	2565.3977	4308.35	3425.9
983.3908	2566.7035	4286.7	3402.7
983.517	2568.0086	4284.15	3399.35
983.6432	2569.313	4282.1	3399.6
983.7694	2570.6167	4272.55	3384.8
983.8955	2571.9197	4256.25	3374.65
984.0216	2573.222	4274.15	3388.95
984.1476	2574.5236	4248.4	3365.45
984.2737	2575.8246	4238.25	3353.8
984.3996	2577.1248	4230.7	3344.3
984.5256	2578.4244	4213.95	3331.15
984.6515	2579.7232	4218.3	3334.35
984.7774	2581.0214	4228.5	3319.4
984.9032	2582.3189	4206.6	3323.05
985.029	2583.6157	4196.2	3310.75
985.1548	2584.9118	4182.05	3300.15
985.2806	2586.2072	4162.9	3280.05
985.4063	2587.5019	4162.5	3280.75
985.5319	2588.7959	4149.9	3268.15
985.6576	2590.0893	4153.15	3269.25
985.7832	2591.3819	4130.75	3250.25
985.9087	2592.6739	4114.05	3232.65
986.0343	2593.9652	4105.65	3220.55
986.1597	2595.2557	4094	3211.6
986.2852	2596.5456	4078.1	3193.5
986.4106	2597.8348	4065.05	3184.05
986.536	2599.1234	4053.8	3171.7
986.6614	2600.4112	4043.2	3160.75
986.7867	2601.6983	4018.35	3131.7
986.912	2602.9848	4008.95	3125.6
987.0372	2604.2705	4008.4	3119.5
987.1624	2605.5556	4011.05	3128.35
987.2876	2606.84	3977.55	3093.8
987.4128	2608.1237	3975.2	3092.05
987.5379	2609.4067	3954.25	3071
987.6629	2610.689	3951.55	3059.7
987.788	2611.9707	3940.05	3053
987.913	2613.2516	3919.4	3033.1
988.0379	2614.5319	3892.4	3010.3
988.1629	2615.8115	3891.85	3011.2
988.2878	2617.0903	3876	2993.65
988.4126	2618.3685	3864.35	2982.55
988.5375	2619.6461	3856.45	2975.65
988.6622	2620.9229	3848.9	2967.85
988.787	2622.199	3850.1	2966.15
988.9117	2623.4745	3839.6	2956.1
989.0364	2624.7493	3827.65	2945.5
989.161	2626.0234	3805.6	2925
989.2857	2627.2968	3804	2923.2
989.4102	2628.5695	3777.4	2893.1
989.5348	2629.8415	3758.85	2875.85
989.6593	2631.1128	3760	2878
989.7837	2632.3835	3730.5	2848.5
989.9082	2633.6535	3731.2	2851.5
990.0326	2634.9228	3727.25	2846.35
990.1569	2636.1914	3693.7	2811.15
990.2812	2637.4593	3692.75	2804.95
990.4055	2638.7265	3702.35	2819.3
990.5298	2639.9931	3676.45	2793.95
990.654	2641.259	3667.45	2785.3
990.7782	2642.5242	3657.55	2774.9
990.9023	2643.7887	3639.2	2757.35
991.0264	2645.0525	3634.85	2752.5
991.1505	2646.3156	3621.95	2737.95
991.2745	2647.5781	3629.55	2748.85
991.3985	2648.8398	3598.9	2714.7
991.5225	2650.1009	3624.35	2705.6
991.6464	2651.3613	3598.2	2716.35
991.7703	2652.6211	3582.85	2700.65
991.8942	2653.8801	3568.1	2685.5
992.018	2655.1385	3559.75	2672.3
992.1418	2656.3961	3558.55	2676.45
992.2655	2657.6531	3545.55	2663.9
992.3892	2658.9094	3541.75	2658.8
992.5129	2660.1651	3535.7	2655.35
992.6366	2661.42	3514.45	2631.7
992.7602	2662.6743	3524.1	2642.4
992.8837	2663.9279	3507.15	2626.7
993.0073	2665.1808	3505.4	2622.3
993.1307	2666.433	3497.05	2614.05
993.2542	2667.6846	3470.7	2588.2
993.3776	2668.9354	3477.2	2590.7
993.501	2670.1856	3472.45	2590.2
993.6244	2671.4351	3462.05	2581.1
993.7477	2672.6839	3461.7	2579.25
993.8709	2673.9321	3449.85	2569.65
993.9942	2675.1795	3437.5	2554.5
994.1174	2676.4263	3418.6	2537.2
994.2405	2677.6724	3426.6	2546.15
994.3637	2678.9179	3414.15	2532
994.4868	2680.1626	3404.8	2523
994.6098	2681.4067	3390.9	2508.95
994.7328	2682.6501	3384.65	2503.7
994.8558	2683.8928	3369.5	2487.15
994.9788	2685.1348	3361.7	2479.75
995.1017	2686.3761	3355.3	2473
995.2245	2687.6168	3332.95	2450.35
995.3474	2688.8568	3337.7	2457.05
995.4702	2690.0961	3326.25	2446.35
995.5929	2691.3348	3321.35	2440.55
995.7156	2692.5727	3313.4	2431.15
995.8383	2693.81	3295.65	2412
995.961	2695.0466	3285	2404.35
996.0836	2696.2826	3297.7	2414.05
996.2062	2697.5178	3297.35	2394.85
996.3287	2698.7524	3270.1	2385.4
996.4512	2699.9863	3270.85	2387.85
996.5737	2701.2195	3250.25	2371.6
996.6961	2702.452	3238.45	2354.45
996.8185	2703.6839	3225.9	2343.1
996.9408	2704.9151	3225.05	2343.95
997.0631	2706.1456	3220.8	2339.2
997.1854	2707.3755	3199.8	2317.25
997.3077	2708.6046	3215.75	2331.8
997.4299	2709.8331	3191.35	2309.75
997.552	2711.0609	3184.25	2301.95
997.6742	2712.2881	3183.85	2300.05
997.7963	2713.5145	3186.5	2304.35
997.9183	2714.7403	3170.45	2289.95
998.0403	2715.9654	3153.45	2270.8
998.1623	2717.1899	3154.7	2270.85
998.2842	2718.4136	3147.5	2264.2
998.4062	2719.6367	3142.8	2262.75
998.528	2720.8591	3142.2	2254.95
998.6498	2722.0809	3139.7	2259.6
998.7716	2723.3019	3119.9	2235.3
998.8934	2724.5223	3127	2244.05
999.0151	2725.7421	3117.6	2235.75
999.1368	2726.9611	3098.95	2216.9
999.2584	2728.1795	3087.8	2202.05
999.38	2729.3972	3080.05	2198.65
999.5016	2730.6142	3071.95	2181.05
999.6231	2731.8306	3065.5	2180.8
999.7446	2733.0462	3040.25	2157.85
999.8661	2734.2612	3029.55	2140.4
999.9875	2735.4756	3006.65	2122.9
1000.1089	2736.6892	2989.6	2108.7
1000.2302	2737.9022	2993.2	2112.4
1000.3515	2739.1145	2979.45	2098.55
1000.4728	2740.3262	2971.05	2083.1
1000.594	2741.5372	2967.75	2085.7
1000.7152	2742.7475	2949.2	2067.45
1000.8363	2743.9571	2947.8	2064.85
1000.9575	2745.1661	2938.5	2050.35
1001.0785	2746.3744	2933.9	2050.4
1001.1996	2747.582	2907.45	2028
1001.3206	2748.7889	2915.55	2032.9
1001.4415	2749.9952	2900.3	2020
1001.5625	2751.2008	2892.95	2011.5
1001.6833	2752.4057	2893.4	2007.65
1001.8042	2753.61	2869.3	1987.3
1001.925	2754.8136	2853.6	1971.5
1002.0458	2756.0165	2856.55	1975.2
1002.1665	2757.2188	2835.45	1955.8
1002.2872	2758.4204	2841.2	1955.35
1002.4078	2759.6213	2829	1943.85
1002.5285	2760.8215	2823.95	1938.4
1002.649	2762.0211	2818	1936.2
1002.7696	2763.22	2821.65	1938.5
1002.8901	2764.4182	2803.3	1919.75
1003.0106	2765.6158	2787.3	1906.55
1003.131	2766.8127	2787.15	1906.7
1003.2514	2768.009	2786.05	1905
1003.3717	2769.2045	2783.9	1902.35
1003.492	2770.3994	2777.1	1893
1003.6123	2771.5936	2759.65	1878.85
1003.7325	2772.7872	2747.4	1867.2
1003.8527	2773.9801	2741	1856.25
1003.9729	2775.1723	2744.25	1849.4
1004.093	2776.3639	2731	1850.8
1004.2131	2777.5548	2727.75	1843.25
1004.3331	2778.745	2715.95	1834.15
1004.4531	2779.9346	2698.55	1816.55
1004.5731	2781.1235	2701	1819.75
1004.693	2782.3117	2705.15	1824.15
1004.8129	2783.4992	2694.8	1815.9
1004.9328	2784.6861	2695.6	1814.45
1005.0526	2785.8723	2677.25	1795.4
1005.1723	2787.0579	2678.75	1799.2
1005.2921	2788.2428	2659.3	1778.75
1005.4118	2789.427	2660.75	1779.75
1005.5314	2790.6106	2654.45	1773.75
1005.651	2791.7935	2646.7	1764.35
1005.7706	2792.9757	2623.45	1743.9
1005.8902	2794.1573	2622.65	1739.6
1006.0097	2795.3382	2627.85	1749.75
1006.1291	2796.5184	2620.55	1740.5
1006.2485	2797.698	2633	1749.25
1006.3679	2798.8769	2631.4	1750.5
1006.4873	2800.0551	2619.85	1738.65
1006.6066	2801.2327	2605.4	1723.4
1006.7258	2802.4096	2608.65	1729.1
1006.8451	2803.5859	2608.6	1724.9
1006.9642	2804.7615	2595.7	1713.95
1007.0834	2805.9364	2599.3	1719.05
1007.2025	2807.1106	2593.15	1712.6
1007.3216	2808.2842	2592.05	1707.4
1007.4406	2809.4572	2596.35	1716.1
1007.5596	2810.6294	2602.4	1719.55
1007.6785	2811.801	2596.85	1718.1
1007.7975	2812.972	2605	1725.15
1007.9163	2814.1423	2609.8	1728.5
1008.0352	2815.3119	2611	1727.15
1008.154	2816.4808	2620.5	1742.65
1008.2727	2817.6491	2620.65	1739.55
1008.3914	2818.8167	2626.9	1746.55
1008.5101	2819.9837	2646.25	1758.9
1008.6288	2821.15	2641.4	1759.55
1008.7474	2822.3157	2663.4	1783.05
1008.8659	2823.4807	2668.15	1788.35
1008.9844	2824.645	2685.45	1802.5
1009.1029	2825.8086	2680.95	1801.1
1009.2214	2826.9716	2702.8	1821.95
1009.3398	2828.134	2713.75	1833.25
1009.4581	2829.2957	2722.75	1844.05
1009.5764	2830.4567	2726.4	1844.95
1009.6947	2831.617	2733.3	1852.55
1009.813	2832.7767	2722.75	1842.75
1009.9312	2833.9358	2734.35	1853.45
1010.0493	2835.0941	2711.05	1828.3
1010.1675	2836.2519	2708.05	1827.15
1010.2855	2837.4089	2691.05	1809.75
1010.4036	2838.5653	2700	1819.75
1010.5216	2839.7211	2674.65	1793.9
1010.6396	2840.8761	2680.65	1800.55
1010.7575	2842.0306	2685.5	1807.5
1010.8754	2843.1843	2673.35	1791.8
1010.9932	2844.3374	2679.3	1799.95
1011.111	2845.4899	2683.55	1801.9
1011.2288	2846.6417	2704.2	1823.6
1011.3465	2847.7928	2697.15	1816.8
1011.4642	2848.9433	2712.45	1832.65
1011.5818	2850.0931	2733.45	1853.2
1011.6995	2851.2422	2740.4	1858.85
1011.817	2852.3907	2774.75	1893
1011.9345	2853.5385	2779.9	1897.8
1012.052	2854.6857	2777.8	1888.55
1012.1695	2855.8323	2777.4	1897.6
1012.2869	2856.9781	2788.3	1907.85
1012.4042	2858.1233	2779.3	1900.5
1012.5216	2859.2679	2794.1	1914.5
1012.6389	2860.4118	2807.4	1925.9
1012.7561	2861.555	2829.7	1945.9
1012.8733	2862.6976	2822.9	1942.55
1012.9905	2863.8395	2822.25	1943.15
1013.1076	2864.9808	2828.55	1948.4
1013.2247	2866.1214	2832.4	1951.55
1013.3417	2867.2614	2834.55	1954.6
1013.4587	2868.4007	2819.45	1937.55
1013.5757	2869.5393	2825.05	1943.4
1013.6926	2870.6773	2826.5	1944.4
1013.8095	2871.8146	2828.4	1944.7
1013.9263	2872.9513	2820.65	1938.2
1014.0431	2874.0874	2821.55	1940.7
1014.1599	2875.2227	2802.2	1920.1
1014.2766	2876.3574	2795.8	1915.05
1014.3933	2877.4915	2767.95	1889.25
1014.51	2878.6249	2754.95	1876.25
1014.6266	2879.7577	2760.5	1878.9
1014.7431	2880.8898	2750.35	1862.1
1014.8596	2882.0212	2730.85	1851.4
1014.9761	2883.152	2727.8	1845.45
1015.0925	2884.2821	2704.45	1823.8
1015.2089	2885.4116	2709.15	1829.15
1015.3253	2886.5405	2702.45	1820.05
1015.4416	2887.6686	2686	1800.9
1015.5579	2888.7962	2698	1818.85
1015.6741	2889.923	2695.55	1815.05
1015.7903	2891.0493	2688.45	1809.9
1015.9065	2892.1748	2696.4	1816.9
1016.0226	2893.2997	2674.8	1794
1016.1387	2894.424	2678.25	1798.25
1016.2547	2895.5476	2675.25	1793.65
1016.3707	2896.6706	2676.05	1795.55
1016.4866	2897.7929	2674.95	1794.75
1016.6025	2898.9145	2675.05	1793.75
1016.7184	2900.0355	2676.35	1795.4
1016.8342	2901.1559	2689.85	1808.85
1016.95	2902.2756	2692.35	1812.95
1017.0658	2903.3946	2686.9	1806.45
1017.1815	2904.513	2687.9	1805.2
1017.2971	2905.6308	2694.55	1816.75
1017.4127	2906.7479	2684.75	1804.8
1017.5283	2907.8643	2698.9	1814.75
1017.6439	2908.9801	2687.4	1806.4
1017.7594	2910.0953	2683.15	1801.4
1017.8748	2911.2098	2672	1788.4
1017.9902	2912.3236	2678.2	1788.85
1018.1056	2913.4368	2666.5	1784.3
1018.2209	2914.5494	2659.7	1780.1
1018.3362	2915.6613	2656.2	1771.25
1018.4515	2916.7725	2628.55	1747
1018.5667	2917.8831	2619.9	1739.7
1018.6819	2918.9931	2613.4	1732.35
1018.797	2920.1024	2604.55	1722.45
1018.9121	2921.211	2595.8	1718.7
1019.0271	2922.319	2581.2	1699.05
1019.1421	2923.4264	2559.95	1680.85
1019.2571	2924.5331	2563.7	1682.75
1019.372	2925.6391	2556.5	1677.55
1019.4869	2926.7445	2542.25	1662.95
1019.6017	2927.8493	2552.05	1672.95
1019.7165	2928.9534	2559.6	1681.25
1019.8313	2930.0569	2555.4	1673.9
1019.946	2931.1597	2540.3	1658.9
1020.0606	2932.2619	2537.35	1658.8
1020.1753	2933.3634	2532.35	1653
1020.2899	2934.4643	2550.8	1666.2
1020.4044	2935.5645	2535.9	1649.15
1020.5189	2936.6641	2531.05	1646.95
1020.6334	2937.763	2501.25	1621.5
1020.7478	2938.8613	2498.85	1616.85
1020.8622	2939.959	2479.3	1594.95
1020.9765	2941.056	2446.55	1567.3
1021.0908	2942.1523	2435.45	1555.8
1021.2051	2943.248	2408.9	1527.25
1021.3193	2944.3431	2384.75	1505.05
1021.4334	2945.4375	2349.6	1468.5
1021.5476	2946.5313	2315.55	1437.65
1021.6617	2947.6244	2295.35	1415.55
1021.7757	2948.7169	2253.85	1373.05
1021.8897	2949.8087	2229.35	1349.65
1022.0037	2950.8999	2194.65	1315.45
1022.1176	2951.9904	2180.75	1299.9
1022.2315	2953.0803	2158.1	1278.25
1022.3453	2954.1696	2135	1254.4
1022.4591	2955.2582	2115.95	1236.35
1022.5728	2956.3462	2094	1214.5
1022.6865	2957.4335	2090.85	1211.5
1022.8002	2958.5202	2075.15	1193.9
1022.9138	2959.6062	2056.1	1177.2
1023.0274	2960.6916	2050.3	1168.8
1023.141	2961.7764	2043.4	1162.5
1023.2545	2962.8605	2043	1161.5
1023.3679	2963.9439	2033	1153.35
1023.4813	2965.0267	2012	1131.45
1023.5947	2966.1089	2049.95	1147.05
1023.708	2967.1905	2009.6	1132
1023.8213	2968.2714	2004.65	1125.55
1023.9346	2969.3516	2001.1	1121.45
1024.0478	2970.4312	1994.5	1107.35
1024.1609	2971.5102	1987.25	1108.25
1024.274	2972.5885	1996.8	1117.95
1024.3871	2973.6662	1991.95	1106.85
1024.5002	2974.7432	1991.9	1113.35
1024.6132	2975.8196	1984.1	1104.5
1024.7261	2976.8954	1980.45	1100.7
1024.839	2977.9705	1969.25	1090.3
1024.9519	2979.045	1949.25	1070.25
1025.0647	2980.1188	1951.7	1070.65
1025.1775	2981.192	1940.9	1061.6
1025.2902	2982.2645	1938.8	1058.6
1025.4029	2983.3364	1935.55	1056.5
1025.5156	2984.4077	1918.25	1038.3
1025.6282	2985.4783	1913.45	1027.85
1025.7407	2986.5483	1888.9	1009.05
1025.8532	2987.6177	1880.55	1001.4
1025.9657	2988.6864	1867.55	986.9
1026.0782	2989.7545	1860.2	980.15
1026.1906	2990.8219	1843.6	964.85
1026.3029	2991.8887	1848.35	966.45
1026.4152	2992.9548	1827.9	949.95
1026.5275	2994.0204	1808.3	930.4
1026.6397	2995.0852	1802.05	923.85
1026.7519	2996.1495	1791.15	907.7
1026.864	2997.2131	1784	904.25
1026.9761	2998.276	1774.1	893.8
1027.0882	2999.3383	1767	886.5
1027.2002	3000.4	1749.75	870.1
1027.3122	3001.4611	1749.45	868.85
1027.4241	3002.5215	1739.4	862.45
1027.536	3003.5812	1726.5	847.25
1027.6478	3004.6404	1720.7	840.9
1027.7596	3005.6989	1721	840.75
1027.8714	3006.7567	1711.4	833
1027.9831	3007.8139	1733.1	823.35
1028.0947	3008.8705	1699.75	821.7
1028.2064	3009.9264	1708.2	826.25
1028.3179	3010.9818	1692.55	814.45
1028.4295	3012.0364	1685.55	804.65
1028.541	3013.0905	1684.95	805.8
1028.6524	3014.1439	1674.5	797
1028.7638	3015.1966	1676.95	796.85
1028.8752	3016.2487	1666.6	786.5
1028.9865	3017.3002	1670.45	788.65
1029.0978	3018.3511	1660.45	782.05
1029.209	3019.4013	1663.35	784.45
1029.3202	3020.4509	1659.05	778.35
1029.4314	3021.4998	1658.6	780.15
1029.5425	3022.5481	1650.25	768.15
1029.6535	3023.5958	1653.2	773.95
1029.7645	3024.6428	1644.9	764.35
1029.8755	3025.6892	1643.95	766.75
1029.9864	3026.735	1636.95	756.95
1030.0973	3027.7802	1637.45	757.95
1030.2082	3028.8247	1628	748.1
1030.319	3029.8685	1633.2	753.3
1030.4297	3030.9118	1626.55	745.75
1030.5404	3031.9544	1620.85	743
1030.6511	3032.9963	1611.5	732.3
1030.7617	3034.0376	1618.45	739.45
1030.8723	3035.0783	1620.4	737.3
1030.9829	3036.1184	1620.25	736.85
1031.0934	3037.1578	1608.9	731.3
1031.2038	3038.1966	1610.15	729
1031.3142	3039.2348	1607.3	729.65
1031.4246	3040.2723	1610.3	723.35
1031.5349	3041.3092	1598.4	721.1
1031.6452	3042.3455	1595.25	716.1
1031.7554	3043.3811	1601.75	723.2
1031.8656	3044.4161	1591.65	711.6
1031.9758	3045.4505	1583.7	704.85
1032.0859	3046.4842	1583.85	703.9
1032.1959	3047.5173	1589.2	708.95
1032.3059	3048.5498	1578.1	697.9
1032.4159	3049.5816	1581.15	700.45
1032.5258	3050.6128	1572.3	692.5
1032.6357	3051.6434	1573.55	691
1032.7455	3052.6734	1568	685.8
1032.8553	3053.7027	1569.15	691.65
1032.9651	3054.7314	1558.9	680.35
1033.0748	3055.7594	1560.2	681.7
1033.1845	3056.7868	1560.9	678.85
1033.2941	3057.8136	1542.95	664.1
1033.4037	3058.8398	1544.3	664.15
1033.5132	3059.8653	1550.25	669.8
1033.6227	3060.8902	1536.5	657.05
1033.7321	3061.9145	1533.6	652.9
1033.8415	3062.9381	1531.65	651.1
1033.9509	3063.9612	1556.95	662.65
1034.0602	3064.9835	1534.05	655.75
1034.1694	3066.0053	1521.3	640.95
1034.2787	3067.0264	1517.45	639.65
1034.3878	3068.0469	1514.75	636.15
1034.497	3069.0668	1516.9	635.35
1034.6061	3070.086	1514.5	636.1
1034.7151	3071.1046	1517.05	637.8
1034.8241	3072.1226	1503.85	622.95
1034.9331	3073.1399	1499.4	620.45
1035.042	3074.1567	1499.45	620.4
1035.1508	3075.1727	1494.4	613.25
1035.2597	3076.1882	1485.25	605.7
1035.3684	3077.203	1485.2	605.95
1035.4772	3078.2173	1483.45	600.65
1035.5859	3079.2308	1484.05	603.9
1035.6945	3080.2438	1476.65	595.3
1035.8031	3081.2561	1467.65	589.65
1035.9117	3082.2678	1457.9	579.3
1036.0202	3083.2789	1461.75	582.25
1036.1286	3084.2893	1458.1	579.75
1036.2371	3085.2991	1454.05	574.35
1036.3454	3086.3083	1458.25	575
1036.4538	3087.3169	1453.05	573.15
1036.562	3088.3248	1448.7	568.9
1036.6703	3089.3321	1437.1	556.3
1036.7785	3090.3388	1435.55	556.15
1036.8866	3091.3449	1428	548.45
1036.9948	3092.3503	1433.85	551.5
1037.1028	3093.3551	1420.15	541.85
1037.2108	3094.3593	1421.45	544.05
1037.3188	3095.3629	1417	540
1037.4267	3096.3658	1420.5	541.3
1037.5346	3097.3681	1420.5	542.6
1037.6425	3098.3698	1419.7	540.5
1037.7503	3099.3708	1417.15	528.7
1037.858	3100.3713	1409.35	530.75
1037.9657	3101.3711	1403.9	525.2
1038.0734	3102.3702	1534	521.35
1038.181	3103.3688	1402.85	521.35
1038.2886	3104.3667	1395.05	515.4
1038.3961	3105.364	1396.15	517.9
1038.5036	3106.3607	1384.95	502.45
1038.611	3107.3568	1379.45	500.75
1038.7184	3108.3522	1381.15	503.2
1038.8257	3109.347	1378.4	498.3
1038.933	3110.3412	1374.15	492.1
1039.0403	3111.3348	1374.25	496.1
1039.1475	3112.3277	1366.95	486.05
1039.2547	3113.32	1367.75	489.3
1039.3618	3114.3117	1362.6	481.05
1039.4689	3115.3028	1358.55	478.95
1039.5759	3116.2932	1357.3	475.95
1039.6829	3117.2831	1355.75	471.85
1039.7898	3118.2723	1350.25	471.3
1039.8967	3119.2608	1344.7	467.1
1040.0035	3120.2488	1347.55	468.7
1040.1103	3121.2361	1344.75	466.55
1040.2171	3122.2229	1334.9	456.15
1040.3238	3123.209	1336	453
1040.4305	3124.1944	1331.45	452.85
1040.5371	3125.1793	1333.45	451.25
1040.6437	3126.1635	1332	453.6
1040.7502	3127.1471	1327.05	447.65
1040.8567	3128.1301	1329.1	449.4
1040.9631	3129.1125	1319.3	439.9
1041.0695	3130.0942	1319.3	439.1
1041.1759	3131.0753	1330.65	442.55
1041.2822	3132.0558	1318.4	437.95
1041.3884	3133.0357	1315.15	435.4
1041.4946	3134.015	1312.75	431.45
1041.6008	3134.9936	1311.9	430.95
1041.7069	3135.9716	1329.05	428.65
1041.813	3136.949	1307.55	427.85
1041.919	3137.9258	1312.8	428.65
1042.025	3138.902	1310.3	425.95
1042.1309	3139.8775	1299.6	420.8
1042.2368	3140.8524	1297.95	418
1042.3427	3141.8267	1306.6	427.3
1042.4485	3142.8004	1293.05	414.25
1042.5542	3143.7735	1300.75	416.25
1042.6599	3144.7459	1292.95	412.9
1042.7656	3145.7178	1288.75	407.95
1042.8712	3146.689	1286.7	408.2
1042.9768	3147.6596	1282.15	402.4
1043.0823	3148.6295	1287.75	408.4
1043.1878	3149.5989	1278.5	398.7
1043.2932	3150.5676	1276.7	398.8
1043.3986	3151.5357	1280.6	404.25
1043.5039	3152.5032	1269.55	390.9
1043.6092	3153.4701	1274.4	394.7
1043.7145	3154.4364	1279.8	398.7
1043.8197	3155.402	1272.55	394.3
1043.9248	3156.367	1259.8	380.9
1044.03	3157.3315	1298.95	383.05
1044.135	3158.2952	1262.1	383.3
1044.24	3159.2584	1260.05	379.9
1044.345	3160.221	1258.7	378.25
1044.4499	3161.1829	1259.75	380.75
1044.5548	3162.1442	1247.7	370.55
1044.6596	3163.105	1251.55	372.55
1044.7644	3164.065	1246.9	368.2
1044.8692	3165.0245	1247.7	368.55
1044.9739	3165.9834	1244.2	366.55
1045.0785	3166.9416	1238.8	361.25
1045.1831	3167.8993	1244.55	365.95
1045.2877	3168.8563	1238.45	358.3
1045.3922	3169.8127	1240.25	363.25
1045.4966	3170.7684	1233.8	354.5
1045.6011	3171.7236	1234.3	353.4
1045.7054	3172.6782	1235.4	356
1045.8098	3173.6321	1225.65	346.4
1045.914	3174.5854	1231.95	349.55
1046.0183	3175.5381	1222.6	343.5
1046.1224	3176.4902	1219.15	342.05
1046.2266	3177.4417	1221.35	343.7
1046.3307	3178.3926	1223.6	345.4
1046.4347	3179.3428	1214.05	335.85
1046.5387	3180.2924	1215	337
1046.6427	3181.2415	1215.65	334.75
1046.7466	3182.1899	1211.95	330.95
1046.8504	3183.1377	1207.8	328.85
1046.9542	3184.0848	1212.75	331.15
1047.058	3185.0314	1204.65	325.15
1047.1617	3185.9773	1200.05	319.9
1047.2654	3186.9227	1198.5	319.8
1047.369	3187.8674	1201.75	322.65
1047.4726	3188.8115	1204.85	323.2
1047.5761	3189.755	1196.2	316.85
1047.6796	3190.6979	1200.5	321.25
1047.783	3191.6402	1198.55	320.9
1047.8864	3192.5818	1196.25	318.1
1047.9898	3193.5229	1207.3	313
1048.0931	3194.4633	1196.6	315.9
1048.1963	3195.4031	1188.85	312.4
1048.2995	3196.3423	1185.2	306.35
1048.4027	3197.2809	1185.75	306
1048.5058	3198.2189	1186.6	306.55
1048.6089	3199.1563	1198.5	302.6
1048.7119	3200.0931	1180.9	302.8
1048.8148	3201.0292	1182.25	304.5
1048.9178	3201.9648	1178.85	299.35
1049.0206	3202.8997	1177.5	296.4
1049.1235	3203.834	1174.95	297.2
1049.2262	3204.7677	1173.95	294.25
1049.329	3205.7008	1173.6	290.95
1049.4317	3206.6333	1167.7	288.65
1049.5343	3207.5652	1175.5	293.75
1049.6369	3208.4964	1169.65	290.9
1049.7394	3209.4271	1168.85	290.95
1049.8419	3210.3571	1160.5	282.35
1049.9444	3211.2865	1162.55	282.3
1050.0468	3212.2154	1159.1	280.4
1050.1491	3213.1436	1161.55	279.4
1050.2514	3214.0712	1167.15	281.4
1050.3537	3214.9982	1157.55	280.05
1050.4559	3215.9246	1155.85	276.6
1050.5581	3216.8503	1151.55	272.35
1050.6602	3217.7755	1155.05	275.05
1050.7623	3218.7001	1155.2	275.45
1050.8643	3219.624	1152.1	273.4
1050.9663	3220.5473	1145.5	266
1051.0682	3221.4701	1143.4	266.1
1051.1701	3222.3922	1147.9	267.8
1051.2719	3223.3137	1141.95	263.8
1051.3737	3224.2346	1141.7	262.95
1051.4754	3225.1549	1142.25	264.15
1051.5771	3226.0746	1140.35	261.5
1051.6788	3226.9937	1134.4	255
1051.7804	3227.9121	1138.05	260.6
1051.8819	3228.83	1138.05	258.15
1051.9834	3229.7473	1133.6	255.75
1052.0849	3230.6639	1134.3	255.45
1052.1863	3231.5799	1130.1	252.95
1052.2876	3232.4954	1132.85	254.85
1052.3889	3233.4102	1125.45	246.85
1052.4902	3234.3244	1133.4	254.65
1052.5914	3235.238	1124.2	246.45
1052.6926	3236.151	1145.5	244.25
1052.7937	3237.0634	1121.4	243.75
1052.8948	3237.9752	1120.3	240.1
1052.9958	3238.8864	1119.4	238.5
1053.0968	3239.797	1116.55	237.8
1053.1977	3240.7069	1117.3	235.85
1053.2986	3241.6163	1112.7	231.95
1053.3994	3242.5251	1112.15	234.1
1053.5002	3243.4332	1113.65	236.5
1053.6009	3244.3408	1111.95	234.35
1053.7016	3245.2477	1108.3	230
1053.8022	3246.154	1111.2	230.9
1053.9028	3247.0598	1107.85	229.7
1054.0034	3247.9649	1105.6	228.85
1054.1039	3248.8694	1102	222.05
1054.2043	3249.7733	1098.65	217.5
1054.3047	3250.6766	1104.65	226.4
1054.4051	3251.5793	1102.6	223.7
1054.5054	3252.4814	1099.75	222.8
1054.6056	3253.3829	1099.6	222.1
1054.7058	3254.2838	1092	215.1
1054.806	3255.1841	1099.85	220.85
1054.9061	3256.0838	1091.25	214.7
1055.0061	3256.9829	1087.6	207.85
1055.1062	3257.8814	1092.6	212.1
1055.2061	3258.7792	1085.6	205.25
1055.306	3259.6765	1089.05	209.9
1055.4059	3260.5731	1082.75	206.35
1055.5057	3261.4692	1080.9	202.5
1055.6055	3262.3647	1077.45	198.15
1055.7052	3263.2595	1071.9	194.3
1055.8049	3264.1538	1070.2	191.9
1055.9045	3265.0474	1071.9	192.6
1056.0041	3265.9404	1066.05	189.15
1056.1036	3266.8329	1058.7	181.1
1056.2031	3267.7247	1071.3	183.95
1056.3025	3268.616	1057.9	181.1
1056.4019	3269.5066	1053.65	175.05
1056.5013	3270.3966	1047.8	166.5
1056.6005	3271.286	1038.85	162.95
