Software Version:	3.9.2.0
Unit SN:	10000200
Spectrometer SN:	6960
Date:	3/6/2024 9:27:20 AM
Data Line Index:	25
Spectral Points:	2048
Integration time (ms):	125
Averages:	20
Delay (ms):	30
Sequence Number:	1
Processing:	dark subtract
Laser Power (mW):	300
Laser Current (mA):	815
Laser Diode Temp (C):	25
Laser Case Temp (C):	23.1
System Temp (C):	22.9
Spectrometer Temp (C):	20.8
CCD Temp (C):	-0.02
Secondary Temp (C):	20.003
Heatsink Temp (C):	17.583
CCDPCB Temp (C):	29.46
SecondaryPCB Temp (C):	25.135

Wavelength	RamanShift	Raw Counts	Dark Subtracted
787.061	30.1047	560.3	152.5
787.2016	32.3739	560.4	155.75
787.3422	34.6426	574.85	167.55
787.4828	36.9109	585.25	175.65
787.6235	39.1787	600.8	188.75
787.7642	41.4461	619.35	203.8
787.9049	43.7131	629.9	208.85
788.0456	45.9796	651	228.15
788.1863	48.2456	661.6	236.1
788.3271	50.5112	681.25	251.95
788.4679	52.7764	696.6	264.8
788.6087	55.0411	715.4	277.6
788.7496	57.3054	740.65	299.05
788.8904	59.5692	755.7	311.45
789.0313	61.8326	780.5	335.45
789.1722	64.0955	807.35	358.25
789.3132	66.3579	837.55	384.35
789.4541	68.6199	884.1	427.45
789.5951	70.8815	948.25	486.15
789.7361	73.1426	1098	632.95
789.8771	75.4032	1468.25	998.3
790.0181	77.6634	2389.55	1918.7
790.1592	79.9231	4618.2	4144
790.3003	82.1824	9561.8	9080.75
790.4414	84.4412	18239.3	17753.5
790.5825	86.6995	30525.65	30033.35
790.7237	88.9574	41760.35	41259.55
790.8648	91.2148	50227.4	49725.65
791.006	93.4717	52767.25	52258.45
791.1472	95.7282	54073.35	53563.6
791.2885	97.9842	54765.05	54253.4
791.4297	100.2398	54900.95	54387.15
791.571	102.4949	54970.4	54454.35
791.7123	104.7495	55245.95	54723.75
791.8536	107.0036	54931.35	54410.4
791.9949	109.2573	55825.8	55305.35
792.1363	111.5105	55372.05	54850.2
792.2777	113.7632	55662.65	55137.65
792.4191	116.0154	56021.5	55484.6
792.5605	118.2672	56600.75	56070.85
792.7019	120.5185	56694.2	56160.7
792.8434	122.7693	56723.6	56187.5
792.9849	125.0197	55930.4	55388.55
793.1264	127.2696	57570.2	57027.05
793.2679	129.519	57293.65	56746.7
793.4094	131.7679	57977.5	57429.45
793.551	134.0163	56538.45	55988.6
793.6926	136.2642	57269.2	56713.75
793.8342	138.5117	58361.55	57804.35
793.9758	140.7587	58033.5	57474.85
794.1175	143.0052	58047.2	57485.75
794.2591	145.2512	57263.55	56700.45
794.4008	147.4967	58405.9	57842.35
794.5425	149.7417	58143.45	57575.2
794.6842	151.9863	58181.45	57609.8
794.826	154.2304	57792	57217.45
794.9677	156.4739	58196	57614.1
795.1095	158.717	58984.8	58407.2
795.2513	160.9596	58555.3	57972.8
795.3931	163.2017	57870.8	57282.6
795.535	165.4433	58859.3	58270.95
795.6768	167.6844	58490.35	57898.7
795.8187	169.925	59004	58409.85
795.9606	172.1651	58546.1	57948.2
796.1025	174.4047	59054.25	58451.3
796.2445	176.6439	58967.45	58363.5
796.3864	178.8825	58688.25	58080.85
796.5284	181.1206	59669.55	59059.95
796.6704	183.3582	59518.25	58902.2
796.8124	185.5954	59315.65	58697.85
796.9544	187.832	59405.25	58784.2
797.0965	190.0681	58842.55	58218.45
797.2386	192.3037	59928.2	59302.75
797.3806	194.5388	61100.05	60473.3
797.5228	196.7734	58511.35	57883.9
797.6649	199.0075	61072.55	60444.4
797.807	201.2411	59994.45	59361.05
797.9492	203.4742	61520.8	60885.7
798.0914	205.7068	61096.05	60457.85
798.2336	207.9389	61002.1	60366.4
798.3758	210.1704	60874.4	60244.45
798.518	212.4015	61858.2	61235.5
798.6603	214.632	60787.1	60167.45
798.8025	216.862	62074.8	61459.35
798.9448	219.0915	61195.5	60579.5
799.0871	221.3205	61194.25	60574.6
799.2294	223.549	62308.25	61692.9
799.3718	225.777	62077.75	61458.75
799.5141	228.0044	62756.35	62129.45
799.6565	230.2314	62062.2	61432.9
799.7989	232.4578	62094.5	61461
799.9413	234.6837	62376.25	61734.35
800.0837	236.909	64118.6	63476.45
800.2262	239.1339	61521.15	60853.7
800.3687	241.3582	62804.65	62151.05
800.5111	243.582	63002.8	62318.75
800.6536	245.8053	62818	62148
800.7961	248.0281	63197.8	62532.85
800.9387	250.2503	63492.05	62821.95
801.0812	252.472	62505.75	61838.4
801.2238	254.6932	63349	62678.65
801.3664	256.9139	62957.6	62287.3
801.509	259.134	64341.95	63669.55
801.6516	261.3536	62875.45	62205
801.7942	263.5727	63627.05	62951.15
801.9369	265.7912	63257.5	62582.2
802.0795	268.0092	63495.35	62820.7
802.2222	270.2267	63773.95	63095
802.3649	272.4436	62958.35	62280.95
802.5076	274.6601	63851.05	63161.5
802.6504	276.8759	64145.95	63463
802.7931	279.0913	63657.8	62974.45
802.9359	281.3061	64070.5	63382.9
803.0787	283.5204	63982.25	63292.2
803.2215	285.7341	63983.75	63291
803.3643	287.9473	64422.05	63721.15
803.5071	290.16	64040.1	63344.45
803.6499	292.3721	64118.75	63431
803.7928	294.5837	63823.6	63131.65
803.9357	296.7947	63260.45	62570.7
804.0786	299.0052	64336.65	63644.95
804.2215	301.2152	64052.65	63356.3
804.3644	303.4246	64262.9	63570.9
804.5074	305.6334	64363.75	63669.65
804.6503	307.8418	63823.55	63124.7
804.7933	310.0495	63737.3	63039.4
804.9363	312.2568	63847.7	63150.75
805.0793	314.4635	63865.6	63161.8
805.2223	316.6696	64262.9	63559.4
805.3653	318.8752	64469.5	63756.05
805.5084	321.0802	63085.4	62379.7
805.6514	323.2847	63881.55	63174.15
805.7945	325.4887	63702.35	62995.6
805.9376	327.692	63536.05	62827.85
806.0807	329.8949	63928.3	63218.4
806.2238	332.0972	63695.2	62983.15
806.367	334.2989	64041.35	63324
806.5101	336.5001	64381.4	63665.75
806.6533	338.7007	63399.1	62681.6
806.7965	340.9008	64038.65	63321.25
806.9397	343.1003	64127.6	63407.55
807.0829	345.2992	64373.25	63653
807.2261	347.4976	63867.05	63145.75
807.3693	349.6955	64158.9	63431.25
807.5126	351.8927	63719.7	62990.2
807.6559	354.0895	64138.8	63400.15
807.7991	356.2856	64120.1	63388.95
807.9424	358.4812	64454.55	63723.85
808.0857	360.6763	63559.3	62825.85
808.2291	362.8707	64514.55	63778.05
808.3724	365.0646	63928.7	63191.5
808.5158	367.258	63952.25	63212.25
808.6591	369.4508	63381.65	62637.4
808.8025	371.643	64353.9	63612.1
808.9459	373.8346	63881.85	63136.7
809.0893	376.0257	64039	63293.55
809.2327	378.2162	63941.1	63196.35
809.3762	380.4062	63049.3	62305.4
809.5196	382.5956	63903.15	63161.4
809.6631	384.7844	63714.3	62976.1
809.8066	386.9726	64118.85	63380.4
809.9501	389.1603	63955.6	63221.4
810.0936	391.3474	63490.05	62705.55
810.2371	393.5339	63935.1	63194.25
810.3806	395.7199	63006.5	62267.8
810.5241	397.9052	63252.95	62514.6
810.6677	400.09	63533.6	62791.15
810.8113	402.2743	64140.35	63396
810.9548	404.4579	63222.3	62475.3
811.0984	406.641	63385.9	62638.4
811.2421	408.8235	63605.55	62856.75
811.3857	411.0054	63716	62963.9
811.5293	413.1868	63842.15	63087.85
811.673	415.3675	63452.4	62695.7
811.8166	417.5477	63433.95	62676.2
811.9603	419.7273	63524.2	62761.6
812.104	421.9064	63374.9	62608.6
812.2477	424.0848	63381.95	62617.65
812.3914	426.2627	63989.65	63226.65
812.5351	428.4399	63149.3	62385.15
812.6788	430.6166	62084.05	61314.4
812.8226	432.7928	63375.9	62607.05
812.9663	434.9683	62595.05	61826.95
813.1101	437.1432	62471	61700.75
813.2539	439.3176	63324.95	62556.25
813.3977	441.4914	61925.6	61157.6
813.5415	443.6645	62182.15	61410.75
813.6853	445.8371	62467.3	61694.75
813.8291	448.0091	61862.6	61092.3
813.973	450.1806	61413.1	60641.65
814.1168	452.3514	61741.75	60965.75
814.2607	454.5216	60974.1	60193.95
814.4046	456.6913	61836.15	61057.55
814.5485	458.8603	62038.35	61263.65
814.6924	461.0288	60922	60147.95
814.8363	463.1967	61865.2	61091.4
814.9802	465.3639	61606.05	60828.2
815.1241	467.5306	60053	59274.95
815.2681	469.6967	61016.75	60238.4
815.412	471.8622	61566.7	60789.4
815.556	474.0271	60776.3	59998.05
815.7	476.1914	60998.15	60218.15
815.844	478.3551	61078	60297.55
815.988	480.5182	62094.4	61314.35
816.132	482.6807	60553.55	59773
816.276	484.8426	60634.65	59854.9
816.4201	487.0039	61701.7	60919.75
816.5641	489.1647	61534.25	60751.2
816.7082	491.3248	60146.8	59363.4
816.8522	493.4843	61624.45	60841.3
816.9963	495.6432	61689.7	60905.4
817.1404	497.8015	60198.35	59409.5
817.2845	499.9592	60989.05	60203.9
817.4286	502.1163	60916.6	60128.1
817.5727	504.2728	60861.45	60072.4
817.7168	506.4287	60747.75	59959.1
817.861	508.5839	60133.3	59343.75
818.0051	510.7386	60754.7	59966.25
818.1493	512.8927	60899.9	60102.25
818.2935	515.0461	60588.1	59795.15
818.4377	517.199	61234.95	60442.55
818.5818	519.3512	60459.9	59668.7
818.726	521.5029	60518.45	59718.15
818.8703	523.6539	60628.9	59831.95
819.0145	525.8043	59636.1	58839.15
819.1587	527.9541	60502.85	59704.8
819.303	530.1033	60362.9	59566.25
819.4472	532.2519	59802.7	59005.8
819.5915	534.3999	60523.7	59724.3
819.7357	536.5472	60837.15	60036.75
819.88	538.694	59345.25	58545.3
820.0243	540.8401	60036.75	59236.8
820.1686	542.9856	59994	59191
820.3129	545.1305	60558.3	59753.35
820.4572	547.2748	59658.15	58853.2
820.6016	549.4185	59678.05	58873.1
820.7459	551.5615	60452.4	59648.35
820.8902	553.704	60112.4	59308.5
821.0346	555.8458	59523.15	58721.7
821.1789	557.987	59692.15	58888.5
821.3233	560.1276	60048.8	59242.2
821.4677	562.2675	59603.75	58798.8
821.6121	564.4069	59693.55	58889.6
821.7565	566.5456	60173.25	59368.7
821.9009	568.6837	59165	58361.6
822.0453	570.8212	59579.65	58776.25
822.1897	572.958	58422.85	57617.05
822.3342	575.0942	59492.2	58689.5
822.4786	577.2299	58802.8	57997.3
822.6231	579.3648	58651.85	57843.35
822.7675	581.4992	58421.95	57615.3
822.912	583.6329	58267.75	57460.5
823.0565	585.766	58250.65	57444.15
823.201	587.8985	58557.2	57749.6
823.3454	590.0304	57383	56548.7
823.4899	592.1616	58332.4	57518.35
823.6345	594.2922	57852.05	57040.5
823.779	596.4222	57384.7	56573.25
823.9235	598.5515	57515.4	56700.65
824.068	600.6802	57782.85	56968.95
824.2126	602.8083	57018.45	56202.5
824.3571	604.9358	56901.75	56087.8
824.5017	607.0626	57480.95	56668.6
824.6462	609.1888	56540.7	55723.55
824.7908	611.3144	57132.95	56316.1
824.9354	613.4393	56731.2	55915.65
825.08	615.5636	56366.5	55547.85
825.2246	617.6873	56810.9	55996.05
825.3692	619.8103	56331.3	55511.6
825.5138	621.9327	56922.2	56100.45
825.6584	624.0544	57075.7	56258.15
825.803	626.1756	56535.2	55716.1
825.9477	628.2961	56503	55682.4
826.0923	630.4159	56071.5	55251.9
826.237	632.5351	55996.85	55175.45
826.3816	634.6537	57033	56208.75
826.5263	636.7716	55865.1	55042.35
826.6709	638.8889	56059.1	55238.05
826.8156	641.0056	55880.4	55056.4
826.9603	643.1216	56176	55353.1
827.105	645.237	56386.65	55561.7
827.2497	647.3518	55725.6	54901.95
827.3944	649.4659	55859.75	55038.25
827.5391	651.5793	55828.05	55005
827.6838	653.6922	55938.5	55115.9
827.8285	655.8043	55285.5	54461.1
827.9733	657.9159	56218.9	55394.15
828.118	660.0268	54543.2	53716.05
828.2627	662.137	55216.05	54387.9
828.4075	664.2466	55410.35	54581.2
828.5522	666.3556	55044.05	54216.25
828.697	668.4639	55192	54362.25
828.8418	670.5716	54952.9	54124.75
828.9865	672.6786	55180.5	54351
829.1313	674.785	54545.55	53713.95
829.2761	676.8907	54644.6	53812.75
829.4209	678.9958	54654	53826.5
829.5657	681.1002	54902.7	54072.6
829.7105	683.204	54304.35	53470.05
829.8553	685.3072	54135.75	53302
830.0001	687.4097	54163.15	53332.1
830.1449	689.5115	54162.2	53328.1
830.2898	691.6127	54386.95	53556.8
830.4346	693.7132	53922.75	53091.1
830.5794	695.8131	54127.7	53271.3
830.7243	697.9123	54138.3	53306
830.8691	700.0109	54267.75	53433.1
831.014	702.1089	53657.6	52824.9
831.1588	704.2061	53794.75	52962.05
831.3037	706.3028	53840.55	53003.2
831.4486	708.3987	53746.25	52910.85
831.5935	710.4941	53576.2	52740.75
831.7383	712.5887	53756.3	52919.85
831.8832	714.6827	53547.7	52708.05
832.0281	716.7761	53715.65	52878.05
832.173	718.8688	53594.2	52755.8
832.3179	720.9608	53303.55	52463.05
832.4628	723.0522	53338.7	52497.4
832.6077	725.1429	52993.45	52155.65
832.7527	727.233	53788.5	52949.65
832.8976	729.3224	52754.6	51914.7
833.0425	731.4112	53012.9	52171.35
833.1874	733.4993	53009	52168.45
833.3324	735.5867	52903.7	52063.75
833.4773	737.6735	52692.3	51848.65
833.6222	739.7596	52406.25	51563.95
833.7672	741.845	52390.85	51548.95
833.9122	743.9298	52450.75	51605.15
834.0571	746.014	52192.25	51351.3
834.2021	748.0974	52041.1	51197.35
834.347	750.1802	52158.45	51316.15
834.492	752.2624	51662.45	50820.15
834.637	754.3439	51648.5	50803.75
834.782	756.4247	51628.5	50776.4
834.9269	758.5048	51258.5	50414.55
835.0719	760.5843	51216.45	50373.1
835.2169	762.6631	51172.15	50326.8
835.3619	764.7413	51047.8	50205.55
835.5069	766.8188	51053.85	50210.1
835.6519	768.8956	50993.25	50146.3
835.7969	770.9718	50941.75	50097.6
835.9419	773.0473	50749.05	49904.65
836.0869	775.1221	50565	49719.95
836.232	777.1962	50419.6	49574.35
836.377	779.2697	50308.9	49460.65
836.522	781.3426	50292.3	49437.5
836.667	783.4147	50270.2	49420.05
836.8121	785.4862	50175.8	49329.85
836.9571	787.557	49984.4	49138.65
837.1021	789.6271	49972.35	49124.4
837.2472	791.6966	49687.1	48840.8
837.3922	793.7654	49431.1	48582.3
837.5373	795.8335	49462.45	48613.85
837.6823	797.901	49346.85	48501.7
837.8274	799.9678	49215.55	48362.95
837.9724	802.0339	49147.8	48298.7
838.1175	804.0993	49123.45	48265.5
838.2626	806.1641	48926.4	48075.25
838.4076	808.2282	48777.75	47930.35
838.5527	810.2916	48802.8	47949.75
838.6978	812.3544	48747.85	47899.9
838.8428	814.4164	48553	47702.8
838.9879	816.4778	48669.1	47817.4
839.133	818.5385	48422.2	47571.45
839.2781	820.5986	48445.3	47594.15
839.4232	822.658	48447.35	47595.15
839.5682	824.7166	48326.1	47476.65
839.7133	826.7747	48360.9	47510.3
839.8584	828.832	48320.6	47470
840.0035	830.8886	48131.25	47276.5
840.1486	832.9446	48123.9	47271.05
840.2937	834.9999	47962.1	47113.95
840.4388	837.0545	47887.8	47031.55
840.5839	839.1085	47807.6	46953.9
840.729	841.1618	47672.6	46814.3
840.8741	843.2143	47455.2	46600.25
841.0192	845.2662	47324.5	46471.35
841.1643	847.3175	47327.25	46475.05
841.3095	849.368	47154.2	46300.15
841.4546	851.4179	47133.85	46281.15
841.5997	853.467	46904.95	46049.85
841.7448	855.5155	46856.75	46002.1
841.8899	857.5633	46775.95	45921.7
842.0351	859.6105	46554	45700.5
842.1802	861.6569	46571.9	45714.35
842.3253	863.7027	46473.2	45617.3
842.4704	865.7478	46436.75	45582.35
842.6156	867.7922	46425.15	45570.45
842.7607	869.8359	46282.85	45428.65
842.9058	871.8789	46198.95	45342.55
843.0509	873.9212	46152.9	45266.3
843.1961	875.9629	45940	45086.3
843.3412	878.0039	46047.7	45190.15
843.4863	880.0441	45934.45	45077
843.6315	882.0837	45922.85	45065.6
843.7766	884.1226	45821.4	44961.3
843.9218	886.1609	45823.4	44968.5
844.0669	888.1984	45783.55	44928.65
844.212	890.2352	45902.6	45047.1
844.3572	892.2714	45739.65	44877
844.5023	894.3069	45710.6	44851.25
844.6475	896.3416	45458.15	44598.55
844.7926	898.3757	45448.35	44589.9
844.9377	900.4091	45314.25	44453.45
845.0829	902.4418	45271	44407.4
845.228	904.4739	45108.8	44247.4
845.3732	906.5052	45066.7	44208.05
845.5183	908.5358	45018.65	44160.2
845.6635	910.5658	44979.55	44117.6
845.8086	912.595	44841.05	43980.1
845.9538	914.6236	44659.05	43798.75
846.0989	916.6515	44632	43772.6
846.2441	918.6786	44414.75	43551.65
846.3892	920.7051	44414.85	43552.65
846.5344	922.7309	44430.85	43570.75
846.6795	924.756	44256.1	43395.4
846.8246	926.7804	44172.95	43311.4
846.9698	928.8041	43925.6	43063.85
847.1149	930.8272	43918.7	43056.85
847.2601	932.8495	43727	42863.5
847.4052	934.8711	43701.65	42840
847.5504	936.892	43428.85	42568.5
847.6955	938.9123	43341.05	42479.45
847.8407	940.9318	43312.95	42452.95
847.9858	942.9506	43188.75	42327.8
848.131	944.9688	43030.8	42166.8
848.2761	946.9862	42903.7	42042.3
848.4213	949.003	42700.6	41837.25
848.5664	951.019	42608.45	41745.4
848.7115	953.0344	42437.85	41574.9
848.8567	955.0491	42374.6	41511.25
849.0018	957.063	42406.15	41544.35
849.147	959.0763	42460.1	41597.75
849.2921	961.0888	42253.5	41387
849.4373	963.1007	42187.9	41326.25
849.5824	965.1119	42120.1	41256.2
849.7275	967.1223	42038.35	41175.1
849.8727	969.1321	41981.35	41120
850.0178	971.1412	41904.05	41040
850.1629	973.1495	41751.75	40886.85
850.3081	975.1572	41720.85	40811.85
850.4532	977.1641	41709.8	40845.95
850.5983	979.1704	41492.9	40629
850.7435	981.1759	41378.5	40510.1
850.8886	983.1808	41324.5	40457.6
851.0337	985.1849	41219.1	40346.7
851.1788	987.1884	41166.15	40298.15
851.324	989.1911	41086.95	40221.65
851.4691	991.1932	41051.35	40183.25
851.6142	993.1945	40805.55	39940.1
851.7593	995.1951	40584.8	39719.3
851.9045	997.1951	40580.95	39709.1
852.0496	999.1943	40384.25	39518.6
852.1947	1001.1928	40250.8	39383.3
852.3398	1003.1906	40081.5	39214.1
852.4849	1005.1877	40047.8	39179.05
852.63	1007.1841	39871.55	39004.2
852.7751	1009.1798	39727.7	38863.75
852.9202	1011.1748	39637.35	38769.7
853.0653	1013.1691	39488.35	38620.4
853.2104	1015.1627	39342.6	38475.45
853.3555	1017.1556	39045.15	38177.8
853.5006	1019.1477	39001.7	38135.55
853.6457	1021.1392	38727.6	37861.35
853.7908	1023.1299	38623.5	37756.25
853.9359	1025.12	38471.5	37603.2
854.081	1027.1093	38360	37494.15
854.2261	1029.0979	38256.7	37390.6
854.3712	1031.0859	38118.25	37251.15
854.5163	1033.0731	38061.9	37194.25
854.6613	1035.0596	37920.85	37053.4
854.8064	1037.0454	37709.5	36840.45
854.9515	1039.0304	37602.05	36734.45
855.0965	1041.0148	37445.5	36576.45
855.2416	1042.9985	37325.75	36456.1
855.3867	1044.9814	37283.55	36416.6
855.5317	1046.9636	37090.25	36220.65
855.6768	1048.9452	36939.5	36073.1
855.8219	1050.926	36921.75	36054.55
855.9669	1052.9061	36807.8	35941.45
856.112	1054.8855	36726.5	35857.65
856.257	1056.8642	36679.95	35810.25
856.4021	1058.8421	36674.35	35799.15
856.5471	1060.8194	36539.6	35667.8
856.6921	1062.7959	36432	35560.5
856.8372	1064.7717	36373.15	35502.35
856.9822	1066.7469	36302.7	35430.85
857.1272	1068.7213	36200	35329.55
857.2723	1070.695	36193.1	35321.05
857.4173	1072.6679	36008.8	35138.1
857.5623	1074.6402	35994	35122.55
857.7073	1076.6117	35999.85	35123.25
857.8523	1078.5826	35974.15	35104.5
857.9973	1080.5527	35763.95	34891.2
858.1423	1082.5221	35641.4	34769.95
858.2873	1084.4908	35591.1	34719.3
858.4323	1086.4587	35450.95	34579.1
858.5773	1088.426	35399.7	34527.8
858.7223	1090.3925	35249.6	34373.95
858.8673	1092.3584	35196.6	34326.9
859.0123	1094.3235	35037.85	34169.1
859.1573	1096.2879	34921.7	34050.15
859.3022	1098.2515	34865.15	33996.95
859.4472	1100.2145	34928.55	34060.1
859.5922	1102.1767	34782.15	33909.15
859.7371	1104.1382	34769.55	33898.25
859.8821	1106.099	34778.1	33903.6
860.027	1108.0591	34656.15	33785.75
860.172	1110.0185	34610.9	33736.45
860.3169	1111.9771	34593.35	33722.1
860.4619	1113.9351	34481.5	33610.15
860.6068	1115.8923	34481.1	33609.45
860.7517	1117.8488	34446.5	33572.95
860.8967	1119.8045	34243.25	33372.7
861.0416	1121.7596	34152.15	33280.15
861.1865	1123.7139	33943.15	33072.7
861.3314	1125.6675	33803.7	32931.9
861.4763	1127.6204	33808.45	32937.85
861.6212	1129.5726	33710.9	32836.75
861.7661	1131.524	33698.3	32826.9
861.911	1133.4748	33616.75	32745.55
862.0559	1135.4248	33463.6	32589.35
862.2008	1137.3741	33382.75	32510.55
862.3457	1139.3226	33217.35	32342
862.4905	1141.2705	33227.75	32354.7
862.6354	1143.2176	33061	32183
862.7803	1145.164	33107.65	32232.4
862.9251	1147.1097	33024.2	32151.05
863.07	1149.0546	32932.15	32056.65
863.2148	1150.9989	32877.35	32001.7
863.3597	1152.9424	32836.85	31961.75
863.5045	1154.8852	32771.65	31896.95
863.6493	1156.8272	32739.6	31867.25
863.7942	1158.7686	32706.55	31827.9
863.939	1160.7092	32564.2	31688.6
864.0838	1162.6491	32479.5	31602.85
864.2286	1164.5883	32491.5	31618.65
864.3734	1166.5267	32397.85	31521.45
864.5182	1168.4644	32379.15	31505.4
864.663	1170.4014	32321.45	31443.35
864.8078	1172.3377	32398	31526.65
864.9526	1174.2732	32360.55	31486.6
865.0974	1176.2081	32413.8	31539.8
865.2421	1178.1421	32406.9	31528.65
865.3869	1180.0755	32463.85	31591.2
865.5317	1182.0082	32431.6	31558.7
865.6764	1183.9401	32420.55	31545.15
865.8212	1185.8713	32249.95	31376.7
865.9659	1187.8017	32095.6	31222.35
866.1106	1189.7315	31924.6	31052.35
866.2554	1191.6605	31670.2	30796.95
866.4001	1193.5888	31531.15	30656.55
866.5448	1195.5163	31454.75	30581
866.6895	1197.4432	31330.2	30454.05
866.8342	1199.3693	31240.9	30367.5
866.9789	1201.2947	31107.05	30230.2
867.1236	1203.2193	30970.85	30093.95
867.2683	1205.1432	30923.7	30049.75
867.413	1207.0664	30825	29949.75
867.5576	1208.9889	30774.85	29896.15
867.7023	1210.9106	30613.85	29738.6
867.847	1212.8316	30537.8	29662.25
867.9916	1214.7519	30503.7	29618.15
868.1363	1216.6715	30411.4	29537.55
868.2809	1218.5903	30392.35	29518.05
868.4255	1220.5084	30318.45	29444
868.5701	1222.4257	30306.15	29431.1
868.7148	1224.3424	30182.9	29307.1
868.8594	1226.2583	30123.65	29242.5
869.004	1228.1735	30096.05	29219
869.1486	1230.0879	29981	29105.15
869.2932	1232.0016	29887.8	29012
869.4377	1233.9146	29859.75	28979.45
869.5823	1235.8269	29738.8	28864.1
869.7269	1237.7384	29774.6	28897.1
869.8715	1239.6492	29667.25	28792.75
870.016	1241.5592	29656.1	28778.5
870.1606	1243.4686	29553.25	28677.1
870.3051	1245.3772	29584.4	28708.35
870.4496	1247.285	29570	28692.85
870.5941	1249.1922	29522.35	28644.85
870.7387	1251.0986	29615.45	28739
870.8832	1253.0042	29506.05	28629.5
871.0277	1254.9092	29521.05	28642.9
871.1722	1256.8134	29541.1	28664.8
871.3167	1258.7169	29635.4	28758.4
871.4611	1260.6196	29560.2	28685.8
871.6056	1262.5216	29626.25	28745.85
871.7501	1264.4229	29588.65	28713.75
871.8945	1266.3234	29563.95	28686
872.039	1268.2232	29485.25	28607.4
872.1834	1270.1223	29356.35	28478.75
872.3278	1272.0207	29278.3	28400.2
872.4723	1273.9183	29193.75	28310.7
872.6167	1275.8151	29042.15	28165.2
872.7611	1277.7113	29074.6	28196.55
872.9055	1279.6067	29081.1	28204.7
873.0499	1281.5014	29140.95	28260.6
873.1943	1283.3953	29304.35	28424.95
873.3386	1285.2885	29452.45	28575.45
873.483	1287.181	29598.35	28720.9
873.6274	1289.0727	29671.5	28794.15
873.7717	1290.9637	29573.5	28695
873.9161	1292.854	29461.9	28585
874.0604	1294.7435	29251.8	28372.95
874.2047	1296.6323	29118.7	28243.1
874.349	1298.5204	28944.75	28064.5
874.4933	1300.4077	28782.55	27904
874.6376	1302.2943	28761.4	27883.1
874.7819	1304.1802	28733.2	27855.6
874.9262	1306.0653	28628.65	27747.15
875.0705	1307.9497	28560.55	27682.25
875.2147	1309.8333	28498.85	27621.05
875.359	1311.7162	28512.9	27635.15
875.5032	1313.5984	28426.7	27545.5
875.6475	1315.4798	28338.6	27449.65
875.7917	1317.3605	28276.55	27396.4
875.9359	1319.2405	28275.8	27395.25
876.0801	1321.1197	28247	27368.1
876.2243	1322.9982	28123.95	27240.2
876.3685	1324.876	28153.65	27276.15
876.5127	1326.753	27983.7	27105.95
876.6569	1328.6293	27909.1	27029.85
876.801	1330.5048	27809.95	26933.05
876.9452	1332.3796	27665.1	26787.9
877.0893	1334.2537	27570.6	26666.3
877.2335	1336.127	27478.05	26601.2
877.3776	1337.9996	27397.05	26515.95
877.5217	1339.8714	27305.1	26426.05
877.6658	1341.7426	27284.1	26361.4
877.8099	1343.6129	27235.55	26355.05
877.954	1345.4826	27127.1	26247.9
878.0981	1347.3515	27168.3	26287.55
878.2422	1349.2196	27055.05	26175.05
878.3862	1351.087	27067.55	26187.8
878.5303	1352.9537	27004.85	26124.25
878.6743	1354.8197	27021.4	26143.45
878.8184	1356.6849	27009	26129.6
878.9624	1358.5493	26894.35	26016.55
879.1064	1360.4131	26877.65	25998.2
879.2504	1362.276	26841.15	25962.95
879.3944	1364.1383	26786.4	25908.35
879.5384	1365.9998	26761.7	25879.1
879.6823	1367.8606	26689.9	25811.3
879.8263	1369.7206	26669.25	25790.7
879.9702	1371.5799	26581.35	25699.2
880.1142	1373.4384	26483.9	25603.9
880.2581	1375.2962	26506.95	25625.45
880.402	1377.1533	26325.15	25445
880.5459	1379.0096	26203.15	25324.6
880.6898	1380.8652	26129.2	25249.5
880.8337	1382.7201	26025.25	25147
880.9776	1384.5742	25869.1	24988.8
881.1215	1386.4275	25695.5	24815.55
881.2653	1388.2802	25644.3	24766.05
881.4092	1390.132	25597.25	24717.45
881.553	1391.9832	25550.45	24670.1
881.6968	1393.8336	25412.3	24530.95
881.8406	1395.6832	25361	24480.55
881.9844	1397.5322	25234.9	24354.45
882.1282	1399.3803	25168.5	24280.4
882.272	1401.2278	25034.45	24154.75
882.4158	1403.0745	24981.55	24101.8
882.5595	1404.9204	24835.6	23958.7
882.7033	1406.7656	24852.15	23971.75
882.847	1408.6101	24691.9	23809.7
882.9908	1410.4538	24662.95	23784.05
883.1345	1412.2968	24570.7	23690.15
883.2782	1414.139	24478.05	23599.25
883.4219	1415.9805	24478.8	23598.2
883.5656	1417.8213	24392.7	23490.4
883.7092	1419.6613	24299.1	23419.15
883.8529	1421.5006	24298.1	23416.95
883.9965	1423.3391	24278.55	23398.25
884.1402	1425.1769	24229	23348.8
884.2838	1427.0139	24241.25	23360.95
884.4274	1428.8502	24263.05	23381.4
884.571	1430.6858	24267.05	23387.7
884.7146	1432.5206	24194.15	23313.45
884.8582	1434.3547	24140.05	23260.25
885.0018	1436.188	24115.75	23235.15
885.1453	1438.0206	24109.55	23225.1
885.2889	1439.8524	23992.85	23113.35
885.4324	1441.6835	23964.45	23082.95
885.5759	1443.5139	23911.75	23030.25
885.7194	1445.3435	23876.65	22995.5
885.8629	1447.1724	23863.6	22981.85
886.0064	1449.0005	23798.85	22919.05
886.1499	1450.8279	23762.4	22880.6
886.2933	1452.6545	23747.7	22867.6
886.4368	1454.4804	23726.15	22846.25
886.5802	1456.3056	23682	22794.4
886.7237	1458.13	23595.2	22715.75
886.8671	1459.9536	23610.95	22731.1
887.0105	1461.7766	23533.1	22654.7
887.1539	1463.5987	23426.15	22543
887.2972	1465.4202	23368.35	22488.45
887.4406	1467.2409	23276.6	22396.05
887.584	1469.0608	23243.2	22364.65
887.7273	1470.88	23153	22270.6
887.8706	1472.6984	23105.7	22225.85
888.0139	1474.5161	23002.8	22118.15
888.1572	1476.3331	22930.55	22051.55
888.3005	1478.1493	22873.85	21993.6
888.4438	1479.9648	22876.1	21996.35
888.5871	1481.7795	22778.7	21897
888.7303	1483.5935	22767.3	21886.35
888.8736	1485.4067	22728.5	21848.8
889.0168	1487.2192	22725.7	21847.2
889.16	1489.031	22694	21810.1
889.3032	1490.842	22644.85	21764.05
889.4464	1492.6522	22601.9	21721.55
889.5896	1494.4618	22555.75	21673.55
889.7327	1496.2705	22493.1	21611.75
889.8759	1498.0785	22451.15	21569.75
890.019	1499.8858	22399.1	21519.2
890.1622	1501.6924	22355.75	21474.85
890.3053	1503.4981	22300.35	21419.95
890.4484	1505.3032	22286.65	21404.95
890.5914	1507.1075	22262.4	21381.8
890.7345	1508.911	22168.9	21288.55
890.8776	1510.7138	22091.2	21210.95
891.0206	1512.5159	22019.55	21139.1
891.1637	1514.3172	22028.55	21147.95
891.3067	1516.1178	21948.15	21067.05
891.4497	1517.9176	21887.8	21004.5
891.5927	1519.7166	21790.75	20909.65
891.7357	1521.515	21739.55	20853.05
891.8786	1523.3126	21665.6	20781.5
892.0216	1525.1094	21630.2	20746.05
892.1645	1526.9055	21543.65	20665.3
892.3074	1528.7008	21438.5	20556.5
892.4503	1530.4954	21328.15	20442.95
892.5932	1532.2893	21311.95	20433.05
892.7361	1534.0824	21210.7	20326.8
892.879	1535.8747	21195.5	20315.5
893.0218	1537.6663	21114.25	20231
893.1647	1539.4572	21039.1	20156.85
893.3075	1541.2473	20976.4	20093.6
893.4503	1543.0367	20932.7	20052.7
893.5931	1544.8253	20868	19982.6
893.7359	1546.6132	20826.05	19943.75
893.8787	1548.4003	20710.5	19821.75
894.0214	1550.1867	20729.5	19840.8
894.1642	1551.9723	20662.75	19773.95
894.3069	1553.7572	20632.55	19752.55
894.4496	1555.5414	20557.45	19674.55
894.5923	1557.3247	20517.35	19637.3
894.735	1559.1074	20487.1	19607.8
894.8777	1560.8893	20420.95	19541.1
895.0204	1562.6705	20399.5	19520.5
895.163	1564.4509	20384.4	19504.4
895.3056	1566.2305	20309.85	19431.25
895.4482	1568.0094	20336.3	19457.15
895.5908	1569.7876	20267.95	19387.65
895.7334	1571.565	20219.05	19338.3
895.876	1573.3417	20174.55	19293.15
896.0186	1575.1176	20116.05	19235.6
896.1611	1576.8928	20108.25	19227.55
896.3036	1578.6672	20008.6	19129.4
896.4461	1580.4409	19994.95	19116.8
896.5886	1582.2138	19968.7	19085.05
896.7311	1583.986	19939.05	19059
896.8736	1585.7575	19952.7	19072.1
897.0161	1587.5282	19909.45	19031.05
897.1585	1589.2981	19900.95	19022.95
897.3009	1591.0673	19861.05	18980.35
897.4433	1592.8358	19828.2	18949.55
897.5857	1594.6035	19785.8	18904.1
897.7281	1596.3704	19678.5	18796.1
897.8705	1598.1366	19605.05	18725.05
898.0128	1599.9021	19512.85	18631.9
898.1551	1601.6668	19386	18503.65
898.2975	1603.4308	19324.5	18443
898.4398	1605.194	19233.9	18347.5
898.5821	1606.9564	19196.75	18316.25
898.7243	1608.7182	19190.85	18306.9
898.8666	1610.4791	19194.45	18312.95
899.0088	1612.2394	19256.05	18378.1
899.1511	1613.9988	19257.85	18377.25
899.2933	1615.7576	19314.9	18436.85
899.4355	1617.5156	19352	18466.8
899.5776	1619.2728	19311.25	18429.55
899.7198	1621.0293	19175.95	18297.3
899.862	1622.785	19050.75	18165.3
900.0041	1624.54	18866	17982.95
900.1462	1626.2942	18697.15	17815.85
900.2883	1628.0477	18524.85	17642.3
900.4304	1629.8005	18370.65	17487.1
900.5725	1631.5525	18259	17378.75
900.7145	1633.3037	18159.85	17280.15
900.8566	1635.0542	18094.2	17213
900.9986	1636.804	17954.95	17074.35
901.1406	1638.553	17984.25	17015.45
901.2826	1640.3013	17842.65	16962.1
901.4245	1642.0488	17749.65	16868.4
901.5665	1643.7955	17681.8	16803.75
901.7085	1645.5416	17616.15	16733.9
901.8504	1647.2868	17562.35	16681.4
901.9923	1649.0313	17501.5	16619.75
902.1342	1650.7751	17468.15	16583.65
902.2761	1652.5181	17424.5	16545.6
902.4179	1654.2604	17309.75	16428.1
902.5598	1656.0019	17282	16401.8
902.7016	1657.7427	17241.35	16360
902.8434	1659.4828	17239.3	16357.65
902.9852	1661.222	17198.55	16315.95
903.127	1662.9606	17208.55	16327.75
903.2687	1664.6984	17174.8	16294.95
903.4105	1666.4354	17152.6	16270.35
903.5522	1668.1717	17106	16226.45
903.6939	1669.9072	16967.55	16084.7
903.8356	1671.642	16940.85	16058.75
903.9773	1673.3761	16847.35	15969.1
904.119	1675.1094	16755.25	15873.95
904.2606	1676.8419	16654.1	15773.2
904.4022	1678.5737	16560.75	15678.9
904.5439	1680.3048	16503.8	15621.6
904.6855	1682.0351	16417.6	15538.05
904.827	1683.7646	16337.85	15453.5
904.9686	1685.4934	16287.05	15405.15
905.1101	1687.2215	16197.65	15315.65
905.2517	1688.9488	16161.05	15279.05
905.3932	1690.6754	16072.4	15192.95
905.5347	1692.4012	16035.2	15153.4
905.6761	1694.1263	16010.9	15130.3
905.8176	1695.8506	15956.2	15075.35
905.9591	1697.5742	15869.5	14988.55
906.1005	1699.297	15807.5	14928
906.2419	1701.0191	15732.15	14851.2
906.3833	1702.7404	15656.35	14775.35
906.5246	1704.461	15576.9	14695.7
906.666	1706.1808	15534.4	14650.75
906.8073	1707.8999	15539.3	14657.8
906.9487	1709.6182	15468.5	14587.9
907.09	1711.3358	15396.45	14515.7
907.2313	1713.0527	15355.05	14474.8
907.3725	1714.7688	15316.6	14431.15
907.5138	1716.4841	15276.75	14394.05
907.655	1718.1987	15233.55	14349
907.7962	1719.9126	15168.35	14288.8
907.9374	1721.6257	15108.8	14224.05
908.0786	1723.338	15102.1	14218.9
908.2198	1725.0496	15016.05	14133.45
908.3609	1726.7605	15003.4	14122.45
908.502	1728.4706	14974.45	14093.15
908.6431	1730.18	14893.85	14011.5
908.7842	1731.8886	14881.5	14000.6
908.9253	1733.5964	14823.6	13920.4
909.0664	1735.3036	14775.6	13892.35
909.2074	1737.0099	14777.75	13896.5
909.3484	1738.7156	14758.75	13878.6
909.4894	1740.4204	14680.65	13796.5
909.6304	1742.1246	14676.5	13794
909.7714	1743.8279	14647.5	13768.6
909.9123	1745.5306	14613.65	13732.35
910.0532	1747.2325	14577.3	13698.45
910.1941	1748.9336	14527.1	13647
910.335	1750.634	14498.1	13614.55
910.4759	1752.3336	14472.85	13591.7
910.6168	1754.0325	14445.65	13567.05
910.7576	1755.7307	14421.35	13541.35
910.8984	1757.4281	14439.65	13558.3
911.0392	1759.1247	14403.75	13514.7
911.18	1760.8206	14361.05	13475.85
911.3208	1762.5158	14328.4	13444.05
911.4615	1764.2102	14290.6	13412.2
911.6022	1765.9039	14235.75	13355.25
911.7429	1767.5968	14191.6	13311.75
911.8836	1769.289	14177.85	13297.7
912.0243	1770.9804	14139.15	13257.6
912.1649	1772.6711	14120.9	13242.55
912.3056	1774.361	14093.7	13211.95
912.4462	1776.0502	14066.9	13184.7
912.5868	1777.7386	14023.85	13140.6
912.7274	1779.4263	13980.1	13099.75
912.8679	1781.1132	13941.9	13061.9
913.0084	1782.7994	13897.6	13015.55
913.149	1784.4849	13895.9	13014.3
913.2895	1786.1696	13854.1	12955.75
913.4299	1787.8535	13835.55	12955.75
913.5704	1789.5367	13811	12928.95
913.7108	1791.2192	13756.85	12875.15
913.8513	1792.9009	13727.9	12828.6
913.9917	1794.5818	13672.65	12791.1
914.132	1796.2621	13621.65	12742
914.2724	1797.9415	13617.95	12734.85
914.4128	1799.6202	13573.05	12691.7
914.5531	1801.2982	13540.95	12660.55
914.6934	1802.9755	13511.65	12628.95
914.8337	1804.6519	13474.55	12594.4
914.9739	1806.3277	13390.2	12509.15
915.1142	1808.0027	13343.55	12465.45
915.2544	1809.6769	13355.55	12473.1
915.3946	1811.3504	13310	12426.45
915.5348	1813.0231	13277.6	12395.1
915.675	1814.6951	13271.55	12391.8
915.8151	1816.3664	13261	12377.3
915.9553	1818.0369	13221.95	12341.55
916.0954	1819.7067	13154.65	12272.9
916.2355	1821.3757	13144.1	12262.4
916.3755	1823.044	13124.4	12244.45
916.5156	1824.7115	13109.3	12228.4
916.6556	1826.3783	13021.45	12140.45
916.7956	1828.0443	13025.3	12144.25
916.9356	1829.7096	13005	12124.25
917.0756	1831.3741	13002.4	12119.85
917.2155	1833.0379	12968.9	12088.45
917.3555	1834.701	12929.4	12045.2
917.4954	1836.3633	12889.95	12008.9
917.6353	1838.0248	12834.4	11949.85
917.7751	1839.6856	12845.55	11963.55
917.915	1841.3457	12808	11927
918.0548	1843.005	12755.8	11874.25
918.1946	1844.6636	12730.2	11851.05
918.3344	1846.3214	12705.55	11826.45
918.4742	1847.9785	12705.1	11824.6
918.6139	1849.6349	12665.55	11781.85
918.7537	1851.2904	12621.9	11731.15
918.8934	1852.9453	12598.2	11716.3
919.0331	1854.5994	12545.85	11663.8
919.1727	1856.2528	12560.5	11672.45
919.3124	1857.9054	12521.7	11640.15
919.452	1859.5572	12506.2	11624.05
919.5916	1861.2083	12476	11593.9
919.7312	1862.8587	12450.55	11571.4
919.8708	1864.5084	12411.8	11528.75
920.0103	1866.1572	12387.55	11507.45
920.1498	1867.8054	12331.7	11450.35
920.2893	1869.4528	12328.95	11448.5
920.4288	1871.0994	12281.25	11399.75
920.5683	1872.7453	12259.95	11378.3
920.7077	1874.3905	12248.35	11360.9
920.8471	1876.0349	12192.9	11311.95
920.9865	1877.6786	12198.8	11313.35
921.1259	1879.3215	12186.95	11303.8
921.2653	1880.9637	12135.25	11252.4
921.4046	1882.6051	12112.5	11232.8
921.5439	1884.2458	12085.45	11203.25
921.6832	1885.8858	12050.45	11169.15
921.8225	1887.525	12033.1	11151.05
921.9617	1889.1634	11964.85	11083.8
922.101	1890.8011	11941.05	11060
922.2402	1892.4381	11921.75	11039.75
922.3794	1894.0743	11915.4	11035.7
922.5185	1895.7098	11890.3	11010.45
922.6577	1897.3446	11871.1	10990.85
922.7968	1898.9786	11826.95	10943.15
922.9359	1900.6118	11796.15	10916.55
923.075	1902.2443	11748.85	10865.8
923.214	1903.8761	11716.45	10837.65
923.3531	1905.5071	11675.95	10793.35
923.4921	1907.1374	11656.15	10774.2
923.6311	1908.7669	11633	10751.7
923.77	1910.3957	11625.7	10743.55
923.909	1912.0237	11567.85	10686.2
924.0479	1913.651	11527.55	10646.85
924.1868	1915.2776	11522.1	10642.8
924.3257	1916.9034	11442.55	10562.8
924.4646	1918.5285	11404.4	10524.55
924.6034	1920.1528	11351.3	10469.3
924.7422	1921.7764	11304.9	10425.3
924.881	1923.3992	11287.95	10409.6
925.0198	1925.0213	11194.4	10314.05
925.1586	1926.6427	11159.5	10278.2
925.2973	1928.2633	11302.6	10215.3
925.436	1929.8832	11175.1	10290.4
925.5747	1931.5023	11106.6	10224.1
925.7134	1933.1207	11061.2	10180.95
925.852	1934.7383	11043.45	10162.1
925.9906	1936.3552	11006.1	10126.25
926.1292	1937.9714	10983.1	10100.8
926.2678	1939.5868	10924.95	10042.35
926.4064	1941.2015	10892.05	10012.85
926.5449	1942.8154	10854.5	9971.45
926.6834	1944.4286	10810.15	9927.95
926.8219	1946.041	10803.1	9897.6
926.9604	1947.6528	10708.45	9820.35
927.0988	1949.2637	10701.1	9819.65
927.2372	1950.8739	10645.5	9763.2
927.3756	1952.4834	10652.8	9770.45
927.514	1954.0921	10643.85	9761.4
927.6523	1955.7001	10589.5	9704.55
927.7907	1957.3074	10562.9	9683.4
927.929	1958.9139	10520.55	9640.1
928.0673	1960.5197	10498.95	9617.95
928.2055	1962.1247	10436.25	9555.6
928.3438	1963.729	10386	9506.05
928.482	1965.3325	10371.95	9467
928.6202	1966.9353	10352.6	9471.25
928.7584	1968.5374	10311.9	9430.75
928.8965	1970.1387	10300.15	9418.3
929.0346	1971.7393	10227.6	9346
929.1727	1973.3392	10219.35	9339.85
929.3108	1974.9383	10194.05	9314.05
929.4489	1976.5366	10152.25	9270.2
929.5869	1978.1342	10127.1	9246.3
929.7249	1979.7311	10123.1	9240.7
929.8629	1981.3273	10109.8	9229
930.0009	1982.9227	10062.15	9180.45
930.1388	1984.5173	9996.45	9116.6
930.2767	1986.1112	10001.35	9122.15
930.4146	1987.7044	9963.05	9082.2
930.5525	1989.2968	9948.85	9068.05
930.6904	1990.8885	9928.35	9042.75
930.8282	1992.4795	9890.05	9008.1
930.966	1994.0697	9850.15	8969.55
931.1038	1995.6592	9832.35	8951.7
931.2415	1997.2479	9810.15	8930.3
931.3793	1998.8359	9791.65	8909.6
931.517	2000.4232	9741.05	8861.5
931.6547	2002.0097	9699.3	8820.25
931.7923	2003.5955	9672.4	8791.2
931.93	2005.1805	9687.4	8806.05
932.0676	2006.7648	9624.25	8744.4
932.2052	2008.3484	9593.65	8712.15
932.3427	2009.9312	9626.45	8746.05
932.4803	2011.5133	9577.95	8699.05
932.6178	2013.0946	9539.8	8659.95
932.7553	2014.6752	9522	8643.25
932.8928	2016.2551	9528.2	8648.7
933.0302	2017.8342	9470.65	8590.95
933.1676	2019.4126	9419.6	8540.3
933.305	2020.9902	9401.65	8524.7
933.4424	2022.5672	9374.85	8494.25
933.5798	2024.1433	9362.65	8475.05
933.7171	2025.7188	9322.1	8444.05
933.8544	2027.2935	9319.95	8437.4
933.9917	2028.8674	9276.15	8396.25
934.129	2030.4406	9251.55	8372
934.2662	2032.0131	9203	8325.15
934.4034	2033.5849	9200.85	8314.65
934.5406	2035.1559	9181.15	8303.3
934.6778	2036.7261	9155.7	8276.6
934.8149	2038.2957	9146.55	8268.7
934.952	2039.8645	9133.55	8254.45
935.0891	2041.4325	9120.6	8238.7
935.2262	2042.9998	9096.3	8216.55
935.3632	2044.5664	9084.6	8203.85
935.5002	2046.1323	9062.35	8182.2
935.6372	2047.6974	9008.05	8128.25
935.7742	2049.2617	9009.45	8129.1
935.9111	2050.8254	9042.55	8141.8
936.048	2052.3883	9001.9	8122.95
936.1849	2053.9504	8958.95	8078.35
936.3218	2055.5118	8923.9	8041.5
936.4586	2057.0725	8895.9	8014.55
936.5955	2058.6325	8871.45	7990.35
936.7323	2060.1917	8861.2	7981.65
936.869	2061.7502	8833.25	7950.7
937.0058	2063.3079	8810.45	7930.8
937.1425	2064.8649	8788.65	7905.9
937.2792	2066.4212	8778.2	7896.75
937.4159	2067.9767	8762.85	7882.35
937.5525	2069.5315	8724.9	7844.5
937.6891	2071.0856	8677.3	7795.55
937.8257	2072.6389	8680	7798.9
937.9623	2074.1915	8616.4	7737.45
938.0989	2075.7433	8585.75	7705.05
938.2354	2077.2945	8580.05	7703.05
938.3719	2078.8448	8551.65	7670.3
938.5084	2080.3945	8543.15	7663.15
938.6448	2081.9434	8526.8	7646.9
938.7812	2083.4916	8513.1	7632.45
938.9176	2085.039	8475.45	7594.2
939.054	2086.5857	8448.55	7568.85
939.1903	2088.1317	8433.75	7553.6
939.3267	2089.677	8445.4	7563.3
939.463	2091.2215	8402.85	7524.3
939.5992	2092.7652	8381.45	7500.1
939.7355	2094.3083	8357.9	7475.2
939.8717	2095.8506	8364.7	7487.55
940.0079	2097.3921	8364.4	7483.9
940.1441	2098.933	8331	7450.45
940.2802	2100.4731	8339.05	7457.35
940.4163	2102.0124	8296	7398
940.5524	2103.5511	8283.55	7404.05
940.6885	2105.089	8272.4	7390.5
940.8245	2106.6261	8253.05	7373.25
940.9606	2108.1626	8214.6	7332.55
941.0965	2109.6983	8236.5	7328.45
941.2325	2111.2332	8190.4	7309.55
941.3684	2112.7675	8161.7	7280.3
941.5044	2114.301	8150.1	7267.25
941.6403	2115.8337	8149.1	7269.55
941.7761	2117.3657	8132.9	7252.6
941.912	2118.897	8133.45	7253.8
942.0478	2120.4276	8121.25	7235
942.1835	2121.9575	8066.2	7184.4
942.3193	2123.4866	8070.2	7188.7
942.455	2125.0149	8049.75	7167.1
942.5907	2126.5426	7990.55	7110.45
942.7264	2128.0695	7978.65	7095.3
942.8621	2129.5956	7965.6	7087.1
942.9977	2131.1211	7959.5	7072.4
943.1333	2132.6458	7936.95	7057.6
943.2689	2134.1698	7904.35	7023.8
943.4044	2135.693	7895.65	7013.5
943.54	2137.2155	7885.4	7000.8
943.6755	2138.7373	7871.85	6990
943.8109	2140.2584	7836.35	6956.7
943.9464	2141.7787	7833.65	6949.55
944.0818	2143.2983	7803.2	6926.15
944.2172	2144.8171	7758.05	6879.9
944.3526	2146.3353	7740.1	6859.1
944.4879	2147.8527	7715.2	6836.15
944.6232	2149.3693	7714.45	6834.05
944.7585	2150.8853	7691.75	6810
944.8938	2152.4005	7646.65	6766.1
945.029	2153.9149	7654.9	6775.2
945.1642	2155.4287	7643.35	6762.05
945.2994	2156.9417	7605.55	6725.2
945.4346	2158.454	7583.95	6701.2
945.5697	2159.9655	7563.7	6683.8
945.7048	2161.4764	7558.75	6679.1
945.8399	2162.9865	7520.95	6640.65
945.9749	2164.4958	7517.6	6637.7
946.1099	2166.0045	7489.15	6607.7
946.2449	2167.5124	7480.95	6602.15
946.3799	2169.0195	7478.8	6598.35
946.5148	2170.526	7463.1	6583.05
946.6498	2172.0317	7421.9	6542.85
946.7846	2173.5367	7419.05	6538.05
946.9195	2175.0409	7391.8	6513.25
947.0543	2176.5445	7366.55	6487.25
947.1891	2178.0473	7358.4	6478.45
947.3239	2179.5494	7338.25	6452.7
947.4587	2181.0507	7306.2	6425.35
947.5934	2182.5513	7304.9	6424.95
947.7281	2184.0512	7278.55	6398.05
947.8628	2185.5504	7251.4	6371.65
947.9974	2187.0488	7211.75	6331.05
948.132	2188.5465	7188.9	6309.35
948.2666	2190.0435	7165.65	6285.95
948.4012	2191.5397	7165.8	6286.95
948.5357	2193.0353	7130.4	6251.55
948.6702	2194.5301	7092.1	6210.55
948.8047	2196.0241	7088.1	6209.25
948.9392	2197.5175	7052.7	6172.65
949.0736	2199.0101	7056.05	6172.6
949.208	2200.502	7031.9	6152.7
949.3424	2201.9931	6983.5	6102.75
949.4767	2203.4835	6989	6107.4
949.611	2204.9733	6975.05	6087.35
949.7453	2206.4622	6939.2	6061.1
949.8796	2207.9505	6906.9	6024.55
950.0138	2209.438	6885.3	6007.65
950.148	2210.9248	6859.7	5980.35
950.2822	2212.4109	6834.95	5954.9
950.4164	2213.8962	6820.35	5936.45
950.5505	2215.3809	6812.55	5930.55
950.6846	2216.8648	6806.15	5926.15
950.8186	2218.3479	6791.65	5908.2
950.9527	2219.8304	6764.4	5882.1
951.0867	2221.3121	6722.5	5842.45
951.2207	2222.7931	6703.8	5822.8
951.3546	2224.2733	6706.2	5824.45
951.4886	2225.7529	6655.7	5776.05
951.6225	2227.2317	6643.9	5762.05
951.7563	2228.7098	6638.75	5759.05
951.8902	2230.1872	6627	5748.7
952.024	2231.6638	6613.5	5733.65
952.1578	2233.1397	6581.1	5694.2
952.2916	2234.6149	6548.85	5667.75
952.4253	2236.0894	6541.9	5660.35
952.559	2237.5632	6526.55	5643.05
952.6927	2239.0362	6498	5617.75
952.8263	2240.5085	6484.4	5605.75
952.9599	2241.9801	6472.6	5593.35
953.0935	2243.4509	6453	5572.7
953.2271	2244.921	6438.65	5561.2
953.3606	2246.3904	6400.45	5518
953.4941	2247.8591	6382.45	5504
953.6276	2249.3271	6366.3	5487.4
953.7611	2250.7943	6354.95	5473.3
953.8945	2252.2608	6326.55	5448.6
954.0279	2253.7266	6309.35	5429.25
954.1612	2255.1917	6274.3	5395.45
954.2946	2256.656	6266.05	5386.2
954.4279	2258.1197	6237.8	5356.3
954.5612	2259.5826	6220.9	5339.35
954.6944	2261.0447	6225.95	5345.5
954.8276	2262.5062	6194.65	5313.2
954.9608	2263.9669	6188.35	5306.25
955.094	2265.4269	6181.4	5301.5
955.2271	2266.8862	6160.45	5278.8
955.3602	2268.3448	6149.55	5270
955.4933	2269.8026	6132.35	5249.45
955.6264	2271.2598	6115.2	5236.4
955.7594	2272.7162	6093.85	5213.55
955.8924	2274.1719	6096.7	5217.6
956.0253	2275.6268	6052.5	5171.55
956.1583	2277.0811	6062.55	5181.7
956.2912	2278.5346	6012.95	5135.95
956.4241	2279.9874	6012.85	5130.5
956.5569	2281.4395	6010.75	5132.5
956.6897	2282.8908	5977.6	5093.05
956.8225	2284.3414	5981	5098.55
956.9553	2285.7914	5954.75	5075.55
957.088	2287.2406	5953.05	5072.4
957.2207	2288.689	5915.85	5036
957.3534	2290.1368	5928.65	5045.7
957.486	2291.5838	5899.3	5015.6
957.6186	2293.0302	5879.65	5000.55
957.7512	2294.4758	5837.7	4957.95
957.8838	2295.9206	5845.15	4963.8
958.0163	2297.3648	5836.2	4957.55
958.1488	2298.8082	5841.6	4960.95
958.2813	2300.251	5797.25	4916.25
958.4137	2301.693	5780.4	4897.65
958.5461	2303.1343	5753.9	4873.15
958.6785	2304.5748	5748	4866
958.8108	2306.0147	5737.2	4855.65
958.9432	2307.4538	5723.3	4839.8
959.0754	2308.8922	5699.75	4820.2
959.2077	2310.3299	5683.3	4802.85
959.3399	2311.7669	5662.4	4782.7
959.4721	2313.2031	5653.5	4773.1
959.6043	2314.6387	5629	4748.15
959.7365	2316.0735	5607.15	4725.45
959.8686	2317.5076	5597.3	4715.05
960.0006	2318.941	5588.75	4708.65
960.1327	2320.3737	5567.9	4687.5
960.2647	2321.8056	5555.65	4673.55
960.3967	2323.2369	5563.7	4682.7
960.5287	2324.6674	5530.55	4647.3
960.6606	2326.0972	5540.95	4659.3
960.7925	2327.5263	5504.6	4625.8
960.9244	2328.9547	5491.2	4611.6
961.0562	2330.3823	5451	4571.35
961.1881	2331.8092	5453	4570.8
961.3198	2333.2355	5428.35	4548.25
961.4516	2334.661	5440.75	4558.7
961.5833	2336.0858	5413.5	4530.4
961.715	2337.5098	5414.9	4534.15
961.8467	2338.9332	5407.65	4528.05
961.9783	2340.3558	5379.7	4496.05
962.1099	2341.7778	5356	4473.8
962.2415	2343.199	5340.9	4458.2
962.373	2344.6195	5331.7	4451.85
962.5045	2346.0393	5314.9	4434.9
962.636	2347.4583	5316.7	4435.2
962.7675	2348.8767	5293.3	4412.05
962.8989	2350.2943	5288.8	4409
963.0303	2351.7113	5273.55	4391.4
963.1617	2353.1275	5260.3	4379.6
963.293	2354.543	5242.55	4353.1
963.4243	2355.9578	5215.45	4335.25
963.5556	2357.3718	5187.85	4307.6
963.6868	2358.7852	5181.2	4296.3
963.818	2360.1978	5162.2	4280.1
963.9492	2361.6098	5160	4279.8
964.0803	2363.021	5141.85	4257.5
964.2114	2364.4315	5110.6	4232.3
964.3425	2365.8413	5112.5	4226.35
964.4736	2367.2504	5095.45	4217.35
964.6046	2368.6587	5072.1	4190.8
964.7356	2370.0664	5056.1	4174.7
964.8666	2371.4733	5036.25	4155.2
964.9975	2372.8795	5028.2	4146.8
965.1284	2374.285	5007.65	4125.85
965.2593	2375.6899	4992.25	4113.65
965.3901	2377.0939	4988.7	4106.4
965.5209	2378.4973	4960.9	4081.55
965.6517	2379.9	4934.2	4052.2
965.7825	2381.3019	4941.25	4061.25
965.9132	2382.7032	4927.3	4045.85
966.0439	2384.1037	4904.3	4024.85
966.1745	2385.5035	4892	4010.15
966.3051	2386.9027	4878.9	3999.1
966.4357	2388.3011	4879.2	3994.7
966.5663	2389.6987	4855.15	3973.35
966.6968	2391.0957	4842.75	3960.9
966.8273	2392.492	4826.4	3946.9
966.9578	2393.8876	4783.25	3900.3
967.0882	2395.2824	4780.4	3901.7
967.2186	2396.6765	4763.4	3884.3
967.349	2398.07	4763.35	3883.4
967.4793	2399.4627	4746.25	3864.4
967.6097	2400.8547	4739.35	3858.85
967.7399	2402.246	4714.4	3828.2
967.8702	2403.6366	4686.95	3805.85
968.0004	2405.0265	4667.2	3785.55
968.1306	2406.4156	4664.6	3781.1
968.2607	2407.8041	4632.8	3749.05
968.3909	2409.1918	4611.75	3728.05
968.521	2410.5789	4607.25	3728.5
968.651	2411.9652	4610.5	3725.9
968.781	2413.3508	4588.35	3706.8
968.911	2414.7358	4559.45	3678.15
969.041	2416.12	4541.8	3661.05
969.1709	2417.5035	4533.15	3652.15
969.3008	2418.8863	4501.7	3620.7
969.4307	2420.2684	4507.25	3624.8
969.5606	2421.6497	4483.1	3601
969.6904	2423.0304	4473.05	3593.95
969.8201	2424.4104	4457.5	3576.45
969.9499	2425.7896	4437.6	3555
970.0796	2427.1682	4431.55	3548.8
970.2093	2428.546	4409.55	3529.15
970.3389	2429.9232	4412.65	3528.85
970.4685	2431.2996	4407.8	3526.5
970.5981	2432.6753	4394.2	3513.9
970.7277	2434.0503	4392.65	3510.75
970.8572	2435.4246	4357.85	3479.35
970.9867	2436.7982	4349.15	3464.2
971.1161	2438.1711	4352.45	3474.4
971.2456	2439.5433	4319.6	3439.45
971.375	2440.9148	4307.1	3419.5
971.5043	2442.2856	4307.35	3427.1
971.6336	2443.6557	4280.7	3397.5
971.7629	2445.025	4284.05	3404.4
971.8922	2446.3937	4270.1	3387.85
972.0214	2447.7617	4263.8	3382.2
972.1506	2449.1289	4256.1	3375.2
972.2798	2450.4955	4247.2	3362.55
972.4089	2451.8613	4224.3	3345.25
972.538	2453.2265	4224.3	3344.55
972.6671	2454.5909	4204.9	3322.95
972.7961	2455.9546	4187	3305.15
972.9251	2457.3177	4181.2	3299.55
973.0541	2458.68	4162.15	3278.8
973.1831	2460.0416	4168.95	3286.55
973.312	2461.4025	4167.85	3284.55
973.4408	2462.7627	4154.7	3261.5
973.5697	2464.1222	4130.6	3250.35
973.6985	2465.4811	4096.6	3214.25
973.8273	2466.8392	4085.6	3205.35
973.956	2468.1966	4097.45	3213.9
974.0847	2469.5533	4091	3209.5
974.2134	2470.9093	4075.45	3194.6
974.3421	2472.2645	4072.25	3192.1
974.4707	2473.6191	4062.45	3181.5
974.5993	2474.973	4050.5	3167.4
974.7278	2476.3262	4025.4	3142.1
974.8563	2477.6787	4002.95	3124
974.9848	2479.0305	3980	3100.2
975.1132	2480.3816	3981.1	3098.5
975.2417	2481.7319	3960.75	3080.1
975.37	2483.0816	3956.2	3074.25
975.4984	2484.4306	3949.5	3068.6
975.6267	2485.7789	3931.1	3050.55
975.755	2487.1264	3916.55	3034.55
975.8833	2488.4733	3908.3	3027.9
976.0115	2489.8195	3901.65	3014.8
976.1397	2491.165	3902.2	3018.75
976.2678	2492.5097	3876.8	2995.35
976.3959	2493.8538	3869.25	2987.3
976.524	2495.1972	3844.7	2964.15
976.6521	2496.5398	3826.6	2945.35
976.7801	2497.8818	3828.95	2946.95
976.9081	2499.2231	3816.75	2935.85
977.036	2500.5637	3797.55	2914.2
977.164	2501.9035	3784.5	2902.05
977.2918	2503.2427	3800.4	2917.8
977.4197	2504.5812	3772.5	2893.55
977.5475	2505.919	3760	2877.15
977.6753	2507.256	3751.7	2870.75
977.8031	2508.5924	3741.5	2862.1
977.9308	2509.9281	3726	2836
978.0585	2511.2631	3726.9	2845.95
978.1861	2512.5974	3705.2	2823.2
978.3137	2513.9309	3688.95	2807.15
978.4413	2515.2638	3705.65	2798.45
978.5689	2516.596	3678.65	2797.6
978.6964	2517.9275	3662.7	2780.15
978.8239	2519.2583	3648.05	2766.6
978.9513	2520.5884	3637.8	2757.05
979.0788	2521.9178	3611.45	2729.25
979.2062	2523.2465	3613.5	2733.75
979.3335	2524.5745	3595	2714.45
979.4608	2525.9018	3589.95	2706.8
979.5881	2527.2284	3592.95	2713.85
979.7154	2528.5543	3575.25	2695.8
979.8426	2529.8796	3558.45	2676.9
979.9698	2531.2041	3564.3	2683.95
980.0969	2532.5279	3548	2667.75
980.224	2533.851	3542.4	2659.7
980.3511	2535.1735	3540.7	2660.1
980.4781	2536.4952	3533.8	2653.3
980.6052	2537.8163	3529.3	2647.15
980.7321	2539.1366	3502.05	2623.6
980.8591	2540.4562	3505.15	2622.75
980.986	2541.7752	3491.85	2613.9
981.1129	2543.0935	3492.95	2611.35
981.2397	2544.411	3469.3	2586.95
981.3665	2545.7279	3479.55	2596.6
981.4933	2547.0441	3479.75	2598
981.62	2548.3596	3472.5	2586.65
981.7467	2549.6744	3458.3	2577.15
981.8734	2550.9885	3454	2564.95
982.0001	2552.3019	3432.6	2554.1
982.1267	2553.6146	3422.85	2542
982.2532	2554.9266	3427.8	2547
982.3798	2556.2379	3415.25	2531.55
982.5063	2557.5485	3410.4	2531.95
982.6327	2558.8585	3408.1	2519.05
982.7592	2560.1677	3400.45	2515.35
982.8856	2561.4762	3389.55	2508.45
983.0119	2562.7841	3387.35	2503.05
983.1383	2564.0913	3383.6	2504.2
983.2646	2565.3977	3365.1	2484.6
983.3908	2566.7035	3366.7	2485.75
983.517	2568.0086	3353.65	2471.25
983.6432	2569.313	3344.35	2464.05
983.7694	2570.6167	3342	2457.55
983.8955	2571.9197	3333.55	2453.15
984.0216	2573.222	3348.1	2463.9
984.1476	2574.5236	3331.15	2449.55
984.2737	2575.8246	3316.9	2433.6
984.3996	2577.1248	3297.75	2412.8
984.5256	2578.4244	3302.8	2423.1
984.6515	2579.7232	3298.2	2418.35
984.7774	2581.0214	3314.4	2409.6
984.9032	2582.3189	3278.55	2397.8
985.029	2583.6157	3287.25	2402.15
985.1548	2584.9118	3282.85	2403.9
985.2806	2586.2072	3253.95	2372.35
985.4063	2587.5019	3248.35	2367.6
985.5319	2588.7959	3244.85	2362.15
985.6576	2590.0893	3234.55	2351.35
985.7832	2591.3819	3223.15	2345.2
985.9087	2592.6739	3202.6	2322.45
986.0343	2593.9652	3213.4	2331.65
986.1597	2595.2557	3208.65	2326.45
986.2852	2596.5456	3195.9	2313.75
986.4106	2597.8348	3180.25	2302.3
986.536	2599.1234	3166.65	2286.2
986.6614	2600.4112	3157.95	2279.3
986.7867	2601.6983	3150	2263.1
986.912	2602.9848	3137.65	2256.25
987.0372	2604.2705	3129.95	2242.75
987.1624	2605.5556	3120.7	2240.5
987.2876	2606.84	3115	2233.6
987.4128	2608.1237	3094.5	2211.8
987.5379	2609.4067	3094	2213.85
987.6629	2610.689	3103.75	2214.8
987.788	2611.9707	3083.8	2198.1
987.913	2613.2516	3076.05	2191
988.0379	2614.5319	3055.05	2174.6
988.1629	2615.8115	3038.6	2159.05
988.2878	2617.0903	3038.8	2157.55
988.4126	2618.3685	3022.45	2141.25
988.5375	2619.6461	3019	2138.65
988.6622	2620.9229	3015.55	2134.3
988.787	2622.199	2999.85	2117.35
988.9117	2623.4745	2996.55	2116.3
989.0364	2624.7493	2984.3	2104.4
989.161	2626.0234	2978.8	2097.5
989.2857	2627.2968	2965.7	2085.9
989.4102	2628.5695	2963.95	2082.7
989.5348	2629.8415	2942.7	2062.2
989.6593	2631.1128	2930.7	2046.75
989.7837	2632.3835	2927.65	2046.3
989.9082	2633.6535	2914.75	2032.75
990.0326	2634.9228	2905.35	2024.2
990.1569	2636.1914	2889.6	2008.7
990.2812	2637.4593	2891.55	2006.4
990.4055	2638.7265	2873.85	1994.9
990.5298	2639.9931	2886.6	2005.85
990.654	2641.259	2877.25	1995.6
990.7782	2642.5242	2860.05	1976.25
990.9023	2643.7887	2853.65	1972.1
991.0264	2645.0525	2857.25	1978.8
991.1505	2646.3156	2845.95	1962.95
991.2745	2647.5781	2837.05	1955.55
991.3985	2648.8398	2835.8	1957.1
991.5225	2650.1009	2846.6	1929.7
991.6464	2651.3613	2814	1933.65
991.7703	2652.6211	2807.4	1925.3
991.8942	2653.8801	2794.15	1912.6
992.018	2655.1385	2800.3	1916.1
992.1418	2656.3961	2786.85	1906.05
992.2655	2657.6531	2791.5	1911.85
992.3892	2658.9094	2780	1898.1
992.5129	2660.1651	2767.9	1886.9
992.6366	2661.42	2760.25	1880.6
992.7602	2662.6743	2750.95	1870.9
992.8837	2663.9279	2743.9	1865.25
993.0073	2665.1808	2743.75	1863.1
993.1307	2666.433	2730.2	1849
993.2542	2667.6846	2733.35	1852.85
993.3776	2668.9354	2731.55	1847.55
993.501	2670.1856	2713.6	1831.7
993.6244	2671.4351	2711.5	1831.3
993.7477	2672.6839	2712.15	1829.95
993.8709	2673.9321	2703.15	1822.65
993.9942	2675.1795	2696.5	1815.05
994.1174	2676.4263	2699.2	1818.1
994.2405	2677.6724	2674.95	1794.15
994.3637	2678.9179	2679.55	1797.65
994.4868	2680.1626	2671.65	1792.9
994.6098	2681.4067	2663.2	1782.3
994.7328	2682.6501	2650.55	1769.95
994.8558	2683.8928	2645	1764.5
994.9788	2685.1348	2628.55	1750.7
995.1017	2686.3761	2640.65	1759.25
995.2245	2687.6168	2631	1749.35
995.3474	2688.8568	2610.7	1729.7
995.4702	2690.0961	2599.35	1719.7
995.5929	2691.3348	2594.8	1713.3
995.7156	2692.5727	2592.7	1712.25
995.8383	2693.81	2596.15	1716.6
995.961	2695.0466	2584.05	1705.65
996.0836	2696.2826	2581.45	1700.25
996.2062	2697.5178	2588.35	1687.7
996.3287	2698.7524	2573.1	1693.75
996.4512	2699.9863	2567.6	1682.4
996.5737	2701.2195	2552.45	1671.4
996.6961	2702.452	2535.65	1652.65
996.8185	2703.6839	2542.75	1660.5
996.9408	2704.9151	2522.55	1644
997.0631	2706.1456	2534.3	1652.85
997.1854	2707.3755	2516.6	1637.25
997.3077	2708.6046	2524.2	1640.7
997.4299	2709.8331	2504.5	1625.4
997.552	2711.0609	2489.25	1609.2
997.6742	2712.2881	2490.35	1610.1
997.7963	2713.5145	2487.65	1602.4
997.9183	2714.7403	2477.8	1597.5
998.0403	2715.9654	2477.55	1595.75
998.1623	2717.1899	2480.45	1584.8
998.2842	2718.4136	2454.7	1574.45
998.4062	2719.6367	2449.85	1571.5
998.528	2720.8591	2454.95	1566.9
998.6498	2722.0809	2440	1558.45
998.7716	2723.3019	2454	1569.65
998.8934	2724.5223	2430.4	1546.9
999.0151	2725.7421	2424.2	1542.2
999.1368	2726.9611	2421.35	1538.3
999.2584	2728.1795	2416.3	1530.45
999.38	2729.3972	2407.5	1526.7
999.5016	2730.6142	2409.6	1516.9
999.6231	2731.8306	2385	1502.8
999.7446	2733.0462	2371.7	1490.65
999.8661	2734.2612	2372.35	1484.2
999.9875	2735.4756	2368.25	1485.65
1000.1089	2736.6892	2349.9	1466.4
1000.2302	2737.9022	2345.9	1467.15
1000.3515	2739.1145	2334.7	1454.6
1000.4728	2740.3262	2333.65	1443.75
1000.594	2741.5372	2323.3	1444.85
1000.7152	2742.7475	2318.35	1436.8
1000.8363	2743.9571	2316.2	1435
1000.9575	2745.1661	2309.6	1422.9
1001.0785	2746.3744	2307.55	1424.85
1001.1996	2747.582	2284.05	1404.15
1001.3206	2748.7889	2297.1	1414.15
1001.4415	2749.9952	2292.15	1412.8
1001.5625	2751.2008	2282.05	1401.7
1001.6833	2752.4057	2284.7	1401.35
1001.8042	2753.61	2272.4	1392.2
1001.925	2754.8136	2264	1380.8
1002.0458	2756.0165	2253.45	1372.75
1002.1665	2757.2188	2252.6	1374.4
1002.2872	2758.4204	2240.85	1361.45
1002.4078	2759.6213	2242	1357.75
1002.5285	2760.8215	2243.6	1359.25
1002.649	2762.0211	2233.85	1349.8
1002.7696	2763.22	2230.15	1347.7
1002.8901	2764.4182	2216.15	1333.4
1003.0106	2765.6158	2218.25	1338.6
1003.131	2766.8127	2210.35	1329.95
1003.2514	2768.009	2204.55	1320.5
1003.3717	2769.2045	2192.55	1311.2
1003.492	2770.3994	2200.85	1318.1
1003.6123	2771.5936	2187.8	1308.05
1003.7325	2772.7872	2189	1311.25
1003.8527	2773.9801	2170.8	1289.65
1003.9729	2775.1723	2178.5	1280.3
1004.093	2776.3639	2168.4	1290.1
1004.2131	2777.5548	2162.3	1279.75
1004.3331	2778.745	2159.45	1279.1
1004.4531	2779.9346	2149	1267.75
1004.5731	2781.1235	2139.9	1257.15
1004.693	2782.3117	2137.15	1255.8
1004.8129	2783.4992	2132.75	1251.95
1004.9328	2784.6861	2132.35	1252
1005.0526	2785.8723	2123.5	1241.65
1005.1723	2787.0579	2122.75	1243.5
1005.2921	2788.2428	2114.3	1232.8
1005.4118	2789.427	2111.1	1230.85
1005.5314	2790.6106	2098.65	1220.55
1005.651	2791.7935	2100.4	1218.5
1005.7706	2792.9757	2096.45	1216.7
1005.8902	2794.1573	2087.55	1204.5
1006.0097	2795.3382	2080.2	1200.55
1006.1291	2796.5184	2074.55	1196.6
1006.2485	2797.698	2063.95	1183.3
1006.3679	2798.8769	2064	1185.2
1006.4873	2800.0551	2066.55	1184.6
1006.6066	2801.2327	2057.1	1175.5
1006.7258	2802.4096	2042.4	1162.1
1006.8451	2803.5859	2037.45	1155.75
1006.9642	2804.7615	2039.5	1157.95
1007.0834	2805.9364	2039.3	1161
1007.2025	2807.1106	2027.45	1147.5
1007.3216	2808.2842	2021.9	1141.8
1007.4406	2809.4572	2019	1138.85
1007.5596	2810.6294	2019.2	1137.2
1007.6785	2811.801	2010	1130.5
1007.7975	2812.972	2012	1133.55
1007.9163	2814.1423	2013.25	1134.15
1008.0352	2815.3119	2003.8	1123.45
1008.154	2816.4808	1999.2	1119.75
1008.2727	2817.6491	2005.45	1122.95
1008.3914	2818.8167	2003.85	1125
1008.5101	2819.9837	2008	1122.4
1008.6288	2821.15	1996.15	1116.5
1008.7474	2822.3157	2000.5	1121.2
1008.8659	2823.4807	2008.75	1128.15
1008.9844	2824.645	2016.35	1135.35
1009.1029	2825.8086	2016.45	1138.15
1009.2214	2826.9716	2032.4	1154.4
1009.3398	2828.134	2036.1	1154.8
1009.4581	2829.2957	2035.6	1156.65
1009.5764	2830.4567	2033	1152.75
1009.6947	2831.617	2036.1	1155.2
1009.813	2832.7767	2030.4	1150.3
1009.9312	2833.9358	2030.75	1151.2
1010.0493	2835.0941	2024	1141.35
1010.1675	2836.2519	2022.6	1143.3
1010.2855	2837.4089	2015.75	1132.5
1010.4036	2838.5653	2009.6	1130.7
1010.5216	2839.7211	1996.65	1117
1010.6396	2840.8761	1998.45	1118
1010.7575	2842.0306	1990.4	1109.6
1010.8754	2843.1843	1980.85	1100.25
1010.9932	2844.3374	1976.85	1097.5
1011.111	2845.4899	1982.45	1100.6
1011.2288	2846.6417	1989.75	1111.95
1011.3465	2847.7928	1983.5	1104.5
1011.4642	2848.9433	1976.3	1097.45
1011.5818	2850.0931	1981.35	1100.9
1011.6995	2851.2422	1981.3	1097.05
1011.817	2852.3907	1965.35	1083.15
1011.9345	2853.5385	1967.8	1086.2
1012.052	2854.6857	1978.75	1089.25
1012.1695	2855.8323	1964.9	1085.9
1012.2869	2856.9781	1972	1089.7
1012.4042	2858.1233	1965.7	1084.95
1012.5216	2859.2679	1959.25	1079.8
1012.6389	2860.4118	1965.65	1086
1012.7561	2861.555	1971.95	1088.5
1012.8733	2862.6976	1975.4	1093.05
1012.9905	2863.8395	1961.55	1083.25
1013.1076	2864.9808	1963.55	1084.2
1013.2247	2866.1214	1952.8	1072.25
1013.3417	2867.2614	1949.85	1069.25
1013.4587	2868.4007	1962.3	1080.1
1013.5757	2869.5393	1953.9	1071.15
1013.6926	2870.6773	1949.6	1067.1
1013.8095	2871.8146	1940.85	1055.65
1013.9263	2872.9513	1946.8	1063.7
1014.0431	2874.0874	1950.85	1071.4
1014.1599	2875.2227	1941.85	1059.95
1014.2766	2876.3574	1932.65	1053.3
1014.3933	2877.4915	1935.55	1055.9
1014.51	2878.6249	1929.7	1049.95
1014.6266	2879.7577	1931.35	1049.8
1014.7431	2880.8898	1943	1051.7
1014.8596	2882.0212	1924.7	1044.75
1014.9761	2883.152	1927.15	1046.7
1015.0925	2884.2821	1927.75	1046.2
1015.2089	2885.4116	1917.05	1038.35
1015.3253	2886.5405	1921.15	1042.4
1015.4416	2887.6686	1923.95	1042
1015.5579	2888.7962	1917.85	1039.95
1015.6741	2889.923	1912.6	1033.15
1015.7903	2891.0493	1909.95	1031.6
1015.9065	2892.1748	1903.9	1022.25
1016.0226	2893.2997	1896.2	1016.25
1016.1387	2894.424	1892.65	1013.35
1016.2547	2895.5476	1886.45	1005.45
1016.3707	2896.6706	1885.9	1005.5
1016.4866	2897.7929	1879.05	997.8
1016.6025	2898.9145	1876.2	997.1
1016.7184	2900.0355	1872.35	991.5
1016.8342	2901.1559	1872.85	991.7
1016.95	2902.2756	1857.75	976.85
1017.0658	2903.3946	1861.65	980.8
1017.1815	2904.513	1845.05	961.5
1017.2971	2905.6308	1847.4	967.15
1017.4127	2906.7479	1849.45	968
1017.5283	2907.8643	1848.6	968.65
1017.6439	2908.9801	1833.4	955.15
1017.7594	2910.0953	1829.7	949.3
1017.8748	2911.2098	1829.4	946.75
1017.9902	2912.3236	1830.75	943.5
1018.1056	2913.4368	1812.6	930.9
1018.2209	2914.5494	1818.25	937.15
1018.3362	2915.6613	1820.4	933.8
1018.4515	2916.7725	1804.45	923.1
1018.5667	2917.8831	1802.85	922.4
1018.6819	2918.9931	1802.4	921.8
1018.797	2920.1024	1789.9	907.55
1018.9121	2921.211	1783.75	905
1019.0271	2922.319	1779.1	898.1
1019.1421	2923.4264	1776.8	898
1019.2571	2924.5331	1769.2	890.95
1019.372	2925.6391	1759.25	880.7
1019.4869	2926.7445	1762.75	883.45
1019.6017	2927.8493	1765.75	886.05
1019.7165	2928.9534	1752.45	870.15
1019.8313	2930.0569	1759.65	877.5
1019.946	2931.1597	1769	886.4
1020.0606	2932.2619	1748.75	869.75
1020.1753	2933.3634	1751.6	870.65
1020.2899	2934.4643	1761.7	873.55
1020.4044	2935.5645	1760.9	875.85
1020.5189	2936.6641	1760.35	875.65
1020.6334	2937.763	1758.45	879.2
1020.7478	2938.8613	1752.35	872
1020.8622	2939.959	1744.55	857.9
1020.9765	2941.056	1734.1	852.75
1021.0908	2942.1523	1723.55	843.4
1021.2051	2943.248	1709.8	827.5
1021.3193	2944.3431	1702.2	823.3
1021.4334	2945.4375	1688.05	806.45
1021.5476	2946.5313	1677.15	797.35
1021.6617	2947.6244	1671.3	791.75
1021.7757	2948.7169	1658.05	777.45
1021.8897	2949.8087	1652.1	772
1022.0037	2950.8999	1637.5	753.45
1022.1176	2951.9904	1629.25	748.65
1022.2315	2953.0803	1624.95	743.35
1022.3453	2954.1696	1618.5	736.7
1022.4591	2955.2582	1608.45	730.45
1022.5728	2956.3462	1603.35	723.25
1022.6865	2957.4335	1595.1	713.05
1022.8002	2958.5202	1598	716.1
1022.9138	2959.6062	1591.1	711.95
1023.0274	2960.6916	1580.9	700.1
1023.141	2961.7764	1585.8	704.7
1023.2545	2962.8605	1579.35	699.75
1023.3679	2963.9439	1572.2	693.2
1023.4813	2965.0267	1572.35	690.5
1023.5947	2966.1089	1585.85	683.05
1023.708	2967.1905	1569.05	690
1023.8213	2968.2714	1559.8	679.6
1023.9346	2969.3516	1555.9	678.2
1024.0478	2970.4312	1563.55	676.1
1024.1609	2971.5102	1550.05	671.25
1024.274	2972.5885	1550.75	673.35
1024.3871	2973.6662	1556.3	669.75
1024.5002	2974.7432	1542.95	664
1024.6132	2975.8196	1538.25	657.65
1024.7261	2976.8954	1546.9	667.35
1024.839	2977.9705	1535.9	654.55
1024.9519	2979.045	1527.9	648.55
1025.0647	2980.1188	1528.65	648.8
1025.1775	2981.192	1522.05	643.95
1025.2902	2982.2645	1525.6	648.4
1025.4029	2983.3364	1508.25	629.2
1025.5156	2984.4077	1511.45	631.15
1025.6282	2985.4783	1516.55	630.9
1025.7407	2986.5483	1499.6	619.5
1025.8532	2987.6177	1497.55	618.25
1025.9657	2988.6864	1491.65	612.55
1026.0782	2989.7545	1488.9	606.1
1026.1906	2990.8219	1488.7	609.75
1026.3029	2991.8887	1475.55	592.45
1026.4152	2992.9548	1478.45	598
1026.5275	2994.0204	1465.6	587.2
1026.6397	2995.0852	1460.6	581.4
1026.7519	2996.1495	1464.4	582.75
1026.864	2997.2131	1461.85	581
1026.9761	2998.276	1454.35	575.2
1027.0882	2999.3383	1444.45	562.85
1027.2002	3000.4	1445.2	564.2
1027.3122	3001.4611	1436.7	558.75
1027.4241	3002.5215	1432.45	552
1027.536	3003.5812	1430.85	552.25
1027.6478	3004.6404	1435	555
1027.7596	3005.6989	1422.9	539.2
1027.8714	3006.7567	1423.6	543
1027.9831	3007.8139	1437.7	534
1028.0947	3008.8705	1412.25	530.9
1028.2064	3009.9264	1419	533.8
1028.3179	3010.9818	1412.6	532.9
1028.4295	3012.0364	1406.4	525.5
1028.541	3013.0905	1403.25	524.3
1028.6524	3014.1439	1401.6	524.1
1028.7638	3015.1966	1398.9	518.7
1028.8752	3016.2487	1399.1	518.55
1028.9865	3017.3002	1397.95	515.95
1029.0978	3018.3511	1391.15	513.75
1029.209	3019.4013	1394.4	512.5
1029.3202	3020.4509	1385.1	505.7
1029.4314	3021.4998	1389.3	508.35
1029.5425	3022.5481	1380.45	499.55
1029.6535	3023.5958	1381.7	502.6
1029.7645	3024.6428	1381.45	501
1029.8755	3025.6892	1377.8	498.5
1029.9864	3026.735	1375.8	497.85
1030.0973	3027.7802	1370.35	490.35
1030.2082	3028.8247	1366.5	486.25
1030.319	3029.8685	1370.8	490.35
1030.4297	3030.9118	1369.05	487.55
1030.5404	3031.9544	1365.75	486.5
1030.6511	3032.9963	1362.85	484.75
1030.7617	3034.0376	1361.25	479.95
1030.8723	3035.0783	1347.9	464.4
1030.9829	3036.1184	1349.1	468.2
1031.0934	3037.1578	1344.7	466.65
1031.2038	3038.1966	1352.6	471.4
1031.3142	3039.2348	1345.75	465.95
1031.4246	3040.2723	1351.05	463.3
1031.5349	3041.3092	1342	465.25
1031.6452	3042.3455	1341.65	463.1
1031.7554	3043.3811	1339.45	457.8
1031.8656	3044.4161	1335.15	452.15
1031.9758	3045.4505	1335.2	455.7
1032.0859	3046.4842	1338.6	458.3
1032.1959	3047.5173	1333.6	453.65
1032.3059	3048.5498	1330.7	450.85
1032.4159	3049.5816	1331.75	450.95
1032.5258	3050.6128	1324.85	445.6
1032.6357	3051.6434	1330.25	449.75
1032.7455	3052.6734	1327.1	447.15
1032.8553	3053.7027	1320.35	441.2
1032.9651	3054.7314	1320.6	441.65
1033.0748	3055.7594	1319.25	441.05
1033.1845	3056.7868	1312.75	432.25
1033.2941	3057.8136	1313.55	431.7
1033.4037	3058.8398	1315.3	436.15
1033.5132	3059.8653	1317.5	438.45
1033.6227	3060.8902	1314.7	433.65
1033.7321	3061.9145	1314.1	433.85
1033.8415	3062.9381	1308.5	429.6
1033.9509	3063.9612	1324.3	430.3
1034.0602	3064.9835	1298.3	417.6
1034.1694	3066.0053	1303.3	422.05
1034.2787	3067.0264	1301.85	422.15
1034.3878	3068.0469	1297.45	416.05
1034.497	3069.0668	1300.2	417.8
1034.6061	3070.086	1295.75	418
1034.7151	3071.1046	1295.5	416.75
1034.8241	3072.1226	1302.2	421.55
1034.9331	3073.1399	1299.15	419.5
1035.042	3074.1567	1286.4	405.85
1035.1508	3075.1727	1289.2	408
1035.2597	3076.1882	1285.35	406.6
1035.3684	3077.203	1282.3	402.05
1035.4772	3078.2173	1278.55	398.2
1035.5859	3079.2308	1280.85	398.45
1035.6945	3080.2438	1280.9	398.65
1035.8031	3081.2561	1278.05	396.3
1035.9117	3082.2678	1273.5	394.1
1036.0202	3083.2789	1270.4	391.2
1036.1286	3084.2893	1264.75	385.6
1036.2371	3085.2991	1266.9	388.1
1036.3454	3086.3083	1263.7	379.95
1036.4538	3087.3169	1268.85	387.55
1036.562	3088.3248	1260.5	380.15
1036.6703	3089.3321	1264.1	380.5
1036.7785	3090.3388	1261.75	383.7
1036.8866	3091.3449	1251.6	372.35
1036.9948	3092.3503	1260.45	377.45
1037.1028	3093.3551	1254.05	376.4
1037.2108	3094.3593	1254.8	376.9
1037.3188	3095.3629	1243.7	365.05
1037.4267	3096.3658	1247.3	364.55
1037.5346	3097.3681	1244.65	364.65
1037.6425	3098.3698	1243.85	361.85
1037.7503	3099.3708	1248.15	362.45
1037.858	3100.3713	1232.15	353.55
1037.9657	3101.3711	1240.65	361.05
1038.0734	3102.3702	1365.1	346.65
1038.181	3103.3688	1232.6	352.2
1038.2886	3104.3667	1236.3	358.45
1038.3961	3105.364	1225.9	347.8
1038.5036	3106.3607	1218.75	337.4
1038.611	3107.3568	1222.7	340.95
1038.7184	3108.3522	1218.75	341.1
1038.8257	3109.347	1220.35	339.3
1038.933	3110.3412	1220.75	337.3
1039.0403	3111.3348	1213.1	333.1
1039.1475	3112.3277	1215.5	336.1
1039.2547	3113.32	1208.75	329
1039.3618	3114.3117	1204.4	323.45
1039.4689	3115.3028	1211.45	332.05
1039.5759	3116.2932	1202.75	319.65
1039.6829	3117.2831	1207.85	323.45
1039.7898	3118.2723	1202.75	323.85
1039.8967	3119.2608	1195.75	315.15
1040.0035	3120.2488	1202.85	321
1040.1103	3121.2361	1196.35	315.95
1040.2171	3122.2229	1196.2	319
1040.3238	3123.209	1195.8	315
1040.4305	3124.1944	1192.25	312.8
1040.5371	3125.1793	1194.25	312.2
1040.6437	3126.1635	1189.7	309.75
1040.7502	3127.1471	1185.6	306
1040.8567	3128.1301	1178.9	299.25
1040.9631	3129.1125	1179.5	298.8
1041.0695	3130.0942	1182.1	301.85
1041.1759	3131.0753	1189.45	300.3
1041.2822	3132.0558	1179.6	297.5
1041.3884	3133.0357	1179.2	298.65
1041.4946	3134.015	1176.85	298
1041.6008	3134.9936	1180.65	299.45
1041.7069	3135.9716	1197.15	297.7
1041.813	3136.949	1167.05	286.65
1041.919	3137.9258	1175.9	290.65
1042.025	3138.902	1170.75	288.2
1042.1309	3139.8775	1166.65	286.75
1042.2368	3140.8524	1167.45	287
1042.3427	3141.8267	1168.35	285.5
1042.4485	3142.8004	1163	284.1
1042.5542	3143.7735	1168.9	283.15
1042.6599	3144.7459	1169.05	288.55
1042.7656	3145.7178	1161.6	281.2
1042.8712	3146.689	1160.6	281.85
1042.9768	3147.6596	1158.45	277.75
1043.0823	3148.6295	1157.3	277.6
1043.1878	3149.5989	1157.85	278.95
1043.2932	3150.5676	1150.3	273.05
1043.3986	3151.5357	1154.15	277.25
1043.5039	3152.5032	1147.4	267.9
1043.6092	3153.4701	1148.95	269
1043.7145	3154.4364	1149.05	268.95
1043.8197	3155.402	1141.1	262.65
1043.9248	3156.367	1147.35	265.75
1044.03	3157.3315	1180.35	262
1044.135	3158.2952	1148	269.15
1044.24	3159.2584	1137.55	256.15
1044.345	3160.221	1146	265.45
1044.4499	3161.1829	1136.75	255.65
1044.5548	3162.1442	1136.2	256.45
1044.6596	3163.105	1130.7	251.65
1044.7644	3164.065	1134.45	254.05
1044.8692	3165.0245	1133.3	251.2
1044.9739	3165.9834	1127.35	246.75
1045.0785	3166.9416	1128	247.75
1045.1831	3167.8993	1126.25	245.4
1045.2877	3168.8563	1125.8	246.2
1045.3922	3169.8127	1125.05	244.1
1045.4966	3170.7684	1127	246.95
1045.6011	3171.7236	1128.35	245
1045.7054	3172.6782	1127.15	249.15
1045.8098	3173.6321	1117.4	238.4
1045.914	3174.5854	1124	240.15
1046.0183	3175.5381	1116.5	236.85
1046.1224	3176.4902	1115.15	235.05
1046.2266	3177.4417	1115.1	235.3
1046.3307	3178.3926	1120.65	241.1
1046.4347	3179.3428	1107.75	229.4
1046.5387	3180.2924	1109.15	230.45
1046.6427	3181.2415	1112.05	232.1
1046.7466	3182.1899	1111.5	232.1
1046.8504	3183.1377	1105.8	227.45
1046.9542	3184.0848	1113.25	229.3
1047.058	3185.0314	1104.65	225.05
1047.1617	3185.9773	1103.45	223.15
1047.2654	3186.9227	1102.55	221.5
1047.369	3187.8674	1103.9	223.55
1047.4726	3188.8115	1105.55	220.15
1047.5761	3189.755	1097.55	218
1047.6796	3190.6979	1097.15	216.55
1047.783	3191.6402	1097.3	221.3
1047.8864	3192.5818	1096.7	217.35
1047.9898	3193.5229	1096.1	211.35
1048.0931	3194.4633	1093	213.1
1048.1963	3195.4031	1088.65	207.6
1048.2995	3196.3423	1089.05	209.55
1048.4027	3197.2809	1087.65	208.1
1048.5058	3198.2189	1087.15	206.1
1048.6089	3199.1563	1100.8	212.45
1048.7119	3200.0931	1087.9	209.1
1048.8148	3201.0292	1084.2	205.25
1048.9178	3201.9648	1086	207.05
1049.0206	3202.8997	1084.95	203.1
1049.1235	3203.834	1085.2	207.5
1049.2262	3204.7677	1079.25	199.55
1049.329	3205.7008	1080.55	199.35
1049.4317	3206.6333	1075.35	197.1
1049.5343	3207.5652	1078.65	197
1049.6369	3208.4964	1076.3	197.2
1049.7394	3209.4271	1079.85	200
1049.8419	3210.3571	1081.8	202.4
1049.9444	3211.2865	1073.25	191.95
1050.0468	3212.2154	1073.35	191.95
1050.1491	3213.1436	1072.8	192
1050.2514	3214.0712	1076.85	189.2
1050.3537	3214.9982	1070.45	191.8
1050.4559	3215.9246	1069.2	189.55
1050.5581	3216.8503	1066.65	188.3
1050.6602	3217.7755	1073.6	194
1050.7623	3218.7001	1064.1	186.9
1050.8643	3219.624	1066.45	185.05
1050.9663	3220.5473	1067.95	189.35
1051.0682	3221.4701	1063.6	180.95
1051.1701	3222.3922	1066.2	186.4
1051.2719	3223.3137	1060.6	181.75
1051.3737	3224.2346	1061.6	182.45
1051.4754	3225.1549	1060.3	182.4
1051.5771	3226.0746	1060.05	180.05
1051.6788	3226.9937	1060	180.75
1051.7804	3227.9121	1055.5	175.75
1051.8819	3228.83	1056.9	177.4
1051.9834	3229.7473	1055.6	177.05
1052.0849	3230.6639	1049.85	169.85
1052.1863	3231.5799	1055.1	175.7
1052.2876	3232.4954	1050.15	169.75
1052.3889	3233.4102	1048	169.2
1052.4902	3234.3244	1050.45	171.6
1052.5914	3235.238	1048.1	168.05
1052.6926	3236.151	1074.4	170.25
1052.7937	3237.0634	1046.75	167.95
1052.8948	3237.9752	1043.7	164.5
1052.9958	3238.8864	1044.6	165.6
1053.0968	3239.797	1041.4	163.05
1053.1977	3240.7069	1039.75	159.55
1053.2986	3241.6163	1043	162.7
1053.3994	3242.5251	1041.65	162.7
1053.5002	3243.4332	1035.55	157.85
1053.6009	3244.3408	1036.6	155.4
1053.7016	3245.2477	1037.55	158.2
1053.8022	3246.154	1037.25	157.7
1053.9028	3247.0598	1039.05	157.6
1054.0034	3247.9649	1036.05	155.65
1054.1039	3248.8694	1033.05	155.05
1054.2043	3249.7733	1031.35	152.35
1054.3047	3250.6766	1033.7	155.2
1054.4051	3251.5793	1032.1	149.95
1054.5054	3252.4814	1033.7	155.05
1054.6056	3253.3829	1027.1	149.4
1054.7058	3254.2838	1029.4	150.5
1054.806	3255.1841	1031.85	152.85
1054.9061	3256.0838	1025.75	145.25
1055.0061	3256.9829	1023.75	145.1
1055.1062	3257.8814	1028.6	148.3
1055.2061	3258.7792	1021.15	137.7
1055.306	3259.6765	1024.45	142.15
1055.4059	3260.5731	1016.9	137.7
1055.5057	3261.4692	1015.9	136.3
1055.6055	3262.3647	1019.9	140.5
1055.7052	3263.2595	1012.75	133.95
1055.8049	3264.1538	1011.4	132
1055.9045	3265.0474	1009.5	130.65
1056.0041	3265.9404	1005.8	126.45
1056.1036	3266.8329	1005.7	125.95
1056.2031	3267.7247	1014.55	123.85
1056.3025	3268.616	1005.6	126.95
1056.4019	3269.5066	999.15	118.2
1056.5013	3270.3966	996.7	114.35
1056.6005	3271.286	988.2	110.4
