Software Version:	3.9.2.0
Unit SN:	10000200
Spectrometer SN:	6960
Date:	3/6/2024 9:45:04 AM
Data Line Index:	25
Spectral Points:	2048
Integration time (ms):	125
Averages:	20
Delay (ms):	30
Sequence Number:	1
Processing:	dark subtract
Laser Power (mW):	300
Laser Current (mA):	827
Laser Diode Temp (C):	25.1
Laser Case Temp (C):	24.1
System Temp (C):	23.9
Spectrometer Temp (C):	21.5
CCD Temp (C):	-0.015
Secondary Temp (C):	20.01
Heatsink Temp (C):	17.884
CCDPCB Temp (C):	30.516
SecondaryPCB Temp (C):	25.569

Wavelength	RamanShift	Raw Counts	Dark Subtracted
787.061	30.1047	460.05	51.8
787.2016	32.3739	458.45	52.6
787.3422	34.6426	461.7	56.2
787.4828	36.9109	467.05	57.6
787.6235	39.1787	475.45	64.1
787.7642	41.4461	482.95	66.9
787.9049	43.7131	490.4	71.3
788.0456	45.9796	497.25	76.4
788.1863	48.2456	503.9	76.9
788.3271	50.5112	518	88.6
788.4679	52.7764	523.65	90.45
788.6087	55.0411	529.55	92.4
788.7496	57.3054	543.1	101.25
788.8904	59.5692	550.3	105.85
789.0313	61.8326	556.8	109.15
789.1722	64.0955	569.3	119.25
789.3132	66.3579	584.5	127.75
789.4541	68.6199	604.05	143.3
789.5951	70.8815	631.9	168.1
789.7361	73.1426	683.7	216.8
789.8771	75.4032	829.25	359.9
790.0181	77.6634	1178.9	707.6
790.1592	79.9231	2008	1533.1
790.3003	82.1824	3773.05	3290.05
790.4414	84.4412	6825.15	6333.25
790.5825	86.6995	10969.85	10465.7
790.7237	88.9574	15037.6	14525.3
790.8648	91.2148	18068.65	17552.5
791.006	93.4717	19725.8	19203.8
791.1472	95.7282	20460.1	19936.3
791.2885	97.9842	20822.9	20298.7
791.4297	100.2398	20951.55	20422.95
791.571	102.4949	21026.8	20497.15
791.7123	104.7495	21024.55	20488.9
791.8536	107.0036	21016.8	20481.4
791.9949	109.2573	21034.3	20498
792.1363	111.5105	21049.25	20511.65
792.2777	113.7632	21005.7	20468.8
792.4191	116.0154	21076.45	20528.05
792.5605	118.2672	21107.1	20563.2
792.7019	120.5185	21119.9	20573.8
792.8434	122.7693	21196.4	20644.7
792.9849	125.0197	21246.8	20694.2
793.1264	127.2696	21217.85	20659
793.2679	129.519	21282.3	20721.65
793.4094	131.7679	21338.1	20774.75
793.551	134.0163	21374.35	20811.25
793.6926	136.2642	21425.55	20854.35
793.8342	138.5117	21474.15	20903.1
793.9758	140.7587	21476.85	20906.15
794.1175	143.0052	21503.7	20928.4
794.2591	145.2512	21498.6	20922.9
794.4008	147.4967	21446.6	20869.1
794.5425	149.7417	21445.45	20863.75
794.6842	151.9863	21445.25	20860.4
794.826	154.2304	21483.6	20894.45
794.9677	156.4739	21444.65	20848.7
795.1095	158.717	21454.15	20861.75
795.2513	160.9596	21485.5	20886.6
795.3931	163.2017	21508.3	20907.25
795.535	165.4433	21532.3	20928.1
795.6768	167.6844	21543.65	20937
795.8187	169.925	21554.05	20945.5
795.9606	172.1651	21488.2	20874.15
796.1025	174.4047	21514.6	20899.55
796.2445	176.6439	21516.8	20898.65
796.3864	178.8825	21510	20889.2
796.5284	181.1206	21532.65	20908.45
796.6704	183.3582	21564.05	20935.4
796.8124	185.5954	21566.65	20937
796.9544	187.832	21579.35	20946.5
797.0965	190.0681	21652.8	21012.9
797.2386	192.3037	21701.5	21063.5
797.3806	194.5388	21696.15	21055.05
797.5228	196.7734	21762.05	21118.65
797.6649	199.0075	21839.1	21195.6
797.807	201.2411	21967.85	21322.7
797.9492	203.4742	22011.95	21362.8
798.0914	205.7068	22063.9	21410.85
798.2336	207.9389	22091.1	21439.25
798.3758	210.1704	22152.05	21509.7
798.518	212.4015	22124.35	21491.4
798.6603	214.632	22182.7	21551.4
798.8025	216.862	22204.25	21574.55
798.9448	219.0915	22240.75	21610.95
799.0871	221.3205	22266.25	21633.8
799.2294	223.549	22318.3	21688.05
799.3718	225.777	22382.25	21750.5
799.5141	228.0044	22375.4	21735.15
799.6565	230.2314	22468.35	21823.4
799.7989	232.4578	22429	21783.5
799.9413	234.6837	22481.25	21827.3
800.0837	236.909	22516.9	21860.45
800.2262	239.1339	22520.1	21836.5
800.3687	241.3582	22563.9	21896.9
800.5111	243.582	22542.4	21843.4
800.6536	245.8053	22598.45	21914.1
800.7961	248.0281	22594.2	21915.55
800.9387	250.2503	22620.15	21940.45
801.0812	252.472	22623.4	21940.85
801.2238	254.6932	22672.6	21991.85
801.3664	256.9139	22606.05	21921.55
801.509	259.134	22633.15	21942.85
801.6516	261.3536	22663.75	21977.4
801.7942	263.5727	22738.6	22049.45
801.9369	265.7912	22701.65	22014.85
802.0795	268.0092	22813.6	22124.2
802.2222	270.2267	22831.85	22143.1
802.3649	272.4436	22872.4	22181.65
802.5076	274.6601	22879.45	22174.9
802.6504	276.8759	22867.3	22167.9
802.7931	279.0913	22926.05	22227.75
802.9359	281.3061	22905.3	22204.15
803.0787	283.5204	22985.5	22283.8
803.2215	285.7341	22985.6	22280.35
803.3643	287.9473	23012.3	22296.3
803.5071	290.16	23063.95	22354.95
803.6499	292.3721	22986.3	22283.35
803.7928	294.5837	22991.5	22287.85
803.9357	296.7947	22979.7	22273
804.0786	299.0052	22968.55	22263.2
804.2215	301.2152	22918.45	22209.35
804.3644	303.4246	22944.75	22237.8
804.5074	305.6334	22898.2	22191.4
804.6503	307.8418	22906.35	22194.5
804.7933	310.0495	22862.65	22150.65
804.9363	312.2568	22862.9	22150.9
805.0793	314.4635	22782.3	22065.8
805.2223	316.6696	22714.5	21996.5
805.3653	318.8752	22653.35	21924.6
805.5084	321.0802	22620.35	21900.6
805.6514	323.2847	22647.35	21926.85
805.7945	325.4887	22600.65	21880.1
805.9376	327.692	22580.3	21856.55
806.0807	329.8949	22689.8	21968
806.2238	332.0972	22677.8	21952.95
806.367	334.2989	22747.4	22015.1
806.5101	336.5001	22674.1	21945.1
806.6533	338.7007	22691.4	21962.1
806.7965	340.9008	22685.2	21953.2
806.9397	343.1003	22670.85	21940.15
807.0829	345.2992	22633.35	21899.3
807.2261	347.4976	22635.3	21901.5
807.3693	349.6955	22572.85	21831.45
807.5126	351.8927	22619	21878.4
807.6559	354.0895	22590.5	21837.5
807.7991	356.2856	22604.35	21859.25
807.9424	358.4812	22536.6	21793.35
808.0857	360.6763	22577.15	21830.1
808.2291	362.8707	22543.55	21794.9
808.3724	365.0646	22548.8	21795.8
808.5158	367.258	22482	21729.6
808.6591	369.4508	22459.55	21702.4
808.8025	371.643	22509.35	21752.8
808.9459	373.8346	22458.2	21699.35
809.0893	376.0257	22454.15	21693.95
809.2327	378.2162	22430.9	21674.5
809.3762	380.4062	22453.9	21697
809.5196	382.5956	22374.3	21617.85
809.6631	384.7844	22366.85	21615.35
809.8066	386.9726	22307.6	21555.45
809.9501	389.1603	22263.65	21515.4
810.0936	391.3474	22249.25	21458.75
810.2371	393.5339	22220.35	21466.7
810.3806	395.7199	22172.65	21421.55
810.5241	397.9052	22171.7	21416.5
810.6677	400.09	22143.8	21388.25
810.8113	402.2743	22185.05	21429.75
810.9548	404.4579	22185.05	21427.6
811.0984	406.641	22230.5	21470.95
811.2421	408.8235	22250.15	21488.9
811.3857	411.0054	22297.2	21533.5
811.5293	413.1868	22384.85	21615.15
811.673	415.3675	22396.45	21626.6
811.8166	417.5477	22391.8	21620.7
811.9603	419.7273	22336.05	21562.6
812.104	421.9064	22217.85	21440.8
812.2477	424.0848	22121.4	21348.95
812.3914	426.2627	22019.5	21244.55
812.5351	428.4399	21999.15	21221.95
812.6788	430.6166	21909	21129.75
812.8226	432.7928	21848.15	21066.5
812.9663	434.9683	21767.35	20987.35
813.1101	437.1432	21760.4	20977.8
813.2539	439.3176	21691.5	20910.95
813.3977	441.4914	21594.6	20814.4
813.5415	443.6645	21585.45	20802.5
813.6853	445.8371	21510.1	20727.45
813.8291	448.0091	21433.5	20651.3
813.973	450.1806	21358.55	20571.5
814.1168	452.3514	21296.35	20511.7
814.2607	454.5216	21310.4	20518.6
814.4046	456.6913	21182.8	20395.95
814.5485	458.8603	21198	20410.85
814.6924	461.0288	21228.1	20441.95
814.8363	463.1967	21165.4	20379.4
814.9802	465.3639	21177.25	20389.8
815.1241	467.5306	21116.8	20328
815.2681	469.6967	21098.85	20312.75
815.412	471.8622	21018.6	20230.85
815.556	474.0271	21004.2	20218.8
815.7	476.1914	21006.6	20213.85
815.844	478.3551	21007.3	20217.15
815.988	480.5182	21014.8	20223
816.132	482.6807	21007.95	20218.8
816.276	484.8426	21069.35	20278.55
816.4201	487.0039	21061.65	20269.95
816.5641	489.1647	21084.1	20290.1
816.7082	491.3248	21140	20347.95
816.8522	493.4843	21098.7	20305.2
816.9963	495.6432	21081.1	20286.6
817.1404	497.8015	21009.65	20210.15
817.2845	499.9592	21045.25	20247.1
817.4286	502.1163	21027.35	20229.25
817.5727	504.2728	20894	20093.1
817.7168	506.4287	20960.5	20166.1
817.861	508.5839	20886.35	20086.4
818.0051	510.7386	20866.45	20064.5
818.1493	512.8927	20878.65	20073.4
818.2935	515.0461	20887.95	20086.3
818.4377	517.199	20842.15	20037.9
818.5818	519.3512	20826.95	20021.75
818.726	521.5029	20849.6	20037.05
818.8703	523.6539	20857	20052.55
819.0145	525.8043	20856.1	20048.7
819.1587	527.9541	20787.6	19979.1
819.303	530.1033	20741.5	19931.45
819.4472	532.2519	20694.95	19886.65
819.5915	534.3999	20677.7	19866.05
819.7357	536.5472	20681.75	19872.55
819.88	538.694	20633.45	19823.55
820.0243	540.8401	20643.2	19833.35
820.1686	542.9856	20669.65	19858.55
820.3129	545.1305	20608.5	19795.05
820.4572	547.2748	20674.1	19862.15
820.6016	549.4185	20638.9	19823.9
820.7459	551.5615	20597.95	19784
820.8902	553.704	20597.55	19783.5
821.0346	555.8458	20550.25	19736.2
821.1789	557.987	20579.5	19765.35
821.3233	560.1276	20538	19722.7
821.4677	562.2675	20624.65	19810.85
821.6121	564.4069	20623.35	19810.35
821.7565	566.5456	20572.25	19758.75
821.9009	568.6837	20568.6	19753.15
822.0453	570.8212	20433.85	19622.1
822.1897	572.958	20380.15	19563.15
822.3342	575.0942	20335.95	19524
822.4786	577.2299	20295.2	19477.6
822.6231	579.3648	20182.8	19367.4
822.7675	581.4992	20109.6	19295.7
822.912	583.6329	20058.5	19245.9
823.0565	585.766	20030.25	19215.6
823.201	587.8985	19991.45	19174.75
823.3454	590.0304	19940.45	19108.55
823.4899	592.1616	19973.2	19149.85
823.6345	594.2922	19910.55	19089.5
823.779	596.4222	19869.3	19043.95
823.9235	598.5515	19782.25	18957.65
824.068	600.6802	19739.15	18917.05
824.2126	602.8083	19625.1	18800.7
824.3571	604.9358	19620.35	18796.75
824.5017	607.0626	19528.55	18704.5
824.6462	609.1888	19532.1	18704.75
824.7908	611.3144	19536.3	18708.35
824.9354	613.4393	19487.95	18661.9
825.08	615.5636	19486.35	18658.5
825.2246	617.6873	19540.2	18715
825.3692	619.8103	19566.05	18737.8
825.5138	621.9327	19502.55	18673.8
825.6584	624.0544	19494.65	18668.55
825.803	626.1756	19419.35	18590.1
825.9477	628.2961	19417.4	18587.6
826.0923	630.4159	19338.05	18508.4
826.237	632.5351	19337.15	18506.6
826.3816	634.6537	19281.9	18451.95
826.5263	636.7716	19249.2	18416
826.6709	638.8889	19270.75	18437.55
826.8156	641.0056	19294.8	18460.1
826.9603	643.1216	19244.6	18412.05
827.105	645.237	19279.75	18444.85
827.2497	647.3518	19236.2	18401.95
827.3944	649.4659	19213.2	18381.75
827.5391	651.5793	19161.65	18330.55
827.6838	653.6922	19086.1	18253.05
827.8285	655.8043	19071.65	18239.55
827.9733	657.9159	19049.9	18215.3
828.118	660.0268	19003.35	18167
828.2627	662.137	18989.55	18153.9
828.4075	664.2466	18966.9	18129.15
828.5522	666.3556	18938.9	18104.45
828.697	668.4639	18914.9	18074.95
828.8418	670.5716	18906.6	18069.45
828.9865	672.6786	18927.65	18088.25
829.1313	674.785	18824.05	17981.4
829.2761	676.8907	18778.25	17940.95
829.4209	678.9958	18759.7	17921.3
829.5657	681.1002	18729.7	17890.65
829.7105	683.204	18719.2	17876.8
829.8553	685.3072	18693.85	17851.5
830.0001	687.4097	18595.15	17754.9
830.1449	689.5115	18651.5	17810.65
830.2898	691.6127	18609.45	17769.25
830.4346	693.7132	18562.25	17721.55
830.5794	695.8131	18579.2	17714.05
830.7243	697.9123	18593.55	17749.05
830.8691	700.0109	18534.1	17687.75
831.014	702.1089	18532.3	17688.85
831.1588	704.2061	18500.7	17657.8
831.3037	706.3028	18505.9	17658.95
831.4486	708.3987	18492.65	17647.35
831.5935	710.4941	18440.55	17597.6
831.7383	712.5887	18469.15	17624.8
831.8832	714.6827	18457.1	17608.6
832.0281	716.7761	18447	17601.05
832.173	718.8688	18435.85	17588.65
832.3179	720.9608	18357.85	17508.95
832.4628	723.0522	18382.85	17532.4
832.6077	725.1429	18338.5	17490.7
832.7527	727.233	18322.75	17473.75
832.8976	729.3224	18407.5	17559.15
833.0425	731.4112	18379.85	17531.1
833.1874	733.4993	18317.95	17466
833.3324	735.5867	18253.05	17401.9
833.4773	737.6735	18222.15	17371.5
833.6222	739.7596	18168.85	17317.4
833.7672	741.845	18102.55	17251.55
833.9122	743.9298	18060.55	17207.3
834.0571	746.014	18064.95	17216.6
834.2021	748.0974	18022.9	17172.25
834.347	750.1802	18019.2	17167.2
834.492	752.2624	17960.7	17110
834.637	754.3439	17887.05	17032.05
834.782	756.4247	17837.1	16975.95
834.9269	758.5048	17765.6	16915.75
835.0719	760.5843	17740.6	16888.85
835.2169	762.6631	17688.75	16837.25
835.3619	764.7413	17685	16833.1
835.5069	766.8188	17704.9	16852.1
835.6519	768.8956	17695.25	16839.55
835.7969	770.9718	17717.65	16862.95
835.9419	773.0473	17635.1	16780.45
836.0869	775.1221	17642.9	16790
836.232	777.1962	17562.85	16711.2
836.377	779.2697	17566	16709.35
836.522	781.3426	17551.25	16675.3
836.667	783.4147	17531.9	16673.85
836.8121	785.4862	17543.5	16688.5
836.9571	787.557	17442	16588.95
837.1021	789.6271	17390.9	16534.8
837.2472	791.6966	17294.9	16437
837.3922	793.7654	17196.35	16339.45
837.5373	795.8335	17154.8	16300.1
837.6823	797.901	17074.45	16217.75
837.8274	799.9678	17057.95	16199.6
837.9724	802.0339	17023.75	16167
838.1175	804.0993	17055.45	16188.95
838.2626	806.1641	16982.95	16124.05
838.4076	808.2282	16904.1	16048
838.5527	810.2916	16902.95	16043
838.6978	812.3544	16861.75	16005.3
838.8428	814.4164	16837.75	15980.15
838.9879	816.4778	16852.1	15991.1
839.133	818.5385	16834.25	15978.05
839.2781	820.5986	16820.55	15963.65
839.4232	822.658	16816.05	15956
839.5682	824.7166	16815.05	15957.7
839.7133	826.7747	16890.55	16032.2
839.8584	828.832	16883.55	16022.9
840.0035	830.8886	16821.4	15958.9
840.1486	832.9446	16836.15	15974.4
840.2937	834.9999	16804.35	15945
840.4388	837.0545	16752.1	15886.5
840.5839	839.1085	16740.7	15879.3
840.729	841.1618	16632.55	15768.4
840.8741	843.2143	16599.35	15740.55
841.0192	845.2662	16505.1	15643.35
841.1643	847.3175	16452.85	15592.2
841.3095	849.368	16440	15577.4
841.4546	851.4179	16402.1	15542.05
841.5997	853.467	16369.85	15507.5
841.7448	855.5155	16340.3	15476.85
841.8899	857.5633	16297.3	15436.7
842.0351	859.6105	16283.1	15422.5
842.1802	861.6569	16247.2	15384.3
842.3253	863.7027	16216.7	15353.1
842.4704	865.7478	16191.5	15328.3
842.6156	867.7922	16183.9	15318.8
842.7607	869.8359	16138	15273.5
842.9058	871.8789	16126.35	15261.25
843.0509	873.9212	16133.75	15237.1
843.1961	875.9629	16061.3	15196.7
843.3412	878.0039	16033.3	15166.3
843.4863	880.0441	16045.35	15180.6
843.6315	882.0837	16056.95	15191.15
843.7766	884.1226	16024.25	15157.6
843.9218	886.1609	16045.2	15182.4
844.0669	888.1984	16090.95	15226.3
844.212	890.2352	16129.95	15267.85
844.3572	892.2714	16073.7	15202.15
844.5023	894.3069	16052.55	15184.05
844.6475	896.3416	15960.5	15093.85
844.7926	898.3757	15937.85	15070.75
844.9377	900.4091	15899.5	15031.35
845.0829	902.4418	15870.5	14998.6
845.228	904.4739	15820.85	14954.5
845.3732	906.5052	15853.15	14987.45
845.5183	908.5358	15808.15	14942.4
845.6635	910.5658	15767.7	14896.95
845.8086	912.595	15714.85	14845.8
845.9538	914.6236	15658	14788.35
846.0989	916.6515	15627.75	14760.7
846.2441	918.6786	15559.85	14689
846.3892	920.7051	15585.35	14715.95
846.5344	922.7309	15592.3	14722.5
846.6795	924.756	15526.35	14656.1
846.8246	926.7804	15540.35	14669.2
846.9698	928.8041	15418.55	14546.6
847.1149	930.8272	15436.85	14565.75
847.2601	932.8495	15353.55	14483.35
847.4052	934.8711	15364	14489.9
847.5504	936.892	15322.9	14454
847.6955	938.9123	15250.9	14381.7
847.8407	940.9318	15214.45	14342.5
847.9858	942.9506	15200.6	14331.85
848.131	944.9688	15132.65	14261.65
848.2761	946.9862	15127.05	14257.7
848.4213	949.003	15048.6	14178.25
848.5664	951.019	15005.75	14134.7
848.7115	953.0344	14968.55	14097
848.8567	955.0491	14914.05	14041.15
849.0018	957.063	14907.65	14036.75
849.147	959.0763	14914.1	14044.9
849.2921	961.0888	14873.7	14000.65
849.4373	963.1007	14864.05	13991.85
849.5824	965.1119	14840.9	13972
849.7275	967.1223	14794.8	13926.1
849.8727	969.1321	14801.4	13933.4
850.0178	971.1412	14790	13920.05
850.1629	973.1495	14737.4	13865.6
850.3081	975.1572	14758.85	13838.15
850.4532	977.1641	14706.55	13835.75
850.5983	979.1704	14654.7	13781.35
850.7435	981.1759	14623.8	13747.15
850.8886	983.1808	14612.55	13739.05
851.0337	985.1849	14563.6	13680.7
851.1788	987.1884	14516.8	13643.25
851.324	989.1911	14493.55	13616.8
851.4691	991.1932	14468.05	13593.35
851.6142	993.1945	14410.75	13538.2
851.7593	995.1951	14345.95	13470.95
851.9045	997.1951	14358.05	13478
852.0496	999.1943	14302.6	13430.45
852.1947	1001.1928	14230	13356.15
852.3398	1003.1906	14175.9	13303.4
852.4849	1005.1877	14196.5	13320.4
852.63	1007.1841	14145.95	13272.2
852.7751	1009.1798	14113.55	13240.1
852.9202	1011.1748	14044.55	13171.5
853.0653	1013.1691	13991.75	13117.35
853.2104	1015.1627	13924.25	13048.25
853.3555	1017.1556	13854.5	12981.05
853.5006	1019.1477	13793.05	12917.85
853.6457	1021.1392	13701.6	12828.95
853.7908	1023.1299	13689.2	12815.7
853.9359	1025.12	13643	12769.45
854.081	1027.1093	13595.65	12723.75
854.2261	1029.0979	13565.8	12693.9
854.3712	1031.0859	13495.7	12624.2
854.5163	1033.0731	13483.8	12609.7
854.6613	1035.0596	13447.8	12574.95
854.8064	1037.0454	13390.35	12514
854.9515	1039.0304	13351.95	12474.6
855.0965	1041.0148	13288.05	12415.5
855.2416	1042.9985	13250.35	12371.95
855.3867	1044.9814	13214.4	12341.95
855.5317	1046.9636	13146.25	12269.1
855.6768	1048.9452	13141.45	12267.55
855.8219	1050.926	13108.3	12234.9
855.9669	1052.9061	13084.9	12211.1
856.112	1054.8855	13043.75	12168.4
856.257	1056.8642	13019.1	12143.3
856.4021	1058.8421	13030.2	12149.25
856.5471	1060.8194	12967.65	12091.5
856.6921	1062.7959	12960.8	12083.65
856.8372	1064.7717	12927.8	12050.65
856.9822	1066.7469	12896.1	12018.6
857.1272	1068.7213	12891.45	12013.75
857.2723	1070.695	12902.65	12026.45
857.4173	1072.6679	12836.55	11959.25
857.5623	1074.6402	12855.9	11978.65
857.7073	1076.6117	12838.5	11956.55
857.8523	1078.5826	12817.15	11941.05
857.9973	1080.5527	12740.05	11860.5
858.1423	1082.5221	12683.2	11806.75
858.2873	1084.4908	12672.2	11795.65
858.4323	1086.4587	12592	11713.25
858.5773	1088.426	12600.85	11723.05
858.7223	1090.3925	12538.55	11655.4
858.8673	1092.3584	12522.95	11645.65
859.0123	1094.3235	12488.45	11611.55
859.1573	1096.2879	12471.55	11591.7
859.3022	1098.2515	12430.55	11554.5
859.4472	1100.2145	12478.7	11602.35
859.5922	1102.1767	12466.7	11587.45
859.7371	1104.1382	12481.4	11603.5
859.8821	1106.099	12453.3	11573.3
860.027	1108.0591	12409.75	11533.25
860.172	1110.0185	12413.4	11534.5
860.3169	1111.9771	12446.2	11568.8
860.4619	1113.9351	12420	11541.45
860.6068	1115.8923	12414.45	11535.65
860.7517	1117.8488	12424.9	11544.55
860.8967	1119.8045	12323.75	11445.75
861.0416	1121.7596	12266.8	11387.9
861.1865	1123.7139	12169.25	11291.6
861.3314	1125.6675	12113.65	11235
861.4763	1127.6204	12109.25	11232.3
861.6212	1129.5726	12096.65	11217.95
861.7661	1131.524	12068.65	11190.05
861.911	1133.4748	12015.75	11136.6
862.0559	1135.4248	11978.7	11098
862.2008	1137.3741	11932.3	11052.1
862.3457	1139.3226	11885.75	11003.5
862.4905	1141.2705	11866.5	10986.75
862.6354	1143.2176	11808.2	10924
862.7803	1145.164	11822.45	10943.55
862.9251	1147.1097	11803.45	10923.05
863.07	1149.0546	11770.75	10889.1
863.2148	1150.9989	11759.1	10879.55
863.3597	1152.9424	11695.3	10816.25
863.5045	1154.8852	11681.15	10801.15
863.6493	1156.8272	11684.55	10806.35
863.7942	1158.7686	11679	10792.25
863.939	1160.7092	11630.5	10750.8
864.0838	1162.6491	11573.45	10689.95
864.2286	1164.5883	11585.55	10708.15
864.3734	1166.5267	11572.2	10689.65
864.5182	1168.4644	11557.5	10678.85
864.663	1170.4014	11555.45	10669.95
864.8078	1172.3377	11584.75	10707.4
864.9526	1174.2732	11579.25	10698.2
865.0974	1176.2081	11633.4	10753.75
865.2421	1178.1421	11694.45	10810.15
865.3869	1180.0755	11712.55	10833.4
865.5317	1182.0082	11720.95	10839.8
865.6764	1183.9401	11699.45	10818.85
865.8212	1185.8713	11619.2	10739.35
865.9659	1187.8017	11529.3	10651.4
866.1106	1189.7315	11456.4	10579.4
866.2554	1191.6605	11319.55	10440.9
866.4001	1193.5888	11276.6	10400.05
866.5448	1195.5163	11258.15	10380.1
866.6895	1197.4432	11165.95	10285.3
866.8342	1199.3693	11158.55	10282.5
866.9789	1201.2947	11137.35	10249.4
867.1236	1203.2193	11066.2	10184.9
867.2683	1205.1432	11039.8	10159.45
867.413	1207.0664	11027.2	10145.65
867.5576	1208.9889	10965.95	10082.75
867.7023	1210.9106	10926.4	10046.4
867.847	1212.8316	10874.95	9995.4
867.9916	1214.7519	10876.55	9981.9
868.1363	1216.6715	10842.65	9962.05
868.2809	1218.5903	10837.4	9956.25
868.4255	1220.5084	10816	9933.15
868.5701	1222.4257	10848.5	9968.45
868.7148	1224.3424	10782.5	9902.55
868.8594	1226.2583	10782.25	9897.6
869.004	1228.1735	10778.7	9897.1
869.1486	1230.0879	10744.1	9860.2
869.2932	1232.0016	10703.85	9824.25
869.4377	1233.9146	10718.3	9833.7
869.5823	1235.8269	10709.6	9828.3
869.7269	1237.7384	10722.55	9840.8
869.8715	1239.6492	10671.55	9789.45
870.016	1241.5592	10685.75	9805.65
870.1606	1243.4686	10654.75	9772.35
870.3051	1245.3772	10688.65	9807.35
870.4496	1247.285	10734.6	9850.8
870.5941	1249.1922	10761	9879.35
870.7387	1251.0986	10780.3	9898.75
870.8832	1253.0042	10772.4	9891
871.0277	1254.9092	10817	9937.35
871.1722	1256.8134	10848.55	9967.45
871.3167	1258.7169	10865.8	9983.25
871.4611	1260.6196	10856.2	9975.65
871.6056	1262.5216	10867.3	9983.85
871.7501	1264.4229	10825.75	9942.45
871.8945	1266.3234	10820.8	9938.4
872.039	1268.2232	10775.7	9891.6
872.1834	1270.1223	10706.7	9825.6
872.3278	1272.0207	10690.85	9808.8
872.4723	1273.9183	10633.4	9747.2
872.6167	1275.8151	10630.2	9748.9
872.7611	1277.7113	10665.15	9782.7
872.9055	1279.6067	10679.25	9797.55
873.0499	1281.5014	10757.4	9872.25
873.1943	1283.3953	10847.65	9965.6
873.3386	1285.2885	10932.55	10052.4
873.483	1287.181	10992.75	10109.9
873.6274	1289.0727	11058.2	10177.55
873.7717	1290.9637	11008.25	10125.95
873.9161	1292.854	10934.35	10055.2
874.0604	1294.7435	10833.15	9951.75
874.2047	1296.6323	10790.3	9907.55
874.349	1298.5204	10718.95	9833.05
874.4933	1300.4077	10672.3	9787.6
874.6376	1302.2943	10634.4	9753.1
874.7819	1304.1802	10622.05	9738.35
874.9262	1306.0653	10569.85	9684.6
875.0705	1307.9497	10516	9634.5
875.2147	1309.8333	10480.8	9596.5
875.359	1311.7162	10469	9588.1
875.5032	1313.5984	10418.25	9531.8
875.6475	1315.4798	10385.2	9487.85
875.7917	1317.3605	10363.15	9465.7
875.9359	1319.2405	10363.55	9476.05
876.0801	1321.1197	10337.9	9452.4
876.2243	1322.9982	10292.1	9400.75
876.3685	1324.876	10251	9366.65
876.5127	1326.753	10177.55	9296.05
876.6569	1328.6293	10122.95	9238.7
876.801	1330.5048	10052.65	9170
876.9452	1332.3796	9977.75	9096.05
877.0893	1334.2537	9980.4	9073.85
877.2335	1336.127	9921.8	9039
877.3776	1337.9996	9870	8987.5
877.5217	1339.8714	9818	8934.8
877.6658	1341.7426	9811.3	8883.95
877.8099	1343.6129	9802.35	8917.8
877.954	1345.4826	9784.85	8901.8
878.0981	1347.3515	9754.6	8867.45
878.2422	1349.2196	9723	8839
878.3862	1351.087	9717.3	8834.8
878.5303	1352.9537	9694.65	8809.4
878.6743	1354.8197	9713.5	8832.05
878.8184	1356.6849	9724.6	8843
878.9624	1358.5493	9691.4	8807.85
879.1064	1360.4131	9683.7	8801
879.2504	1362.276	9707.85	8822.65
879.3944	1364.1383	9676.6	8792.15
879.5384	1365.9998	9685.05	8794.6
879.6823	1367.8606	9667.55	8783.25
879.8263	1369.7206	9623.6	8738.75
879.9702	1371.5799	9600.65	8713.3
880.1142	1373.4384	9561.75	8679.6
880.2581	1375.2962	9526.05	8640
880.402	1377.1533	9463.35	8579.7
880.5459	1379.0096	9424.9	8541.95
880.6898	1380.8652	9380.35	8497.35
880.8337	1382.7201	9318	8436.5
880.9776	1384.5742	9251.95	8367.4
881.1215	1386.4275	9223.85	8341.15
881.2653	1388.2802	9194.9	8310.85
881.4092	1390.132	9154.45	8270.6
881.553	1391.9832	9152.25	8265.75
881.6968	1393.8336	9104.4	8220.65
881.8406	1395.6832	9062.7	8175.25
881.9844	1397.5322	9046.4	8164.1
882.1282	1399.3803	9004.3	8116.3
882.272	1401.2278	8979.65	8097
882.4158	1403.0745	8938.45	8055.4
882.5595	1404.9204	8911.45	8028.05
882.7033	1406.7656	8905.45	8021.35
882.847	1408.6101	8841	7955.25
882.9908	1410.4538	8816.25	7932.45
883.1345	1412.2968	8804.3	7920.7
883.2782	1414.139	8761.25	7875.75
883.4219	1415.9805	8761.4	7880.35
883.5656	1417.8213	8729.8	7822.95
883.7092	1419.6613	8703.75	7819.35
883.8529	1421.5006	8727.95	7842.7
883.9965	1423.3391	8719.1	7833.15
884.1402	1425.1769	8715.7	7830.9
884.2838	1427.0139	8732.05	7845.6
884.4274	1428.8502	8774.05	7889.15
884.571	1430.6858	8796.6	7911.3
884.7146	1432.5206	8774.6	7889.25
884.8582	1434.3547	8783.7	7899.8
885.0018	1436.188	8742.9	7859.65
885.1453	1438.0206	8744.75	7861.05
885.2889	1439.8524	8681.4	7797.15
885.4324	1441.6835	8709.6	7825.5
885.5759	1443.5139	8680.5	7795.2
885.7194	1445.3435	8655.5	7770.1
885.8629	1447.1724	8651.35	7766.1
886.0064	1449.0005	8621.1	7736.25
886.1499	1450.8279	8591.05	7703.8
886.2933	1452.6545	8621.8	7737.1
886.4368	1454.4804	8559.45	7678.25
886.5802	1456.3056	8567.75	7675.75
886.7237	1458.13	8542.95	7660.3
886.8671	1459.9536	8515.45	7631.05
887.0105	1461.7766	8505.25	7623.75
887.1539	1463.5987	8445.55	7560.4
887.2972	1465.4202	8394.45	7511
887.4406	1467.2409	8344.2	7460
887.584	1469.0608	8324.45	7442.85
887.7273	1470.88	8307.6	7421.65
887.8706	1472.6984	8262.4	7379.1
888.0139	1474.5161	8226.85	7339.45
888.1572	1476.3331	8195.15	7311.7
888.3005	1478.1493	8201.45	7317.75
888.4438	1479.9648	8164.05	7279.95
888.5871	1481.7795	8134.15	7249.5
888.7303	1483.5935	8151.15	7266.4
888.8736	1485.4067	8143.45	7259.65
889.0168	1487.2192	8120.2	7236.1
889.16	1489.031	8117.1	7231.2
889.3032	1490.842	8067.6	7185.25
889.4464	1492.6522	8057.85	7173.85
889.5896	1494.4618	8048.75	7165.8
889.7327	1496.2705	8031.5	7145.95
889.8759	1498.0785	7995	7109.6
890.019	1499.8858	7991.75	7106.75
890.1622	1501.6924	7951.1	7066.2
890.3053	1503.4981	7932.25	7049.4
890.4484	1505.3032	7919.8	7036.3
890.5914	1507.1075	7886.2	6999.3
890.7345	1508.911	7865.95	6982.95
890.8776	1510.7138	7861.5	6975.75
891.0206	1512.5159	7853.6	6968.55
891.1637	1514.3172	7812.25	6924.75
891.3067	1516.1178	7776.3	6894.2
891.4497	1517.9176	7771.25	6882.1
891.5927	1519.7166	7729.35	6847
891.7357	1521.515	7721.1	6830
891.8786	1523.3126	7686.95	6802.5
892.0216	1525.1094	7649.65	6762.5
892.1645	1526.9055	7628.9	6745.1
892.3074	1528.7008	7604.35	6720
892.4503	1530.4954	7572.9	6687
892.5932	1532.2893	7561.2	6680
892.7361	1534.0824	7495.1	6605.95
892.879	1535.8747	7504.7	6623
893.0218	1537.6663	7463.95	6579.15
893.1647	1539.4572	7453.45	6568
893.3075	1541.2473	7410.2	6524.9
893.4503	1543.0367	7389.25	6506.4
893.5931	1544.8253	7359.3	6470.25
893.7359	1546.6132	7360.45	6474.7
893.8787	1548.4003	7334.9	6441.1
894.0214	1550.1867	7329.4	6434.85
894.1642	1551.9723	7288.9	6401.55
894.3069	1553.7572	7274.35	6390.25
894.4496	1555.5414	7262.75	6378.8
894.5923	1557.3247	7259	6377.4
894.735	1559.1074	7278.95	6397.55
894.8777	1560.8893	7248.7	6366.75
895.0204	1562.6705	7253.2	6371.35
895.163	1564.4509	7245.25	6363.55
895.3056	1566.2305	7240.1	6359.6
895.4482	1568.0094	7236.8	6354.15
895.5908	1569.7876	7217	6336
895.7334	1571.565	7209.65	6326.35
895.876	1573.3417	7176.75	6294.8
896.0186	1575.1176	7165.9	6284.3
896.1611	1576.8928	7155.1	6274.2
896.3036	1578.6672	7126.65	6245.75
896.4461	1580.4409	7116.75	6235.15
896.5886	1582.2138	7111.85	6226.2
896.7311	1583.986	7119.55	6238.5
896.8736	1585.7575	7120.95	6238.75
897.0161	1587.5282	7117	6237
897.1585	1589.2981	7132	6249.95
897.3009	1591.0673	7102.6	6222.25
897.4433	1592.8358	7119.15	6236
897.5857	1594.6035	7099.85	6216.7
897.7281	1596.3704	7074.5	6191.75
897.8705	1598.1366	7005.7	6123.35
898.0128	1599.9021	6996.95	6115.45
898.1551	1601.6668	6926.75	6043.25
898.2975	1603.4308	6910	6027.5
898.4398	1605.194	6907.35	6021.95
898.5821	1606.9564	6878.95	5999.15
898.7243	1608.7182	6903.2	6019.2
898.8666	1610.4791	6951.6	6070.25
899.0088	1612.2394	6952.3	6072.45
899.1511	1613.9988	7002.45	6121.3
899.2933	1615.7576	7039.8	6158.35
899.4355	1617.5156	7065.6	6179.65
899.5776	1619.2728	7020.1	6138.65
899.7198	1621.0293	6956.95	6075.5
899.862	1622.785	6866.35	5980.1
900.0041	1624.54	6741.7	5858.65
900.1462	1626.2942	6657.25	5775.5
900.2883	1628.0477	6533.25	5648.7
900.4304	1629.8005	6490.65	5606.15
900.5725	1631.5525	6445.75	5565.15
900.7145	1633.3037	6359.8	5478.1
900.8566	1635.0542	6320.45	5438.95
900.9986	1636.804	6296.05	5412.75
901.1406	1638.553	6335.7	5368.4
901.2826	1640.3013	6241.15	5359.05
901.4245	1642.0488	6193.2	5309.05
901.5665	1643.7955	6172.35	5292.5
901.7085	1645.5416	6133.3	5250.5
901.8504	1647.2868	6115.4	5235.8
901.9923	1649.0313	6077.95	5197.1
902.1342	1650.7751	6079.9	5195
902.2761	1652.5181	6051	5169.5
902.4179	1654.2604	6046.1	5165.15
902.5598	1656.0019	6009.35	5132.1
902.7016	1657.7427	5996.2	5114.65
902.8434	1659.4828	6005.35	5124.55
902.9852	1661.222	6000.3	5115.9
903.127	1662.9606	6007.4	5125.6
903.2687	1664.6984	6015.95	5135.25
903.4105	1666.4354	6008.95	5123.45
903.5522	1668.1717	5966.3	5084.35
903.6939	1669.9072	5913.45	5029.35
903.8356	1671.642	5868.25	4981.75
903.9773	1673.3761	5820.6	4938.3
904.119	1675.1094	5770.35	4889.1
904.2606	1676.8419	5736.3	4854.9
904.4022	1678.5737	5717.95	4835.25
904.5439	1680.3048	5682.5	4799.7
904.6855	1682.0351	5662.35	4783.55
904.827	1683.7646	5632.9	4746.65
904.9686	1685.4934	5615.1	4733.75
905.1101	1687.2215	5574.9	4692.8
905.2517	1688.9488	5544.65	4663.45
905.3932	1690.6754	5525.35	4643.8
905.5347	1692.4012	5506.75	4624.4
905.6761	1694.1263	5497.45	4616.45
905.8176	1695.8506	5477.9	4595.55
905.9591	1697.5742	5464.45	4583.35
906.1005	1699.297	5436	4553.5
906.2419	1701.0191	5400.2	4518.55
906.3833	1702.7404	5377.6	4497.55
906.5246	1704.461	5366.75	4482.2
906.666	1706.1808	5349.9	4467.1
906.8073	1707.8999	5321.5	4439.7
906.9487	1709.6182	5327.1	4446.9
907.09	1711.3358	5288.3	4408.75
907.2313	1713.0527	5287.5	4408.9
907.3725	1714.7688	5257	4372.15
907.5138	1716.4841	5242.85	4360.1
907.655	1718.1987	5239.95	4354.6
907.7962	1719.9126	5222	4343.1
907.9374	1721.6257	5206.45	4324.6
908.0786	1723.338	5212.1	4331.15
908.2198	1725.0496	5189.5	4307.45
908.3609	1726.7605	5179.4	4296.25
908.502	1728.4706	5160.85	4278.6
908.6431	1730.18	5151.45	4266.85
908.7842	1731.8886	5143.45	4262.65
908.9253	1733.5964	5128.4	4241.9
909.0664	1735.3036	5124.85	4242
909.2074	1737.0099	5117.05	4237.05
909.3484	1738.7156	5103.4	4224.95
909.4894	1740.4204	5100.7	4215.25
909.6304	1742.1246	5104.5	4223.1
909.7714	1743.8279	5089.6	4209.1
909.9123	1745.5306	5075.1	4193.5
910.0532	1747.2325	5053.85	4172.9
910.1941	1748.9336	5044.8	4165.3
910.335	1750.634	5044.25	4162.55
910.4759	1752.3336	5014.05	4132.75
910.6168	1754.0325	5032.75	4154.1
910.7576	1755.7307	5017.55	4139.35
910.8984	1757.4281	5014.95	4133.55
911.0392	1759.1247	5025.65	4135.4
911.18	1760.8206	5002.55	4117.3
911.3208	1762.5158	5007.65	4124.6
911.4615	1764.2102	5013.9	4133.55
911.6022	1765.9039	4969.5	4088.5
911.7429	1767.5968	4972.9	4091.9
911.8836	1769.289	4939.1	4058.15
912.0243	1770.9804	4935.7	4052.45
912.1649	1772.6711	4952.4	4071.15
912.3056	1774.361	4929.65	4047.9
912.4462	1776.0502	4915.55	4031.95
912.5868	1777.7386	4901.1	4019.3
912.7274	1779.4263	4877.3	3996.4
912.8679	1781.1132	4901.2	4018.9
913.0084	1782.7994	4885.8	4007.05
913.149	1784.4849	4857.85	3976.85
913.2895	1786.1696	4885.6	3989.45
913.4299	1787.8535	4861.9	3982.5
913.5704	1789.5367	4842.2	3963.35
913.7108	1791.2192	4851.5	3972.55
913.8513	1792.9009	4851.6	3939.45
913.9917	1794.5818	4816.2	3934.7
914.132	1796.2621	4803.35	3922.25
914.2724	1797.9415	4779.8	3898.85
914.4128	1799.6202	4779.35	3897.8
914.5531	1801.2982	4767.95	3885.85
914.6934	1802.9755	4769.25	3889
914.8337	1804.6519	4746.7	3865.05
914.9739	1806.3277	4720.65	3839.7
915.1142	1808.0027	4719.25	3840.55
915.2544	1809.6769	4696.95	3815.05
915.3946	1811.3504	4685.45	3804.35
915.5348	1813.0231	4679.4	3798.6
915.675	1814.6951	4690.1	3810.6
915.8151	1816.3664	4690.8	3807.9
915.9553	1818.0369	4673.7	3793.05
916.0954	1819.7067	4646.6	3764.85
916.2355	1821.3757	4653.6	3771.2
916.3755	1823.044	4645.9	3764.15
916.5156	1824.7115	4627.5	3748.65
916.6556	1826.3783	4611.15	3729.15
916.7956	1828.0443	4603.35	3722.9
916.9356	1829.7096	4604.4	3722.8
917.0756	1831.3741	4604.6	3718.15
917.2155	1833.0379	4590.5	3711
917.3555	1834.701	4572.25	3689.25
917.4954	1836.3633	4563.95	3683.1
917.6353	1838.0248	4548.35	3666.7
917.7751	1839.6856	4536.85	3655.1
917.915	1841.3457	4541.65	3662.7
918.0548	1843.005	4529.5	3647.85
918.1946	1844.6636	4527.95	3646.8
918.3344	1846.3214	4505.2	3623.95
918.4742	1847.9785	4512.8	3629.85
918.6139	1849.6349	4503.9	3622.2
918.7537	1851.2904	4496.2	3604.65
918.8934	1852.9453	4491.25	3609.95
919.0331	1854.5994	4451.6	3567.05
919.1727	1856.2528	4468.15	3579.95
919.3124	1857.9054	4451.55	3569.75
919.452	1859.5572	4444.25	3565.2
919.5916	1861.2083	4431.75	3548.25
919.7312	1862.8587	4434.8	3553
919.8708	1864.5084	4429.35	3545.7
920.0103	1866.1572	4402.05	3520.5
920.1498	1867.8054	4404.55	3521.05
920.2893	1869.4528	4388.45	3506.65
920.4288	1871.0994	4381.6	3500.45
920.5683	1872.7453	4366	3482.7
920.7077	1874.3905	4369.55	3482.15
920.8471	1876.0349	4342.4	3460.7
920.9865	1877.6786	4360.2	3476
921.1259	1879.3215	4356.8	3476.7
921.2653	1880.9637	4343.15	3460.2
921.4046	1882.6051	4327.05	3445.35
921.5439	1884.2458	4325.1	3441.45
921.6832	1885.8858	4301.2	3420
921.8225	1887.525	4314.35	3431.15
921.9617	1889.1634	4293	3411.75
922.101	1890.8011	4276.15	3393
922.2402	1892.4381	4286.45	3404.45
922.3794	1894.0743	4266.85	3385.15
922.5185	1895.7098	4249.75	3368.65
922.6577	1897.3446	4263.55	3380.65
922.7968	1898.9786	4249.45	3365
922.9359	1900.6118	4239.3	3359.75
923.075	1902.2443	4227.05	3342
923.214	1903.8761	4223.95	3342.65
923.3531	1905.5071	4194.9	3311.6
923.4921	1907.1374	4203.3	3321.55
923.6311	1908.7669	4186.65	3307.25
923.77	1910.3957	4191.1	3308.8
923.909	1912.0237	4175.3	3294.7
924.0479	1913.651	4166.95	3283.95
924.1868	1915.2776	4139.5	3260.6
924.3257	1916.9034	4131.15	3252.85
924.4646	1918.5285	4117.25	3236.8
924.6034	1920.1528	4113.55	3231.3
924.7422	1921.7764	4096.65	3214.55
924.881	1923.3992	4097.7	3216.3
925.0198	1925.0213	4069.8	3188
925.1586	1926.6427	4046.3	3165.9
925.2973	1928.2633	4217.3	3118.45
925.436	1929.8832	4081.2	3196.15
925.5747	1931.5023	4030.9	3151.4
925.7134	1933.1207	4035.65	3152.65
925.852	1934.7383	4008.3	3125.35
925.9906	1936.3552	4008.45	3128.3
926.1292	1937.9714	4007.65	3126.25
926.2678	1939.5868	3977.8	3096.55
926.4064	1941.2015	3976.6	3095.35
926.5449	1942.8154	3975.75	3095.2
926.6834	1944.4286	3968.75	3088.05
926.8219	1946.041	3962.25	3058.8
926.9604	1947.6528	3928.05	3042.55
927.0988	1949.2637	3913.8	3031.25
927.2372	1950.8739	3916.9	3035.25
927.3756	1952.4834	3917.9	3035.8
927.514	1954.0921	3901.65	3021.85
927.6523	1955.7001	3910.45	3025.15
927.7907	1957.3074	3888.35	3011.85
927.929	1958.9139	3883.1	3003.15
928.0673	1960.5197	3880.05	2998.7
928.2055	1962.1247	3858.45	2979.1
928.3438	1963.729	3842.8	2961.75
928.482	1965.3325	3840.15	2936.6
928.6202	1966.9353	3832.45	2952.8
928.7584	1968.5374	3827.5	2944.05
928.8965	1970.1387	3813	2931.75
929.0346	1971.7393	3810	2925.95
929.1727	1973.3392	3799.05	2919.3
929.3108	1974.9383	3783.85	2903.3
929.4489	1976.5366	3769.95	2889.15
929.5869	1978.1342	3772.6	2892.65
929.7249	1979.7311	3764.35	2882.1
929.8629	1981.3273	3767.7	2887.8
930.0009	1982.9227	3751.25	2868.2
930.1388	1984.5173	3739	2859.35
930.2767	1986.1112	3726.25	2846.6
930.4146	1987.7044	3723.25	2843.3
930.5525	1989.2968	3717.65	2835.9
930.6904	1990.8885	3727.55	2845.3
930.8282	1992.4795	3713	2832.2
930.966	1994.0697	3715.55	2836.7
931.1038	1995.6592	3694.15	2814.65
931.2415	1997.2479	3690.05	2810.45
931.3793	1998.8359	3675.15	2795.65
931.517	2000.4232	3666.85	2788.35
931.6547	2002.0097	3666.35	2788.1
931.7923	2003.5955	3641	2761.15
931.93	2005.1805	3640.7	2759.35
932.0676	2006.7648	3650.25	2770.45
932.2052	2008.3484	3641.55	2760.3
932.3427	2009.9312	3640.45	2760.8
932.4803	2011.5133	3637.6	2760.9
932.6178	2013.0946	3616.55	2738.6
932.7553	2014.6752	3616.45	2737.1
932.8928	2016.2551	3611.85	2730.2
933.0302	2017.8342	3600.2	2720
933.1676	2019.4126	3596.35	2717.35
933.305	2020.9902	3585.05	2707.05
933.4424	2022.5672	3587.95	2709.2
933.5798	2024.1433	3571.05	2686.05
933.7171	2025.7188	3566.45	2690.45
933.8544	2027.2935	3560.6	2680.2
933.9917	2028.8674	3550.15	2672.95
934.129	2030.4406	3534.25	2657.9
934.2662	2032.0131	3547.65	2668.8
934.4034	2033.5849	3529.45	2645.95
934.5406	2035.1559	3528.1	2648.55
934.6778	2036.7261	3529.65	2648.55
934.8149	2038.2957	3517.25	2640.4
934.952	2039.8645	3513.45	2633.9
935.0891	2041.4325	3531.3	2651.5
935.2262	2042.9998	3522.35	2645.55
935.3632	2044.5664	3518.45	2638.5
935.5002	2046.1323	3506.1	2626.7
935.6372	2047.6974	3479.8	2601.3
935.7742	2049.2617	3487.6	2609.15
935.9111	2050.8254	3492.45	2608.6
936.048	2052.3883	3472.05	2592.9
936.1849	2053.9504	3489.05	2609.9
936.3218	2055.5118	3457.75	2578.35
936.4586	2057.0725	3453.8	2570.4
936.5955	2058.6325	3448.95	2570.45
936.7323	2060.1917	3446.2	2568.6
936.869	2061.7502	3446.75	2566.5
937.0058	2063.3079	3439.4	2560.85
937.1425	2064.8649	3445.2	2561.6
937.2792	2066.4212	3435.35	2556.05
937.4159	2067.9767	3441.55	2563.85
937.5525	2069.5315	3426.65	2547.95
937.6891	2071.0856	3410.6	2531
937.8257	2072.6389	3392.45	2512.45
937.9623	2074.1915	3381.2	2503.35
938.0989	2075.7433	3399.85	2518.55
938.2354	2077.2945	3378.65	2500.15
938.3719	2078.8448	3378.2	2501.4
938.5084	2080.3945	3362.8	2485.3
938.6448	2081.9434	3378.8	2500.75
938.7812	2083.4916	3367.5	2487.95
938.9176	2085.039	3373.25	2492.9
939.054	2086.5857	3346.75	2465.45
939.1903	2088.1317	3366	2485.55
939.3267	2089.677	3353.4	2474.8
939.463	2091.2215	3351.45	2471.85
939.5992	2092.7652	3356	2475.6
939.7355	2094.3083	3333.85	2453.4
939.8717	2095.8506	3332.95	2454.25
940.0079	2097.3921	3329.55	2451.5
940.1441	2098.933	3337.2	2457.3
940.2802	2100.4731	3323.35	2444.5
940.4163	2102.0124	3336.4	2439.05
940.5524	2103.5511	3325.7	2447.65
940.6885	2105.089	3312.65	2433.55
940.8245	2106.6261	3308.5	2427.75
940.9606	2108.1626	3310.9	2431.6
941.0965	2109.6983	3327.65	2421.1
941.2325	2111.2332	3299.25	2420.15
941.3684	2112.7675	3297.1	2415.5
941.5044	2114.301	3288	2407.1
941.6403	2115.8337	3302.7	2422.5
941.7761	2117.3657	3285.55	2405.1
941.912	2118.897	3279.85	2400.35
942.0478	2120.4276	3275.7	2392.7
942.1835	2121.9575	3270.45	2391.55
942.3193	2123.4866	3269.5	2389.75
942.455	2125.0149	3250.7	2370.2
942.5907	2126.5426	3247.05	2368.75
942.7264	2128.0695	3253.75	2369.75
942.8621	2129.5956	3244.05	2366.95
942.9977	2131.1211	3250.2	2367.5
943.1333	2132.6458	3237	2359.35
943.2689	2134.1698	3218.1	2339.25
943.4044	2135.693	3223.45	2343.1
943.54	2137.2155	3223.7	2341.55
943.6755	2138.7373	3233.15	2353.35
943.8109	2140.2584	3212.45	2333.7
943.9464	2141.7787	3203.3	2319.2
944.0818	2143.2983	3203.6	2325.1
944.2172	2144.8171	3190.35	2313.25
944.3526	2146.3353	3195.8	2314
944.4879	2147.8527	3170.7	2292.4
944.6232	2149.3693	3178.75	2298.05
944.7585	2150.8853	3163.3	2281.2
944.8938	2152.4005	3156.9	2279.95
945.029	2153.9149	3156.95	2278.4
945.1642	2155.4287	3156.05	2276.65
945.2994	2156.9417	3161.5	2279.75
945.4346	2158.454	3133	2252.45
945.5697	2159.9655	3134.65	2254.55
945.7048	2161.4764	3123.15	2243.8
945.8399	2162.9865	3131.65	2253.1
945.9749	2164.4958	3127.35	2247.6
946.1099	2166.0045	3106.3	2225.25
946.2449	2167.5124	3116.9	2238.05
946.3799	2169.0195	3099.6	2221.7
946.5148	2170.526	3095.5	2215.35
946.6498	2172.0317	3090.9	2209.6
946.7846	2173.5367	3089.3	2209.2
946.9195	2175.0409	3079.5	2200
947.0543	2176.5445	3090.95	2212.05
947.1891	2178.0473	3082.15	2201.55
947.3239	2179.5494	3073.25	2191.65
947.4587	2181.0507	3061.95	2182.65
947.5934	2182.5513	3059.5	2181.3
947.7281	2184.0512	3055.25	2176.45
947.8628	2185.5504	3047.5	2169.05
947.9974	2187.0488	3023.8	2145.85
948.132	2188.5465	3033.5	2153.35
948.2666	2190.0435	3015.95	2135.9
948.4012	2191.5397	3012.85	2134.05
948.5357	2193.0353	3007.2	2129.6
948.6702	2194.5301	2998.9	2117.4
948.8047	2196.0241	2993.85	2114.4
948.9392	2197.5175	2998.15	2118.3
949.0736	2199.0101	2989.7	2104.7
949.208	2200.502	2968.95	2091.8
949.3424	2201.9931	2955.7	2077.35
949.4767	2203.4835	2959.85	2078.2
949.611	2204.9733	2962.25	2079.8
949.7453	2206.4622	2976.35	2098.45
949.8796	2207.9505	2960.45	2078.05
950.0138	2209.438	2932.6	2054.25
950.148	2210.9248	2929.15	2049.05
950.2822	2212.4109	2924.25	2046.35
950.4164	2213.8962	2917.6	2034.9
950.5505	2215.3809	2920.45	2037.7
950.6846	2216.8648	2904.75	2021.4
950.8186	2218.3479	2917.85	2032.45
950.9527	2219.8304	2885	2001.8
951.0867	2221.3121	2901.45	2019.35
951.2207	2222.7931	2880.3	2001.2
951.3546	2224.2733	2874.35	1995
951.4886	2225.7529	2885.75	2005.3
951.6225	2227.2317	2864	1983
951.7563	2228.7098	2855.05	1975.3
951.8902	2230.1872	2851.3	1974.25
952.024	2231.6638	2845.6	1967.35
952.1578	2233.1397	2846.05	1961.5
952.2916	2234.6149	2848.15	1969.6
952.4253	2236.0894	2823.7	1945.1
952.559	2237.5632	2828.15	1939.5
952.6927	2239.0362	2808.5	1932.2
952.8263	2240.5085	2808.4	1928
952.9599	2241.9801	2813.15	1933.6
953.0935	2243.4509	2805.3	1926.5
953.2271	2244.921	2795.35	1916.5
953.3606	2246.3904	2779.15	1897.95
953.4941	2247.8591	2765.95	1885.9
953.6276	2249.3271	2779.85	1900.85
953.7611	2250.7943	2756.55	1875.9
953.8945	2252.2608	2758.75	1878.55
954.0279	2253.7266	2747.45	1868.9
954.1612	2255.1917	2753.75	1873.45
954.2946	2256.656	2742.85	1862.65
954.4279	2258.1197	2737.85	1857.25
954.5612	2259.5826	2733.3	1851.15
954.6944	2261.0447	2733.6	1852.3
954.8276	2262.5062	2718.9	1838.55
954.9608	2263.9669	2724.55	1843.95
955.094	2265.4269	2712.15	1832.05
955.2271	2266.8862	2712.25	1835.65
955.3602	2268.3448	2711.05	1831.4
955.4933	2269.8026	2703.3	1823.5
955.6264	2271.2598	2702.5	1823.15
955.7594	2272.7162	2699.75	1821.05
955.8924	2274.1719	2685.25	1804.7
956.0253	2275.6268	2681.15	1800.75
956.1583	2277.0811	2674.8	1794
956.2912	2278.5346	2672.35	1794.6
956.4241	2279.9874	2660.1	1782.3
956.5569	2281.4395	2664.15	1786.2
956.6897	2282.8908	2668.7	1784.25
956.8225	2284.3414	2657.4	1776.95
956.9553	2285.7914	2649.25	1769.55
957.088	2287.2406	2638	1756
957.2207	2288.689	2634.7	1755
957.3534	2290.1368	2633.15	1751.15
957.486	2291.5838	2638.3	1755.6
957.6186	2293.0302	2632.55	1750.9
957.7512	2294.4758	2613.4	1734.1
957.8838	2295.9206	2613.6	1733.25
958.0163	2297.3648	2595.9	1716.5
958.1488	2298.8082	2600.3	1721.95
958.2813	2300.251	2596.3	1716.55
958.4137	2301.693	2590.45	1705.35
958.5461	2303.1343	2595.7	1715.7
958.6785	2304.5748	2583.1	1704.15
958.8108	2306.0147	2579.2	1698.45
958.9432	2307.4538	2572.05	1690.75
959.0754	2308.8922	2568.65	1690.4
959.2077	2310.3299	2561.15	1682.8
959.3399	2311.7669	2544.95	1666.3
959.4721	2313.2031	2552.3	1673.2
959.6043	2314.6387	2534.9	1653.65
959.7365	2316.0735	2531.4	1650.3
959.8686	2317.5076	2542.15	1663.05
960.0006	2318.941	2536.75	1658.15
960.1327	2320.3737	2522.75	1642.3
960.2647	2321.8056	2520.1	1639.6
960.3967	2323.2369	2511	1629.85
960.5287	2324.6674	2513.35	1632.1
960.6606	2326.0972	2505.15	1624.65
960.7925	2327.5263	2496.5	1617.4
960.9244	2328.9547	2490.65	1608.25
961.0562	2330.3823	2497.05	1616.95
961.1881	2331.8092	2496.05	1613.7
961.3198	2333.2355	2479.55	1599.05
961.4516	2334.661	2473.25	1592.5
961.5833	2336.0858	2474.9	1592.55
961.715	2337.5098	2460.95	1581.8
961.8467	2338.9332	2464.15	1583.05
961.9783	2340.3558	2458.8	1575.3
962.1099	2341.7778	2437.3	1556.35
962.2415	2343.199	2441	1559.15
962.373	2344.6195	2443	1564.25
962.5045	2346.0393	2431.25	1552.05
962.636	2347.4583	2433.35	1551.2
962.7675	2348.8767	2429.7	1548.7
962.8989	2350.2943	2417.8	1537.05
963.0303	2351.7113	2424.2	1545
963.1617	2353.1275	2413.9	1533.8
963.293	2354.543	2415.2	1526.5
963.4243	2355.9578	2399.95	1520.15
963.5556	2357.3718	2397.5	1517.45
963.6868	2358.7852	2385.35	1503.7
963.818	2360.1978	2375.1	1493.2
963.9492	2361.6098	2368	1488.3
964.0803	2363.021	2366.45	1481.25
964.2114	2364.4315	2372.05	1493.2
964.3425	2365.8413	2363.4	1482
964.4736	2367.2504	2352	1473.45
964.6046	2368.6587	2348.85	1470.1
964.7356	2370.0664	2331.6	1453.15
964.8666	2371.4733	2330.35	1450.25
964.9975	2372.8795	2335.75	1456.1
965.1284	2374.285	2319.25	1439.1
965.2593	2375.6899	2307.7	1425.85
965.3901	2377.0939	2314.4	1432.65
965.5209	2378.4973	2308.5	1428.9
965.6517	2379.9	2300.05	1420.1
965.7825	2381.3019	2301.55	1420.05
965.9132	2382.7032	2282.55	1404.05
966.0439	2384.1037	2284.55	1406.45
966.1745	2385.5035	2273.9	1396.45
966.3051	2386.9027	2269.2	1390.3
966.4357	2388.3011	2276.65	1395.15
966.5663	2389.6987	2268.85	1388.25
966.6968	2391.0957	2248.55	1369.75
966.8273	2392.492	2243.65	1365.75
966.9578	2393.8876	2238.05	1357.65
967.0882	2395.2824	2239.05	1358.6
967.2186	2396.6765	2230.25	1350.8
967.349	2398.07	2224.35	1346.15
967.4793	2399.4627	2218.55	1336.8
967.6097	2400.8547	2218.45	1337.4
967.7399	2402.246	2214.65	1328.1
967.8702	2403.6366	2196.3	1314.4
968.0004	2405.0265	2187.15	1306.1
968.1306	2406.4156	2196.4	1311.1
968.2607	2407.8041	2193.6	1311.85
968.3909	2409.1918	2181.55	1297.75
968.521	2410.5789	2181.5	1300.05
968.651	2411.9652	2170.05	1284.9
968.781	2413.3508	2157.95	1276.05
968.911	2414.7358	2168.3	1286.75
969.041	2416.12	2154.9	1274.8
969.1709	2417.5035	2142.95	1263.05
969.3008	2418.8863	2149.3	1265.8
969.4307	2420.2684	2142.85	1263.05
969.5606	2421.6497	2130.35	1249.6
969.6904	2423.0304	2116.25	1234.95
969.8201	2424.4104	2127.1	1246.7
969.9499	2425.7896	2124.85	1241.7
970.0796	2427.1682	2120.15	1240.5
970.2093	2428.546	2112.9	1229.75
970.3389	2429.9232	2110.3	1227.15
970.4685	2431.2996	2104.7	1224.7
970.5981	2432.6753	2096.5	1214.25
970.7277	2434.0503	2100	1218.75
970.8572	2435.4246	2094.15	1213.7
970.9867	2436.7982	2093.55	1210.4
971.1161	2438.1711	2089.6	1212.05
971.2456	2439.5433	2088.55	1205.75
971.375	2440.9148	2087.75	1201.35
971.5043	2442.2856	2080.5	1201.6
971.6336	2443.6557	2065.35	1184.5
971.7629	2445.025	2065.25	1183.6
971.8922	2446.3937	2072	1190.75
972.0214	2447.7617	2059.35	1178.8
972.1506	2449.1289	2056.25	1174.45
972.2798	2450.4955	2049.75	1166.35
972.4089	2451.8613	2053.05	1172.55
972.538	2453.2265	2046.55	1167.45
972.6671	2454.5909	2039.2	1158
972.7961	2455.9546	2040.75	1160.65
972.9251	2457.3177	2037.45	1156.7
973.0541	2458.68	2028.2	1148.5
973.1831	2460.0416	2028.25	1147.65
973.312	2461.4025	2029.75	1149.05
973.4408	2462.7627	2033	1139.3
973.5697	2464.1222	2017.7	1138.15
973.6985	2465.4811	2013.65	1130.9
973.8273	2466.8392	1987.55	1107.75
973.956	2468.1966	2005.55	1124.5
974.0847	2469.5533	2001.35	1119
974.2134	2470.9093	2000.35	1119.55
974.3421	2472.2645	1992.8	1109.25
974.4707	2473.6191	1984.3	1104.45
974.5993	2474.973	1981.8	1102.1
974.7278	2476.3262	1976.5	1095.05
974.8563	2477.6787	1979.15	1100.1
974.9848	2479.0305	1969.55	1087.75
975.1132	2480.3816	1969.85	1087.75
975.2417	2481.7319	1964	1083.25
975.37	2483.0816	1958.85	1077.15
975.4984	2484.4306	1957.85	1077.3
975.6267	2485.7789	1949.5	1069.1
975.755	2487.1264	1949.55	1067.65
975.8833	2488.4733	1937.85	1060.1
976.0115	2489.8195	1941.1	1053.8
976.1397	2491.165	1934.75	1052.35
976.2678	2492.5097	1931.15	1051.45
976.3959	2493.8538	1919.5	1040.35
976.524	2495.1972	1928.7	1046.85
976.6521	2496.5398	1926.15	1046.35
976.7801	2497.8818	1922.05	1039.6
976.9081	2499.2231	1913.8	1033.75
977.036	2500.5637	1904.8	1022.25
977.164	2501.9035	1898.7	1017.95
977.2918	2503.2427	1903.2	1021.55
977.4197	2504.5812	1902.3	1022.9
977.5475	2505.919	1898.35	1017.8
977.6753	2507.256	1887.9	1007.3
977.8031	2508.5924	1880.65	999.2
977.9308	2509.9281	1880.85	996.8
978.0585	2511.2631	1876.8	997.35
978.1861	2512.5974	1884.1	1003.95
978.3137	2513.9309	1870.85	990.9
978.4413	2515.2638	1898.55	986.45
978.5689	2516.596	1863.25	981.7
978.6964	2517.9275	1866.05	983.2
978.8239	2519.2583	1855.25	973.25
978.9513	2520.5884	1855.95	973.2
979.0788	2521.9178	1850.75	969.05
979.2062	2523.2465	1838.1	960.9
979.3335	2524.5745	1834.5	955.55
979.4608	2525.9018	1836.65	955.5
979.5881	2527.2284	1825	945.85
979.7154	2528.5543	1829.95	949.9
979.8426	2529.8796	1826.2	945.95
979.9698	2531.2041	1824.35	945.85
980.0969	2532.5279	1810.9	930.2
980.224	2533.851	1816.55	937.05
980.3511	2535.1735	1822.25	943.55
980.4781	2536.4952	1814.25	932.6
980.6052	2537.8163	1804.9	925.1
980.7321	2539.1366	1806.9	927.05
980.8591	2540.4562	1804.2	925.4
980.986	2541.7752	1803.05	922.3
981.1129	2543.0935	1801.8	921.7
981.2397	2544.411	1798.25	919.3
981.3665	2545.7279	1790	909.9
981.4933	2547.0441	1797.25	917.1
981.62	2548.3596	1796.7	912.85
981.7467	2549.6744	1781.25	901.1
981.8734	2550.9885	1788.75	899.8
982.0001	2552.3019	1782	903.9
982.1267	2553.6146	1779.9	897.55
982.2532	2554.9266	1773.7	892.75
982.3798	2556.2379	1773.1	892.3
982.5063	2557.5485	1760.5	881.15
982.6327	2558.8585	1771.2	883.45
982.7592	2560.1677	1760.85	877.75
982.8856	2561.4762	1764.55	883.35
983.0119	2562.7841	1764.55	880.5
983.1383	2564.0913	1761	882.1
983.2646	2565.3977	1753.4	873.6
983.3908	2566.7035	1754.5	875.55
983.517	2568.0086	1752.35	868
983.6432	2569.313	1755.95	871.95
983.7694	2570.6167	1750.3	867.8
983.8955	2571.9197	1745.25	865.8
984.0216	2573.222	1749.85	865.7
984.1476	2574.5236	1738.55	858.4
984.2737	2575.8246	1741.25	859.15
984.3996	2577.1248	1733.8	851.45
984.5256	2578.4244	1731.05	852.65
984.6515	2579.7232	1731.1	851.2
984.7774	2581.0214	1750.2	846.25
984.9032	2582.3189	1726.2	844.4
985.029	2583.6157	1725.65	839.8
985.1548	2584.9118	1714.8	834.3
985.2806	2586.2072	1720.7	839.75
985.4063	2587.5019	1717.65	836.1
985.5319	2588.7959	1716.75	833.65
985.6576	2590.0893	1710.6	827.4
985.7832	2591.3819	1703.65	825.05
985.9087	2592.6739	1700.35	820.05
986.0343	2593.9652	1700.25	818
986.1597	2595.2557	1695.55	816.3
986.2852	2596.5456	1702.45	820.95
986.4106	2597.8348	1688.85	809.35
986.536	2599.1234	1683.9	803.9
986.6614	2600.4112	1687.2	805.65
986.7867	2601.6983	1669.95	786.15
986.912	2602.9848	1678.4	796.5
987.0372	2604.2705	1677.5	789.65
987.1624	2605.5556	1664.85	783.4
987.2876	2606.84	1665.7	786.75
987.4128	2608.1237	1657.85	775.55
987.5379	2609.4067	1654.95	774.7
987.6629	2610.689	1663.8	776.65
987.788	2611.9707	1656.5	776
987.913	2613.2516	1657.9	773.7
988.0379	2614.5319	1635.2	756.4
988.1629	2615.8115	1633.05	752.8
988.2878	2617.0903	1637.4	755.3
988.4126	2618.3685	1627.85	746.85
988.5375	2619.6461	1619	737.1
988.6622	2620.9229	1621.55	741.5
988.787	2622.199	1620.9	741.05
988.9117	2623.4745	1621.6	739.75
989.0364	2624.7493	1617.6	738.2
989.161	2626.0234	1609.1	729.95
989.2857	2627.2968	1610.9	730.2
989.4102	2628.5695	1612.15	728
989.5348	2629.8415	1605.25	725.2
989.6593	2631.1128	1604.2	721.75
989.7837	2632.3835	1591.95	712.15
989.9082	2633.6535	1589.95	709.2
990.0326	2634.9228	1595.8	715.9
990.1569	2636.1914	1585.9	706
990.2812	2637.4593	1591.55	703.9
990.4055	2638.7265	1583.2	701.85
990.5298	2639.9931	1573.85	693.4
990.654	2641.259	1580.4	698.6
990.7782	2642.5242	1581.55	700.55
990.9023	2643.7887	1574.3	694.3
991.0264	2645.0525	1569.7	690
991.1505	2646.3156	1567.8	687.35
991.2745	2647.5781	1562.9	683.1
991.3985	2648.8398	1566.5	687.95
991.5225	2650.1009	1556.2	667.2
991.6464	2651.3613	1555.1	676.6
991.7703	2652.6211	1546.3	663.1
991.8942	2653.8801	1539.05	660
992.018	2655.1385	1553.6	671.05
992.1418	2656.3961	1547	667.55
992.2655	2657.6531	1547.25	665.7
992.3892	2658.9094	1550.65	670.65
992.5129	2660.1651	1537.6	659.2
992.6366	2661.42	1534.35	654.95
992.7602	2662.6743	1533.15	654.6
992.8837	2663.9279	1537.45	658.35
993.0073	2665.1808	1527.4	647.2
993.1307	2666.433	1531.8	648.05
993.2542	2667.6846	1526.2	646.7
993.3776	2668.9354	1528.6	644.55
993.501	2670.1856	1522.4	641.6
993.6244	2671.4351	1518	637.6
993.7477	2672.6839	1517.4	635.35
993.8709	2673.9321	1509.1	628.5
993.9942	2675.1795	1513.7	633.15
994.1174	2676.4263	1509.45	632.2
994.2405	2677.6724	1509.95	632.35
994.3637	2678.9179	1504.1	624.4
994.4868	2680.1626	1506.6	626.75
994.6098	2681.4067	1502	622.05
994.7328	2682.6501	1502.4	621.4
994.8558	2683.8928	1493.75	612.35
994.9788	2685.1348	1493.85	613.5
995.1017	2686.3761	1485.2	605.1
995.2245	2687.6168	1485.8	605.95
995.3474	2688.8568	1489.7	610.3
995.4702	2690.0961	1479.1	601
995.5929	2691.3348	1484.95	603.25
995.7156	2692.5727	1474.95	595.35
995.8383	2693.81	1479	599.8
995.961	2695.0466	1470.15	591.05
996.0836	2696.2826	1478.2	596.5
996.2062	2697.5178	1478.75	578.25
996.3287	2698.7524	1465.05	585.1
996.4512	2699.9863	1465.6	580.5
996.5737	2701.2195	1462	585.2
996.6961	2702.452	1465.9	585.05
996.8185	2703.6839	1456	575.75
996.9408	2704.9151	1447.9	569.95
997.0631	2706.1456	1448.75	566.55
997.1854	2707.3755	1453.5	572.6
997.3077	2708.6046	1448.95	566.95
997.4299	2709.8331	1443.35	563.3
997.552	2711.0609	1444.15	564.5
997.6742	2712.2881	1447.25	565.85
997.7963	2713.5145	1444.1	560.4
997.9183	2714.7403	1438.65	560.95
998.0403	2715.9654	1437.15	558.1
998.1623	2717.1899	1451.45	557.15
998.2842	2718.4136	1437.25	558.05
998.4062	2719.6367	1431.7	552.2
998.528	2720.8591	1437.95	552.65
998.6498	2722.0809	1427	547.35
998.7716	2723.3019	1432.3	548.9
998.8934	2724.5223	1416.55	535.4
999.0151	2725.7421	1421.1	540.05
999.1368	2726.9611	1424.05	541.95
999.2584	2728.1795	1422.1	536.5
999.38	2729.3972	1410.45	531.95
999.5016	2730.6142	1422.5	527.85
999.6231	2731.8306	1409.75	528.35
999.7446	2733.0462	1402.95	520.7
999.8661	2734.2612	1407.15	523.8
999.9875	2735.4756	1396.15	514.2
1000.1089	2736.6892	1396.2	516.3
1000.2302	2737.9022	1393.85	515.3
1000.3515	2739.1145	1387.3	507.3
1000.4728	2740.3262	1393.65	505.05
1000.594	2741.5372	1384.2	504.15
1000.7152	2742.7475	1387	508.7
1000.8363	2743.9571	1384.2	502.15
1000.9575	2745.1661	1380.4	496.3
1001.0785	2746.3744	1373.5	492.2
1001.1996	2747.582	1373	492.65
1001.3206	2748.7889	1379	496
1001.4415	2749.9952	1369.4	490.7
1001.5625	2751.2008	1367.5	486.6
1001.6833	2752.4057	1368.65	487.65
1001.8042	2753.61	1365.35	485
1001.925	2754.8136	1362.7	481.9
1002.0458	2756.0165	1357.2	478.1
1002.1665	2757.2188	1352.2	474.4
1002.2872	2758.4204	1353.45	475.25
1002.4078	2759.6213	1349.95	469.75
1002.5285	2760.8215	1357.15	474.55
1002.649	2762.0211	1357.9	476.05
1002.7696	2763.22	1347.3	465.15
1002.8901	2764.4182	1345	463.55
1003.0106	2765.6158	1343.05	461.15
1003.131	2766.8127	1333.35	452.35
1003.2514	2768.009	1337.35	458.1
1003.3717	2769.2045	1336.2	455.65
1003.492	2770.3994	1336.55	453.35
1003.6123	2771.5936	1338.2	458.3
1003.7325	2772.7872	1327.9	447.6
1003.8527	2773.9801	1334.25	451.2
1003.9729	2775.1723	1342	446.3
1004.093	2776.3639	1320.7	443.5
1004.2131	2777.5548	1323.95	439.95
1004.3331	2778.745	1317.15	435
1004.4531	2779.9346	1318.5	438.05
1004.5731	2781.1235	1319.3	438.15
1004.693	2782.3117	1317	439.7
1004.8129	2783.4992	1312.2	432.8
1004.9328	2784.6861	1310.6	430.55
1005.0526	2785.8723	1308.85	429.05
1005.1723	2787.0579	1304.5	425
1005.2921	2788.2428	1300.85	420.55
1005.4118	2789.427	1306.7	428.1
1005.5314	2790.6106	1301.25	420.25
1005.651	2791.7935	1303.6	421.9
1005.7706	2792.9757	1298.95	418.65
1005.8902	2794.1573	1302.05	420.6
1006.0097	2795.3382	1296.8	416.1
1006.1291	2796.5184	1294.05	414.55
1006.2485	2797.698	1297.8	416.3
1006.3679	2798.8769	1290.4	411.8
1006.4873	2800.0551	1283.95	402.85
1006.6066	2801.2327	1286.8	404.25
1006.7258	2802.4096	1288.6	411.4
1006.8451	2803.5859	1287.35	406.9
1006.9642	2804.7615	1282.3	403.4
1007.0834	2805.9364	1276.25	395.8
1007.2025	2807.1106	1276.1	396
1007.3216	2808.2842	1278.7	397.1
1007.4406	2809.4572	1280.65	401.35
1007.5596	2810.6294	1279.7	400.9
1007.6785	2811.801	1279.6	401.95
1007.7975	2812.972	1275.35	396.15
1007.9163	2814.1423	1272.1	394.65
1008.0352	2815.3119	1278	398.3
1008.154	2816.4808	1271.2	394.15
1008.2727	2817.6491	1274.95	395.15
1008.3914	2818.8167	1273.5	394.8
1008.5101	2819.9837	1289.05	403.6
1008.6288	2821.15	1283.9	403.7
1008.7474	2822.3157	1278.6	401.3
1008.8659	2823.4807	1283.3	404.1
1008.9844	2824.645	1289.55	407.6
1009.1029	2825.8086	1299.45	420.35
1009.2214	2826.9716	1293.95	415.45
1009.3398	2828.134	1304.45	426.55
1009.4581	2829.2957	1313.45	433.05
1009.5764	2830.4567	1306.25	428.3
1009.6947	2831.617	1314.25	433.55
1009.813	2832.7767	1312.05	434.35
1009.9312	2833.9358	1314.7	435.95
1010.0493	2835.0941	1313.4	433.05
1010.1675	2836.2519	1308.3	429
1010.2855	2837.4089	1302	421.75
1010.4036	2838.5653	1294	415.95
1010.5216	2839.7211	1298.15	419.75
1010.6396	2840.8761	1292.4	411.1
1010.7575	2842.0306	1295	417.9
1010.8754	2843.1843	1286.65	408.1
1010.9932	2844.3374	1285.75	407.15
1011.111	2845.4899	1284.8	403.9
1011.2288	2846.6417	1287.5	408.15
1011.3465	2847.7928	1289.85	411.25
1011.4642	2848.9433	1290.85	411.15
1011.5818	2850.0931	1282.4	402.75
1011.6995	2851.2422	1291.85	410.1
1011.817	2852.3907	1293.55	415.55
1011.9345	2853.5385	1287.9	407.6
1012.052	2854.6857	1302.9	414.45
1012.1695	2855.8323	1287.95	410.95
1012.2869	2856.9781	1286.05	407.15
1012.4042	2858.1233	1290.65	409.95
1012.5216	2859.2679	1291.3	410.3
1012.6389	2860.4118	1293.7	413.7
1012.7561	2861.555	1300.6	418.95
1012.8733	2862.6976	1299.6	417.7
1012.9905	2863.8395	1300.85	422.1
1013.1076	2864.9808	1292.2	411.5
1013.2247	2866.1214	1290.85	412.8
1013.3417	2867.2614	1292.75	412.8
1013.4587	2868.4007	1293.35	413.9
1013.5757	2869.5393	1297.25	419
1013.6926	2870.6773	1301.05	418.55
1013.8095	2871.8146	1299.1	419.95
1013.9263	2872.9513	1293.85	411.6
1014.0431	2874.0874	1289.9	411.4
1014.1599	2875.2227	1294.05	411.8
1014.2766	2876.3574	1289.5	411.65
1014.3933	2877.4915	1296.45	419.5
1014.51	2878.6249	1290.75	413.95
1014.6266	2879.7577	1291.7	412.15
1014.7431	2880.8898	1299.1	410.35
1014.8596	2882.0212	1291.2	411.95
1014.9761	2883.152	1290.75	412.45
1015.0925	2884.2821	1285.6	407.15
1015.2089	2885.4116	1293.1	415.75
1015.3253	2886.5405	1292.15	411.6
1015.4416	2887.6686	1293.05	410.45
1015.5579	2888.7962	1289.75	412.7
1015.6741	2889.923	1281.15	405.35
1015.7903	2891.0493	1280.15	402.35
1015.9065	2892.1748	1281.1	402.5
1016.0226	2893.2997	1286.2	405.2
1016.1387	2894.424	1283.3	405.8
1016.2547	2895.5476	1286.15	407.35
1016.3707	2896.6706	1278	398.35
1016.4866	2897.7929	1278.85	399.5
1016.6025	2898.9145	1285.6	406.7
1016.7184	2900.0355	1281.3	402.25
1016.8342	2901.1559	1281.1	400.5
1016.95	2902.2756	1279.65	403.25
1017.0658	2903.3946	1271.15	392.1
1017.1815	2904.513	1272.15	389.8
1017.2971	2905.6308	1268.5	389.3
1017.4127	2906.7479	1274.15	393.5
1017.5283	2907.8643	1270.65	393.3
1017.6439	2908.9801	1266.95	387.1
1017.7594	2910.0953	1262.15	383.8
1017.8748	2911.2098	1263.25	380.8
1017.9902	2912.3236	1269.4	381.95
1018.1056	2913.4368	1266.4	385.5
1018.2209	2914.5494	1260.35	380.45
1018.3362	2915.6613	1256.8	372.55
1018.4515	2916.7725	1260.5	375.85
1018.5667	2917.8831	1257.5	380
1018.6819	2918.9931	1251.05	368.95
1018.797	2920.1024	1246	363.9
1018.9121	2921.211	1245.25	368.3
1019.0271	2922.319	1237.05	358.5
1019.1421	2923.4264	1239.3	360.75
1019.2571	2924.5331	1229.95	352.2
1019.372	2925.6391	1237.05	358.35
1019.4869	2926.7445	1237.7	362
1019.6017	2927.8493	1236.1	356.15
1019.7165	2928.9534	1233.55	354.55
1019.8313	2930.0569	1237	355.25
1019.946	2931.1597	1233.9	352.05
1020.0606	2932.2619	1231.5	353.5
1020.1753	2933.3634	1234.3	355.3
1020.2899	2934.4643	1240.7	353.25
1020.4044	2935.5645	1241	358.15
1020.5189	2936.6641	1239.6	356.45
1020.6334	2937.763	1236.2	359.95
1020.7478	2938.8613	1225.7	344.5
1020.8622	2939.959	1231.6	347.25
1020.9765	2941.056	1223.85	345.5
1021.0908	2942.1523	1219.5	339.65
1021.2051	2943.248	1216.5	336.8
1021.3193	2944.3431	1200.85	322
1021.4334	2945.4375	1202.4	321
1021.5476	2946.5313	1188.4	312.4
1021.6617	2947.6244	1195.6	315.8
1021.7757	2948.7169	1181.9	302
1021.8897	2949.8087	1175	296.15
1022.0037	2950.8999	1169.25	291.15
1022.1176	2951.9904	1166.95	290.25
1022.2315	2953.0803	1161.65	283.3
1022.3453	2954.1696	1155.25	277.15
1022.4591	2955.2582	1153.65	274.8
1022.5728	2956.3462	1153.15	274.15
1022.6865	2957.4335	1149.45	271
1022.8002	2958.5202	1149.45	268.2
1022.9138	2959.6062	1140.4	261.1
1023.0274	2960.6916	1141.8	264.25
1023.141	2961.7764	1143.4	264.4
1023.2545	2962.8605	1144.8	266.25
1023.3679	2963.9439	1142.65	264.3
1023.4813	2965.0267	1135.95	258.25
1023.5947	2966.1089	1161.9	260.65
1023.708	2967.1905	1135.55	259.55
1023.8213	2968.2714	1135.8	257.55
1023.9346	2969.3516	1133.65	254.3
1024.0478	2970.4312	1140.45	255.4
1024.1609	2971.5102	1130	250.95
1024.274	2972.5885	1129.75	250.75
1024.3871	2973.6662	1136.3	250.55
1024.5002	2974.7432	1127	247.9
1024.6132	2975.8196	1127.45	249.05
1024.7261	2976.8954	1123.65	246.95
1024.839	2977.9705	1128.55	249.75
1024.9519	2979.045	1124.6	245.5
1025.0647	2980.1188	1122.85	244.25
1025.1775	2981.192	1122.9	245.65
1025.2902	2982.2645	1127.6	247.2
1025.4029	2983.3364	1120.95	242.05
1025.5156	2984.4077	1112.4	234.3
1025.6282	2985.4783	1124.65	241.1
1025.7407	2986.5483	1111.75	233.8
1025.8532	2987.6177	1108.05	228.95
1025.9657	2988.6864	1112.45	233.1
1026.0782	2989.7545	1105.45	223.05
1026.1906	2990.8219	1098.3	221.15
1026.3029	2991.8887	1099.95	217.35
1026.4152	2992.9548	1096	216.7
1026.5275	2994.0204	1098.9	219.85
1026.6397	2995.0852	1088.3	210.15
1026.7519	2996.1495	1092.1	213.55
1026.864	2997.2131	1084.85	205.6
1026.9761	2998.276	1087	210.4
1027.0882	2999.3383	1087.9	208.7
1027.2002	3000.4	1080.65	199.75
1027.3122	3001.4611	1077.5	200.05
1027.4241	3002.5215	1078.25	198.1
1027.536	3003.5812	1072.85	194.1
1027.6478	3004.6404	1073.95	195.9
1027.7596	3005.6989	1069.75	188.05
1027.8714	3006.7567	1071.8	194.05
1027.9831	3007.8139	1090.55	187.65
1028.0947	3008.8705	1070.35	194
1028.2064	3009.9264	1073.95	192.7
1028.3179	3010.9818	1067.05	188.15
1028.4295	3012.0364	1064.6	184.8
1028.541	3013.0905	1060.25	182.45
1028.6524	3014.1439	1062.2	184.9
1028.7638	3015.1966	1063.15	185.15
1028.8752	3016.2487	1059.45	179.9
1028.9865	3017.3002	1062.45	177
1029.0978	3018.3511	1059.85	181
1029.209	3019.4013	1053.3	175.7
1029.3202	3020.4509	1054.3	176.25
1029.4314	3021.4998	1055.4	178.3
1029.5425	3022.5481	1054.1	175.9
1029.6535	3023.5958	1055.9	176.4
1029.7645	3024.6428	1055.6	176.15
1029.8755	3025.6892	1052.95	176.85
1029.9864	3026.735	1053.45	175.25
1030.0973	3027.7802	1050.5	172.1
1030.2082	3028.8247	1047.05	169
1030.319	3029.8685	1051.1	171.8
1030.4297	3030.9118	1047.8	167.95
1030.5404	3031.9544	1048.3	171.4
1030.6511	3032.9963	1048.05	169.6
1030.7617	3034.0376	1041.15	162.75
1030.8723	3035.0783	1047.2	165.7
1030.9829	3036.1184	1044.9	164.6
1031.0934	3037.1578	1041.45	163.85
1031.2038	3038.1966	1044.25	165
1031.3142	3039.2348	1042.2	164.65
1031.4246	3040.2723	1050.3	162.25
1031.5349	3041.3092	1043.8	165.4
1031.6452	3042.3455	1044	165.15
1031.7554	3043.3811	1041.15	162.25
1031.8656	3044.4161	1042.45	163.35
1031.9758	3045.4505	1039	162.05
1032.0859	3046.4842	1038.05	158.9
1032.1959	3047.5173	1033.75	156.95
1032.3059	3048.5498	1040.1	163.75
1032.4159	3049.5816	1040.05	161.2
1032.5258	3050.6128	1035.4	155.65
1032.6357	3051.6434	1039.7	160.3
1032.7455	3052.6734	1036.7	156.3
1032.8553	3053.7027	1036.3	157.75
1032.9651	3054.7314	1034.25	156.4
1033.0748	3055.7594	1032.4	153.05
1033.1845	3056.7868	1035.65	155.3
1033.2941	3057.8136	1034.9	157.45
1033.4037	3058.8398	1033.25	154.25
1033.5132	3059.8653	1034.1	155.85
1033.6227	3060.8902	1035	156.7
1033.7321	3061.9145	1031.6	154.15
1033.8415	3062.9381	1029.85	152.15
1033.9509	3063.9612	1051.6	158.25
1034.0602	3064.9835	1028.2	149.75
1034.1694	3066.0053	1030.4	149.7
1034.2787	3067.0264	1027.7	150.25
1034.3878	3068.0469	1035.3	155.15
1034.497	3069.0668	1033.55	152.35
1034.6061	3070.086	1031.25	152.5
1034.7151	3071.1046	1030.45	150.4
1034.8241	3072.1226	1027.6	148.3
1034.9331	3073.1399	1026.75	150.35
1035.042	3074.1567	1023.3	144.25
1035.1508	3075.1727	1024	143.55
1035.2597	3076.1882	1019.75	142.1
1035.3684	3077.203	1023.2	144.4
1035.4772	3078.2173	1021.4	144.7
1035.5859	3079.2308	1025.85	145.75
1035.6945	3080.2438	1023.5	143.55
1035.8031	3081.2561	1018.05	138.45
1035.9117	3082.2678	1019.3	142.5
1036.0202	3083.2789	1016.6	137.3
1036.1286	3084.2893	1013.65	136.2
1036.2371	3085.2991	1016.15	136.35
1036.3454	3086.3083	1021.45	141.25
1036.4538	3087.3169	1017.35	137.25
1036.562	3088.3248	1015.7	136.75
1036.6703	3089.3321	1013.75	132.4
1036.7785	3090.3388	1010.1	132.4
1036.8866	3091.3449	1011.6	132.65
1036.9948	3092.3503	1011	131.7
1037.1028	3093.3551	1008.85	131.75
1037.2108	3094.3593	1005.35	129.2
1037.3188	3095.3629	1003.75	129.05
1037.4267	3096.3658	1009.7	129.25
1037.5346	3097.3681	1008.1	127.85
1037.6425	3098.3698	1011.15	130.5
1037.7503	3099.3708	1014.2	129.65
1037.858	3100.3713	999.2	121.25
1037.9657	3101.3711	1003.85	124.25
1038.0734	3102.3702	1137.9	121.65
1038.181	3103.3688	1001.7	122.75
1038.2886	3104.3667	998.15	120.9
1038.3961	3105.364	999	120.4
1038.5036	3106.3607	999.4	120.05
1038.611	3107.3568	1000.75	120.65
1038.7184	3108.3522	995.7	119.5
1038.8257	3109.347	1000.7	123.2
1038.933	3110.3412	998.55	114.8
1039.0403	3111.3348	996.35	118.2
1039.1475	3112.3277	998.9	120.8
1039.2547	3113.32	996.95	119.85
1039.3618	3114.3117	995.05	116.4
1039.4689	3115.3028	994.5	116.45
1039.5759	3116.2932	992.75	112.75
1039.6829	3117.2831	1000.25	115.75
1039.7898	3118.2723	987.55	111.25
1039.8967	3119.2608	989.5	111.1
1040.0035	3120.2488	991.55	112.75
1040.1103	3121.2361	986.95	108.4
1040.2171	3122.2229	988.8	108.2
1040.3238	3123.209	989.75	111.6
1040.4305	3124.1944	987.75	109.9
1040.5371	3125.1793	986.05	108
1040.6437	3126.1635	985.4	108.4
1040.7502	3127.1471	986.55	108.15
1040.8567	3128.1301	983.55	105.5
1040.9631	3129.1125	982.45	104.05
1041.0695	3130.0942	981.95	104.65
1041.1759	3131.0753	993.5	106.15
1041.2822	3132.0558	986.75	106.5
1041.3884	3133.0357	981.35	102.45
1041.4946	3134.015	982.4	103.8
1041.6008	3134.9936	983.25	103.1
1041.7069	3135.9716	1003.05	104.35
1041.813	3136.949	979.05	100.25
1041.919	3137.9258	983.95	97.85
1042.025	3138.902	986.85	102
1042.1309	3139.8775	978.3	101.95
1042.2368	3140.8524	978.15	98.55
1042.3427	3141.8267	980.35	100.4
1042.4485	3142.8004	978.5	99.8
1042.5542	3143.7735	982.8	98.9
1042.6599	3144.7459	981.1	100.4
1042.7656	3145.7178	975.25	99.2
1042.8712	3146.689	972.15	95.8
1042.9768	3147.6596	975.7	96.05
1043.0823	3148.6295	972.8	93.6
1043.1878	3149.5989	972.6	95.5
1043.2932	3150.5676	971.6	94.7
1043.3986	3151.5357	970.75	93.85
1043.5039	3152.5032	969.1	91.5
1043.6092	3153.4701	970.55	91.65
1043.7145	3154.4364	971.75	93.65
1043.8197	3155.402	971.35	92.9
1043.9248	3156.367	976.7	97
1044.03	3157.3315	1006.05	91.3
1044.135	3158.2952	970.25	92.6
1044.24	3159.2584	966.6	89.85
1044.345	3160.221	967.25	88.15
1044.4499	3161.1829	968.15	91
1044.5548	3162.1442	967.5	89.25
1044.6596	3163.105	967.95	90.15
1044.7644	3164.065	972.8	94.6
1044.8692	3165.0245	968.15	87.1
1044.9739	3165.9834	968.15	91.1
1045.0785	3166.9416	964.1	87.35
1045.1831	3167.8993	965.15	87.5
1045.2877	3168.8563	962.3	85.05
1045.3922	3169.8127	960.95	82.95
1045.4966	3170.7684	964.5	85.15
1045.6011	3171.7236	963.35	84.15
1045.7054	3172.6782	961.1	81.65
1045.8098	3173.6321	960.6	81.3
1045.914	3174.5854	966.9	84.75
1046.0183	3175.5381	958.95	79.25
1046.1224	3176.4902	957.8	81.85
1046.2266	3177.4417	956.65	79.1
1046.3307	3178.3926	960.45	82.25
1046.4347	3179.3428	960.2	81.5
1046.5387	3180.2924	958.55	81.65
1046.6427	3181.2415	957.55	79.45
1046.7466	3182.1899	960.35	81.25
1046.8504	3183.1377	959.15	81.2
1046.9542	3184.0848	960.15	78.25
1047.058	3185.0314	957.4	80.4
1047.1617	3185.9773	958.9	79.75
1047.2654	3186.9227	956.7	78.7
1047.369	3187.8674	956.1	77.35
1047.4726	3188.8115	961	79.85
1047.5761	3189.755	954	76.85
1047.6796	3190.6979	953.55	77.95
1047.783	3191.6402	952.6	73.5
1047.8864	3192.5818	953.3	76.1
1047.9898	3193.5229	955.5	70.5
1048.0931	3194.4633	954.7	76.35
1048.1963	3195.4031	952.05	75.4
1048.2995	3196.3423	952.65	74.55
1048.4027	3197.2809	952	75.1
1048.5058	3198.2189	954.3	76.8
1048.6089	3199.1563	969.2	72.45
1048.7119	3200.0931	949.6	73.2
1048.8148	3201.0292	948.95	72.95
1048.9178	3201.9648	946.6	68.45
1049.0206	3202.8997	952.65	69
1049.1235	3203.834	948.35	68.9
1049.2262	3204.7677	947.9	70.8
1049.329	3205.7008	947.8	67.6
1049.4317	3206.6333	950.45	73.35
1049.5343	3207.5652	949.3	68.65
1049.6369	3208.4964	949.3	69.5
1049.7394	3209.4271	944.75	67.45
1049.8419	3210.3571	944.05	69.25
1049.9444	3211.2865	948.45	69.6
1050.0468	3212.2154	946.1	66.95
1050.1491	3213.1436	947.4	65.55
1050.2514	3214.0712	953.5	69.6
1050.3537	3214.9982	944.15	67.95
1050.4559	3215.9246	944.05	64.2
1050.5581	3216.8503	943.6	66.1
1050.6602	3217.7755	943.4	65.2
1050.7623	3218.7001	942.3	63.8
1050.8643	3219.624	943.1	64.55
1050.9663	3220.5473	942.05	61.7
1051.0682	3221.4701	945.5	67
1051.1701	3222.3922	942.35	62.75
1051.2719	3223.3137	941.25	65.1
1051.3737	3224.2346	941.8	64.15
1051.4754	3225.1549	941.45	64.5
1051.5771	3226.0746	939.55	61.4
1051.6788	3226.9937	940.2	61.75
1051.7804	3227.9121	937.95	60.4
1051.8819	3228.83	940.25	62.45
1051.9834	3229.7473	938.05	57.8
1052.0849	3230.6639	940.35	63.25
1052.1863	3231.5799	939.3	60.3
1052.2876	3232.4954	939.05	60.75
1052.3889	3233.4102	937.85	63.2
1052.4902	3234.3244	938.65	60.15
1052.5914	3235.238	936.7	59.7
1052.6926	3236.151	959.2	55.65
1052.7937	3237.0634	936.65	59
1052.8948	3237.9752	937.6	58.9
1052.9958	3238.8864	938.1	58.8
1053.0968	3239.797	936.35	58.3
1053.1977	3240.7069	936.85	59.95
1053.2986	3241.6163	938.8	59
1053.3994	3242.5251	933.25	56.1
1053.5002	3243.4332	933.9	57.45
1053.6009	3244.3408	934.15	56.55
1053.7016	3245.2477	931.5	54.2
1053.8022	3246.154	933.6	54.05
1053.9028	3247.0598	932.25	52.9
1054.0034	3247.9649	933	51.75
1054.1039	3248.8694	931.15	52.5
1054.2043	3249.7733	930.9	54.95
1054.3047	3250.6766	932.45	55.25
1054.4051	3251.5793	928.15	50.4
1054.5054	3252.4814	930.5	53.25
1054.6056	3253.3829	932.2	54.3
1054.7058	3254.2838	930.9	54
1054.806	3255.1841	928.75	50.75
1054.9061	3256.0838	927.95	50.8
1055.0061	3256.9829	925.45	47.45
1055.1062	3257.8814	931.75	51.2
1055.2061	3258.7792	930.2	48.75
1055.306	3259.6765	928.35	49.7
1055.4059	3260.5731	928.3	51.2
1055.5057	3261.4692	926.15	47.85
1055.6055	3262.3647	925.8	47.15
1055.7052	3263.2595	925.05	47.45
1055.8049	3264.1538	927.3	48.65
1055.9045	3265.0474	923.1	44.85
1056.0041	3265.9404	922.05	42.7
1056.1036	3266.8329	921.1	43.15
1056.2031	3267.7247	931.05	42.5
1056.3025	3268.616	917.45	40.45
1056.4019	3269.5066	918.15	40.75
1056.5013	3270.3966	920.25	41.1
1056.6005	3271.286	917.05	40.5
