Software Version:	3.9.2.0
Unit SN:	10000200
Spectrometer SN:	6960
Date:	3/6/2024 11:05:28 AM
Data Line Index:	25
Spectral Points:	2048
Integration time (ms):	125
Averages:	20
Delay (ms):	30
Sequence Number:	1
Processing:	dark subtract
Laser Power (mW):	300
Laser Current (mA):	821
Laser Diode Temp (C):	25.1
Laser Case Temp (C):	28.4
System Temp (C):	28.2
Spectrometer Temp (C):	25.7
CCD Temp (C):	-0.003
Secondary Temp (C):	20.007
Heatsink Temp (C):	23.917
CCDPCB Temp (C):	37.652
SecondaryPCB Temp (C):	35.04

Wavelength	RamanShift	Raw Counts	Dark Subtracted
787.061	30.1047	1119.15	705.65
787.2016	32.3739	1149.15	737.45
787.3422	34.6426	1191.5	777.2
787.4828	36.9109	1240.35	825.45
787.6235	39.1787	1294.15	875.9
787.7642	41.4461	1359.4	935.85
787.9049	43.7131	1420.6	993.85
788.0456	45.9796	1481.65	1053
788.1863	48.2456	1549	1114.4
788.3271	50.5112	1624.1	1183.65
788.4679	52.7764	1686.45	1247.7
788.6087	55.0411	1766.65	1323.75
788.7496	57.3054	1848.7	1399.7
788.8904	59.5692	1936.35	1485.25
789.0313	61.8326	2030.3	1573.5
789.1722	64.0955	2137.35	1678.4
789.3132	66.3579	2271.45	1805.25
789.4541	68.6199	2425.25	1956.45
789.5951	70.8815	2665.45	2194.5
789.7361	73.1426	3169.95	2695
789.8771	75.4032	4420.25	3939.75
790.0181	77.6634	7631.65	7145.55
790.1592	79.9231	15874.5	15382.9
790.3003	82.1824	52209.4	51708.5
790.4414	84.4412	65535	65019.6
790.5825	86.6995	65535	64999.1
790.7237	88.9574	65535	64980.55
790.8648	91.2148	65535	64962.4
791.006	93.4717	65535	64952.9
791.1472	95.7282	65535	64950.65
791.2885	97.9842	65535	64946.45
791.4297	100.2398	65535	64943.05
791.571	102.4949	65535	64938.55
791.7123	104.7495	65535	64934.85
791.8536	107.0036	65535	64934.75
791.9949	109.2573	65535	64938.35
792.1363	111.5105	65535	64936.8
792.2777	113.7632	65535	64935.05
792.4191	116.0154	65535	64923.2
792.5605	118.2672	65535	64928.25
792.7019	120.5185	65535	64927.45
792.8434	122.7693	65535	64925.05
792.9849	125.0197	65535	64922.75
793.1264	127.2696	65535	64916.45
793.2679	129.519	65535	64915.85
793.4094	131.7679	65535	64911.4
793.551	134.0163	65535	64908.25
793.6926	136.2642	65535	64904.05
793.8342	138.5117	65535	64895.05
793.9758	140.7587	65535	64902.45
794.1175	143.0052	65535	64897.3
794.2591	145.2512	65535	64897.3
794.4008	147.4967	65535	64898.95
794.5425	149.7417	65535	64891.95
794.6842	151.9863	65535	64891.75
794.826	154.2304	65535	64888.55
794.9677	156.4739	65535	64880.6
795.1095	158.717	65535	64886.75
795.2513	160.9596	65535	64878.35
795.3931	163.2017	65535	64875.8
795.535	165.4433	65535	64874.5
795.6768	167.6844	65535	64868.8
795.8187	169.925	65535	64869.75
795.9606	172.1651	65535	64863.9
796.1025	174.4047	65535	64860.65
796.2445	176.6439	65535	64859.85
796.3864	178.8825	65535	64861
796.5284	181.1206	65535	64853.35
796.6704	183.3582	65535	64848.05
796.8124	185.5954	65535	64847.3
796.9544	187.832	65535	64845.85
797.0965	190.0681	65535	64842.2
797.2386	192.3037	65535	64838.95
797.3806	194.5388	65535	64837.6
797.5228	196.7734	65535	64836.3
797.6649	199.0075	65535	64832
797.807	201.2411	65535	64826.05
797.9492	203.4742	65535	64826.65
798.0914	205.7068	65535	64826.1
798.2336	207.9389	65535	64827
798.3758	210.1704	65535	64822.25
798.518	212.4015	65535	64820.7
798.6603	214.632	65535	64826.6
798.8025	216.862	65535	64833.7
798.9448	219.0915	65535	64843.6
799.0871	221.3205	65535	64842.25
799.2294	223.549	65535	64843.7
799.3718	225.777	65535	64842.7
799.5141	228.0044	65535	64840.85
799.6565	230.2314	65535	64839.75
799.7989	232.4578	65535	64839.75
799.9413	234.6837	65535	64829.75
800.0837	236.909	65535	64830.7
800.2262	239.1339	65535	64807.85
800.3687	241.3582	65535	64818.85
800.5111	243.582	65535	64789.3
800.6536	245.8053	65535	64802.95
800.7961	248.0281	65535	64809.75
800.9387	250.2503	65535	64800.05
801.0812	252.472	65535	64798.35
801.2238	254.6932	65535	64794.6
801.3664	256.9139	65535	64795.05
801.509	259.134	65535	64793.15
801.6516	261.3536	65535	64792.55
801.7942	263.5727	65535	64791.55
801.9369	265.7912	65535	64793.85
802.0795	268.0092	65535	64791.1
802.2222	270.2267	65535	64788.75
802.3649	272.4436	65535	64789
802.5076	274.6601	65535	64780.85
802.6504	276.8759	65535	64787.25
802.7931	279.0913	65535	64780.45
802.9359	281.3061	65535	64784.1
803.0787	283.5204	65535	64779.15
803.2215	285.7341	65535	64774.05
803.3643	287.9473	65535	64763.8
803.5071	290.16	65535	64768.2
803.6499	292.3721	65535	64775.55
803.7928	294.5837	65535	64772.9
803.9357	296.7947	65535	64774.45
804.0786	299.0052	65535	64772.65
804.2215	301.2152	65535	64772.2
804.3644	303.4246	65535	64776
804.5074	305.6334	65535	64772.95
804.6503	307.8418	65535	64768.45
804.7933	310.0495	65535	64764.85
804.9363	312.2568	65535	64768.7
805.0793	314.4635	65535	64765.8
805.2223	316.6696	65535	64769.1
805.3653	318.8752	65535	64756.2
805.5084	321.0802	65535	64766.6
805.6514	323.2847	65535	64761.2
805.7945	325.4887	65535	64765.45
805.9376	327.692	65535	64759.7
806.0807	329.8949	65535	64757.65
806.2238	332.0972	65535	64756.15
806.367	334.2989	65535	64751.45
806.5101	336.5001	65535	64754.35
806.6533	338.7007	65535	64755.8
806.7965	340.9008	65535	64753.45
806.9397	343.1003	65535	64748.55
807.0829	345.2992	65535	64749.55
807.2261	347.4976	65535	64749.35
807.3693	349.6955	65535	64746.95
807.5126	351.8927	65535	64746.45
807.6559	354.0895	65535	64731.85
807.7991	356.2856	65535	64740.75
807.9424	358.4812	65535	64744
808.0857	360.6763	65535	64741.9
808.2291	362.8707	65535	64737.9
808.3724	365.0646	65535	64738.6
808.5158	367.258	65535	64733.85
808.6591	369.4508	65535	64730.85
808.8025	371.643	65535	64730.6
808.9459	373.8346	65535	64733.4
809.0893	376.0257	65535	64727.7
809.2327	378.2162	65535	64728.45
809.3762	380.4062	65535	64721.55
809.5196	382.5956	65535	64724.55
809.6631	384.7844	65535	64722.95
809.8066	386.9726	65535	64721.6
809.9501	389.1603	65535	64729.2
810.0936	391.3474	65535	64695.15
810.2371	393.5339	65535	64730.65
810.3806	395.7199	65535	64732.4
810.5241	397.9052	65535	64730.15
810.6677	400.09	65535	64734.15
810.8113	402.2743	65535	64734.35
810.9548	404.4579	65535	64733.35
811.0984	406.641	65535	64732.2
811.2421	408.8235	65535	64728.2
811.3857	411.0054	65535	64727.1
811.5293	413.1868	65535	64723.3
811.673	415.3675	65535	64722.85
811.8166	417.5477	65535	64723.15
811.9603	419.7273	65535	64720
812.104	421.9064	65535	64710.8
812.2477	424.0848	65535	64716.15
812.3914	426.2627	65535	64713.05
812.5351	428.4399	65535	64714.2
812.6788	430.6166	65535	64710.5
812.8226	432.7928	65535	64711
812.9663	434.9683	65535	64709.7
813.1101	437.1432	65535	64704
813.2539	439.3176	65535	64708.35
813.3977	441.4914	65535	64708.15
813.5415	443.6645	65535	64708.8
813.6853	445.8371	65535	64707.7
813.8291	448.0091	65535	64706.65
813.973	450.1806	65535	64707.65
814.1168	452.3514	65535	64704
814.2607	454.5216	65535	64695.6
814.4046	456.6913	65535	64702
814.5485	458.8603	65535	64703.95
814.6924	461.0288	65535	64703.15
814.8363	463.1967	65535	64703
814.9802	465.3639	65535	64700.6
815.1241	467.5306	65535	64702.1
815.2681	469.6967	65535	64702.1
815.412	471.8622	65535	64703.85
815.556	474.0271	65535	64701.5
815.7	476.1914	65535	64698.1
815.844	478.3551	65535	64701.55
815.988	480.5182	65535	64699.05
816.132	482.6807	65535	64697.45
816.276	484.8426	65535	64699.85
816.4201	487.0039	65535	64697.7
816.5641	489.1647	65535	64698.1
816.7082	491.3248	65535	64698.6
816.8522	493.4843	65535	64697.3
816.9963	495.6432	65535	64698.6
817.1404	497.8015	65535	64691.75
817.2845	499.9592	65535	64695
817.4286	502.1163	65535	64695.2
817.5727	504.2728	65535	64690.8
817.7168	506.4287	65535	64693.15
817.861	508.5839	65535	64693.75
818.0051	510.7386	65535	64694.95
818.1493	512.8927	65535	64689.65
818.2935	515.0461	65535	64691.85
818.4377	517.199	65535	64689.9
818.5818	519.3512	65535	64689.9
818.726	521.5029	65535	64683.95
818.8703	523.6539	65535	64686
819.0145	525.8043	65535	64685.4
819.1587	527.9541	65535	64685.65
819.303	530.1033	65535	64685.35
819.4472	532.2519	65535	64684.4
819.5915	534.3999	65535	64684.6
819.7357	536.5472	65535	64684.45
819.88	538.694	65535	64684.25
820.0243	540.8401	65535	64686
820.1686	542.9856	65535	64685.15
820.3129	545.1305	65535	64679.85
820.4572	547.2748	65535	64684.5
820.6016	549.4185	65535	64681.3
820.7459	551.5615	65535	64680.95
820.8902	553.704	65535	64683.55
821.0346	555.8458	65535	64683.2
821.1789	557.987	65535	64682.05
821.3233	560.1276	65535	64683.8
821.4677	562.2675	65535	64684.25
821.6121	564.4069	65535	64683.05
821.7565	566.5456	65535	64681.75
821.9009	568.6837	65535	64679.45
822.0453	570.8212	65535	64682.15
822.1897	572.958	65535	64678.55
822.3342	575.0942	65535	64679.65
822.4786	577.2299	65535	64677.1
822.6231	579.3648	65535	64680
822.7675	581.4992	65535	64681.65
822.912	583.6329	65535	64677.6
823.0565	585.766	65535	64679.15
823.201	587.8985	65535	64680.45
823.3454	590.0304	65535	64664
823.4899	592.1616	65535	64677.9
823.6345	594.2922	65535	64673.85
823.779	596.4222	65535	64676.25
823.9235	598.5515	65535	64674.8
824.068	600.6802	65535	64675
824.2126	602.8083	65535	64673.7
824.3571	604.9358	65535	64673.55
824.5017	607.0626	65535	64673.25
824.6462	609.1888	65535	64673.2
824.7908	611.3144	65535	64672.65
824.9354	613.4393	65535	64672.35
825.08	615.5636	65535	64669.95
825.2246	617.6873	65535	64672.7
825.3692	619.8103	65535	64669.7
825.5138	621.9327	65535	64669.55
825.6584	624.0544	65535	64672.6
825.803	626.1756	65535	64673.2
825.9477	628.2961	65535	64670
826.0923	630.4159	65535	64669.15
826.237	632.5351	65535	64669.55
826.3816	634.6537	65535	64667.6
826.5263	636.7716	65535	64668.5
826.6709	638.8889	65535	64667.15
826.8156	641.0056	65535	64666.75
826.9603	643.1216	65535	64667.65
827.105	645.237	65535	64663.3
827.2497	647.3518	65535	64669.55
827.3944	649.4659	65535	64666.7
827.5391	651.5793	65535	64669.55
827.6838	653.6922	65535	64668.55
827.8285	655.8043	65535	64665.85
827.9733	657.9159	65535	64662.85
828.118	660.0268	65535	64661.05
828.2627	662.137	65535	64664.05
828.4075	664.2466	65535	64662.35
828.5522	666.3556	65535	64663.9
828.697	668.4639	65535	64660.15
828.8418	670.5716	65535	64663.2
828.9865	672.6786	65535	64663.35
829.1313	674.785	65535	64662.5
829.2761	676.8907	65535	64664.65
829.4209	678.9958	65535	64667.3
829.5657	681.1002	65535	64663.6
829.7105	683.204	65535	64656.8
829.8553	685.3072	65535	64661.3
830.0001	687.4097	65535	64661.45
830.1449	689.5115	65535	64660.65
830.2898	691.6127	65535	64659.55
830.4346	693.7132	65535	64658.75
830.5794	695.8131	65535	64647
830.7243	697.9123	65535	64656.75
830.8691	700.0109	65535	64656.6
831.014	702.1089	65535	64658.3
831.1588	704.2061	65535	64660.65
831.3037	706.3028	65535	64658.6
831.4486	708.3987	65535	64659.85
831.5935	710.4941	65535	64658
831.7383	712.5887	65535	64659.05
831.8832	714.6827	65535	64651.35
832.0281	716.7761	65535	64658.1
832.173	718.8688	65535	64655.8
832.3179	720.9608	65535	64654.1
832.4628	723.0522	65535	64653.2
832.6077	725.1429	65535	64657.5
832.7527	727.233	65535	64654.7
832.8976	729.3224	65535	64655.6
833.0425	731.4112	65535	64656.7
833.1874	733.4993	65535	64651.45
833.3324	735.5867	65535	64654.4
833.4773	737.6735	65535	64652.1
833.6222	739.7596	65535	64654.6
833.7672	741.845	65535	64652.7
833.9122	743.9298	65535	64653.1
834.0571	746.014	65535	64655.2
834.2021	748.0974	65535	64651.7
834.347	750.1802	65535	64650.6
834.492	752.2624	65535	64653.05
834.637	754.3439	65535	64651.9
834.782	756.4247	65535	64642.95
834.9269	758.5048	65535	64653.35
835.0719	760.5843	65535	64650.4
835.2169	762.6631	65535	64651.2
835.3619	764.7413	65535	64654.45
835.5069	766.8188	65535	64653.45
835.6519	768.8956	65535	64649.95
835.7969	770.9718	65535	64653.1
835.9419	773.0473	65535	64650.95
836.0869	775.1221	65535	64653.2
836.232	777.1962	65535	64652.4
836.377	779.2697	65535	64649.55
836.522	781.3426	65535	64632.2
836.667	783.4147	65535	64651.8
836.8121	785.4862	65535	64654
836.9571	787.557	65535	64653.3
837.1021	789.6271	65535	64647.5
837.2472	791.6966	65535	64650.55
837.3922	793.7654	65535	64649.9
837.5373	795.8335	65535	64647.9
837.6823	797.901	65535	64649.3
837.8274	799.9678	65535	64649.35
837.9724	802.0339	65535	64649.35
838.1175	804.0993	65535	64641.6
838.2626	806.1641	65535	64651.6
838.4076	808.2282	65535	64647.9
838.5527	810.2916	65535	64648.8
838.6978	812.3544	65535	64649.6
838.8428	814.4164	65535	64650.35
838.9879	816.4778	65535	64649.2
839.133	818.5385	65535	64648.4
839.2781	820.5986	65535	64647.3
839.4232	822.658	65535	64645.95
839.5682	824.7166	65535	64652.8
839.7133	826.7747	65535	64650.9
839.8584	828.832	65535	64648.65
840.0035	830.8886	65535	64648.8
840.1486	832.9446	65535	64649.2
840.2937	834.9999	65535	64647.75
840.4388	837.0545	65535	64643.1
840.5839	839.1085	65535	64646.6
840.729	841.1618	65535	64644.75
840.8741	843.2143	65535	64650.55
841.0192	845.2662	65535	64646.15
841.1643	847.3175	65535	64647
841.3095	849.368	65535	64647.55
841.4546	851.4179	65535	64647.7
841.5997	853.467	65535	64645.75
841.7448	855.5155	65535	64644.25
841.8899	857.5633	65535	64648.9
842.0351	859.6105	65535	64643.8
842.1802	861.6569	65535	64644.35
842.3253	863.7027	65535	64645.55
842.4704	865.7478	65535	64642.35
842.6156	867.7922	65535	64647.3
842.7607	869.8359	65535	64644.5
842.9058	871.8789	65535	64646.75
843.0509	873.9212	65535	64610.75
843.1961	875.9629	65535	64645.4
843.3412	878.0039	65535	64647.7
843.4863	880.0441	65535	64649
843.6315	882.0837	65535	64643.8
843.7766	884.1226	65535	64642.55
843.9218	886.1609	65535	64646.25
844.0669	888.1984	65535	64645.4
844.212	890.2352	65535	64645.35
844.3572	892.2714	65535	64639.15
844.5023	894.3069	65535	64643.2
844.6475	896.3416	65535	64645.1
844.7926	898.3757	65535	64644.7
844.9377	900.4091	65535	64641.95
845.0829	902.4418	65535	64640.7
845.228	904.4739	65535	64642.05
845.3732	906.5052	65535	64644.15
845.5183	908.5358	65535	64643.9
845.6635	910.5658	65535	64639.45
845.8086	912.595	65535	64642.85
845.9538	914.6236	65535	64645.85
846.0989	916.6515	65535	64644.9
846.2441	918.6786	65535	64641.7
846.3892	920.7051	65535	64642.15
846.5344	922.7309	65535	64643.45
846.6795	924.756	65535	64644.65
846.8246	926.7804	65535	64642.4
846.9698	928.8041	65535	64640.35
847.1149	930.8272	65535	64640.85
847.2601	932.8495	65535	64642.8
847.4052	934.8711	65535	64639.6
847.5504	936.892	65535	64642.4
847.6955	938.9123	65535	64643.05
847.8407	940.9318	65535	64643.2
847.9858	942.9506	65535	64641.5
848.131	944.9688	65535	64642.25
848.2761	946.9862	65535	64641.4
848.4213	949.003	65535	64642.1
848.5664	951.019	65535	64642.55
848.7115	953.0344	65535	64641.3
848.8567	955.0491	65535	64640.5
849.0018	957.063	65535	64641.65
849.147	959.0763	65535	64642.1
849.2921	961.0888	65535	64640.2
849.4373	963.1007	65535	64640.4
849.5824	965.1119	65535	64643.8
849.7275	967.1223	65535	64641.2
849.8727	969.1321	65535	64641.45
850.0178	971.1412	65535	64642.95
850.1629	973.1495	65535	64641.85
850.3081	975.1572	65535	64605.7
850.4532	977.1641	65535	64640.5
850.5983	979.1704	65535	64643
850.7435	981.1759	65535	64637.05
850.8886	983.1808	65535	64642.8
851.0337	985.1849	65535	64629.75
851.1788	987.1884	65535	64637.45
851.324	989.1911	65535	64637.75
851.4691	991.1932	65535	64640.7
851.6142	993.1945	65535	64641.65
851.7593	995.1951	65535	64640.45
851.9045	997.1951	65535	64636
852.0496	999.1943	65535	64642.9
852.1947	1001.1928	65535	64637.4
852.3398	1003.1906	65535	64638.15
852.4849	1005.1877	65535	64637.7
852.63	1007.1841	65535	64641.85
852.7751	1009.1798	65535	64640.8
852.9202	1011.1748	65535	64640.6
853.0653	1013.1691	65535	64639.25
853.2104	1015.1627	65535	64640.65
853.3555	1017.1556	65535	64641.65
853.5006	1019.1477	65535	64638.35
853.6457	1021.1392	65535	64644.15
853.7908	1023.1299	65535	64639.5
853.9359	1025.12	65535	64642.6
854.081	1027.1093	65535	64644.65
854.2261	1029.0979	65535	64645.75
854.3712	1031.0859	65535	64644.2
854.5163	1033.0731	65535	64639.9
854.6613	1035.0596	65535	64642.75
854.8064	1037.0454	65535	64639.85
854.9515	1039.0304	65535	64637.1
855.0965	1041.0148	65535	64640.2
855.2416	1042.9985	65535	64639.75
855.3867	1044.9814	65535	64642.95
855.5317	1046.9636	65535	64639.8
855.6768	1048.9452	65535	64643.7
855.8219	1050.926	65535	64641.2
855.9669	1052.9061	65535	64643.4
856.112	1054.8855	65535	64640.1
856.257	1056.8642	65535	64640.9
856.4021	1058.8421	65535	64635.85
856.5471	1060.8194	65535	64641.15
856.6921	1062.7959	65535	64642.15
856.8372	1064.7717	65535	64637.95
856.9822	1066.7469	65535	64639.1
857.1272	1068.7213	65535	64636.9
857.2723	1070.695	65535	64638.85
857.4173	1072.6679	65535	64639.95
857.5623	1074.6402	65535	64638.3
857.7073	1076.6117	65535	64633.25
857.8523	1078.5826	65535	64637.4
857.9973	1080.5527	65535	64636.35
858.1423	1082.5221	65535	64638.05
858.2873	1084.4908	65535	64639.25
858.4323	1086.4587	65535	64641.75
858.5773	1088.426	65535	64637
858.7223	1090.3925	65535	64632.95
858.8673	1092.3584	65535	64639.35
859.0123	1094.3235	65535	64640.8
859.1573	1096.2879	65535	64637.2
859.3022	1098.2515	65535	64639.4
859.4472	1100.2145	65535	64640.4
859.5922	1102.1767	65535	64637.2
859.7371	1104.1382	65535	64640.2
859.8821	1106.099	65535	64637.4
860.027	1108.0591	65535	64639.2
860.172	1110.0185	65535	64637.75
860.3169	1111.9771	65535	64637.9
860.4619	1113.9351	65535	64637.8
860.6068	1115.8923	65535	64641.55
860.7517	1117.8488	65535	64637.2
860.8967	1119.8045	65535	64638.9
861.0416	1121.7596	65535	64637.8
861.1865	1123.7139	65535	64638.9
861.3314	1125.6675	65535	64637.55
861.4763	1127.6204	65535	64639.3
861.6212	1129.5726	65535	64636.8
861.7661	1131.524	65535	64640.8
861.911	1133.4748	65535	64636.75
862.0559	1135.4248	65535	64637.55
862.2008	1137.3741	65535	64640.25
862.3457	1139.3226	65535	64638.5
862.4905	1141.2705	65535	64639.5
862.6354	1143.2176	65535	64632.85
862.7803	1145.164	65535	64638.95
862.9251	1147.1097	65535	64640.85
863.07	1149.0546	65535	64637.9
863.2148	1150.9989	65535	64637.3
863.3597	1152.9424	65535	64637.7
863.5045	1154.8852	65535	64639.4
863.6493	1156.8272	65535	64637.65
863.7942	1158.7686	65535	64630.55
863.939	1160.7092	65535	64636.6
864.0838	1162.6491	65535	64635.8
864.2286	1164.5883	65535	64640.65
864.3734	1166.5267	65535	64637.55
864.5182	1168.4644	65535	64639.95
864.663	1170.4014	65535	64634.85
864.8078	1172.3377	65535	64639.3
864.9526	1174.2732	65535	64638.7
865.0974	1176.2081	65535	64640.2
865.2421	1178.1421	65535	64633.55
865.3869	1180.0755	65535	64638.9
865.5317	1182.0082	65535	64638.5
865.6764	1183.9401	65535	64639.15
865.8212	1185.8713	65535	64639.05
865.9659	1187.8017	65535	64639.9
866.1106	1189.7315	65535	64638.3
866.2554	1191.6605	65535	64609.65
866.4001	1193.5888	65535	64638.95
866.5448	1195.5163	65535	64639.9
866.6895	1197.4432	65535	64635.35
866.8342	1199.3693	65535	64638.35
866.9789	1201.2947	65535	64633.5
867.1236	1203.2193	65535	64639.3
867.2683	1205.1432	65535	64638
867.413	1207.0664	65535	64639.2
867.5576	1208.9889	65535	64635.7
867.7023	1210.9106	65535	64639.5
867.847	1212.8316	65535	64638.25
867.9916	1214.7519	65535	64630.15
868.1363	1216.6715	65535	64638.95
868.2809	1218.5903	65535	64637.7
868.4255	1220.5084	65535	64639.45
868.5701	1222.4257	65535	64638.6
868.7148	1224.3424	65535	64640.3
868.8594	1226.2583	65535	64638.4
869.004	1228.1735	65535	64636.3
869.1486	1230.0879	65535	64637.3
869.2932	1232.0016	65535	64637.65
869.4377	1233.9146	65535	64636.9
869.5823	1235.8269	65535	64639.05
869.7269	1237.7384	65535	64637.05
869.8715	1239.6492	65535	64639.95
870.016	1241.5592	65535	64635.05
870.1606	1243.4686	65535	64638
870.3051	1245.3772	65535	64637.85
870.4496	1247.285	65535	64638.75
870.5941	1249.1922	65535	64636
870.7387	1251.0986	65535	64639.3
870.8832	1253.0042	65535	64639.85
871.0277	1254.9092	65535	64636.5
871.1722	1256.8134	65535	64639.6
871.3167	1258.7169	65535	64637.1
871.4611	1260.6196	65535	64638.55
871.6056	1262.5216	65535	64638.95
871.7501	1264.4229	65535	64639
871.8945	1266.3234	65535	64637.2
872.039	1268.2232	65535	64636.75
872.1834	1270.1223	65535	64635.95
872.3278	1272.0207	65535	64638.65
872.4723	1273.9183	65535	64632.65
872.6167	1275.8151	65535	64637.95
872.7611	1277.7113	65535	64636.95
872.9055	1279.6067	65535	64636.9
873.0499	1281.5014	65535	64635.6
873.1943	1283.3953	65535	64634.65
873.3386	1285.2885	65535	64640
873.483	1287.181	65535	64638
873.6274	1289.0727	65535	64637.85
873.7717	1290.9637	65535	64637.8
873.9161	1292.854	65535	64638.7
874.0604	1294.7435	65535	64638.65
874.2047	1296.6323	65535	64637.3
874.349	1298.5204	65535	64635.05
874.4933	1300.4077	65535	64637.3
874.6376	1302.2943	65535	64639.5
874.7819	1304.1802	65535	64639.15
874.9262	1306.0653	65535	64634
875.0705	1307.9497	65535	64637.6
875.2147	1309.8333	65535	64636.35
875.359	1311.7162	65535	64636.7
875.5032	1313.5984	65535	64635.35
875.6475	1315.4798	65535	64625.35
875.7917	1317.3605	65535	64623
875.9359	1319.2405	65535	64636.2
876.0801	1321.1197	65535	64636.25
876.2243	1322.9982	65535	64634.65
876.3685	1324.876	65535	64639.3
876.5127	1326.753	65535	64638.1
876.6569	1328.6293	65535	64636.35
876.801	1330.5048	65535	64635.9
876.9452	1332.3796	65535	64638.75
877.0893	1334.2537	65535	64611.65
877.2335	1336.127	65535	64637.25
877.3776	1337.9996	65535	64637.35
877.5217	1339.8714	65535	64637.8
877.6658	1341.7426	65535	64594.3
877.8099	1343.6129	65535	64637.95
877.954	1345.4826	65535	64636.7
878.0981	1347.3515	65535	64634.6
878.2422	1349.2196	65535	64635.5
878.3862	1351.087	65535	64638.1
878.5303	1352.9537	65535	64636.15
878.6743	1354.8197	65535	64637.05
878.8184	1356.6849	65535	64637.4
878.9624	1358.5493	65535	64637.1
879.1064	1360.4131	65535	64639.1
879.2504	1362.276	65535	64638.8
879.3944	1364.1383	65535	64636.85
879.5384	1365.9998	65535	64632.75
879.6823	1367.8606	65535	64636.85
879.8263	1369.7206	65535	64636.05
879.9702	1371.5799	65535	64638.2
880.1142	1373.4384	65535	64637.3
880.2581	1375.2962	65535	64636.5
880.402	1377.1533	65535	64637.7
880.5459	1379.0096	65535	64637.7
880.6898	1380.8652	65535	64636.2
880.8337	1382.7201	65535	64636.9
880.9776	1384.5742	65535	64636.7
881.1215	1386.4275	65535	64635.9
881.2653	1388.2802	65535	64639.85
881.4092	1390.132	65535	64638.55
881.553	1391.9832	65535	64637.05
881.6968	1393.8336	65535	64637.4
881.8406	1395.6832	65535	64636.85
881.9844	1397.5322	65535	64637.8
882.1282	1399.3803	65535	64632.85
882.272	1401.2278	65535	64636.5
882.4158	1403.0745	65535	64638.65
882.5595	1404.9204	65535	64639.1
882.7033	1406.7656	65535	64639.35
882.847	1408.6101	65535	64637.6
882.9908	1410.4538	65535	64637.15
883.1345	1412.2968	65535	64638.65
883.2782	1414.139	65535	64637.65
883.4219	1415.9805	65535	64638.6
883.5656	1417.8213	65535	64634.25
883.7092	1419.6613	65535	64639.2
883.8529	1421.5006	65535	64638.4
883.9965	1423.3391	65535	64636.85
884.1402	1425.1769	65535	64636.25
884.2838	1427.0139	65535	64638.45
884.4274	1428.8502	65535	64634.15
884.571	1430.6858	65535	64638
884.7146	1432.5206	65535	64638.05
884.8582	1434.3547	65535	64636.6
885.0018	1436.188	65535	64639.15
885.1453	1438.0206	65535	64636.15
885.2889	1439.8524	65535	64636.65
885.4324	1441.6835	65535	64637.5
885.5759	1443.5139	65535	64635.9
885.7194	1445.3435	65535	64637.95
885.8629	1447.1724	65535	64636.7
886.0064	1449.0005	65535	64637.35
886.1499	1450.8279	65535	64636.95
886.2933	1452.6545	65535	64636.4
886.4368	1454.4804	65535	64639.2
886.5802	1456.3056	65535	64630.75
886.7237	1458.13	65535	64637.8
886.8671	1459.9536	65535	64638.8
887.0105	1461.7766	65535	64636.9
887.1539	1463.5987	65535	64639.45
887.2972	1465.4202	65535	64638.45
887.4406	1467.2409	65535	64638.1
887.584	1469.0608	65535	64637.7
887.7273	1470.88	65535	64636.9
887.8706	1472.6984	65535	64636.85
888.0139	1474.5161	65535	64632.8
888.1572	1476.3331	65535	64637.85
888.3005	1478.1493	65535	64638.6
888.4438	1479.9648	65535	64636.15
888.5871	1481.7795	65535	64640.6
888.7303	1483.5935	65535	64638.55
888.8736	1485.4067	65535	64640.35
889.0168	1487.2192	65535	64638.25
889.16	1489.031	65535	64635.35
889.3032	1490.842	65535	64637.45
889.4464	1492.6522	65535	64636.1
889.5896	1494.4618	65535	64637.7
889.7327	1496.2705	65535	64639.7
889.8759	1498.0785	65535	64635.75
890.019	1499.8858	65535	64636.7
890.1622	1501.6924	65535	64639.35
890.3053	1503.4981	65535	64639.95
890.4484	1505.3032	65535	64635.45
890.5914	1507.1075	65535	64638.7
890.7345	1508.911	65535	64636.5
890.8776	1510.7138	65535	64637.95
891.0206	1512.5159	65535	64638.4
891.1637	1514.3172	65535	64639.7
891.3067	1516.1178	65535	64639.25
891.4497	1517.9176	65535	64632.65
891.5927	1519.7166	65535	64638.9
891.7357	1521.515	65535	64632.45
891.8786	1523.3126	65535	64636.3
892.0216	1525.1094	65535	64636.05
892.1645	1526.9055	65535	64640.8
892.3074	1528.7008	65535	64638.85
892.4503	1530.4954	65535	64632.05
892.5932	1532.2893	65535	64640.4
892.7361	1534.0824	65535	64633.95
892.879	1535.8747	65535	64638.5
893.0218	1537.6663	65535	64636.4
893.1647	1539.4572	65521.2	64624.8
893.3075	1541.2473	65534.3	64636.4
893.4503	1543.0367	65534.35	64637.45
893.5931	1544.8253	65529.85	64629.4
893.7359	1546.6132	65533.75	64634.55
893.8787	1548.4003	65523.75	64617.45
894.0214	1550.1867	65514.7	64608.9
894.1642	1551.9723	65506.1	64607.6
894.3069	1553.7572	65508.95	64613.25
894.4496	1555.5414	65522.2	64625.8
894.5923	1557.3247	65217.35	64321.55
894.735	1559.1074	65514.2	64619.1
894.8777	1560.8893	65450.65	64555.7
895.0204	1562.6705	65473.05	64578.25
895.163	1564.4509	65247.3	64352.2
895.3056	1566.2305	65382.8	64489.65
895.4482	1568.0094	65487.85	64594.15
895.5908	1569.7876	65425.8	64529.7
895.7334	1571.565	65241.05	64345.35
895.876	1573.3417	65339.95	64446.55
896.0186	1575.1176	65302.55	64407.1
896.1611	1576.8928	65181.55	64286.05
896.3036	1578.6672	64906.3	64013.5
896.4461	1580.4409	65117.6	64224.85
896.5886	1582.2138	64561.45	63664.5
896.7311	1583.986	64718.2	63822.25
896.8736	1585.7575	64188	63293.85
897.0161	1587.5282	64403.45	63510.85
897.1585	1589.2981	64413.2	63518.1
897.3009	1591.0673	63820.6	62926.35
897.4433	1592.8358	63281.85	62387.9
897.5857	1594.6035	63796.1	62897.2
897.7281	1596.3704	63886.6	62992.05
897.8705	1598.1366	62857.9	61964.6
898.0128	1599.9021	62381.7	61488.2
898.1551	1601.6668	63183.25	62287.25
898.2975	1603.4308	62720	61826.45
898.4398	1605.194	62810.15	61910.2
898.5821	1606.9564	61705.05	60810.65
898.7243	1608.7182	62308.5	61409.7
898.8666	1610.4791	61739.75	60846.15
899.0088	1612.2394	62291.1	61398.15
899.1511	1613.9988	61618.85	60726.1
899.2933	1615.7576	62304.85	61412.05
899.4355	1617.5156	62298.95	61399.15
899.5776	1619.2728	63146.1	62250.3
899.7198	1621.0293	61828.6	60935.6
899.862	1622.785	61842.7	60945.1
900.0041	1624.54	62296.6	61399.85
900.1462	1626.2942	61592	60695.7
900.2883	1628.0477	60544.6	59647.45
900.4304	1629.8005	59895.6	58997.55
900.5725	1631.5525	60475.1	59584.2
900.7145	1633.3037	59307.35	58413.4
900.8566	1635.0542	59230.45	58336.9
900.9986	1636.804	59580.25	58684.6
901.1406	1638.553	58653.6	57640.65
901.2826	1640.3013	58876.05	57978.25
901.4245	1642.0488	58147.45	57252.75
901.5665	1643.7955	58558.8	57666.25
901.7085	1645.5416	58074.35	57181.45
901.8504	1647.2868	57754.7	56860.8
901.9923	1649.0313	58303.75	57409.5
902.1342	1650.7751	57898.25	56999.45
902.2761	1652.5181	57569.65	56677.1
902.4179	1654.2604	57695	56801.3
902.5598	1656.0019	58182.7	57290.2
902.7016	1657.7427	57908.85	57016.8
902.8434	1659.4828	58397.55	57505.3
902.9852	1661.222	58156.75	57261.25
903.127	1662.9606	58417.6	57524.85
903.2687	1664.6984	57856.1	56961.65
903.4105	1666.4354	57827.15	56932.65
903.5522	1668.1717	56695.7	55801.3
903.6939	1669.9072	56022.25	55130.75
903.8356	1671.642	55669.95	54773.5
903.9773	1673.3761	55366	54472.45
904.119	1675.1094	55082.8	54187.95
904.2606	1676.8419	54601.15	53706.5
904.4022	1678.5737	54296.55	53402.95
904.5439	1680.3048	53990.55	53098
904.6855	1682.0351	53662.9	52768.7
904.827	1683.7646	53350.65	52454.5
904.9686	1685.4934	53324.75	52433.1
905.1101	1687.2215	52612.05	51718.75
905.2517	1688.9488	52892.1	52001.65
905.3932	1690.6754	51962.35	51069.7
905.5347	1692.4012	52205.2	51313.05
905.6761	1694.1263	52005.45	51111.45
905.8176	1695.8506	51758	50865.45
905.9591	1697.5742	51627.5	50733.9
906.1005	1699.297	51364.65	50471.45
906.2419	1701.0191	51168.2	50274.65
906.3833	1702.7404	50822.65	49930.15
906.5246	1704.461	50580.9	49686.5
906.666	1706.1808	50450.8	49556.05
906.8073	1707.8999	50289.6	49395.65
906.9487	1709.6182	50067.8	49175.05
907.09	1711.3358	49922.95	49029.95
907.2313	1713.0527	49768.85	48877.7
907.3725	1714.7688	49598.2	48701.15
907.5138	1716.4841	49217.15	48323.5
907.655	1718.1987	49201.95	48304.95
907.7962	1719.9126	49042.55	48150.85
907.9374	1721.6257	48818.45	47924.85
908.0786	1723.338	48811.05	47917.05
908.2198	1725.0496	48325.9	47432
908.3609	1726.7605	48267.9	47375.15
908.502	1728.4706	48104.1	47208.35
908.6431	1730.18	47879.05	46985.8
908.7842	1731.8886	47704.2	46813.05
908.9253	1733.5964	47569.8	46657.45
909.0664	1735.3036	47400.7	46505.2
909.2074	1737.0099	47296.35	46403.95
909.3484	1738.7156	47168.25	46278.6
909.4894	1740.4204	46828.45	45932.95
909.6304	1742.1246	46830	45935.4
909.7714	1743.8279	46679.7	45788.3
909.9123	1745.5306	46641.95	45749.45
910.0532	1747.2325	46338.35	45444.9
910.1941	1748.9336	46229.05	45337.55
910.335	1750.634	46054.05	45160.15
910.4759	1752.3336	45955.85	45062.95
910.6168	1754.0325	45779.2	44888.75
910.7576	1755.7307	45661.8	44770.6
910.8984	1757.4281	45635.7	44744
911.0392	1759.1247	45568.7	44668.45
911.18	1760.8206	45343.8	44447.65
911.3208	1762.5158	45286.95	44390.3
911.4615	1764.2102	45012.2	44119.9
911.6022	1765.9039	44828.95	43938.35
911.7429	1767.5968	44775.05	43884.55
911.8836	1769.289	44607.6	43714.95
912.0243	1770.9804	44508.25	43614.5
912.1649	1772.6711	44429.25	43536.05
912.3056	1774.361	44273.2	43380
912.4462	1776.0502	44175.4	43283.5
912.5868	1777.7386	44057.75	43163.65
912.7274	1779.4263	43886.6	42994.65
912.8679	1781.1132	43869.6	42977.2
913.0084	1782.7994	43667.7	42774.45
913.149	1784.4849	43497.1	42604.4
913.2895	1786.1696	43349.9	42451.2
913.4299	1787.8535	43212.55	42320.85
913.5704	1789.5367	43087.85	42196.1
913.7108	1791.2192	43038.4	42147.65
913.8513	1792.9009	42827.8	41908.1
913.9917	1794.5818	42731.8	41839.15
914.132	1796.2621	42599.4	41711.1
914.2724	1797.9415	42483.15	41589.9
914.4128	1799.6202	42360.2	41468.35
914.5531	1801.2982	42236.75	41344
914.6934	1802.9755	42117.8	41225.15
914.8337	1804.6519	42070.95	41178.05
914.9739	1806.3277	41834.7	40943.45
915.1142	1808.0027	41629.9	40737.35
915.2544	1809.6769	41582.25	40690.35
915.3946	1811.3504	41429.85	40536.9
915.5348	1813.0231	41351.7	40459.25
915.675	1814.6951	41297.65	40406.2
915.8151	1816.3664	41227.05	40334.45
915.9553	1818.0369	41102.5	40210.75
916.0954	1819.7067	40973	40082.35
916.2355	1821.3757	40813.25	39919.85
916.3755	1823.044	40742.75	39849.7
916.5156	1824.7115	40608.7	39716
916.6556	1826.3783	40413.8	39523.85
916.7956	1828.0443	40305.6	39413.05
916.9356	1829.7096	40246.15	39353.4
917.0756	1831.3741	40159.7	39263.15
917.2155	1833.0379	40019.8	39128.95
917.3555	1834.701	39850.9	38957.85
917.4954	1836.3633	39803	38909.1
917.6353	1838.0248	39689	38795.85
917.7751	1839.6856	39586.35	38695.65
917.915	1841.3457	39498.75	38608.5
918.0548	1843.005	39356	38465.5
918.1946	1844.6636	39263.45	38371
918.3344	1846.3214	39131.9	38239.9
918.4742	1847.9785	39123.2	38233.8
918.6139	1849.6349	38984.95	38091.95
918.7537	1851.2904	38847.85	37946.2
918.8934	1852.9453	38749.35	37855.25
919.0331	1854.5994	38572.25	37676.9
919.1727	1856.2528	38618.9	37720.9
919.3124	1857.9054	38464.95	37571.3
919.452	1859.5572	38464.25	37573.55
919.5916	1861.2083	38326	37432.65
919.7312	1862.8587	38255.55	37363.85
919.8708	1864.5084	38115.15	37221.95
920.0103	1866.1572	37972.2	37079.95
920.1498	1867.8054	37840.15	36950.2
920.2893	1869.4528	37795.75	36904.8
920.4288	1871.0994	37628.6	36733.7
920.5683	1872.7453	37546.55	36654.7
920.7077	1874.3905	37454.5	36555.95
920.8471	1876.0349	37296.6	36404.7
920.9865	1877.6786	37276	36381.8
921.1259	1879.3215	37271.55	36379.3
921.2653	1880.9637	37132.55	36240.85
921.4046	1882.6051	37038.7	36148.1
921.5439	1884.2458	36889.05	35994.65
921.6832	1885.8858	36728.65	35835.65
921.8225	1887.525	36660.7	35768.65
921.9617	1889.1634	36494.9	35602.15
922.101	1890.8011	36350.05	35454.65
922.2402	1892.4381	36242.55	35351.1
922.3794	1894.0743	36248.35	35356.95
922.5185	1895.7098	36149.35	35257.7
922.6577	1897.3446	36022.2	35130.15
922.7968	1898.9786	35888.35	34991.35
922.9359	1900.6118	35798.65	34906.75
923.075	1902.2443	35579.4	34685.1
923.214	1903.8761	35556.65	34662.45
923.3531	1905.5071	35331.95	34441.75
923.4921	1907.1374	35219.25	34330.1
923.6311	1908.7669	35157.4	34263.8
923.77	1910.3957	35141.9	34251.55
923.909	1912.0237	34832.2	33939
924.0479	1913.651	34821.25	33929.4
924.1868	1915.2776	34693.45	33803.35
924.3257	1916.9034	34535.45	33645.45
924.4646	1918.5285	34315.05	33424
924.6034	1920.1528	34126.2	33232.45
924.7422	1921.7764	34125.85	33234.35
924.881	1923.3992	34013	33121.45
925.0198	1925.0213	33761.4	32869.5
925.1586	1926.6427	33595.2	32704.7
925.2973	1928.2633	33668.3	32668.05
925.436	1929.8832	33472.3	32578.55
925.5747	1931.5023	33276.45	32386.7
925.7134	1933.1207	33203.75	32310.65
925.852	1934.7383	33183.8	32293.4
925.9906	1936.3552	32929.4	32039.15
926.1292	1937.9714	32823.2	31931.5
926.2678	1939.5868	32722.8	31829.2
926.4064	1941.2015	32503.75	31609.4
926.5449	1942.8154	32420.05	31525.35
926.6834	1944.4286	32243.8	31352.05
926.8219	1946.041	32144.85	31235.6
926.9604	1947.6528	31958.55	31060.15
927.0988	1949.2637	31859.55	30967.4
927.2372	1950.8739	31747.1	30856.5
927.3756	1952.4834	31681.9	30791.6
927.514	1954.0921	31666.65	30775.9
927.6523	1955.7001	31498.75	30603.05
927.7907	1957.3074	31364.75	30472.9
927.929	1958.9139	31230.5	30341.25
928.0673	1960.5197	31163.6	30269.2
928.2055	1962.1247	30979.3	30086.55
928.3438	1963.729	30826.6	29937
928.482	1965.3325	30724.55	29809.05
928.6202	1966.9353	30646.25	29754.35
928.7584	1968.5374	30476.75	29585.75
928.8965	1970.1387	30380.8	29488.45
929.0346	1971.7393	30256.55	29366.6
929.1727	1973.3392	30171.8	29280.75
929.3108	1974.9383	30010.9	29120.75
929.4489	1976.5366	29872.6	28981.7
929.5869	1978.1342	29854.5	28961.95
929.7249	1979.7311	29763.2	28871.35
929.8629	1981.3273	29651.35	28759.15
930.0009	1982.9227	29517.4	28625.95
930.1388	1984.5173	29311.2	28418.75
930.2767	1986.1112	29254.55	28363.65
930.4146	1987.7044	29234.9	28346.1
930.5525	1989.2968	29124.45	28232.8
930.6904	1990.8885	29077.2	28181.35
930.8282	1992.4795	29001.35	28107.8
930.966	1994.0697	28880.45	27987.6
931.1038	1995.6592	28773.15	27881.8
931.2415	1997.2479	28659.65	27768.6
931.3793	1998.8359	28580.85	27689.7
931.517	2000.4232	28413.1	27521.6
931.6547	2002.0097	28287.45	27398.7
931.7923	2003.5955	28148.65	27255.85
931.93	2005.1805	28131.35	27237.25
932.0676	2006.7648	28084.7	27191.65
932.2052	2008.3484	27984.15	27091.3
932.3427	2009.9312	27920.7	27027.7
932.4803	2011.5133	27796.8	26907.65
932.6178	2013.0946	27703.6	26812.4
932.7553	2014.6752	27586.8	26698
932.8928	2016.2551	27483.9	26593
933.0302	2017.8342	27393.75	26500.9
933.1676	2019.4126	27280.7	26390.25
933.305	2020.9902	27168.55	26277.25
933.4424	2022.5672	27143.2	26249.85
933.5798	2024.1433	27049.25	26152.1
933.7171	2025.7188	26928.9	26037.9
933.8544	2027.2935	26866.5	25974.05
933.9917	2028.8674	26765.95	25877.55
934.129	2030.4406	26652.75	25765.1
934.2662	2032.0131	26475.5	25585.65
934.4034	2033.5849	26432.6	25536.15
934.5406	2035.1559	26400.3	25507
934.6778	2036.7261	26332.6	25441.65
934.8149	2038.2957	26282.15	25390.8
934.952	2039.8645	26146.5	25254.65
935.0891	2041.4325	26143.05	25248.75
935.2262	2042.9998	26038.4	25147.7
935.3632	2044.5664	25999.25	25106.35
935.5002	2046.1323	25894.25	25003.45
935.6372	2047.6974	25726.15	24832.05
935.7742	2049.2617	25687.4	24795.6
935.9111	2050.8254	25655.65	24741.2
936.048	2052.3883	25616.1	24720.25
936.1849	2053.9504	25509.35	24614.7
936.3218	2055.5118	25405.4	24510
936.4586	2057.0725	25243	24343.25
936.5955	2058.6325	25206.1	24309.7
936.7323	2060.1917	25121	24222.95
936.869	2061.7502	25066.6	24170.85
937.0058	2063.3079	24958.35	24063.4
937.1425	2064.8649	24847.75	23952.05
937.2792	2066.4212	24803.05	23910.8
937.4159	2067.9767	24759.8	23868.55
937.5525	2069.5315	24621.5	23729.6
937.6891	2071.0856	24507.3	23615.5
937.8257	2072.6389	24429.2	23536.1
937.9623	2074.1915	24291.15	23401.15
938.0989	2075.7433	24151.4	23259.2
938.2354	2077.2945	24093.3	23201.5
938.3719	2078.8448	24004.15	23113.2
938.5084	2080.3945	23947.1	23055.05
938.6448	2081.9434	23921.75	23028.65
938.7812	2083.4916	23769.75	22875.7
938.9176	2085.039	23676.65	22780.3
939.054	2086.5857	23676.1	22779.1
939.1903	2088.1317	23597.5	22701.4
939.3267	2089.677	23544.5	22647.85
939.463	2091.2215	23457	22561
939.5992	2092.7652	23363.35	22466.1
939.7355	2094.3083	23323.25	22428.85
939.8717	2095.8506	23277.85	22383.55
940.0079	2097.3921	23217.65	22323.45
940.1441	2098.933	23106.6	22214.55
940.2802	2100.4731	23061.45	22168.7
940.4163	2102.0124	23025.15	22127.1
940.5524	2103.5511	22970.8	22079.05
940.6885	2105.089	22936.2	22044.8
940.8245	2106.6261	22856.9	21965.7
940.9606	2108.1626	22790.6	21899.8
941.0965	2109.6983	22713.15	21792.2
941.2325	2111.2332	22631.05	21738.5
941.3684	2112.7675	22557.45	21665.75
941.5044	2114.301	22503.4	21610.75
941.6403	2115.8337	22485.35	21592.05
941.7761	2117.3657	22356.45	21465.6
941.912	2118.897	22286.75	21395.55
942.0478	2120.4276	22205.75	21309.15
942.1835	2121.9575	22109.75	21216.65
942.3193	2123.4866	22126.05	21220.3
942.455	2125.0149	22049.5	21155.65
942.5907	2126.5426	21916.35	21025.95
942.7264	2128.0695	21870.5	20974.8
942.8621	2129.5956	21839.8	20948.2
942.9977	2131.1211	21754.55	20857.65
943.1333	2132.6458	21692.4	20802.5
943.2689	2134.1698	21627.7	20735.95
943.4044	2135.693	21515.75	20621.95
943.54	2137.2155	21489.75	20595.65
943.6755	2138.7373	21427.45	20535.45
943.8109	2140.2584	21331.8	20441.3
943.9464	2141.7787	21278.5	20381.45
944.0818	2143.2983	21190	20298.95
944.2172	2144.8171	21052.85	20163.2
944.3526	2146.3353	21002.65	20109.8
944.4879	2147.8527	20914.65	20023.1
944.6232	2149.3693	20901.95	20010.95
944.7585	2150.8853	20783.55	19891.6
944.8938	2152.4005	20734.25	19842
945.029	2153.9149	20683.9	19791.05
945.1642	2155.4287	20596.4	19704.3
945.2994	2156.9417	20573.3	19679.05
945.4346	2158.454	20491.05	19596.15
945.5697	2159.9655	20442.7	19552.7
945.7048	2161.4764	20418.55	19526.35
945.8399	2162.9865	20344.25	19453.15
945.9749	2164.4958	20247.55	19355.6
946.1099	2166.0045	20175.75	19279.5
946.2449	2167.5124	20137.85	19246.4
946.3799	2169.0195	20053	19160.6
946.5148	2170.526	20070.65	19178.4
946.6498	2172.0317	19960.5	19066.85
946.7846	2173.5367	19887.1	18994.2
946.9195	2175.0409	19823.35	18932.65
947.0543	2176.5445	19828.6	18937.6
947.1891	2178.0473	19752.25	18861.4
947.3239	2179.5494	19639.2	18743.85
947.4587	2181.0507	19576.1	18684.55
947.5934	2182.5513	19515.75	18623.35
947.7281	2184.0512	19445.85	18554.4
947.8628	2185.5504	19388.7	18497.45
947.9974	2187.0488	19253.7	18361.55
948.132	2188.5465	19212.4	18320.15
948.2666	2190.0435	19130.35	18240
948.4012	2191.5397	19093.9	18203
948.5357	2193.0353	19018.4	18128.1
948.6702	2194.5301	18889.4	17996.8
948.8047	2196.0241	18869.85	17976.9
948.9392	2197.5175	18815.6	17924.15
949.0736	2199.0101	18750.15	17855.2
949.208	2200.502	18604	17712.55
949.3424	2201.9931	18523.6	17631.85
949.4767	2203.4835	18485.35	17592.2
949.611	2204.9733	18433.6	17538.05
949.7453	2206.4622	18376.7	17484.65
949.8796	2207.9505	18315.1	17418.2
950.0138	2209.438	18188.15	17299.25
950.148	2210.9248	18133.35	17243.7
950.2822	2212.4109	18088.75	17198.8
950.4164	2213.8962	18028.15	17131.95
950.5505	2215.3809	17988.65	17097.4
950.6846	2216.8648	17945.55	17053.45
950.8186	2218.3479	17870	16973.55
950.9527	2219.8304	17827.05	16934
951.0867	2221.3121	17737	16842.9
951.2207	2222.7931	17673.45	16781.9
951.3546	2224.2733	17588.8	16697.25
951.4886	2225.7529	17538.25	16645.5
951.6225	2227.2317	17505.1	16611.4
951.7563	2228.7098	17458.5	16567.05
951.8902	2230.1872	17325.8	16434.05
952.024	2231.6638	17286.05	16395.7
952.1578	2233.1397	17251.55	16352.75
952.2916	2234.6149	17204.3	16311.75
952.4253	2236.0894	17152.2	16260
952.559	2237.5632	17090.8	16189.4
952.6927	2239.0362	17025.95	16135.05
952.8263	2240.5085	16924.8	16032.7
952.9599	2241.9801	16906.7	16015.05
953.0935	2243.4509	16865.35	15973.6
953.2271	2244.921	16798.2	15907.15
953.3606	2246.3904	16708.6	15813.05
953.4941	2247.8591	16625.8	15734.8
953.6276	2249.3271	16589.9	15699.05
953.7611	2250.7943	16517.55	15626.35
953.8945	2252.2608	16455.15	15563.15
954.0279	2253.7266	16420.25	15529.4
954.1612	2255.1917	16382.65	15492.05
954.2946	2256.656	16288.2	15395.75
954.4279	2258.1197	16234.05	15344.85
954.5612	2259.5826	16186.5	15292.3
954.6944	2261.0447	16182.05	15288.25
954.8276	2262.5062	16098.45	15206.15
954.9608	2263.9669	16067.95	15174.45
955.094	2265.4269	16012.95	15121.3
955.2271	2266.8862	15923.05	15030.6
955.3602	2268.3448	15902.75	15010.6
955.4933	2269.8026	15887.65	14994.75
955.6264	2271.2598	15831.45	14939.85
955.7594	2272.7162	15751.45	14858.85
955.8924	2274.1719	15699.35	14807
956.0253	2275.6268	15680.45	14785.9
956.1583	2277.0811	15626.2	14734.15
956.2912	2278.5346	15586.05	14695.25
956.4241	2279.9874	15533.4	14643.3
956.5569	2281.4395	15474.15	14585.9
956.6897	2282.8908	15444.6	14548.95
956.8225	2284.3414	15369.9	14476.4
956.9553	2285.7914	15310.55	14417.95
957.088	2287.2406	15293.9	14399.6
957.2207	2288.689	15243.35	14353.3
957.3534	2290.1368	15188.95	14296.8
957.486	2291.5838	15122.8	14229.25
957.6186	2293.0302	15077.15	14183.15
957.7512	2294.4758	15002.65	14111.7
957.8838	2295.9206	14974.4	14080.55
958.0163	2297.3648	14905.8	14015.15
958.1488	2298.8082	14896.1	14004.35
958.2813	2300.251	14836.55	13945.05
958.4137	2301.693	14784.95	13891
958.5461	2303.1343	14764	13871.6
958.6785	2304.5748	14691.55	13800.15
958.8108	2306.0147	14636.4	13743.2
958.9432	2307.4538	14597.05	13703.3
959.0754	2308.8922	14551.8	13661.05
959.2077	2310.3299	14542.75	13651.9
959.3399	2311.7669	14454.3	13562.7
959.4721	2313.2031	14413.05	13521.1
959.6043	2314.6387	14351.25	13459.9
959.7365	2316.0735	14301.5	13409.85
959.8686	2317.5076	14292.3	13401.5
960.0006	2318.941	14233.85	13340.25
960.1327	2320.3737	14177.95	13286.4
960.2647	2321.8056	14134.25	13240.6
960.3967	2323.2369	14082.7	13189.45
960.5287	2324.6674	14047.35	13154.1
960.6606	2326.0972	13961.25	13066.85
960.7925	2327.5263	13934.3	13042
960.9244	2328.9547	13878.6	12986.55
961.0562	2330.3823	13834.75	12941.1
961.1881	2331.8092	13837	12943.05
961.3198	2333.2355	13761.3	12868
961.4516	2334.661	13724.05	12830.5
961.5833	2336.0858	13685.4	12790.8
961.715	2337.5098	13668.75	12775.1
961.8467	2338.9332	13629.45	12738.5
961.9783	2340.3558	13569	12673.7
962.1099	2341.7778	13502.4	12609.6
962.2415	2343.199	13448.5	12555.3
962.373	2344.6195	13433.95	12541.85
962.5045	2346.0393	13402.65	12512.5
962.636	2347.4583	13369.65	12479.15
962.7675	2348.8767	13294.05	12399.9
962.8989	2350.2943	13244.55	12352.2
963.0303	2351.7113	13240.05	12346.3
963.1617	2353.1275	13173.15	12279.5
963.293	2354.543	13166.15	12250
963.4243	2355.9578	13095.05	12202.85
963.5556	2357.3718	13014.95	12124.25
963.6868	2358.7852	12963.75	12068.65
963.818	2360.1978	12915.2	12023.35
963.9492	2361.6098	12891.5	11999.6
964.0803	2363.021	12838.05	11941.5
964.2114	2364.4315	12795.65	11904.55
964.3425	2365.8413	12757.85	11863.6
964.4736	2367.2504	12657.7	11768.25
964.6046	2368.6587	12637.2	11746.7
964.7356	2370.0664	12610.55	11719.35
964.8666	2371.4733	12530.6	11638.7
964.9975	2372.8795	12528.95	11636.55
965.1284	2374.285	12472.45	11580.35
965.2593	2375.6899	12390.6	11499.85
965.3901	2377.0939	12316	11425.25
965.5209	2378.4973	12237.75	11347.25
965.6517	2379.9	12239.5	11348.55
965.7825	2381.3019	12197.1	11305.7
965.9132	2382.7032	12158	11268.2
966.0439	2384.1037	12112.75	11222.15
966.1745	2385.5035	12057.6	11166.1
966.3051	2386.9027	12011.3	11120.3
966.4357	2388.3011	11985.9	11091.9
966.5663	2389.6987	11959.45	11069.25
966.6968	2391.0957	11919.65	11030.5
966.8273	2392.492	11866.05	10975.55
966.9578	2393.8876	11787.8	10896.7
967.0882	2395.2824	11740.05	10849.3
967.2186	2396.6765	11685.55	10795.2
967.349	2398.07	11612.35	10721.95
967.4793	2399.4627	11616.15	10726.15
967.6097	2400.8547	11577.25	10686.6
967.7399	2402.246	11524.35	10628.95
967.8702	2403.6366	11433.4	10541.75
968.0004	2405.0265	11409.7	10520.05
968.1306	2406.4156	11376.8	10482.7
968.2607	2407.8041	11337.55	10443.8
968.3909	2409.1918	11289.8	10395.7
968.521	2410.5789	11231.4	10342.9
968.651	2411.9652	11198.35	10302.05
968.781	2413.3508	11151.8	10260.35
968.911	2414.7358	11115.65	10224.75
969.041	2416.12	11080.15	10189.95
969.1709	2417.5035	11020.7	10130.6
969.3008	2418.8863	10977.2	10084.75
969.4307	2420.2684	10944.2	10052.85
969.5606	2421.6497	10890.65	10000.15
969.6904	2423.0304	10838.4	9948.35
969.8201	2424.4104	10808.75	9917.4
969.9499	2425.7896	10757.95	9864
970.0796	2427.1682	10768.3	9878.2
970.2093	2428.546	10719.1	9828
970.3389	2429.9232	10680.5	9786.85
970.4685	2431.2996	10658.5	9769.4
970.5981	2432.6753	10628.35	9737.15
970.7277	2434.0503	10605.45	9714.4
970.8572	2435.4246	10531.7	9641.8
970.9867	2436.7982	10507.55	9615.35
971.1161	2438.1711	10472.55	9581.3
971.2456	2439.5433	10446.7	9556.6
971.375	2440.9148	10413.5	9521.35
971.5043	2442.2856	10359.1	9468.8
971.6336	2443.6557	10313.75	9420.1
971.7629	2445.025	10271.4	9380.95
971.8922	2446.3937	10257.1	9365.45
972.0214	2447.7617	10191.4	9299
972.1506	2449.1289	10197.25	9306.1
972.2798	2450.4955	10177.85	9283.9
972.4089	2451.8613	10116.45	9227.3
972.538	2453.2265	10115.5	9224.55
972.6671	2454.5909	10082	9190.25
972.7961	2455.9546	10048.25	9157.3
972.9251	2457.3177	9998.9	9106.7
973.0541	2458.68	9981.1	9088.5
973.1831	2460.0416	9959	9068.65
973.312	2461.4025	9940.9	9047.95
973.4408	2462.7627	9903.85	8999.6
973.5697	2464.1222	9869	8978.4
973.6985	2465.4811	9852.75	8960.95
973.8273	2466.8392	9819.15	8926.8
973.956	2468.1966	9776.55	8881.8
974.0847	2469.5533	9787	8892.55
974.2134	2470.9093	9771.05	8880.4
974.3421	2472.2645	9718.85	8827.2
974.4707	2473.6191	9670.8	8779.75
974.5993	2474.973	9630.35	8740
974.7278	2476.3262	9588.3	8695.1
974.8563	2477.6787	9543.7	8652.75
974.9848	2479.0305	9512.65	8621.55
975.1132	2480.3816	9473.55	8581.95
975.2417	2481.7319	9447.25	8556.9
975.37	2483.0816	9400	8506.8
975.4984	2484.4306	9369.15	8476.55
975.6267	2485.7789	9321.5	8429.9
975.755	2487.1264	9274.7	8380.5
975.8833	2488.4733	9257	8367.2
976.0115	2489.8195	9221.15	8325.05
976.1397	2491.165	9196.35	8303.7
976.2678	2492.5097	9164.25	8272.2
976.3959	2493.8538	9129.65	8239.45
976.524	2495.1972	9071.95	8180.95
976.6521	2496.5398	9031.4	8139.8
976.7801	2497.8818	9046.35	8152.3
976.9081	2499.2231	8973.15	8080.35
977.036	2500.5637	8948.6	8055.65
977.164	2501.9035	8922.35	8031.5
977.2918	2503.2427	8876.45	7982.1
977.4197	2504.5812	8844.3	7951
977.5475	2505.919	8824.7	7930.95
977.6753	2507.256	8828.05	7935.5
977.8031	2508.5924	8770.55	7880.25
977.9308	2509.9281	8737.45	7840.75
978.0585	2511.2631	8716	7824.55
978.1861	2512.5974	8684.35	7796
978.3137	2513.9309	8659.7	7769.4
978.4413	2515.2638	8673.9	7748.15
978.5689	2516.596	8613.75	7722.25
978.6964	2517.9275	8574.85	7681.9
978.8239	2519.2583	8543.1	7651.2
978.9513	2520.5884	8516.3	7620.9
979.0788	2521.9178	8484.4	7593.25
979.2062	2523.2465	8433.95	7543
979.3335	2524.5745	8415.05	7525.05
979.4608	2525.9018	8351.35	7460.7
979.5881	2527.2284	8345.15	7455.4
979.7154	2528.5543	8316	7425.15
979.8426	2529.8796	8301.6	7409.15
979.9698	2531.2041	8280.95	7388.25
980.0969	2532.5279	8265.75	7375.45
980.224	2533.851	8244	7353.3
980.3511	2535.1735	8230.15	7337.8
980.4781	2536.4952	8207.55	7316.75
980.6052	2537.8163	8173.1	7281.45
980.7321	2539.1366	8154.2	7263.05
980.8591	2540.4562	8125.45	7234
980.986	2541.7752	8106.15	7214.55
981.1129	2543.0935	8108.3	7218.4
981.2397	2544.411	8050.4	7157.3
981.3665	2545.7279	8049.2	7160.45
981.4933	2547.0441	8054.9	7160.75
981.62	2548.3596	8021.3	7126.75
981.7467	2549.6744	8006.15	7115.3
981.8734	2550.9885	7968.1	7076
982.0001	2552.3019	7935.85	7046
982.1267	2553.6146	7905.5	7014.85
982.2532	2554.9266	7890.5	6998.35
982.3798	2556.2379	7858.1	6966.85
982.5063	2557.5485	7841.85	6951.2
982.6327	2558.8585	7839.35	6940.6
982.7592	2560.1677	7812.5	6917.9
982.8856	2561.4762	7796.05	6904.15
983.0119	2562.7841	7779.65	6883.95
983.1383	2564.0913	7757.55	6864.8
983.2646	2565.3977	7744.4	6854.75
983.3908	2566.7035	7707.4	6817.45
983.517	2568.0086	7693.25	6800.9
983.6432	2569.313	7666.95	6772.6
983.7694	2570.6167	7670.75	6774.05
983.8955	2571.9197	7628	6737
984.0216	2573.222	7638.8	6745.1
984.1476	2574.5236	7602.7	6709.85
984.2737	2575.8246	7577.25	6682.15
984.3996	2577.1248	7567.1	6673.85
984.5256	2578.4244	7569.55	6678.2
984.6515	2579.7232	7537.75	6646.5
984.7774	2581.0214	7537.7	6618.2
984.9032	2582.3189	7518.5	6627.75
985.029	2583.6157	7479.4	6582.3
985.1548	2584.9118	7468.7	6576.45
985.2806	2586.2072	7445.75	6554.35
985.4063	2587.5019	7406.85	6513.2
985.5319	2588.7959	7411.4	6521.55
985.6576	2590.0893	7398.05	6506.45
985.7832	2591.3819	7367.8	6479.85
985.9087	2592.6739	7354.4	6464
986.0343	2593.9652	7335.4	6442.25
986.1597	2595.2557	7300.75	6408.9
986.2852	2596.5456	7277.25	6384.4
986.4106	2597.8348	7246.2	6354.6
986.536	2599.1234	7209.85	6318.45
986.6614	2600.4112	7202.3	6309.4
986.7867	2601.6983	7183.15	6288
986.912	2602.9848	7148.4	6255.15
987.0372	2604.2705	7131.5	6233.65
987.1624	2605.5556	7128	6237.5
987.2876	2606.84	7073.1	6182.5
987.4128	2608.1237	7043.9	6151.95
987.5379	2609.4067	7010.8	6119.05
987.6629	2610.689	7019.95	6117.6
987.788	2611.9707	6975.5	6078.75
987.913	2613.2516	6936.8	6040.65
988.0379	2614.5319	6920.85	6030.65
988.1629	2615.8115	6899.45	6006
988.2878	2617.0903	6843.55	5952.35
988.4126	2618.3685	6835.75	5944.1
988.5375	2619.6461	6825.65	5934.45
988.6622	2620.9229	6794.25	5901.2
988.787	2622.199	6787.55	5894.95
988.9117	2623.4745	6766.05	5874.5
989.0364	2624.7493	6735.05	5842.4
989.161	2626.0234	6711.7	5820.4
989.2857	2627.2968	6699.95	5807.6
989.4102	2628.5695	6662.2	5770.6
989.5348	2629.8415	6621.9	5730.55
989.6593	2631.1128	6620.85	5727.25
989.7837	2632.3835	6603.1	5713.8
989.9082	2633.6535	6551	5659.35
990.0326	2634.9228	6544.3	5653.35
990.1569	2636.1914	6520.05	5629.15
990.2812	2637.4593	6515.15	5617.1
990.4055	2638.7265	6486.3	5593.1
990.5298	2639.9931	6455.5	5564.35
990.654	2641.259	6441.45	5547.75
990.7782	2642.5242	6407.6	5515.75
990.9023	2643.7887	6388.25	5495.85
991.0264	2645.0525	6378.9	5486.6
991.1505	2646.3156	6360.3	5467.65
991.2745	2647.5781	6343.85	5454.35
991.3985	2648.8398	6308.3	5417.25
991.5225	2650.1009	6278.9	5377.9
991.6464	2651.3613	6273.35	5382.5
991.7703	2652.6211	6254.4	5362.5
991.8942	2653.8801	6233.25	5343.15
992.018	2655.1385	6238.6	5345
992.1418	2656.3961	6214.35	5320.55
992.2655	2657.6531	6194.85	5303.9
992.3892	2658.9094	6167.9	5274.8
992.5129	2660.1651	6138.4	5247.45
992.6366	2661.42	6139.85	5247
992.7602	2662.6743	6122.2	5229.6
992.8837	2663.9279	6117.2	5224.7
993.0073	2665.1808	6084.5	5191.8
993.1307	2666.433	6080.35	5185.35
993.2542	2667.6846	6058.6	5167.75
993.3776	2668.9354	6058.45	5163.15
993.501	2670.1856	6046.55	5153.15
993.6244	2671.4351	6011.05	5119.2
993.7477	2672.6839	6026.35	5133.35
993.8709	2673.9321	5992.55	5101.7
993.9942	2675.1795	5970.6	5078.85
994.1174	2676.4263	5960.45	5068.95
994.2405	2677.6724	5950.3	5057.95
994.3637	2678.9179	5915.6	5023.95
994.4868	2680.1626	5899.65	5008.6
994.6098	2681.4067	5893.05	5002.2
994.7328	2682.6501	5879.2	4987.7
994.8558	2683.8928	5868.95	4976.65
994.9788	2685.1348	5856.7	4967.05
995.1017	2686.3761	5798.75	4906.95
995.2245	2687.6168	5802.4	4910.55
995.3474	2688.8568	5768.75	4875.85
995.4702	2690.0961	5744.3	4854.7
995.5929	2691.3348	5745.95	4852.8
995.7156	2692.5727	5704	4814.4
995.8383	2693.81	5689.8	4799.55
995.961	2695.0466	5673.75	4783.95
996.0836	2696.2826	5657.6	4765.75
996.2062	2697.5178	5653.3	4758.65
996.3287	2698.7524	5636.75	4744.25
996.4512	2699.9863	5628.2	4734.5
996.5737	2701.2195	5601.8	4710.85
996.6961	2702.452	5598.25	4705.85
996.8185	2703.6839	5572.35	4679.95
996.9408	2704.9151	5551.4	4661.6
997.0631	2706.1456	5541.25	4649.3
997.1854	2707.3755	5511.15	4619.75
997.3077	2708.6046	5510.25	4615.9
997.4299	2709.8331	5513.45	4622.05
997.552	2711.0609	5484.2	4593
997.6742	2712.2881	5479	4588.55
997.7963	2713.5145	5462	4568.3
997.9183	2714.7403	5455.2	4562.7
998.0403	2715.9654	5466.7	4574.4
998.1623	2717.1899	5477.95	4571.25
998.2842	2718.4136	5455.85	4563.65
998.4062	2719.6367	5429.65	4537.05
998.528	2720.8591	5435.25	4537.15
998.6498	2722.0809	5395.15	4505.15
998.7716	2723.3019	5398.85	4502.35
998.8934	2724.5223	5391.2	4498
999.0151	2725.7421	5400.45	4506.4
999.1368	2726.9611	5363.15	4469.8
999.2584	2728.1795	5363.05	4466.95
999.38	2729.3972	5321.1	4431.15
999.5016	2730.6142	5291.45	4394.5
999.6231	2731.8306	5273.75	4381.15
999.7446	2733.0462	5241.6	4346.5
999.8661	2734.2612	5197.15	4299.25
999.9875	2735.4756	5168.55	4275.3
1000.1089	2736.6892	5125.75	4232.9
1000.2302	2737.9022	5104.1	4213.25
1000.3515	2739.1145	5076.35	4184.05
1000.4728	2740.3262	5040	4141.8
1000.594	2741.5372	5018.5	4126.8
1000.7152	2742.7475	4996	4104
1000.8363	2743.9571	4985.9	4091.35
1000.9575	2745.1661	4969.7	4070.85
1001.0785	2746.3744	4929.55	4035.75
1001.1996	2747.582	4912.5	4020.65
1001.3206	2748.7889	4897.6	4004
1001.4415	2749.9952	4881.65	3990.7
1001.5625	2751.2008	4867.35	3975.7
1001.6833	2752.4057	4843.8	3947.7
1001.8042	2753.61	4829.2	3936.2
1001.925	2754.8136	4796.05	3901.35
1002.0458	2756.0165	4779.7	3889.75
1002.1665	2757.2188	4778.8	3888.15
1002.2872	2758.4204	4763.6	3872.15
1002.4078	2759.6213	4739.4	3843.7
1002.5285	2760.8215	4742.55	3843.8
1002.649	2762.0211	4729.8	3835.8
1002.7696	2763.22	4700.25	3807
1002.8901	2764.4182	4694.25	3800.2
1003.0106	2765.6158	4673.85	3782.55
1003.131	2766.8127	4651.85	3762.15
1003.2514	2768.009	4630.95	3738.2
1003.3717	2769.2045	4603.05	3709.7
1003.492	2770.3994	4607.5	3714.95
1003.6123	2771.5936	4599.7	3706.35
1003.7325	2772.7872	4584.25	3693.4
1003.8527	2773.9801	4547.7	3654.55
1003.9729	2775.1723	4542.9	3633.45
1004.093	2776.3639	4533.3	3642.35
1004.2131	2777.5548	4518.4	3626.5
1004.3331	2778.745	4503.25	3609.85
1004.4531	2779.9346	4493	3601.4
1004.5731	2781.1235	4493	3600.65
1004.693	2782.3117	4482.1	3590.9
1004.8129	2783.4992	4465.85	3575.25
1004.9328	2784.6861	4465.85	3573.1
1005.0526	2785.8723	4440.95	3550.2
1005.1723	2787.0579	4437.5	3543.7
1005.2921	2788.2428	4435.75	3544.15
1005.4118	2789.427	4436.55	3543.05
1005.5314	2790.6106	4424.45	3530.7
1005.651	2791.7935	4419.25	3527.55
1005.7706	2792.9757	4406.35	3515.85
1005.8902	2794.1573	4420.45	3526.8
1006.0097	2795.3382	4401.9	3511.95
1006.1291	2796.5184	4404.4	3513.6
1006.2485	2797.698	4416.6	3524.15
1006.3679	2798.8769	4414.05	3523.3
1006.4873	2800.0551	4429.65	3536.95
1006.6066	2801.2327	4422.15	3528.65
1006.7258	2802.4096	4423.6	3533.1
1006.8451	2803.5859	4434.2	3543.1
1006.9642	2804.7615	4424.75	3532.2
1007.0834	2805.9364	4449.75	3557.1
1007.2025	2807.1106	4474.8	3583.05
1007.3216	2808.2842	4482.5	3590.45
1007.4406	2809.4572	4493.15	3599.95
1007.5596	2810.6294	4518.8	3624.75
1007.6785	2811.801	4565.3	3676.65
1007.7975	2812.972	4576.7	3687.15
1007.9163	2814.1423	4628.45	3739.7
1008.0352	2815.3119	4646.15	3755.5
1008.154	2816.4808	4693.95	3804.9
1008.2727	2817.6491	4744.8	3849.7
1008.3914	2818.8167	4766.65	3876.05
1008.5101	2819.9837	4806.25	3911.7
1008.6288	2821.15	4830.2	3939.95
1008.7474	2822.3157	4882.75	3993.05
1008.8659	2823.4807	4912.3	4021.05
1008.9844	2824.645	4946.45	4053.6
1009.1029	2825.8086	4977.05	4085.65
1009.2214	2826.9716	5007.65	4117.45
1009.3398	2828.134	5048.85	4159.7
1009.4581	2829.2957	5082.45	4192.45
1009.5764	2830.4567	5082.8	4193.7
1009.6947	2831.617	5089.65	4197.3
1009.813	2832.7767	5083.65	4193.3
1009.9312	2833.9358	5094.9	4204.75
1010.0493	2835.0941	5079.8	4187.15
1010.1675	2836.2519	5067.8	4176.6
1010.2855	2837.4089	5044.7	4151.9
1010.4036	2838.5653	5032	4140.25
1010.5216	2839.7211	5017.05	4127.3
1010.6396	2840.8761	5024.8	4133.55
1010.7575	2842.0306	5042.5	4152.7
1010.8754	2843.1843	5060.95	4169.8
1010.9932	2844.3374	5110.8	4221.25
1011.111	2845.4899	5155.8	4263.4
1011.2288	2846.6417	5214	4321.15
1011.3465	2847.7928	5295.2	4405.4
1011.4642	2848.9433	5364.25	4473
1011.5818	2850.0931	5436.1	4546.1
1011.6995	2851.2422	5508.9	4616.9
1011.817	2852.3907	5572.85	4680.35
1011.9345	2853.5385	5620.35	4727.5
1012.052	2854.6857	5703	4783.9
1012.1695	2855.8323	5716.9	4825
1012.2869	2856.9781	5749.45	4859.5
1012.4042	2858.1233	5775.75	4886.15
1012.5216	2859.2679	5815	4922.65
1012.6389	2860.4118	5856	4964.25
1012.7561	2861.555	5866.15	4970.45
1012.8733	2862.6976	5928.35	5032.9
1012.9905	2863.8395	5927.9	5037.3
1013.1076	2864.9808	5945.55	5054.5
1013.2247	2866.1214	5945.55	5055.45
1013.3417	2867.2614	5946.95	5057.25
1013.4587	2868.4007	5974.35	5081.3
1013.5757	2869.5393	5946.55	5054.45
1013.6926	2870.6773	5971.6	5075.7
1013.8095	2871.8146	5982.8	5088.9
1013.9263	2872.9513	5950.9	5059.3
1014.0431	2874.0874	5944.95	5053.75
1014.1599	2875.2227	5938.9	5048.35
1014.2766	2876.3574	5908.45	5017.4
1014.3933	2877.4915	5863.75	4972.75
1014.51	2878.6249	5823.85	4932
1014.6266	2879.7577	5785.85	4895.05
1014.7431	2880.8898	5768.95	4865.95
1014.8596	2882.0212	5746.3	4855.75
1014.9761	2883.152	5720.85	4830.55
1015.0925	2884.2821	5707.25	4817.65
1015.2089	2885.4116	5669.3	4779.45
1015.3253	2886.5405	5655.05	4763.8
1015.4416	2887.6686	5664.15	4769.35
1015.5579	2888.7962	5658.75	4770.45
1015.6741	2889.923	5651.85	4762.55
1015.7903	2891.0493	5656.5	4767.7
1015.9065	2892.1748	5653.45	4761.25
1016.0226	2893.2997	5658.55	4768.15
1016.1387	2894.424	5674.75	4784.65
1016.2547	2895.5476	5658.15	4767.2
1016.3707	2896.6706	5700.75	4811.75
1016.4866	2897.7929	5701.15	4809.1
1016.6025	2898.9145	5714.7	4822.8
1016.7184	2900.0355	5737.4	4844.35
1016.8342	2901.1559	5774	4883.25
1016.95	2902.2756	5780.5	4891.7
1017.0658	2903.3946	5812.15	4920.55
1017.1815	2904.513	5823.65	4931.1
1017.2971	2905.6308	5855.4	4965.75
1017.4127	2906.7479	5881.15	4989.35
1017.5283	2907.8643	5878.95	4987.65
1017.6439	2908.9801	5880.1	4989.25
1017.7594	2910.0953	5870.85	4977.45
1017.8748	2911.2098	5872.6	4978.35
1017.9902	2912.3236	5859.7	4959.8
1018.1056	2913.4368	5853.3	4959
1018.2209	2914.5494	5810.6	4919.1
1018.3362	2915.6613	5772.85	4876.45
1018.4515	2916.7725	5746.15	4853.9
1018.5667	2917.8831	5729	4837.05
1018.6819	2918.9931	5689.25	4795.55
1018.797	2920.1024	5643.65	4751.65
1018.9121	2921.211	5621.65	4731.7
1019.0271	2922.319	5573.3	4681.7
1019.1421	2923.4264	5575.1	4684.35
1019.2571	2924.5331	5532.4	4643.1
1019.372	2925.6391	5510.75	4619.35
1019.4869	2926.7445	5500.55	4609.7
1019.6017	2927.8493	5495	4602.4
1019.7165	2928.9534	5463.15	4571.25
1019.8313	2930.0569	5450.55	4556.95
1019.946	2931.1597	5450.15	4559.25
1020.0606	2932.2619	5430.85	4539.3
1020.1753	2933.3634	5409.65	4520.25
1020.2899	2934.4643	5401.7	4505
1020.4044	2935.5645	5364.4	4467.5
1020.5189	2936.6641	5323.45	4428.75
1020.6334	2937.763	5268.85	4375.65
1020.7478	2938.8613	5219.1	4327.85
1020.8622	2939.959	5156.5	4259.65
1020.9765	2941.056	5039.95	4151.8
1021.0908	2942.1523	4959.4	4066.15
1021.2051	2943.248	4876.9	3984.8
1021.3193	2944.3431	4771.5	3880.65
1021.4334	2945.4375	4662.1	3770.8
1021.5476	2946.5313	4566.15	3674.8
1021.6617	2947.6244	4444.2	3552.5
1021.7757	2948.7169	4352.3	3459.35
1021.8897	2949.8087	4234.35	3341.85
1022.0037	2950.8999	4113.8	3222.35
1022.1176	2951.9904	4038.15	3149.7
1022.2315	2953.0803	3962.9	3073.2
1022.3453	2954.1696	3895.25	3003.75
1022.4591	2955.2582	3820.9	2932.25
1022.5728	2956.3462	3770.15	2880.5
1022.6865	2957.4335	3708.45	2815.8
1022.8002	2958.5202	3678.15	2784.2
1022.9138	2959.6062	3662.1	2770.85
1023.0274	2960.6916	3612.9	2723.3
1023.141	2961.7764	3580.4	2689.65
1023.2545	2962.8605	3557.8	2665.5
1023.3679	2963.9439	3543.05	2653.35
1023.4813	2965.0267	3525.05	2633.5
1023.5947	2966.1089	3532.35	2618.4
1023.708	2967.1905	3496.55	2608.1
1023.8213	2968.2714	3490.75	2601.05
1023.9346	2969.3516	3492.65	2602.2
1024.0478	2970.4312	3472.8	2572.6
1024.1609	2971.5102	3458.65	2565.5
1024.274	2972.5885	3461.2	2570.4
1024.3871	2973.6662	3447.7	2553
1024.5002	2974.7432	3444.2	2555.75
1024.6132	2975.8196	3422.6	2533.45
1024.7261	2976.8954	3418.25	2529.35
1024.839	2977.9705	3395.5	2506.85
1024.9519	2979.045	3378.05	2488.05
1025.0647	2980.1188	3341.7	2452.4
1025.1775	2981.192	3321.8	2432.7
1025.2902	2982.2645	3293.4	2402.55
1025.4029	2983.3364	3251.35	2358.75
1025.5156	2984.4077	3223.65	2334.4
1025.6282	2985.4783	3182.8	2285.8
1025.7407	2986.5483	3159.95	2268.15
1025.8532	2987.6177	3117.85	2229.75
1025.9657	2988.6864	3076.9	2185.3
1026.0782	2989.7545	3034.45	2141.55
1026.1906	2990.8219	2987.5	2097.7
1026.3029	2991.8887	2953.7	2062.1
1026.4152	2992.9548	2930.2	2038.25
1026.5275	2994.0204	2893.6	2005.35
1026.6397	2995.0852	2844.15	1952.95
1026.7519	2996.1495	2825.7	1932.25
1026.864	2997.2131	2794.2	1903.4
1026.9761	2998.276	2784.25	1893.95
1027.0882	2999.3383	2746	1856.3
1027.2002	3000.4	2720.7	1827.95
1027.3122	3001.4611	2701.95	1808.75
1027.4241	3002.5215	2683.9	1791.4
1027.536	3003.5812	2661.7	1770.5
1027.6478	3004.6404	2646.9	1755.4
1027.7596	3005.6989	2634.5	1743.35
1027.8714	3006.7567	2621	1728.55
1027.9831	3007.8139	2624.1	1712.25
1028.0947	3008.8705	2585.5	1694.3
1028.2064	3009.9264	2591.75	1683.1
1028.3179	3010.9818	2577.15	1685.25
1028.4295	3012.0364	2558.9	1667.45
1028.541	3013.0905	2551.3	1660.6
1028.6524	3014.1439	2557.4	1666.15
1028.7638	3015.1966	2540.2	1650.95
1028.8752	3016.2487	2531.05	1638
1028.9865	3017.3002	2546	1647.2
1029.0978	3018.3511	2522.7	1633.55
1029.209	3019.4013	2521.4	1632.15
1029.3202	3020.4509	2519.95	1631.05
1029.4314	3021.4998	2518.85	1629.25
1029.5425	3022.5481	2513.4	1622.3
1029.6535	3023.5958	2515.1	1625.25
1029.7645	3024.6428	2507.8	1616.15
1029.8755	3025.6892	2503.7	1614.35
1029.9864	3026.735	2491.05	1601.1
1030.0973	3027.7802	2503.15	1611.2
1030.2082	3028.8247	2476.75	1585.9
1030.319	3029.8685	2480.75	1587.6
1030.4297	3030.9118	2484.8	1592.45
1030.5404	3031.9544	2488.3	1598.95
1030.6511	3032.9963	2486.4	1595.75
1030.7617	3034.0376	2490.75	1601.4
1030.8723	3035.0783	2483.5	1589.5
1030.9829	3036.1184	2487	1593.8
1031.0934	3037.1578	2481.35	1590.8
1031.2038	3038.1966	2478.15	1586.15
1031.3142	3039.2348	2464.45	1574.35
1031.4246	3040.2723	2483.1	1585.2
1031.5349	3041.3092	2459.1	1570.6
1031.6452	3042.3455	2456.75	1567.45
1031.7554	3043.3811	2438.65	1547.1
1031.8656	3044.4161	2438.5	1548.1
1031.9758	3045.4505	2425.9	1538.25
1032.0859	3046.4842	2419.9	1529.7
1032.1959	3047.5173	2406.1	1517.6
1032.3059	3048.5498	2401.9	1512.05
1032.4159	3049.5816	2386.65	1496.25
1032.5258	3050.6128	2369.5	1478.75
1032.6357	3051.6434	2371.85	1479.8
1032.7455	3052.6734	2356.45	1465.9
1032.8553	3053.7027	2339.95	1449.1
1032.9651	3054.7314	2334.3	1445.3
1033.0748	3055.7594	2320.85	1430.75
1033.1845	3056.7868	2312.95	1421.15
1033.2941	3057.8136	2307.75	1418.6
1033.4037	3058.8398	2300.1	1410.3
1033.5132	3059.8653	2287.55	1397.65
1033.6227	3060.8902	2272.6	1382.25
1033.7321	3061.9145	2250.55	1359.95
1033.8415	3062.9381	2252.35	1361.6
1033.9509	3063.9612	2264.55	1358
1034.0602	3064.9835	2226	1334.15
1034.1694	3066.0053	2227.9	1337.9
1034.2787	3067.0264	2211.95	1321.75
1034.3878	3068.0469	2206.05	1315.1
1034.497	3069.0668	2199.05	1305.15
1034.6061	3070.086	2174.55	1284.5
1034.7151	3071.1046	2166.1	1275.65
1034.8241	3072.1226	2157	1264.65
1034.9331	3073.1399	2134.95	1244.6
1035.042	3074.1567	2129.25	1238.5
1035.1508	3075.1727	2111.95	1220.9
1035.2597	3076.1882	2098.95	1209.95
1035.3684	3077.203	2087.5	1196.6
1035.4772	3078.2173	2076	1185.7
1035.5859	3079.2308	2065.15	1172.35
1035.6945	3080.2438	2061.1	1167.1
1035.8031	3081.2561	2031.85	1140.85
1035.9117	3082.2678	2035.55	1145.75
1036.0202	3083.2789	2019.05	1131.05
1036.1286	3084.2893	2011.6	1122.75
1036.2371	3085.2991	2009.5	1118.3
1036.3454	3086.3083	1999.35	1105.5
1036.4538	3087.3169	1984.25	1091.7
1036.562	3088.3248	1968	1075.5
1036.6703	3089.3321	1960.5	1069.15
1036.7785	3090.3388	1952.4	1061.85
1036.8866	3091.3449	1956.3	1066.05
1036.9948	3092.3503	1945.25	1052.15
1037.1028	3093.3551	1934.05	1043.1
1037.2108	3094.3593	1941.3	1052.35
1037.3188	3095.3629	1918.55	1028.6
1037.4267	3096.3658	1910.55	1019.9
1037.5346	3097.3681	1907.15	1015.45
1037.6425	3098.3698	1903.35	1012.8
1037.7503	3099.3708	1896.2	999.5
1037.858	3100.3713	1890.15	999.2
1037.9657	3101.3711	1877.95	987.55
1038.0734	3102.3702	1983.7	975.85
1038.181	3103.3688	1883.25	990.85
1038.2886	3104.3667	1858.35	968.2
1038.3961	3105.364	1854.5	964.55
1038.5036	3106.3607	1842.1	950.2
1038.611	3107.3568	1843.7	950.5
1038.7184	3108.3522	1839.4	950.25
1038.8257	3109.347	1827.15	936.9
1038.933	3110.3412	1827.55	931.9
1039.0403	3111.3348	1819.9	929.45
1039.1475	3112.3277	1812.55	923.05
1039.2547	3113.32	1809	919.7
1039.3618	3114.3117	1806.4	916.7
1039.4689	3115.3028	1795.25	905.6
1039.5759	3116.2932	1791	899.15
1039.6829	3117.2831	1787.3	890.3
1039.7898	3118.2723	1780.45	890.95
1039.8967	3119.2608	1773.1	883.45
1040.0035	3120.2488	1768	878.75
1040.1103	3121.2361	1768.45	877.1
1040.2171	3122.2229	1761.15	869.25
1040.3238	3123.209	1756.9	864.5
1040.4305	3124.1944	1748.25	859.4
1040.5371	3125.1793	1747.15	856.95
1040.6437	3126.1635	1739.25	849.7
1040.7502	3127.1471	1737.25	847.95
1040.8567	3128.1301	1736.15	846.1
1040.9631	3129.1125	1733.9	845.15
1041.0695	3130.0942	1731.4	840.5
1041.1759	3131.0753	1730.15	831.55
1041.2822	3132.0558	1721	828
1041.3884	3133.0357	1711.75	821.3
1041.4946	3134.015	1700.3	808.25
1041.6008	3134.9936	1700.1	810.25
1041.7069	3135.9716	1731.05	819.3
1041.813	3136.949	1691.05	800.75
1041.919	3137.9258	1705.9	810.1
1042.025	3138.902	1689.05	793.2
1042.1309	3139.8775	1682.3	791.7
1042.2368	3140.8524	1676.95	786.5
1042.3427	3141.8267	1680.25	788.45
1042.4485	3142.8004	1675.8	785.35
1042.5542	3143.7735	1670.35	774.6
1042.6599	3144.7459	1669.35	775.65
1042.7656	3145.7178	1658.8	768.65
1042.8712	3146.689	1651.55	763.1
1042.9768	3147.6596	1652.6	761.15
1043.0823	3148.6295	1648.15	757.55
1043.1878	3149.5989	1649.85	760.75
1043.2932	3150.5676	1631.15	741.5
1043.3986	3151.5357	1630.4	742.85
1043.5039	3152.5032	1634.6	746.65
1043.6092	3153.4701	1628.3	740
1043.7145	3154.4364	1629.9	738.85
1043.8197	3155.402	1616.7	725.1
1043.9248	3156.367	1616.1	724.4
1044.03	3157.3315	1647.95	719.4
1044.135	3158.2952	1606.7	717.2
1044.24	3159.2584	1606.55	718.8
1044.345	3160.221	1595.95	704.05
1044.4499	3161.1829	1588	697.6
1044.5548	3162.1442	1590.7	701.9
1044.6596	3163.105	1581.4	692.15
1044.7644	3164.065	1579.7	689.45
1044.8692	3165.0245	1580	685
1044.9739	3165.9834	1571.85	683.55
1045.0785	3166.9416	1563.4	674.1
1045.1831	3167.8993	1573.85	682.35
1045.2877	3168.8563	1566.15	678.15
1045.3922	3169.8127	1565.95	677.35
1045.4966	3170.7684	1557.15	669.55
1045.6011	3171.7236	1550.05	659.9
1045.7054	3172.6782	1555.8	664.5
1045.8098	3173.6321	1545.35	653.8
1045.914	3174.5854	1539.5	646.55
1046.0183	3175.5381	1540.2	651.65
1046.1224	3176.4902	1523.2	633.8
1046.2266	3177.4417	1529.5	641.65
1046.3307	3178.3926	1523.7	633.9
1046.4347	3179.3428	1524.4	635.15
1046.5387	3180.2924	1514.5	622.95
1046.6427	3181.2415	1519.1	627.8
1046.7466	3182.1899	1513.5	622.8
1046.8504	3183.1377	1506.2	616.3
1046.9542	3184.0848	1505.9	612.1
1047.058	3185.0314	1500.6	609.8
1047.1617	3185.9773	1504.6	614
1047.2654	3186.9227	1492.05	601.25
1047.369	3187.8674	1480.1	589.7
1047.4726	3188.8115	1491.95	597.45
1047.5761	3189.755	1491.45	601.55
1047.6796	3190.6979	1482.95	594.6
1047.783	3191.6402	1478.25	587.05
1047.8864	3192.5818	1474.7	587.1
1047.9898	3193.5229	1493.65	579.85
1048.0931	3194.4633	1464.5	574.15
1048.1963	3195.4031	1471.2	580.5
1048.2995	3196.3423	1459.65	570
1048.4027	3197.2809	1456.15	565.45
1048.5058	3198.2189	1466.9	577.55
1048.6089	3199.1563	1470.4	566.55
1048.7119	3200.0931	1454.9	567.15
1048.8148	3201.0292	1449.55	559.3
1048.9178	3201.9648	1442.8	553.6
1049.0206	3202.8997	1448.55	556.35
1049.1235	3203.834	1437.85	547.95
1049.2262	3204.7677	1435.3	544.9
1049.329	3205.7008	1436.7	543.45
1049.4317	3206.6333	1431.15	543.3
1049.5343	3207.5652	1434.5	542.3
1049.6369	3208.4964	1432.55	541.9
1049.7394	3209.4271	1423.8	533.1
1049.8419	3210.3571	1412.1	522.15
1049.9444	3211.2865	1416.95	528.75
1050.0468	3212.2154	1416.2	527
1050.1491	3213.1436	1419.15	526.4
1050.2514	3214.0712	1416.8	519.8
1050.3537	3214.9982	1402.9	511.45
1050.4559	3215.9246	1407.65	518
1050.5581	3216.8503	1406.5	518.35
1050.6602	3217.7755	1401.3	510.95
1050.7623	3218.7001	1395.95	506.75
1050.8643	3219.624	1396.65	506.1
1050.9663	3220.5473	1396.6	506.9
1051.0682	3221.4701	1387.85	496.65
1051.1701	3222.3922	1390.75	499.1
1051.2719	3223.3137	1385.3	496
1051.3737	3224.2346	1381.6	493.35
1051.4754	3225.1549	1381.4	494.65
1051.5771	3226.0746	1374.75	485.85
1051.6788	3226.9937	1376.9	484.7
1051.7804	3227.9121	1373.7	485.8
1051.8819	3228.83	1364.6	476.1
1051.9834	3229.7473	1375.4	485.7
1052.0849	3230.6639	1363	473
1052.1863	3231.5799	1368.35	479.05
1052.2876	3232.4954	1356.6	466.6
1052.3889	3233.4102	1355.35	468.05
1052.4902	3234.3244	1346.5	457.75
1052.5914	3235.238	1351.1	461.55
1052.6926	3236.151	1372.5	460.65
1052.7937	3237.0634	1348.5	460.3
1052.8948	3237.9752	1338.2	449.15
1052.9958	3238.8864	1341.9	452.45
1053.0968	3239.797	1338.55	448.75
1053.1977	3240.7069	1333.8	444.3
1053.2986	3241.6163	1329.1	437.95
1053.3994	3242.5251	1332.55	443.5
1053.5002	3243.4332	1324.15	435.5
1053.6009	3244.3408	1326	436.85
1053.7016	3245.2477	1320.4	432.6
1053.8022	3246.154	1318.1	427.4
1053.9028	3247.0598	1308.95	417.1
1054.0034	3247.9649	1307.2	417.6
1054.1039	3248.8694	1312.8	422.95
1054.2043	3249.7733	1308.45	419.3
1054.3047	3250.6766	1304.7	414.1
1054.4051	3251.5793	1302.35	413.2
1054.5054	3252.4814	1297.7	409.2
1054.6056	3253.3829	1298.95	409.7
1054.7058	3254.2838	1298.35	411
1054.806	3255.1841	1292.95	405.75
1054.9061	3256.0838	1290.7	402.4
1055.0061	3256.9829	1287.55	397.45
1055.1062	3257.8814	1283.8	391.65
1055.2061	3258.7792	1283.55	389.7
1055.306	3259.6765	1272.15	382.6
1055.4059	3260.5731	1265.95	377.7
1055.5057	3261.4692	1264.15	374.2
1055.6055	3262.3647	1260.05	370.8
1055.7052	3263.2595	1258.85	368.35
1055.8049	3264.1538	1248.4	358.7
1055.9045	3265.0474	1246.75	356.5
1056.0041	3265.9404	1242.65	351.75
1056.1036	3266.8329	1230	340.1
1056.2031	3267.7247	1239.9	340.2
1056.3025	3268.616	1217	326.4
1056.4019	3269.5066	1212.55	322.45
1056.5013	3270.3966	1209.15	318.9
1056.6005	3271.286	1193.25	304.95
